 1 - depth, m
 2 - temperature, C
 3 - salinity, kg/kg
 4 - turbulent kinetic energy, m**2/s**2
 5 - dissipation rate, m**2/s**3
 6 - kinematic heat conductance, m**2/s
 7 - modulus of horizontal velocity, m/s
 8 - Richardson number, n/d
   -0.000000   29.47895  0.4681E-13  0.5056E-05  0.2871E-06  0.5035E-04  0.2938E-02  0.1468E+04
   -0.049997   29.50919  0.4681E-13  0.8299E-05  0.1257E-06  0.1936E-03  0.1591E-02  0.3191E+02
   -0.099994   29.51871  0.4681E-13  0.9829E-05  0.8882E-07  0.3815E-03  0.1233E-02  0.6049E+01
   -0.149992   29.52202  0.4681E-13  0.1083E-04  0.7469E-07  0.4760E-03  0.1094E-02  0.3081E+01
   -0.199991   29.52455  0.4681E-13  0.1161E-04  0.6641E-07  0.6180E-03  0.9845E-03  0.2023E+01
   -0.249989   29.52645  0.4681E-13  0.1224E-04  0.6097E-07  0.7321E-03  0.9006E-03  0.1535E+01
   -0.299989   29.52801  0.4681E-13  0.1277E-04  0.5702E-07  0.8417E-03  0.8298E-03  0.1342E+01
   -0.349988   29.52933  0.4681E-13  0.1323E-04  0.5392E-07  0.9537E-03  0.7655E-03  0.1307E+01
   -0.399988   29.53046  0.4681E-13  0.1364E-04  0.5137E-07  0.1069E-02  0.7044E-03  0.1295E+01
   -0.449988   29.53145  0.4681E-13  0.1401E-04  0.4923E-07  0.1183E-02  0.6482E-03  0.1296E+01
   -0.499988   29.53232  0.4681E-13  0.1434E-04  0.4743E-07  0.1290E-02  0.5973E-03  0.1302E+01
   -0.549989   29.53311  0.4681E-13  0.1462E-04  0.4592E-07  0.1389E-02  0.5516E-03  0.1298E+01
   -0.599990   29.53383  0.4681E-13  0.1486E-04  0.4465E-07  0.1478E-02  0.5103E-03  0.1293E+01
   -0.649991   29.53449  0.4681E-13  0.1506E-04  0.4359E-07  0.1557E-02  0.4731E-03  0.1283E+01
   -0.699992   29.53511  0.4681E-13  0.1522E-04  0.4271E-07  0.1625E-02  0.4396E-03  0.1273E+01
   -0.749993   29.53569  0.4681E-13  0.1534E-04  0.4198E-07  0.1682E-02  0.4093E-03  0.1258E+01
   -0.799995   29.53625  0.4681E-13  0.1543E-04  0.4139E-07  0.1727E-02  0.3819E-03  0.1247E+01
   -0.849996   29.53678  0.4681E-13  0.1550E-04  0.4093E-07  0.1761E-02  0.3571E-03  0.1235E+01
   -0.899998   29.53730  0.4681E-13  0.1553E-04  0.4058E-07  0.1783E-02  0.3347E-03  0.1233E+01
   -0.950000   29.53780  0.4681E-13  0.1555E-04  0.4034E-07  0.1796E-02  0.3143E-03  0.1236E+01
   -1.000002   29.53830  0.4681E-13  0.1554E-04  0.4020E-07  0.1800E-02  0.2957E-03  0.1262E+01
   -1.050003   29.53878  0.4681E-13  0.1550E-04  0.4016E-07  0.1793E-02  0.2787E-03  0.1349E+01
   -1.100005   29.53927  0.4681E-13  0.1545E-04  0.4022E-07  0.1905E-02  0.2630E-03  0.4251E+01
   -1.150007   29.53972  0.4681E-13  0.1538E-04  0.4041E-07  0.1670E-02  0.2495E-03  0.1009E+02
   -1.200008   29.54023  0.4681E-13  0.1529E-04  0.4070E-07  0.1719E-02  0.2351E-03  0.1886E+01
   -1.250010   29.54071  0.4681E-13  0.1517E-04  0.4116E-07  0.1686E-02  0.2214E-03  0.2005E+01
   -1.300011   29.54121  0.4681E-13  0.1502E-04  0.4181E-07  0.1632E-02  0.2082E-03  0.2338E+01
   -1.350012   29.54171  0.4681E-13  0.1485E-04  0.4271E-07  0.1568E-02  0.1954E-03  0.2809E+01
   -1.400013   29.54223  0.4681E-13  0.1464E-04  0.4393E-07  0.1487E-02  0.1830E-03  0.3463E+01
   -1.450014   29.54278  0.4681E-13  0.1438E-04  0.4561E-07  0.1405E-02  0.1707E-03  0.4435E+01
   -1.500015   29.54336  0.4681E-13  0.1408E-04  0.4795E-07  0.1290E-02  0.1586E-03  0.6023E+01
   -1.550015   29.54399  0.4681E-13  0.1372E-04  0.5130E-07  0.1204E-02  0.1464E-03  0.8635E+01
   -1.600015   29.54468  0.4681E-13  0.1327E-04  0.5646E-07  0.1059E-02  0.1344E-03  0.1650E+02
   -1.650015   29.54550  0.4681E-13  0.1269E-04  0.6462E-07  0.9781E-03  0.1215E-03  0.3703E+03
   -1.700015   29.54647  0.4681E-13  0.1190E-04  0.7917E-07  0.7966E-03  0.1086E-03 -0.3769E+03
   -1.750014   29.54814  0.4681E-13  0.1086E-04  0.1027E-06  0.7136E-03  0.9169E-04  0.2155E+05
   -1.800012   29.54953  0.4681E-13  0.9472E-05  0.1534E-06  0.4924E-03  0.7841E-04  0.1748E+05
   -1.850011   29.55541  0.4681E-13  0.7956E-05  0.2482E-06  0.4541E-03  0.5511E-04  0.4405E+07
   -1.900009   29.55408  0.4681E-13  0.6244E-05  0.5214E-06  0.2093E-03  0.4479E-04 -0.2045E+05
   -1.950006   29.57179  0.4681E-13  0.4372E-05  0.1301E-05  0.1914E-03  0.2355E-04 -0.3041E+06
   -2.000003   29.57270  0.4681E-13  0.0000E+00  0.0000E+00  0.0000E+00  0.4554E-04  0.0000E+00
