 1 - depth, m
 2 - temperature, C
 3 - salinity, kg/kg
 4 - turbulent kinetic energy, m**2/s**2
 5 - dissipation rate, m**2/s**3
 6 - kinematic heat conductance, m**2/s
 7 - modulus of horizontal velocity, m/s
 8 - Richardson number, n/d
   -0.000000   31.03220  0.8572E-14  0.4943E-05  0.3031E-06  0.4778E-04  0.3798E-03  0.2047E+06
   -0.049997   31.06640  0.8572E-14  0.8797E-05  0.1352E-06  0.1988E-03  0.2107E-03  0.1187E+07
   -0.099994   31.07648  0.8572E-14  0.1056E-04  0.9521E-07  0.4189E-03  0.1557E-03  0.6133E+03
   -0.149992   31.07973  0.8572E-14  0.1169E-04  0.8055E-07  0.5043E-03  0.1379E-03  0.3118E+03
   -0.199991   31.08229  0.8572E-14  0.1257E-04  0.7188E-07  0.6691E-03  0.1234E-03  0.2065E+03
   -0.249989   31.08417  0.8572E-14  0.1328E-04  0.6614E-07  0.7978E-03  0.1125E-03  0.1550E+03
   -0.299988   31.08570  0.8572E-14  0.1385E-04  0.6204E-07  0.9245E-03  0.1034E-03  0.1246E+03
   -0.349988   31.08699  0.8572E-14  0.1433E-04  0.5895E-07  0.1040E-02  0.9560E-04  0.1073E+03
   -0.399988   31.08811  0.8572E-14  0.1473E-04  0.5655E-07  0.1144E-02  0.8872E-04  0.9599E+02
   -0.449988   31.08911  0.8572E-14  0.1507E-04  0.5459E-07  0.1242E-02  0.8262E-04  0.9048E+02
   -0.499988   31.09001  0.8572E-14  0.1537E-04  0.5297E-07  0.1331E-02  0.7725E-04  0.8811E+02
   -0.549989   31.09084  0.8572E-14  0.1563E-04  0.5162E-07  0.1412E-02  0.7240E-04  0.8723E+02
   -0.599989   31.09160  0.8572E-14  0.1585E-04  0.5049E-07  0.1485E-02  0.6804E-04  0.8736E+02
   -0.649990   31.09232  0.8572E-14  0.1605E-04  0.4954E-07  0.1551E-02  0.6403E-04  0.8879E+02
   -0.699992   31.09299  0.8572E-14  0.1621E-04  0.4874E-07  0.1609E-02  0.6037E-04  0.9093E+02
   -0.749993   31.09364  0.8572E-14  0.1634E-04  0.4807E-07  0.1659E-02  0.5696E-04  0.9434E+02
   -0.799994   31.09425  0.8572E-14  0.1645E-04  0.4753E-07  0.1700E-02  0.5381E-04  0.9849E+02
   -0.849996   31.09485  0.8572E-14  0.1653E-04  0.4711E-07  0.1734E-02  0.5083E-04  0.1041E+03
   -0.899998   31.09542  0.8572E-14  0.1660E-04  0.4679E-07  0.1760E-02  0.4807E-04  0.1107E+03
   -0.949999   31.09599  0.8572E-14  0.1664E-04  0.4658E-07  0.1776E-02  0.4543E-04  0.1193E+03
   -1.000001   31.09654  0.8572E-14  0.1665E-04  0.4648E-07  0.1785E-02  0.4296E-04  0.1293E+03
   -1.050003   31.09708  0.8572E-14  0.1664E-04  0.4650E-07  0.1783E-02  0.4059E-04  0.1475E+03
   -1.100004   31.09763  0.8572E-14  0.1661E-04  0.4664E-07  0.1883E-02  0.3835E-04  0.4808E+03
   -1.150006   31.09814  0.8572E-14  0.1656E-04  0.4694E-07  0.1675E-02  0.3635E-04  0.1161E+04
   -1.200008   31.09871  0.8572E-14  0.1648E-04  0.4738E-07  0.1712E-02  0.3424E-04  0.2192E+03
   -1.250009   31.09927  0.8572E-14  0.1637E-04  0.4802E-07  0.1679E-02  0.3225E-04  0.2350E+03
   -1.300010   31.09983  0.8572E-14  0.1623E-04  0.4891E-07  0.1625E-02  0.3031E-04  0.2791E+03
   -1.350011   31.10042  0.8572E-14  0.1605E-04  0.5011E-07  0.1562E-02  0.2845E-04  0.3385E+03
   -1.400013   31.10102  0.8572E-14  0.1584E-04  0.5172E-07  0.1477E-02  0.2661E-04  0.4279E+03
   -1.450013   31.10167  0.8572E-14  0.1557E-04  0.5393E-07  0.1398E-02  0.2482E-04  0.5568E+03
   -1.500014   31.10235  0.8572E-14  0.1525E-04  0.5702E-07  0.1278E-02  0.2304E-04  0.7896E+03
   -1.550014   31.10311  0.8572E-14  0.1485E-04  0.6142E-07  0.1198E-02  0.2126E-04  0.1170E+04
   -1.600014   31.10393  0.8572E-14  0.1435E-04  0.6831E-07  0.1048E-02  0.1950E-04  0.3027E+04
   -1.650014   31.10499  0.8572E-14  0.1369E-04  0.7910E-07  0.9722E-03  0.1759E-04  0.4531E+05
   -1.700013   31.10619  0.8572E-14  0.1278E-04  0.9847E-07  0.7855E-03  0.1567E-04  0.1621E+07
   -1.750013   31.10846  0.8572E-14  0.1162E-04  0.1299E-06  0.7107E-03  0.1313E-04  0.1065E+07
   -1.800011   31.11005  0.8572E-14  0.1012E-04  0.1988E-06  0.4853E-03  0.1125E-04  0.1924E+09
   -1.850010   31.11832  0.8572E-14  0.8555E-05  0.3272E-06  0.4606E-03  0.7831E-05  0.8761E+09
   -1.900007   31.11543  0.8572E-14  0.6832E-05  0.6882E-06  0.2107E-03  0.6441E-05  0.1585E+08
   -1.950005   31.13847  0.8572E-14  0.4864E-05  0.1666E-05  0.2075E-03  0.3438E-05 -0.7427E+08
   -2.000002   31.13884  0.8572E-14  0.0000E+00  0.0000E+00  0.0000E+00  0.6609E-05  0.0000E+00
