 1 - depth, m
 2 - temperature, C
 3 - salinity, kg/kg
 4 - turbulent kinetic energy, m**2/s**2
 5 - dissipation rate, m**2/s**3
 6 - kinematic heat conductance, m**2/s
 7 - modulus of horizontal velocity, m/s
 8 - Richardson number, n/d
   -0.000000   29.63900  0.1040E-14  0.4443E-05  0.2647E-06  0.4877E-04  0.1370E-02  0.5689E+04
   -0.049997   29.66702  0.1040E-14  0.7664E-05  0.1178E-06  0.1703E-03  0.7810E-03  0.1412E+04
   -0.099994   29.67804  0.1040E-14  0.9306E-05  0.8101E-07  0.3911E-03  0.5673E-03  0.2740E+02
   -0.149992   29.68102  0.1040E-14  0.1033E-04  0.6818E-07  0.4680E-03  0.5008E-03  0.1328E+02
   -0.199991   29.68341  0.1040E-14  0.1112E-04  0.6064E-07  0.6240E-03  0.4467E-03  0.8582E+01
   -0.249989   29.68516  0.1040E-14  0.1175E-04  0.5568E-07  0.7457E-03  0.4061E-03  0.6365E+01
   -0.299989   29.68658  0.1040E-14  0.1226E-04  0.5214E-07  0.8662E-03  0.3724E-03  0.5066E+01
   -0.349988   29.68778  0.1040E-14  0.1269E-04  0.4948E-07  0.9757E-03  0.3434E-03  0.4354E+01
   -0.399988   29.68881  0.1040E-14  0.1305E-04  0.4741E-07  0.1076E-02  0.3179E-03  0.3875E+01
   -0.449988   29.68973  0.1040E-14  0.1336E-04  0.4572E-07  0.1169E-02  0.2954E-03  0.3660E+01
   -0.499988   29.69056  0.1040E-14  0.1363E-04  0.4433E-07  0.1254E-02  0.2755E-03  0.3553E+01
   -0.549989   29.69132  0.1040E-14  0.1387E-04  0.4316E-07  0.1332E-02  0.2577E-03  0.3528E+01
   -0.599990   29.69203  0.1040E-14  0.1407E-04  0.4218E-07  0.1404E-02  0.2416E-03  0.3519E+01
   -0.649991   29.69268  0.1040E-14  0.1424E-04  0.4135E-07  0.1467E-02  0.2270E-03  0.3586E+01
   -0.699992   29.69330  0.1040E-14  0.1439E-04  0.4064E-07  0.1524E-02  0.2135E-03  0.3652E+01
   -0.749993   29.69389  0.1040E-14  0.1451E-04  0.4005E-07  0.1573E-02  0.2011E-03  0.3798E+01
   -0.799995   29.69445  0.1040E-14  0.1461E-04  0.3956E-07  0.1615E-02  0.1896E-03  0.3938E+01
   -0.849997   29.69499  0.1040E-14  0.1469E-04  0.3916E-07  0.1650E-02  0.1788E-03  0.4168E+01
   -0.899998   29.69552  0.1040E-14  0.1475E-04  0.3885E-07  0.1677E-02  0.1687E-03  0.4394E+01
   -0.950000   29.69603  0.1040E-14  0.1478E-04  0.3863E-07  0.1696E-02  0.1592E-03  0.4734E+01
   -1.000002   29.69653  0.1040E-14  0.1480E-04  0.3850E-07  0.1707E-02  0.1502E-03  0.5078E+01
   -1.050003   29.69702  0.1040E-14  0.1480E-04  0.3845E-07  0.1709E-02  0.1417E-03  0.5793E+01
   -1.100005   29.69751  0.1040E-14  0.1478E-04  0.3850E-07  0.1788E-02  0.1336E-03  0.1921E+02
   -1.150007   29.69797  0.1040E-14  0.1474E-04  0.3867E-07  0.1639E-02  0.1264E-03  0.4269E+02
   -1.200008   29.69847  0.1040E-14  0.1468E-04  0.3894E-07  0.1658E-02  0.1189E-03  0.8317E+01
   -1.250010   29.69897  0.1040E-14  0.1459E-04  0.3937E-07  0.1629E-02  0.1118E-03  0.8802E+01
   -1.300011   29.69946  0.1040E-14  0.1448E-04  0.3997E-07  0.1583E-02  0.1049E-03  0.1033E+02
   -1.350012   29.69997  0.1040E-14  0.1434E-04  0.4079E-07  0.1528E-02  0.9828E-04  0.1224E+02
   -1.400014   29.70050  0.1040E-14  0.1417E-04  0.4190E-07  0.1455E-02  0.9182E-04  0.1510E+02
   -1.450014   29.70105  0.1040E-14  0.1396E-04  0.4340E-07  0.1381E-02  0.8550E-04  0.1900E+02
   -1.500015   29.70163  0.1040E-14  0.1370E-04  0.4548E-07  0.1276E-02  0.7930E-04  0.2557E+02
   -1.550015   29.70226  0.1040E-14  0.1339E-04  0.4841E-07  0.1192E-02  0.7311E-04  0.3566E+02
   -1.600015   29.70294  0.1040E-14  0.1300E-04  0.5285E-07  0.1055E-02  0.6705E-04  0.6155E+02
   -1.650015   29.70375  0.1040E-14  0.1251E-04  0.5967E-07  0.9749E-03  0.6062E-04  0.7537E+03
   -1.700015   29.70465  0.1040E-14  0.1183E-04  0.7194E-07  0.8035E-03  0.5438E-04  0.7787E+04
   -1.750014   29.70622  0.1040E-14  0.1091E-04  0.9251E-07  0.7202E-03  0.4623E-04  0.3445E+06
   -1.800013   29.70767  0.1040E-14  0.9629E-05  0.1369E-06  0.5028E-03  0.3951E-04  0.6281E+02
   -1.850011   29.71278  0.1040E-14  0.8187E-05  0.2169E-06  0.4558E-03  0.2849E-04  0.6583E+08
   -1.900009   29.71215  0.1040E-14  0.6491E-05  0.4547E-06  0.2124E-03  0.2304E-04 -0.5163E+07
   -1.950006   29.72886  0.1040E-14  0.4491E-05  0.1153E-05  0.1765E-03  0.1246E-04 -0.2206E+07
   -2.000003   29.73122  0.1040E-14  0.0000E+00  0.0000E+00  0.0000E+00  0.2259E-04  0.0000E+00
