 1 - depth, m
 2 - temperature, C
 3 - salinity, kg/kg
 4 - turbulent kinetic energy, m**2/s**2
 5 - dissipation rate, m**2/s**3
 6 - kinematic heat conductance, m**2/s
 7 - modulus of horizontal velocity, m/s
 8 - Richardson number, n/d
   -0.000000   31.04172  0.3094E-13  0.5092E-05  0.3251E-06  0.5075E-04  0.6221E-03  0.5419E+05
   -0.049997   31.07579  0.3094E-13  0.8920E-05  0.1447E-06  0.1886E-03  0.3541E-03  0.1221E+05
   -0.099994   31.08769  0.3094E-13  0.1077E-04  0.1002E-06  0.4202E-03  0.2586E-03  0.2033E+03
   -0.149992   31.09111  0.3094E-13  0.1193E-04  0.8453E-07  0.4979E-03  0.2292E-03  0.1024E+03
   -0.199991   31.09386  0.3094E-13  0.1283E-04  0.7521E-07  0.6654E-03  0.2050E-03  0.6707E+02
   -0.249989   31.09585  0.3094E-13  0.1354E-04  0.6906E-07  0.7933E-03  0.1869E-03  0.5039E+02
   -0.299988   31.09748  0.3094E-13  0.1412E-04  0.6464E-07  0.9206E-03  0.1718E-03  0.4012E+02
   -0.349988   31.09884  0.3094E-13  0.1459E-04  0.6130E-07  0.1036E-02  0.1589E-03  0.3471E+02
   -0.399988   31.10001  0.3094E-13  0.1499E-04  0.5869E-07  0.1141E-02  0.1474E-03  0.3072E+02
   -0.449988   31.10106  0.3094E-13  0.1533E-04  0.5655E-07  0.1238E-02  0.1373E-03  0.2916E+02
   -0.499988   31.10200  0.3094E-13  0.1562E-04  0.5478E-07  0.1327E-02  0.1284E-03  0.2808E+02
   -0.549988   31.10286  0.3094E-13  0.1587E-04  0.5328E-07  0.1408E-02  0.1203E-03  0.2802E+02
   -0.599989   31.10366  0.3094E-13  0.1608E-04  0.5200E-07  0.1482E-02  0.1131E-03  0.2769E+02
   -0.649990   31.10440  0.3094E-13  0.1625E-04  0.5092E-07  0.1548E-02  0.1064E-03  0.2836E+02
   -0.699991   31.10510  0.3094E-13  0.1640E-04  0.4999E-07  0.1605E-02  0.1003E-03  0.2860E+02
   -0.749993   31.10576  0.3094E-13  0.1652E-04  0.4920E-07  0.1655E-02  0.9469E-04  0.2990E+02
   -0.799994   31.10639  0.3094E-13  0.1661E-04  0.4854E-07  0.1697E-02  0.8944E-04  0.3068E+02
   -0.849996   31.10700  0.3094E-13  0.1668E-04  0.4799E-07  0.1731E-02  0.8452E-04  0.3266E+02
   -0.899997   31.10759  0.3094E-13  0.1672E-04  0.4755E-07  0.1757E-02  0.7991E-04  0.3409E+02
   -0.949999   31.10816  0.3094E-13  0.1674E-04  0.4723E-07  0.1774E-02  0.7555E-04  0.3696E+02
   -1.000001   31.10872  0.3094E-13  0.1673E-04  0.4701E-07  0.1782E-02  0.7143E-04  0.3926E+02
   -1.050003   31.10927  0.3094E-13  0.1670E-04  0.4690E-07  0.1780E-02  0.6750E-04  0.4498E+02
   -1.100004   31.10981  0.3094E-13  0.1665E-04  0.4692E-07  0.1883E-02  0.6377E-04  0.1446E+03
   -1.150006   31.11032  0.3094E-13  0.1658E-04  0.4709E-07  0.1671E-02  0.6046E-04  0.3425E+03
   -1.200007   31.11089  0.3094E-13  0.1647E-04  0.4741E-07  0.1710E-02  0.5695E-04  0.6528E+02
   -1.250009   31.11144  0.3094E-13  0.1634E-04  0.4791E-07  0.1678E-02  0.5363E-04  0.6831E+02
   -1.300010   31.11199  0.3094E-13  0.1618E-04  0.4866E-07  0.1624E-02  0.5042E-04  0.8119E+02
   -1.350011   31.11256  0.3094E-13  0.1598E-04  0.4971E-07  0.1560E-02  0.4731E-04  0.9616E+02
   -1.400012   31.11315  0.3094E-13  0.1574E-04  0.5116E-07  0.1478E-02  0.4426E-04  0.1209E+03
   -1.450013   31.11377  0.3094E-13  0.1546E-04  0.5318E-07  0.1395E-02  0.4128E-04  0.1539E+03
   -1.500014   31.11442  0.3094E-13  0.1511E-04  0.5606E-07  0.1280E-02  0.3832E-04  0.2133E+03
   -1.550014   31.11514  0.3094E-13  0.1469E-04  0.6023E-07  0.1192E-02  0.3535E-04  0.3122E+03
   -1.600014   31.11593  0.3094E-13  0.1417E-04  0.6677E-07  0.1051E-02  0.3241E-04  0.1050E+04
   -1.650014   31.11691  0.3094E-13  0.1350E-04  0.7728E-07  0.9636E-03  0.2922E-04  0.2576E+04
   -1.700013   31.11809  0.3094E-13  0.1257E-04  0.9587E-07  0.7886E-03  0.2597E-04  0.2680E+06
   -1.750012   31.12011  0.3094E-13  0.1140E-04  0.1257E-06  0.7027E-03  0.2170E-04  0.3400E+06
   -1.800011   31.12167  0.3094E-13  0.9858E-05  0.1915E-06  0.4825E-03  0.1858E-04  0.1789E+07
   -1.850009   31.12938  0.3094E-13  0.8276E-05  0.3147E-06  0.4507E-03  0.1276E-04  0.9880E+09
   -1.900007   31.12668  0.3094E-13  0.6525E-05  0.6641E-06  0.2033E-03  0.1049E-04 -0.4598E+06
   -1.950005   31.14797  0.3094E-13  0.4639E-05  0.1604E-05  0.2087E-03  0.5447E-05  0.8196E+06
   -2.000002   31.14729  0.3094E-13  0.0000E+00  0.0000E+00  0.0000E+00  0.1100E-04  0.0000E+00
