 1 - depth, m
 2 - temperature, C
 3 - salinity, kg/kg
 4 - turbulent kinetic energy, m**2/s**2
 5 - dissipation rate, m**2/s**3
 6 - kinematic heat conductance, m**2/s
 7 - modulus of horizontal velocity, m/s
 8 - Richardson number, n/d
   -0.000000   30.45437  0.4360E-14  0.4683E-05  0.2886E-06  0.4962E-04  0.8717E-03  0.4767E+05
   -0.049997   30.48429  0.4360E-14  0.8183E-05  0.1281E-06  0.1784E-03  0.4956E-03  0.1275E+03
   -0.099994   30.49567  0.4360E-14  0.9929E-05  0.8836E-07  0.4083E-03  0.3597E-03  0.9332E+02
   -0.149992   30.49874  0.4360E-14  0.1101E-04  0.7451E-07  0.4847E-03  0.3181E-03  0.4624E+02
   -0.199991   30.50123  0.4360E-14  0.1186E-04  0.6635E-07  0.6477E-03  0.2841E-03  0.3020E+02
   -0.249989   30.50303  0.4360E-14  0.1253E-04  0.6098E-07  0.7730E-03  0.2586E-03  0.2268E+02
   -0.299988   30.50450  0.4360E-14  0.1309E-04  0.5714E-07  0.8979E-03  0.2374E-03  0.1807E+02
   -0.349988   30.50574  0.4360E-14  0.1354E-04  0.5427E-07  0.1011E-02  0.2192E-03  0.1566E+02
   -0.399988   30.50681  0.4360E-14  0.1393E-04  0.5203E-07  0.1114E-02  0.2032E-03  0.1389E+02
   -0.449988   30.50777  0.4360E-14  0.1426E-04  0.5021E-07  0.1210E-02  0.1891E-03  0.1321E+02
   -0.499988   30.50863  0.4360E-14  0.1455E-04  0.4871E-07  0.1299E-02  0.1766E-03  0.1275E+02
   -0.549989   30.50942  0.4360E-14  0.1480E-04  0.4746E-07  0.1379E-02  0.1653E-03  0.1275E+02
   -0.599990   30.51015  0.4360E-14  0.1502E-04  0.4640E-07  0.1453E-02  0.1552E-03  0.1263E+02
   -0.649991   30.51083  0.4360E-14  0.1521E-04  0.4551E-07  0.1518E-02  0.1460E-03  0.1297E+02
   -0.699992   30.51147  0.4360E-14  0.1537E-04  0.4476E-07  0.1577E-02  0.1375E-03  0.1313E+02
   -0.749993   30.51208  0.4360E-14  0.1550E-04  0.4414E-07  0.1627E-02  0.1296E-03  0.1376E+02
   -0.799995   30.51267  0.4360E-14  0.1561E-04  0.4363E-07  0.1671E-02  0.1223E-03  0.1417E+02
   -0.849996   30.51323  0.4360E-14  0.1570E-04  0.4322E-07  0.1706E-02  0.1155E-03  0.1512E+02
   -0.899998   30.51378  0.4360E-14  0.1577E-04  0.4291E-07  0.1733E-02  0.1091E-03  0.1585E+02
   -0.949999   30.51431  0.4360E-14  0.1581E-04  0.4269E-07  0.1752E-02  0.1031E-03  0.1722E+02
   -1.000001   30.51483  0.4360E-14  0.1583E-04  0.4258E-07  0.1764E-02  0.9740E-04  0.1837E+02
   -1.050003   30.51535  0.4360E-14  0.1584E-04  0.4256E-07  0.1765E-02  0.9197E-04  0.2113E+02
   -1.100005   30.51586  0.4360E-14  0.1582E-04  0.4265E-07  0.1850E-02  0.8683E-04  0.6899E+02
   -1.150006   30.51635  0.4360E-14  0.1578E-04  0.4288E-07  0.1686E-02  0.8222E-04  0.1583E+03
   -1.200008   30.51688  0.4360E-14  0.1572E-04  0.4323E-07  0.1710E-02  0.7746E-04  0.3070E+02
   -1.250009   30.51740  0.4360E-14  0.1563E-04  0.4374E-07  0.1680E-02  0.7292E-04  0.3237E+02
   -1.300011   30.51792  0.4360E-14  0.1551E-04  0.4446E-07  0.1631E-02  0.6852E-04  0.3845E+02
   -1.350012   30.51846  0.4360E-14  0.1536E-04  0.4543E-07  0.1574E-02  0.6428E-04  0.4558E+02
   -1.400013   30.51902  0.4360E-14  0.1518E-04  0.4673E-07  0.1497E-02  0.6013E-04  0.5718E+02
   -1.450014   30.51961  0.4360E-14  0.1496E-04  0.4849E-07  0.1422E-02  0.5608E-04  0.7228E+02
   -1.500014   30.52023  0.4360E-14  0.1469E-04  0.5092E-07  0.1310E-02  0.5209E-04  0.1002E+03
   -1.550015   30.52090  0.4360E-14  0.1435E-04  0.5433E-07  0.1229E-02  0.4810E-04  0.1417E+03
   -1.600015   30.52163  0.4360E-14  0.1394E-04  0.5956E-07  0.1081E-02  0.4419E-04  0.3027E+03
   -1.650014   30.52253  0.4360E-14  0.1340E-04  0.6753E-07  0.1005E-02  0.4002E-04  0.2046E+04
   -1.700014   30.52350  0.4360E-14  0.1267E-04  0.8181E-07  0.8184E-03  0.3600E-04 -0.1367E+05
   -1.750013   30.52529  0.4360E-14  0.1169E-04  0.1054E-06  0.7438E-03  0.3067E-04  0.1867E+07
   -1.800012   30.52672  0.4360E-14  0.1038E-04  0.1547E-06  0.5239E-03  0.2644E-04  0.7522E+06
   -1.850010   30.53248  0.4360E-14  0.8878E-05  0.2479E-06  0.4790E-03  0.1937E-04  0.1151E+09
   -1.900008   30.53171  0.4360E-14  0.7052E-05  0.5202E-06  0.2196E-03  0.1567E-04  0.2348E+08
   -1.950005   30.54979  0.4360E-14  0.4902E-05  0.1312E-05  0.1821E-03  0.8612E-05 -0.8255E+07
   -2.000002   30.55302  0.4360E-14  0.0000E+00  0.0000E+00  0.0000E+00  0.1509E-04  0.0000E+00
