 1 - depth, m
 2 - temperature, C
 3 - salinity, kg/kg
 4 - turbulent kinetic energy, m**2/s**2
 5 - dissipation rate, m**2/s**3
 6 - kinematic heat conductance, m**2/s
 7 - modulus of horizontal velocity, m/s
 8 - Richardson number, n/d
   -0.000000   30.46061  0.7238E-14  0.5191E-05  0.3032E-06  0.5135E-04  0.2834E-02  0.1142E+04
   -0.049997   30.49074  0.7239E-14  0.8566E-05  0.1325E-06  0.1970E-03  0.1532E-02  0.1930E+02
   -0.099994   30.50039  0.7239E-14  0.1017E-04  0.9338E-07  0.3904E-03  0.1180E-02  0.6036E+01
   -0.149992   30.50366  0.7239E-14  0.1122E-04  0.7846E-07  0.4864E-03  0.1046E-02  0.3104E+01
   -0.199991   30.50617  0.7239E-14  0.1205E-04  0.6974E-07  0.6345E-03  0.9401E-03  0.2029E+01
   -0.249989   30.50804  0.7239E-14  0.1271E-04  0.6404E-07  0.7547E-03  0.8593E-03  0.1524E+01
   -0.299988   30.50958  0.7239E-14  0.1326E-04  0.5998E-07  0.8659E-03  0.7918E-03  0.1276E+01
   -0.349988   30.51089  0.7239E-14  0.1373E-04  0.5685E-07  0.9725E-03  0.7323E-03  0.1236E+01
   -0.399988   30.51202  0.7239E-14  0.1415E-04  0.5430E-07  0.1086E-02  0.6764E-03  0.1244E+01
   -0.449988   30.51302  0.7239E-14  0.1454E-04  0.5215E-07  0.1201E-02  0.6245E-03  0.1256E+01
   -0.499988   30.51391  0.7239E-14  0.1488E-04  0.5035E-07  0.1308E-02  0.5773E-03  0.1264E+01
   -0.549989   30.51470  0.7239E-14  0.1518E-04  0.4885E-07  0.1407E-02  0.5348E-03  0.1263E+01
   -0.599989   30.51543  0.7239E-14  0.1544E-04  0.4760E-07  0.1497E-02  0.4964E-03  0.1258E+01
   -0.649990   30.51610  0.7239E-14  0.1566E-04  0.4657E-07  0.1576E-02  0.4617E-03  0.1249E+01
   -0.699992   30.51674  0.7239E-14  0.1584E-04  0.4572E-07  0.1644E-02  0.4303E-03  0.1235E+01
   -0.749993   30.51733  0.7239E-14  0.1598E-04  0.4504E-07  0.1701E-02  0.4020E-03  0.1219E+01
   -0.799994   30.51790  0.7239E-14  0.1610E-04  0.4451E-07  0.1746E-02  0.3763E-03  0.1201E+01
   -0.849996   30.51845  0.7239E-14  0.1618E-04  0.4412E-07  0.1779E-02  0.3531E-03  0.1187E+01
   -0.899998   30.51899  0.7239E-14  0.1623E-04  0.4384E-07  0.1802E-02  0.3321E-03  0.1181E+01
   -0.949999   30.51951  0.7239E-14  0.1626E-04  0.4367E-07  0.1815E-02  0.3130E-03  0.1195E+01
   -1.000001   30.52002  0.7239E-14  0.1627E-04  0.4362E-07  0.1819E-02  0.2955E-03  0.1242E+01
   -1.050003   30.52053  0.7239E-14  0.1626E-04  0.4367E-07  0.1813E-02  0.2792E-03  0.1375E+01
   -1.100005   30.52104  0.7239E-14  0.1622E-04  0.4383E-07  0.1926E-02  0.2638E-03  0.4422E+01
   -1.150006   30.52151  0.7239E-14  0.1616E-04  0.4413E-07  0.1687E-02  0.2504E-03  0.1076E+02
   -1.200008   30.52206  0.7239E-14  0.1608E-04  0.4457E-07  0.1734E-02  0.2360E-03  0.2011E+01
   -1.250009   30.52258  0.7239E-14  0.1597E-04  0.4520E-07  0.1701E-02  0.2223E-03  0.2149E+01
   -1.300011   30.52311  0.7239E-14  0.1583E-04  0.4605E-07  0.1644E-02  0.2092E-03  0.2535E+01
   -1.350012   30.52366  0.7239E-14  0.1566E-04  0.4719E-07  0.1579E-02  0.1964E-03  0.3066E+01
   -1.400013   30.52423  0.7239E-14  0.1544E-04  0.4873E-07  0.1495E-02  0.1839E-03  0.3839E+01
   -1.450014   30.52483  0.7239E-14  0.1519E-04  0.5081E-07  0.1413E-02  0.1715E-03  0.4975E+01
   -1.500014   30.52547  0.7239E-14  0.1487E-04  0.5372E-07  0.1295E-02  0.1594E-03  0.6926E+01
   -1.550015   30.52618  0.7239E-14  0.1449E-04  0.5786E-07  0.1212E-02  0.1471E-03  0.1035E+02
   -1.600015   30.52695  0.7239E-14  0.1401E-04  0.6439E-07  0.1064E-02  0.1350E-03  0.2317E+02
   -1.650014   30.52794  0.7239E-14  0.1337E-04  0.7462E-07  0.9806E-03  0.1217E-03 -0.9953E+01
   -1.700014   30.52908  0.7239E-14  0.1250E-04  0.9240E-07  0.7999E-03  0.1084E-03  0.4706E+03
   -1.750013   30.53111  0.7239E-14  0.1140E-04  0.1213E-06  0.7177E-03  0.9090E-04  0.1323E+06
   -1.800012   30.53265  0.7239E-14  0.9975E-05  0.1829E-06  0.4984E-03  0.7798E-04  0.1560E+05
   -1.850010   30.53991  0.7239E-14  0.8461E-05  0.3001E-06  0.4637E-03  0.5461E-04  0.1288E+08
   -1.900008   30.53769  0.7239E-14  0.6729E-05  0.6375E-06  0.2141E-03  0.4487E-04  0.9459E+04
   -1.950005   30.55880  0.7239E-14  0.4755E-05  0.1553E-05  0.2016E-03  0.2391E-04 -0.1794E+06
   -2.000002   30.55987  0.7239E-14  0.0000E+00  0.0000E+00  0.0000E+00  0.4610E-04  0.0000E+00
