 1 - depth, m
 2 - temperature, C
 3 - salinity, kg/kg
 4 - turbulent kinetic energy, m**2/s**2
 5 - dissipation rate, m**2/s**3
 6 - kinematic heat conductance, m**2/s
 7 - modulus of horizontal velocity, m/s
 8 - Richardson number, n/d
   -0.000000   30.79646  0.8584E-14  0.4913E-05  0.3106E-06  0.5035E-04  0.1034E-02  0.6241E+04
   -0.049997   30.82798  0.8584E-14  0.8516E-05  0.1379E-06  0.1832E-03  0.5851E-03  0.8847E+02
   -0.099994   30.83980  0.8584E-14  0.1033E-04  0.9520E-07  0.4091E-03  0.4293E-03  0.4524E+02
   -0.149992   30.84305  0.8584E-14  0.1147E-04  0.8004E-07  0.4906E-03  0.3797E-03  0.2227E+02
   -0.199991   30.84565  0.8584E-14  0.1236E-04  0.7114E-07  0.6561E-03  0.3394E-03  0.1431E+02
   -0.249989   30.84754  0.8584E-14  0.1306E-04  0.6531E-07  0.7831E-03  0.3092E-03  0.1060E+02
   -0.299988   30.84907  0.8584E-14  0.1364E-04  0.6117E-07  0.9108E-03  0.2841E-03  0.8442E+01
   -0.349988   30.85036  0.8584E-14  0.1412E-04  0.5806E-07  0.1026E-02  0.2626E-03  0.7224E+01
   -0.399988   30.85148  0.8584E-14  0.1452E-04  0.5565E-07  0.1132E-02  0.2436E-03  0.6437E+01
   -0.449988   30.85248  0.8584E-14  0.1487E-04  0.5369E-07  0.1230E-02  0.2269E-03  0.6039E+01
   -0.499988   30.85337  0.8584E-14  0.1517E-04  0.5207E-07  0.1320E-02  0.2121E-03  0.5868E+01
   -0.549989   30.85419  0.8584E-14  0.1544E-04  0.5072E-07  0.1402E-02  0.1988E-03  0.5786E+01
   -0.599989   30.85495  0.8584E-14  0.1566E-04  0.4958E-07  0.1477E-02  0.1868E-03  0.5781E+01
   -0.649990   30.85566  0.8584E-14  0.1586E-04  0.4863E-07  0.1544E-02  0.1758E-03  0.5849E+01
   -0.699992   30.85633  0.8584E-14  0.1602E-04  0.4783E-07  0.1603E-02  0.1657E-03  0.5976E+01
   -0.749993   30.85696  0.8584E-14  0.1616E-04  0.4716E-07  0.1655E-02  0.1564E-03  0.6166E+01
   -0.799994   30.85757  0.8584E-14  0.1628E-04  0.4662E-07  0.1698E-02  0.1477E-03  0.6421E+01
   -0.849996   30.85816  0.8584E-14  0.1637E-04  0.4618E-07  0.1734E-02  0.1396E-03  0.6745E+01
   -0.899998   30.85873  0.8584E-14  0.1644E-04  0.4585E-07  0.1762E-02  0.1320E-03  0.7149E+01
   -0.949999   30.85928  0.8584E-14  0.1648E-04  0.4563E-07  0.1781E-02  0.1248E-03  0.7645E+01
   -1.000001   30.85983  0.8584E-14  0.1651E-04  0.4551E-07  0.1792E-02  0.1180E-03  0.8253E+01
   -1.050003   30.86036  0.8584E-14  0.1651E-04  0.4550E-07  0.1793E-02  0.1115E-03  0.9345E+01
   -1.100004   30.86090  0.8584E-14  0.1649E-04  0.4561E-07  0.1882E-02  0.1054E-03  0.3097E+02
   -1.150006   30.86140  0.8584E-14  0.1645E-04  0.4587E-07  0.1707E-02  0.9989E-04  0.7000E+02
   -1.200008   30.86195  0.8584E-14  0.1638E-04  0.4626E-07  0.1734E-02  0.9416E-04  0.1348E+02
   -1.250009   30.86250  0.8584E-14  0.1629E-04  0.4683E-07  0.1703E-02  0.8870E-04  0.1437E+02
   -1.300010   30.86305  0.8584E-14  0.1617E-04  0.4762E-07  0.1653E-02  0.8343E-04  0.1682E+02
   -1.350012   30.86361  0.8584E-14  0.1601E-04  0.4868E-07  0.1593E-02  0.7832E-04  0.2012E+02
   -1.400013   30.86420  0.8584E-14  0.1582E-04  0.5012E-07  0.1515E-02  0.7333E-04  0.2485E+02
   -1.450013   30.86481  0.8584E-14  0.1558E-04  0.5206E-07  0.1435E-02  0.6843E-04  0.3168E+02
   -1.500014   30.86547  0.8584E-14  0.1529E-04  0.5474E-07  0.1323E-02  0.6361E-04  0.4301E+02
   -1.550014   30.86618  0.8584E-14  0.1493E-04  0.5851E-07  0.1235E-02  0.5877E-04  0.6144E+02
   -1.600014   30.86696  0.8584E-14  0.1449E-04  0.6425E-07  0.1090E-02  0.5401E-04  0.1305E+03
   -1.650014   30.86791  0.8584E-14  0.1392E-04  0.7310E-07  0.1006E-02  0.4892E-04  0.1795E+03
   -1.700014   30.86898  0.8584E-14  0.1314E-04  0.8870E-07  0.8253E-03  0.4392E-04  0.1429E+05
   -1.750013   30.87082  0.8584E-14  0.1211E-04  0.1145E-06  0.7429E-03  0.3742E-04  0.8931E+05
   -1.800011   30.87246  0.8584E-14  0.1070E-04  0.1697E-06  0.5232E-03  0.3215E-04  0.3021E+07
   -1.850010   30.87872  0.8584E-14  0.9124E-05  0.2714E-06  0.4748E-03  0.2330E-04  0.1065E+09
   -1.900007   30.87778  0.8584E-14  0.7211E-05  0.5656E-06  0.2133E-03  0.1892E-04  0.7135E+06
   -1.950005   30.89790  0.8584E-14  0.5061E-05  0.1409E-05  0.1908E-03  0.1026E-04 -0.2747E+07
   -2.000002   30.89981  0.8584E-14  0.0000E+00  0.0000E+00  0.0000E+00  0.1838E-04  0.0000E+00
