 1 - depth, m
 2 - temperature, C
 3 - salinity, kg/kg
 4 - turbulent kinetic energy, m**2/s**2
 5 - dissipation rate, m**2/s**3
 6 - kinematic heat conductance, m**2/s
 7 - modulus of horizontal velocity, m/s
 8 - Richardson number, n/d
   -0.000000   30.74098  0.2187E-13  0.5531E-05  0.3247E-06  0.5342E-04  0.3315E-02  0.7832E+03
   -0.049997   30.77252  0.2187E-13  0.8955E-05  0.1411E-06  0.2017E-03  0.1800E-02  0.7804E+02
   -0.099994   30.78241  0.2187E-13  0.1056E-04  0.9974E-07  0.3908E-03  0.1411E-02  0.5475E+01
   -0.149992   30.78590  0.2187E-13  0.1162E-04  0.8392E-07  0.4855E-03  0.1257E-02  0.2812E+01
   -0.199991   30.78859  0.2187E-13  0.1245E-04  0.7468E-07  0.6250E-03  0.1137E-02  0.1869E+01
   -0.249989   30.79061  0.2187E-13  0.1313E-04  0.6855E-07  0.7372E-03  0.1043E-02  0.1510E+01
   -0.299988   30.79228  0.2187E-13  0.1371E-04  0.6400E-07  0.8556E-03  0.9612E-03  0.1405E+01
   -0.349988   30.79368  0.2187E-13  0.1424E-04  0.6035E-07  0.9825E-03  0.8838E-03  0.1400E+01
   -0.399988   30.79486  0.2187E-13  0.1472E-04  0.5736E-07  0.1112E-02  0.8098E-03  0.1383E+01
   -0.449988   30.79588  0.2187E-13  0.1515E-04  0.5486E-07  0.1238E-02  0.7415E-03  0.1379E+01
   -0.499988   30.79678  0.2187E-13  0.1552E-04  0.5278E-07  0.1356E-02  0.6801E-03  0.1375E+01
   -0.549989   30.79758  0.2187E-13  0.1584E-04  0.5104E-07  0.1464E-02  0.6251E-03  0.1370E+01
   -0.599989   30.79832  0.2187E-13  0.1610E-04  0.4960E-07  0.1562E-02  0.5758E-03  0.1358E+01
   -0.649990   30.79899  0.2187E-13  0.1632E-04  0.4840E-07  0.1647E-02  0.5315E-03  0.1349E+01
   -0.699992   30.79962  0.2187E-13  0.1649E-04  0.4742E-07  0.1719E-02  0.4918E-03  0.1333E+01
   -0.749993   30.80021  0.2187E-13  0.1662E-04  0.4662E-07  0.1777E-02  0.4560E-03  0.1322E+01
   -0.799994   30.80078  0.2187E-13  0.1671E-04  0.4599E-07  0.1822E-02  0.4238E-03  0.1305E+01
   -0.849996   30.80132  0.2187E-13  0.1677E-04  0.4551E-07  0.1853E-02  0.3948E-03  0.1297E+01
   -0.899998   30.80185  0.2187E-13  0.1680E-04  0.4517E-07  0.1872E-02  0.3687E-03  0.1285E+01
   -0.949999   30.80236  0.2187E-13  0.1680E-04  0.4495E-07  0.1880E-02  0.3451E-03  0.1289E+01
   -1.000001   30.80286  0.2187E-13  0.1677E-04  0.4486E-07  0.1876E-02  0.3237E-03  0.1291E+01
   -1.050003   30.80336  0.2187E-13  0.1672E-04  0.4488E-07  0.1859E-02  0.3043E-03  0.1349E+01
   -1.100005   30.80386  0.2187E-13  0.1665E-04  0.4502E-07  0.2003E-02  0.2868E-03  0.3869E+01
   -1.150006   30.80432  0.2187E-13  0.1655E-04  0.4530E-07  0.1693E-02  0.2727E-03  0.9828E+01
   -1.200008   30.80486  0.2187E-13  0.1644E-04  0.4572E-07  0.1765E-02  0.2570E-03  0.1802E+01
   -1.250009   30.80537  0.2187E-13  0.1629E-04  0.4634E-07  0.1729E-02  0.2424E-03  0.1900E+01
   -1.300011   30.80589  0.2187E-13  0.1611E-04  0.4720E-07  0.1666E-02  0.2283E-03  0.2248E+01
   -1.350012   30.80642  0.2187E-13  0.1590E-04  0.4838E-07  0.1596E-02  0.2146E-03  0.2716E+01
   -1.400013   30.80698  0.2187E-13  0.1564E-04  0.5000E-07  0.1502E-02  0.2011E-03  0.3431E+01
   -1.450014   30.80756  0.2187E-13  0.1534E-04  0.5223E-07  0.1418E-02  0.1877E-03  0.4467E+01
   -1.500014   30.80819  0.2187E-13  0.1497E-04  0.5539E-07  0.1291E-02  0.1745E-03  0.6343E+01
   -1.550015   30.80889  0.2187E-13  0.1453E-04  0.5997E-07  0.1210E-02  0.1611E-03  0.9786E+01
   -1.600015   30.80965  0.2187E-13  0.1398E-04  0.6740E-07  0.1055E-02  0.1479E-03  0.8206E+02
   -1.650014   30.81067  0.2187E-13  0.1326E-04  0.7905E-07  0.9723E-03  0.1329E-03  0.4457E+04
   -1.700014   30.81181  0.2187E-13  0.1227E-04  0.9993E-07  0.7843E-03  0.1181E-03  0.1248E+04
   -1.750013   30.81402  0.2187E-13  0.1107E-04  0.1331E-06  0.7038E-03  0.9763E-04  0.2324E+05
   -1.800012   30.81534  0.2187E-13  0.9557E-05  0.2064E-06  0.4810E-03  0.8385E-04  0.9912E+06
   -1.850010   30.82353  0.2187E-13  0.8041E-05  0.3432E-06  0.4535E-03  0.5707E-04  0.5171E+08
   -1.900008   30.81999  0.2187E-13  0.6364E-05  0.7183E-06  0.2106E-03  0.4739E-04 -0.2972E+05
   -1.950005   30.84116  0.2187E-13  0.4534E-05  0.1704E-05  0.2180E-03  0.2468E-04 -0.1067E+06
   -2.000002   30.84064  0.2187E-13  0.0000E+00  0.0000E+00  0.0000E+00  0.5095E-04  0.0000E+00
