 1 - depth, m
 2 - temperature, C
 3 - salinity, kg/kg
 4 - turbulent kinetic energy, m**2/s**2
 5 - dissipation rate, m**2/s**3
 6 - kinematic heat conductance, m**2/s
 7 - modulus of horizontal velocity, m/s
 8 - Richardson number, n/d
   -0.000000   30.55327  0.1311E-13  0.4799E-05  0.2991E-06  0.4994E-04  0.1032E-02  0.3882E+04
   -0.049997   30.58414  0.1311E-13  0.8326E-05  0.1330E-06  0.1799E-03  0.5860E-03  0.4128E+03
   -0.099994   30.59583  0.1311E-13  0.1010E-04  0.9179E-07  0.4053E-03  0.4300E-03  0.5083E+02
   -0.149992   30.59904  0.1311E-13  0.1120E-04  0.7723E-07  0.4848E-03  0.3803E-03  0.2485E+02
   -0.199991   30.60161  0.1311E-13  0.1206E-04  0.6867E-07  0.6476E-03  0.3399E-03  0.1606E+02
   -0.249989   30.60348  0.1311E-13  0.1275E-04  0.6305E-07  0.7730E-03  0.3097E-03  0.1187E+02
   -0.299988   30.60500  0.1311E-13  0.1331E-04  0.5903E-07  0.8984E-03  0.2845E-03  0.9477E+01
   -0.349988   30.60627  0.1311E-13  0.1377E-04  0.5602E-07  0.1012E-02  0.2629E-03  0.8092E+01
   -0.399988   30.60738  0.1311E-13  0.1416E-04  0.5367E-07  0.1115E-02  0.2437E-03  0.7228E+01
   -0.449988   30.60836  0.1311E-13  0.1449E-04  0.5176E-07  0.1211E-02  0.2269E-03  0.6767E+01
   -0.499988   30.60925  0.1311E-13  0.1478E-04  0.5018E-07  0.1300E-02  0.2120E-03  0.6598E+01
   -0.549989   30.61006  0.1311E-13  0.1503E-04  0.4885E-07  0.1380E-02  0.1987E-03  0.6488E+01
   -0.599990   30.61081  0.1311E-13  0.1524E-04  0.4774E-07  0.1453E-02  0.1866E-03  0.6508E+01
   -0.649991   30.61151  0.1311E-13  0.1542E-04  0.4679E-07  0.1519E-02  0.1756E-03  0.6563E+01
   -0.699992   30.61217  0.1311E-13  0.1558E-04  0.4599E-07  0.1577E-02  0.1654E-03  0.6730E+01
   -0.749993   30.61280  0.1311E-13  0.1571E-04  0.4532E-07  0.1627E-02  0.1560E-03  0.6922E+01
   -0.799995   30.61340  0.1311E-13  0.1581E-04  0.4477E-07  0.1670E-02  0.1473E-03  0.7234E+01
   -0.849996   30.61398  0.1311E-13  0.1589E-04  0.4432E-07  0.1704E-02  0.1392E-03  0.7574E+01
   -0.899998   30.61454  0.1311E-13  0.1595E-04  0.4397E-07  0.1731E-02  0.1315E-03  0.8057E+01
   -0.950000   30.61508  0.1311E-13  0.1599E-04  0.4372E-07  0.1749E-02  0.1243E-03  0.8588E+01
   -1.000001   30.61561  0.1311E-13  0.1600E-04  0.4358E-07  0.1760E-02  0.1175E-03  0.9303E+01
   -1.050003   30.61614  0.1311E-13  0.1600E-04  0.4354E-07  0.1760E-02  0.1110E-03  0.1050E+02
   -1.100005   30.61666  0.1311E-13  0.1597E-04  0.4361E-07  0.1850E-02  0.1048E-03  0.3481E+02
   -1.150006   30.61715  0.1311E-13  0.1591E-04  0.4382E-07  0.1672E-02  0.9931E-04  0.7973E+02
   -1.200008   30.61770  0.1311E-13  0.1584E-04  0.4415E-07  0.1700E-02  0.9355E-04  0.1520E+02
   -1.250009   30.61823  0.1311E-13  0.1574E-04  0.4467E-07  0.1669E-02  0.8806E-04  0.1623E+02
   -1.300011   30.61876  0.1311E-13  0.1561E-04  0.4539E-07  0.1619E-02  0.8278E-04  0.1896E+02
   -1.350012   30.61931  0.1311E-13  0.1544E-04  0.4638E-07  0.1559E-02  0.7765E-04  0.2278E+02
   -1.400013   30.61988  0.1311E-13  0.1524E-04  0.4774E-07  0.1481E-02  0.7265E-04  0.2816E+02
   -1.450014   30.62048  0.1311E-13  0.1500E-04  0.4958E-07  0.1403E-02  0.6773E-04  0.3608E+02
   -1.500014   30.62111  0.1311E-13  0.1471E-04  0.5215E-07  0.1291E-02  0.6291E-04  0.4930E+02
   -1.550015   30.62180  0.1311E-13  0.1434E-04  0.5581E-07  0.1208E-02  0.5804E-04  0.7129E+02
   -1.600015   30.62255  0.1311E-13  0.1389E-04  0.6149E-07  0.1062E-02  0.5328E-04  0.1654E+03
   -1.650015   30.62349  0.1311E-13  0.1331E-04  0.7032E-07  0.9831E-03  0.4811E-04  0.1114E+04
   -1.700014   30.62453  0.1311E-13  0.1252E-04  0.8596E-07  0.7997E-03  0.4304E-04 -0.4647E+04
   -1.750013   30.62640  0.1311E-13  0.1148E-04  0.1116E-06  0.7243E-03  0.3632E-04 -0.7538E+05
   -1.800012   30.62785  0.1311E-13  0.1010E-04  0.1666E-06  0.5007E-03  0.3122E-04  0.3860E+06
   -1.850010   30.63432  0.1311E-13  0.8569E-05  0.2703E-06  0.4627E-03  0.2213E-04  0.9927E+07
   -1.900008   30.63288  0.1311E-13  0.6808E-05  0.5636E-06  0.2144E-03  0.1803E-04 -0.1311E+06
   -1.950006   30.65203  0.1311E-13  0.4762E-05  0.1399E-05  0.1905E-03  0.9684E-05 -0.1329E+07
   -2.000002   30.65418  0.1311E-13  0.0000E+00  0.0000E+00  0.0000E+00  0.1811E-04  0.0000E+00
