 1 - depth, m
 2 - temperature, C
 3 - salinity, kg/kg
 4 - turbulent kinetic energy, m**2/s**2
 5 - dissipation rate, m**2/s**3
 6 - kinematic heat conductance, m**2/s
 7 - modulus of horizontal velocity, m/s
 8 - Richardson number, n/d
   -0.000000   30.72485  0.1735E-13  0.4918E-05  0.3091E-06  0.5013E-04  0.6351E-03  0.4042E+05
   -0.049997   30.75745  0.1735E-13  0.8630E-05  0.1373E-06  0.1851E-03  0.3611E-03  0.1851E+05
   -0.099994   30.76909  0.1735E-13  0.1043E-04  0.9506E-07  0.4170E-03  0.2629E-03  0.1599E+03
   -0.149992   30.77236  0.1735E-13  0.1156E-04  0.8023E-07  0.4934E-03  0.2330E-03  0.7946E+02
   -0.199991   30.77501  0.1735E-13  0.1243E-04  0.7144E-07  0.6589E-03  0.2083E-03  0.5209E+02
   -0.249989   30.77693  0.1735E-13  0.1313E-04  0.6564E-07  0.7856E-03  0.1898E-03  0.3896E+02
   -0.299988   30.77849  0.1735E-13  0.1369E-04  0.6148E-07  0.9114E-03  0.1744E-03  0.3112E+02
   -0.349988   30.77981  0.1735E-13  0.1416E-04  0.5834E-07  0.1025E-02  0.1612E-03  0.2678E+02
   -0.399988   30.78095  0.1735E-13  0.1455E-04  0.5589E-07  0.1129E-02  0.1495E-03  0.2384E+02
   -0.449988   30.78196  0.1735E-13  0.1488E-04  0.5389E-07  0.1226E-02  0.1392E-03  0.2250E+02
   -0.499988   30.78287  0.1735E-13  0.1517E-04  0.5223E-07  0.1314E-02  0.1301E-03  0.2183E+02
   -0.549989   30.78370  0.1735E-13  0.1542E-04  0.5083E-07  0.1395E-02  0.1219E-03  0.2164E+02
   -0.599989   30.78447  0.1735E-13  0.1563E-04  0.4965E-07  0.1467E-02  0.1145E-03  0.2156E+02
   -0.649991   30.78519  0.1735E-13  0.1581E-04  0.4865E-07  0.1533E-02  0.1077E-03  0.2194E+02
   -0.699992   30.78587  0.1735E-13  0.1595E-04  0.4779E-07  0.1590E-02  0.1015E-03  0.2233E+02
   -0.749993   30.78652  0.1735E-13  0.1608E-04  0.4707E-07  0.1640E-02  0.9579E-04  0.2319E+02
   -0.799995   30.78713  0.1735E-13  0.1617E-04  0.4647E-07  0.1682E-02  0.9045E-04  0.2404E+02
   -0.849996   30.78773  0.1735E-13  0.1625E-04  0.4598E-07  0.1715E-02  0.8545E-04  0.2541E+02
   -0.899998   30.78830  0.1735E-13  0.1629E-04  0.4559E-07  0.1741E-02  0.8076E-04  0.2681E+02
   -0.949999   30.78886  0.1735E-13  0.1632E-04  0.4531E-07  0.1758E-02  0.7633E-04  0.2886E+02
   -1.000001   30.78941  0.1735E-13  0.1632E-04  0.4514E-07  0.1767E-02  0.7215E-04  0.3102E+02
   -1.050003   30.78994  0.1735E-13  0.1630E-04  0.4507E-07  0.1766E-02  0.6816E-04  0.3531E+02
   -1.100005   30.79048  0.1735E-13  0.1626E-04  0.4512E-07  0.1864E-02  0.6437E-04  0.1144E+03
   -1.150006   30.79098  0.1735E-13  0.1620E-04  0.4532E-07  0.1663E-02  0.6100E-04  0.2744E+03
   -1.200008   30.79154  0.1735E-13  0.1611E-04  0.4565E-07  0.1699E-02  0.5746E-04  0.5173E+02
   -1.250009   30.79208  0.1735E-13  0.1599E-04  0.4617E-07  0.1667E-02  0.5409E-04  0.5481E+02
   -1.300011   30.79262  0.1735E-13  0.1584E-04  0.4691E-07  0.1614E-02  0.5084E-04  0.6484E+02
   -1.350012   30.79318  0.1735E-13  0.1566E-04  0.4794E-07  0.1551E-02  0.4769E-04  0.7777E+02
   -1.400013   30.79377  0.1735E-13  0.1543E-04  0.4936E-07  0.1469E-02  0.4461E-04  0.9767E+02
   -1.450014   30.79438  0.1735E-13  0.1517E-04  0.5131E-07  0.1390E-02  0.4159E-04  0.1255E+03
   -1.500014   30.79503  0.1735E-13  0.1484E-04  0.5405E-07  0.1272E-02  0.3862E-04  0.1755E+03
   -1.550015   30.79574  0.1735E-13  0.1445E-04  0.5799E-07  0.1189E-02  0.3562E-04  0.2553E+03
   -1.600015   30.79651  0.1735E-13  0.1396E-04  0.6416E-07  0.1040E-02  0.3268E-04  0.5835E+03
   -1.650014   30.79749  0.1735E-13  0.1332E-04  0.7384E-07  0.9646E-03  0.2949E-04 -0.7283E+00
   -1.700014   30.79858  0.1735E-13  0.1245E-04  0.9136E-07  0.7761E-03  0.2635E-04 -0.6412E+06
   -1.750013   30.80063  0.1735E-13  0.1131E-04  0.1200E-06  0.7037E-03  0.2207E-04  0.2589E+07
   -1.800012   30.80218  0.1735E-13  0.9828E-05  0.1813E-06  0.4770E-03  0.1891E-04  0.9374E+05
   -1.850010   30.80948  0.1735E-13  0.8238E-05  0.2964E-06  0.4494E-03  0.1317E-04  0.9693E+08
   -1.900008   30.80721  0.1735E-13  0.6491E-05  0.6212E-06  0.2008E-03  0.1078E-04  0.3535E+06
   -1.950005   30.82813  0.1735E-13  0.4597E-05  0.1513E-05  0.2043E-03  0.5673E-05 -0.8140E+07
   -2.000002   30.82782  0.1735E-13  0.0000E+00  0.0000E+00  0.0000E+00  0.1099E-04  0.0000E+00
