 1 - depth, m
 2 - temperature, C
 3 - salinity, kg/kg
 4 - turbulent kinetic energy, m**2/s**2
 5 - dissipation rate, m**2/s**3
 6 - kinematic heat conductance, m**2/s
 7 - modulus of horizontal velocity, m/s
 8 - Richardson number, n/d
   -0.000000   30.16102  0.5826E-13  0.4523E-05  0.2685E-06  0.4737E-04  0.1132E-02  0.3225E+04
   -0.049997   30.19050  0.5826E-13  0.7857E-05  0.1197E-06  0.1799E-03  0.6299E-03  0.2191E+03
   -0.099994   30.20094  0.5826E-13  0.9505E-05  0.8333E-07  0.3917E-03  0.4657E-03  0.3581E+02
   -0.149992   30.20396  0.5826E-13  0.1055E-04  0.7014E-07  0.4772E-03  0.4107E-03  0.1763E+02
   -0.199991   30.20634  0.5826E-13  0.1136E-04  0.6240E-07  0.6337E-03  0.3668E-03  0.1136E+02
   -0.249989   30.20808  0.5826E-13  0.1201E-04  0.5732E-07  0.7572E-03  0.3337E-03  0.8413E+01
   -0.299989   30.20949  0.5826E-13  0.1254E-04  0.5370E-07  0.8797E-03  0.3062E-03  0.6705E+01
   -0.349988   30.21068  0.5826E-13  0.1298E-04  0.5098E-07  0.9908E-03  0.2826E-03  0.5749E+01
   -0.399988   30.21172  0.5826E-13  0.1335E-04  0.4887E-07  0.1093E-02  0.2617E-03  0.5125E+01
   -0.449988   30.21263  0.5826E-13  0.1368E-04  0.4716E-07  0.1187E-02  0.2433E-03  0.4821E+01
   -0.499988   30.21346  0.5826E-13  0.1396E-04  0.4575E-07  0.1274E-02  0.2271E-03  0.4687E+01
   -0.549989   30.21422  0.5826E-13  0.1420E-04  0.4457E-07  0.1354E-02  0.2126E-03  0.4634E+01
   -0.599990   30.21492  0.5826E-13  0.1442E-04  0.4358E-07  0.1427E-02  0.1994E-03  0.4634E+01
   -0.649991   30.21557  0.5826E-13  0.1460E-04  0.4275E-07  0.1492E-02  0.1874E-03  0.4702E+01
   -0.699992   30.21619  0.5826E-13  0.1476E-04  0.4205E-07  0.1550E-02  0.1764E-03  0.4806E+01
   -0.749993   30.21678  0.5826E-13  0.1489E-04  0.4147E-07  0.1600E-02  0.1663E-03  0.4976E+01
   -0.799995   30.21734  0.5826E-13  0.1500E-04  0.4100E-07  0.1643E-02  0.1568E-03  0.5182E+01
   -0.849996   30.21788  0.5826E-13  0.1509E-04  0.4062E-07  0.1679E-02  0.1480E-03  0.5460E+01
   -0.899998   30.21841  0.5826E-13  0.1516E-04  0.4034E-07  0.1707E-02  0.1398E-03  0.5786E+01
   -0.950000   30.21892  0.5826E-13  0.1521E-04  0.4015E-07  0.1727E-02  0.1320E-03  0.6206E+01
   -1.000001   30.21942  0.5826E-13  0.1524E-04  0.4005E-07  0.1739E-02  0.1246E-03  0.6693E+01
   -1.050003   30.21992  0.5826E-13  0.1525E-04  0.4004E-07  0.1742E-02  0.1176E-03  0.7606E+01
   -1.100005   30.22041  0.5826E-13  0.1524E-04  0.4013E-07  0.1818E-02  0.1110E-03  0.2547E+02
   -1.150006   30.22088  0.5826E-13  0.1521E-04  0.4035E-07  0.1676E-02  0.1050E-03  0.5586E+02
   -1.200008   30.22139  0.5826E-13  0.1516E-04  0.4068E-07  0.1692E-02  0.9891E-04  0.1092E+02
   -1.250009   30.22189  0.5826E-13  0.1509E-04  0.4117E-07  0.1664E-02  0.9305E-04  0.1164E+02
   -1.300011   30.22239  0.5826E-13  0.1499E-04  0.4183E-07  0.1618E-02  0.8741E-04  0.1360E+02
   -1.350012   30.22291  0.5826E-13  0.1486E-04  0.4273E-07  0.1562E-02  0.8194E-04  0.1619E+02
   -1.400013   30.22345  0.5826E-13  0.1469E-04  0.4393E-07  0.1491E-02  0.7663E-04  0.1989E+02
   -1.450014   30.22401  0.5826E-13  0.1450E-04  0.4553E-07  0.1415E-02  0.7142E-04  0.2511E+02
   -1.500015   30.22461  0.5826E-13  0.1425E-04  0.4772E-07  0.1311E-02  0.6632E-04  0.3363E+02
   -1.550015   30.22525  0.5826E-13  0.1395E-04  0.5078E-07  0.1225E-02  0.6122E-04  0.4704E+02
   -1.600015   30.22595  0.5826E-13  0.1357E-04  0.5533E-07  0.1087E-02  0.5621E-04  0.8103E+02
   -1.650015   30.22678  0.5826E-13  0.1309E-04  0.6228E-07  0.1002E-02  0.5096E-04  0.4221E+04
   -1.700014   30.22772  0.5826E-13  0.1243E-04  0.7456E-07  0.8269E-03  0.4578E-04  0.5738E+03
   -1.750013   30.22926  0.5826E-13  0.1155E-04  0.9461E-07  0.7430E-03  0.3924E-04  0.5904E+05
   -1.800012   30.23066  0.5826E-13  0.1033E-04  0.1350E-06  0.5280E-03  0.3383E-04  0.3488E+06
   -1.850010   30.23564  0.5826E-13  0.8883E-05  0.2135E-06  0.4769E-03  0.2494E-04  0.8551E+08
   -1.900008   30.23543  0.5826E-13  0.7060E-05  0.4396E-06  0.2131E-03  0.2021E-04 -0.8105E+05
   -1.950006   30.25245  0.5826E-13  0.4869E-05  0.1124E-05  0.1730E-03  0.1114E-04 -0.1264E+07
   -2.000003   30.25551  0.5826E-13  0.0000E+00  0.0000E+00  0.0000E+00  0.1898E-04  0.0000E+00
