 1 - depth, m
 2 - temperature, C
 3 - salinity, kg/kg
 4 - turbulent kinetic energy, m**2/s**2
 5 - dissipation rate, m**2/s**3
 6 - kinematic heat conductance, m**2/s
 7 - modulus of horizontal velocity, m/s
 8 - Richardson number, n/d
   -0.000000   30.83930  0.1153E-12  0.5310E-05  0.3473E-06  0.5280E-04  0.1638E-02  0.7112E+04
   -0.049997   30.87358  0.1153E-12  0.9000E-05  0.1552E-06  0.1817E-03  0.9428E-03  0.3714E+04
   -0.099994   30.88685  0.1153E-12  0.1091E-04  0.1065E-06  0.4066E-03  0.6934E-03  0.1962E+02
   -0.149992   30.89055  0.1153E-12  0.1210E-04  0.8907E-07  0.4879E-03  0.6129E-03  0.9638E+01
   -0.199991   30.89349  0.1153E-12  0.1302E-04  0.7884E-07  0.6544E-03  0.5475E-03  0.6136E+01
   -0.249989   30.89561  0.1153E-12  0.1375E-04  0.7213E-07  0.7823E-03  0.4987E-03  0.4519E+01
   -0.299988   30.89732  0.1153E-12  0.1433E-04  0.6733E-07  0.9105E-03  0.4582E-03  0.3575E+01
   -0.349988   30.89875  0.1153E-12  0.1481E-04  0.6372E-07  0.1026E-02  0.4235E-03  0.3050E+01
   -0.399987   30.89999  0.1153E-12  0.1522E-04  0.6089E-07  0.1132E-02  0.3928E-03  0.2705E+01
   -0.449987   30.90108  0.1153E-12  0.1556E-04  0.5858E-07  0.1230E-02  0.3658E-03  0.2536E+01
   -0.499988   30.90206  0.1153E-12  0.1585E-04  0.5666E-07  0.1320E-02  0.3419E-03  0.2455E+01
   -0.549988   30.90295  0.1153E-12  0.1610E-04  0.5504E-07  0.1402E-02  0.3205E-03  0.2420E+01
   -0.599989   30.90378  0.1153E-12  0.1630E-04  0.5365E-07  0.1477E-02  0.3012E-03  0.2408E+01
   -0.649990   30.90455  0.1153E-12  0.1648E-04  0.5247E-07  0.1543E-02  0.2835E-03  0.2436E+01
   -0.699991   30.90527  0.1153E-12  0.1662E-04  0.5146E-07  0.1602E-02  0.2672E-03  0.2477E+01
   -0.749993   30.90595  0.1153E-12  0.1674E-04  0.5059E-07  0.1652E-02  0.2522E-03  0.2557E+01
   -0.799994   30.90660  0.1153E-12  0.1683E-04  0.4986E-07  0.1695E-02  0.2382E-03  0.2648E+01
   -0.849996   30.90723  0.1153E-12  0.1689E-04  0.4925E-07  0.1730E-02  0.2251E-03  0.2783E+01
   -0.899997   30.90783  0.1153E-12  0.1693E-04  0.4875E-07  0.1756E-02  0.2129E-03  0.2933E+01
   -0.949999   30.90842  0.1153E-12  0.1694E-04  0.4837E-07  0.1774E-02  0.2013E-03  0.3140E+01
   -1.000001   30.90899  0.1153E-12  0.1693E-04  0.4810E-07  0.1783E-02  0.1903E-03  0.3369E+01
   -1.050002   30.90955  0.1153E-12  0.1690E-04  0.4795E-07  0.1782E-02  0.1799E-03  0.3813E+01
   -1.100004   30.91011  0.1153E-12  0.1684E-04  0.4793E-07  0.1883E-02  0.1700E-03  0.1237E+02
   -1.150006   30.91062  0.1153E-12  0.1676E-04  0.4806E-07  0.1675E-02  0.1611E-03  0.2946E+02
   -1.200007   30.91120  0.1153E-12  0.1665E-04  0.4834E-07  0.1714E-02  0.1518E-03  0.5531E+01
   -1.250009   30.91176  0.1153E-12  0.1651E-04  0.4882E-07  0.1682E-02  0.1430E-03  0.5839E+01
   -1.300010   30.91232  0.1153E-12  0.1634E-04  0.4954E-07  0.1629E-02  0.1345E-03  0.6862E+01
   -1.350011   30.91290  0.1153E-12  0.1614E-04  0.5056E-07  0.1565E-02  0.1262E-03  0.8217E+01
   -1.400012   30.91349  0.1153E-12  0.1590E-04  0.5200E-07  0.1483E-02  0.1181E-03  0.1025E+02
   -1.450013   30.91411  0.1153E-12  0.1560E-04  0.5402E-07  0.1402E-02  0.1102E-03  0.1317E+02
   -1.500013   30.91477  0.1153E-12  0.1525E-04  0.5689E-07  0.1285E-02  0.1024E-03  0.1825E+02
   -1.550014   30.91550  0.1153E-12  0.1483E-04  0.6109E-07  0.1202E-02  0.9449E-04  0.2730E+02
   -1.600014   30.91628  0.1153E-12  0.1430E-04  0.6775E-07  0.1053E-02  0.8672E-04  0.6406E+02
   -1.650013   30.91727  0.1153E-12  0.1362E-04  0.7829E-07  0.9765E-03  0.7821E-04  0.8345E+02
   -1.700013   30.91842  0.1153E-12  0.1268E-04  0.9725E-07  0.7901E-03  0.6973E-04  0.3977E+04
   -1.750012   30.92046  0.1153E-12  0.1151E-04  0.1274E-06  0.7149E-03  0.5836E-04  0.1432E+06
   -1.800011   30.92184  0.1153E-12  0.9984E-05  0.1942E-06  0.4822E-03  0.5028E-04  0.4140E+06
   -1.850009   30.92947  0.1153E-12  0.8373E-05  0.3210E-06  0.4562E-03  0.3459E-04  0.2045E+08
   -1.900007   30.92693  0.1153E-12  0.6622E-05  0.6718E-06  0.2152E-03  0.2848E-04 -0.1054E+06
   -1.950004   30.94771  0.1153E-12  0.4693E-05  0.1638E-05  0.2075E-03  0.1493E-04 -0.4959E+06
   -2.000001   30.94867  0.1153E-12  0.0000E+00  0.0000E+00  0.0000E+00  0.2969E-04  0.0000E+00
