 1 - depth, m
 2 - temperature, C
 3 - salinity, kg/kg
 4 - turbulent kinetic energy, m**2/s**2
 5 - dissipation rate, m**2/s**3
 6 - kinematic heat conductance, m**2/s
 7 - modulus of horizontal velocity, m/s
 8 - Richardson number, n/d
   -0.000000   29.25982  0.1038E-12  0.4304E-05  0.2491E-06  0.4778E-04  0.1666E-02  0.8320E+04
   -0.049997   29.28666  0.1038E-12  0.7370E-05  0.1107E-06  0.1673E-03  0.9475E-03  0.7202E+03
   -0.099994   29.29711  0.1038E-12  0.8932E-05  0.7606E-07  0.3834E-03  0.6892E-03  0.1889E+02
   -0.149992   29.29996  0.1038E-12  0.9904E-05  0.6399E-07  0.4609E-03  0.6080E-03  0.9062E+01
   -0.199991   29.30225  0.1038E-12  0.1066E-04  0.5689E-07  0.6130E-03  0.5421E-03  0.5861E+01
   -0.249989   29.30392  0.1038E-12  0.1127E-04  0.5223E-07  0.7330E-03  0.4927E-03  0.4313E+01
   -0.299989   29.30528  0.1038E-12  0.1176E-04  0.4890E-07  0.8513E-03  0.4515E-03  0.3444E+01
   -0.349988   29.30642  0.1038E-12  0.1218E-04  0.4641E-07  0.9591E-03  0.4162E-03  0.2937E+01
   -0.399988   29.30741  0.1038E-12  0.1253E-04  0.4447E-07  0.1058E-02  0.3849E-03  0.2628E+01
   -0.449988   29.30829  0.1038E-12  0.1283E-04  0.4289E-07  0.1150E-02  0.3575E-03  0.2458E+01
   -0.499988   29.30909  0.1038E-12  0.1309E-04  0.4160E-07  0.1234E-02  0.3333E-03  0.2405E+01
   -0.549989   29.30981  0.1038E-12  0.1332E-04  0.4051E-07  0.1312E-02  0.3116E-03  0.2364E+01
   -0.599990   29.31048  0.1038E-12  0.1352E-04  0.3960E-07  0.1383E-02  0.2920E-03  0.2379E+01
   -0.649991   29.31111  0.1038E-12  0.1369E-04  0.3884E-07  0.1446E-02  0.2741E-03  0.2398E+01
   -0.699992   29.31170  0.1038E-12  0.1384E-04  0.3819E-07  0.1503E-02  0.2578E-03  0.2468E+01
   -0.749993   29.31227  0.1038E-12  0.1397E-04  0.3766E-07  0.1553E-02  0.2427E-03  0.2538E+01
   -0.799995   29.31280  0.1038E-12  0.1407E-04  0.3722E-07  0.1595E-02  0.2286E-03  0.2662E+01
   -0.849997   29.31332  0.1038E-12  0.1416E-04  0.3687E-07  0.1630E-02  0.2156E-03  0.2785E+01
   -0.899998   29.31382  0.1038E-12  0.1423E-04  0.3661E-07  0.1658E-02  0.2033E-03  0.2973E+01
   -0.950000   29.31431  0.1038E-12  0.1428E-04  0.3642E-07  0.1678E-02  0.1918E-03  0.3166E+01
   -1.000002   29.31480  0.1038E-12  0.1431E-04  0.3632E-07  0.1691E-02  0.1809E-03  0.3439E+01
   -1.050003   29.31527  0.1038E-12  0.1432E-04  0.3631E-07  0.1695E-02  0.1706E-03  0.3884E+01
   -1.100005   29.31574  0.1038E-12  0.1431E-04  0.3638E-07  0.1764E-02  0.1608E-03  0.1318E+02
   -1.150007   29.31619  0.1038E-12  0.1429E-04  0.3657E-07  0.1640E-02  0.1520E-03  0.2840E+02
   -1.200008   29.31667  0.1038E-12  0.1424E-04  0.3685E-07  0.1651E-02  0.1431E-03  0.5554E+01
   -1.250010   29.31714  0.1038E-12  0.1418E-04  0.3727E-07  0.1624E-02  0.1344E-03  0.5958E+01
   -1.300011   29.31763  0.1038E-12  0.1409E-04  0.3785E-07  0.1581E-02  0.1262E-03  0.6899E+01
   -1.350013   29.31812  0.1038E-12  0.1397E-04  0.3863E-07  0.1529E-02  0.1182E-03  0.8247E+01
   -1.400014   29.31863  0.1038E-12  0.1383E-04  0.3967E-07  0.1461E-02  0.1104E-03  0.1002E+02
   -1.450014   29.31917  0.1038E-12  0.1365E-04  0.4106E-07  0.1389E-02  0.1028E-03  0.1266E+02
   -1.500015   29.31973  0.1038E-12  0.1343E-04  0.4295E-07  0.1289E-02  0.9536E-04  0.1666E+02
   -1.550015   29.32034  0.1038E-12  0.1316E-04  0.4556E-07  0.1206E-02  0.8794E-04  0.2311E+02
   -1.600016   29.32100  0.1038E-12  0.1282E-04  0.4941E-07  0.1070E-02  0.8070E-04  0.3696E+02
   -1.650015   29.32176  0.1038E-12  0.1239E-04  0.5519E-07  0.9900E-03  0.7312E-04  0.1399E+03
   -1.700015   29.32261  0.1038E-12  0.1181E-04  0.6550E-07  0.8137E-03  0.6583E-04  0.1924E+04
   -1.750014   29.32401  0.1038E-12  0.1101E-04  0.8264E-07  0.7369E-03  0.5652E-04  0.1041E+05
   -1.800013   29.32535  0.1038E-12  0.9884E-05  0.1179E-06  0.5179E-03  0.4876E-04  0.3341E+05
   -1.850011   29.32966  0.1038E-12  0.8494E-05  0.1842E-06  0.4699E-03  0.3617E-04  0.6451E+07
   -1.900009   29.32992  0.1038E-12  0.6745E-05  0.3796E-06  0.2123E-03  0.2909E-04  0.6132E+06
   -1.950006   29.34546  0.1038E-12  0.4608E-05  0.9864E-06  0.1623E-03  0.1605E-04 -0.3402E+06
   -2.000003   29.34945  0.1038E-12  0.0000E+00  0.0000E+00  0.0000E+00  0.2704E-04  0.0000E+00
