 1 - depth, m
 2 - temperature, C
 3 - salinity, kg/kg
 4 - turbulent kinetic energy, m**2/s**2
 5 - dissipation rate, m**2/s**3
 6 - kinematic heat conductance, m**2/s
 7 - modulus of horizontal velocity, m/s
 8 - Richardson number, n/d
   -0.000000   31.09409  0.1393E-14  0.5561E-05  0.3753E-06  0.5507E-04  0.1945E-02  0.3935E+04
   -0.049997   31.12822  0.1393E-14  0.9362E-05  0.1672E-06  0.1843E-03  0.1124E-02  0.4872E+04
   -0.099994   31.14188  0.1393E-14  0.1137E-04  0.1141E-06  0.4160E-03  0.8263E-03  0.1356E+02
   -0.149992   31.14562  0.1393E-14  0.1263E-04  0.9528E-07  0.4971E-03  0.7311E-03  0.6709E+01
   -0.199990   31.14862  0.1393E-14  0.1362E-04  0.8432E-07  0.6702E-03  0.6536E-03  0.4261E+01
   -0.249989   31.15077  0.1393E-14  0.1439E-04  0.7719E-07  0.8011E-03  0.5960E-03  0.3141E+01
   -0.299988   31.15252  0.1393E-14  0.1503E-04  0.7214E-07  0.9341E-03  0.5481E-03  0.2490E+01
   -0.349987   31.15399  0.1393E-14  0.1555E-04  0.6836E-07  0.1054E-02  0.5071E-03  0.2126E+01
   -0.399987   31.15526  0.1393E-14  0.1599E-04  0.6543E-07  0.1163E-02  0.4710E-03  0.1889E+01
   -0.449987   31.15638  0.1393E-14  0.1637E-04  0.6306E-07  0.1264E-02  0.4391E-03  0.1772E+01
   -0.499987   31.15739  0.1393E-14  0.1670E-04  0.6110E-07  0.1357E-02  0.4110E-03  0.1720E+01
   -0.549988   31.15832  0.1393E-14  0.1698E-04  0.5946E-07  0.1442E-02  0.3857E-03  0.1696E+01
   -0.599989   31.15917  0.1393E-14  0.1722E-04  0.5809E-07  0.1519E-02  0.3628E-03  0.1693E+01
   -0.649990   31.15997  0.1393E-14  0.1742E-04  0.5693E-07  0.1588E-02  0.3418E-03  0.1713E+01
   -0.699991   31.16073  0.1393E-14  0.1759E-04  0.5596E-07  0.1648E-02  0.3226E-03  0.1747E+01
   -0.749992   31.16144  0.1393E-14  0.1773E-04  0.5515E-07  0.1699E-02  0.3048E-03  0.1804E+01
   -0.799994   31.16213  0.1393E-14  0.1785E-04  0.5449E-07  0.1743E-02  0.2882E-03  0.1876E+01
   -0.849995   31.16279  0.1393E-14  0.1793E-04  0.5396E-07  0.1777E-02  0.2727E-03  0.1975E+01
   -0.899997   31.16343  0.1393E-14  0.1799E-04  0.5356E-07  0.1803E-02  0.2582E-03  0.2093E+01
   -0.949998   31.16406  0.1393E-14  0.1803E-04  0.5330E-07  0.1820E-02  0.2444E-03  0.2246E+01
   -1.000000   31.16467  0.1393E-14  0.1803E-04  0.5316E-07  0.1828E-02  0.2314E-03  0.2426E+01
   -1.050002   31.16528  0.1393E-14  0.1802E-04  0.5316E-07  0.1825E-02  0.2189E-03  0.2756E+01
   -1.100003   31.16588  0.1393E-14  0.1798E-04  0.5331E-07  0.1936E-02  0.2071E-03  0.8898E+01
   -1.150005   31.16644  0.1393E-14  0.1790E-04  0.5365E-07  0.1702E-02  0.1966E-03  0.2200E+02
   -1.200006   31.16709  0.1393E-14  0.1781E-04  0.5415E-07  0.1746E-02  0.1854E-03  0.4085E+01
   -1.250008   31.16770  0.1393E-14  0.1767E-04  0.5490E-07  0.1713E-02  0.1748E-03  0.4354E+01
   -1.300009   31.16833  0.1393E-14  0.1751E-04  0.5595E-07  0.1654E-02  0.1645E-03  0.5166E+01
   -1.350010   31.16898  0.1393E-14  0.1730E-04  0.5739E-07  0.1588E-02  0.1545E-03  0.6275E+01
   -1.400011   31.16966  0.1393E-14  0.1704E-04  0.5935E-07  0.1500E-02  0.1448E-03  0.7957E+01
   -1.450012   31.17038  0.1393E-14  0.1673E-04  0.6207E-07  0.1418E-02  0.1351E-03  0.1046E+02
   -1.500012   31.17115  0.1393E-14  0.1635E-04  0.6593E-07  0.1298E-02  0.1256E-03  0.1499E+02
   -1.550013   31.17201  0.1393E-14  0.1589E-04  0.7159E-07  0.1215E-02  0.1159E-03  0.2458E+02
   -1.600013   31.17296  0.1393E-14  0.1529E-04  0.8068E-07  0.1067E-02  0.1063E-03  0.3816E+02
   -1.650012   31.17423  0.1393E-14  0.1451E-04  0.9490E-07  0.9782E-03  0.9549E-04  0.8651E+03
   -1.700012   31.17571  0.1393E-14  0.1343E-04  0.1205E-06  0.7948E-03  0.8456E-04  0.1248E+05
   -1.750011   31.17838  0.1393E-14  0.1217E-04  0.1602E-06  0.7216E-03  0.7013E-04  0.1480E+06
   -1.800009   31.17983  0.1393E-14  0.1060E-04  0.2516E-06  0.4872E-03  0.6071E-04  0.1206E+07
   -1.850008   31.19043  0.1393E-14  0.9023E-05  0.4217E-06  0.4732E-03  0.4140E-04  0.5303E+09
   -1.900006   31.18561  0.1393E-14  0.7242E-05  0.8769E-06  0.2218E-03  0.3476E-04 -0.6128E+05
   -1.950003   31.21198  0.1393E-14  0.5186E-05  0.2073E-05  0.2249E-03  0.1848E-04 -0.3537E+06
   -2.000000   31.21270  0.1393E-14  0.0000E+00  0.0000E+00  0.0000E+00  0.3703E-04  0.0000E+00
