 1 - depth, m
 2 - temperature, C
 3 - salinity, kg/kg
 4 - turbulent kinetic energy, m**2/s**2
 5 - dissipation rate, m**2/s**3
 6 - kinematic heat conductance, m**2/s
 7 - modulus of horizontal velocity, m/s
 8 - Richardson number, n/d
   -0.000000   31.40240  0.1393E-14  0.5352E-05  0.3564E-06  0.5321E-04  0.1274E-02  0.8119E+04
   -0.049997   31.43616  0.1393E-14  0.9177E-05  0.1585E-06  0.1861E-03  0.7313E-03  0.2289E+04
   -0.099994   31.44931  0.1393E-14  0.1115E-04  0.1088E-06  0.4189E-03  0.5369E-03  0.3153E+02
   -0.149992   31.45288  0.1393E-14  0.1239E-04  0.9120E-07  0.4996E-03  0.4755E-03  0.1554E+02
   -0.199990   31.45573  0.1393E-14  0.1335E-04  0.8091E-07  0.6718E-03  0.4254E-03  0.9934E+01
   -0.249989   31.45779  0.1393E-14  0.1411E-04  0.7421E-07  0.8016E-03  0.3881E-03  0.7334E+01
   -0.299988   31.45947  0.1393E-14  0.1474E-04  0.6945E-07  0.9336E-03  0.3570E-03  0.5840E+01
   -0.349987   31.46088  0.1393E-14  0.1525E-04  0.6590E-07  0.1052E-02  0.3304E-03  0.4982E+01
   -0.399987   31.46210  0.1393E-14  0.1568E-04  0.6313E-07  0.1160E-02  0.3069E-03  0.4445E+01
   -0.449987   31.46318  0.1393E-14  0.1606E-04  0.6090E-07  0.1260E-02  0.2862E-03  0.4157E+01
   -0.499988   31.46416  0.1393E-14  0.1638E-04  0.5905E-07  0.1352E-02  0.2678E-03  0.4048E+01
   -0.549988   31.46505  0.1393E-14  0.1665E-04  0.5752E-07  0.1436E-02  0.2514E-03  0.3979E+01
   -0.599989   31.46588  0.1393E-14  0.1689E-04  0.5623E-07  0.1511E-02  0.2364E-03  0.3988E+01
   -0.649990   31.46665  0.1393E-14  0.1709E-04  0.5515E-07  0.1579E-02  0.2228E-03  0.4025E+01
   -0.699991   31.46738  0.1393E-14  0.1726E-04  0.5424E-07  0.1638E-02  0.2103E-03  0.4127E+01
   -0.749992   31.46808  0.1393E-14  0.1740E-04  0.5349E-07  0.1689E-02  0.1987E-03  0.4252E+01
   -0.799994   31.46874  0.1393E-14  0.1752E-04  0.5288E-07  0.1731E-02  0.1879E-03  0.4446E+01
   -0.849995   31.46938  0.1393E-14  0.1760E-04  0.5240E-07  0.1765E-02  0.1778E-03  0.4668E+01
   -0.899997   31.47001  0.1393E-14  0.1767E-04  0.5205E-07  0.1790E-02  0.1682E-03  0.4973E+01
   -0.949998   31.47062  0.1393E-14  0.1770E-04  0.5182E-07  0.1806E-02  0.1593E-03  0.5322E+01
   -1.000000   31.47121  0.1393E-14  0.1771E-04  0.5172E-07  0.1814E-02  0.1507E-03  0.5783E+01
   -1.050002   31.47181  0.1393E-14  0.1770E-04  0.5176E-07  0.1809E-02  0.1426E-03  0.6552E+01
   -1.100003   31.47239  0.1393E-14  0.1766E-04  0.5194E-07  0.1921E-02  0.1349E-03  0.2119E+02
   -1.150005   31.47295  0.1393E-14  0.1759E-04  0.5231E-07  0.1685E-02  0.1280E-03  0.5312E+02
   -1.200006   31.47357  0.1393E-14  0.1750E-04  0.5284E-07  0.1729E-02  0.1207E-03  0.9788E+01
   -1.250008   31.47418  0.1393E-14  0.1737E-04  0.5361E-07  0.1696E-02  0.1137E-03  0.1051E+02
   -1.300009   31.47480  0.1393E-14  0.1721E-04  0.5468E-07  0.1636E-02  0.1071E-03  0.1246E+02
   -1.350010   31.47544  0.1393E-14  0.1701E-04  0.5613E-07  0.1571E-02  0.1005E-03  0.1525E+02
   -1.400011   31.47611  0.1393E-14  0.1676E-04  0.5811E-07  0.1479E-02  0.9415E-04  0.1942E+02
   -1.450012   31.47682  0.1393E-14  0.1645E-04  0.6084E-07  0.1402E-02  0.8782E-04  0.2567E+02
   -1.500013   31.47758  0.1393E-14  0.1608E-04  0.6471E-07  0.1275E-02  0.8161E-04  0.3726E+02
   -1.550013   31.47843  0.1393E-14  0.1562E-04  0.7032E-07  0.1203E-02  0.7523E-04  0.6006E+02
   -1.600013   31.47936  0.1393E-14  0.1503E-04  0.7947E-07  0.1043E-02  0.6904E-04 -0.2374E+03
   -1.650013   31.48066  0.1393E-14  0.1425E-04  0.9356E-07  0.9716E-03  0.6185E-04 -0.3249E+04
   -1.700012   31.48205  0.1393E-14  0.1317E-04  0.1194E-06  0.7712E-03  0.5501E-04  0.5086E+06
   -1.750011   31.48498  0.1393E-14  0.1188E-04  0.1604E-06  0.7156E-03  0.4508E-04  0.2575E+06
   -1.800010   31.48642  0.1393E-14  0.1035E-04  0.2487E-06  0.4840E-03  0.3900E-04  0.8944E+04
   -1.850008   31.49707  0.1393E-14  0.8780E-05  0.4189E-06  0.4671E-03  0.2646E-04  0.4915E+08
   -1.900006   31.49200  0.1393E-14  0.7066E-05  0.8796E-06  0.2235E-03  0.2223E-04 -0.4436E+06
   -1.950003   31.51844  0.1393E-14  0.5066E-05  0.2089E-05  0.2235E-03  0.1176E-04 -0.1133E+06
   -2.000000   31.51962  0.1393E-14  0.0000E+00  0.0000E+00  0.0000E+00  0.2386E-04  0.0000E+00
