 1 - depth, m
 2 - temperature, C
 3 - salinity, kg/kg
 4 - turbulent kinetic energy, m**2/s**2
 5 - dissipation rate, m**2/s**3
 6 - kinematic heat conductance, m**2/s
 7 - modulus of horizontal velocity, m/s
 8 - Richardson number, n/d
   -0.000000   29.76405  0.3750E-13  0.4703E-05  0.2610E-06  0.4837E-04  0.2615E-02  0.2179E+04
   -0.049997   29.79201  0.3750E-13  0.7802E-05  0.1149E-06  0.1859E-03  0.1414E-02  0.1304E+03
   -0.099994   29.80109  0.3750E-13  0.9281E-05  0.8082E-07  0.3764E-03  0.1080E-02  0.7151E+01
   -0.149992   29.80411  0.3750E-13  0.1024E-04  0.6795E-07  0.4684E-03  0.9538E-03  0.3598E+01
   -0.199991   29.80643  0.3750E-13  0.1099E-04  0.6039E-07  0.6115E-03  0.8550E-03  0.2344E+01
   -0.249989   29.80816  0.3750E-13  0.1159E-04  0.5542E-07  0.7292E-03  0.7794E-03  0.1746E+01
   -0.299989   29.80957  0.3750E-13  0.1209E-04  0.5188E-07  0.8384E-03  0.7164E-03  0.1428E+01
   -0.349988   29.81077  0.3750E-13  0.1251E-04  0.4916E-07  0.9415E-03  0.6615E-03  0.1335E+01
   -0.399988   29.81181  0.3750E-13  0.1288E-04  0.4696E-07  0.1048E-02  0.6104E-03  0.1297E+01
   -0.449988   29.81272  0.3750E-13  0.1322E-04  0.4512E-07  0.1153E-02  0.5634E-03  0.1286E+01
   -0.499988   29.81354  0.3750E-13  0.1352E-04  0.4357E-07  0.1252E-02  0.5211E-03  0.1283E+01
   -0.549989   29.81427  0.3750E-13  0.1378E-04  0.4227E-07  0.1342E-02  0.4830E-03  0.1280E+01
   -0.599990   29.81495  0.3750E-13  0.1400E-04  0.4118E-07  0.1425E-02  0.4486E-03  0.1274E+01
   -0.649991   29.81557  0.3750E-13  0.1419E-04  0.4027E-07  0.1498E-02  0.4175E-03  0.1272E+01
   -0.699992   29.81616  0.3750E-13  0.1434E-04  0.3952E-07  0.1563E-02  0.3894E-03  0.1266E+01
   -0.749993   29.81671  0.3750E-13  0.1447E-04  0.3889E-07  0.1617E-02  0.3639E-03  0.1265E+01
   -0.799995   29.81724  0.3750E-13  0.1457E-04  0.3839E-07  0.1661E-02  0.3407E-03  0.1263E+01
   -0.849997   29.81775  0.3750E-13  0.1465E-04  0.3799E-07  0.1696E-02  0.3197E-03  0.1269E+01
   -0.899998   29.81824  0.3750E-13  0.1470E-04  0.3770E-07  0.1721E-02  0.3005E-03  0.1280E+01
   -0.950000   29.81872  0.3750E-13  0.1473E-04  0.3749E-07  0.1737E-02  0.2830E-03  0.1317E+01
   -1.000002   29.81919  0.3750E-13  0.1474E-04  0.3738E-07  0.1746E-02  0.2669E-03  0.1378E+01
   -1.050003   29.81965  0.3750E-13  0.1474E-04  0.3734E-07  0.1745E-02  0.2518E-03  0.1544E+01
   -1.100005   29.82011  0.3750E-13  0.1471E-04  0.3740E-07  0.1832E-02  0.2376E-03  0.5109E+01
   -1.150007   29.82054  0.3750E-13  0.1466E-04  0.3758E-07  0.1660E-02  0.2250E-03  0.1147E+02
   -1.200008   29.82102  0.3750E-13  0.1460E-04  0.3785E-07  0.1688E-02  0.2118E-03  0.2214E+01
   -1.250010   29.82148  0.3750E-13  0.1451E-04  0.3827E-07  0.1658E-02  0.1993E-03  0.2348E+01
   -1.300011   29.82195  0.3750E-13  0.1440E-04  0.3885E-07  0.1610E-02  0.1872E-03  0.2741E+01
   -1.350013   29.82243  0.3750E-13  0.1425E-04  0.3965E-07  0.1553E-02  0.1755E-03  0.3257E+01
   -1.400014   29.82293  0.3750E-13  0.1408E-04  0.4073E-07  0.1480E-02  0.1641E-03  0.3995E+01
   -1.450014   29.82345  0.3750E-13  0.1388E-04  0.4218E-07  0.1403E-02  0.1529E-03  0.5034E+01
   -1.500015   29.82400  0.3750E-13  0.1362E-04  0.4418E-07  0.1298E-02  0.1419E-03  0.6720E+01
   -1.550015   29.82459  0.3750E-13  0.1332E-04  0.4699E-07  0.1211E-02  0.1310E-03  0.9364E+01
   -1.600016   29.82523  0.3750E-13  0.1294E-04  0.5119E-07  0.1072E-02  0.1202E-03  0.1611E+02
   -1.650015   29.82599  0.3750E-13  0.1247E-04  0.5764E-07  0.9917E-03  0.1089E-03  0.2497E+02
   -1.700015   29.82684  0.3750E-13  0.1182E-04  0.6919E-07  0.8135E-03  0.9785E-04 -0.1075E+04
   -1.750014   29.82825  0.3750E-13  0.1093E-04  0.8844E-07  0.7314E-03  0.8365E-04  0.1076E+05
   -1.800013   29.82963  0.3750E-13  0.9694E-05  0.1296E-06  0.5154E-03  0.7169E-04  0.1081E+05
   -1.850011   29.83418  0.3750E-13  0.8274E-05  0.2038E-06  0.4670E-03  0.5236E-04  0.1570E+07
   -1.900009   29.83385  0.3750E-13  0.6533E-05  0.4229E-06  0.2097E-03  0.4233E-04 -0.3422E+05
   -1.950006   29.84944  0.3750E-13  0.4506E-05  0.1078E-05  0.1738E-03  0.2293E-04 -0.6579E+05
   -2.000003   29.85177  0.3750E-13  0.0000E+00  0.0000E+00  0.0000E+00  0.4063E-04  0.0000E+00
