 1 - depth, m
 2 - temperature, C
 3 - salinity, kg/kg
 4 - turbulent kinetic energy, m**2/s**2
 5 - dissipation rate, m**2/s**3
 6 - kinematic heat conductance, m**2/s
 7 - modulus of horizontal velocity, m/s
 8 - Richardson number, n/d
   -0.000000   29.90755  0.2694E-14  0.4611E-05  0.2797E-06  0.4942E-04  0.1346E-02  0.5404E+04
   -0.049997   29.93707  0.2694E-14  0.7932E-05  0.1248E-06  0.1731E-03  0.7680E-03  0.8084E+03
   -0.099994   29.94856  0.2694E-14  0.9623E-05  0.8590E-07  0.3930E-03  0.5606E-03  0.2674E+02
   -0.149992   29.95172  0.2694E-14  0.1067E-04  0.7220E-07  0.4716E-03  0.4950E-03  0.1299E+02
   -0.199991   29.95424  0.2694E-14  0.1149E-04  0.6414E-07  0.6290E-03  0.4417E-03  0.8365E+01
   -0.249989   29.95607  0.2694E-14  0.1214E-04  0.5883E-07  0.7517E-03  0.4018E-03  0.6173E+01
   -0.299989   29.95756  0.2694E-14  0.1266E-04  0.5503E-07  0.8734E-03  0.3686E-03  0.4908E+01
   -0.349988   29.95881  0.2694E-14  0.1310E-04  0.5217E-07  0.9838E-03  0.3401E-03  0.4197E+01
   -0.399988   29.95989  0.2694E-14  0.1346E-04  0.4993E-07  0.1085E-02  0.3149E-03  0.3737E+01
   -0.449988   29.96085  0.2694E-14  0.1377E-04  0.4810E-07  0.1178E-02  0.2928E-03  0.3512E+01
   -0.499988   29.96171  0.2694E-14  0.1404E-04  0.4659E-07  0.1264E-02  0.2732E-03  0.3415E+01
   -0.549989   29.96250  0.2694E-14  0.1427E-04  0.4531E-07  0.1343E-02  0.2556E-03  0.3373E+01
   -0.599990   29.96323  0.2694E-14  0.1447E-04  0.4422E-07  0.1415E-02  0.2398E-03  0.3370E+01
   -0.649991   29.96391  0.2694E-14  0.1463E-04  0.4329E-07  0.1479E-02  0.2253E-03  0.3414E+01
   -0.699992   29.96455  0.2694E-14  0.1477E-04  0.4250E-07  0.1536E-02  0.2121E-03  0.3484E+01
   -0.749993   29.96516  0.2694E-14  0.1489E-04  0.4183E-07  0.1585E-02  0.1998E-03  0.3600E+01
   -0.799995   29.96574  0.2694E-14  0.1498E-04  0.4126E-07  0.1628E-02  0.1884E-03  0.3740E+01
   -0.849997   29.96629  0.2694E-14  0.1505E-04  0.4078E-07  0.1662E-02  0.1778E-03  0.3931E+01
   -0.899998   29.96683  0.2694E-14  0.1510E-04  0.4040E-07  0.1689E-02  0.1678E-03  0.4154E+01
   -0.950000   29.96735  0.2694E-14  0.1512E-04  0.4011E-07  0.1708E-02  0.1584E-03  0.4443E+01
   -1.000002   29.96786  0.2694E-14  0.1513E-04  0.3991E-07  0.1719E-02  0.1495E-03  0.4777E+01
   -1.050003   29.96836  0.2694E-14  0.1511E-04  0.3980E-07  0.1721E-02  0.1411E-03  0.5406E+01
   -1.100005   29.96886  0.2694E-14  0.1508E-04  0.3979E-07  0.1803E-02  0.1331E-03  0.1790E+02
   -1.150007   29.96933  0.2694E-14  0.1502E-04  0.3989E-07  0.1646E-02  0.1260E-03  0.4032E+02
   -1.200008   29.96983  0.2694E-14  0.1495E-04  0.4012E-07  0.1668E-02  0.1186E-03  0.7748E+01
   -1.250010   29.97033  0.2694E-14  0.1484E-04  0.4049E-07  0.1639E-02  0.1115E-03  0.8195E+01
   -1.300011   29.97083  0.2694E-14  0.1471E-04  0.4104E-07  0.1593E-02  0.1047E-03  0.9566E+01
   -1.350012   29.97133  0.2694E-14  0.1456E-04  0.4181E-07  0.1536E-02  0.9811E-04  0.1137E+02
   -1.400014   29.97186  0.2694E-14  0.1437E-04  0.4289E-07  0.1463E-02  0.9170E-04  0.1399E+02
   -1.450014   29.97240  0.2694E-14  0.1414E-04  0.4437E-07  0.1387E-02  0.8543E-04  0.1767E+02
   -1.500015   29.97298  0.2694E-14  0.1386E-04  0.4644E-07  0.1280E-02  0.7928E-04  0.2382E+02
   -1.550015   29.97360  0.2694E-14  0.1353E-04  0.4939E-07  0.1196E-02  0.7313E-04  0.3345E+02
   -1.600015   29.97427  0.2694E-14  0.1312E-04  0.5389E-07  0.1056E-02  0.6709E-04  0.5895E+02
   -1.650015   29.97506  0.2694E-14  0.1260E-04  0.6088E-07  0.9775E-03  0.6072E-04  0.1554E+03
   -1.700015   29.97596  0.2694E-14  0.1189E-04  0.7360E-07  0.8006E-03  0.5448E-04  0.3622E+04
   -1.750014   29.97751  0.2694E-14  0.1092E-04  0.9474E-07  0.7204E-03  0.4630E-04  0.3304E+06
   -1.800013   29.97892  0.2694E-14  0.9613E-05  0.1399E-06  0.5024E-03  0.3959E-04  0.1770E+05
   -1.850011   29.98404  0.2694E-14  0.8134E-05  0.2223E-06  0.4599E-03  0.2847E-04  0.3271E+07
   -1.900009   29.98325  0.2694E-14  0.6406E-05  0.4638E-06  0.2068E-03  0.2308E-04  0.7484E+06
   -1.950006   29.99968  0.2694E-14  0.4441E-05  0.1168E-05  0.1815E-03  0.1236E-04 -0.1526E+07
   -2.000003   30.00115  0.2694E-14  0.0000E+00  0.0000E+00  0.0000E+00  0.2260E-04  0.0000E+00
