 1 - depth, m
 2 - temperature, C
 3 - salinity, kg/kg
 4 - turbulent kinetic energy, m**2/s**2
 5 - dissipation rate, m**2/s**3
 6 - kinematic heat conductance, m**2/s
 7 - modulus of horizontal velocity, m/s
 8 - Richardson number, n/d
   -0.000000   30.12827  0.3351E-13  0.6027E-05  0.3306E-06  0.5600E-04  0.4388E-02  0.2247E+03
   -0.049997   30.15999  0.3351E-13  0.9419E-05  0.1407E-06  0.2226E-03  0.2338E-02  0.3401E+03
   -0.099994   30.16850  0.3351E-13  0.1088E-04  0.1022E-06  0.3926E-03  0.1906E-02  0.2996E+01
   -0.149992   30.17205  0.3351E-13  0.1190E-04  0.8685E-07  0.4900E-03  0.1715E-02  0.1655E+01
   -0.199991   30.17477  0.3351E-13  0.1272E-04  0.7778E-07  0.6092E-03  0.1565E-02  0.1275E+01
   -0.249989   30.17690  0.3351E-13  0.1345E-04  0.7149E-07  0.7230E-03  0.1442E-02  0.1314E+01
   -0.299988   30.17865  0.3351E-13  0.1415E-04  0.6654E-07  0.8623E-03  0.1324E-02  0.1415E+01
   -0.349988   30.18007  0.3351E-13  0.1480E-04  0.6249E-07  0.1017E-02  0.1209E-02  0.1516E+01
   -0.399988   30.18126  0.3351E-13  0.1541E-04  0.5915E-07  0.1177E-02  0.1096E-02  0.1537E+01
   -0.449988   30.18226  0.3351E-13  0.1595E-04  0.5640E-07  0.1334E-02  0.9922E-03  0.1534E+01
   -0.499988   30.18313  0.3351E-13  0.1642E-04  0.5416E-07  0.1479E-02  0.8993E-03  0.1525E+01
   -0.549989   30.18389  0.3351E-13  0.1682E-04  0.5235E-07  0.1610E-02  0.8169E-03  0.1505E+01
   -0.599989   30.18459  0.3351E-13  0.1714E-04  0.5089E-07  0.1725E-02  0.7437E-03  0.1482E+01
   -0.649990   30.18522  0.3351E-13  0.1740E-04  0.4973E-07  0.1823E-02  0.6787E-03  0.1455E+01
   -0.699992   30.18582  0.3351E-13  0.1761E-04  0.4883E-07  0.1901E-02  0.6210E-03  0.1426E+01
   -0.749993   30.18638  0.3351E-13  0.1775E-04  0.4816E-07  0.1961E-02  0.5697E-03  0.1393E+01
   -0.799994   30.18692  0.3351E-13  0.1785E-04  0.4768E-07  0.2001E-02  0.5241E-03  0.1358E+01
   -0.849996   30.18744  0.3351E-13  0.1790E-04  0.4739E-07  0.2024E-02  0.4835E-03  0.1320E+01
   -0.899998   30.18795  0.3351E-13  0.1791E-04  0.4726E-07  0.2030E-02  0.4474E-03  0.1280E+01
   -0.949999   30.18845  0.3351E-13  0.1789E-04  0.4728E-07  0.2021E-02  0.4153E-03  0.1238E+01
   -1.000001   30.18895  0.3351E-13  0.1783E-04  0.4745E-07  0.1999E-02  0.3867E-03  0.1193E+01
   -1.050003   30.18946  0.3351E-13  0.1776E-04  0.4775E-07  0.1951E-02  0.3612E-03  0.1147E+01
   -1.100004   30.18997  0.3351E-13  0.1766E-04  0.4814E-07  0.2160E-02  0.3388E-03  0.2509E+01
   -1.150006   30.19043  0.3351E-13  0.1755E-04  0.4869E-07  0.1709E-02  0.3233E-03  0.7226E+01
   -1.200008   30.19101  0.3351E-13  0.1741E-04  0.4941E-07  0.1826E-02  0.3049E-03  0.1285E+01
   -1.250009   30.19155  0.3351E-13  0.1723E-04  0.5038E-07  0.1782E-02  0.2878E-03  0.1348E+01
   -1.300010   30.19210  0.3351E-13  0.1703E-04  0.5165E-07  0.1706E-02  0.2714E-03  0.1598E+01
   -1.350012   30.19267  0.3351E-13  0.1678E-04  0.5334E-07  0.1625E-02  0.2555E-03  0.1978E+01
   -1.400013   30.19328  0.3351E-13  0.1648E-04  0.5562E-07  0.1518E-02  0.2398E-03  0.2564E+01
   -1.450013   30.19393  0.3351E-13  0.1612E-04  0.5874E-07  0.1423E-02  0.2241E-03  0.3478E+01
   -1.500014   30.19463  0.3351E-13  0.1569E-04  0.6315E-07  0.1292E-02  0.2085E-03  0.5191E+01
   -1.550014   30.19543  0.3351E-13  0.1516E-04  0.6969E-07  0.1204E-02  0.1925E-03  0.1361E+02
   -1.600014   30.19635  0.3351E-13  0.1449E-04  0.8034E-07  0.1051E-02  0.1762E-03 -0.7494E+02
   -1.650014   30.19766  0.3351E-13  0.1359E-04  0.9706E-07  0.9568E-03  0.1573E-03  0.1346E+04
   -1.700014   30.19921  0.3351E-13  0.1236E-04  0.1283E-06  0.7640E-03  0.1378E-03  0.1121E+06
   -1.750013   30.20205  0.3351E-13  0.1103E-04  0.1736E-06  0.6856E-03  0.1120E-03  0.4289E+05
   -1.800011   30.20329  0.3351E-13  0.9395E-05  0.2725E-06  0.4597E-03  0.9662E-04  0.2652E+07
   -1.850010   30.21497  0.3351E-13  0.7877E-05  0.4645E-06  0.4487E-03  0.6251E-04  0.1336E+08
   -1.900008   30.20880  0.3351E-13  0.6253E-05  0.9778E-06  0.2127E-03  0.5287E-04 -0.9236E+05
   -1.950005   30.23652  0.3351E-13  0.4578E-05  0.2228E-05  0.2491E-03  0.2653E-04 -0.4599E+05
   -2.000002   30.23412  0.3351E-13  0.0000E+00  0.0000E+00  0.0000E+00  0.6122E-04  0.0000E+00
