 1 - depth, m
 2 - temperature, C
 3 - salinity, kg/kg
 4 - turbulent kinetic energy, m**2/s**2
 5 - dissipation rate, m**2/s**3
 6 - kinematic heat conductance, m**2/s
 7 - modulus of horizontal velocity, m/s
 8 - Richardson number, n/d
   -0.000000   30.30895  0.6222E-14  0.4985E-05  0.3173E-06  0.5202E-04  0.1859E-02  0.3365E+04
   -0.049997   30.33938  0.6222E-14  0.8448E-05  0.1412E-06  0.1755E-03  0.1073E-02  0.3024E+03
   -0.099994   30.35178  0.6222E-14  0.1028E-04  0.9641E-07  0.4032E-03  0.7809E-03  0.1383E+02
   -0.149992   30.35509  0.6222E-14  0.1141E-04  0.8074E-07  0.4817E-03  0.6901E-03  0.6771E+01
   -0.199991   30.35775  0.6222E-14  0.1230E-04  0.7159E-07  0.6470E-03  0.6161E-03  0.4326E+01
   -0.249989   30.35968  0.6222E-14  0.1301E-04  0.6564E-07  0.7734E-03  0.5610E-03  0.3193E+01
   -0.299988   30.36125  0.6222E-14  0.1359E-04  0.6141E-07  0.9007E-03  0.5151E-03  0.2539E+01
   -0.349988   30.36256  0.6222E-14  0.1407E-04  0.5826E-07  0.1016E-02  0.4759E-03  0.2173E+01
   -0.399988   30.36371  0.6222E-14  0.1447E-04  0.5581E-07  0.1121E-02  0.4412E-03  0.1936E+01
   -0.449988   30.36472  0.6222E-14  0.1482E-04  0.5383E-07  0.1219E-02  0.4107E-03  0.1819E+01
   -0.499988   30.36563  0.6222E-14  0.1513E-04  0.5220E-07  0.1308E-02  0.3838E-03  0.1768E+01
   -0.549989   30.36647  0.6222E-14  0.1539E-04  0.5084E-07  0.1390E-02  0.3596E-03  0.1748E+01
   -0.599989   30.36725  0.6222E-14  0.1561E-04  0.4970E-07  0.1464E-02  0.3378E-03  0.1748E+01
   -0.649990   30.36797  0.6222E-14  0.1581E-04  0.4874E-07  0.1531E-02  0.3178E-03  0.1773E+01
   -0.699992   30.36865  0.6222E-14  0.1597E-04  0.4794E-07  0.1590E-02  0.2995E-03  0.1813E+01
   -0.749993   30.36930  0.6222E-14  0.1611E-04  0.4727E-07  0.1641E-02  0.2826E-03  0.1878E+01
   -0.799994   30.36993  0.6222E-14  0.1623E-04  0.4673E-07  0.1684E-02  0.2668E-03  0.1957E+01
   -0.849996   30.37053  0.6222E-14  0.1632E-04  0.4630E-07  0.1719E-02  0.2521E-03  0.2064E+01
   -0.899998   30.37111  0.6222E-14  0.1638E-04  0.4598E-07  0.1745E-02  0.2383E-03  0.2190E+01
   -0.949999   30.37168  0.6222E-14  0.1643E-04  0.4577E-07  0.1763E-02  0.2253E-03  0.2353E+01
   -1.000001   30.37224  0.6222E-14  0.1645E-04  0.4567E-07  0.1773E-02  0.2130E-03  0.2543E+01
   -1.050003   30.37279  0.6222E-14  0.1645E-04  0.4567E-07  0.1773E-02  0.2012E-03  0.2893E+01
   -1.100004   30.37333  0.6222E-14  0.1643E-04  0.4580E-07  0.1866E-02  0.1901E-03  0.9516E+01
   -1.150006   30.37385  0.6222E-14  0.1638E-04  0.4608E-07  0.1678E-02  0.1802E-03  0.2218E+02
   -1.200008   30.37442  0.6222E-14  0.1631E-04  0.4650E-07  0.1709E-02  0.1697E-03  0.4232E+01
   -1.250009   30.37498  0.6222E-14  0.1620E-04  0.4711E-07  0.1677E-02  0.1598E-03  0.4522E+01
   -1.300010   30.37555  0.6222E-14  0.1607E-04  0.4794E-07  0.1625E-02  0.1503E-03  0.5329E+01
   -1.350012   30.37614  0.6222E-14  0.1591E-04  0.4908E-07  0.1563E-02  0.1410E-03  0.6416E+01
   -1.400013   30.37675  0.6222E-14  0.1570E-04  0.5061E-07  0.1482E-02  0.1319E-03  0.8011E+01
   -1.450013   30.37739  0.6222E-14  0.1545E-04  0.5268E-07  0.1404E-02  0.1230E-03  0.1031E+02
   -1.500014   30.37807  0.6222E-14  0.1515E-04  0.5558E-07  0.1286E-02  0.1143E-03  0.1428E+02
   -1.550014   30.37883  0.6222E-14  0.1477E-04  0.5968E-07  0.1207E-02  0.1054E-03  0.2075E+02
   -1.600014   30.37964  0.6222E-14  0.1429E-04  0.6609E-07  0.1055E-02  0.9679E-04  0.4863E+02
   -1.650014   30.38068  0.6222E-14  0.1367E-04  0.7605E-07  0.9824E-03  0.8725E-04  0.4779E+04
   -1.700014   30.38183  0.6222E-14  0.1282E-04  0.9385E-07  0.7897E-03  0.7808E-04  0.3074E+05
   -1.750013   30.38400  0.6222E-14  0.1170E-04  0.1227E-06  0.7220E-03  0.6535E-04  0.8427E+05
   -1.800011   30.38555  0.6222E-14  0.1026E-04  0.1840E-06  0.4893E-03  0.5634E-04  0.3775E+06
   -1.850010   30.39330  0.6222E-14  0.8684E-05  0.3017E-06  0.4634E-03  0.3935E-04  0.2847E+07
   -1.900008   30.39101  0.6222E-14  0.6917E-05  0.6312E-06  0.2092E-03  0.3239E-04  0.2270E+06
   -1.950005   30.41321  0.6222E-14  0.4887E-05  0.1552E-05  0.2003E-03  0.1724E-04 -0.2068E+06
   -2.000002   30.41411  0.6222E-14  0.0000E+00  0.0000E+00  0.0000E+00  0.3280E-04  0.0000E+00
