 1 - depth, m
 2 - temperature, C
 3 - salinity, kg/kg
 4 - turbulent kinetic energy, m**2/s**2
 5 - dissipation rate, m**2/s**3
 6 - kinematic heat conductance, m**2/s
 7 - modulus of horizontal velocity, m/s
 8 - Richardson number, n/d
   -0.000000   31.06422  0.1157E-12  0.5024E-05  0.3174E-06  0.5031E-04  0.1294E-02  0.4128E+04
   -0.049997   31.09692  0.1157E-12  0.8631E-05  0.1415E-06  0.1843E-03  0.7320E-03  0.3049E+03
   -0.099994   31.10876  0.1157E-12  0.1044E-04  0.9790E-07  0.4033E-03  0.5414E-03  0.3031E+02
   -0.149992   31.11216  0.1157E-12  0.1158E-04  0.8213E-07  0.4880E-03  0.4783E-03  0.1492E+02
   -0.199990   31.11483  0.1157E-12  0.1247E-04  0.7288E-07  0.6513E-03  0.4275E-03  0.9561E+01
   -0.249989   31.11677  0.1157E-12  0.1317E-04  0.6682E-07  0.7780E-03  0.3895E-03  0.7043E+01
   -0.299988   31.11835  0.1157E-12  0.1375E-04  0.6249E-07  0.9047E-03  0.3579E-03  0.5601E+01
   -0.349988   31.11967  0.1157E-12  0.1422E-04  0.5924E-07  0.1019E-02  0.3307E-03  0.4773E+01
   -0.399987   31.12081  0.1157E-12  0.1461E-04  0.5671E-07  0.1124E-02  0.3068E-03  0.4251E+01
   -0.449987   31.12183  0.1157E-12  0.1495E-04  0.5466E-07  0.1221E-02  0.2856E-03  0.3973E+01
   -0.499988   31.12274  0.1157E-12  0.1525E-04  0.5295E-07  0.1310E-02  0.2669E-03  0.3865E+01
   -0.549988   31.12357  0.1157E-12  0.1550E-04  0.5153E-07  0.1392E-02  0.2502E-03  0.3796E+01
   -0.599989   31.12434  0.1157E-12  0.1572E-04  0.5033E-07  0.1466E-02  0.2350E-03  0.3800E+01
   -0.649990   31.12506  0.1157E-12  0.1590E-04  0.4931E-07  0.1532E-02  0.2212E-03  0.3831E+01
   -0.699991   31.12574  0.1157E-12  0.1606E-04  0.4846E-07  0.1590E-02  0.2085E-03  0.3922E+01
   -0.749992   31.12638  0.1157E-12  0.1619E-04  0.4774E-07  0.1641E-02  0.1967E-03  0.4035E+01
   -0.799994   31.12699  0.1157E-12  0.1630E-04  0.4715E-07  0.1683E-02  0.1858E-03  0.4211E+01
   -0.849995   31.12758  0.1157E-12  0.1638E-04  0.4668E-07  0.1718E-02  0.1756E-03  0.4412E+01
   -0.899997   31.12816  0.1157E-12  0.1644E-04  0.4631E-07  0.1744E-02  0.1660E-03  0.4689E+01
   -0.949999   31.12872  0.1157E-12  0.1647E-04  0.4606E-07  0.1762E-02  0.1569E-03  0.5004E+01
   -1.000000   31.12926  0.1157E-12  0.1649E-04  0.4592E-07  0.1772E-02  0.1483E-03  0.5420E+01
   -1.050002   31.12980  0.1157E-12  0.1648E-04  0.4589E-07  0.1772E-02  0.1402E-03  0.6123E+01
   -1.100004   31.13034  0.1157E-12  0.1645E-04  0.4598E-07  0.1866E-02  0.1324E-03  0.2014E+02
   -1.150005   31.13085  0.1157E-12  0.1639E-04  0.4623E-07  0.1676E-02  0.1255E-03  0.4737E+02
   -1.200007   31.13141  0.1157E-12  0.1632E-04  0.4662E-07  0.1707E-02  0.1183E-03  0.8940E+01
   -1.250008   31.13195  0.1157E-12  0.1621E-04  0.4720E-07  0.1676E-02  0.1114E-03  0.9554E+01
   -1.300010   31.13251  0.1157E-12  0.1607E-04  0.4801E-07  0.1623E-02  0.1047E-03  0.1121E+02
   -1.350011   31.13308  0.1157E-12  0.1590E-04  0.4912E-07  0.1562E-02  0.9823E-04  0.1353E+02
   -1.400012   31.13367  0.1157E-12  0.1569E-04  0.5062E-07  0.1481E-02  0.9193E-04  0.1686E+02
   -1.450012   31.13430  0.1157E-12  0.1544E-04  0.5268E-07  0.1402E-02  0.8572E-04  0.2178E+02
   -1.500013   31.13496  0.1157E-12  0.1513E-04  0.5555E-07  0.1286E-02  0.7962E-04  0.3020E+02
   -1.550013   31.13570  0.1157E-12  0.1474E-04  0.5965E-07  0.1204E-02  0.7346E-04  0.4436E+02
   -1.600013   31.13649  0.1157E-12  0.1427E-04  0.6604E-07  0.1057E-02  0.6742E-04  0.1350E+03
   -1.650013   31.13749  0.1157E-12  0.1364E-04  0.7604E-07  0.9773E-03  0.6085E-04  0.8666E+03
   -1.700012   31.13865  0.1157E-12  0.1278E-04  0.9385E-07  0.7952E-03  0.5434E-04 -0.1535E+04
   -1.750011   31.14070  0.1157E-12  0.1168E-04  0.1228E-06  0.7156E-03  0.4570E-04  0.5934E+05
   -1.800010   31.14231  0.1157E-12  0.1024E-04  0.1828E-06  0.5002E-03  0.3919E-04  0.9770E+05
   -1.850008   31.14954  0.1157E-12  0.8681E-05  0.2989E-06  0.4596E-03  0.2769E-04  0.1070E+10
   -1.900006   31.14762  0.1157E-12  0.6893E-05  0.6249E-06  0.2126E-03  0.2258E-04  0.2103E+06
   -1.950004   31.16894  0.1157E-12  0.4879E-05  0.1537E-05  0.1983E-03  0.1207E-04 -0.2536E+08
   -2.000001   31.17074  0.1157E-12  0.0000E+00  0.0000E+00  0.0000E+00  0.2283E-04  0.0000E+00
