 1 - depth, m
 2 - temperature, C
 3 - salinity, kg/kg
 4 - turbulent kinetic energy, m**2/s**2
 5 - dissipation rate, m**2/s**3
 6 - kinematic heat conductance, m**2/s
 7 - modulus of horizontal velocity, m/s
 8 - Richardson number, n/d
   -0.000000   30.18334  0.1353E-13  0.4525E-05  0.2740E-06  0.4875E-04  0.8785E-03  0.9158E+04
   -0.049997   30.21221  0.1353E-13  0.7912E-05  0.1216E-06  0.1758E-03  0.4969E-03  0.4507E+02
   -0.099994   30.22327  0.1353E-13  0.9606E-05  0.8396E-07  0.4019E-03  0.3619E-03  0.6358E+02
   -0.149992   30.22624  0.1353E-13  0.1066E-04  0.7083E-07  0.4792E-03  0.3200E-03  0.3097E+02
   -0.199991   30.22864  0.1353E-13  0.1148E-04  0.6309E-07  0.6393E-03  0.2859E-03  0.2011E+02
   -0.249989   30.23039  0.1353E-13  0.1214E-04  0.5801E-07  0.7631E-03  0.2603E-03  0.1489E+02
   -0.299989   30.23181  0.1353E-13  0.1267E-04  0.5439E-07  0.8862E-03  0.2389E-03  0.1191E+02
   -0.349988   30.23301  0.1353E-13  0.1312E-04  0.5168E-07  0.9977E-03  0.2206E-03  0.1019E+02
   -0.399988   30.23406  0.1353E-13  0.1350E-04  0.4957E-07  0.1100E-02  0.2044E-03  0.9111E+01
   -0.449988   30.23498  0.1353E-13  0.1383E-04  0.4786E-07  0.1194E-02  0.1902E-03  0.8543E+01
   -0.499988   30.23582  0.1353E-13  0.1411E-04  0.4645E-07  0.1282E-02  0.1776E-03  0.8336E+01
   -0.549989   30.23658  0.1353E-13  0.1436E-04  0.4527E-07  0.1361E-02  0.1663E-03  0.8210E+01
   -0.599990   30.23729  0.1353E-13  0.1457E-04  0.4429E-07  0.1433E-02  0.1560E-03  0.8242E+01
   -0.649991   30.23796  0.1353E-13  0.1476E-04  0.4346E-07  0.1498E-02  0.1467E-03  0.8326E+01
   -0.699992   30.23858  0.1353E-13  0.1491E-04  0.4277E-07  0.1556E-02  0.1382E-03  0.8547E+01
   -0.749993   30.23918  0.1353E-13  0.1505E-04  0.4219E-07  0.1606E-02  0.1303E-03  0.8806E+01
   -0.799995   30.23975  0.1353E-13  0.1516E-04  0.4173E-07  0.1648E-02  0.1229E-03  0.9212E+01
   -0.849996   30.24030  0.1353E-13  0.1525E-04  0.4136E-07  0.1683E-02  0.1160E-03  0.9660E+01
   -0.899998   30.24084  0.1353E-13  0.1532E-04  0.4109E-07  0.1710E-02  0.1096E-03  0.1029E+02
   -0.950000   30.24136  0.1353E-13  0.1537E-04  0.4091E-07  0.1729E-02  0.1035E-03  0.1098E+02
   -1.000001   30.24187  0.1353E-13  0.1539E-04  0.4082E-07  0.1740E-02  0.9775E-04  0.1190E+02
   -1.050003   30.24238  0.1353E-13  0.1540E-04  0.4083E-07  0.1741E-02  0.9230E-04  0.1345E+02
   -1.100005   30.24288  0.1353E-13  0.1539E-04  0.4095E-07  0.1824E-02  0.8710E-04  0.4500E+02
   -1.150006   30.24336  0.1353E-13  0.1535E-04  0.4119E-07  0.1664E-02  0.8246E-04  0.1006E+03
   -1.200008   30.24388  0.1353E-13  0.1530E-04  0.4155E-07  0.1686E-02  0.7766E-04  0.1941E+02
   -1.250010   30.24439  0.1353E-13  0.1522E-04  0.4208E-07  0.1656E-02  0.7306E-04  0.2079E+02
   -1.300011   30.24491  0.1353E-13  0.1511E-04  0.4280E-07  0.1608E-02  0.6864E-04  0.2423E+02
   -1.350012   30.24544  0.1353E-13  0.1497E-04  0.4376E-07  0.1551E-02  0.6435E-04  0.2907E+02
   -1.400013   30.24600  0.1353E-13  0.1480E-04  0.4504E-07  0.1475E-02  0.6017E-04  0.3573E+02
   -1.450014   30.24658  0.1353E-13  0.1458E-04  0.4677E-07  0.1400E-02  0.5607E-04  0.4551E+02
   -1.500015   30.24720  0.1353E-13  0.1432E-04  0.4914E-07  0.1289E-02  0.5206E-04  0.6139E+02
   -1.550015   30.24787  0.1353E-13  0.1400E-04  0.5246E-07  0.1209E-02  0.4802E-04  0.8669E+02
   -1.600015   30.24860  0.1353E-13  0.1359E-04  0.5750E-07  0.1061E-02  0.4408E-04  0.1594E+03
   -1.650015   30.24949  0.1353E-13  0.1308E-04  0.6516E-07  0.9914E-03  0.3984E-04  0.2537E+03
   -1.700014   30.25045  0.1353E-13  0.1237E-04  0.7908E-07  0.8018E-03  0.3582E-04 -0.1880E+05
   -1.750013   30.25223  0.1353E-13  0.1140E-04  0.1021E-06  0.7304E-03  0.3032E-04  0.2739E+06
   -1.800012   30.25371  0.1353E-13  0.1010E-04  0.1484E-06  0.5096E-03  0.2609E-04  0.2677E+05
   -1.850010   30.25955  0.1353E-13  0.8596E-05  0.2379E-06  0.4648E-03  0.1871E-04  0.6205E+08
   -1.900008   30.25872  0.1353E-13  0.6844E-05  0.4945E-06  0.2125E-03  0.1520E-04  0.9084E+05
   -1.950006   30.27734  0.1353E-13  0.4767E-05  0.1252E-05  0.1805E-03  0.8251E-05 -0.4794E+07
   -2.000003   30.27971  0.1353E-13  0.0000E+00  0.0000E+00  0.0000E+00  0.1477E-04  0.0000E+00
