 1 - depth, m
 2 - temperature, C
 3 - salinity, kg/kg
 4 - turbulent kinetic energy, m**2/s**2
 5 - dissipation rate, m**2/s**3
 6 - kinematic heat conductance, m**2/s
 7 - modulus of horizontal velocity, m/s
 8 - Richardson number, n/d
   -0.000000   30.34728  0.8454E-13  0.4633E-05  0.2799E-06  0.4902E-04  0.1355E-02  0.6087E+04
   -0.049997   30.37702  0.8454E-13  0.7967E-05  0.1250E-06  0.1749E-03  0.7680E-03  0.2593E+03
   -0.099994   30.38824  0.8454E-13  0.9648E-05  0.8632E-07  0.3916E-03  0.5636E-03  0.2583E+02
   -0.149992   30.39139  0.8454E-13  0.1070E-04  0.7252E-07  0.4726E-03  0.4973E-03  0.1257E+02
   -0.199991   30.39388  0.8454E-13  0.1152E-04  0.6440E-07  0.6295E-03  0.4439E-03  0.8079E+01
   -0.249989   30.39569  0.8454E-13  0.1217E-04  0.5906E-07  0.7526E-03  0.4037E-03  0.5957E+01
   -0.299988   30.39716  0.8454E-13  0.1269E-04  0.5524E-07  0.8744E-03  0.3704E-03  0.4735E+01
   -0.349988   30.39840  0.8454E-13  0.1313E-04  0.5237E-07  0.9851E-03  0.3417E-03  0.4046E+01
   -0.399988   30.39946  0.8454E-13  0.1349E-04  0.5013E-07  0.1086E-02  0.3165E-03  0.3601E+01
   -0.449988   30.40041  0.8454E-13  0.1381E-04  0.4830E-07  0.1180E-02  0.2942E-03  0.3380E+01
   -0.499988   30.40126  0.8454E-13  0.1408E-04  0.4678E-07  0.1267E-02  0.2745E-03  0.3285E+01
   -0.549989   30.40204  0.8454E-13  0.1431E-04  0.4551E-07  0.1346E-02  0.2569E-03  0.3240E+01
   -0.599990   30.40275  0.8454E-13  0.1451E-04  0.4443E-07  0.1417E-02  0.2410E-03  0.3238E+01
   -0.649991   30.40342  0.8454E-13  0.1469E-04  0.4352E-07  0.1482E-02  0.2265E-03  0.3277E+01
   -0.699992   30.40405  0.8454E-13  0.1483E-04  0.4274E-07  0.1539E-02  0.2132E-03  0.3347E+01
   -0.749993   30.40465  0.8454E-13  0.1495E-04  0.4209E-07  0.1589E-02  0.2009E-03  0.3455E+01
   -0.799995   30.40522  0.8454E-13  0.1505E-04  0.4154E-07  0.1631E-02  0.1894E-03  0.3596E+01
   -0.849996   30.40577  0.8454E-13  0.1512E-04  0.4109E-07  0.1666E-02  0.1788E-03  0.3778E+01
   -0.899998   30.40630  0.8454E-13  0.1518E-04  0.4074E-07  0.1693E-02  0.1687E-03  0.4001E+01
   -0.950000   30.40682  0.8454E-13  0.1521E-04  0.4048E-07  0.1712E-02  0.1593E-03  0.4278E+01
   -1.000001   30.40732  0.8454E-13  0.1523E-04  0.4031E-07  0.1724E-02  0.1504E-03  0.4612E+01
   -1.050003   30.40782  0.8454E-13  0.1522E-04  0.4024E-07  0.1726E-02  0.1420E-03  0.5220E+01
   -1.100005   30.40831  0.8454E-13  0.1519E-04  0.4027E-07  0.1807E-02  0.1339E-03  0.1738E+02
   -1.150006   30.40878  0.8454E-13  0.1515E-04  0.4043E-07  0.1651E-02  0.1267E-03  0.3879E+02
   -1.200008   30.40929  0.8454E-13  0.1508E-04  0.4070E-07  0.1673E-02  0.1193E-03  0.7486E+01
   -1.250009   30.40978  0.8454E-13  0.1498E-04  0.4113E-07  0.1644E-02  0.1122E-03  0.7966E+01
   -1.300011   30.41028  0.8454E-13  0.1486E-04  0.4174E-07  0.1597E-02  0.1054E-03  0.9279E+01
   -1.350012   30.41080  0.8454E-13  0.1472E-04  0.4258E-07  0.1540E-02  0.9875E-04  0.1107E+02
   -1.400013   30.41133  0.8454E-13  0.1453E-04  0.4373E-07  0.1467E-02  0.9231E-04  0.1358E+02
   -1.450014   30.41188  0.8454E-13  0.1431E-04  0.4530E-07  0.1392E-02  0.8600E-04  0.1720E+02
   -1.500014   30.41246  0.8454E-13  0.1405E-04  0.4748E-07  0.1283E-02  0.7982E-04  0.2306E+02
   -1.550015   30.41310  0.8454E-13  0.1372E-04  0.5055E-07  0.1202E-02  0.7363E-04  0.3232E+02
   -1.600015   30.41378  0.8454E-13  0.1332E-04  0.5521E-07  0.1057E-02  0.6757E-04  0.5663E+02
   -1.650015   30.41460  0.8454E-13  0.1280E-04  0.6237E-07  0.9841E-03  0.6112E-04  0.3056E+03
   -1.700014   30.41551  0.8454E-13  0.1210E-04  0.7537E-07  0.8004E-03  0.5491E-04 -0.4597E+04
   -1.750013   30.41712  0.8454E-13  0.1115E-04  0.9673E-07  0.7259E-03  0.4658E-04  0.1908E+05
   -1.800012   30.41847  0.8454E-13  0.9852E-05  0.1406E-06  0.5072E-03  0.4008E-04  0.5872E+06
   -1.850010   30.42374  0.8454E-13  0.8356E-05  0.2250E-06  0.4629E-03  0.2879E-04  0.1291E+08
   -1.900008   30.42320  0.8454E-13  0.6581E-05  0.4686E-06  0.2042E-03  0.2328E-04 -0.1868E+07
   -1.950006   30.44041  0.8454E-13  0.4579E-05  0.1186E-05  0.1810E-03  0.1247E-04 -0.6031E+06
   -2.000003   30.44264  0.8454E-13  0.0000E+00  0.0000E+00  0.0000E+00  0.2260E-04  0.0000E+00
