 1 - depth, m
 2 - temperature, C
 3 - salinity, kg/kg
 4 - turbulent kinetic energy, m**2/s**2
 5 - dissipation rate, m**2/s**3
 6 - kinematic heat conductance, m**2/s
 7 - modulus of horizontal velocity, m/s
 8 - Richardson number, n/d
   -0.000000   31.06494  0.4979E-14  0.5037E-05  0.3178E-06  0.5020E-04  0.6440E-03  0.1120E+04
   -0.049997   31.09905  0.4979E-14  0.8812E-05  0.1416E-06  0.1863E-03  0.3664E-03  0.1192E+03
   -0.099994   31.11081  0.4979E-14  0.1063E-04  0.9839E-07  0.4148E-03  0.2695E-03  0.1339E+03
   -0.149992   31.11424  0.4979E-14  0.1176E-04  0.8317E-07  0.4917E-03  0.2393E-03  0.6614E+02
   -0.199991   31.11700  0.4979E-14  0.1264E-04  0.7416E-07  0.6538E-03  0.2143E-03  0.4345E+02
   -0.249989   31.11902  0.4979E-14  0.1333E-04  0.6821E-07  0.7782E-03  0.1956E-03  0.3243E+02
   -0.299988   31.12067  0.4979E-14  0.1389E-04  0.6395E-07  0.9002E-03  0.1799E-03  0.2602E+02
   -0.349988   31.12206  0.4979E-14  0.1435E-04  0.6074E-07  0.1010E-02  0.1665E-03  0.2236E+02
   -0.399988   31.12326  0.4979E-14  0.1473E-04  0.5824E-07  0.1109E-02  0.1545E-03  0.2005E+02
   -0.449988   31.12434  0.4979E-14  0.1505E-04  0.5620E-07  0.1200E-02  0.1440E-03  0.1894E+02
   -0.499988   31.12531  0.4979E-14  0.1532E-04  0.5452E-07  0.1283E-02  0.1346E-03  0.1856E+02
   -0.549989   31.12620  0.4979E-14  0.1555E-04  0.5311E-07  0.1357E-02  0.1262E-03  0.1844E+02
   -0.599989   31.12703  0.4979E-14  0.1575E-04  0.5192E-07  0.1422E-02  0.1186E-03  0.1860E+02
   -0.649990   31.12780  0.4979E-14  0.1590E-04  0.5093E-07  0.1480E-02  0.1116E-03  0.1898E+02
   -0.699992   31.12854  0.4979E-14  0.1603E-04  0.5010E-07  0.1528E-02  0.1052E-03  0.1960E+02
   -0.749993   31.12924  0.4979E-14  0.1612E-04  0.4941E-07  0.1568E-02  0.9928E-04  0.2044E+02
   -0.799994   31.12991  0.4979E-14  0.1619E-04  0.4886E-07  0.1600E-02  0.9374E-04  0.2156E+02
   -0.849996   31.13056  0.4979E-14  0.1622E-04  0.4843E-07  0.1622E-02  0.8855E-04  0.2294E+02
   -0.899998   31.13120  0.4979E-14  0.1623E-04  0.4813E-07  0.1635E-02  0.8367E-04  0.2471E+02
   -0.949999   31.13182  0.4979E-14  0.1622E-04  0.4795E-07  0.1638E-02  0.7906E-04  0.2688E+02
   -1.000001   31.13244  0.4979E-14  0.1617E-04  0.4791E-07  0.1632E-02  0.7468E-04  0.2962E+02
   -1.050003   31.13305  0.4979E-14  0.1610E-04  0.4801E-07  0.1612E-02  0.7050E-04  0.3419E+02
   -1.100004   31.13366  0.4979E-14  0.1600E-04  0.4827E-07  0.1767E-02  0.6650E-04  0.1035E+03
   -1.150006   31.13421  0.4979E-14  0.1587E-04  0.4876E-07  0.1403E-02  0.6310E-04  0.3312E+03
   -1.200007   31.13491  0.4979E-14  0.1570E-04  0.4944E-07  0.1481E-02  0.5915E-04  0.5625E+02
   -1.250009   31.13556  0.4979E-14  0.1550E-04  0.5042E-07  0.1439E-02  0.5552E-04  0.6120E+02
   -1.300010   31.13623  0.4979E-14  0.1525E-04  0.5178E-07  0.1357E-02  0.5204E-04  0.7596E+02
   -1.350011   31.13693  0.4979E-14  0.1495E-04  0.5367E-07  0.1287E-02  0.4861E-04  0.9718E+02
   -1.400012   31.13768  0.4979E-14  0.1459E-04  0.5633E-07  0.1156E-02  0.4526E-04  0.1332E+03
   -1.450013   31.13851  0.4979E-14  0.1415E-04  0.6011E-07  0.1106E-02  0.4186E-04  0.1866E+03
   -1.500014   31.13941  0.4979E-14  0.1362E-04  0.6576E-07  0.9187E-03  0.3858E-04  0.3072E+03
   -1.550014   31.14054  0.4979E-14  0.1296E-04  0.7408E-07  0.9311E-03  0.3499E-04  0.5108E+03
   -1.600014   31.14168  0.4979E-14  0.1213E-04  0.8927E-07  0.7160E-03  0.3180E-04  0.1761E+04
   -1.650014   31.14363  0.4979E-14  0.1090E-04  0.1115E-06  0.7145E-03  0.2737E-04 -0.1038E+04
   -1.700013   31.14550  0.4979E-14  0.9230E-05  0.1540E-06  0.4548E-03  0.2365E-04 -0.3967E+04
   -1.750012   31.15181  0.4979E-14  0.7350E-05  0.2239E-06  0.4865E-03  0.1585E-04  0.1850E+06
   -1.800011   31.15180  0.4979E-14  0.5872E-05  0.3695E-06  0.2692E-03  0.1400E-04 -0.5806E+05
   -1.850010   31.17583  0.4979E-14  0.4622E-05  0.6794E-06  0.3365E-03  0.6376E-05  0.1408E+09
   -1.900007   31.15614  0.4979E-14  0.3943E-05  0.1457E-05  0.1706E-03  0.6376E-05 -0.6902E+07
   -1.950005   31.19507  0.4979E-14  0.3074E-05  0.3178E-05  0.3031E-03  0.2538E-05  0.5495E+04
   -2.000002   31.19027  0.4979E-14  0.0000E+00  0.0000E+00  0.0000E+00  0.1001E-04  0.0000E+00
