 1 - depth, m
 2 - temperature, C
 3 - salinity, kg/kg
 4 - turbulent kinetic energy, m**2/s**2
 5 - dissipation rate, m**2/s**3
 6 - kinematic heat conductance, m**2/s
 7 - modulus of horizontal velocity, m/s
 8 - Richardson number, n/d
   -0.000000   30.64052  0.2077E-13  0.4772E-05  0.2997E-06  0.5064E-04  0.7407E-03  0.1233E+05
   -0.049997   30.67097  0.2077E-13  0.8339E-05  0.1329E-06  0.1772E-03  0.4242E-03  0.4003E+02
   -0.099994   30.68294  0.2077E-13  0.1013E-04  0.9133E-07  0.4133E-03  0.3069E-03  0.8480E+02
   -0.149992   30.68608  0.2077E-13  0.1124E-04  0.7703E-07  0.4863E-03  0.2720E-03  0.4141E+02
   -0.199991   30.68864  0.2077E-13  0.1210E-04  0.6857E-07  0.6514E-03  0.2431E-03  0.2687E+02
   -0.249989   30.69050  0.2077E-13  0.1278E-04  0.6301E-07  0.7769E-03  0.2215E-03  0.1996E+02
   -0.299988   30.69201  0.2077E-13  0.1334E-04  0.5904E-07  0.9023E-03  0.2035E-03  0.1594E+02
   -0.349988   30.69328  0.2077E-13  0.1380E-04  0.5605E-07  0.1016E-02  0.1880E-03  0.1366E+02
   -0.399988   30.69439  0.2077E-13  0.1419E-04  0.5372E-07  0.1119E-02  0.1744E-03  0.1219E+02
   -0.449988   30.69537  0.2077E-13  0.1452E-04  0.5183E-07  0.1215E-02  0.1623E-03  0.1146E+02
   -0.499988   30.69625  0.2077E-13  0.1481E-04  0.5026E-07  0.1303E-02  0.1517E-03  0.1114E+02
   -0.549989   30.69706  0.2077E-13  0.1506E-04  0.4895E-07  0.1384E-02  0.1421E-03  0.1101E+02
   -0.599989   30.69781  0.2077E-13  0.1528E-04  0.4785E-07  0.1457E-02  0.1335E-03  0.1101E+02
   -0.649990   30.69851  0.2077E-13  0.1546E-04  0.4691E-07  0.1522E-02  0.1256E-03  0.1116E+02
   -0.699992   30.69917  0.2077E-13  0.1561E-04  0.4612E-07  0.1579E-02  0.1183E-03  0.1141E+02
   -0.749993   30.69979  0.2077E-13  0.1574E-04  0.4546E-07  0.1629E-02  0.1116E-03  0.1179E+02
   -0.799995   30.70039  0.2077E-13  0.1585E-04  0.4492E-07  0.1671E-02  0.1054E-03  0.1229E+02
   -0.849996   30.70097  0.2077E-13  0.1593E-04  0.4448E-07  0.1706E-02  0.9953E-04  0.1294E+02
   -0.899998   30.70153  0.2077E-13  0.1599E-04  0.4415E-07  0.1732E-02  0.9406E-04  0.1372E+02
   -0.949999   30.70208  0.2077E-13  0.1602E-04  0.4392E-07  0.1750E-02  0.8889E-04  0.1471E+02
   -1.000001   30.70261  0.2077E-13  0.1604E-04  0.4379E-07  0.1759E-02  0.8401E-04  0.1589E+02
   -1.050003   30.70314  0.2077E-13  0.1603E-04  0.4376E-07  0.1759E-02  0.7936E-04  0.1803E+02
   -1.100005   30.70366  0.2077E-13  0.1600E-04  0.4385E-07  0.1851E-02  0.7494E-04  0.5931E+02
   -1.150006   30.70416  0.2077E-13  0.1595E-04  0.4408E-07  0.1666E-02  0.7100E-04  0.1382E+03
   -1.200008   30.70470  0.2077E-13  0.1587E-04  0.4444E-07  0.1696E-02  0.6687E-04  0.2630E+02
   -1.250009   30.70524  0.2077E-13  0.1577E-04  0.4499E-07  0.1665E-02  0.6294E-04  0.2803E+02
   -1.300011   30.70578  0.2077E-13  0.1564E-04  0.4575E-07  0.1613E-02  0.5916E-04  0.3297E+02
   -1.350012   30.70633  0.2077E-13  0.1547E-04  0.4678E-07  0.1553E-02  0.5548E-04  0.3965E+02
   -1.400013   30.70691  0.2077E-13  0.1527E-04  0.4819E-07  0.1473E-02  0.5190E-04  0.4941E+02
   -1.450014   30.70751  0.2077E-13  0.1502E-04  0.5011E-07  0.1395E-02  0.4838E-04  0.6354E+02
   -1.500014   30.70816  0.2077E-13  0.1472E-04  0.5279E-07  0.1281E-02  0.4492E-04  0.8783E+02
   -1.550015   30.70887  0.2077E-13  0.1435E-04  0.5662E-07  0.1199E-02  0.4142E-04  0.1279E+03
   -1.600015   30.70963  0.2077E-13  0.1389E-04  0.6258E-07  0.1055E-02  0.3801E-04  0.2693E+03
   -1.650014   30.71059  0.2077E-13  0.1329E-04  0.7192E-07  0.9752E-03  0.3429E-04  0.1028E+06
   -1.700014   30.71168  0.2077E-13  0.1246E-04  0.8854E-07  0.7935E-03  0.3062E-04 -0.6674E+04
   -1.750013   30.71367  0.2077E-13  0.1139E-04  0.1155E-06  0.7165E-03  0.2571E-04  0.1158E+07
   -1.800012   30.71515  0.2077E-13  0.9996E-05  0.1727E-06  0.4943E-03  0.2208E-04  0.2293E+06
   -1.850010   30.72210  0.2077E-13  0.8476E-05  0.2821E-06  0.4588E-03  0.1556E-04  0.5233E+08
   -1.900008   30.72018  0.2077E-13  0.6769E-05  0.5934E-06  0.2181E-03  0.1273E-04 -0.6976E+06
   -1.950005   30.74013  0.2077E-13  0.4744E-05  0.1463E-05  0.1928E-03  0.6860E-05 -0.3112E+07
   -2.000002   30.74223  0.2077E-13  0.0000E+00  0.0000E+00  0.0000E+00  0.1296E-04  0.0000E+00
