 1 - depth, m
 2 - temperature, C
 3 - salinity, kg/kg
 4 - turbulent kinetic energy, m**2/s**2
 5 - dissipation rate, m**2/s**3
 6 - kinematic heat conductance, m**2/s
 7 - modulus of horizontal velocity, m/s
 8 - Richardson number, n/d
   -0.000000   30.30509  0.4918E-14  0.4865E-05  0.3032E-06  0.4887E-04  0.1000E-02  0.2157E+04
   -0.049997   30.33742  0.4918E-14  0.8455E-05  0.1346E-06  0.1869E-03  0.5584E-03  0.7313E+02
   -0.099994   30.34886  0.4918E-14  0.1023E-04  0.9350E-07  0.4051E-03  0.4140E-03  0.4938E+02
   -0.149992   30.35214  0.4918E-14  0.1135E-04  0.7868E-07  0.4908E-03  0.3661E-03  0.2435E+02
   -0.199991   30.35474  0.4918E-14  0.1223E-04  0.6998E-07  0.6531E-03  0.3274E-03  0.1570E+02
   -0.249989   30.35663  0.4918E-14  0.1292E-04  0.6428E-07  0.7789E-03  0.2984E-03  0.1163E+02
   -0.299988   30.35818  0.4918E-14  0.1349E-04  0.6022E-07  0.9051E-03  0.2743E-03  0.9282E+01
   -0.349988   30.35948  0.4918E-14  0.1396E-04  0.5717E-07  0.1019E-02  0.2535E-03  0.7938E+01
   -0.399988   30.36060  0.4918E-14  0.1435E-04  0.5480E-07  0.1123E-02  0.2352E-03  0.7095E+01
   -0.449988   30.36161  0.4918E-14  0.1470E-04  0.5288E-07  0.1219E-02  0.2190E-03  0.6652E+01
   -0.499988   30.36251  0.4918E-14  0.1499E-04  0.5129E-07  0.1308E-02  0.2047E-03  0.6489E+01
   -0.549989   30.36334  0.4918E-14  0.1524E-04  0.4997E-07  0.1388E-02  0.1919E-03  0.6390E+01
   -0.599990   30.36411  0.4918E-14  0.1546E-04  0.4885E-07  0.1462E-02  0.1802E-03  0.6413E+01
   -0.649991   30.36482  0.4918E-14  0.1565E-04  0.4792E-07  0.1527E-02  0.1696E-03  0.6481E+01
   -0.699992   30.36550  0.4918E-14  0.1581E-04  0.4713E-07  0.1584E-02  0.1599E-03  0.6651E+01
   -0.749993   30.36614  0.4918E-14  0.1594E-04  0.4647E-07  0.1634E-02  0.1509E-03  0.6858E+01
   -0.799995   30.36676  0.4918E-14  0.1605E-04  0.4593E-07  0.1676E-02  0.1425E-03  0.7174E+01
   -0.849996   30.36736  0.4918E-14  0.1613E-04  0.4551E-07  0.1710E-02  0.1346E-03  0.7532E+01
   -0.899998   30.36793  0.4918E-14  0.1619E-04  0.4519E-07  0.1735E-02  0.1273E-03  0.8023E+01
   -0.949999   30.36849  0.4918E-14  0.1623E-04  0.4497E-07  0.1752E-02  0.1203E-03  0.8577E+01
   -1.000001   30.36905  0.4918E-14  0.1625E-04  0.4486E-07  0.1761E-02  0.1137E-03  0.9311E+01
   -1.050003   30.36959  0.4918E-14  0.1624E-04  0.4486E-07  0.1760E-02  0.1075E-03  0.1054E+02
   -1.100005   30.37013  0.4918E-14  0.1621E-04  0.4498E-07  0.1857E-02  0.1015E-03  0.3469E+02
   -1.150006   30.37064  0.4918E-14  0.1615E-04  0.4525E-07  0.1658E-02  0.9622E-04  0.8189E+02
   -1.200008   30.37121  0.4918E-14  0.1607E-04  0.4565E-07  0.1692E-02  0.9063E-04  0.1546E+02
   -1.250009   30.37177  0.4918E-14  0.1597E-04  0.4625E-07  0.1660E-02  0.8531E-04  0.1657E+02
   -1.300011   30.37233  0.4918E-14  0.1583E-04  0.4708E-07  0.1606E-02  0.8020E-04  0.1947E+02
   -1.350012   30.37291  0.4918E-14  0.1566E-04  0.4820E-07  0.1544E-02  0.7522E-04  0.2357E+02
   -1.400013   30.37351  0.4918E-14  0.1544E-04  0.4972E-07  0.1461E-02  0.7038E-04  0.2939E+02
   -1.450014   30.37414  0.4918E-14  0.1519E-04  0.5180E-07  0.1383E-02  0.6559E-04  0.3808E+02
   -1.500014   30.37482  0.4918E-14  0.1487E-04  0.5472E-07  0.1264E-02  0.6090E-04  0.5285E+02
   -1.550015   30.37557  0.4918E-14  0.1448E-04  0.5888E-07  0.1185E-02  0.5613E-04  0.7776E+02
   -1.600015   30.37638  0.4918E-14  0.1399E-04  0.6542E-07  0.1036E-02  0.5149E-04  0.1673E+03
   -1.650014   30.37741  0.4918E-14  0.1336E-04  0.7567E-07  0.9626E-03  0.4636E-04  0.6468E+03
   -1.700014   30.37858  0.4918E-14  0.1247E-04  0.9405E-07  0.7725E-03  0.4134E-04 -0.4514E+04
   -1.750013   30.38080  0.4918E-14  0.1133E-04  0.1240E-06  0.7052E-03  0.3437E-04  0.2287E+06
   -1.800012   30.38236  0.4918E-14  0.9867E-05  0.1908E-06  0.4716E-03  0.2950E-04 -0.1241E+06
   -1.850010   30.39043  0.4918E-14  0.8320E-05  0.3126E-06  0.4571E-03  0.2021E-04  0.5375E+08
   -1.900008   30.38751  0.4918E-14  0.6661E-05  0.6498E-06  0.2077E-03  0.1679E-04  0.1373E+07
   -1.950005   30.40978  0.4918E-14  0.4701E-05  0.1593E-05  0.2033E-03  0.8817E-05 -0.1012E+07
   -2.000002   30.41062  0.4918E-14  0.0000E+00  0.0000E+00  0.0000E+00  0.1739E-04  0.0000E+00
