 1 - depth, m
 2 - temperature, C
 3 - salinity, kg/kg
 4 - turbulent kinetic energy, m**2/s**2
 5 - dissipation rate, m**2/s**3
 6 - kinematic heat conductance, m**2/s
 7 - modulus of horizontal velocity, m/s
 8 - Richardson number, n/d
   -0.000000   30.04579  0.5832E-13  0.4576E-05  0.2713E-06  0.4635E-04  0.9512E-03  0.3169E+03
   -0.049997   30.07691  0.5832E-13  0.7991E-05  0.1208E-06  0.1859E-03  0.5221E-03  0.1236E+03
   -0.099994   30.08714  0.5832E-13  0.9636E-05  0.8467E-07  0.3927E-03  0.3900E-03  0.5102E+02
   -0.149992   30.09025  0.5832E-13  0.1068E-04  0.7134E-07  0.4818E-03  0.3441E-03  0.2525E+02
   -0.199991   30.09267  0.5832E-13  0.1150E-04  0.6349E-07  0.6373E-03  0.3076E-03  0.1632E+02
   -0.249989   30.09445  0.5832E-13  0.1215E-04  0.5833E-07  0.7607E-03  0.2800E-03  0.1209E+02
   -0.299989   30.09590  0.5832E-13  0.1268E-04  0.5464E-07  0.8830E-03  0.2570E-03  0.9646E+01
   -0.349988   30.09711  0.5832E-13  0.1312E-04  0.5187E-07  0.9937E-03  0.2373E-03  0.8260E+01
   -0.399988   30.09817  0.5832E-13  0.1349E-04  0.4971E-07  0.1095E-02  0.2199E-03  0.7374E+01
   -0.449988   30.09911  0.5832E-13  0.1381E-04  0.4796E-07  0.1189E-02  0.2045E-03  0.6925E+01
   -0.499988   30.09995  0.5832E-13  0.1409E-04  0.4650E-07  0.1276E-02  0.1909E-03  0.6748E+01
   -0.549989   30.10073  0.5832E-13  0.1433E-04  0.4529E-07  0.1355E-02  0.1787E-03  0.6658E+01
   -0.599990   30.10145  0.5832E-13  0.1453E-04  0.4426E-07  0.1427E-02  0.1677E-03  0.6672E+01
   -0.649991   30.10212  0.5832E-13  0.1471E-04  0.4340E-07  0.1491E-02  0.1577E-03  0.6754E+01
   -0.699992   30.10275  0.5832E-13  0.1486E-04  0.4267E-07  0.1548E-02  0.1485E-03  0.6919E+01
   -0.749993   30.10335  0.5832E-13  0.1499E-04  0.4205E-07  0.1598E-02  0.1399E-03  0.7145E+01
   -0.799995   30.10392  0.5832E-13  0.1509E-04  0.4155E-07  0.1640E-02  0.1320E-03  0.7458E+01
   -0.849996   30.10447  0.5832E-13  0.1517E-04  0.4114E-07  0.1675E-02  0.1246E-03  0.7840E+01
   -0.899998   30.10501  0.5832E-13  0.1523E-04  0.4083E-07  0.1702E-02  0.1177E-03  0.8328E+01
   -0.950000   30.10553  0.5832E-13  0.1527E-04  0.4061E-07  0.1721E-02  0.1111E-03  0.8912E+01
   -1.000001   30.10604  0.5832E-13  0.1529E-04  0.4048E-07  0.1732E-02  0.1049E-03  0.9639E+01
   -1.050003   30.10654  0.5832E-13  0.1529E-04  0.4045E-07  0.1733E-02  0.9906E-04  0.1093E+02
   -1.100005   30.10704  0.5832E-13  0.1527E-04  0.4053E-07  0.1816E-02  0.9346E-04  0.3641E+02
   -1.150007   30.10752  0.5832E-13  0.1523E-04  0.4072E-07  0.1656E-02  0.8847E-04  0.8175E+02
   -1.200008   30.10803  0.5832E-13  0.1517E-04  0.4104E-07  0.1678E-02  0.8330E-04  0.1578E+02
   -1.250010   30.10854  0.5832E-13  0.1508E-04  0.4151E-07  0.1649E-02  0.7836E-04  0.1686E+02
   -1.300011   30.10905  0.5832E-13  0.1496E-04  0.4217E-07  0.1601E-02  0.7361E-04  0.1970E+02
   -1.350012   30.10958  0.5832E-13  0.1482E-04  0.4308E-07  0.1544E-02  0.6899E-04  0.2360E+02
   -1.400013   30.11012  0.5832E-13  0.1464E-04  0.4429E-07  0.1469E-02  0.6451E-04  0.2908E+02
   -1.450014   30.11070  0.5832E-13  0.1442E-04  0.4594E-07  0.1394E-02  0.6011E-04  0.3704E+02
   -1.500015   30.11130  0.5832E-13  0.1415E-04  0.4821E-07  0.1284E-02  0.5580E-04  0.5009E+02
   -1.550015   30.11196  0.5832E-13  0.1383E-04  0.5142E-07  0.1203E-02  0.5147E-04  0.7093E+02
   -1.600015   30.11267  0.5832E-13  0.1342E-04  0.5631E-07  0.1057E-02  0.4725E-04  0.1357E+03
   -1.650015   30.11353  0.5832E-13  0.1290E-04  0.6383E-07  0.9824E-03  0.4271E-04  0.6241E+04
   -1.700014   30.11449  0.5832E-13  0.1219E-04  0.7738E-07  0.7988E-03  0.3834E-04  0.1229E+04
   -1.750013   30.11621  0.5832E-13  0.1123E-04  0.9961E-07  0.7241E-03  0.3250E-04  0.1384E+06
   -1.800012   30.11761  0.5832E-13  0.9935E-05  0.1445E-06  0.5049E-03  0.2797E-04  0.1218E+07
   -1.850011   30.12331  0.5832E-13  0.8422E-05  0.2324E-06  0.4595E-03  0.2010E-04  0.2492E+08
   -1.900008   30.12256  0.5832E-13  0.6648E-05  0.4883E-06  0.2066E-03  0.1624E-04  0.5483E+06
   -1.950006   30.14070  0.5832E-13  0.4624E-05  0.1231E-05  0.1814E-03  0.8728E-05 -0.1081E+08
   -2.000003   30.14277  0.5832E-13  0.0000E+00  0.0000E+00  0.0000E+00  0.1587E-04  0.0000E+00
