 1 - depth, m
 2 - temperature, C
 3 - salinity, kg/kg
 4 - turbulent kinetic energy, m**2/s**2
 5 - dissipation rate, m**2/s**3
 6 - kinematic heat conductance, m**2/s
 7 - modulus of horizontal velocity, m/s
 8 - Richardson number, n/d
   -0.000000   29.82952  0.6916E-14  0.4477E-05  0.2665E-06  0.4878E-04  0.1537E-02  0.5862E+04
   -0.049997   29.85747  0.6916E-14  0.7689E-05  0.1188E-06  0.1714E-03  0.8755E-03  0.3541E+04
   -0.099994   29.86829  0.6916E-14  0.9331E-05  0.8171E-07  0.3892E-03  0.6378E-03  0.1962E+02
   -0.149992   29.87127  0.6916E-14  0.1036E-04  0.6869E-07  0.4682E-03  0.5627E-03  0.9537E+01
   -0.199991   29.87366  0.6916E-14  0.1115E-04  0.6105E-07  0.6242E-03  0.5019E-03  0.6147E+01
   -0.249989   29.87539  0.6916E-14  0.1179E-04  0.5604E-07  0.7465E-03  0.4563E-03  0.4541E+01
   -0.299989   29.87681  0.6916E-14  0.1231E-04  0.5247E-07  0.8676E-03  0.4184E-03  0.3617E+01
   -0.349988   29.87800  0.6916E-14  0.1274E-04  0.4979E-07  0.9776E-03  0.3859E-03  0.3098E+01
   -0.399988   29.87903  0.6916E-14  0.1311E-04  0.4771E-07  0.1078E-02  0.3572E-03  0.2762E+01
   -0.449988   29.87994  0.6916E-14  0.1342E-04  0.4602E-07  0.1172E-02  0.3320E-03  0.2598E+01
   -0.499988   29.88077  0.6916E-14  0.1370E-04  0.4462E-07  0.1258E-02  0.3096E-03  0.2529E+01
   -0.549989   29.88153  0.6916E-14  0.1394E-04  0.4346E-07  0.1337E-02  0.2897E-03  0.2499E+01
   -0.599990   29.88222  0.6916E-14  0.1414E-04  0.4248E-07  0.1409E-02  0.2716E-03  0.2502E+01
   -0.649991   29.88288  0.6916E-14  0.1432E-04  0.4165E-07  0.1473E-02  0.2552E-03  0.2538E+01
   -0.699992   29.88349  0.6916E-14  0.1447E-04  0.4095E-07  0.1530E-02  0.2401E-03  0.2596E+01
   -0.749993   29.88408  0.6916E-14  0.1460E-04  0.4037E-07  0.1580E-02  0.2262E-03  0.2687E+01
   -0.799995   29.88464  0.6916E-14  0.1470E-04  0.3989E-07  0.1623E-02  0.2132E-03  0.2800E+01
   -0.849996   29.88518  0.6916E-14  0.1479E-04  0.3950E-07  0.1658E-02  0.2011E-03  0.2948E+01
   -0.899998   29.88570  0.6916E-14  0.1485E-04  0.3921E-07  0.1685E-02  0.1898E-03  0.3126E+01
   -0.950000   29.88621  0.6916E-14  0.1490E-04  0.3900E-07  0.1705E-02  0.1792E-03  0.3349E+01
   -1.000002   29.88671  0.6916E-14  0.1492E-04  0.3888E-07  0.1717E-02  0.1691E-03  0.3614E+01
   -1.050003   29.88720  0.6916E-14  0.1493E-04  0.3885E-07  0.1720E-02  0.1595E-03  0.4102E+01
   -1.100005   29.88769  0.6916E-14  0.1491E-04  0.3892E-07  0.1796E-02  0.1505E-03  0.1374E+02
   -1.150007   29.88815  0.6916E-14  0.1488E-04  0.3910E-07  0.1652E-02  0.1423E-03  0.3007E+02
   -1.200008   29.88866  0.6916E-14  0.1482E-04  0.3940E-07  0.1670E-02  0.1340E-03  0.5877E+01
   -1.250010   29.88915  0.6916E-14  0.1474E-04  0.3984E-07  0.1641E-02  0.1260E-03  0.6260E+01
   -1.300011   29.88965  0.6916E-14  0.1463E-04  0.4046E-07  0.1596E-02  0.1183E-03  0.7302E+01
   -1.350012   29.89016  0.6916E-14  0.1450E-04  0.4130E-07  0.1540E-02  0.1108E-03  0.8683E+01
   -1.400013   29.89069  0.6916E-14  0.1434E-04  0.4242E-07  0.1469E-02  0.1036E-03  0.1063E+02
   -1.450014   29.89124  0.6916E-14  0.1413E-04  0.4394E-07  0.1394E-02  0.9647E-04  0.1339E+02
   -1.500015   29.89182  0.6916E-14  0.1389E-04  0.4602E-07  0.1289E-02  0.8952E-04  0.1781E+02
   -1.550015   29.89246  0.6916E-14  0.1358E-04  0.4892E-07  0.1204E-02  0.8258E-04  0.2473E+02
   -1.600015   29.89314  0.6916E-14  0.1321E-04  0.5323E-07  0.1064E-02  0.7577E-04  0.4040E+02
   -1.650015   29.89394  0.6916E-14  0.1273E-04  0.5980E-07  0.9861E-03  0.6863E-04  0.1344E+03
   -1.700015   29.89484  0.6916E-14  0.1208E-04  0.7163E-07  0.8084E-03  0.6171E-04  0.6364E+04
   -1.750014   29.89633  0.6916E-14  0.1119E-04  0.9139E-07  0.7284E-03  0.5278E-04  0.4086E+05
   -1.800013   29.89781  0.6916E-14  0.9930E-05  0.1324E-06  0.5155E-03  0.4523E-04  0.3792E+05
   -1.850011   29.90255  0.6916E-14  0.8445E-05  0.2076E-06  0.4634E-03  0.3293E-04  0.1054E+07
   -1.900009   29.90248  0.6916E-14  0.6642E-05  0.4261E-06  0.2058E-03  0.2648E-04  0.2797E+06
   -1.950006   29.91931  0.6916E-14  0.4592E-05  0.1103E-05  0.1733E-03  0.1423E-04 -0.7587E+06
   -2.000003   29.92152  0.6916E-14  0.0000E+00  0.0000E+00  0.0000E+00  0.2531E-04  0.0000E+00
