 1 - depth, m
 2 - temperature, C
 3 - salinity, kg/kg
 4 - turbulent kinetic energy, m**2/s**2
 5 - dissipation rate, m**2/s**3
 6 - kinematic heat conductance, m**2/s
 7 - modulus of horizontal velocity, m/s
 8 - Richardson number, n/d
   -0.000000   30.27996  0.3503E-13  0.4754E-05  0.2880E-06  0.4985E-04  0.1843E-02  0.9355E+04
   -0.049997   30.30936  0.3503E-13  0.8073E-05  0.1281E-06  0.1773E-03  0.1039E-02  0.3656E+04
   -0.099994   30.32033  0.3503E-13  0.9760E-05  0.8839E-07  0.3909E-03  0.7679E-03  0.1569E+02
   -0.149992   30.32350  0.3503E-13  0.1083E-04  0.7412E-07  0.4745E-03  0.6775E-03  0.7681E+01
   -0.199991   30.32600  0.3503E-13  0.1165E-04  0.6577E-07  0.6317E-03  0.6049E-03  0.4930E+01
   -0.249989   30.32782  0.3503E-13  0.1231E-04  0.6030E-07  0.7556E-03  0.5504E-03  0.3624E+01
   -0.299989   30.32930  0.3503E-13  0.1285E-04  0.5641E-07  0.8784E-03  0.5051E-03  0.2883E+01
   -0.349988   30.33054  0.3503E-13  0.1330E-04  0.5349E-07  0.9895E-03  0.4662E-03  0.2457E+01
   -0.399988   30.33162  0.3503E-13  0.1368E-04  0.5121E-07  0.1091E-02  0.4319E-03  0.2197E+01
   -0.449988   30.33257  0.3503E-13  0.1400E-04  0.4936E-07  0.1186E-02  0.4016E-03  0.2062E+01
   -0.499988   30.33344  0.3503E-13  0.1429E-04  0.4783E-07  0.1275E-02  0.3747E-03  0.2016E+01
   -0.549989   30.33423  0.3503E-13  0.1453E-04  0.4655E-07  0.1356E-02  0.3505E-03  0.1982E+01
   -0.599990   30.33495  0.3503E-13  0.1474E-04  0.4547E-07  0.1429E-02  0.3287E-03  0.1988E+01
   -0.649991   30.33563  0.3503E-13  0.1493E-04  0.4455E-07  0.1495E-02  0.3088E-03  0.2000E+01
   -0.699992   30.33627  0.3503E-13  0.1508E-04  0.4379E-07  0.1554E-02  0.2906E-03  0.2045E+01
   -0.749993   30.33688  0.3503E-13  0.1521E-04  0.4314E-07  0.1604E-02  0.2738E-03  0.2097E+01
   -0.799995   30.33746  0.3503E-13  0.1531E-04  0.4262E-07  0.1647E-02  0.2582E-03  0.2184E+01
   -0.849996   30.33802  0.3503E-13  0.1539E-04  0.4219E-07  0.1681E-02  0.2437E-03  0.2283E+01
   -0.899998   30.33856  0.3503E-13  0.1546E-04  0.4186E-07  0.1708E-02  0.2302E-03  0.2424E+01
   -0.950000   30.33909  0.3503E-13  0.1550E-04  0.4163E-07  0.1727E-02  0.2174E-03  0.2581E+01
   -1.000001   30.33961  0.3503E-13  0.1551E-04  0.4149E-07  0.1738E-02  0.2053E-03  0.2791E+01
   -1.050003   30.34012  0.3503E-13  0.1551E-04  0.4146E-07  0.1740E-02  0.1939E-03  0.3147E+01
   -1.100005   30.34062  0.3503E-13  0.1549E-04  0.4152E-07  0.1823E-02  0.1829E-03  0.1049E+02
   -1.150006   30.34110  0.3503E-13  0.1545E-04  0.4172E-07  0.1661E-02  0.1732E-03  0.2352E+02
   -1.200008   30.34163  0.3503E-13  0.1538E-04  0.4204E-07  0.1684E-02  0.1631E-03  0.4515E+01
   -1.250009   30.34214  0.3503E-13  0.1529E-04  0.4253E-07  0.1654E-02  0.1534E-03  0.4817E+01
   -1.300011   30.34266  0.3503E-13  0.1517E-04  0.4320E-07  0.1606E-02  0.1442E-03  0.5601E+01
   -1.350012   30.34319  0.3503E-13  0.1502E-04  0.4413E-07  0.1549E-02  0.1351E-03  0.6704E+01
   -1.400013   30.34374  0.3503E-13  0.1484E-04  0.4538E-07  0.1473E-02  0.1264E-03  0.8225E+01
   -1.450014   30.34432  0.3503E-13  0.1461E-04  0.4708E-07  0.1397E-02  0.1178E-03  0.1046E+02
   -1.500015   30.34493  0.3503E-13  0.1434E-04  0.4944E-07  0.1287E-02  0.1093E-03  0.1408E+02
   -1.550015   30.34560  0.3503E-13  0.1400E-04  0.5276E-07  0.1205E-02  0.1008E-03  0.1992E+02
   -1.600015   30.34632  0.3503E-13  0.1359E-04  0.5784E-07  0.1060E-02  0.9256E-04  0.3574E+02
   -1.650015   30.34719  0.3503E-13  0.1305E-04  0.6564E-07  0.9845E-03  0.8365E-04  0.1305E+05
   -1.700014   30.34816  0.3503E-13  0.1232E-04  0.7971E-07  0.8012E-03  0.7507E-04 -0.4871E+03
   -1.750013   30.34991  0.3503E-13  0.1133E-04  0.1029E-06  0.7258E-03  0.6357E-04  0.1072E+05
   -1.800012   30.35138  0.3503E-13  0.1001E-04  0.1521E-06  0.5083E-03  0.5460E-04  0.1385E+06
   -1.850010   30.35717  0.3503E-13  0.8497E-05  0.2439E-06  0.4625E-03  0.3916E-04  0.4808E+08
   -1.900008   30.35624  0.3503E-13  0.6705E-05  0.5127E-06  0.2078E-03  0.3175E-04 -0.1506E+07
   -1.950006   30.37460  0.3503E-13  0.4678E-05  0.1288E-05  0.1843E-03  0.1702E-04 -0.3576E+06
   -2.000003   30.37705  0.3503E-13  0.0000E+00  0.0000E+00  0.0000E+00  0.3117E-04  0.0000E+00
