 1 - depth, m
 2 - temperature, C
 3 - salinity, kg/kg
 4 - turbulent kinetic energy, m**2/s**2
 5 - dissipation rate, m**2/s**3
 6 - kinematic heat conductance, m**2/s
 7 - modulus of horizontal velocity, m/s
 8 - Richardson number, n/d
   -0.000000   31.13619  0.5786E-14  0.5410E-05  0.3619E-06  0.5394E-04  0.1605E-02  0.5188E+04
   -0.049997   31.16998  0.5786E-14  0.9190E-05  0.1613E-06  0.1834E-03  0.9295E-03  0.1846E+04
   -0.099994   31.18352  0.5786E-14  0.1118E-04  0.1103E-06  0.4162E-03  0.6806E-03  0.1985E+02
   -0.149992   31.18716  0.5786E-14  0.1242E-04  0.9227E-07  0.4959E-03  0.6027E-03  0.9778E+01
   -0.199990   31.19008  0.5786E-14  0.1338E-04  0.8177E-07  0.6679E-03  0.5389E-03  0.6230E+01
   -0.249989   31.19219  0.5786E-14  0.1415E-04  0.7494E-07  0.7976E-03  0.4915E-03  0.4592E+01
   -0.299988   31.19390  0.5786E-14  0.1477E-04  0.7009E-07  0.9292E-03  0.4521E-03  0.3652E+01
   -0.349987   31.19533  0.5786E-14  0.1529E-04  0.6647E-07  0.1047E-02  0.4183E-03  0.3114E+01
   -0.399987   31.19658  0.5786E-14  0.1572E-04  0.6366E-07  0.1155E-02  0.3885E-03  0.2777E+01
   -0.449987   31.19768  0.5786E-14  0.1609E-04  0.6138E-07  0.1255E-02  0.3622E-03  0.2598E+01
   -0.499987   31.19867  0.5786E-14  0.1641E-04  0.5951E-07  0.1347E-02  0.3389E-03  0.2530E+01
   -0.549988   31.19958  0.5786E-14  0.1668E-04  0.5794E-07  0.1430E-02  0.3181E-03  0.2489E+01
   -0.599989   31.20042  0.5786E-14  0.1692E-04  0.5663E-07  0.1505E-02  0.2992E-03  0.2495E+01
   -0.649990   31.20121  0.5786E-14  0.1712E-04  0.5553E-07  0.1572E-02  0.2820E-03  0.2520E+01
   -0.699991   31.20195  0.5786E-14  0.1729E-04  0.5461E-07  0.1631E-02  0.2661E-03  0.2585E+01
   -0.749992   31.20266  0.5786E-14  0.1742E-04  0.5384E-07  0.1681E-02  0.2514E-03  0.2665E+01
   -0.799994   31.20334  0.5786E-14  0.1753E-04  0.5322E-07  0.1723E-02  0.2377E-03  0.2789E+01
   -0.849995   31.20399  0.5786E-14  0.1762E-04  0.5273E-07  0.1756E-02  0.2249E-03  0.2929E+01
   -0.899997   31.20462  0.5786E-14  0.1767E-04  0.5237E-07  0.1781E-02  0.2128E-03  0.3124E+01
   -0.949998   31.20524  0.5786E-14  0.1771E-04  0.5213E-07  0.1796E-02  0.2015E-03  0.3345E+01
   -1.000000   31.20585  0.5786E-14  0.1771E-04  0.5202E-07  0.1802E-02  0.1907E-03  0.3640E+01
   -1.050002   31.20645  0.5786E-14  0.1769E-04  0.5205E-07  0.1797E-02  0.1804E-03  0.4128E+01
   -1.100003   31.20705  0.5786E-14  0.1765E-04  0.5223E-07  0.1913E-02  0.1706E-03  0.1330E+02
   -1.150005   31.20761  0.5786E-14  0.1757E-04  0.5260E-07  0.1664E-02  0.1620E-03  0.3379E+02
   -1.200006   31.20826  0.5786E-14  0.1747E-04  0.5314E-07  0.1712E-02  0.1526E-03  0.6203E+01
   -1.250008   31.20887  0.5786E-14  0.1734E-04  0.5393E-07  0.1679E-02  0.1438E-03  0.6660E+01
   -1.300009   31.20950  0.5786E-14  0.1716E-04  0.5501E-07  0.1617E-02  0.1353E-03  0.7919E+01
   -1.350010   31.21016  0.5786E-14  0.1695E-04  0.5650E-07  0.1551E-02  0.1270E-03  0.9708E+01
   -1.400011   31.21084  0.5786E-14  0.1669E-04  0.5852E-07  0.1456E-02  0.1189E-03  0.1240E+02
   -1.450012   31.21157  0.5786E-14  0.1637E-04  0.6132E-07  0.1379E-02  0.1109E-03  0.1641E+02
   -1.500012   31.21234  0.5786E-14  0.1598E-04  0.6531E-07  0.1247E-02  0.1030E-03  0.2391E+02
   -1.550013   31.21323  0.5786E-14  0.1550E-04  0.7108E-07  0.1179E-02  0.9488E-04  0.3785E+02
   -1.600013   31.21418  0.5786E-14  0.1489E-04  0.8059E-07  0.1018E-02  0.8703E-04  0.1064E+03
   -1.650012   31.21554  0.5786E-14  0.1408E-04  0.9529E-07  0.9486E-03  0.7781E-04  0.3514E+05
   -1.700012   31.21696  0.5786E-14  0.1296E-04  0.1218E-06  0.7545E-03  0.6908E-04  0.3598E+06
   -1.750011   31.22005  0.5786E-14  0.1160E-04  0.1648E-06  0.6870E-03  0.5616E-04  0.2665E+06
   -1.800010   31.22156  0.5786E-14  0.9972E-05  0.2581E-06  0.4565E-03  0.4836E-04  0.6190E+05
   -1.850008   31.23303  0.5786E-14  0.8387E-05  0.4360E-06  0.4490E-03  0.3192E-04  0.3038E+09
   -1.900006   31.22736  0.5786E-14  0.6729E-05  0.9081E-06  0.2108E-03  0.2694E-04 -0.1799E+06
   -1.950003   31.25564  0.5786E-14  0.4881E-05  0.2137E-05  0.2335E-03  0.1386E-04 -0.3716E+06
   -2.000000   31.25422  0.5786E-14  0.0000E+00  0.0000E+00  0.0000E+00  0.2953E-04  0.0000E+00
