 1 - depth, m
 2 - temperature, C
 3 - salinity, kg/kg
 4 - turbulent kinetic energy, m**2/s**2
 5 - dissipation rate, m**2/s**3
 6 - kinematic heat conductance, m**2/s
 7 - modulus of horizontal velocity, m/s
 8 - Richardson number, n/d
   -0.000000   31.66583  0.1393E-14  0.5242E-05  0.3483E-06  0.5337E-04  0.7594E-03  0.1896E+04
   -0.049997   31.69863  0.1393E-14  0.9117E-05  0.1543E-06  0.1844E-03  0.4382E-03  0.3002E+03
   -0.099994   31.71163  0.1393E-14  0.1109E-04  0.1057E-06  0.4290E-03  0.3179E-03  0.8319E+02
   -0.149992   31.71502  0.1393E-14  0.1230E-04  0.8899E-07  0.5019E-03  0.2822E-03  0.4098E+02
   -0.199990   31.71779  0.1393E-14  0.1326E-04  0.7913E-07  0.6766E-03  0.2525E-03  0.2647E+02
   -0.249989   31.71979  0.1393E-14  0.1401E-04  0.7268E-07  0.8066E-03  0.2304E-03  0.1966E+02
   -0.299988   31.72142  0.1393E-14  0.1463E-04  0.6809E-07  0.9381E-03  0.2120E-03  0.1569E+02
   -0.349988   31.72279  0.1393E-14  0.1514E-04  0.6465E-07  0.1057E-02  0.1962E-03  0.1343E+02
   -0.399987   31.72397  0.1393E-14  0.1557E-04  0.6198E-07  0.1165E-02  0.1823E-03  0.1198E+02
   -0.449987   31.72503  0.1393E-14  0.1594E-04  0.5981E-07  0.1265E-02  0.1700E-03  0.1123E+02
   -0.499988   31.72598  0.1393E-14  0.1626E-04  0.5802E-07  0.1357E-02  0.1591E-03  0.1092E+02
   -0.549988   31.72685  0.1393E-14  0.1653E-04  0.5653E-07  0.1440E-02  0.1493E-03  0.1075E+02
   -0.599989   31.72765  0.1393E-14  0.1677E-04  0.5528E-07  0.1516E-02  0.1405E-03  0.1076E+02
   -0.649990   31.72841  0.1393E-14  0.1697E-04  0.5423E-07  0.1583E-02  0.1324E-03  0.1087E+02
   -0.699991   31.72912  0.1393E-14  0.1714E-04  0.5336E-07  0.1643E-02  0.1250E-03  0.1113E+02
   -0.749992   31.72979  0.1393E-14  0.1729E-04  0.5263E-07  0.1694E-02  0.1181E-03  0.1148E+02
   -0.799994   31.73044  0.1393E-14  0.1740E-04  0.5204E-07  0.1736E-02  0.1116E-03  0.1198E+02
   -0.849995   31.73107  0.1393E-14  0.1749E-04  0.5158E-07  0.1771E-02  0.1056E-03  0.1259E+02
   -0.899997   31.73167  0.1393E-14  0.1756E-04  0.5124E-07  0.1797E-02  0.9997E-04  0.1338E+02
   -0.949998   31.73227  0.1393E-14  0.1760E-04  0.5102E-07  0.1813E-02  0.9463E-04  0.1432E+02
   -1.000000   31.73285  0.1393E-14  0.1762E-04  0.5093E-07  0.1821E-02  0.8957E-04  0.1552E+02
   -1.050002   31.73342  0.1393E-14  0.1761E-04  0.5096E-07  0.1818E-02  0.8476E-04  0.1758E+02
   -1.100003   31.73400  0.1393E-14  0.1757E-04  0.5114E-07  0.1927E-02  0.8015E-04  0.5719E+02
   -1.150005   31.73453  0.1393E-14  0.1751E-04  0.5149E-07  0.1700E-02  0.7609E-04  0.1391E+03
   -1.200007   31.73514  0.1393E-14  0.1743E-04  0.5200E-07  0.1742E-02  0.7174E-04  0.2596E+02
   -1.250008   31.73573  0.1393E-14  0.1731E-04  0.5275E-07  0.1709E-02  0.6762E-04  0.2782E+02
   -1.300009   31.73633  0.1393E-14  0.1715E-04  0.5377E-07  0.1651E-02  0.6366E-04  0.3282E+02
   -1.350010   31.73695  0.1393E-14  0.1696E-04  0.5515E-07  0.1586E-02  0.5979E-04  0.3994E+02
   -1.400011   31.73760  0.1393E-14  0.1673E-04  0.5702E-07  0.1498E-02  0.5601E-04  0.5024E+02
   -1.450012   31.73828  0.1393E-14  0.1644E-04  0.5958E-07  0.1417E-02  0.5227E-04  0.6585E+02
   -1.500013   31.73902  0.1393E-14  0.1608E-04  0.6318E-07  0.1296E-02  0.4859E-04  0.9330E+02
   -1.550013   31.73983  0.1393E-14  0.1565E-04  0.6835E-07  0.1215E-02  0.4485E-04  0.1442E+03
   -1.600013   31.74072  0.1393E-14  0.1509E-04  0.7664E-07  0.1063E-02  0.4118E-04  0.3903E+03
   -1.650013   31.74191  0.1393E-14  0.1436E-04  0.8957E-07  0.9822E-03  0.3704E-04  0.3249E+04
   -1.700012   31.74325  0.1393E-14  0.1336E-04  0.1121E-06  0.7963E-03  0.3296E-04  0.3428E+05
   -1.750011   31.74574  0.1393E-14  0.1213E-04  0.1486E-06  0.7200E-03  0.2748E-04  0.1255E+07
   -1.800010   31.74733  0.1393E-14  0.1058E-04  0.2280E-06  0.4947E-03  0.2364E-04  0.9805E+06
   -1.850008   31.75651  0.1393E-14  0.8956E-05  0.3791E-06  0.4671E-03  0.1638E-04  0.1095E+10
   -1.900006   31.75311  0.1393E-14  0.7127E-05  0.8078E-06  0.2181E-03  0.1350E-04 -0.6198E+08
   -1.950003   31.77789  0.1393E-14  0.5103E-05  0.1924E-05  0.2182E-03  0.7151E-05 -0.3878E+07
   -2.000000   31.77869  0.1393E-14  0.0000E+00  0.0000E+00  0.0000E+00  0.1419E-04  0.0000E+00
