 1 - depth, m
 2 - temperature, C
 3 - salinity, kg/kg
 4 - turbulent kinetic energy, m**2/s**2
 5 - dissipation rate, m**2/s**3
 6 - kinematic heat conductance, m**2/s
 7 - modulus of horizontal velocity, m/s
 8 - Richardson number, n/d
   -0.000000   30.31439  0.2501E-14  0.4770E-05  0.2953E-06  0.5029E-04  0.1421E-02  0.1611E+05
   -0.049997   30.34446  0.2501E-14  0.8191E-05  0.1317E-06  0.1766E-03  0.8101E-03  0.2028E+04
   -0.099994   30.35608  0.2501E-14  0.9944E-05  0.9070E-07  0.3980E-03  0.5930E-03  0.2331E+02
   -0.149992   30.35930  0.2501E-14  0.1104E-04  0.7613E-07  0.4787E-03  0.5236E-03  0.1141E+02
   -0.199991   30.36186  0.2501E-14  0.1190E-04  0.6760E-07  0.6401E-03  0.4674E-03  0.7322E+01
   -0.249989   30.36372  0.2501E-14  0.1258E-04  0.6202E-07  0.7654E-03  0.4254E-03  0.5406E+01
   -0.299988   30.36523  0.2501E-14  0.1313E-04  0.5804E-07  0.8903E-03  0.3905E-03  0.4298E+01
   -0.349988   30.36650  0.2501E-14  0.1359E-04  0.5505E-07  0.1003E-02  0.3606E-03  0.3678E+01
   -0.399988   30.36760  0.2501E-14  0.1398E-04  0.5273E-07  0.1107E-02  0.3341E-03  0.3274E+01
   -0.449988   30.36857  0.2501E-14  0.1431E-04  0.5085E-07  0.1203E-02  0.3109E-03  0.3076E+01
   -0.499988   30.36945  0.2501E-14  0.1460E-04  0.4929E-07  0.1291E-02  0.2903E-03  0.2989E+01
   -0.549989   30.37025  0.2501E-14  0.1485E-04  0.4798E-07  0.1372E-02  0.2719E-03  0.2951E+01
   -0.599990   30.37100  0.2501E-14  0.1506E-04  0.4688E-07  0.1446E-02  0.2552E-03  0.2948E+01
   -0.649991   30.37169  0.2501E-14  0.1525E-04  0.4595E-07  0.1512E-02  0.2400E-03  0.2988E+01
   -0.699992   30.37234  0.2501E-14  0.1540E-04  0.4517E-07  0.1570E-02  0.2261E-03  0.3050E+01
   -0.749993   30.37297  0.2501E-14  0.1553E-04  0.4451E-07  0.1621E-02  0.2132E-03  0.3155E+01
   -0.799995   30.37356  0.2501E-14  0.1564E-04  0.4397E-07  0.1664E-02  0.2012E-03  0.3280E+01
   -0.849996   30.37413  0.2501E-14  0.1573E-04  0.4353E-07  0.1699E-02  0.1900E-03  0.3453E+01
   -0.899998   30.37469  0.2501E-14  0.1579E-04  0.4319E-07  0.1727E-02  0.1795E-03  0.3653E+01
   -0.950000   30.37523  0.2501E-14  0.1583E-04  0.4294E-07  0.1746E-02  0.1695E-03  0.3915E+01
   -1.000001   30.37575  0.2501E-14  0.1585E-04  0.4280E-07  0.1757E-02  0.1602E-03  0.4216E+01
   -1.050003   30.37627  0.2501E-14  0.1585E-04  0.4276E-07  0.1759E-02  0.1513E-03  0.4782E+01
   -1.100005   30.37679  0.2501E-14  0.1582E-04  0.4283E-07  0.1844E-02  0.1428E-03  0.1586E+02
   -1.150006   30.37728  0.2501E-14  0.1578E-04  0.4303E-07  0.1679E-02  0.1352E-03  0.3566E+02
   -1.200008   30.37781  0.2501E-14  0.1571E-04  0.4335E-07  0.1703E-02  0.1274E-03  0.6882E+01
   -1.250009   30.37834  0.2501E-14  0.1561E-04  0.4384E-07  0.1674E-02  0.1199E-03  0.7318E+01
   -1.300011   30.37887  0.2501E-14  0.1549E-04  0.4454E-07  0.1625E-02  0.1127E-03  0.8563E+01
   -1.350012   30.37941  0.2501E-14  0.1534E-04  0.4549E-07  0.1567E-02  0.1057E-03  0.1022E+02
   -1.400013   30.37997  0.2501E-14  0.1515E-04  0.4677E-07  0.1491E-02  0.9888E-04  0.1262E+02
   -1.450014   30.38056  0.2501E-14  0.1492E-04  0.4852E-07  0.1416E-02  0.9220E-04  0.1601E+02
   -1.500014   30.38118  0.2501E-14  0.1464E-04  0.5094E-07  0.1304E-02  0.8563E-04  0.2176E+02
   -1.550015   30.38186  0.2501E-14  0.1430E-04  0.5436E-07  0.1224E-02  0.7904E-04  0.3077E+02
   -1.600015   30.38258  0.2501E-14  0.1387E-04  0.5963E-07  0.1077E-02  0.7261E-04  0.6149E+02
   -1.650015   30.38348  0.2501E-14  0.1333E-04  0.6775E-07  0.1003E-02  0.6565E-04  0.2230E+03
   -1.700014   30.38446  0.2501E-14  0.1258E-04  0.8229E-07  0.8134E-03  0.5896E-04  0.1810E+05
   -1.750013   30.38625  0.2501E-14  0.1158E-04  0.1061E-06  0.7422E-03  0.4996E-04  0.3197E+05
   -1.800012   30.38767  0.2501E-14  0.1025E-04  0.1559E-06  0.5151E-03  0.4307E-04  0.6299E+04
   -1.850010   30.39354  0.2501E-14  0.8746E-05  0.2500E-06  0.4762E-03  0.3103E-04  0.3449E+08
   -1.900008   30.39252  0.2501E-14  0.6973E-05  0.5180E-06  0.2210E-03  0.2533E-04  0.1029E+06
   -1.950006   30.41073  0.2501E-14  0.4843E-05  0.1311E-05  0.1839E-03  0.1384E-04 -0.5993E+06
   -2.000003   30.41336  0.2501E-14  0.0000E+00  0.0000E+00  0.0000E+00  0.2480E-04  0.0000E+00
