 1 - depth, m
 2 - temperature, C
 3 - salinity, kg/kg
 4 - turbulent kinetic energy, m**2/s**2
 5 - dissipation rate, m**2/s**3
 6 - kinematic heat conductance, m**2/s
 7 - modulus of horizontal velocity, m/s
 8 - Richardson number, n/d
   -0.000000   29.33905  0.2178E-13  0.5119E-05  0.2766E-06  0.5007E-04  0.3540E-02  0.5529E+03
   -0.049997   29.36840  0.2178E-13  0.8211E-05  0.1199E-06  0.1988E-03  0.1898E-02  0.1036E+04
   -0.099994   29.37705  0.2178E-13  0.9623E-05  0.8560E-07  0.3742E-03  0.1498E-02  0.4302E+01
   -0.149992   29.38028  0.2178E-13  0.1056E-04  0.7227E-07  0.4699E-03  0.1335E-02  0.2234E+01
   -0.199991   29.38275  0.2178E-13  0.1130E-04  0.6446E-07  0.5980E-03  0.1208E-02  0.1522E+01
   -0.249990   29.38463  0.2178E-13  0.1191E-04  0.5927E-07  0.7016E-03  0.1109E-02  0.1280E+01
   -0.299989   29.38619  0.2178E-13  0.1245E-04  0.5537E-07  0.8115E-03  0.1022E-02  0.1299E+01
   -0.349988   29.38750  0.2178E-13  0.1295E-04  0.5217E-07  0.9379E-03  0.9376E-03  0.1382E+01
   -0.399988   29.38860  0.2178E-13  0.1341E-04  0.4950E-07  0.1070E-02  0.8557E-03  0.1406E+01
   -0.449988   29.38955  0.2178E-13  0.1382E-04  0.4727E-07  0.1199E-02  0.7799E-03  0.1412E+01
   -0.499988   29.39038  0.2178E-13  0.1418E-04  0.4540E-07  0.1320E-02  0.7119E-03  0.1414E+01
   -0.549989   29.39112  0.2178E-13  0.1449E-04  0.4386E-07  0.1430E-02  0.6512E-03  0.1405E+01
   -0.599990   29.39179  0.2178E-13  0.1475E-04  0.4257E-07  0.1529E-02  0.5969E-03  0.1393E+01
   -0.649991   29.39241  0.2178E-13  0.1496E-04  0.4151E-07  0.1616E-02  0.5484E-03  0.1375E+01
   -0.699992   29.39298  0.2178E-13  0.1512E-04  0.4064E-07  0.1689E-02  0.5049E-03  0.1354E+01
   -0.749994   29.39352  0.2178E-13  0.1525E-04  0.3994E-07  0.1748E-02  0.4661E-03  0.1329E+01
   -0.799995   29.39403  0.2178E-13  0.1533E-04  0.3938E-07  0.1793E-02  0.4313E-03  0.1300E+01
   -0.849997   29.39452  0.2178E-13  0.1539E-04  0.3896E-07  0.1825E-02  0.4001E-03  0.1269E+01
   -0.899998   29.39500  0.2178E-13  0.1541E-04  0.3866E-07  0.1843E-02  0.3721E-03  0.1235E+01
   -0.950000   29.39547  0.2178E-13  0.1541E-04  0.3847E-07  0.1850E-02  0.3471E-03  0.1198E+01
   -1.000002   29.39593  0.2178E-13  0.1538E-04  0.3839E-07  0.1846E-02  0.3247E-03  0.1160E+01
   -1.050004   29.39638  0.2178E-13  0.1533E-04  0.3841E-07  0.1829E-02  0.3046E-03  0.1149E+01
   -1.100005   29.39683  0.2178E-13  0.1527E-04  0.3852E-07  0.1967E-02  0.2867E-03  0.3177E+01
   -1.150007   29.39725  0.2178E-13  0.1518E-04  0.3875E-07  0.1670E-02  0.2724E-03  0.7973E+01
   -1.200009   29.39774  0.2178E-13  0.1508E-04  0.3909E-07  0.1739E-02  0.2566E-03  0.1454E+01
   -1.250010   29.39820  0.2178E-13  0.1494E-04  0.3958E-07  0.1704E-02  0.2418E-03  0.1539E+01
   -1.300011   29.39866  0.2178E-13  0.1478E-04  0.4027E-07  0.1644E-02  0.2276E-03  0.1807E+01
   -1.350013   29.39914  0.2178E-13  0.1459E-04  0.4121E-07  0.1576E-02  0.2137E-03  0.2178E+01
   -1.400014   29.39964  0.2178E-13  0.1437E-04  0.4248E-07  0.1486E-02  0.2002E-03  0.2717E+01
   -1.450015   29.40016  0.2178E-13  0.1410E-04  0.4423E-07  0.1405E-02  0.1867E-03  0.3500E+01
   -1.500015   29.40071  0.2178E-13  0.1378E-04  0.4668E-07  0.1278E-02  0.1735E-03  0.4861E+01
   -1.550016   29.40132  0.2178E-13  0.1340E-04  0.5017E-07  0.1200E-02  0.1601E-03  0.7049E+01
   -1.600016   29.40197  0.2178E-13  0.1293E-04  0.5572E-07  0.1042E-02  0.1471E-03  0.1576E+02
   -1.650015   29.40281  0.2178E-13  0.1232E-04  0.6444E-07  0.9725E-03  0.1325E-03  0.6314E+02
   -1.700015   29.40374  0.2178E-13  0.1149E-04  0.8005E-07  0.7756E-03  0.1184E-03  0.1079E+04
   -1.750014   29.40555  0.2178E-13  0.1040E-04  0.1054E-06  0.7075E-03  0.9854E-04  0.4115E+05
   -1.800013   29.40678  0.2178E-13  0.9015E-05  0.1604E-06  0.4824E-03  0.8460E-04  0.1791E+05
   -1.850011   29.41313  0.2178E-13  0.7507E-05  0.2628E-06  0.4502E-03  0.5816E-04  0.9827E+07
   -1.900009   29.41101  0.2178E-13  0.5873E-05  0.5535E-06  0.2054E-03  0.4766E-04 -0.3622E+06
   -1.950007   29.42846  0.2178E-13  0.4125E-05  0.1369E-05  0.1983E-03  0.2454E-04 -0.1024E+06
   -2.000004   29.42975  0.2178E-13  0.0000E+00  0.0000E+00  0.0000E+00  0.5023E-04  0.0000E+00
