 1 - depth, m
 2 - temperature, C
 3 - salinity, kg/kg
 4 - turbulent kinetic energy, m**2/s**2
 5 - dissipation rate, m**2/s**3
 6 - kinematic heat conductance, m**2/s
 7 - modulus of horizontal velocity, m/s
 8 - Richardson number, n/d
   -0.000000   30.11938  0.8526E-13  0.4387E-05  0.2566E-06  0.4723E-04  0.1244E-02  0.8441E+04
   -0.049997   30.14762  0.8527E-13  0.7599E-05  0.1143E-06  0.1740E-03  0.6994E-03  0.8253E+02
   -0.099994   30.15796  0.8527E-13  0.9197E-05  0.7924E-07  0.3869E-03  0.5128E-03  0.3013E+02
   -0.149992   30.16088  0.8527E-13  0.1020E-04  0.6673E-07  0.4684E-03  0.4525E-03  0.1466E+02
   -0.199991   30.16320  0.8527E-13  0.1098E-04  0.5936E-07  0.6217E-03  0.4038E-03  0.9471E+01
   -0.249989   30.16490  0.8527E-13  0.1160E-04  0.5451E-07  0.7429E-03  0.3672E-03  0.6987E+01
   -0.299989   30.16628  0.8527E-13  0.1210E-04  0.5104E-07  0.8625E-03  0.3367E-03  0.5570E+01
   -0.349988   30.16744  0.8527E-13  0.1252E-04  0.4843E-07  0.9712E-03  0.3105E-03  0.4759E+01
   -0.399988   30.16844  0.8527E-13  0.1288E-04  0.4640E-07  0.1071E-02  0.2874E-03  0.4248E+01
   -0.449988   30.16933  0.8527E-13  0.1318E-04  0.4475E-07  0.1163E-02  0.2671E-03  0.3983E+01
   -0.499988   30.17014  0.8527E-13  0.1345E-04  0.4338E-07  0.1248E-02  0.2491E-03  0.3883E+01
   -0.549989   30.17087  0.8527E-13  0.1368E-04  0.4224E-07  0.1326E-02  0.2330E-03  0.3825E+01
   -0.599990   30.17155  0.8527E-13  0.1388E-04  0.4128E-07  0.1397E-02  0.2184E-03  0.3836E+01
   -0.649991   30.17218  0.8527E-13  0.1405E-04  0.4046E-07  0.1461E-02  0.2052E-03  0.3876E+01
   -0.699992   30.17278  0.8527E-13  0.1420E-04  0.3977E-07  0.1517E-02  0.1930E-03  0.3974E+01
   -0.749993   30.17335  0.8527E-13  0.1432E-04  0.3920E-07  0.1567E-02  0.1818E-03  0.4097E+01
   -0.799995   30.17389  0.8527E-13  0.1442E-04  0.3872E-07  0.1609E-02  0.1713E-03  0.4279E+01
   -0.849996   30.17442  0.8527E-13  0.1450E-04  0.3834E-07  0.1644E-02  0.1616E-03  0.4488E+01
   -0.899998   30.17492  0.8527E-13  0.1456E-04  0.3804E-07  0.1671E-02  0.1524E-03  0.4770E+01
   -0.950000   30.17541  0.8527E-13  0.1461E-04  0.3783E-07  0.1691E-02  0.1439E-03  0.5091E+01
   -1.000001   30.17590  0.8527E-13  0.1463E-04  0.3771E-07  0.1703E-02  0.1357E-03  0.5507E+01
   -1.050003   30.17637  0.8527E-13  0.1463E-04  0.3767E-07  0.1706E-02  0.1280E-03  0.6229E+01
   -1.100005   30.17685  0.8527E-13  0.1462E-04  0.3773E-07  0.1780E-02  0.1207E-03  0.2095E+02
   -1.150006   30.17729  0.8527E-13  0.1459E-04  0.3790E-07  0.1642E-02  0.1142E-03  0.4576E+02
   -1.200008   30.17778  0.8527E-13  0.1453E-04  0.3817E-07  0.1658E-02  0.1074E-03  0.8911E+01
   -1.250010   30.17825  0.8527E-13  0.1445E-04  0.3860E-07  0.1630E-02  0.1010E-03  0.9515E+01
   -1.300011   30.17874  0.8527E-13  0.1435E-04  0.3918E-07  0.1586E-02  0.9480E-04  0.1106E+02
   -1.350012   30.17923  0.8527E-13  0.1422E-04  0.3999E-07  0.1531E-02  0.8880E-04  0.1319E+02
   -1.400013   30.17974  0.8527E-13  0.1406E-04  0.4106E-07  0.1461E-02  0.8297E-04  0.1610E+02
   -1.450014   30.18028  0.8527E-13  0.1387E-04  0.4251E-07  0.1387E-02  0.7727E-04  0.2034E+02
   -1.500015   30.18084  0.8527E-13  0.1363E-04  0.4449E-07  0.1284E-02  0.7168E-04  0.2699E+02
   -1.550015   30.18145  0.8527E-13  0.1333E-04  0.4727E-07  0.1199E-02  0.6611E-04  0.3761E+02
   -1.600015   30.18211  0.8527E-13  0.1297E-04  0.5136E-07  0.1061E-02  0.6064E-04  0.6093E+02
   -1.650015   30.18288  0.8527E-13  0.1251E-04  0.5760E-07  0.9833E-03  0.5493E-04  0.2182E+03
   -1.700014   30.18375  0.8527E-13  0.1189E-04  0.6885E-07  0.8064E-03  0.4938E-04  0.2913E+03
   -1.750013   30.18518  0.8527E-13  0.1102E-04  0.8769E-07  0.7268E-03  0.4229E-04  0.5024E+05
   -1.800012   30.18664  0.8527E-13  0.9817E-05  0.1254E-06  0.5144E-03  0.3619E-04  0.5580E+06
   -1.850010   30.19106  0.8527E-13  0.8365E-05  0.1967E-06  0.4600E-03  0.2656E-04  0.5284E+07
   -1.900008   30.19120  0.8527E-13  0.6606E-05  0.4065E-06  0.2086E-03  0.2124E-04  0.5319E+06
   -1.950006   30.20709  0.8527E-13  0.4557E-05  0.1049E-05  0.1682E-03  0.1156E-04 -0.4576E+06
   -2.000003   30.21010  0.8527E-13  0.0000E+00  0.0000E+00  0.0000E+00  0.2020E-04  0.0000E+00
