 1 - depth, m
 2 - temperature, C
 3 - salinity, kg/kg
 4 - turbulent kinetic energy, m**2/s**2
 5 - dissipation rate, m**2/s**3
 6 - kinematic heat conductance, m**2/s
 7 - modulus of horizontal velocity, m/s
 8 - Richardson number, n/d
   -0.000000   30.55086  0.1006E-12  0.4617E-05  0.2772E-06  0.4773E-04  0.6786E-03  0.4094E+05
   -0.049997   30.58190  0.1006E-12  0.8107E-05  0.1233E-06  0.1817E-03  0.3788E-03  0.8726E+02
   -0.099994   30.59254  0.1006E-12  0.9778E-05  0.8576E-07  0.4030E-03  0.2792E-03  0.1135E+03
   -0.149992   30.59562  0.1006E-12  0.1082E-04  0.7242E-07  0.4825E-03  0.2470E-03  0.5553E+02
   -0.199991   30.59808  0.1006E-12  0.1164E-04  0.6449E-07  0.6406E-03  0.2208E-03  0.3628E+02
   -0.249989   30.59987  0.1006E-12  0.1228E-04  0.5924E-07  0.7642E-03  0.2011E-03  0.2692E+02
   -0.299988   30.60133  0.1006E-12  0.1281E-04  0.5547E-07  0.8860E-03  0.1846E-03  0.2152E+02
   -0.349988   30.60255  0.1006E-12  0.1324E-04  0.5263E-07  0.9967E-03  0.1705E-03  0.1840E+02
   -0.399988   30.60361  0.1006E-12  0.1360E-04  0.5040E-07  0.1098E-02  0.1580E-03  0.1643E+02
   -0.449988   30.60455  0.1006E-12  0.1392E-04  0.4858E-07  0.1192E-02  0.1470E-03  0.1539E+02
   -0.499988   30.60540  0.1006E-12  0.1419E-04  0.4706E-07  0.1278E-02  0.1372E-03  0.1499E+02
   -0.549989   30.60617  0.1006E-12  0.1442E-04  0.4579E-07  0.1357E-02  0.1285E-03  0.1475E+02
   -0.599990   30.60689  0.1006E-12  0.1462E-04  0.4472E-07  0.1429E-02  0.1206E-03  0.1477E+02
   -0.649991   30.60755  0.1006E-12  0.1479E-04  0.4380E-07  0.1493E-02  0.1134E-03  0.1491E+02
   -0.699992   30.60818  0.1006E-12  0.1493E-04  0.4302E-07  0.1550E-02  0.1068E-03  0.1526E+02
   -0.749993   30.60877  0.1006E-12  0.1505E-04  0.4237E-07  0.1600E-02  0.1006E-03  0.1572E+02
   -0.799995   30.60934  0.1006E-12  0.1515E-04  0.4182E-07  0.1642E-02  0.9494E-04  0.1640E+02
   -0.849996   30.60989  0.1006E-12  0.1522E-04  0.4137E-07  0.1677E-02  0.8962E-04  0.1718E+02
   -0.899998   30.61042  0.1006E-12  0.1527E-04  0.4102E-07  0.1704E-02  0.8462E-04  0.1824E+02
   -0.949999   30.61093  0.1006E-12  0.1531E-04  0.4076E-07  0.1723E-02  0.7993E-04  0.1946E+02
   -1.000001   30.61143  0.1006E-12  0.1532E-04  0.4059E-07  0.1734E-02  0.7548E-04  0.2103E+02
   -1.050003   30.61193  0.1006E-12  0.1532E-04  0.4052E-07  0.1736E-02  0.7126E-04  0.2376E+02
   -1.100005   30.61242  0.1006E-12  0.1529E-04  0.4056E-07  0.1818E-02  0.6724E-04  0.7927E+02
   -1.150006   30.61288  0.1006E-12  0.1524E-04  0.4071E-07  0.1660E-02  0.6364E-04  0.1769E+03
   -1.200008   30.61338  0.1006E-12  0.1517E-04  0.4099E-07  0.1682E-02  0.5994E-04  0.3411E+02
   -1.250009   30.61388  0.1006E-12  0.1508E-04  0.4142E-07  0.1653E-02  0.5638E-04  0.3640E+02
   -1.300011   30.61438  0.1006E-12  0.1496E-04  0.4204E-07  0.1606E-02  0.5297E-04  0.4239E+02
   -1.350012   30.61489  0.1006E-12  0.1481E-04  0.4288E-07  0.1549E-02  0.4965E-04  0.5067E+02
   -1.400013   30.61542  0.1006E-12  0.1463E-04  0.4404E-07  0.1475E-02  0.4643E-04  0.6214E+02
   -1.450014   30.61597  0.1006E-12  0.1441E-04  0.4561E-07  0.1399E-02  0.4327E-04  0.7890E+02
   -1.500014   30.61655  0.1006E-12  0.1414E-04  0.4779E-07  0.1291E-02  0.4018E-04  0.1058E+03
   -1.550015   30.61719  0.1006E-12  0.1382E-04  0.5086E-07  0.1206E-02  0.3707E-04  0.1491E+03
   -1.600015   30.61787  0.1006E-12  0.1342E-04  0.5548E-07  0.1063E-02  0.3403E-04  0.2586E+03
   -1.650015   30.61869  0.1006E-12  0.1291E-04  0.6257E-07  0.9840E-03  0.3081E-04  0.8078E+03
   -1.700014   30.61960  0.1006E-12  0.1221E-04  0.7530E-07  0.8040E-03  0.2770E-04  0.9168E+04
   -1.750013   30.62116  0.1006E-12  0.1127E-04  0.9645E-07  0.7273E-03  0.2363E-04  0.1634E+06
   -1.800012   30.62256  0.1006E-12  0.9963E-05  0.1417E-06  0.5062E-03  0.2028E-04  0.7373E+05
   -1.850010   30.62782  0.1006E-12  0.8440E-05  0.2249E-06  0.4590E-03  0.1466E-04  0.1121E+08
   -1.900008   30.62729  0.1006E-12  0.6627E-05  0.4641E-06  0.2072E-03  0.1179E-04 -0.1214E+06
   -1.950005   30.64464  0.1006E-12  0.4603E-05  0.1184E-05  0.1792E-03  0.6293E-05 -0.3824E+07
   -2.000002   30.64681  0.1006E-12  0.0000E+00  0.0000E+00  0.0000E+00  0.1142E-04  0.0000E+00
