 1 - depth, m
 2 - temperature, C
 3 - salinity, kg/kg
 4 - turbulent kinetic energy, m**2/s**2
 5 - dissipation rate, m**2/s**3
 6 - kinematic heat conductance, m**2/s
 7 - modulus of horizontal velocity, m/s
 8 - Richardson number, n/d
   -0.000000   31.20269  0.3597E-14  0.5353E-05  0.3528E-06  0.5184E-04  0.9792E-03  0.6434E+04
   -0.049997   31.23802  0.3597E-14  0.9266E-05  0.1568E-06  0.1925E-03  0.5548E-03  0.7476E+05
   -0.099994   31.25059  0.3597E-14  0.1121E-04  0.1084E-06  0.4212E-03  0.4109E-03  0.7599E+02
   -0.149992   31.25418  0.3597E-14  0.1244E-04  0.9110E-07  0.5045E-03  0.3641E-03  0.3766E+02
   -0.199990   31.25705  0.3597E-14  0.1339E-04  0.8093E-07  0.6753E-03  0.3260E-03  0.2444E+02
   -0.249989   31.25913  0.3597E-14  0.1415E-04  0.7428E-07  0.8050E-03  0.2976E-03  0.1802E+02
   -0.299988   31.26082  0.3597E-14  0.1477E-04  0.6954E-07  0.9360E-03  0.2739E-03  0.1445E+02
   -0.349987   31.26224  0.3597E-14  0.1528E-04  0.6599E-07  0.1054E-02  0.2536E-03  0.1224E+02
   -0.399987   31.26347  0.3597E-14  0.1570E-04  0.6323E-07  0.1161E-02  0.2356E-03  0.1099E+02
   -0.449987   31.26457  0.3597E-14  0.1607E-04  0.6099E-07  0.1260E-02  0.2198E-03  0.1019E+02
   -0.499988   31.26555  0.3597E-14  0.1638E-04  0.5913E-07  0.1351E-02  0.2057E-03  0.1001E+02
   -0.549988   31.26646  0.3597E-14  0.1665E-04  0.5759E-07  0.1434E-02  0.1931E-03  0.9737E+01
   -0.599989   31.26729  0.3597E-14  0.1689E-04  0.5629E-07  0.1509E-02  0.1817E-03  0.9852E+01
   -0.649990   31.26807  0.3597E-14  0.1708E-04  0.5519E-07  0.1575E-02  0.1713E-03  0.9821E+01
   -0.699991   31.26881  0.3597E-14  0.1724E-04  0.5427E-07  0.1633E-02  0.1616E-03  0.1018E+02
   -0.749992   31.26951  0.3597E-14  0.1738E-04  0.5350E-07  0.1683E-02  0.1527E-03  0.1034E+02
   -0.799994   31.27018  0.3597E-14  0.1748E-04  0.5288E-07  0.1724E-02  0.1444E-03  0.1094E+02
   -0.849995   31.27083  0.3597E-14  0.1756E-04  0.5239E-07  0.1757E-02  0.1367E-03  0.1132E+02
   -0.899997   31.27146  0.3597E-14  0.1762E-04  0.5202E-07  0.1781E-02  0.1294E-03  0.1221E+02
   -0.949998   31.27208  0.3597E-14  0.1764E-04  0.5177E-07  0.1795E-02  0.1225E-03  0.1288E+02
   -1.000000   31.27268  0.3597E-14  0.1765E-04  0.5166E-07  0.1802E-02  0.1159E-03  0.1418E+02
   -1.050002   31.27328  0.3597E-14  0.1762E-04  0.5168E-07  0.1796E-02  0.1097E-03  0.1583E+02
   -1.100003   31.27387  0.3597E-14  0.1757E-04  0.5185E-07  0.1913E-02  0.1037E-03  0.5130E+02
   -1.150005   31.27442  0.3597E-14  0.1749E-04  0.5220E-07  0.1661E-02  0.9849E-04  0.1324E+03
   -1.200006   31.27506  0.3597E-14  0.1739E-04  0.5273E-07  0.1710E-02  0.9281E-04  0.2377E+02
   -1.250008   31.27568  0.3597E-14  0.1725E-04  0.5350E-07  0.1676E-02  0.8745E-04  0.2577E+02
   -1.300009   31.27630  0.3597E-14  0.1707E-04  0.5457E-07  0.1614E-02  0.8231E-04  0.3022E+02
   -1.350010   31.27695  0.3597E-14  0.1686E-04  0.5604E-07  0.1548E-02  0.7726E-04  0.3757E+02
   -1.400011   31.27762  0.3597E-14  0.1659E-04  0.5805E-07  0.1453E-02  0.7235E-04  0.4735E+02
   -1.450012   31.27834  0.3597E-14  0.1627E-04  0.6084E-07  0.1376E-02  0.6745E-04  0.6379E+02
   -1.500013   31.27912  0.3597E-14  0.1588E-04  0.6482E-07  0.1245E-02  0.6266E-04  0.9197E+02
   -1.550013   31.28000  0.3597E-14  0.1540E-04  0.7058E-07  0.1176E-02  0.5770E-04  0.1463E+03
   -1.600013   31.28094  0.3597E-14  0.1478E-04  0.8010E-07  0.1015E-02  0.5295E-04  0.2459E+03
   -1.650013   31.28230  0.3597E-14  0.1396E-04  0.9484E-07  0.9446E-03  0.4732E-04  0.2434E+06
   -1.700012   31.28373  0.3597E-14  0.1283E-04  0.1220E-06  0.7457E-03  0.4205E-04  0.2425E+06
   -1.750011   31.28688  0.3597E-14  0.1148E-04  0.1650E-06  0.6876E-03  0.3411E-04  0.4408E+06
   -1.800010   31.28826  0.3597E-14  0.9889E-05  0.2564E-06  0.4530E-03  0.2951E-04  0.7813E+06
   -1.850008   31.30005  0.3597E-14  0.8308E-05  0.4366E-06  0.4487E-03  0.1955E-04  0.1427E+09
   -1.900006   31.29404  0.3597E-14  0.6665E-05  0.9273E-06  0.2116E-03  0.1644E-04 -0.6504E+06
   -1.950003   31.32199  0.3597E-14  0.4826E-05  0.2157E-05  0.2334E-03  0.8510E-05 -0.1242E+07
   -2.000000   31.32027  0.3597E-14  0.0000E+00  0.0000E+00  0.0000E+00  0.1797E-04  0.0000E+00
