 1 - depth, m
 2 - temperature, C
 3 - salinity, kg/kg
 4 - turbulent kinetic energy, m**2/s**2
 5 - dissipation rate, m**2/s**3
 6 - kinematic heat conductance, m**2/s
 7 - modulus of horizontal velocity, m/s
 8 - Richardson number, n/d
   -0.000000   30.07743  0.1105E-12  0.4555E-05  0.2703E-06  0.4889E-04  0.1946E-02  0.6358E+04
   -0.049997   30.10566  0.1105E-12  0.7707E-05  0.1204E-06  0.1695E-03  0.1112E-02  0.3773E+04
   -0.099994   30.11655  0.1105E-12  0.9327E-05  0.8256E-07  0.3839E-03  0.8110E-03  0.1258E+02
   -0.149992   30.11959  0.1105E-12  0.1034E-04  0.6923E-07  0.4630E-03  0.7151E-03  0.6068E+01
   -0.199991   30.12201  0.1105E-12  0.1112E-04  0.6140E-07  0.6165E-03  0.6376E-03  0.3895E+01
   -0.249989   30.12377  0.1105E-12  0.1174E-04  0.5624E-07  0.7376E-03  0.5795E-03  0.2861E+01
   -0.299989   30.12519  0.1105E-12  0.1225E-04  0.5256E-07  0.8572E-03  0.5311E-03  0.2272E+01
   -0.349988   30.12639  0.1105E-12  0.1267E-04  0.4979E-07  0.9661E-03  0.4896E-03  0.1937E+01
   -0.399988   30.12742  0.1105E-12  0.1302E-04  0.4763E-07  0.1066E-02  0.4530E-03  0.1724E+01
   -0.449988   30.12834  0.1105E-12  0.1333E-04  0.4587E-07  0.1159E-02  0.4208E-03  0.1615E+01
   -0.499988   30.12916  0.1105E-12  0.1359E-04  0.4441E-07  0.1244E-02  0.3923E-03  0.1572E+01
   -0.549989   30.12991  0.1105E-12  0.1382E-04  0.4318E-07  0.1322E-02  0.3669E-03  0.1548E+01
   -0.599990   30.13061  0.1105E-12  0.1401E-04  0.4215E-07  0.1394E-02  0.3439E-03  0.1549E+01
   -0.649991   30.13126  0.1105E-12  0.1418E-04  0.4127E-07  0.1458E-02  0.3229E-03  0.1565E+01
   -0.699992   30.13187  0.1105E-12  0.1432E-04  0.4052E-07  0.1515E-02  0.3037E-03  0.1601E+01
   -0.749993   30.13244  0.1105E-12  0.1444E-04  0.3988E-07  0.1565E-02  0.2860E-03  0.1650E+01
   -0.799995   30.13299  0.1105E-12  0.1453E-04  0.3935E-07  0.1607E-02  0.2695E-03  0.1719E+01
   -0.849996   30.13352  0.1105E-12  0.1461E-04  0.3892E-07  0.1643E-02  0.2542E-03  0.1802E+01
   -0.899998   30.13404  0.1105E-12  0.1466E-04  0.3857E-07  0.1671E-02  0.2398E-03  0.1911E+01
   -0.950000   30.13453  0.1105E-12  0.1470E-04  0.3832E-07  0.1691E-02  0.2263E-03  0.2038E+01
   -1.000001   30.13502  0.1105E-12  0.1472E-04  0.3815E-07  0.1704E-02  0.2135E-03  0.2199E+01
   -1.050003   30.13550  0.1105E-12  0.1472E-04  0.3807E-07  0.1707E-02  0.2014E-03  0.2485E+01
   -1.100005   30.13597  0.1105E-12  0.1470E-04  0.3808E-07  0.1780E-02  0.1898E-03  0.8357E+01
   -1.150007   30.13642  0.1105E-12  0.1466E-04  0.3821E-07  0.1647E-02  0.1795E-03  0.1814E+02
   -1.200008   30.13691  0.1105E-12  0.1460E-04  0.3844E-07  0.1662E-02  0.1690E-03  0.3537E+01
   -1.250010   30.13738  0.1105E-12  0.1451E-04  0.3882E-07  0.1634E-02  0.1588E-03  0.3762E+01
   -1.300011   30.13786  0.1105E-12  0.1441E-04  0.3936E-07  0.1591E-02  0.1491E-03  0.4366E+01
   -1.350012   30.13835  0.1105E-12  0.1427E-04  0.4011E-07  0.1537E-02  0.1396E-03  0.5186E+01
   -1.400013   30.13886  0.1105E-12  0.1411E-04  0.4113E-07  0.1468E-02  0.1305E-03  0.6319E+01
   -1.450014   30.13939  0.1105E-12  0.1391E-04  0.4252E-07  0.1395E-02  0.1215E-03  0.7942E+01
   -1.500015   30.13994  0.1105E-12  0.1367E-04  0.4443E-07  0.1293E-02  0.1128E-03  0.1051E+02
   -1.550015   30.14054  0.1105E-12  0.1337E-04  0.4712E-07  0.1209E-02  0.1040E-03  0.1453E+02
   -1.600015   30.14119  0.1105E-12  0.1301E-04  0.5112E-07  0.1071E-02  0.9547E-04  0.2370E+02
   -1.650015   30.14194  0.1105E-12  0.1255E-04  0.5720E-07  0.9932E-03  0.8650E-04  0.5073E+03
   -1.700014   30.14277  0.1105E-12  0.1192E-04  0.6820E-07  0.8158E-03  0.7786E-04  0.5746E+03
   -1.750013   30.14418  0.1105E-12  0.1107E-04  0.8653E-07  0.7347E-03  0.6665E-04  0.1652E+05
   -1.800012   30.14549  0.1105E-12  0.9875E-05  0.1237E-06  0.5232E-03  0.5730E-04  0.8343E+05
   -1.850011   30.14991  0.1105E-12  0.8455E-05  0.1944E-06  0.4655E-03  0.4220E-04  0.7499E+06
   -1.900008   30.14989  0.1105E-12  0.6688E-05  0.3996E-06  0.2111E-03  0.3394E-04  0.2511E+06
   -1.950006   30.16531  0.1105E-12  0.4597E-05  0.1028E-05  0.1681E-03  0.1858E-04 -0.5586E+06
   -2.000003   30.16822  0.1105E-12  0.0000E+00  0.0000E+00  0.0000E+00  0.3203E-04  0.0000E+00
