 1 - depth, m
 2 - temperature, C
 3 - salinity, kg/kg
 4 - turbulent kinetic energy, m**2/s**2
 5 - dissipation rate, m**2/s**3
 6 - kinematic heat conductance, m**2/s
 7 - modulus of horizontal velocity, m/s
 8 - Richardson number, n/d
   -0.000000   30.76162  0.1050E-13  0.4837E-05  0.3001E-06  0.4918E-04  0.6710E-03  0.1260E+05
   -0.049997   30.79371  0.1050E-13  0.8485E-05  0.1333E-06  0.1855E-03  0.3759E-03  0.1134E+03
   -0.099994   30.80494  0.1050E-13  0.1025E-04  0.9261E-07  0.4119E-03  0.2773E-03  0.1164E+03
   -0.149992   30.80815  0.1050E-13  0.1136E-04  0.7814E-07  0.4916E-03  0.2456E-03  0.5734E+02
   -0.199991   30.81072  0.1050E-13  0.1223E-04  0.6958E-07  0.6551E-03  0.2197E-03  0.3739E+02
   -0.249989   30.81260  0.1050E-13  0.1291E-04  0.6394E-07  0.7812E-03  0.2003E-03  0.2779E+02
   -0.299988   30.81412  0.1050E-13  0.1347E-04  0.5990E-07  0.9065E-03  0.1841E-03  0.2224E+02
   -0.349988   30.81540  0.1050E-13  0.1393E-04  0.5686E-07  0.1020E-02  0.1702E-03  0.1904E+02
   -0.399988   30.81651  0.1050E-13  0.1432E-04  0.5449E-07  0.1124E-02  0.1579E-03  0.1702E+02
   -0.449988   30.81750  0.1050E-13  0.1465E-04  0.5256E-07  0.1220E-02  0.1470E-03  0.1596E+02
   -0.499988   30.81839  0.1050E-13  0.1494E-04  0.5096E-07  0.1308E-02  0.1374E-03  0.1556E+02
   -0.549989   30.81920  0.1050E-13  0.1519E-04  0.4962E-07  0.1388E-02  0.1288E-03  0.1532E+02
   -0.599989   30.81996  0.1050E-13  0.1540E-04  0.4849E-07  0.1461E-02  0.1210E-03  0.1537E+02
   -0.649990   30.82066  0.1050E-13  0.1559E-04  0.4754E-07  0.1526E-02  0.1139E-03  0.1553E+02
   -0.699992   30.82132  0.1050E-13  0.1574E-04  0.4673E-07  0.1584E-02  0.1073E-03  0.1592E+02
   -0.749993   30.82195  0.1050E-13  0.1587E-04  0.4605E-07  0.1634E-02  0.1013E-03  0.1642E+02
   -0.799994   30.82256  0.1050E-13  0.1597E-04  0.4549E-07  0.1676E-02  0.9562E-04  0.1716E+02
   -0.849996   30.82314  0.1050E-13  0.1605E-04  0.4504E-07  0.1710E-02  0.9036E-04  0.1801E+02
   -0.899998   30.82370  0.1050E-13  0.1610E-04  0.4469E-07  0.1736E-02  0.8540E-04  0.1917E+02
   -0.949999   30.82425  0.1050E-13  0.1614E-04  0.4445E-07  0.1753E-02  0.8074E-04  0.2049E+02
   -1.000001   30.82478  0.1050E-13  0.1615E-04  0.4431E-07  0.1763E-02  0.7632E-04  0.2222E+02
   -1.050003   30.82531  0.1050E-13  0.1614E-04  0.4428E-07  0.1762E-02  0.7213E-04  0.2515E+02
   -1.100004   30.82584  0.1050E-13  0.1611E-04  0.4437E-07  0.1856E-02  0.6811E-04  0.8281E+02
   -1.150006   30.82633  0.1050E-13  0.1605E-04  0.4460E-07  0.1666E-02  0.6455E-04  0.1949E+03
   -1.200008   30.82688  0.1050E-13  0.1597E-04  0.4496E-07  0.1697E-02  0.6081E-04  0.3682E+02
   -1.250009   30.82742  0.1050E-13  0.1587E-04  0.4551E-07  0.1666E-02  0.5725E-04  0.3944E+02
   -1.300010   30.82796  0.1050E-13  0.1573E-04  0.4627E-07  0.1614E-02  0.5383E-04  0.4630E+02
   -1.350012   30.82852  0.1050E-13  0.1556E-04  0.4733E-07  0.1554E-02  0.5049E-04  0.5597E+02
   -1.400013   30.82910  0.1050E-13  0.1535E-04  0.4876E-07  0.1472E-02  0.4725E-04  0.6976E+02
   -1.450014   30.82971  0.1050E-13  0.1510E-04  0.5072E-07  0.1397E-02  0.4405E-04  0.9011E+02
   -1.500014   30.83035  0.1050E-13  0.1479E-04  0.5347E-07  0.1278E-02  0.4092E-04  0.1252E+03
   -1.550014   30.83107  0.1050E-13  0.1441E-04  0.5738E-07  0.1203E-02  0.3774E-04  0.1825E+03
   -1.600015   30.83183  0.1050E-13  0.1394E-04  0.6362E-07  0.1048E-02  0.3467E-04  0.5505E+04
   -1.650014   30.83283  0.1050E-13  0.1332E-04  0.7322E-07  0.9800E-03  0.3122E-04 -0.8880E+05
   -1.700014   30.83389  0.1050E-13  0.1248E-04  0.9044E-07  0.7860E-03  0.2799E-04 -0.1817E+05
   -1.750013   30.83599  0.1050E-13  0.1138E-04  0.1190E-06  0.7191E-03  0.2343E-04  0.2719E+06
   -1.800012   30.83746  0.1050E-13  0.9979E-05  0.1803E-06  0.4916E-03  0.2016E-04  0.3085E+06
   -1.850010   30.84456  0.1050E-13  0.8441E-05  0.2950E-06  0.4631E-03  0.1421E-04  0.1897E+09
   -1.900008   30.84245  0.1050E-13  0.6725E-05  0.6238E-06  0.2130E-03  0.1162E-04 -0.2498E+07
   -1.950005   30.86261  0.1050E-13  0.4734E-05  0.1528E-05  0.1981E-03  0.6210E-05 -0.7893E+07
   -2.000002   30.86514  0.1050E-13  0.0000E+00  0.0000E+00  0.0000E+00  0.1181E-04  0.0000E+00
