 1 - depth, m
 2 - temperature, C
 3 - salinity, kg/kg
 4 - turbulent kinetic energy, m**2/s**2
 5 - dissipation rate, m**2/s**3
 6 - kinematic heat conductance, m**2/s
 7 - modulus of horizontal velocity, m/s
 8 - Richardson number, n/d
   -0.000000   30.24310  0.1186E-13  0.5631E-05  0.3467E-06  0.5390E-04  0.3046E-02  0.1132E+04
   -0.049997   30.27638  0.1186E-13  0.9239E-05  0.1507E-06  0.2046E-03  0.1655E-02  0.2050E+02
   -0.099994   30.28703  0.1186E-13  0.1097E-04  0.1059E-06  0.4011E-03  0.1282E-02  0.5788E+01
   -0.149992   30.29064  0.1186E-13  0.1210E-04  0.8881E-07  0.4989E-03  0.1140E-02  0.2892E+01
   -0.199990   30.29343  0.1186E-13  0.1299E-04  0.7890E-07  0.6505E-03  0.1028E-02  0.1890E+01
   -0.249989   30.29550  0.1186E-13  0.1371E-04  0.7246E-07  0.7695E-03  0.9419E-03  0.1436E+01
   -0.299988   30.29720  0.1186E-13  0.1431E-04  0.6783E-07  0.8833E-03  0.8697E-03  0.1265E+01
   -0.349988   30.29865  0.1186E-13  0.1485E-04  0.6423E-07  0.1001E-02  0.8044E-03  0.1262E+01
   -0.399987   30.29990  0.1186E-13  0.1533E-04  0.6127E-07  0.1126E-02  0.7419E-03  0.1270E+01
   -0.449987   30.30099  0.1186E-13  0.1577E-04  0.5880E-07  0.1250E-02  0.6840E-03  0.1279E+01
   -0.499988   30.30196  0.1186E-13  0.1616E-04  0.5673E-07  0.1367E-02  0.6315E-03  0.1287E+01
   -0.549988   30.30282  0.1186E-13  0.1650E-04  0.5502E-07  0.1474E-02  0.5842E-03  0.1284E+01
   -0.599989   30.30361  0.1186E-13  0.1680E-04  0.5361E-07  0.1571E-02  0.5414E-03  0.1279E+01
   -0.649990   30.30434  0.1186E-13  0.1705E-04  0.5245E-07  0.1657E-02  0.5029E-03  0.1268E+01
   -0.699991   30.30502  0.1186E-13  0.1725E-04  0.5152E-07  0.1729E-02  0.4680E-03  0.1256E+01
   -0.749992   30.30566  0.1186E-13  0.1741E-04  0.5078E-07  0.1789E-02  0.4365E-03  0.1239E+01
   -0.799994   30.30628  0.1186E-13  0.1754E-04  0.5021E-07  0.1836E-02  0.4081E-03  0.1223E+01
   -0.849995   30.30687  0.1186E-13  0.1763E-04  0.4981E-07  0.1871E-02  0.3824E-03  0.1204E+01
   -0.899997   30.30745  0.1186E-13  0.1770E-04  0.4954E-07  0.1893E-02  0.3591E-03  0.1191E+01
   -0.949998   30.30801  0.1186E-13  0.1773E-04  0.4941E-07  0.1904E-02  0.3380E-03  0.1182E+01
   -1.000000   30.30857  0.1186E-13  0.1773E-04  0.4941E-07  0.1905E-02  0.3189E-03  0.1199E+01
   -1.050002   30.30913  0.1186E-13  0.1771E-04  0.4953E-07  0.1894E-02  0.3013E-03  0.1282E+01
   -1.100003   30.30968  0.1186E-13  0.1767E-04  0.4977E-07  0.2030E-02  0.2850E-03  0.3973E+01
   -1.150005   30.31019  0.1186E-13  0.1760E-04  0.5019E-07  0.1737E-02  0.2711E-03  0.1005E+02
   -1.200007   30.31079  0.1186E-13  0.1751E-04  0.5076E-07  0.1801E-02  0.2557E-03  0.1845E+01
   -1.250008   30.31137  0.1186E-13  0.1738E-04  0.5155E-07  0.1765E-02  0.2413E-03  0.1973E+01
   -1.300009   30.31195  0.1186E-13  0.1722E-04  0.5262E-07  0.1704E-02  0.2275E-03  0.2334E+01
   -1.350010   30.31256  0.1186E-13  0.1702E-04  0.5405E-07  0.1633E-02  0.2139E-03  0.2842E+01
   -1.400011   30.31319  0.1186E-13  0.1678E-04  0.5597E-07  0.1542E-02  0.2006E-03  0.3584E+01
   -1.450012   30.31386  0.1186E-13  0.1649E-04  0.5859E-07  0.1454E-02  0.1875E-03  0.4713E+01
   -1.500013   30.31459  0.1186E-13  0.1613E-04  0.6224E-07  0.1334E-02  0.1744E-03  0.6668E+01
   -1.550013   30.31539  0.1186E-13  0.1570E-04  0.6754E-07  0.1243E-02  0.1612E-03  0.1116E+02
   -1.600013   30.31628  0.1186E-13  0.1514E-04  0.7586E-07  0.1097E-02  0.1480E-03 -0.1685E+01
   -1.650013   30.31744  0.1186E-13  0.1441E-04  0.8895E-07  0.1004E-02  0.1334E-03  0.2883E+04
   -1.700012   30.31886  0.1186E-13  0.1340E-04  0.1114E-06  0.8242E-03  0.1183E-03  0.1633E+05
   -1.750011   30.32120  0.1186E-13  0.1221E-04  0.1469E-06  0.7347E-03  0.9917E-04  0.2638E+05
   -1.800010   30.32282  0.1186E-13  0.1066E-04  0.2280E-06  0.5000E-03  0.8546E-04  0.2817E+05
   -1.850008   30.33206  0.1186E-13  0.9099E-05  0.3771E-06  0.4821E-03  0.5925E-04  0.1617E+10
   -1.900006   30.32851  0.1186E-13  0.7305E-05  0.7931E-06  0.2257E-03  0.4939E-04 -0.3134E+05
   -1.950003   30.35338  0.1186E-13  0.5208E-05  0.1892E-05  0.2171E-03  0.2652E-04 -0.1270E+06
   -2.000000   30.35416  0.1186E-13  0.0000E+00  0.0000E+00  0.0000E+00  0.5181E-04  0.0000E+00
