 1 - depth, m
 2 - temperature, C
 3 - salinity, kg/kg
 4 - turbulent kinetic energy, m**2/s**2
 5 - dissipation rate, m**2/s**3
 6 - kinematic heat conductance, m**2/s
 7 - modulus of horizontal velocity, m/s
 8 - Richardson number, n/d
   -0.000000   31.26055  0.5750E-14  0.5111E-05  0.3300E-06  0.5151E-04  0.5872E-03  0.2331E+05
   -0.049997   31.29380  0.5750E-14  0.8959E-05  0.1464E-06  0.1871E-03  0.3346E-03  0.1192E+03
   -0.099994   31.30595  0.5750E-14  0.1085E-04  0.1011E-06  0.4255E-03  0.2445E-03  0.1406E+03
   -0.149992   31.30930  0.5750E-14  0.1202E-04  0.8528E-07  0.5005E-03  0.2171E-03  0.6943E+02
   -0.199991   31.31202  0.5750E-14  0.1294E-04  0.7592E-07  0.6709E-03  0.1943E-03  0.4524E+02
   -0.249989   31.31399  0.5750E-14  0.1366E-04  0.6976E-07  0.7996E-03  0.1774E-03  0.3360E+02
   -0.299988   31.31560  0.5750E-14  0.1425E-04  0.6536E-07  0.9284E-03  0.1632E-03  0.2689E+02
   -0.349988   31.31695  0.5750E-14  0.1474E-04  0.6204E-07  0.1045E-02  0.1510E-03  0.2297E+02
   -0.399987   31.31812  0.5750E-14  0.1515E-04  0.5946E-07  0.1151E-02  0.1402E-03  0.2054E+02
   -0.449988   31.31916  0.5750E-14  0.1551E-04  0.5736E-07  0.1249E-02  0.1307E-03  0.1922E+02
   -0.499988   31.32009  0.5750E-14  0.1581E-04  0.5562E-07  0.1339E-02  0.1223E-03  0.1874E+02
   -0.549988   31.32095  0.5750E-14  0.1607E-04  0.5416E-07  0.1421E-02  0.1148E-03  0.1841E+02
   -0.599989   31.32174  0.5750E-14  0.1629E-04  0.5292E-07  0.1495E-02  0.1079E-03  0.1848E+02
   -0.649990   31.32249  0.5750E-14  0.1648E-04  0.5188E-07  0.1561E-02  0.1017E-03  0.1862E+02
   -0.699991   31.32319  0.5750E-14  0.1664E-04  0.5100E-07  0.1619E-02  0.9591E-04  0.1910E+02
   -0.749993   31.32385  0.5750E-14  0.1677E-04  0.5027E-07  0.1669E-02  0.9058E-04  0.1963E+02
   -0.799994   31.32449  0.5750E-14  0.1687E-04  0.4966E-07  0.1711E-02  0.8561E-04  0.2054E+02
   -0.849996   31.32510  0.5750E-14  0.1695E-04  0.4917E-07  0.1745E-02  0.8098E-04  0.2149E+02
   -0.899997   31.32570  0.5750E-14  0.1700E-04  0.4880E-07  0.1770E-02  0.7660E-04  0.2290E+02
   -0.949999   31.32627  0.5750E-14  0.1703E-04  0.4854E-07  0.1787E-02  0.7249E-04  0.2441E+02
   -1.000001   31.32684  0.5750E-14  0.1704E-04  0.4839E-07  0.1795E-02  0.6857E-04  0.2650E+02
   -1.050002   31.32740  0.5750E-14  0.1702E-04  0.4837E-07  0.1792E-02  0.6486E-04  0.2989E+02
   -1.100004   31.32796  0.5750E-14  0.1698E-04  0.4847E-07  0.1898E-02  0.6131E-04  0.9756E+02
   -1.150006   31.32848  0.5750E-14  0.1691E-04  0.4874E-07  0.1676E-02  0.5817E-04  0.2362E+03
   -1.200007   31.32907  0.5750E-14  0.1682E-04  0.4916E-07  0.1718E-02  0.5482E-04  0.4397E+02
   -1.250009   31.32964  0.5750E-14  0.1669E-04  0.4979E-07  0.1685E-02  0.5165E-04  0.4707E+02
   -1.300010   31.33021  0.5750E-14  0.1653E-04  0.5068E-07  0.1629E-02  0.4860E-04  0.5527E+02
   -1.350011   31.33080  0.5750E-14  0.1634E-04  0.5190E-07  0.1563E-02  0.4562E-04  0.6715E+02
   -1.400012   31.33142  0.5750E-14  0.1610E-04  0.5356E-07  0.1478E-02  0.4271E-04  0.8393E+02
   -1.450013   31.33207  0.5750E-14  0.1581E-04  0.5585E-07  0.1396E-02  0.3984E-04  0.1096E+03
   -1.500014   31.33276  0.5750E-14  0.1546E-04  0.5909E-07  0.1277E-02  0.3702E-04  0.1533E+03
   -1.550014   31.33353  0.5750E-14  0.1504E-04  0.6378E-07  0.1195E-02  0.3415E-04  0.2329E+03
   -1.600014   31.33437  0.5750E-14  0.1450E-04  0.7119E-07  0.1047E-02  0.3133E-04  0.6181E+03
   -1.650014   31.33545  0.5750E-14  0.1379E-04  0.8296E-07  0.9670E-03  0.2822E-04  0.3671E+05
   -1.700013   31.33672  0.5750E-14  0.1281E-04  0.1041E-06  0.7812E-03  0.2507E-04  0.9574E+05
   -1.750012   31.33898  0.5750E-14  0.1161E-04  0.1375E-06  0.7077E-03  0.2088E-04  0.1451E+07
   -1.800011   31.34055  0.5750E-14  0.1005E-04  0.2120E-06  0.4803E-03  0.1791E-04  0.7335E+06
   -1.850009   31.34904  0.5750E-14  0.8465E-05  0.3507E-06  0.4596E-03  0.1223E-04  0.1303E+10
   -1.900007   31.34591  0.5750E-14  0.6751E-05  0.7366E-06  0.2148E-03  0.1013E-04 -0.5507E+06
   -1.950004   31.36877  0.5750E-14  0.4812E-05  0.1777E-05  0.2131E-03  0.5320E-05 -0.4593E+07
   -2.000001   31.36922  0.5750E-14  0.0000E+00  0.0000E+00  0.0000E+00  0.1075E-04  0.0000E+00
