 1 - depth, m
 2 - temperature, C
 3 - salinity, kg/kg
 4 - turbulent kinetic energy, m**2/s**2
 5 - dissipation rate, m**2/s**3
 6 - kinematic heat conductance, m**2/s
 7 - modulus of horizontal velocity, m/s
 8 - Richardson number, n/d
   -0.000000   30.91905  0.2430E-13  0.4935E-05  0.3120E-06  0.5144E-04  0.1642E-02  0.8096E+04
   -0.049997   30.94924  0.2430E-13  0.8418E-05  0.1391E-06  0.1772E-03  0.9425E-03  0.2075E+03
   -0.099994   30.96119  0.2430E-13  0.1023E-04  0.9531E-07  0.4026E-03  0.6884E-03  0.1750E+02
   -0.149992   30.96444  0.2430E-13  0.1136E-04  0.7986E-07  0.4826E-03  0.6081E-03  0.8581E+01
   -0.199991   30.96704  0.2430E-13  0.1225E-04  0.7084E-07  0.6475E-03  0.5429E-03  0.5483E+01
   -0.249989   30.96893  0.2430E-13  0.1295E-04  0.6495E-07  0.7743E-03  0.4943E-03  0.4044E+01
   -0.299988   30.97046  0.2430E-13  0.1353E-04  0.6076E-07  0.9017E-03  0.4539E-03  0.3212E+01
   -0.349988   30.97174  0.2430E-13  0.1400E-04  0.5762E-07  0.1017E-02  0.4193E-03  0.2746E+01
   -0.399988   30.97285  0.2430E-13  0.1440E-04  0.5519E-07  0.1122E-02  0.3887E-03  0.2443E+01
   -0.449988   30.97384  0.2430E-13  0.1475E-04  0.5321E-07  0.1220E-02  0.3618E-03  0.2292E+01
   -0.499988   30.97473  0.2430E-13  0.1505E-04  0.5158E-07  0.1311E-02  0.3381E-03  0.2224E+01
   -0.549989   30.97554  0.2430E-13  0.1531E-04  0.5022E-07  0.1393E-02  0.3167E-03  0.2193E+01
   -0.599989   30.97629  0.2430E-13  0.1554E-04  0.4908E-07  0.1468E-02  0.2975E-03  0.2190E+01
   -0.649990   30.97699  0.2430E-13  0.1573E-04  0.4811E-07  0.1536E-02  0.2799E-03  0.2215E+01
   -0.699992   30.97765  0.2430E-13  0.1590E-04  0.4730E-07  0.1596E-02  0.2638E-03  0.2262E+01
   -0.749993   30.97828  0.2430E-13  0.1603E-04  0.4662E-07  0.1648E-02  0.2489E-03  0.2334E+01
   -0.799994   30.97888  0.2430E-13  0.1615E-04  0.4606E-07  0.1692E-02  0.2350E-03  0.2428E+01
   -0.849996   30.97946  0.2430E-13  0.1624E-04  0.4562E-07  0.1728E-02  0.2220E-03  0.2551E+01
   -0.899998   30.98003  0.2430E-13  0.1631E-04  0.4527E-07  0.1757E-02  0.2099E-03  0.2699E+01
   -0.949999   30.98057  0.2430E-13  0.1636E-04  0.4503E-07  0.1777E-02  0.1984E-03  0.2888E+01
   -1.000001   30.98111  0.2430E-13  0.1638E-04  0.4490E-07  0.1789E-02  0.1875E-03  0.3109E+01
   -1.050003   30.98164  0.2430E-13  0.1639E-04  0.4487E-07  0.1791E-02  0.1772E-03  0.3522E+01
   -1.100004   30.98216  0.2430E-13  0.1637E-04  0.4495E-07  0.1876E-02  0.1674E-03  0.1172E+02
   -1.150006   30.98266  0.2430E-13  0.1633E-04  0.4517E-07  0.1714E-02  0.1586E-03  0.2598E+02
   -1.200008   30.98320  0.2430E-13  0.1626E-04  0.4553E-07  0.1737E-02  0.1495E-03  0.5044E+01
   -1.250009   30.98373  0.2430E-13  0.1617E-04  0.4606E-07  0.1707E-02  0.1408E-03  0.5359E+01
   -1.300010   30.98427  0.2430E-13  0.1605E-04  0.4679E-07  0.1659E-02  0.1325E-03  0.6262E+01
   -1.350011   30.98482  0.2430E-13  0.1590E-04  0.4780E-07  0.1600E-02  0.1243E-03  0.7445E+01
   -1.400012   30.98539  0.2430E-13  0.1572E-04  0.4915E-07  0.1525E-02  0.1164E-03  0.9166E+01
   -1.450013   30.98598  0.2430E-13  0.1549E-04  0.5098E-07  0.1447E-02  0.1086E-03  0.1159E+02
   -1.500014   30.98662  0.2430E-13  0.1521E-04  0.5350E-07  0.1337E-02  0.1010E-03  0.1562E+02
   -1.550014   30.98731  0.2430E-13  0.1487E-04  0.5705E-07  0.1250E-02  0.9335E-04  0.2206E+02
   -1.600014   30.98805  0.2430E-13  0.1444E-04  0.6246E-07  0.1107E-02  0.8583E-04  0.1738E+03
   -1.650014   30.98895  0.2430E-13  0.1389E-04  0.7080E-07  0.1022E-02  0.7779E-04  0.2331E+04
   -1.700013   30.98997  0.2430E-13  0.1314E-04  0.8538E-07  0.8388E-03  0.6989E-04 -0.1776E+04
   -1.750013   30.99169  0.2430E-13  0.1216E-04  0.1093E-06  0.7604E-03  0.5975E-04  0.1340E+06
   -1.800011   30.99320  0.2430E-13  0.1082E-04  0.1602E-06  0.5321E-03  0.5154E-04  0.8940E+04
   -1.850010   30.99888  0.2430E-13  0.9274E-05  0.2553E-06  0.4876E-03  0.3775E-04  0.1163E+08
   -1.900007   30.99827  0.2430E-13  0.7383E-05  0.5318E-06  0.2234E-03  0.3069E-04  0.5103E+05
   -1.950005   31.01667  0.2430E-13  0.5127E-05  0.1339E-05  0.1837E-03  0.1694E-04 -0.1161E+07
   -2.000002   31.01953  0.2430E-13  0.0000E+00  0.0000E+00  0.0000E+00  0.2965E-04  0.0000E+00
