 1 - depth, m
 2 - temperature, C
 3 - salinity, kg/kg
 4 - turbulent kinetic energy, m**2/s**2
 5 - dissipation rate, m**2/s**3
 6 - kinematic heat conductance, m**2/s
 7 - modulus of horizontal velocity, m/s
 8 - Richardson number, n/d
   -0.000000   30.96508  0.7325E-14  0.4915E-05  0.3100E-06  0.5018E-04  0.6072E-03  0.4491E+05
   -0.049997   30.99705  0.7325E-14  0.8646E-05  0.1375E-06  0.1865E-03  0.3435E-03  0.8397E+03
   -0.099994   31.00847  0.7325E-14  0.1047E-04  0.9523E-07  0.4198E-03  0.2509E-03  0.1572E+03
   -0.149992   31.01166  0.7325E-14  0.1161E-04  0.8039E-07  0.4971E-03  0.2224E-03  0.7786E+02
   -0.199991   31.01424  0.7326E-14  0.1250E-04  0.7162E-07  0.6648E-03  0.1990E-03  0.5094E+02
   -0.249989   31.01612  0.7326E-14  0.1320E-04  0.6586E-07  0.7926E-03  0.1815E-03  0.3784E+02
   -0.299988   31.01765  0.7326E-14  0.1378E-04  0.6175E-07  0.9203E-03  0.1669E-03  0.3033E+02
   -0.349988   31.01894  0.7326E-14  0.1426E-04  0.5866E-07  0.1036E-02  0.1543E-03  0.2589E+02
   -0.399987   31.02006  0.7326E-14  0.1467E-04  0.5626E-07  0.1141E-02  0.1432E-03  0.2317E+02
   -0.449988   31.02105  0.7326E-14  0.1502E-04  0.5431E-07  0.1239E-02  0.1335E-03  0.2166E+02
   -0.499988   31.02195  0.7326E-14  0.1532E-04  0.5270E-07  0.1329E-02  0.1248E-03  0.2115E+02
   -0.549988   31.02278  0.7326E-14  0.1558E-04  0.5135E-07  0.1411E-02  0.1170E-03  0.2074E+02
   -0.599989   31.02354  0.7326E-14  0.1581E-04  0.5023E-07  0.1485E-02  0.1100E-03  0.2083E+02
   -0.649990   31.02425  0.7326E-14  0.1600E-04  0.4928E-07  0.1551E-02  0.1036E-03  0.2096E+02
   -0.699991   31.02493  0.7326E-14  0.1617E-04  0.4848E-07  0.1610E-02  0.9766E-04  0.2152E+02
   -0.749993   31.02557  0.7326E-14  0.1631E-04  0.4782E-07  0.1660E-02  0.9220E-04  0.2207E+02
   -0.799994   31.02618  0.7326E-14  0.1642E-04  0.4728E-07  0.1703E-02  0.8710E-04  0.2311E+02
   -0.849996   31.02677  0.7326E-14  0.1651E-04  0.4685E-07  0.1738E-02  0.8235E-04  0.2412E+02
   -0.899997   31.02734  0.7326E-14  0.1657E-04  0.4653E-07  0.1764E-02  0.7787E-04  0.2570E+02
   -0.949999   31.02791  0.7326E-14  0.1662E-04  0.4632E-07  0.1782E-02  0.7365E-04  0.2731E+02
   -1.000001   31.02846  0.7326E-14  0.1664E-04  0.4622E-07  0.1792E-02  0.6966E-04  0.2965E+02
   -1.050002   31.02900  0.7326E-14  0.1663E-04  0.4623E-07  0.1791E-02  0.6586E-04  0.3333E+02
   -1.100004   31.02954  0.7326E-14  0.1661E-04  0.4636E-07  0.1887E-02  0.6223E-04  0.1102E+03
   -1.150006   31.03005  0.7326E-14  0.1656E-04  0.4664E-07  0.1693E-02  0.5901E-04  0.2563E+03
   -1.200007   31.03061  0.7326E-14  0.1649E-04  0.4706E-07  0.1725E-02  0.5562E-04  0.4839E+02
   -1.250009   31.03116  0.7326E-14  0.1638E-04  0.4768E-07  0.1694E-02  0.5239E-04  0.5179E+02
   -1.300010   31.03172  0.7326E-14  0.1625E-04  0.4853E-07  0.1641E-02  0.4928E-04  0.6044E+02
   -1.350011   31.03230  0.7326E-14  0.1608E-04  0.4967E-07  0.1579E-02  0.4625E-04  0.7287E+02
   -1.400012   31.03290  0.7326E-14  0.1588E-04  0.5122E-07  0.1498E-02  0.4330E-04  0.9016E+02
   -1.450013   31.03353  0.7326E-14  0.1562E-04  0.5332E-07  0.1418E-02  0.4040E-04  0.1161E+03
   -1.500014   31.03420  0.7326E-14  0.1531E-04  0.5624E-07  0.1302E-02  0.3754E-04  0.1593E+03
   -1.550014   31.03494  0.7326E-14  0.1493E-04  0.6039E-07  0.1219E-02  0.3465E-04  0.2318E+03
   -1.600014   31.03574  0.7326E-14  0.1446E-04  0.6685E-07  0.1072E-02  0.3182E-04  0.5586E+03
   -1.650014   31.03675  0.7326E-14  0.1383E-04  0.7697E-07  0.9885E-03  0.2874E-04  0.5383E+05
   -1.700013   31.03792  0.7326E-14  0.1297E-04  0.9461E-07  0.8065E-03  0.2566E-04 -0.8171E+05
   -1.750012   31.03995  0.7326E-14  0.1188E-04  0.1231E-06  0.7287E-03  0.2165E-04  0.2807E+06
   -1.800011   31.04147  0.7326E-14  0.1045E-04  0.1840E-06  0.5032E-03  0.1866E-04  0.3237E+06
   -1.850009   31.04879  0.7326E-14  0.8872E-05  0.3011E-06  0.4682E-03  0.1322E-04  0.4010E+09
   -1.900007   31.04701  0.7326E-14  0.7054E-05  0.6265E-06  0.2175E-03  0.1079E-04 -0.1378E+07
   -1.950004   31.06832  0.7326E-14  0.4973E-05  0.1544E-05  0.1979E-03  0.5835E-05 -0.2372E+08
   -2.000001   31.06980  0.7326E-14  0.0000E+00  0.0000E+00  0.0000E+00  0.1083E-04  0.0000E+00
