 1 - depth, m
 2 - temperature, C
 3 - salinity, kg/kg
 4 - turbulent kinetic energy, m**2/s**2
 5 - dissipation rate, m**2/s**3
 6 - kinematic heat conductance, m**2/s
 7 - modulus of horizontal velocity, m/s
 8 - Richardson number, n/d
   -0.000000   30.62703  0.3864E-13  0.5090E-05  0.3258E-06  0.5224E-04  0.1926E-02  0.2776E+04
   -0.049997   30.65855  0.3864E-13  0.8594E-05  0.1452E-06  0.1763E-03  0.1113E-02  0.8734E+03
   -0.099994   30.67116  0.3865E-13  0.1043E-04  0.9919E-07  0.4018E-03  0.8132E-03  0.1332E+02
   -0.149992   30.67460  0.3865E-13  0.1158E-04  0.8300E-07  0.4807E-03  0.7187E-03  0.6509E+01
   -0.199991   30.67735  0.3865E-13  0.1246E-04  0.7353E-07  0.6449E-03  0.6417E-03  0.4156E+01
   -0.249989   30.67934  0.3865E-13  0.1317E-04  0.6734E-07  0.7709E-03  0.5843E-03  0.3061E+01
   -0.299988   30.68096  0.3865E-13  0.1374E-04  0.6294E-07  0.8973E-03  0.5366E-03  0.2429E+01
   -0.349988   30.68231  0.3865E-13  0.1422E-04  0.5963E-07  0.1011E-02  0.4957E-03  0.2076E+01
   -0.399988   30.68348  0.3865E-13  0.1461E-04  0.5706E-07  0.1116E-02  0.4595E-03  0.1847E+01
   -0.449988   30.68451  0.3865E-13  0.1495E-04  0.5497E-07  0.1212E-02  0.4278E-03  0.1733E+01
   -0.499988   30.68545  0.3865E-13  0.1524E-04  0.5324E-07  0.1301E-02  0.3996E-03  0.1684E+01
   -0.549989   30.68630  0.3865E-13  0.1549E-04  0.5179E-07  0.1382E-02  0.3744E-03  0.1663E+01
   -0.599989   30.68709  0.3865E-13  0.1571E-04  0.5056E-07  0.1455E-02  0.3517E-03  0.1662E+01
   -0.649990   30.68783  0.3865E-13  0.1589E-04  0.4952E-07  0.1521E-02  0.3309E-03  0.1685E+01
   -0.699992   30.68852  0.3865E-13  0.1604E-04  0.4865E-07  0.1579E-02  0.3118E-03  0.1721E+01
   -0.749993   30.68918  0.3865E-13  0.1616E-04  0.4791E-07  0.1628E-02  0.2941E-03  0.1781E+01
   -0.799994   30.68981  0.3865E-13  0.1626E-04  0.4729E-07  0.1670E-02  0.2777E-03  0.1855E+01
   -0.849996   30.69042  0.3865E-13  0.1634E-04  0.4680E-07  0.1704E-02  0.2623E-03  0.1954E+01
   -0.899998   30.69100  0.3865E-13  0.1639E-04  0.4641E-07  0.1729E-02  0.2479E-03  0.2072E+01
   -0.949999   30.69158  0.3865E-13  0.1641E-04  0.4614E-07  0.1746E-02  0.2343E-03  0.2225E+01
   -1.000001   30.69214  0.3865E-13  0.1642E-04  0.4597E-07  0.1755E-02  0.2215E-03  0.2404E+01
   -1.050003   30.69269  0.3865E-13  0.1640E-04  0.4592E-07  0.1753E-02  0.2093E-03  0.2732E+01
   -1.100004   30.69324  0.3865E-13  0.1636E-04  0.4599E-07  0.1853E-02  0.1976E-03  0.8890E+01
   -1.150006   30.69375  0.3865E-13  0.1629E-04  0.4622E-07  0.1646E-02  0.1873E-03  0.2150E+02
   -1.200008   30.69433  0.3865E-13  0.1620E-04  0.4659E-07  0.1683E-02  0.1764E-03  0.4031E+01
   -1.250009   30.69488  0.3865E-13  0.1607E-04  0.4715E-07  0.1650E-02  0.1660E-03  0.4299E+01
   -1.300010   30.69545  0.3865E-13  0.1592E-04  0.4796E-07  0.1596E-02  0.1560E-03  0.5085E+01
   -1.350012   30.69603  0.3865E-13  0.1573E-04  0.4907E-07  0.1533E-02  0.1463E-03  0.6154E+01
   -1.400013   30.69664  0.3865E-13  0.1550E-04  0.5060E-07  0.1449E-02  0.1368E-03  0.7747E+01
   -1.450013   30.69727  0.3865E-13  0.1523E-04  0.5272E-07  0.1369E-02  0.1275E-03  0.1008E+02
   -1.500014   30.69795  0.3865E-13  0.1489E-04  0.5572E-07  0.1251E-02  0.1183E-03  0.1419E+02
   -1.550014   30.69871  0.3865E-13  0.1448E-04  0.6003E-07  0.1170E-02  0.1090E-03  0.2116E+02
   -1.600014   30.69953  0.3865E-13  0.1396E-04  0.6690E-07  0.1025E-02  0.9995E-04  0.6387E+02
   -1.650014   30.70058  0.3865E-13  0.1328E-04  0.7776E-07  0.9429E-03  0.8989E-04 -0.1567E+03
   -1.700014   30.70179  0.3865E-13  0.1235E-04  0.9715E-07  0.7685E-03  0.7995E-04 -0.1682E+05
   -1.750013   30.70406  0.3865E-13  0.1116E-04  0.1288E-06  0.6865E-03  0.6646E-04  0.1111E+06
   -1.800011   30.70570  0.3865E-13  0.9633E-05  0.2001E-06  0.4692E-03  0.5660E-04  0.1168E+05
   -1.850010   30.71406  0.3865E-13  0.8070E-05  0.3298E-06  0.4374E-03  0.3870E-04  0.8575E+07
   -1.900007   30.71082  0.3865E-13  0.6389E-05  0.6951E-06  0.2065E-03  0.3176E-04  0.6791E+05
   -1.950005   30.73358  0.3865E-13  0.4564E-05  0.1674E-05  0.2101E-03  0.1656E-04 -0.3838E+06
   -2.000002   30.73418  0.3865E-13  0.0000E+00  0.0000E+00  0.0000E+00  0.3367E-04  0.0000E+00
