 1 - depth, m
 2 - temperature, C
 3 - salinity, kg/kg
 4 - turbulent kinetic energy, m**2/s**2
 5 - dissipation rate, m**2/s**3
 6 - kinematic heat conductance, m**2/s
 7 - modulus of horizontal velocity, m/s
 8 - Richardson number, n/d
   -0.000000   30.30604  0.1228E-14  0.4764E-05  0.2948E-06  0.5029E-04  0.1421E-02  0.1620E+05
   -0.049997   30.33606  0.1228E-14  0.8180E-05  0.1315E-06  0.1763E-03  0.8108E-03  0.6130E+03
   -0.099994   30.34769  0.1228E-14  0.9931E-05  0.9051E-07  0.3979E-03  0.5932E-03  0.2331E+02
   -0.149992   30.35090  0.1228E-14  0.1103E-04  0.7598E-07  0.4783E-03  0.5239E-03  0.1141E+02
   -0.199991   30.35346  0.1228E-14  0.1188E-04  0.6747E-07  0.6396E-03  0.4677E-03  0.7323E+01
   -0.249989   30.35531  0.1228E-14  0.1256E-04  0.6190E-07  0.7646E-03  0.4256E-03  0.5408E+01
   -0.299988   30.35683  0.1228E-14  0.1311E-04  0.5792E-07  0.8894E-03  0.3907E-03  0.4300E+01
   -0.349988   30.35809  0.1228E-14  0.1357E-04  0.5495E-07  0.1002E-02  0.3607E-03  0.3680E+01
   -0.399988   30.35919  0.1228E-14  0.1396E-04  0.5263E-07  0.1106E-02  0.3343E-03  0.3277E+01
   -0.449988   30.36017  0.1228E-14  0.1429E-04  0.5075E-07  0.1202E-02  0.3110E-03  0.3079E+01
   -0.499988   30.36104  0.1228E-14  0.1458E-04  0.4919E-07  0.1290E-02  0.2904E-03  0.2992E+01
   -0.549989   30.36185  0.1228E-14  0.1482E-04  0.4789E-07  0.1370E-02  0.2719E-03  0.2956E+01
   -0.599990   30.36259  0.1228E-14  0.1504E-04  0.4680E-07  0.1444E-02  0.2553E-03  0.2953E+01
   -0.649991   30.36329  0.1228E-14  0.1522E-04  0.4587E-07  0.1509E-02  0.2401E-03  0.2994E+01
   -0.699992   30.36394  0.1228E-14  0.1538E-04  0.4509E-07  0.1567E-02  0.2261E-03  0.3057E+01
   -0.749993   30.36456  0.1228E-14  0.1551E-04  0.4443E-07  0.1618E-02  0.2132E-03  0.3162E+01
   -0.799995   30.36516  0.1228E-14  0.1561E-04  0.4389E-07  0.1661E-02  0.2012E-03  0.3289E+01
   -0.849996   30.36573  0.1228E-14  0.1570E-04  0.4345E-07  0.1696E-02  0.1900E-03  0.3463E+01
   -0.899998   30.36628  0.1228E-14  0.1576E-04  0.4311E-07  0.1723E-02  0.1795E-03  0.3666E+01
   -0.950000   30.36682  0.1228E-14  0.1580E-04  0.4287E-07  0.1742E-02  0.1695E-03  0.3928E+01
   -1.000001   30.36735  0.1228E-14  0.1582E-04  0.4273E-07  0.1754E-02  0.1602E-03  0.4234E+01
   -1.050003   30.36788  0.1228E-14  0.1581E-04  0.4269E-07  0.1755E-02  0.1513E-03  0.4803E+01
   -1.100005   30.36839  0.1228E-14  0.1579E-04  0.4276E-07  0.1841E-02  0.1428E-03  0.1591E+02
   -1.150006   30.36888  0.1228E-14  0.1574E-04  0.4296E-07  0.1673E-02  0.1352E-03  0.3593E+02
   -1.200008   30.36942  0.1228E-14  0.1567E-04  0.4329E-07  0.1698E-02  0.1274E-03  0.6927E+01
   -1.250009   30.36994  0.1228E-14  0.1558E-04  0.4378E-07  0.1668E-02  0.1199E-03  0.7369E+01
   -1.300011   30.37047  0.1228E-14  0.1546E-04  0.4448E-07  0.1619E-02  0.1127E-03  0.8633E+01
   -1.350012   30.37101  0.1228E-14  0.1530E-04  0.4543E-07  0.1561E-02  0.1056E-03  0.1030E+02
   -1.400013   30.37158  0.1228E-14  0.1511E-04  0.4672E-07  0.1484E-02  0.9883E-04  0.1274E+02
   -1.450014   30.37217  0.1228E-14  0.1488E-04  0.4847E-07  0.1408E-02  0.9213E-04  0.1616E+02
   -1.500014   30.37279  0.1228E-14  0.1460E-04  0.5089E-07  0.1296E-02  0.8556E-04  0.2196E+02
   -1.550015   30.37347  0.1228E-14  0.1425E-04  0.5431E-07  0.1213E-02  0.7897E-04  0.3106E+02
   -1.600015   30.37420  0.1228E-14  0.1382E-04  0.5956E-07  0.1067E-02  0.7252E-04  0.6325E+02
   -1.650015   30.37510  0.1228E-14  0.1328E-04  0.6763E-07  0.9911E-03  0.6557E-04  0.2814E+04
   -1.700014   30.37609  0.1228E-14  0.1253E-04  0.8207E-07  0.8085E-03  0.5890E-04  0.1820E+04
   -1.750013   30.37786  0.1228E-14  0.1152E-04  0.1061E-06  0.7310E-03  0.4998E-04  0.7213E+05
   -1.800012   30.37934  0.1228E-14  0.1014E-04  0.1588E-06  0.5103E-03  0.4291E-04  0.5746E+04
   -1.850010   30.38526  0.1228E-14  0.8600E-05  0.2540E-06  0.4650E-03  0.3077E-04  0.1459E+08
   -1.900008   30.38430  0.1228E-14  0.6788E-05  0.5329E-06  0.2112E-03  0.2498E-04  0.1171E+07
   -1.950006   30.40295  0.1228E-14  0.4753E-05  0.1333E-05  0.1880E-03  0.1341E-04 -0.3436E+06
   -2.000003   30.40509  0.1228E-14  0.0000E+00  0.0000E+00  0.0000E+00  0.2451E-04  0.0000E+00
