 1 - depth, m
 2 - temperature, C
 3 - salinity, kg/kg
 4 - turbulent kinetic energy, m**2/s**2
 5 - dissipation rate, m**2/s**3
 6 - kinematic heat conductance, m**2/s
 7 - modulus of horizontal velocity, m/s
 8 - Richardson number, n/d
   -0.000000   30.87581  0.8472E-14  0.4845E-05  0.3082E-06  0.5132E-04  0.7645E-03  0.1729E+05
   -0.049997   30.90623  0.8472E-14  0.8460E-05  0.1365E-06  0.1779E-03  0.4394E-03  0.6142E+02
   -0.099994   30.91842  0.8472E-14  0.1029E-04  0.9363E-07  0.4173E-03  0.3172E-03  0.8307E+02
   -0.149992   30.92156  0.8472E-14  0.1142E-04  0.7893E-07  0.4897E-03  0.2812E-03  0.4069E+02
   -0.199991   30.92414  0.8472E-14  0.1230E-04  0.7027E-07  0.6575E-03  0.2513E-03  0.2639E+02
   -0.249989   30.92600  0.8472E-14  0.1300E-04  0.6458E-07  0.7843E-03  0.2290E-03  0.1964E+02
   -0.299988   30.92752  0.8472E-14  0.1357E-04  0.6053E-07  0.9113E-03  0.2105E-03  0.1569E+02
   -0.349988   30.92879  0.8472E-14  0.1405E-04  0.5750E-07  0.1026E-02  0.1945E-03  0.1349E+02
   -0.399988   30.92990  0.8472E-14  0.1445E-04  0.5515E-07  0.1131E-02  0.1805E-03  0.1203E+02
   -0.449988   30.93089  0.8472E-14  0.1480E-04  0.5324E-07  0.1228E-02  0.1681E-03  0.1133E+02
   -0.499988   30.93178  0.8472E-14  0.1510E-04  0.5166E-07  0.1318E-02  0.1571E-03  0.1101E+02
   -0.549989   30.93259  0.8472E-14  0.1536E-04  0.5035E-07  0.1399E-02  0.1472E-03  0.1089E+02
   -0.599989   30.93334  0.8472E-14  0.1559E-04  0.4925E-07  0.1473E-02  0.1383E-03  0.1089E+02
   -0.649990   30.93405  0.8472E-14  0.1578E-04  0.4833E-07  0.1539E-02  0.1302E-03  0.1107E+02
   -0.699992   30.93471  0.8472E-14  0.1595E-04  0.4757E-07  0.1597E-02  0.1227E-03  0.1131E+02
   -0.749993   30.93535  0.8472E-14  0.1609E-04  0.4693E-07  0.1648E-02  0.1158E-03  0.1173E+02
   -0.799994   30.93595  0.8472E-14  0.1620E-04  0.4642E-07  0.1690E-02  0.1094E-03  0.1222E+02
   -0.849996   30.93654  0.8472E-14  0.1629E-04  0.4602E-07  0.1725E-02  0.1034E-03  0.1292E+02
   -0.899998   30.93711  0.8472E-14  0.1636E-04  0.4572E-07  0.1751E-02  0.9771E-04  0.1370E+02
   -0.949999   30.93766  0.8472E-14  0.1641E-04  0.4554E-07  0.1769E-02  0.9237E-04  0.1475E+02
   -1.000001   30.93821  0.8472E-14  0.1643E-04  0.4546E-07  0.1778E-02  0.8733E-04  0.1594E+02
   -1.050003   30.93874  0.8472E-14  0.1644E-04  0.4549E-07  0.1777E-02  0.8253E-04  0.1818E+02
   -1.100004   30.93928  0.8472E-14  0.1642E-04  0.4564E-07  0.1872E-02  0.7796E-04  0.5980E+02
   -1.150006   30.93979  0.8472E-14  0.1637E-04  0.4595E-07  0.1681E-02  0.7390E-04  0.1391E+03
   -1.200008   30.94035  0.8472E-14  0.1630E-04  0.4639E-07  0.1712E-02  0.6962E-04  0.2664E+02
   -1.250009   30.94090  0.8472E-14  0.1620E-04  0.4703E-07  0.1680E-02  0.6556E-04  0.2851E+02
   -1.300010   30.94146  0.8472E-14  0.1608E-04  0.4789E-07  0.1628E-02  0.6164E-04  0.3364E+02
   -1.350011   30.94204  0.8472E-14  0.1592E-04  0.4906E-07  0.1566E-02  0.5784E-04  0.4053E+02
   -1.400012   30.94264  0.8472E-14  0.1572E-04  0.5063E-07  0.1485E-02  0.5412E-04  0.5063E+02
   -1.450013   30.94327  0.8472E-14  0.1547E-04  0.5274E-07  0.1405E-02  0.5047E-04  0.6526E+02
   -1.500014   30.94395  0.8472E-14  0.1517E-04  0.5568E-07  0.1292E-02  0.4687E-04  0.9017E+02
   -1.550014   30.94469  0.8472E-14  0.1479E-04  0.5986E-07  0.1207E-02  0.4325E-04  0.1329E+03
   -1.600014   30.94550  0.8472E-14  0.1432E-04  0.6633E-07  0.1062E-02  0.3968E-04  0.3202E+03
   -1.650014   30.94652  0.8472E-14  0.1370E-04  0.7648E-07  0.9803E-03  0.3580E-04  0.4971E+03
   -1.700013   30.94770  0.8472E-14  0.1285E-04  0.9446E-07  0.7998E-03  0.3192E-04 -0.4038E+05
   -1.750013   30.94975  0.8472E-14  0.1176E-04  0.1232E-06  0.7189E-03  0.2686E-04  0.9142E+06
   -1.800011   30.95134  0.8472E-14  0.1033E-04  0.1834E-06  0.5039E-03  0.2305E-04 -0.4403E+06
   -1.850010   30.95867  0.8472E-14  0.8771E-05  0.2998E-06  0.4633E-03  0.1625E-04  0.1399E+09
   -1.900007   30.95687  0.8472E-14  0.6975E-05  0.6298E-06  0.2149E-03  0.1327E-04  0.6722E+06
   -1.950005   30.97874  0.8472E-14  0.4936E-05  0.1542E-05  0.1984E-03  0.7111E-05 -0.1152E+07
   -2.000002   30.98035  0.8472E-14  0.0000E+00  0.0000E+00  0.0000E+00  0.1348E-04  0.0000E+00
