 1 - depth, m
 2 - temperature, C
 3 - salinity, kg/kg
 4 - turbulent kinetic energy, m**2/s**2
 5 - dissipation rate, m**2/s**3
 6 - kinematic heat conductance, m**2/s
 7 - modulus of horizontal velocity, m/s
 8 - Richardson number, n/d
   -0.000000   29.88910  0.1283E-12  0.4891E-05  0.2769E-06  0.4930E-04  0.2724E-02  0.2124E+04
   -0.049997   29.91885  0.1283E-12  0.8055E-05  0.1218E-06  0.1873E-03  0.1480E-02  0.8605E+02
   -0.099994   29.92843  0.1283E-12  0.9564E-05  0.8560E-07  0.3765E-03  0.1134E-02  0.6971E+01
   -0.149992   29.93165  0.1283E-12  0.1054E-04  0.7185E-07  0.4688E-03  0.1003E-02  0.3499E+01
   -0.199991   29.93412  0.1283E-12  0.1130E-04  0.6377E-07  0.6115E-03  0.8994E-03  0.2275E+01
   -0.249989   29.93596  0.1283E-12  0.1191E-04  0.5845E-07  0.7281E-03  0.8204E-03  0.1696E+01
   -0.299988   29.93745  0.1283E-12  0.1241E-04  0.5463E-07  0.8371E-03  0.7544E-03  0.1405E+01
   -0.349988   29.93871  0.1283E-12  0.1284E-04  0.5168E-07  0.9421E-03  0.6963E-03  0.1321E+01
   -0.399988   29.93980  0.1283E-12  0.1321E-04  0.4927E-07  0.1050E-02  0.6420E-03  0.1284E+01
   -0.449988   29.94076  0.1283E-12  0.1355E-04  0.4725E-07  0.1156E-02  0.5921E-03  0.1272E+01
   -0.499988   29.94160  0.1283E-12  0.1385E-04  0.4556E-07  0.1255E-02  0.5472E-03  0.1269E+01
   -0.549989   29.94237  0.1283E-12  0.1410E-04  0.4413E-07  0.1347E-02  0.5068E-03  0.1264E+01
   -0.599990   29.94307  0.1283E-12  0.1432E-04  0.4293E-07  0.1430E-02  0.4703E-03  0.1256E+01
   -0.649991   29.94371  0.1283E-12  0.1450E-04  0.4193E-07  0.1504E-02  0.4374E-03  0.1250E+01
   -0.699992   29.94431  0.1283E-12  0.1465E-04  0.4109E-07  0.1568E-02  0.4076E-03  0.1241E+01
   -0.749993   29.94488  0.1283E-12  0.1477E-04  0.4040E-07  0.1621E-02  0.3806E-03  0.1237E+01
   -0.799995   29.94542  0.1283E-12  0.1486E-04  0.3984E-07  0.1665E-02  0.3562E-03  0.1232E+01
   -0.849996   29.94594  0.1283E-12  0.1493E-04  0.3940E-07  0.1698E-02  0.3340E-03  0.1239E+01
   -0.899998   29.94645  0.1283E-12  0.1497E-04  0.3907E-07  0.1722E-02  0.3137E-03  0.1253E+01
   -0.950000   29.94694  0.1283E-12  0.1499E-04  0.3883E-07  0.1737E-02  0.2952E-03  0.1288E+01
   -1.000001   29.94742  0.1283E-12  0.1499E-04  0.3869E-07  0.1743E-02  0.2781E-03  0.1345E+01
   -1.050003   29.94789  0.1283E-12  0.1497E-04  0.3865E-07  0.1740E-02  0.2623E-03  0.1492E+01
   -1.100005   29.94837  0.1283E-12  0.1494E-04  0.3871E-07  0.1836E-02  0.2474E-03  0.4853E+01
   -1.150006   29.94881  0.1283E-12  0.1488E-04  0.3889E-07  0.1640E-02  0.2344E-03  0.1130E+02
   -1.200008   29.94930  0.1283E-12  0.1480E-04  0.3918E-07  0.1675E-02  0.2206E-03  0.2148E+01
   -1.250009   29.94978  0.1283E-12  0.1470E-04  0.3963E-07  0.1644E-02  0.2075E-03  0.2283E+01
   -1.300011   29.95026  0.1283E-12  0.1457E-04  0.4027E-07  0.1593E-02  0.1949E-03  0.2679E+01
   -1.350012   29.95076  0.1283E-12  0.1441E-04  0.4114E-07  0.1533E-02  0.1827E-03  0.3207E+01
   -1.400013   29.95127  0.1283E-12  0.1422E-04  0.4232E-07  0.1456E-02  0.1708E-03  0.3973E+01
   -1.450014   29.95181  0.1283E-12  0.1399E-04  0.4393E-07  0.1379E-02  0.1591E-03  0.5061E+01
   -1.500014   29.95238  0.1283E-12  0.1371E-04  0.4617E-07  0.1267E-02  0.1476E-03  0.6888E+01
   -1.550015   29.95301  0.1283E-12  0.1338E-04  0.4934E-07  0.1186E-02  0.1361E-03  0.9778E+01
   -1.600015   29.95368  0.1283E-12  0.1296E-04  0.5423E-07  0.1041E-02  0.1248E-03  0.1886E+02
   -1.650015   29.95451  0.1283E-12  0.1243E-04  0.6183E-07  0.9691E-03  0.1127E-03  0.1400E+03
   -1.700014   29.95543  0.1283E-12  0.1169E-04  0.7565E-07  0.7838E-03  0.1009E-03  0.2657E+03
   -1.750013   29.95712  0.1283E-12  0.1070E-04  0.9842E-07  0.7095E-03  0.8489E-04  0.1168E+06
   -1.800012   29.95850  0.1283E-12  0.9381E-05  0.1479E-06  0.4866E-03  0.7263E-04  0.1550E+05
   -1.850010   29.96426  0.1283E-12  0.7908E-05  0.2383E-06  0.4492E-03  0.5115E-04  0.8750E+07
   -1.900008   29.96304  0.1283E-12  0.6274E-05  0.5003E-06  0.2095E-03  0.4155E-04  0.2555E+05
   -1.950006   29.98075  0.1283E-12  0.4394E-05  0.1246E-05  0.1850E-03  0.2220E-04 -0.5666E+05
   -2.000003   29.98322  0.1283E-12  0.0000E+00  0.0000E+00  0.0000E+00  0.4198E-04  0.0000E+00
