 1 - depth, m
 2 - temperature, C
 3 - salinity, kg/kg
 4 - turbulent kinetic energy, m**2/s**2
 5 - dissipation rate, m**2/s**3
 6 - kinematic heat conductance, m**2/s
 7 - modulus of horizontal velocity, m/s
 8 - Richardson number, n/d
   -0.000000   30.82073  0.2550E-14  0.4818E-05  0.3023E-06  0.5058E-04  0.1173E-02  0.9636E+04
   -0.049997   30.85078  0.2550E-14  0.8332E-05  0.1343E-06  0.1786E-03  0.6690E-03  0.5014E+02
   -0.099994   30.86248  0.2550E-14  0.1012E-04  0.9235E-07  0.4072E-03  0.4879E-03  0.4623E+02
   -0.149992   30.86563  0.2550E-14  0.1124E-04  0.7763E-07  0.4857E-03  0.4311E-03  0.2269E+02
   -0.199991   30.86816  0.2550E-14  0.1211E-04  0.6899E-07  0.6507E-03  0.3849E-03  0.1466E+02
   -0.249989   30.87000  0.2550E-14  0.1281E-04  0.6335E-07  0.7772E-03  0.3504E-03  0.1092E+02
   -0.299988   30.87149  0.2550E-14  0.1338E-04  0.5933E-07  0.9041E-03  0.3217E-03  0.8699E+01
   -0.349988   30.87275  0.2550E-14  0.1385E-04  0.5632E-07  0.1019E-02  0.2971E-03  0.7495E+01
   -0.399988   30.87384  0.2550E-14  0.1425E-04  0.5399E-07  0.1124E-02  0.2755E-03  0.6662E+01
   -0.449988   30.87480  0.2550E-14  0.1460E-04  0.5210E-07  0.1222E-02  0.2563E-03  0.6295E+01
   -0.499988   30.87568  0.2550E-14  0.1490E-04  0.5054E-07  0.1311E-02  0.2395E-03  0.6090E+01
   -0.549989   30.87647  0.2550E-14  0.1516E-04  0.4924E-07  0.1394E-02  0.2243E-03  0.6052E+01
   -0.599989   30.87721  0.2550E-14  0.1538E-04  0.4815E-07  0.1468E-02  0.2107E-03  0.6017E+01
   -0.649990   30.87790  0.2550E-14  0.1558E-04  0.4724E-07  0.1535E-02  0.1981E-03  0.6143E+01
   -0.699992   30.87856  0.2550E-14  0.1575E-04  0.4648E-07  0.1595E-02  0.1867E-03  0.6239E+01
   -0.749993   30.87918  0.2550E-14  0.1589E-04  0.4584E-07  0.1646E-02  0.1761E-03  0.6503E+01
   -0.799994   30.87977  0.2550E-14  0.1601E-04  0.4533E-07  0.1691E-02  0.1662E-03  0.6725E+01
   -0.849996   30.88034  0.2550E-14  0.1610E-04  0.4492E-07  0.1727E-02  0.1570E-03  0.7141E+01
   -0.899998   30.88090  0.2550E-14  0.1618E-04  0.4462E-07  0.1755E-02  0.1484E-03  0.7511E+01
   -0.949999   30.88144  0.2550E-14  0.1623E-04  0.4441E-07  0.1775E-02  0.1402E-03  0.8125E+01
   -1.000001   30.88197  0.2550E-14  0.1626E-04  0.4432E-07  0.1787E-02  0.1325E-03  0.8694E+01
   -1.050003   30.88249  0.2550E-14  0.1627E-04  0.4432E-07  0.1789E-02  0.1252E-03  0.9963E+01
   -1.100004   30.88301  0.2550E-14  0.1626E-04  0.4444E-07  0.1872E-02  0.1183E-03  0.3299E+02
   -1.150006   30.88351  0.2550E-14  0.1622E-04  0.4471E-07  0.1712E-02  0.1120E-03  0.7300E+02
   -1.200008   30.88405  0.2550E-14  0.1617E-04  0.4509E-07  0.1734E-02  0.1056E-03  0.1434E+02
   -1.250009   30.88458  0.2550E-14  0.1608E-04  0.4566E-07  0.1704E-02  0.9941E-04  0.1519E+02
   -1.300010   30.88512  0.2550E-14  0.1597E-04  0.4644E-07  0.1655E-02  0.9345E-04  0.1793E+02
   -1.350012   30.88567  0.2550E-14  0.1583E-04  0.4748E-07  0.1598E-02  0.8770E-04  0.2122E+02
   -1.400013   30.88625  0.2550E-14  0.1565E-04  0.4888E-07  0.1521E-02  0.8207E-04  0.2640E+02
   -1.450013   30.88685  0.2550E-14  0.1543E-04  0.5075E-07  0.1446E-02  0.7656E-04  0.3323E+02
   -1.500014   30.88749  0.2550E-14  0.1516E-04  0.5333E-07  0.1333E-02  0.7114E-04  0.4544E+02
   -1.550014   30.88819  0.2550E-14  0.1482E-04  0.5695E-07  0.1252E-02  0.6570E-04  0.6383E+02
   -1.600014   30.88894  0.2550E-14  0.1440E-04  0.6250E-07  0.1103E-02  0.6038E-04  0.1415E+03
   -1.650014   30.88988  0.2550E-14  0.1386E-04  0.7091E-07  0.1025E-02  0.5461E-04  0.5377E+03
   -1.700014   30.89089  0.2550E-14  0.1312E-04  0.8573E-07  0.8359E-03  0.4907E-04 -0.1939E+05
   -1.750013   30.89273  0.2550E-14  0.1215E-04  0.1101E-06  0.7616E-03  0.4169E-04  0.6204E+06
   -1.800011   30.89412  0.2550E-14  0.1085E-04  0.1606E-06  0.5388E-03  0.3603E-04  0.1408E+06
   -1.850010   30.90009  0.2550E-14  0.9353E-05  0.2575E-06  0.4919E-03  0.2625E-04  0.5519E+08
   -1.900008   30.89922  0.2550E-14  0.7475E-05  0.5279E-06  0.2257E-03  0.2140E-04  0.2279E+06
   -1.950005   30.91777  0.2550E-14  0.5185E-05  0.1332E-05  0.1824E-03  0.1178E-04 -0.1436E+07
   -2.000002   30.92171  0.2550E-14  0.0000E+00  0.0000E+00  0.0000E+00  0.2068E-04  0.0000E+00
