 1 - depth, m
 2 - temperature, C
 3 - salinity, kg/kg
 4 - turbulent kinetic energy, m**2/s**2
 5 - dissipation rate, m**2/s**3
 6 - kinematic heat conductance, m**2/s
 7 - modulus of horizontal velocity, m/s
 8 - Richardson number, n/d
   -0.000000   29.87296  0.2313E-13  0.4579E-05  0.2768E-06  0.4935E-04  0.1348E-02  0.4413E+04
   -0.049997   29.90222  0.2313E-13  0.7877E-05  0.1234E-06  0.1721E-03  0.7698E-03  0.4876E+03
   -0.099994   29.91367  0.2313E-13  0.9557E-05  0.8489E-07  0.3925E-03  0.5608E-03  0.2661E+02
   -0.149992   29.91680  0.2313E-13  0.1060E-04  0.7137E-07  0.4703E-03  0.4952E-03  0.1290E+02
   -0.199991   29.91930  0.2313E-13  0.1141E-04  0.6340E-07  0.6272E-03  0.4418E-03  0.8310E+01
   -0.249989   29.92112  0.2313E-13  0.1205E-04  0.5815E-07  0.7495E-03  0.4018E-03  0.6132E+01
   -0.299989   29.92260  0.2313E-13  0.1257E-04  0.5439E-07  0.8707E-03  0.3686E-03  0.4874E+01
   -0.349988   29.92384  0.2313E-13  0.1300E-04  0.5156E-07  0.9808E-03  0.3400E-03  0.4166E+01
   -0.399988   29.92491  0.2313E-13  0.1336E-04  0.4934E-07  0.1081E-02  0.3148E-03  0.3709E+01
   -0.449988   29.92586  0.2313E-13  0.1367E-04  0.4753E-07  0.1175E-02  0.2926E-03  0.3483E+01
   -0.499988   29.92672  0.2313E-13  0.1393E-04  0.4603E-07  0.1261E-02  0.2730E-03  0.3387E+01
   -0.549989   29.92750  0.2313E-13  0.1416E-04  0.4476E-07  0.1339E-02  0.2554E-03  0.3342E+01
   -0.599990   29.92822  0.2313E-13  0.1436E-04  0.4368E-07  0.1411E-02  0.2396E-03  0.3339E+01
   -0.649991   29.92889  0.2313E-13  0.1452E-04  0.4276E-07  0.1475E-02  0.2251E-03  0.3380E+01
   -0.699992   29.92953  0.2313E-13  0.1466E-04  0.4197E-07  0.1532E-02  0.2118E-03  0.3448E+01
   -0.749993   29.93013  0.2313E-13  0.1477E-04  0.4130E-07  0.1581E-02  0.1995E-03  0.3558E+01
   -0.799995   29.93070  0.2313E-13  0.1487E-04  0.4073E-07  0.1624E-02  0.1881E-03  0.3696E+01
   -0.849997   29.93125  0.2313E-13  0.1493E-04  0.4025E-07  0.1659E-02  0.1775E-03  0.3879E+01
   -0.899998   29.93178  0.2313E-13  0.1498E-04  0.3987E-07  0.1686E-02  0.1675E-03  0.4099E+01
   -0.950000   29.93230  0.2313E-13  0.1501E-04  0.3958E-07  0.1705E-02  0.1581E-03  0.4374E+01
   -1.000002   29.93280  0.2313E-13  0.1501E-04  0.3937E-07  0.1717E-02  0.1493E-03  0.4704E+01
   -1.050003   29.93330  0.2313E-13  0.1500E-04  0.3925E-07  0.1719E-02  0.1408E-03  0.5310E+01
   -1.100005   29.93378  0.2313E-13  0.1497E-04  0.3924E-07  0.1799E-02  0.1328E-03  0.1767E+02
   -1.150007   29.93424  0.2313E-13  0.1491E-04  0.3933E-07  0.1648E-02  0.1257E-03  0.3922E+02
   -1.200008   29.93474  0.2313E-13  0.1484E-04  0.3954E-07  0.1669E-02  0.1183E-03  0.7560E+01
   -1.250010   29.93523  0.2313E-13  0.1474E-04  0.3989E-07  0.1640E-02  0.1112E-03  0.8004E+01
   -1.300011   29.93572  0.2313E-13  0.1461E-04  0.4041E-07  0.1595E-02  0.1045E-03  0.9302E+01
   -1.350013   29.93622  0.2313E-13  0.1446E-04  0.4116E-07  0.1539E-02  0.9788E-04  0.1104E+02
   -1.400014   29.93674  0.2313E-13  0.1427E-04  0.4219E-07  0.1467E-02  0.9149E-04  0.1350E+02
   -1.450014   29.93727  0.2313E-13  0.1405E-04  0.4361E-07  0.1393E-02  0.8523E-04  0.1700E+02
   -1.500015   29.93783  0.2313E-13  0.1378E-04  0.4559E-07  0.1286E-02  0.7911E-04  0.2269E+02
   -1.550015   29.93844  0.2313E-13  0.1346E-04  0.4841E-07  0.1204E-02  0.7298E-04  0.3160E+02
   -1.600015   29.93910  0.2313E-13  0.1306E-04  0.5270E-07  0.1062E-02  0.6699E-04  0.5473E+02
   -1.650015   29.93987  0.2313E-13  0.1256E-04  0.5931E-07  0.9859E-03  0.6063E-04  0.1169E+04
   -1.700015   29.94072  0.2313E-13  0.1188E-04  0.7130E-07  0.8071E-03  0.5452E-04 -0.1265E+05
   -1.750014   29.94221  0.2313E-13  0.1095E-04  0.9127E-07  0.7292E-03  0.4644E-04  0.1808E+06
   -1.800013   29.94351  0.2313E-13  0.9686E-05  0.1334E-06  0.5120E-03  0.3991E-04  0.2003E+06
   -1.850011   29.94828  0.2313E-13  0.8212E-05  0.2121E-06  0.4619E-03  0.2891E-04  0.9599E+07
   -1.900009   29.94786  0.2313E-13  0.6463E-05  0.4455E-06  0.2099E-03  0.2333E-04  0.2806E+06
   -1.950006   29.96337  0.2313E-13  0.4463E-05  0.1129E-05  0.1772E-03  0.1261E-04 -0.6850E+06
   -2.000003   29.96584  0.2313E-13  0.0000E+00  0.0000E+00  0.0000E+00  0.2260E-04  0.0000E+00
