 1 - depth, m
 2 - temperature, C
 3 - salinity, kg/kg
 4 - turbulent kinetic energy, m**2/s**2
 5 - dissipation rate, m**2/s**3
 6 - kinematic heat conductance, m**2/s
 7 - modulus of horizontal velocity, m/s
 8 - Richardson number, n/d
   -0.000000   30.33341  0.2353E-13  0.4797E-05  0.2964E-06  0.5072E-04  0.1914E-02  0.8146E+04
   -0.049997   30.36267  0.2353E-13  0.8126E-05  0.1320E-06  0.1729E-03  0.1101E-02  0.1737E+04
   -0.099994   30.37434  0.2353E-13  0.9863E-05  0.9022E-07  0.3951E-03  0.8019E-03  0.1294E+02
   -0.149992   30.37752  0.2353E-13  0.1095E-04  0.7560E-07  0.4739E-03  0.7081E-03  0.6294E+01
   -0.199991   30.38007  0.2353E-13  0.1179E-04  0.6705E-07  0.6341E-03  0.6318E-03  0.4031E+01
   -0.249989   30.38191  0.2353E-13  0.1246E-04  0.6145E-07  0.7584E-03  0.5749E-03  0.2966E+01
   -0.299988   30.38341  0.2353E-13  0.1301E-04  0.5746E-07  0.8825E-03  0.5275E-03  0.2358E+01
   -0.349988   30.38467  0.2353E-13  0.1346E-04  0.5448E-07  0.9950E-03  0.4869E-03  0.2012E+01
   -0.399988   30.38576  0.2353E-13  0.1384E-04  0.5215E-07  0.1098E-02  0.4510E-03  0.1793E+01
   -0.449988   30.38673  0.2353E-13  0.1417E-04  0.5027E-07  0.1194E-02  0.4195E-03  0.1681E+01
   -0.499988   30.38760  0.2353E-13  0.1446E-04  0.4871E-07  0.1282E-02  0.3916E-03  0.1636E+01
   -0.549989   30.38840  0.2353E-13  0.1470E-04  0.4740E-07  0.1362E-02  0.3667E-03  0.1611E+01
   -0.599990   30.38913  0.2353E-13  0.1492E-04  0.4630E-07  0.1436E-02  0.3441E-03  0.1614E+01
   -0.649991   30.38982  0.2353E-13  0.1510E-04  0.4537E-07  0.1501E-02  0.3236E-03  0.1631E+01
   -0.699992   30.39047  0.2353E-13  0.1525E-04  0.4459E-07  0.1560E-02  0.3047E-03  0.1670E+01
   -0.749993   30.39109  0.2353E-13  0.1538E-04  0.4393E-07  0.1610E-02  0.2872E-03  0.1722E+01
   -0.799995   30.39167  0.2353E-13  0.1549E-04  0.4338E-07  0.1654E-02  0.2710E-03  0.1796E+01
   -0.849996   30.39224  0.2353E-13  0.1557E-04  0.4294E-07  0.1689E-02  0.2559E-03  0.1884E+01
   -0.899998   30.39279  0.2353E-13  0.1563E-04  0.4259E-07  0.1717E-02  0.2417E-03  0.2000E+01
   -0.950000   30.39332  0.2353E-13  0.1567E-04  0.4235E-07  0.1736E-02  0.2283E-03  0.2135E+01
   -1.000001   30.39385  0.2353E-13  0.1569E-04  0.4220E-07  0.1748E-02  0.2157E-03  0.2309E+01
   -1.050003   30.39436  0.2353E-13  0.1569E-04  0.4215E-07  0.1750E-02  0.2037E-03  0.2610E+01
   -1.100005   30.39487  0.2353E-13  0.1567E-04  0.4221E-07  0.1832E-02  0.1922E-03  0.8699E+01
   -1.150006   30.39536  0.2353E-13  0.1562E-04  0.4240E-07  0.1674E-02  0.1820E-03  0.1954E+02
   -1.200008   30.39589  0.2353E-13  0.1555E-04  0.4271E-07  0.1696E-02  0.1714E-03  0.3759E+01
   -1.250009   30.39640  0.2353E-13  0.1546E-04  0.4318E-07  0.1666E-02  0.1613E-03  0.4012E+01
   -1.300011   30.39693  0.2353E-13  0.1534E-04  0.4386E-07  0.1618E-02  0.1516E-03  0.4680E+01
   -1.350012   30.39746  0.2353E-13  0.1519E-04  0.4478E-07  0.1561E-02  0.1422E-03  0.5605E+01
   -1.400013   30.39802  0.2353E-13  0.1500E-04  0.4604E-07  0.1486E-02  0.1330E-03  0.6905E+01
   -1.450014   30.39860  0.2353E-13  0.1478E-04  0.4774E-07  0.1411E-02  0.1240E-03  0.8799E+01
   -1.500014   30.39921  0.2353E-13  0.1450E-04  0.5011E-07  0.1301E-02  0.1151E-03  0.1193E+02
   -1.550015   30.39988  0.2353E-13  0.1417E-04  0.5345E-07  0.1220E-02  0.1062E-03  0.1699E+02
   -1.600015   30.40060  0.2353E-13  0.1375E-04  0.5860E-07  0.1074E-02  0.9759E-04  0.3418E+02
   -1.650015   30.40149  0.2353E-13  0.1321E-04  0.6654E-07  0.9977E-03  0.8823E-04 -0.7741E+02
   -1.700014   30.40246  0.2353E-13  0.1247E-04  0.8063E-07  0.8117E-03  0.7922E-04 -0.4029E+03
   -1.750013   30.40420  0.2353E-13  0.1149E-04  0.1039E-06  0.7388E-03  0.6725E-04  0.1967E+05
   -1.800012   30.40562  0.2353E-13  0.1019E-04  0.1526E-06  0.5149E-03  0.5794E-04  0.3580E+05
   -1.850010   30.41137  0.2353E-13  0.8701E-05  0.2449E-06  0.4763E-03  0.4195E-04  0.1191E+07
   -1.900008   30.41039  0.2353E-13  0.6917E-05  0.5114E-06  0.2177E-03  0.3417E-04  0.1133E+07
   -1.950006   30.42822  0.2353E-13  0.4808E-05  0.1291E-05  0.1832E-03  0.1860E-04 -0.4408E+06
   -2.000003   30.43124  0.2353E-13  0.0000E+00  0.0000E+00  0.0000E+00  0.3309E-04  0.0000E+00
