 1 - depth, m
 2 - temperature, C
 3 - salinity, kg/kg
 4 - turbulent kinetic energy, m**2/s**2
 5 - dissipation rate, m**2/s**3
 6 - kinematic heat conductance, m**2/s
 7 - modulus of horizontal velocity, m/s
 8 - Richardson number, n/d
   -0.000000   30.30368  0.1002E-13  0.4979E-05  0.3162E-06  0.5185E-04  0.1861E-02  0.3065E+04
   -0.049997   30.33419  0.1002E-13  0.8438E-05  0.1408E-06  0.1760E-03  0.1073E-02  0.2293E+04
   -0.099994   30.34649  0.1002E-13  0.1026E-04  0.9618E-07  0.4023E-03  0.7817E-03  0.1382E+02
   -0.149992   30.34980  0.1002E-13  0.1139E-04  0.8055E-07  0.4814E-03  0.6908E-03  0.6770E+01
   -0.199991   30.35246  0.1002E-13  0.1228E-04  0.7143E-07  0.6461E-03  0.6167E-03  0.4327E+01
   -0.249989   30.35439  0.1002E-13  0.1299E-04  0.6549E-07  0.7723E-03  0.5615E-03  0.3194E+01
   -0.299988   30.35596  0.1002E-13  0.1356E-04  0.6127E-07  0.8993E-03  0.5156E-03  0.2539E+01
   -0.349988   30.35727  0.1002E-13  0.1404E-04  0.5813E-07  0.1014E-02  0.4763E-03  0.2174E+01
   -0.399988   30.35841  0.1002E-13  0.1444E-04  0.5569E-07  0.1119E-02  0.4416E-03  0.1936E+01
   -0.449988   30.35943  0.1002E-13  0.1479E-04  0.5371E-07  0.1216E-02  0.4111E-03  0.1820E+01
   -0.499988   30.36034  0.1002E-13  0.1509E-04  0.5208E-07  0.1306E-02  0.3841E-03  0.1770E+01
   -0.549989   30.36118  0.1002E-13  0.1535E-04  0.5073E-07  0.1387E-02  0.3599E-03  0.1749E+01
   -0.599989   30.36195  0.1002E-13  0.1558E-04  0.4959E-07  0.1461E-02  0.3380E-03  0.1750E+01
   -0.649990   30.36268  0.1002E-13  0.1577E-04  0.4864E-07  0.1527E-02  0.3180E-03  0.1776E+01
   -0.699992   30.36336  0.1002E-13  0.1594E-04  0.4784E-07  0.1586E-02  0.2997E-03  0.1816E+01
   -0.749993   30.36401  0.1002E-13  0.1608E-04  0.4718E-07  0.1636E-02  0.2827E-03  0.1882E+01
   -0.799994   30.36464  0.1002E-13  0.1619E-04  0.4664E-07  0.1679E-02  0.2670E-03  0.1961E+01
   -0.849996   30.36524  0.1002E-13  0.1628E-04  0.4621E-07  0.1713E-02  0.2522E-03  0.2069E+01
   -0.899998   30.36582  0.1002E-13  0.1634E-04  0.4589E-07  0.1740E-02  0.2384E-03  0.2196E+01
   -0.949999   30.36639  0.1002E-13  0.1638E-04  0.4568E-07  0.1757E-02  0.2254E-03  0.2360E+01
   -1.000001   30.36695  0.1002E-13  0.1640E-04  0.4558E-07  0.1767E-02  0.2130E-03  0.2552E+01
   -1.050003   30.36750  0.1002E-13  0.1640E-04  0.4560E-07  0.1766E-02  0.2013E-03  0.2906E+01
   -1.100004   30.36805  0.1002E-13  0.1638E-04  0.4573E-07  0.1861E-02  0.1901E-03  0.9543E+01
   -1.150006   30.36856  0.1002E-13  0.1633E-04  0.4601E-07  0.1668E-02  0.1802E-03  0.2238E+02
   -1.200008   30.36914  0.1002E-13  0.1625E-04  0.4644E-07  0.1700E-02  0.1697E-03  0.4262E+01
   -1.250009   30.36970  0.1002E-13  0.1615E-04  0.4706E-07  0.1668E-02  0.1598E-03  0.4555E+01
   -1.300010   30.37027  0.1002E-13  0.1602E-04  0.4791E-07  0.1615E-02  0.1502E-03  0.5375E+01
   -1.350012   30.37086  0.1002E-13  0.1585E-04  0.4906E-07  0.1553E-02  0.1409E-03  0.6480E+01
   -1.400013   30.37147  0.1002E-13  0.1564E-04  0.5061E-07  0.1473E-02  0.1318E-03  0.8102E+01
   -1.450013   30.37212  0.1002E-13  0.1539E-04  0.5273E-07  0.1391E-02  0.1229E-03  0.1046E+02
   -1.500014   30.37280  0.1002E-13  0.1508E-04  0.5567E-07  0.1279E-02  0.1141E-03  0.1450E+02
   -1.550014   30.37356  0.1002E-13  0.1469E-04  0.5988E-07  0.1191E-02  0.1053E-03  0.2146E+02
   -1.600014   30.37439  0.1002E-13  0.1421E-04  0.6642E-07  0.1051E-02  0.9652E-04  0.6015E+02
   -1.650014   30.37543  0.1002E-13  0.1358E-04  0.7672E-07  0.9627E-03  0.8707E-04  0.4060E+03
   -1.700014   30.37665  0.1002E-13  0.1271E-04  0.9481E-07  0.7907E-03  0.7751E-04  0.2589E+04
   -1.750013   30.37874  0.1002E-13  0.1159E-04  0.1243E-06  0.7007E-03  0.6522E-04  0.6663E+06
   -1.800011   30.38047  0.1002E-13  0.1011E-04  0.1888E-06  0.4888E-03  0.5566E-04  0.5073E+05
   -1.850010   30.38803  0.1002E-13  0.8544E-05  0.3087E-06  0.4504E-03  0.3900E-04  0.1744E+08
   -1.900008   30.38599  0.1002E-13  0.6753E-05  0.6628E-06  0.2060E-03  0.3175E-04 -0.2394E+05
   -1.950005   30.40851  0.1002E-13  0.4799E-05  0.1595E-05  0.2044E-03  0.1673E-04 -0.3220E+06
   -2.000002   30.40919  0.1002E-13  0.0000E+00  0.0000E+00  0.0000E+00  0.3255E-04  0.0000E+00
