 1 - depth, m
 2 - temperature, C
 3 - salinity, kg/kg
 4 - turbulent kinetic energy, m**2/s**2
 5 - dissipation rate, m**2/s**3
 6 - kinematic heat conductance, m**2/s
 7 - modulus of horizontal velocity, m/s
 8 - Richardson number, n/d
   -0.000000   30.74218  0.8960E-14  0.4985E-05  0.3157E-06  0.5132E-04  0.1505E-02  0.6681E+04
   -0.049997   30.77371  0.8960E-14  0.8519E-05  0.1410E-06  0.1787E-03  0.8614E-03  0.3905E+03
   -0.099994   30.78591  0.8960E-14  0.1034E-04  0.9699E-07  0.4015E-03  0.6323E-03  0.2149E+02
   -0.149992   30.78930  0.8960E-14  0.1147E-04  0.8128E-07  0.4826E-03  0.5585E-03  0.1054E+02
   -0.199991   30.79199  0.8960E-14  0.1236E-04  0.7209E-07  0.6462E-03  0.4988E-03  0.6740E+01
   -0.249989   30.79395  0.8960E-14  0.1306E-04  0.6606E-07  0.7726E-03  0.4541E-03  0.4968E+01
   -0.299988   30.79553  0.8960E-14  0.1362E-04  0.6176E-07  0.8989E-03  0.4170E-03  0.3943E+01
   -0.349988   30.79685  0.8960E-14  0.1409E-04  0.5853E-07  0.1013E-02  0.3852E-03  0.3368E+01
   -0.399988   30.79800  0.8960E-14  0.1449E-04  0.5601E-07  0.1118E-02  0.3571E-03  0.2995E+01
   -0.449988   30.79902  0.8960E-14  0.1482E-04  0.5395E-07  0.1215E-02  0.3324E-03  0.2810E+01
   -0.499988   30.79993  0.8960E-14  0.1511E-04  0.5225E-07  0.1304E-02  0.3106E-03  0.2727E+01
   -0.549989   30.80077  0.8960E-14  0.1536E-04  0.5082E-07  0.1385E-02  0.2910E-03  0.2689E+01
   -0.599989   30.80154  0.8960E-14  0.1557E-04  0.4961E-07  0.1459E-02  0.2733E-03  0.2684E+01
   -0.649990   30.80226  0.8960E-14  0.1576E-04  0.4858E-07  0.1525E-02  0.2571E-03  0.2715E+01
   -0.699992   30.80294  0.8960E-14  0.1591E-04  0.4770E-07  0.1584E-02  0.2422E-03  0.2769E+01
   -0.749993   30.80358  0.8960E-14  0.1603E-04  0.4696E-07  0.1634E-02  0.2285E-03  0.2857E+01
   -0.799994   30.80419  0.8960E-14  0.1613E-04  0.4634E-07  0.1677E-02  0.2157E-03  0.2969E+01
   -0.849996   30.80478  0.8960E-14  0.1620E-04  0.4583E-07  0.1713E-02  0.2038E-03  0.3118E+01
   -0.899998   30.80536  0.8960E-14  0.1626E-04  0.4542E-07  0.1740E-02  0.1926E-03  0.3296E+01
   -0.949999   30.80591  0.8960E-14  0.1628E-04  0.4512E-07  0.1758E-02  0.1820E-03  0.3524E+01
   -1.000001   30.80645  0.8960E-14  0.1629E-04  0.4492E-07  0.1769E-02  0.1720E-03  0.3794E+01
   -1.050003   30.80699  0.8960E-14  0.1628E-04  0.4483E-07  0.1769E-02  0.1626E-03  0.4291E+01
   -1.100004   30.80752  0.8960E-14  0.1624E-04  0.4486E-07  0.1861E-02  0.1535E-03  0.1414E+02
   -1.150006   30.80801  0.8960E-14  0.1618E-04  0.4503E-07  0.1678E-02  0.1455E-03  0.3239E+02
   -1.200008   30.80856  0.8960E-14  0.1609E-04  0.4533E-07  0.1708E-02  0.1371E-03  0.6181E+01
   -1.250009   30.80909  0.8960E-14  0.1598E-04  0.4581E-07  0.1677E-02  0.1290E-03  0.6563E+01
   -1.300010   30.80963  0.8960E-14  0.1584E-04  0.4650E-07  0.1627E-02  0.1213E-03  0.7674E+01
   -1.350012   30.81018  0.8960E-14  0.1566E-04  0.4747E-07  0.1566E-02  0.1138E-03  0.9178E+01
   -1.400013   30.81075  0.8960E-14  0.1545E-04  0.4880E-07  0.1489E-02  0.1065E-03  0.1134E+02
   -1.450014   30.81135  0.8960E-14  0.1519E-04  0.5064E-07  0.1407E-02  0.9932E-04  0.1449E+02
   -1.500014   30.81198  0.8960E-14  0.1488E-04  0.5321E-07  0.1298E-02  0.9227E-04  0.1967E+02
   -1.550014   30.81267  0.8960E-14  0.1450E-04  0.5690E-07  0.1208E-02  0.8517E-04  0.2835E+02
   -1.600015   30.81341  0.8960E-14  0.1404E-04  0.6257E-07  0.1070E-02  0.7819E-04  0.6091E+02
   -1.650014   30.81431  0.8960E-14  0.1344E-04  0.7157E-07  0.9830E-03  0.7074E-04  0.9279E+03
   -1.700014   30.81539  0.8960E-14  0.1261E-04  0.8744E-07  0.8086E-03  0.6319E-04  0.8897E+03
   -1.750013   30.81716  0.8960E-14  0.1154E-04  0.1136E-06  0.7211E-03  0.5357E-04  0.3575E+06
   -1.800012   30.81879  0.8960E-14  0.1008E-04  0.1707E-06  0.4994E-03  0.4571E-04  0.5781E+06
   -1.850010   30.82507  0.8960E-14  0.8524E-05  0.2747E-06  0.4629E-03  0.3245E-04  0.6929E+07
   -1.900008   30.82360  0.8960E-14  0.6731E-05  0.5756E-06  0.2103E-03  0.2643E-04 -0.7868E+05
   -1.950005   30.84308  0.8960E-14  0.4732E-05  0.1419E-05  0.1963E-03  0.1407E-04 -0.5235E+06
   -2.000002   30.84322  0.8960E-14  0.0000E+00  0.0000E+00  0.0000E+00  0.2665E-04  0.0000E+00
