 1 - depth, m
 2 - temperature, C
 3 - salinity, kg/kg
 4 - turbulent kinetic energy, m**2/s**2
 5 - dissipation rate, m**2/s**3
 6 - kinematic heat conductance, m**2/s
 7 - modulus of horizontal velocity, m/s
 8 - Richardson number, n/d
   -0.000000   30.29420  0.2771E-14  0.4592E-05  0.2770E-06  0.4795E-04  0.5334E-03  0.8551E+05
   -0.049997   30.32446  0.2771E-14  0.8142E-05  0.1227E-06  0.1835E-03  0.2999E-03  0.5037E+03
   -0.099994   30.33500  0.2771E-14  0.9840E-05  0.8540E-07  0.4125E-03  0.2190E-03  0.1976E+03
   -0.149992   30.33797  0.2771E-14  0.1090E-04  0.7228E-07  0.4898E-03  0.1941E-03  0.9774E+02
   -0.199991   30.34037  0.2771E-14  0.1174E-04  0.6452E-07  0.6520E-03  0.1736E-03  0.6433E+02
   -0.249989   30.34212  0.2771E-14  0.1240E-04  0.5939E-07  0.7774E-03  0.1583E-03  0.4803E+02
   -0.299988   30.34356  0.2771E-14  0.1294E-04  0.5573E-07  0.9015E-03  0.1454E-03  0.3858E+02
   -0.349988   30.34476  0.2771E-14  0.1340E-04  0.5298E-07  0.1014E-02  0.1344E-03  0.3313E+02
   -0.399988   30.34581  0.2771E-14  0.1378E-04  0.5084E-07  0.1117E-02  0.1246E-03  0.2966E+02
   -0.449988   30.34675  0.2771E-14  0.1411E-04  0.4910E-07  0.1213E-02  0.1160E-03  0.2787E+02
   -0.499988   30.34759  0.2771E-14  0.1440E-04  0.4767E-07  0.1300E-02  0.1084E-03  0.2719E+02
   -0.549989   30.34837  0.2771E-14  0.1465E-04  0.4647E-07  0.1381E-02  0.1016E-03  0.2682E+02
   -0.599990   30.34909  0.2771E-14  0.1487E-04  0.4547E-07  0.1454E-02  0.9539E-04  0.2691E+02
   -0.649991   30.34976  0.2771E-14  0.1506E-04  0.4463E-07  0.1519E-02  0.8975E-04  0.2724E+02
   -0.699992   30.35039  0.2771E-14  0.1522E-04  0.4393E-07  0.1577E-02  0.8456E-04  0.2794E+02
   -0.749993   30.35100  0.2771E-14  0.1536E-04  0.4335E-07  0.1628E-02  0.7976E-04  0.2885E+02
   -0.799995   30.35157  0.2771E-14  0.1547E-04  0.4287E-07  0.1670E-02  0.7529E-04  0.3016E+02
   -0.849996   30.35213  0.2771E-14  0.1556E-04  0.4250E-07  0.1706E-02  0.7112E-04  0.3170E+02
   -0.899998   30.35267  0.2771E-14  0.1563E-04  0.4222E-07  0.1733E-02  0.6720E-04  0.3372E+02
   -0.950000   30.35320  0.2771E-14  0.1568E-04  0.4204E-07  0.1752E-02  0.6351E-04  0.3607E+02
   -1.000001   30.35372  0.2771E-14  0.1571E-04  0.4196E-07  0.1763E-02  0.6001E-04  0.3907E+02
   -1.050003   30.35423  0.2771E-14  0.1572E-04  0.4197E-07  0.1764E-02  0.5669E-04  0.4427E+02
   -1.100005   30.35474  0.2771E-14  0.1571E-04  0.4209E-07  0.1848E-02  0.5352E-04  0.1483E+03
   -1.150006   30.35522  0.2771E-14  0.1568E-04  0.4234E-07  0.1686E-02  0.5070E-04  0.3280E+03
   -1.200008   30.35575  0.2771E-14  0.1562E-04  0.4272E-07  0.1709E-02  0.4777E-04  0.6379E+02
   -1.250009   30.35627  0.2771E-14  0.1554E-04  0.4325E-07  0.1679E-02  0.4496E-04  0.6832E+02
   -1.300011   30.35680  0.2771E-14  0.1543E-04  0.4399E-07  0.1631E-02  0.4226E-04  0.7975E+02
   -1.350012   30.35734  0.2771E-14  0.1529E-04  0.4498E-07  0.1573E-02  0.3964E-04  0.9542E+02
   -1.400013   30.35790  0.2771E-14  0.1511E-04  0.4630E-07  0.1497E-02  0.3709E-04  0.1174E+03
   -1.450014   30.35849  0.2771E-14  0.1490E-04  0.4806E-07  0.1422E-02  0.3458E-04  0.1490E+03
   -1.500014   30.35911  0.2771E-14  0.1463E-04  0.5049E-07  0.1310E-02  0.3213E-04  0.2010E+03
   -1.550015   30.35979  0.2771E-14  0.1431E-04  0.5388E-07  0.1229E-02  0.2965E-04  0.2829E+03
   -1.600015   30.36053  0.2771E-14  0.1390E-04  0.5905E-07  0.1081E-02  0.2724E-04  0.5520E+03
   -1.650015   30.36143  0.2771E-14  0.1338E-04  0.6691E-07  0.1005E-02  0.2464E-04  0.1401E+04
   -1.700014   30.36240  0.2771E-14  0.1266E-04  0.8092E-07  0.8184E-03  0.2215E-04  0.1465E+05
   -1.750013   30.36417  0.2771E-14  0.1170E-04  0.1041E-06  0.7439E-03  0.1880E-04  0.4823E+06
   -1.800012   30.36562  0.2771E-14  0.1040E-04  0.1521E-06  0.5252E-03  0.1618E-04  0.4018E+06
   -1.850010   30.37130  0.2771E-14  0.8897E-05  0.2430E-06  0.4731E-03  0.1170E-04  0.4504E+08
   -1.900008   30.37067  0.2771E-14  0.7054E-05  0.5052E-06  0.2152E-03  0.9474E-05  0.8501E+07
   -1.950006   30.38922  0.2771E-14  0.4912E-05  0.1272E-05  0.1822E-03  0.5128E-05 -0.1799E+08
   -2.000003   30.39188  0.2771E-14  0.0000E+00  0.0000E+00  0.0000E+00  0.9235E-05  0.0000E+00
