 1 - depth, m
 2 - temperature, C
 3 - salinity, kg/kg
 4 - turbulent kinetic energy, m**2/s**2
 5 - dissipation rate, m**2/s**3
 6 - kinematic heat conductance, m**2/s
 7 - modulus of horizontal velocity, m/s
 8 - Richardson number, n/d
   -0.000000   28.95864  0.1374E-12  0.3558E-05  0.1809E-06  0.4231E-04  0.1365E-02  0.1296E+03
   -0.049997   28.98194  0.1374E-12  0.6142E-05  0.8048E-07  0.1543E-03  0.7611E-03  0.1585E+02
   -0.099995   28.99042  0.1374E-12  0.7396E-05  0.5582E-07  0.3541E-03  0.5505E-03  0.2461E+02
   -0.149992   28.99279  0.1374E-12  0.8167E-05  0.4720E-07  0.4290E-03  0.4840E-03  0.1143E+02
   -0.199991   28.99467  0.1374E-12  0.8764E-05  0.4204E-07  0.5624E-03  0.4305E-03  0.7441E+01
   -0.249990   28.99605  0.1374E-12  0.9239E-05  0.3859E-07  0.6717E-03  0.3898E-03  0.5482E+01
   -0.299989   28.99717  0.1374E-12  0.9627E-05  0.3611E-07  0.7771E-03  0.3559E-03  0.4365E+01
   -0.349988   28.99812  0.1374E-12  0.9950E-05  0.3422E-07  0.8737E-03  0.3268E-03  0.3735E+01
   -0.399988   28.99893  0.1374E-12  0.1022E-04  0.3274E-07  0.9624E-03  0.3010E-03  0.3328E+01
   -0.449988   28.99965  0.1374E-12  0.1046E-04  0.3154E-07  0.1045E-02  0.2783E-03  0.3129E+01
   -0.499989   29.00030  0.1374E-12  0.1066E-04  0.3053E-07  0.1121E-02  0.2584E-03  0.3047E+01
   -0.549989   29.00089  0.1374E-12  0.1084E-04  0.2969E-07  0.1192E-02  0.2406E-03  0.3014E+01
   -0.599990   29.00143  0.1374E-12  0.1099E-04  0.2898E-07  0.1256E-02  0.2245E-03  0.3021E+01
   -0.649991   29.00193  0.1374E-12  0.1113E-04  0.2837E-07  0.1314E-02  0.2099E-03  0.3068E+01
   -0.699992   29.00241  0.1374E-12  0.1124E-04  0.2786E-07  0.1367E-02  0.1966E-03  0.3143E+01
   -0.749994   29.00286  0.1374E-12  0.1134E-04  0.2743E-07  0.1413E-02  0.1844E-03  0.3258E+01
   -0.799995   29.00329  0.1374E-12  0.1143E-04  0.2708E-07  0.1453E-02  0.1730E-03  0.3402E+01
   -0.849997   29.00370  0.1374E-12  0.1150E-04  0.2679E-07  0.1487E-02  0.1625E-03  0.3589E+01
   -0.899999   29.00409  0.1374E-12  0.1155E-04  0.2656E-07  0.1514E-02  0.1526E-03  0.3812E+01
   -0.950000   29.00448  0.1374E-12  0.1160E-04  0.2640E-07  0.1535E-02  0.1434E-03  0.4094E+01
   -1.000002   29.00486  0.1374E-12  0.1163E-04  0.2629E-07  0.1549E-02  0.1347E-03  0.4424E+01
   -1.050004   29.00523  0.1374E-12  0.1164E-04  0.2625E-07  0.1557E-02  0.1265E-03  0.5052E+01
   -1.100006   29.00560  0.1374E-12  0.1165E-04  0.2627E-07  0.1604E-02  0.1188E-03  0.1738E+02
   -1.150007   29.00596  0.1374E-12  0.1164E-04  0.2636E-07  0.1539E-02  0.1118E-03  0.3576E+02
   -1.200009   29.00633  0.1374E-12  0.1161E-04  0.2653E-07  0.1532E-02  0.1049E-03  0.7180E+01
   -1.250010   29.00670  0.1374E-12  0.1157E-04  0.2679E-07  0.1510E-02  0.9815E-04  0.7659E+01
   -1.300012   29.00707  0.1374E-12  0.1152E-04  0.2715E-07  0.1477E-02  0.9172E-04  0.8894E+01
   -1.350013   29.00745  0.1374E-12  0.1144E-04  0.2763E-07  0.1435E-02  0.8555E-04  0.1050E+02
   -1.400014   29.00785  0.1374E-12  0.1135E-04  0.2828E-07  0.1382E-02  0.7959E-04  0.1270E+02
   -1.450015   29.00826  0.1374E-12  0.1123E-04  0.2913E-07  0.1319E-02  0.7382E-04  0.1573E+02
   -1.500016   29.00869  0.1374E-12  0.1109E-04  0.3027E-07  0.1240E-02  0.6821E-04  0.2027E+02
   -1.550016   29.00915  0.1374E-12  0.1091E-04  0.3181E-07  0.1159E-02  0.6271E-04  0.2716E+02
   -1.600016   29.00964  0.1374E-12  0.1069E-04  0.3396E-07  0.1046E-02  0.5731E-04  0.3951E+02
   -1.650016   29.01020  0.1374E-12  0.1042E-04  0.3708E-07  0.9595E-03  0.5189E-04  0.6229E+02
   -1.700015   29.01081  0.1374E-12  0.1006E-04  0.4218E-07  0.8067E-03  0.4661E-04  0.3269E+03
   -1.750015   29.01163  0.1374E-12  0.9574E-05  0.5072E-07  0.7243E-03  0.4075E-04  0.7621E+04
   -1.800013   29.01256  0.1374E-12  0.8845E-05  0.6795E-07  0.5305E-03  0.3523E-04  0.4178E+06
   -1.850012   29.01477  0.1374E-12  0.7792E-05  0.1009E-06  0.4558E-03  0.2739E-04  0.5924E+06
   -1.900010   29.01586  0.1374E-12  0.6248E-05  0.1995E-06  0.2074E-03  0.2166E-04  0.3234E+06
   -1.950007   29.02550  0.1374E-12  0.4128E-05  0.5392E-06  0.1236E-03  0.1232E-04 -0.1798E+07
   -2.000004   29.03099  0.1374E-12  0.0000E+00  0.0000E+00  0.0000E+00  0.1848E-04  0.0000E+00
