 1 - depth, m
 2 - temperature, C
 3 - salinity, kg/kg
 4 - turbulent kinetic energy, m**2/s**2
 5 - dissipation rate, m**2/s**3
 6 - kinematic heat conductance, m**2/s
 7 - modulus of horizontal velocity, m/s
 8 - Richardson number, n/d
   -0.000000   30.30176  0.2511E-14  0.4890E-05  0.3134E-06  0.5217E-04  0.1004E-02  0.1139E+04
   -0.049997   30.33269  0.2511E-14  0.8458E-05  0.1390E-06  0.1741E-03  0.5830E-03  0.2629E+02
   -0.099994   30.34567  0.2511E-14  0.1030E-04  0.9488E-07  0.4132E-03  0.4196E-03  0.4724E+02
   -0.149992   30.34896  0.2511E-14  0.1143E-04  0.7982E-07  0.4843E-03  0.3719E-03  0.2293E+02
   -0.199991   30.35165  0.2511E-14  0.1230E-04  0.7093E-07  0.6511E-03  0.3322E-03  0.1478E+02
   -0.249989   30.35360  0.2511E-14  0.1300E-04  0.6508E-07  0.7769E-03  0.3026E-03  0.1093E+02
   -0.299988   30.35518  0.2511E-14  0.1356E-04  0.6089E-07  0.9033E-03  0.2780E-03  0.8698E+01
   -0.349988   30.35651  0.2511E-14  0.1403E-04  0.5774E-07  0.1017E-02  0.2569E-03  0.7432E+01
   -0.399988   30.35765  0.2511E-14  0.1442E-04  0.5528E-07  0.1122E-02  0.2382E-03  0.6620E+01
   -0.449988   30.35867  0.2511E-14  0.1475E-04  0.5327E-07  0.1219E-02  0.2218E-03  0.6206E+01
   -0.499988   30.35959  0.2511E-14  0.1504E-04  0.5160E-07  0.1307E-02  0.2072E-03  0.6032E+01
   -0.549989   30.36042  0.2511E-14  0.1529E-04  0.5020E-07  0.1389E-02  0.1942E-03  0.5940E+01
   -0.599990   30.36120  0.2511E-14  0.1550E-04  0.4901E-07  0.1462E-02  0.1824E-03  0.5936E+01
   -0.649991   30.36192  0.2511E-14  0.1568E-04  0.4799E-07  0.1529E-02  0.1716E-03  0.5995E+01
   -0.699992   30.36260  0.2511E-14  0.1583E-04  0.4713E-07  0.1587E-02  0.1617E-03  0.6120E+01
   -0.749993   30.36324  0.2511E-14  0.1595E-04  0.4639E-07  0.1638E-02  0.1526E-03  0.6303E+01
   -0.799995   30.36386  0.2511E-14  0.1605E-04  0.4578E-07  0.1681E-02  0.1441E-03  0.6554E+01
   -0.849996   30.36445  0.2511E-14  0.1612E-04  0.4527E-07  0.1716E-02  0.1361E-03  0.6868E+01
   -0.899998   30.36502  0.2511E-14  0.1617E-04  0.4486E-07  0.1744E-02  0.1286E-03  0.7265E+01
   -0.950000   30.36558  0.2511E-14  0.1620E-04  0.4455E-07  0.1762E-02  0.1216E-03  0.7748E+01
   -1.000001   30.36612  0.2511E-14  0.1621E-04  0.4435E-07  0.1773E-02  0.1149E-03  0.8343E+01
   -1.050003   30.36665  0.2511E-14  0.1619E-04  0.4424E-07  0.1774E-02  0.1086E-03  0.9409E+01
   -1.100005   30.36718  0.2511E-14  0.1615E-04  0.4425E-07  0.1864E-02  0.1026E-03  0.3112E+02
   -1.150006   30.36768  0.2511E-14  0.1609E-04  0.4440E-07  0.1687E-02  0.9717E-04  0.7042E+02
   -1.200008   30.36822  0.2511E-14  0.1601E-04  0.4467E-07  0.1716E-02  0.9157E-04  0.1347E+02
   -1.250009   30.36875  0.2511E-14  0.1590E-04  0.4512E-07  0.1686E-02  0.8622E-04  0.1430E+02
   -1.300011   30.36929  0.2511E-14  0.1576E-04  0.4577E-07  0.1636E-02  0.8106E-04  0.1665E+02
   -1.350012   30.36983  0.2511E-14  0.1559E-04  0.4669E-07  0.1576E-02  0.7606E-04  0.1987E+02
   -1.400013   30.37040  0.2511E-14  0.1538E-04  0.4795E-07  0.1500E-02  0.7119E-04  0.2441E+02
   -1.450014   30.37098  0.2511E-14  0.1513E-04  0.4969E-07  0.1419E-02  0.6641E-04  0.3106E+02
   -1.500014   30.37161  0.2511E-14  0.1482E-04  0.5213E-07  0.1311E-02  0.6170E-04  0.4181E+02
   -1.550015   30.37228  0.2511E-14  0.1446E-04  0.5562E-07  0.1220E-02  0.5699E-04  0.5989E+02
   -1.600015   30.37302  0.2511E-14  0.1401E-04  0.6091E-07  0.1084E-02  0.5232E-04  0.1159E+03
   -1.650015   30.37388  0.2511E-14  0.1343E-04  0.6934E-07  0.9934E-03  0.4743E-04 -0.3983E+04
   -1.700014   30.37494  0.2511E-14  0.1263E-04  0.8416E-07  0.8206E-03  0.4238E-04 -0.5467E+04
   -1.750013   30.37659  0.2511E-14  0.1161E-04  0.1082E-06  0.7341E-03  0.3612E-04  0.6290E+06
   -1.800012   30.37812  0.2511E-14  0.1019E-04  0.1627E-06  0.5077E-03  0.3096E-04  0.9599E+06
   -1.850010   30.38409  0.2511E-14  0.8646E-05  0.2607E-06  0.4700E-03  0.2214E-04  0.2058E+08
   -1.900008   30.38292  0.2511E-14  0.6826E-05  0.5427E-06  0.2120E-03  0.1805E-04  0.1619E+06
   -1.950006   30.40131  0.2511E-14  0.4767E-05  0.1358E-05  0.1905E-03  0.9676E-05 -0.1887E+07
   -2.000002   30.40266  0.2511E-14  0.0000E+00  0.0000E+00  0.0000E+00  0.1790E-04  0.0000E+00
