 1 - depth, m
 2 - temperature, C
 3 - salinity, kg/kg
 4 - turbulent kinetic energy, m**2/s**2
 5 - dissipation rate, m**2/s**3
 6 - kinematic heat conductance, m**2/s
 7 - modulus of horizontal velocity, m/s
 8 - Richardson number, n/d
   -0.000000   30.60172  0.1542E-14  0.5034E-05  0.3135E-06  0.5170E-04  0.2051E-02  0.5616E+04
   -0.049997   30.63234  0.1542E-14  0.8485E-05  0.1393E-06  0.1809E-03  0.1158E-02  0.2797E+03
   -0.099994   30.64390  0.1542E-14  0.1025E-04  0.9595E-07  0.3973E-03  0.8588E-03  0.1205E+02
   -0.149992   30.64724  0.1542E-14  0.1137E-04  0.8032E-07  0.4816E-03  0.7582E-03  0.5939E+01
   -0.199991   30.64988  0.1542E-14  0.1224E-04  0.7119E-07  0.6422E-03  0.6775E-03  0.3803E+01
   -0.249989   30.65180  0.1542E-14  0.1293E-04  0.6522E-07  0.7683E-03  0.6169E-03  0.2800E+01
   -0.299988   30.65336  0.1542E-14  0.1349E-04  0.6097E-07  0.8934E-03  0.5666E-03  0.2224E+01
   -0.349988   30.65467  0.1542E-14  0.1396E-04  0.5778E-07  0.1006E-02  0.5234E-03  0.1902E+01
   -0.399988   30.65580  0.1542E-14  0.1435E-04  0.5529E-07  0.1110E-02  0.4852E-03  0.1705E+01
   -0.449988   30.65681  0.1542E-14  0.1469E-04  0.5326E-07  0.1207E-02  0.4514E-03  0.1614E+01
   -0.499988   30.65771  0.1542E-14  0.1499E-04  0.5157E-07  0.1298E-02  0.4213E-03  0.1579E+01
   -0.549989   30.65854  0.1542E-14  0.1524E-04  0.5015E-07  0.1382E-02  0.3942E-03  0.1560E+01
   -0.599990   30.65930  0.1542E-14  0.1546E-04  0.4895E-07  0.1458E-02  0.3696E-03  0.1559E+01
   -0.649991   30.66001  0.1542E-14  0.1565E-04  0.4794E-07  0.1526E-02  0.3473E-03  0.1569E+01
   -0.699992   30.66068  0.1542E-14  0.1581E-04  0.4709E-07  0.1586E-02  0.3268E-03  0.1594E+01
   -0.749993   30.66132  0.1542E-14  0.1594E-04  0.4637E-07  0.1638E-02  0.3080E-03  0.1631E+01
   -0.799995   30.66192  0.1542E-14  0.1604E-04  0.4578E-07  0.1681E-02  0.2906E-03  0.1688E+01
   -0.849996   30.66251  0.1542E-14  0.1612E-04  0.4530E-07  0.1716E-02  0.2744E-03  0.1762E+01
   -0.899998   30.66307  0.1542E-14  0.1618E-04  0.4492E-07  0.1743E-02  0.2593E-03  0.1862E+01
   -0.949999   30.66362  0.1542E-14  0.1621E-04  0.4465E-07  0.1761E-02  0.2451E-03  0.1986E+01
   -1.000001   30.66416  0.1542E-14  0.1623E-04  0.4448E-07  0.1772E-02  0.2317E-03  0.2142E+01
   -1.050003   30.66469  0.1542E-14  0.1622E-04  0.4441E-07  0.1773E-02  0.2189E-03  0.2418E+01
   -1.100005   30.66522  0.1542E-14  0.1618E-04  0.4446E-07  0.1863E-02  0.2067E-03  0.7982E+01
   -1.150006   30.66571  0.1542E-14  0.1613E-04  0.4465E-07  0.1684E-02  0.1959E-03  0.1829E+02
   -1.200008   30.66626  0.1542E-14  0.1605E-04  0.4497E-07  0.1713E-02  0.1846E-03  0.3483E+01
   -1.250009   30.66679  0.1542E-14  0.1595E-04  0.4547E-07  0.1682E-02  0.1738E-03  0.3709E+01
   -1.300011   30.66733  0.1542E-14  0.1581E-04  0.4618E-07  0.1632E-02  0.1634E-03  0.4325E+01
   -1.350012   30.66788  0.1542E-14  0.1565E-04  0.4715E-07  0.1572E-02  0.1534E-03  0.5185E+01
   -1.400013   30.66845  0.1542E-14  0.1544E-04  0.4848E-07  0.1493E-02  0.1435E-03  0.6392E+01
   -1.450014   30.66905  0.1542E-14  0.1520E-04  0.5030E-07  0.1415E-02  0.1339E-03  0.8166E+01
   -1.500014   30.66968  0.1542E-14  0.1490E-04  0.5283E-07  0.1300E-02  0.1244E-03  0.1110E+02
   -1.550015   30.67037  0.1542E-14  0.1453E-04  0.5643E-07  0.1217E-02  0.1149E-03  0.1586E+02
   -1.600015   30.67112  0.1542E-14  0.1408E-04  0.6195E-07  0.1066E-02  0.1055E-03  0.3102E+02
   -1.650014   30.67203  0.1542E-14  0.1351E-04  0.7043E-07  0.9919E-03  0.9548E-04  0.5746E+04
   -1.700014   30.67303  0.1542E-14  0.1272E-04  0.8580E-07  0.8045E-03  0.8584E-04  0.1820E+06
   -1.750013   30.67488  0.1542E-14  0.1166E-04  0.1113E-06  0.7317E-03  0.7270E-04  0.6704E+05
   -1.800012   30.67638  0.1542E-14  0.1023E-04  0.1677E-06  0.5051E-03  0.6254E-04  0.9342E+05
   -1.850010   30.68273  0.1542E-14  0.8641E-05  0.2694E-06  0.4663E-03  0.4461E-04  0.2810E+07
   -1.900008   30.68144  0.1542E-14  0.6797E-05  0.5598E-06  0.2078E-03  0.3631E-04 -0.4650E+05
   -1.950005   30.70077  0.1542E-14  0.4768E-05  0.1406E-05  0.1926E-03  0.1932E-04 -0.1966E+06
   -2.000002   30.70255  0.1542E-14  0.0000E+00  0.0000E+00  0.0000E+00  0.3574E-04  0.0000E+00
