 1 - depth, m
 2 - temperature, C
 3 - salinity, kg/kg
 4 - turbulent kinetic energy, m**2/s**2
 5 - dissipation rate, m**2/s**3
 6 - kinematic heat conductance, m**2/s
 7 - modulus of horizontal velocity, m/s
 8 - Richardson number, n/d
   -0.000000   30.28937  0.1495E-14  0.5923E-05  0.3392E-06  0.5658E-04  0.4066E-02  0.2920E+03
   -0.049997   30.32097  0.1495E-14  0.9368E-05  0.1449E-06  0.2148E-03  0.2187E-02  0.1162E+03
   -0.099994   30.33021  0.1495E-14  0.1091E-04  0.1040E-06  0.3942E-03  0.1757E-02  0.3513E+01
   -0.149992   30.33380  0.1495E-14  0.1196E-04  0.8793E-07  0.4907E-03  0.1576E-02  0.1882E+01
   -0.199991   30.33656  0.1495E-14  0.1281E-04  0.7855E-07  0.6178E-03  0.1435E-02  0.1359E+01
   -0.249989   30.33868  0.1495E-14  0.1353E-04  0.7219E-07  0.7289E-03  0.1321E-02  0.1285E+01
   -0.299988   30.34044  0.1495E-14  0.1419E-04  0.6728E-07  0.8591E-03  0.1216E-02  0.1353E+01
   -0.349988   30.34189  0.1495E-14  0.1482E-04  0.6326E-07  0.1006E-02  0.1113E-02  0.1446E+01
   -0.399988   30.34310  0.1495E-14  0.1539E-04  0.5994E-07  0.1159E-02  0.1013E-02  0.1470E+01
   -0.449988   30.34413  0.1495E-14  0.1592E-04  0.5718E-07  0.1309E-02  0.9201E-03  0.1473E+01
   -0.499988   30.34503  0.1495E-14  0.1637E-04  0.5492E-07  0.1449E-02  0.8371E-03  0.1470E+01
   -0.549989   30.34582  0.1495E-14  0.1675E-04  0.5307E-07  0.1576E-02  0.7631E-03  0.1457E+01
   -0.599989   30.34653  0.1495E-14  0.1708E-04  0.5156E-07  0.1689E-02  0.6972E-03  0.1440E+01
   -0.649990   30.34719  0.1495E-14  0.1733E-04  0.5034E-07  0.1786E-02  0.6385E-03  0.1419E+01
   -0.699992   30.34780  0.1495E-14  0.1754E-04  0.4937E-07  0.1866E-02  0.5861E-03  0.1393E+01
   -0.749993   30.34838  0.1495E-14  0.1769E-04  0.4863E-07  0.1928E-02  0.5393E-03  0.1365E+01
   -0.799994   30.34893  0.1495E-14  0.1779E-04  0.4807E-07  0.1972E-02  0.4976E-03  0.1333E+01
   -0.849996   30.34946  0.1495E-14  0.1785E-04  0.4770E-07  0.2000E-02  0.4604E-03  0.1300E+01
   -0.899998   30.34998  0.1495E-14  0.1787E-04  0.4748E-07  0.2013E-02  0.4271E-03  0.1263E+01
   -0.949999   30.35049  0.1495E-14  0.1786E-04  0.4741E-07  0.2010E-02  0.3974E-03  0.1224E+01
   -1.000001   30.35100  0.1495E-14  0.1781E-04  0.4748E-07  0.1995E-02  0.3708E-03  0.1182E+01
   -1.050003   30.35150  0.1495E-14  0.1775E-04  0.4768E-07  0.1958E-02  0.3471E-03  0.1153E+01
   -1.100004   30.35201  0.1495E-14  0.1766E-04  0.4798E-07  0.2148E-02  0.3261E-03  0.2717E+01
   -1.150006   30.35247  0.1495E-14  0.1756E-04  0.4844E-07  0.1739E-02  0.3110E-03  0.7350E+01
   -1.200008   30.35304  0.1495E-14  0.1743E-04  0.4904E-07  0.1845E-02  0.2934E-03  0.1332E+01
   -1.250009   30.35357  0.1495E-14  0.1726E-04  0.4988E-07  0.1803E-02  0.2770E-03  0.1394E+01
   -1.300010   30.35411  0.1495E-14  0.1707E-04  0.5100E-07  0.1731E-02  0.2613E-03  0.1642E+01
   -1.350012   30.35467  0.1495E-14  0.1683E-04  0.5248E-07  0.1653E-02  0.2461E-03  0.2001E+01
   -1.400013   30.35525  0.1495E-14  0.1655E-04  0.5449E-07  0.1552E-02  0.2310E-03  0.2548E+01
   -1.450014   30.35587  0.1495E-14  0.1622E-04  0.5723E-07  0.1456E-02  0.2161E-03  0.3371E+01
   -1.500014   30.35654  0.1495E-14  0.1582E-04  0.6109E-07  0.1328E-02  0.2012E-03  0.4845E+01
   -1.550014   30.35729  0.1495E-14  0.1533E-04  0.6673E-07  0.1236E-02  0.1861E-03  0.8578E+01
   -1.600014   30.35813  0.1495E-14  0.1471E-04  0.7578E-07  0.1082E-02  0.1708E-03  0.6844E+03
   -1.650014   30.35926  0.1495E-14  0.1389E-04  0.9014E-07  0.9898E-03  0.1535E-03  0.1515E+04
   -1.700014   30.36063  0.1495E-14  0.1276E-04  0.1179E-06  0.7943E-03  0.1356E-03  0.2096E+04
   -1.750013   30.36305  0.1495E-14  0.1148E-04  0.1578E-06  0.7129E-03  0.1121E-03  0.3458E+07
   -1.800012   30.36456  0.1495E-14  0.9854E-05  0.2466E-06  0.4868E-03  0.9624E-04  0.1222E+05
   -1.850010   30.37387  0.1495E-14  0.8270E-05  0.4117E-06  0.4589E-03  0.6474E-04  0.1201E+08
   -1.900008   30.36980  0.1495E-14  0.6511E-05  0.8699E-06  0.2120E-03  0.5380E-04  0.8142E+05
   -1.950005   30.39427  0.1495E-14  0.4720E-05  0.2028E-05  0.2347E-03  0.2749E-04 -0.8420E+05
   -2.000002   30.39308  0.1495E-14  0.0000E+00  0.0000E+00  0.0000E+00  0.5942E-04  0.0000E+00
