 1 - depth, m
 2 - temperature, C
 3 - salinity, kg/kg
 4 - turbulent kinetic energy, m**2/s**2
 5 - dissipation rate, m**2/s**3
 6 - kinematic heat conductance, m**2/s
 7 - modulus of horizontal velocity, m/s
 8 - Richardson number, n/d
   -0.000000   31.65260  0.1182E-13  0.5594E-05  0.3743E-06  0.5269E-04  0.4478E-03  0.3580E+05
   -0.049997   31.69030  0.1182E-13  0.9827E-05  0.1663E-06  0.2009E-03  0.2525E-03  0.1775E+06
   -0.099994   31.70268  0.1182E-13  0.1184E-04  0.1156E-06  0.4402E-03  0.1872E-03  0.2491E+03
   -0.149992   31.70638  0.1182E-13  0.1312E-04  0.9744E-07  0.5190E-03  0.1664E-03  0.1251E+03
   -0.199990   31.70935  0.1182E-13  0.1411E-04  0.8673E-07  0.6962E-03  0.1492E-03  0.8177E+02
   -0.249989   31.71151  0.1182E-13  0.1490E-04  0.7968E-07  0.8290E-03  0.1363E-03  0.6114E+02
   -0.299988   31.71326  0.1182E-13  0.1554E-04  0.7463E-07  0.9624E-03  0.1256E-03  0.4893E+02
   -0.349987   31.71474  0.1182E-13  0.1606E-04  0.7084E-07  0.1083E-02  0.1164E-03  0.4200E+02
   -0.399987   31.71602  0.1182E-13  0.1650E-04  0.6788E-07  0.1192E-02  0.1083E-03  0.3747E+02
   -0.449987   31.71715  0.1182E-13  0.1688E-04  0.6548E-07  0.1293E-02  0.1011E-03  0.3521E+02
   -0.499987   31.71818  0.1182E-13  0.1720E-04  0.6348E-07  0.1386E-02  0.9469E-04  0.3422E+02
   -0.549988   31.71912  0.1182E-13  0.1748E-04  0.6181E-07  0.1470E-02  0.8895E-04  0.3378E+02
   -0.599989   31.71999  0.1182E-13  0.1772E-04  0.6040E-07  0.1545E-02  0.8376E-04  0.3377E+02
   -0.649990   31.72080  0.1182E-13  0.1791E-04  0.5921E-07  0.1613E-02  0.7900E-04  0.3422E+02
   -0.699991   31.72156  0.1182E-13  0.1808E-04  0.5820E-07  0.1671E-02  0.7462E-04  0.3498E+02
   -0.749992   31.72229  0.1182E-13  0.1821E-04  0.5736E-07  0.1722E-02  0.7055E-04  0.3619E+02
   -0.799994   31.72299  0.1182E-13  0.1831E-04  0.5667E-07  0.1763E-02  0.6677E-04  0.3772E+02
   -0.849995   31.72366  0.1182E-13  0.1839E-04  0.5611E-07  0.1796E-02  0.6321E-04  0.3977E+02
   -0.899997   31.72431  0.1182E-13  0.1844E-04  0.5569E-07  0.1820E-02  0.5987E-04  0.4222E+02
   -0.949998   31.72495  0.1182E-13  0.1846E-04  0.5540E-07  0.1834E-02  0.5671E-04  0.4539E+02
   -1.000000   31.72557  0.1182E-13  0.1845E-04  0.5525E-07  0.1840E-02  0.5372E-04  0.4915E+02
   -1.050002   31.72619  0.1182E-13  0.1842E-04  0.5525E-07  0.1833E-02  0.5086E-04  0.5592E+02
   -1.100003   31.72680  0.1182E-13  0.1836E-04  0.5540E-07  0.1960E-02  0.4813E-04  0.1784E+03
   -1.150005   31.72737  0.1182E-13  0.1827E-04  0.5575E-07  0.1685E-02  0.4574E-04  0.4581E+03
   -1.200006   31.72803  0.1182E-13  0.1815E-04  0.5629E-07  0.1742E-02  0.4311E-04  0.8397E+02
   -1.250008   31.72866  0.1182E-13  0.1799E-04  0.5708E-07  0.1708E-02  0.4066E-04  0.8977E+02
   -1.300009   31.72930  0.1182E-13  0.1780E-04  0.5820E-07  0.1644E-02  0.3829E-04  0.1071E+03
   -1.350010   31.72996  0.1182E-13  0.1756E-04  0.5974E-07  0.1575E-02  0.3597E-04  0.1308E+03
   -1.400011   31.73065  0.1182E-13  0.1727E-04  0.6188E-07  0.1479E-02  0.3371E-04  0.1676E+03
   -1.450012   31.73139  0.1182E-13  0.1693E-04  0.6485E-07  0.1396E-02  0.3146E-04  0.2217E+03
   -1.500012   31.73218  0.1182E-13  0.1650E-04  0.6910E-07  0.1267E-02  0.2924E-04  0.3235E+03
   -1.550013   31.73307  0.1182E-13  0.1598E-04  0.7532E-07  0.1191E-02  0.2696E-04  0.5293E+03
   -1.600013   31.73403  0.1182E-13  0.1533E-04  0.8557E-07  0.1032E-02  0.2473E-04 -0.2547E+04
   -1.650012   31.73541  0.1182E-13  0.1445E-04  0.1016E-06  0.9568E-03  0.2212E-04  0.1803E+07
   -1.700012   31.73692  0.1182E-13  0.1326E-04  0.1310E-06  0.7642E-03  0.1957E-04  0.2546E+06
   -1.750011   31.73996  0.1182E-13  0.1187E-04  0.1769E-06  0.6925E-03  0.1599E-04  0.1597E+07
   -1.800009   31.74148  0.1182E-13  0.1015E-04  0.2782E-06  0.4583E-03  0.1377E-04  0.6998E+06
   -1.850008   31.75325  0.1182E-13  0.8490E-05  0.4702E-06  0.4525E-03  0.9044E-05  0.1700E+10
   -1.900006   31.74743  0.1182E-13  0.6762E-05  0.9823E-06  0.2128E-03  0.7607E-05 -0.3931E+07
   -1.950003   31.77613  0.1182E-13  0.4942E-05  0.2298E-05  0.2399E-03  0.3876E-05 -0.1801E+07
   -2.000000   31.77380  0.1182E-13  0.0000E+00  0.0000E+00  0.0000E+00  0.8506E-05  0.0000E+00
