 1 - depth, m
 2 - temperature, C
 3 - salinity, kg/kg
 4 - turbulent kinetic energy, m**2/s**2
 5 - dissipation rate, m**2/s**3
 6 - kinematic heat conductance, m**2/s
 7 - modulus of horizontal velocity, m/s
 8 - Richardson number, n/d
   -0.000000   30.57644  0.3073E-14  0.4752E-05  0.2986E-06  0.5069E-04  0.7365E-03  0.1337E+05
   -0.049997   30.60643  0.3073E-14  0.8324E-05  0.1322E-06  0.1777E-03  0.4218E-03  0.4760E+02
   -0.099994   30.61826  0.3073E-14  0.1012E-04  0.9090E-07  0.4155E-03  0.3045E-03  0.8776E+02
   -0.149992   30.62135  0.3073E-14  0.1123E-04  0.7669E-07  0.4885E-03  0.2699E-03  0.4301E+02
   -0.199991   30.62387  0.3073E-14  0.1210E-04  0.6831E-07  0.6552E-03  0.2412E-03  0.2793E+02
   -0.249989   30.62570  0.3073E-14  0.1279E-04  0.6281E-07  0.7815E-03  0.2198E-03  0.2078E+02
   -0.299988   30.62719  0.3073E-14  0.1336E-04  0.5889E-07  0.9080E-03  0.2020E-03  0.1659E+02
   -0.349988   30.62844  0.3073E-14  0.1383E-04  0.5596E-07  0.1022E-02  0.1867E-03  0.1424E+02
   -0.399988   30.62954  0.3073E-14  0.1423E-04  0.5368E-07  0.1127E-02  0.1732E-03  0.1270E+02
   -0.449988   30.63051  0.3073E-14  0.1457E-04  0.5183E-07  0.1224E-02  0.1612E-03  0.1195E+02
   -0.499988   30.63138  0.3073E-14  0.1487E-04  0.5030E-07  0.1313E-02  0.1507E-03  0.1162E+02
   -0.549989   30.63218  0.3073E-14  0.1513E-04  0.4903E-07  0.1395E-02  0.1412E-03  0.1148E+02
   -0.599989   30.63293  0.3073E-14  0.1536E-04  0.4797E-07  0.1468E-02  0.1327E-03  0.1147E+02
   -0.649991   30.63362  0.3073E-14  0.1555E-04  0.4708E-07  0.1535E-02  0.1248E-03  0.1164E+02
   -0.699992   30.63428  0.3073E-14  0.1572E-04  0.4633E-07  0.1593E-02  0.1177E-03  0.1189E+02
   -0.749993   30.63490  0.3073E-14  0.1586E-04  0.4572E-07  0.1644E-02  0.1110E-03  0.1231E+02
   -0.799995   30.63550  0.3073E-14  0.1597E-04  0.4522E-07  0.1687E-02  0.1048E-03  0.1280E+02
   -0.849996   30.63608  0.3073E-14  0.1607E-04  0.4482E-07  0.1722E-02  0.9905E-04  0.1349E+02
   -0.899998   30.63664  0.3073E-14  0.1614E-04  0.4453E-07  0.1749E-02  0.9362E-04  0.1429E+02
   -0.949999   30.63718  0.3073E-14  0.1619E-04  0.4434E-07  0.1768E-02  0.8851E-04  0.1533E+02
   -1.000001   30.63772  0.3073E-14  0.1621E-04  0.4426E-07  0.1778E-02  0.8366E-04  0.1653E+02
   -1.050003   30.63825  0.3073E-14  0.1622E-04  0.4428E-07  0.1778E-02  0.7906E-04  0.1878E+02
   -1.100005   30.63878  0.3073E-14  0.1620E-04  0.4441E-07  0.1868E-02  0.7467E-04  0.6200E+02
   -1.150006   30.63928  0.3073E-14  0.1616E-04  0.4469E-07  0.1692E-02  0.7076E-04  0.1421E+03
   -1.200008   30.63983  0.3073E-14  0.1610E-04  0.4510E-07  0.1718E-02  0.6668E-04  0.2724E+02
   -1.250009   30.64037  0.3073E-14  0.1601E-04  0.4569E-07  0.1687E-02  0.6279E-04  0.2905E+02
   -1.300011   30.64092  0.3073E-14  0.1589E-04  0.4650E-07  0.1637E-02  0.5903E-04  0.3411E+02
   -1.350012   30.64148  0.3073E-14  0.1574E-04  0.4758E-07  0.1577E-02  0.5539E-04  0.4093E+02
   -1.400013   30.64207  0.3073E-14  0.1555E-04  0.4904E-07  0.1499E-02  0.5184E-04  0.5085E+02
   -1.450014   30.64269  0.3073E-14  0.1532E-04  0.5100E-07  0.1420E-02  0.4835E-04  0.6519E+02
   -1.500014   30.64334  0.3073E-14  0.1503E-04  0.5370E-07  0.1309E-02  0.4491E-04  0.8953E+02
   -1.550015   30.64406  0.3073E-14  0.1468E-04  0.5752E-07  0.1222E-02  0.4146E-04  0.1295E+03
   -1.600015   30.64485  0.3073E-14  0.1424E-04  0.6337E-07  0.1082E-02  0.3807E-04  0.2782E+03
   -1.650014   30.64581  0.3073E-14  0.1366E-04  0.7248E-07  0.9933E-03  0.3443E-04  0.1210E+05
   -1.700014   30.64693  0.3073E-14  0.1287E-04  0.8855E-07  0.8190E-03  0.3080E-04  0.7337E+04
   -1.750013   30.64885  0.3073E-14  0.1183E-04  0.1146E-06  0.7339E-03  0.2610E-04  0.2379E+06
   -1.800012   30.65046  0.3073E-14  0.1046E-04  0.1717E-06  0.5152E-03  0.2241E-04  0.5175E+06
   -1.850010   30.65718  0.3073E-14  0.8960E-05  0.2763E-06  0.4740E-03  0.1614E-04  0.6035E+09
   -1.900008   30.65563  0.3073E-14  0.7157E-05  0.5775E-06  0.2138E-03  0.1320E-04 -0.9139E+07
   -1.950005   30.67601  0.3073E-14  0.5012E-05  0.1422E-05  0.1915E-03  0.7200E-05 -0.1369E+07
   -2.000002   30.67781  0.3073E-14  0.0000E+00  0.0000E+00  0.0000E+00  0.1296E-04  0.0000E+00
