 1 - depth, m
 2 - temperature, C
 3 - salinity, kg/kg
 4 - turbulent kinetic energy, m**2/s**2
 5 - dissipation rate, m**2/s**3
 6 - kinematic heat conductance, m**2/s
 7 - modulus of horizontal velocity, m/s
 8 - Richardson number, n/d
   -0.000000   30.30466  0.2406E-14  0.4982E-05  0.3168E-06  0.5190E-04  0.1859E-02  0.3669E+04
   -0.049997   30.33517  0.2406E-14  0.8446E-05  0.1410E-06  0.1760E-03  0.1072E-02  0.3930E+04
   -0.099994   30.34748  0.2406E-14  0.1027E-04  0.9633E-07  0.4027E-03  0.7810E-03  0.1380E+02
   -0.149992   30.35079  0.2406E-14  0.1141E-04  0.8067E-07  0.4817E-03  0.6902E-03  0.6766E+01
   -0.199991   30.35346  0.2406E-14  0.1230E-04  0.7154E-07  0.6467E-03  0.6162E-03  0.4323E+01
   -0.249989   30.35538  0.2406E-14  0.1300E-04  0.6559E-07  0.7732E-03  0.5610E-03  0.3191E+01
   -0.299988   30.35695  0.2406E-14  0.1358E-04  0.6136E-07  0.9004E-03  0.5152E-03  0.2536E+01
   -0.349988   30.35827  0.2406E-14  0.1406E-04  0.5821E-07  0.1015E-02  0.4759E-03  0.2171E+01
   -0.399988   30.35941  0.2406E-14  0.1447E-04  0.5577E-07  0.1121E-02  0.4413E-03  0.1934E+01
   -0.449988   30.36043  0.2406E-14  0.1481E-04  0.5379E-07  0.1218E-02  0.4107E-03  0.1817E+01
   -0.499988   30.36134  0.2406E-14  0.1512E-04  0.5216E-07  0.1308E-02  0.3838E-03  0.1766E+01
   -0.549989   30.36218  0.2406E-14  0.1538E-04  0.5080E-07  0.1390E-02  0.3596E-03  0.1746E+01
   -0.599989   30.36295  0.2406E-14  0.1560E-04  0.4966E-07  0.1464E-02  0.3378E-03  0.1746E+01
   -0.649990   30.36368  0.2406E-14  0.1580E-04  0.4871E-07  0.1530E-02  0.3178E-03  0.1771E+01
   -0.699992   30.36436  0.2406E-14  0.1596E-04  0.4791E-07  0.1589E-02  0.2995E-03  0.1811E+01
   -0.749993   30.36501  0.2406E-14  0.1610E-04  0.4725E-07  0.1640E-02  0.2826E-03  0.1875E+01
   -0.799994   30.36564  0.2406E-14  0.1622E-04  0.4670E-07  0.1683E-02  0.2668E-03  0.1954E+01
   -0.849996   30.36624  0.2406E-14  0.1631E-04  0.4628E-07  0.1717E-02  0.2521E-03  0.2060E+01
   -0.899998   30.36682  0.2406E-14  0.1637E-04  0.4596E-07  0.1744E-02  0.2383E-03  0.2186E+01
   -0.949999   30.36739  0.2406E-14  0.1642E-04  0.4575E-07  0.1762E-02  0.2253E-03  0.2346E+01
   -1.000001   30.36795  0.2406E-14  0.1644E-04  0.4564E-07  0.1772E-02  0.2129E-03  0.2537E+01
   -1.050003   30.36850  0.2406E-14  0.1644E-04  0.4565E-07  0.1771E-02  0.2012E-03  0.2884E+01
   -1.100004   30.36905  0.2406E-14  0.1641E-04  0.4578E-07  0.1865E-02  0.1900E-03  0.9497E+01
   -1.150006   30.36957  0.2406E-14  0.1637E-04  0.4607E-07  0.1676E-02  0.1801E-03  0.2210E+02
   -1.200008   30.37015  0.2406E-14  0.1629E-04  0.4648E-07  0.1707E-02  0.1697E-03  0.4215E+01
   -1.250009   30.37071  0.2406E-14  0.1619E-04  0.4709E-07  0.1675E-02  0.1598E-03  0.4507E+01
   -1.300010   30.37128  0.2406E-14  0.1606E-04  0.4794E-07  0.1623E-02  0.1502E-03  0.5307E+01
   -1.350012   30.37186  0.2406E-14  0.1590E-04  0.4908E-07  0.1561E-02  0.1409E-03  0.6393E+01
   -1.400013   30.37247  0.2406E-14  0.1569E-04  0.5061E-07  0.1480E-02  0.1318E-03  0.7981E+01
   -1.450013   30.37312  0.2406E-14  0.1544E-04  0.5270E-07  0.1402E-02  0.1229E-03  0.1028E+02
   -1.500014   30.37380  0.2406E-14  0.1513E-04  0.5560E-07  0.1285E-02  0.1142E-03  0.1425E+02
   -1.550014   30.37456  0.2406E-14  0.1475E-04  0.5973E-07  0.1204E-02  0.1053E-03  0.2080E+02
   -1.600014   30.37538  0.2406E-14  0.1427E-04  0.6616E-07  0.1057E-02  0.9666E-04  0.4885E+02
   -1.650014   30.37642  0.2406E-14  0.1365E-04  0.7618E-07  0.9800E-03  0.8718E-04  0.1656E+03
   -1.700014   30.37758  0.2406E-14  0.1279E-04  0.9414E-07  0.7964E-03  0.7789E-04  0.9329E+03
   -1.750013   30.37976  0.2406E-14  0.1167E-04  0.1233E-06  0.7196E-03  0.6525E-04  0.5339E+05
   -1.800011   30.38137  0.2406E-14  0.1022E-04  0.1866E-06  0.4978E-03  0.5599E-04  0.2293E+05
   -1.850010   30.38901  0.2406E-14  0.8661E-05  0.3050E-06  0.4638E-03  0.3916E-04  0.3520E+09
   -1.900008   30.38684  0.2406E-14  0.6917E-05  0.6422E-06  0.2148E-03  0.3213E-04 -0.3195E+07
   -1.950005   30.40875  0.2406E-14  0.4888E-05  0.1582E-05  0.1992E-03  0.1722E-04 -0.4500E+06
   -2.000002   30.41090  0.2406E-14  0.0000E+00  0.0000E+00  0.0000E+00  0.3275E-04  0.0000E+00
