 1 - depth, m
 2 - temperature, C
 3 - salinity, kg/kg
 4 - turbulent kinetic energy, m**2/s**2
 5 - dissipation rate, m**2/s**3
 6 - kinematic heat conductance, m**2/s
 7 - modulus of horizontal velocity, m/s
 8 - Richardson number, n/d
   -0.000000   30.72678  0.7838E-13  0.4692E-05  0.2913E-06  0.5010E-04  0.7708E-03  0.1374E+05
   -0.049997   30.75659  0.7838E-13  0.8200E-05  0.1291E-06  0.1761E-03  0.4407E-03  0.3826E+02
   -0.099994   30.76827  0.7838E-13  0.9957E-05  0.8875E-07  0.4106E-03  0.3184E-03  0.8153E+02
   -0.149992   30.77133  0.7838E-13  0.1104E-04  0.7485E-07  0.4840E-03  0.2820E-03  0.3975E+02
   -0.199991   30.77382  0.7838E-13  0.1189E-04  0.6664E-07  0.6478E-03  0.2519E-03  0.2582E+02
   -0.249989   30.77563  0.7838E-13  0.1256E-04  0.6124E-07  0.7729E-03  0.2294E-03  0.1920E+02
   -0.299988   30.77709  0.7838E-13  0.1311E-04  0.5738E-07  0.8976E-03  0.2107E-03  0.1533E+02
   -0.349988   30.77833  0.7838E-13  0.1357E-04  0.5448E-07  0.1010E-02  0.1946E-03  0.1317E+02
   -0.399988   30.77940  0.7838E-13  0.1395E-04  0.5223E-07  0.1114E-02  0.1804E-03  0.1174E+02
   -0.449988   30.78035  0.7838E-13  0.1428E-04  0.5039E-07  0.1210E-02  0.1679E-03  0.1104E+02
   -0.499988   30.78121  0.7838E-13  0.1457E-04  0.4888E-07  0.1298E-02  0.1568E-03  0.1073E+02
   -0.549989   30.78199  0.7838E-13  0.1482E-04  0.4762E-07  0.1378E-02  0.1469E-03  0.1061E+02
   -0.599989   30.78272  0.7838E-13  0.1504E-04  0.4656E-07  0.1451E-02  0.1379E-03  0.1060E+02
   -0.649990   30.78340  0.7838E-13  0.1522E-04  0.4567E-07  0.1517E-02  0.1297E-03  0.1076E+02
   -0.699992   30.78403  0.7838E-13  0.1538E-04  0.4492E-07  0.1575E-02  0.1222E-03  0.1100E+02
   -0.749993   30.78464  0.7838E-13  0.1552E-04  0.4430E-07  0.1626E-02  0.1152E-03  0.1140E+02
   -0.799994   30.78522  0.7838E-13  0.1563E-04  0.4379E-07  0.1668E-02  0.1088E-03  0.1187E+02
   -0.849996   30.78578  0.7838E-13  0.1572E-04  0.4339E-07  0.1704E-02  0.1027E-03  0.1253E+02
   -0.899998   30.78633  0.7838E-13  0.1579E-04  0.4309E-07  0.1731E-02  0.9704E-04  0.1328E+02
   -0.949999   30.78686  0.7838E-13  0.1583E-04  0.4289E-07  0.1750E-02  0.9168E-04  0.1427E+02
   -1.000001   30.78738  0.7838E-13  0.1586E-04  0.4279E-07  0.1761E-02  0.8663E-04  0.1540E+02
   -1.050003   30.78789  0.7838E-13  0.1586E-04  0.4279E-07  0.1762E-02  0.8182E-04  0.1754E+02
   -1.100004   30.78841  0.7838E-13  0.1585E-04  0.4290E-07  0.1847E-02  0.7724E-04  0.5820E+02
   -1.150006   30.78889  0.7838E-13  0.1581E-04  0.4315E-07  0.1681E-02  0.7316E-04  0.1314E+03
   -1.200008   30.78942  0.7838E-13  0.1575E-04  0.4353E-07  0.1705E-02  0.6892E-04  0.2545E+02
   -1.250009   30.78994  0.7838E-13  0.1567E-04  0.4408E-07  0.1675E-02  0.6487E-04  0.2721E+02
   -1.300010   30.79047  0.7838E-13  0.1555E-04  0.4483E-07  0.1626E-02  0.6096E-04  0.3197E+02
   -1.350012   30.79101  0.7838E-13  0.1541E-04  0.4584E-07  0.1567E-02  0.5718E-04  0.3829E+02
   -1.400013   30.79158  0.7838E-13  0.1523E-04  0.4719E-07  0.1491E-02  0.5349E-04  0.4747E+02
   -1.450013   30.79217  0.7838E-13  0.1501E-04  0.4901E-07  0.1413E-02  0.4988E-04  0.6053E+02
   -1.500014   30.79280  0.7838E-13  0.1473E-04  0.5152E-07  0.1302E-02  0.4633E-04  0.8241E+02
   -1.550014   30.79349  0.7838E-13  0.1440E-04  0.5502E-07  0.1218E-02  0.4276E-04  0.1172E+03
   -1.600014   30.79424  0.7838E-13  0.1398E-04  0.6037E-07  0.1072E-02  0.3927E-04  0.2260E+03
   -1.650014   30.79515  0.7838E-13  0.1344E-04  0.6855E-07  0.9929E-03  0.3553E-04  0.2894E+04
   -1.700014   30.79616  0.7838E-13  0.1271E-04  0.8302E-07  0.8116E-03  0.3190E-04  0.1850E+04
   -1.750013   30.79794  0.7838E-13  0.1172E-04  0.1071E-06  0.7332E-03  0.2715E-04  0.2048E+06
   -1.800011   30.79951  0.7838E-13  0.1037E-04  0.1575E-06  0.5160E-03  0.2331E-04  0.2212E+06
   -1.850010   30.80545  0.7838E-13  0.8827E-05  0.2512E-06  0.4679E-03  0.1689E-04  0.1609E+08
   -1.900008   30.80460  0.7838E-13  0.6987E-05  0.5223E-06  0.2123E-03  0.1366E-04 -0.9698E+07
   -1.950005   30.82401  0.7838E-13  0.4887E-05  0.1313E-05  0.1848E-03  0.7405E-05 -0.2588E+07
   -2.000002   30.82630  0.7838E-13  0.0000E+00  0.0000E+00  0.0000E+00  0.1332E-04  0.0000E+00
