 1 - depth, m
 2 - temperature, C
 3 - salinity, kg/kg
 4 - turbulent kinetic energy, m**2/s**2
 5 - dissipation rate, m**2/s**3
 6 - kinematic heat conductance, m**2/s
 7 - modulus of horizontal velocity, m/s
 8 - Richardson number, n/d
   -0.000000   30.60500  0.8335E-13  0.4635E-05  0.2823E-06  0.4927E-04  0.1146E-02  0.9684E+04
   -0.049997   30.63442  0.8335E-13  0.8022E-05  0.1257E-06  0.1755E-03  0.6492E-03  0.3740E+02
   -0.099994   30.64567  0.8335E-13  0.9728E-05  0.8670E-07  0.3982E-03  0.4747E-03  0.3978E+02
   -0.149992   30.64875  0.8335E-13  0.1079E-04  0.7294E-07  0.4772E-03  0.4192E-03  0.1939E+02
   -0.199991   30.65121  0.8335E-13  0.1162E-04  0.6485E-07  0.6367E-03  0.3742E-03  0.1251E+02
   -0.249989   30.65299  0.8335E-13  0.1228E-04  0.5953E-07  0.7608E-03  0.3405E-03  0.9282E+01
   -0.299988   30.65444  0.8335E-13  0.1282E-04  0.5573E-07  0.8840E-03  0.3124E-03  0.7386E+01
   -0.349988   30.65566  0.8335E-13  0.1326E-04  0.5288E-07  0.9958E-03  0.2884E-03  0.6344E+01
   -0.399988   30.65672  0.8335E-13  0.1364E-04  0.5066E-07  0.1098E-02  0.2671E-03  0.5640E+01
   -0.449988   30.65765  0.8335E-13  0.1396E-04  0.4886E-07  0.1193E-02  0.2484E-03  0.5316E+01
   -0.499988   30.65850  0.8335E-13  0.1424E-04  0.4737E-07  0.1280E-02  0.2319E-03  0.5152E+01
   -0.549989   30.65927  0.8335E-13  0.1449E-04  0.4612E-07  0.1360E-02  0.2171E-03  0.5105E+01
   -0.599989   30.65998  0.8335E-13  0.1470E-04  0.4507E-07  0.1433E-02  0.2037E-03  0.5086E+01
   -0.649990   30.66065  0.8335E-13  0.1488E-04  0.4418E-07  0.1498E-02  0.1915E-03  0.5175E+01
   -0.699992   30.66127  0.8335E-13  0.1503E-04  0.4344E-07  0.1556E-02  0.1803E-03  0.5269E+01
   -0.749993   30.66187  0.8335E-13  0.1516E-04  0.4282E-07  0.1607E-02  0.1699E-03  0.5471E+01
   -0.799994   30.66244  0.8335E-13  0.1527E-04  0.4230E-07  0.1650E-02  0.1603E-03  0.5674E+01
   -0.849996   30.66299  0.8335E-13  0.1536E-04  0.4189E-07  0.1685E-02  0.1513E-03  0.5999E+01
   -0.899998   30.66352  0.8335E-13  0.1542E-04  0.4158E-07  0.1713E-02  0.1429E-03  0.6330E+01
   -0.949999   30.66404  0.8335E-13  0.1547E-04  0.4136E-07  0.1732E-02  0.1349E-03  0.6814E+01
   -1.000001   30.66455  0.8335E-13  0.1549E-04  0.4123E-07  0.1744E-02  0.1274E-03  0.7320E+01
   -1.050003   30.66505  0.8335E-13  0.1549E-04  0.4121E-07  0.1746E-02  0.1203E-03  0.8345E+01
   -1.100005   30.66554  0.8335E-13  0.1548E-04  0.4129E-07  0.1827E-02  0.1135E-03  0.2771E+02
   -1.150006   30.66601  0.8335E-13  0.1544E-04  0.4150E-07  0.1673E-02  0.1074E-03  0.6169E+02
   -1.200008   30.66653  0.8335E-13  0.1538E-04  0.4182E-07  0.1693E-02  0.1012E-03  0.1201E+02
   -1.250009   30.66703  0.8335E-13  0.1530E-04  0.4231E-07  0.1664E-02  0.9521E-04  0.1276E+02
   -1.300011   30.66754  0.8335E-13  0.1519E-04  0.4299E-07  0.1617E-02  0.8944E-04  0.1498E+02
   -1.350012   30.66807  0.8335E-13  0.1505E-04  0.4391E-07  0.1561E-02  0.8386E-04  0.1782E+02
   -1.400013   30.66861  0.8335E-13  0.1487E-04  0.4515E-07  0.1487E-02  0.7842E-04  0.2204E+02
   -1.450014   30.66918  0.8335E-13  0.1466E-04  0.4682E-07  0.1412E-02  0.7310E-04  0.2784E+02
   -1.500014   30.66978  0.8335E-13  0.1440E-04  0.4911E-07  0.1303E-02  0.6787E-04  0.3778E+02
   -1.550015   30.67044  0.8335E-13  0.1408E-04  0.5233E-07  0.1222E-02  0.6264E-04  0.5295E+02
   -1.600015   30.67114  0.8335E-13  0.1368E-04  0.5723E-07  0.1076E-02  0.5753E-04  0.1010E+03
   -1.650014   30.67200  0.8335E-13  0.1317E-04  0.6469E-07  0.1001E-02  0.5206E-04  0.7177E+04
   -1.700014   30.67293  0.8335E-13  0.1247E-04  0.7804E-07  0.8174E-03  0.4683E-04  0.1581E+05
   -1.750013   30.67461  0.8335E-13  0.1153E-04  0.1001E-06  0.7416E-03  0.3987E-04  0.6838E+05
   -1.800012   30.67600  0.8335E-13  0.1026E-04  0.1445E-06  0.5223E-03  0.3434E-04  0.3453E+05
   -1.850010   30.68137  0.8335E-13  0.8772E-05  0.2304E-06  0.4741E-03  0.2499E-04  0.1216E+08
   -1.900008   30.68083  0.8335E-13  0.6966E-05  0.4735E-06  0.2156E-03  0.2023E-04 -0.8744E+06
   -1.950005   30.69856  0.8335E-13  0.4831E-05  0.1209E-05  0.1781E-03  0.1105E-04 -0.6924E+06
   -2.000002   30.70158  0.8335E-13  0.0000E+00  0.0000E+00  0.0000E+00  0.1944E-04  0.0000E+00
