 1 - depth, m
 2 - temperature, C
 3 - salinity, kg/kg
 4 - turbulent kinetic energy, m**2/s**2
 5 - dissipation rate, m**2/s**3
 6 - kinematic heat conductance, m**2/s
 7 - modulus of horizontal velocity, m/s
 8 - Richardson number, n/d
   -0.000000   29.81512  0.2112E-14  0.4564E-05  0.2740E-06  0.4915E-04  0.1671E-02  0.6877E+04
   -0.049997   29.84366  0.2112E-14  0.7804E-05  0.1221E-06  0.1722E-03  0.9530E-03  0.5827E+04
   -0.099994   29.85468  0.2113E-14  0.9467E-05  0.8396E-07  0.3897E-03  0.6956E-03  0.1656E+02
   -0.149992   29.85774  0.2113E-14  0.1051E-04  0.7050E-07  0.4693E-03  0.6137E-03  0.8055E+01
   -0.199991   29.86018  0.2113E-14  0.1132E-04  0.6261E-07  0.6261E-03  0.5474E-03  0.5180E+01
   -0.249989   29.86196  0.2113E-14  0.1196E-04  0.5744E-07  0.7488E-03  0.4978E-03  0.3820E+01
   -0.299989   29.86340  0.2113E-14  0.1249E-04  0.5375E-07  0.8706E-03  0.4565E-03  0.3039E+01
   -0.349988   29.86462  0.2113E-14  0.1292E-04  0.5099E-07  0.9812E-03  0.4212E-03  0.2599E+01
   -0.399988   29.86567  0.2113E-14  0.1329E-04  0.4884E-07  0.1082E-02  0.3899E-03  0.2317E+01
   -0.449988   29.86660  0.2113E-14  0.1361E-04  0.4709E-07  0.1176E-02  0.3624E-03  0.2176E+01
   -0.499988   29.86744  0.2113E-14  0.1389E-04  0.4565E-07  0.1263E-02  0.3381E-03  0.2118E+01
   -0.549989   29.86821  0.2113E-14  0.1412E-04  0.4444E-07  0.1342E-02  0.3164E-03  0.2091E+01
   -0.599990   29.86893  0.2113E-14  0.1433E-04  0.4342E-07  0.1414E-02  0.2967E-03  0.2093E+01
   -0.649991   29.86959  0.2113E-14  0.1451E-04  0.4256E-07  0.1479E-02  0.2788E-03  0.2120E+01
   -0.699992   29.87022  0.2113E-14  0.1466E-04  0.4184E-07  0.1537E-02  0.2624E-03  0.2169E+01
   -0.749993   29.87082  0.2113E-14  0.1479E-04  0.4123E-07  0.1587E-02  0.2472E-03  0.2241E+01
   -0.799995   29.87139  0.2113E-14  0.1489E-04  0.4073E-07  0.1630E-02  0.2331E-03  0.2336E+01
   -0.849996   29.87193  0.2113E-14  0.1497E-04  0.4032E-07  0.1665E-02  0.2200E-03  0.2456E+01
   -0.899998   29.87247  0.2113E-14  0.1504E-04  0.4001E-07  0.1693E-02  0.2076E-03  0.2604E+01
   -0.950000   29.87298  0.2113E-14  0.1508E-04  0.3978E-07  0.1712E-02  0.1960E-03  0.2786E+01
   -1.000002   29.87349  0.2113E-14  0.1510E-04  0.3965E-07  0.1724E-02  0.1850E-03  0.3006E+01
   -1.050003   29.87399  0.2113E-14  0.1510E-04  0.3960E-07  0.1727E-02  0.1746E-03  0.3407E+01
   -1.100005   29.87448  0.2113E-14  0.1509E-04  0.3966E-07  0.1805E-02  0.1647E-03  0.1139E+02
   -1.150007   29.87495  0.2113E-14  0.1505E-04  0.3984E-07  0.1658E-02  0.1558E-03  0.2515E+02
   -1.200008   29.87546  0.2113E-14  0.1499E-04  0.4013E-07  0.1677E-02  0.1467E-03  0.4885E+01
   -1.250010   29.87596  0.2113E-14  0.1490E-04  0.4057E-07  0.1648E-02  0.1380E-03  0.5201E+01
   -1.300011   29.87647  0.2113E-14  0.1479E-04  0.4119E-07  0.1602E-02  0.1296E-03  0.6066E+01
   -1.350012   29.87698  0.2113E-14  0.1465E-04  0.4204E-07  0.1547E-02  0.1214E-03  0.7225E+01
   -1.400013   29.87752  0.2113E-14  0.1448E-04  0.4319E-07  0.1474E-02  0.1135E-03  0.8871E+01
   -1.450014   29.87808  0.2113E-14  0.1427E-04  0.4473E-07  0.1401E-02  0.1058E-03  0.1120E+02
   -1.500015   29.87867  0.2113E-14  0.1402E-04  0.4687E-07  0.1293E-02  0.9818E-04  0.1504E+02
   -1.550015   29.87931  0.2113E-14  0.1371E-04  0.4986E-07  0.1213E-02  0.9058E-04  0.2099E+02
   -1.600015   29.88000  0.2113E-14  0.1332E-04  0.5440E-07  0.1068E-02  0.8315E-04  0.3808E+02
   -1.650015   29.88083  0.2113E-14  0.1283E-04  0.6129E-07  0.9946E-03  0.7522E-04  0.3659E+04
   -1.700015   29.88173  0.2113E-14  0.1216E-04  0.7371E-07  0.8110E-03  0.6767E-04  0.4316E+03
   -1.750014   29.88334  0.2113E-14  0.1125E-04  0.9425E-07  0.7367E-03  0.5762E-04  0.2881E+05
   -1.800012   29.88469  0.2113E-14  0.1000E-04  0.1359E-06  0.5139E-03  0.4966E-04  0.3413E+05
   -1.850011   29.88987  0.2113E-14  0.8530E-05  0.2161E-06  0.4700E-03  0.3607E-04  0.3894E+07
   -1.900009   29.88939  0.2113E-14  0.6773E-05  0.4461E-06  0.2148E-03  0.2922E-04 -0.1484E+05
   -1.950006   29.90620  0.2113E-14  0.4679E-05  0.1145E-05  0.1735E-03  0.1598E-04 -0.2962E+06
   -2.000003   29.90920  0.2113E-14  0.0000E+00  0.0000E+00  0.0000E+00  0.2803E-04  0.0000E+00
