 1 - depth, m
 2 - temperature, C
 3 - salinity, kg/kg
 4 - turbulent kinetic energy, m**2/s**2
 5 - dissipation rate, m**2/s**3
 6 - kinematic heat conductance, m**2/s
 7 - modulus of horizontal velocity, m/s
 8 - Richardson number, n/d
   -0.000000   29.79160  0.3382E-14  0.4760E-05  0.2691E-06  0.4896E-04  0.2548E-02  0.1835E+04
   -0.049997   29.81989  0.3382E-14  0.7923E-05  0.1185E-06  0.1863E-03  0.1384E-02  0.9816E+03
   -0.099994   29.82924  0.3382E-14  0.9448E-05  0.8318E-07  0.3804E-03  0.1054E-02  0.7399E+01
   -0.149992   29.83230  0.3382E-14  0.1043E-04  0.6989E-07  0.4723E-03  0.9313E-03  0.3719E+01
   -0.199991   29.83467  0.3382E-14  0.1121E-04  0.6210E-07  0.6185E-03  0.8345E-03  0.2418E+01
   -0.249989   29.83642  0.3382E-14  0.1183E-04  0.5699E-07  0.7385E-03  0.7608E-03  0.1793E+01
   -0.299989   29.83785  0.3382E-14  0.1234E-04  0.5335E-07  0.8507E-03  0.6993E-03  0.1453E+01
   -0.349988   29.83906  0.3382E-14  0.1277E-04  0.5059E-07  0.9541E-03  0.6461E-03  0.1329E+01
   -0.399988   29.84012  0.3382E-14  0.1315E-04  0.4837E-07  0.1059E-02  0.5971E-03  0.1285E+01
   -0.449988   29.84105  0.3382E-14  0.1349E-04  0.4651E-07  0.1164E-02  0.5522E-03  0.1270E+01
   -0.499988   29.84188  0.3382E-14  0.1379E-04  0.4496E-07  0.1262E-02  0.5116E-03  0.1269E+01
   -0.549989   29.84263  0.3382E-14  0.1405E-04  0.4365E-07  0.1352E-02  0.4751E-03  0.1263E+01
   -0.599990   29.84332  0.3382E-14  0.1428E-04  0.4256E-07  0.1434E-02  0.4421E-03  0.1261E+01
   -0.649991   29.84397  0.3382E-14  0.1447E-04  0.4165E-07  0.1507E-02  0.4122E-03  0.1256E+01
   -0.699992   29.84457  0.3382E-14  0.1463E-04  0.4089E-07  0.1571E-02  0.3851E-03  0.1255E+01
   -0.749993   29.84514  0.3382E-14  0.1476E-04  0.4026E-07  0.1625E-02  0.3605E-03  0.1252E+01
   -0.799995   29.84568  0.3382E-14  0.1487E-04  0.3976E-07  0.1669E-02  0.3381E-03  0.1256E+01
   -0.849996   29.84620  0.3382E-14  0.1495E-04  0.3937E-07  0.1704E-02  0.3177E-03  0.1262E+01
   -0.899998   29.84671  0.3382E-14  0.1501E-04  0.3908E-07  0.1729E-02  0.2991E-03  0.1283E+01
   -0.950000   29.84720  0.3382E-14  0.1504E-04  0.3888E-07  0.1745E-02  0.2820E-03  0.1323E+01
   -1.000002   29.84769  0.3382E-14  0.1506E-04  0.3878E-07  0.1754E-02  0.2662E-03  0.1406E+01
   -1.050003   29.84817  0.3382E-14  0.1505E-04  0.3876E-07  0.1753E-02  0.2514E-03  0.1579E+01
   -1.100005   29.84864  0.3382E-14  0.1503E-04  0.3883E-07  0.1842E-02  0.2373E-03  0.5255E+01
   -1.150007   29.84909  0.3382E-14  0.1498E-04  0.3903E-07  0.1667E-02  0.2247E-03  0.1183E+02
   -1.200008   29.84958  0.3382E-14  0.1492E-04  0.3933E-07  0.1695E-02  0.2117E-03  0.2272E+01
   -1.250010   29.85006  0.3382E-14  0.1483E-04  0.3978E-07  0.1665E-02  0.1992E-03  0.2424E+01
   -1.300011   29.85055  0.3382E-14  0.1471E-04  0.4041E-07  0.1616E-02  0.1871E-03  0.2819E+01
   -1.350012   29.85105  0.3382E-14  0.1457E-04  0.4127E-07  0.1558E-02  0.1755E-03  0.3370E+01
   -1.400013   29.85157  0.3382E-14  0.1439E-04  0.4242E-07  0.1484E-02  0.1641E-03  0.4127E+01
   -1.450014   29.85211  0.3382E-14  0.1418E-04  0.4397E-07  0.1407E-02  0.1530E-03  0.5232E+01
   -1.500015   29.85268  0.3382E-14  0.1392E-04  0.4610E-07  0.1298E-02  0.1421E-03  0.7001E+01
   -1.550015   29.85330  0.3382E-14  0.1361E-04  0.4909E-07  0.1215E-02  0.1311E-03  0.9815E+01
   -1.600015   29.85397  0.3382E-14  0.1322E-04  0.5361E-07  0.1069E-02  0.1204E-03  0.1738E+02
   -1.650015   29.85478  0.3382E-14  0.1272E-04  0.6049E-07  0.9939E-03  0.1090E-03  0.3366E+02
   -1.700015   29.85566  0.3382E-14  0.1205E-04  0.7287E-07  0.8087E-03  0.9806E-04  0.1385E+04
   -1.750014   29.85722  0.3382E-14  0.1112E-04  0.9357E-07  0.7333E-03  0.8347E-04  0.1900E+05
   -1.800012   29.85861  0.3382E-14  0.9858E-05  0.1366E-06  0.5133E-03  0.7170E-04  0.5068E+05
   -1.850011   29.86363  0.3382E-14  0.8387E-05  0.2164E-06  0.4669E-03  0.5201E-04  0.1003E+07
   -1.900009   29.86313  0.3382E-14  0.6630E-05  0.4474E-06  0.2110E-03  0.4214E-04  0.1946E+05
   -1.950006   29.87977  0.3382E-14  0.4583E-05  0.1140E-05  0.1766E-03  0.2279E-04 -0.1982E+06
   -2.000003   29.88195  0.3382E-14  0.0000E+00  0.0000E+00  0.0000E+00  0.4077E-04  0.0000E+00
