 1 - depth, m
 2 - temperature, C
 3 - salinity, kg/kg
 4 - turbulent kinetic energy, m**2/s**2
 5 - dissipation rate, m**2/s**3
 6 - kinematic heat conductance, m**2/s
 7 - modulus of horizontal velocity, m/s
 8 - Richardson number, n/d
   -0.000000   30.62392  0.1032E-12  0.4793E-05  0.2925E-06  0.4787E-04  0.8371E-03  0.2395E+05
   -0.049997   30.65650  0.1032E-12  0.8370E-05  0.1301E-06  0.1874E-03  0.4646E-03  0.2112E+03
   -0.099994   30.66732  0.1032E-12  0.1009E-04  0.9074E-07  0.4031E-03  0.3456E-03  0.9705E+02
   -0.149992   30.67055  0.1032E-12  0.1117E-04  0.7646E-07  0.4881E-03  0.3056E-03  0.4775E+02
   -0.199991   30.67310  0.1032E-12  0.1201E-04  0.6802E-07  0.6475E-03  0.2733E-03  0.3118E+02
   -0.249989   30.67496  0.1032E-12  0.1268E-04  0.6245E-07  0.7724E-03  0.2490E-03  0.2303E+02
   -0.299988   30.67647  0.1032E-12  0.1323E-04  0.5845E-07  0.8963E-03  0.2288E-03  0.1843E+02
   -0.349988   30.67774  0.1032E-12  0.1368E-04  0.5544E-07  0.1009E-02  0.2114E-03  0.1566E+02
   -0.399988   30.67884  0.1032E-12  0.1405E-04  0.5308E-07  0.1111E-02  0.1960E-03  0.1402E+02
   -0.449988   30.67982  0.1032E-12  0.1438E-04  0.5116E-07  0.1206E-02  0.1825E-03  0.1304E+02
   -0.499988   30.68069  0.1032E-12  0.1465E-04  0.4956E-07  0.1294E-02  0.1705E-03  0.1275E+02
   -0.549989   30.68150  0.1032E-12  0.1489E-04  0.4822E-07  0.1374E-02  0.1597E-03  0.1245E+02
   -0.599989   30.68224  0.1032E-12  0.1510E-04  0.4709E-07  0.1446E-02  0.1500E-03  0.1253E+02
   -0.649991   30.68293  0.1032E-12  0.1527E-04  0.4612E-07  0.1511E-02  0.1411E-03  0.1254E+02
   -0.699992   30.68358  0.1032E-12  0.1542E-04  0.4530E-07  0.1569E-02  0.1329E-03  0.1290E+02
   -0.749993   30.68420  0.1032E-12  0.1554E-04  0.4461E-07  0.1619E-02  0.1254E-03  0.1316E+02
   -0.799995   30.68479  0.1032E-12  0.1564E-04  0.4403E-07  0.1661E-02  0.1183E-03  0.1380E+02
   -0.849996   30.68535  0.1032E-12  0.1572E-04  0.4356E-07  0.1696E-02  0.1118E-03  0.1433E+02
   -0.899998   30.68590  0.1032E-12  0.1577E-04  0.4319E-07  0.1723E-02  0.1056E-03  0.1529E+02
   -0.949999   30.68644  0.1032E-12  0.1580E-04  0.4292E-07  0.1742E-02  0.9983E-04  0.1615E+02
   -1.000001   30.68696  0.1032E-12  0.1581E-04  0.4275E-07  0.1752E-02  0.9432E-04  0.1755E+02
   -1.050003   30.68747  0.1032E-12  0.1580E-04  0.4268E-07  0.1753E-02  0.8912E-04  0.1962E+02
   -1.100005   30.68798  0.1032E-12  0.1577E-04  0.4272E-07  0.1840E-02  0.8413E-04  0.6547E+02
   -1.150006   30.68846  0.1032E-12  0.1572E-04  0.4290E-07  0.1669E-02  0.7970E-04  0.1486E+03
   -1.200008   30.68899  0.1032E-12  0.1564E-04  0.4320E-07  0.1695E-02  0.7508E-04  0.2814E+02
   -1.250009   30.68950  0.1032E-12  0.1554E-04  0.4367E-07  0.1665E-02  0.7067E-04  0.3013E+02
   -1.300011   30.69002  0.1032E-12  0.1541E-04  0.4434E-07  0.1616E-02  0.6643E-04  0.3482E+02
   -1.350012   30.69056  0.1032E-12  0.1525E-04  0.4527E-07  0.1557E-02  0.6231E-04  0.4194E+02
   -1.400013   30.69111  0.1032E-12  0.1505E-04  0.4654E-07  0.1480E-02  0.5831E-04  0.5127E+02
   -1.450014   30.69168  0.1032E-12  0.1482E-04  0.4828E-07  0.1404E-02  0.5436E-04  0.6570E+02
   -1.500014   30.69229  0.1032E-12  0.1453E-04  0.5070E-07  0.1292E-02  0.5050E-04  0.8865E+02
   -1.550015   30.69296  0.1032E-12  0.1418E-04  0.5414E-07  0.1210E-02  0.4660E-04  0.1267E+03
   -1.600015   30.69368  0.1032E-12  0.1374E-04  0.5946E-07  0.1064E-02  0.4281E-04  0.2501E+03
   -1.650014   30.69457  0.1032E-12  0.1318E-04  0.6768E-07  0.9890E-03  0.3869E-04  0.6729E+04
   -1.700014   30.69554  0.1032E-12  0.1242E-04  0.8252E-07  0.8034E-03  0.3476E-04 -0.1422E+05
   -1.750013   30.69734  0.1032E-12  0.1139E-04  0.1071E-06  0.7281E-03  0.2939E-04  0.2281E+06
   -1.800012   30.69883  0.1032E-12  0.1003E-04  0.1597E-06  0.5056E-03  0.2525E-04  0.1107E+07
   -1.850010   30.70487  0.1032E-12  0.8525E-05  0.2567E-06  0.4650E-03  0.1805E-04  0.1045E+09
   -1.900008   30.70356  0.1032E-12  0.6785E-05  0.5336E-06  0.2151E-03  0.1477E-04 -0.1766E+07
   -1.950005   30.72221  0.1032E-12  0.4741E-05  0.1336E-05  0.1876E-03  0.8013E-05 -0.2095E+07
   -2.000002   30.72431  0.1032E-12  0.0000E+00  0.0000E+00  0.0000E+00  0.1460E-04  0.0000E+00
