 1 - depth, m
 2 - temperature, C
 3 - salinity, kg/kg
 4 - turbulent kinetic energy, m**2/s**2
 5 - dissipation rate, m**2/s**3
 6 - kinematic heat conductance, m**2/s
 7 - modulus of horizontal velocity, m/s
 8 - Richardson number, n/d
   -0.000000   29.95649  0.1359E-13  0.4895E-05  0.2796E-06  0.4968E-04  0.2581E-02  0.2671E+04
   -0.049997   29.98551  0.1359E-13  0.8147E-05  0.1230E-06  0.1903E-03  0.1395E-02  0.1285E+02
   -0.099994   29.99488  0.1359E-13  0.9701E-05  0.8665E-07  0.3836E-03  0.1068E-02  0.6916E+01
   -0.149992   29.99803  0.1359E-13  0.1071E-04  0.7276E-07  0.4782E-03  0.9430E-03  0.3528E+01
   -0.199991   30.00044  0.1359E-13  0.1151E-04  0.6463E-07  0.6259E-03  0.8451E-03  0.2297E+01
   -0.249989   30.00224  0.1359E-13  0.1214E-04  0.5929E-07  0.7481E-03  0.7704E-03  0.1705E+01
   -0.299989   30.00370  0.1359E-13  0.1266E-04  0.5549E-07  0.8639E-03  0.7082E-03  0.1374E+01
   -0.349988   30.00494  0.1359E-13  0.1310E-04  0.5263E-07  0.9665E-03  0.6546E-03  0.1231E+01
   -0.399988   30.00602  0.1359E-13  0.1348E-04  0.5034E-07  0.1068E-02  0.6061E-03  0.1206E+01
   -0.449988   30.00698  0.1359E-13  0.1383E-04  0.4842E-07  0.1172E-02  0.5614E-03  0.1215E+01
   -0.499988   30.00783  0.1359E-13  0.1414E-04  0.4679E-07  0.1272E-02  0.5207E-03  0.1225E+01
   -0.549989   30.00861  0.1359E-13  0.1441E-04  0.4542E-07  0.1364E-02  0.4839E-03  0.1225E+01
   -0.599990   30.00932  0.1359E-13  0.1464E-04  0.4427E-07  0.1448E-02  0.4506E-03  0.1222E+01
   -0.649991   30.00997  0.1359E-13  0.1484E-04  0.4331E-07  0.1522E-02  0.4204E-03  0.1213E+01
   -0.699992   30.01059  0.1359E-13  0.1500E-04  0.4251E-07  0.1588E-02  0.3930E-03  0.1202E+01
   -0.749993   30.01117  0.1359E-13  0.1513E-04  0.4186E-07  0.1642E-02  0.3682E-03  0.1188E+01
   -0.799995   30.01173  0.1359E-13  0.1524E-04  0.4133E-07  0.1687E-02  0.3457E-03  0.1177E+01
   -0.849996   30.01227  0.1359E-13  0.1532E-04  0.4092E-07  0.1721E-02  0.3252E-03  0.1174E+01
   -0.899998   30.01279  0.1359E-13  0.1538E-04  0.4061E-07  0.1746E-02  0.3066E-03  0.1194E+01
   -0.950000   30.01329  0.1359E-13  0.1541E-04  0.4040E-07  0.1762E-02  0.2894E-03  0.1243E+01
   -1.000001   30.01379  0.1359E-13  0.1543E-04  0.4028E-07  0.1771E-02  0.2734E-03  0.1329E+01
   -1.050003   30.01428  0.1359E-13  0.1542E-04  0.4026E-07  0.1771E-02  0.2582E-03  0.1499E+01
   -1.100005   30.01477  0.1359E-13  0.1540E-04  0.4033E-07  0.1861E-02  0.2438E-03  0.4972E+01
   -1.150007   30.01523  0.1359E-13  0.1535E-04  0.4053E-07  0.1684E-02  0.2310E-03  0.1121E+02
   -1.200008   30.01573  0.1359E-13  0.1528E-04  0.4084E-07  0.1713E-02  0.2176E-03  0.2155E+01
   -1.250010   30.01622  0.1359E-13  0.1519E-04  0.4130E-07  0.1682E-02  0.2048E-03  0.2295E+01
   -1.300011   30.01672  0.1359E-13  0.1507E-04  0.4195E-07  0.1633E-02  0.1925E-03  0.2675E+01
   -1.350012   30.01723  0.1359E-13  0.1492E-04  0.4283E-07  0.1575E-02  0.1806E-03  0.3192E+01
   -1.400013   30.01776  0.1359E-13  0.1474E-04  0.4402E-07  0.1500E-02  0.1690E-03  0.3920E+01
   -1.450014   30.01832  0.1359E-13  0.1453E-04  0.4563E-07  0.1422E-02  0.1576E-03  0.4966E+01
   -1.500015   30.01890  0.1359E-13  0.1426E-04  0.4784E-07  0.1313E-02  0.1464E-03  0.6673E+01
   -1.550015   30.01954  0.1359E-13  0.1393E-04  0.5095E-07  0.1227E-02  0.1352E-03  0.9385E+01
   -1.600015   30.02022  0.1359E-13  0.1353E-04  0.5566E-07  0.1084E-02  0.1242E-03  0.1693E+02
   -1.650015   30.02105  0.1359E-13  0.1302E-04  0.6284E-07  0.1002E-02  0.1125E-03  0.4040E+02
   -1.700014   30.02196  0.1359E-13  0.1233E-04  0.7563E-07  0.8229E-03  0.1012E-03 -0.5053E+03
   -1.750014   30.02354  0.1359E-13  0.1139E-04  0.9688E-07  0.7409E-03  0.8632E-04  0.2638E+05
   -1.800012   30.02493  0.1359E-13  0.1010E-04  0.1420E-06  0.5197E-03  0.7427E-04  0.4241E+04
   -1.850011   30.03017  0.1359E-13  0.8614E-05  0.2257E-06  0.4730E-03  0.5409E-04  0.8544E+08
   -1.900009   30.02958  0.1359E-13  0.6805E-05  0.4694E-06  0.2164E-03  0.4372E-04 -0.3239E+05
   -1.950006   30.04639  0.1359E-13  0.4702E-05  0.1193E-05  0.1778E-03  0.2374E-04 -0.7459E+05
   -2.000003   30.04913  0.1359E-13  0.0000E+00  0.0000E+00  0.0000E+00  0.4229E-04  0.0000E+00
