 1 - depth, m
 2 - temperature, C
 3 - salinity, kg/kg
 4 - turbulent kinetic energy, m**2/s**2
 5 - dissipation rate, m**2/s**3
 6 - kinematic heat conductance, m**2/s
 7 - modulus of horizontal velocity, m/s
 8 - Richardson number, n/d
   -0.000000   30.95757  0.6307E-14  0.5123E-05  0.3361E-06  0.5278E-04  0.8566E-03  0.4665E+04
   -0.049997   30.98996  0.6307E-14  0.8891E-05  0.1490E-06  0.1818E-03  0.4931E-03  0.4376E+02
   -0.099994   31.00296  0.6307E-14  0.1082E-04  0.1021E-06  0.4228E-03  0.3577E-03  0.7366E+02
   -0.149992   31.00634  0.6307E-14  0.1201E-04  0.8588E-07  0.4966E-03  0.3171E-03  0.3627E+02
   -0.199991   31.00910  0.6307E-14  0.1293E-04  0.7634E-07  0.6685E-03  0.2835E-03  0.2341E+02
   -0.249989   31.01109  0.6307E-14  0.1367E-04  0.7009E-07  0.7973E-03  0.2585E-03  0.1742E+02
   -0.299988   31.01271  0.6307E-14  0.1427E-04  0.6564E-07  0.9274E-03  0.2376E-03  0.1388E+02
   -0.349988   31.01407  0.6307E-14  0.1477E-04  0.6230E-07  0.1045E-02  0.2198E-03  0.1192E+02
   -0.399988   31.01525  0.6307E-14  0.1519E-04  0.5970E-07  0.1152E-02  0.2040E-03  0.1061E+02
   -0.449988   31.01629  0.6307E-14  0.1555E-04  0.5759E-07  0.1251E-02  0.1901E-03  0.9990E+01
   -0.499988   31.01724  0.6307E-14  0.1586E-04  0.5585E-07  0.1342E-02  0.1778E-03  0.9684E+01
   -0.549988   31.01810  0.6307E-14  0.1613E-04  0.5439E-07  0.1426E-02  0.1668E-03  0.9583E+01
   -0.599989   31.01890  0.6307E-14  0.1636E-04  0.5317E-07  0.1501E-02  0.1568E-03  0.9551E+01
   -0.649990   31.01965  0.6307E-14  0.1656E-04  0.5213E-07  0.1568E-02  0.1476E-03  0.9704E+01
   -0.699991   31.02035  0.6307E-14  0.1672E-04  0.5126E-07  0.1627E-02  0.1393E-03  0.9883E+01
   -0.749993   31.02102  0.6307E-14  0.1686E-04  0.5054E-07  0.1679E-02  0.1315E-03  0.1025E+02
   -0.799994   31.02166  0.6307E-14  0.1697E-04  0.4994E-07  0.1722E-02  0.1242E-03  0.1064E+02
   -0.849996   31.02228  0.6307E-14  0.1706E-04  0.4946E-07  0.1757E-02  0.1175E-03  0.1124E+02
   -0.899997   31.02287  0.6307E-14  0.1712E-04  0.4910E-07  0.1784E-02  0.1111E-03  0.1187E+02
   -0.949999   31.02346  0.6307E-14  0.1716E-04  0.4885E-07  0.1801E-02  0.1051E-03  0.1277E+02
   -1.000001   31.02403  0.6307E-14  0.1718E-04  0.4872E-07  0.1811E-02  0.9945E-04  0.1374E+02
   -1.050003   31.02459  0.6307E-14  0.1717E-04  0.4871E-07  0.1810E-02  0.9404E-04  0.1565E+02
   -1.100004   31.02516  0.6307E-14  0.1714E-04  0.4883E-07  0.1910E-02  0.8889E-04  0.5111E+02
   -1.150006   31.02568  0.6307E-14  0.1708E-04  0.4911E-07  0.1705E-02  0.8432E-04  0.1200E+03
   -1.200007   31.02627  0.6307E-14  0.1699E-04  0.4953E-07  0.1741E-02  0.7948E-04  0.2287E+02
   -1.250009   31.02684  0.6307E-14  0.1688E-04  0.5017E-07  0.1709E-02  0.7489E-04  0.2432E+02
   -1.300010   31.02742  0.6307E-14  0.1674E-04  0.5105E-07  0.1654E-02  0.7046E-04  0.2874E+02
   -1.350011   31.02802  0.6307E-14  0.1656E-04  0.5225E-07  0.1591E-02  0.6616E-04  0.3451E+02
   -1.400012   31.02864  0.6307E-14  0.1633E-04  0.5388E-07  0.1508E-02  0.6195E-04  0.4324E+02
   -1.450013   31.02930  0.6307E-14  0.1606E-04  0.5611E-07  0.1426E-02  0.5781E-04  0.5571E+02
   -1.500014   31.02999  0.6307E-14  0.1573E-04  0.5924E-07  0.1308E-02  0.5373E-04  0.7758E+02
   -1.550014   31.03076  0.6307E-14  0.1532E-04  0.6371E-07  0.1223E-02  0.4961E-04  0.1144E+03
   -1.600014   31.03160  0.6307E-14  0.1482E-04  0.7069E-07  0.1075E-02  0.4556E-04  0.2698E+03
   -1.650014   31.03266  0.6307E-14  0.1415E-04  0.8162E-07  0.9936E-03  0.4112E-04  0.9706E+04
   -1.700013   31.03388  0.6307E-14  0.1324E-04  0.1010E-06  0.8079E-03  0.3670E-04  0.1529E+05
   -1.750012   31.03607  0.6307E-14  0.1209E-04  0.1323E-06  0.7283E-03  0.3079E-04  0.9460E+06
   -1.800011   31.03769  0.6307E-14  0.1057E-04  0.1998E-06  0.5081E-03  0.2646E-04  0.8130E+06
   -1.850009   31.04564  0.6307E-14  0.8989E-05  0.3272E-06  0.4719E-03  0.1850E-04  0.6534E+08
   -1.900007   31.04315  0.6307E-14  0.7151E-05  0.6828E-06  0.2167E-03  0.1523E-04  0.8210E+06
   -1.950005   31.06588  0.6307E-14  0.5078E-05  0.1667E-05  0.2053E-03  0.8107E-05 -0.1116E+07
   -2.000002   31.06663  0.6307E-14  0.0000E+00  0.0000E+00  0.0000E+00  0.1557E-04  0.0000E+00
