 1 - depth, m
 2 - temperature, C
 3 - salinity, kg/kg
 4 - turbulent kinetic energy, m**2/s**2
 5 - dissipation rate, m**2/s**3
 6 - kinematic heat conductance, m**2/s
 7 - modulus of horizontal velocity, m/s
 8 - Richardson number, n/d
   -0.000000   29.66399  0.1425E-13  0.4346E-05  0.2510E-06  0.4599E-04  0.9800E-03  0.1236E+05
   -0.049997   29.69303  0.1425E-13  0.7599E-05  0.1119E-06  0.1784E-03  0.5419E-03  0.6154E+02
   -0.099994   29.70304  0.1425E-13  0.9175E-05  0.7818E-07  0.3873E-03  0.4018E-03  0.5290E+02
   -0.149992   29.70598  0.1425E-13  0.1017E-04  0.6596E-07  0.4718E-03  0.3544E-03  0.2583E+02
   -0.199991   29.70830  0.1425E-13  0.1094E-04  0.5875E-07  0.6241E-03  0.3165E-03  0.1680E+02
   -0.249989   29.71000  0.1425E-13  0.1156E-04  0.5399E-07  0.7453E-03  0.2879E-03  0.1242E+02
   -0.299989   29.71139  0.1425E-13  0.1206E-04  0.5058E-07  0.8646E-03  0.2641E-03  0.9928E+01
   -0.349988   29.71255  0.1425E-13  0.1248E-04  0.4801E-07  0.9731E-03  0.2436E-03  0.8474E+01
   -0.399988   29.71357  0.1425E-13  0.1283E-04  0.4600E-07  0.1072E-02  0.2255E-03  0.7586E+01
   -0.449988   29.71446  0.1425E-13  0.1314E-04  0.4437E-07  0.1164E-02  0.2096E-03  0.7103E+01
   -0.499988   29.71527  0.1425E-13  0.1340E-04  0.4301E-07  0.1249E-02  0.1955E-03  0.6948E+01
   -0.549989   29.71601  0.1425E-13  0.1363E-04  0.4188E-07  0.1327E-02  0.1829E-03  0.6831E+01
   -0.599990   29.71670  0.1425E-13  0.1382E-04  0.4091E-07  0.1398E-02  0.1715E-03  0.6871E+01
   -0.649991   29.71734  0.1425E-13  0.1399E-04  0.4009E-07  0.1461E-02  0.1611E-03  0.6923E+01
   -0.699992   29.71795  0.1425E-13  0.1413E-04  0.3940E-07  0.1518E-02  0.1515E-03  0.7117E+01
   -0.749993   29.71852  0.1425E-13  0.1425E-04  0.3881E-07  0.1567E-02  0.1427E-03  0.7308E+01
   -0.799995   29.71907  0.1425E-13  0.1435E-04  0.3832E-07  0.1609E-02  0.1345E-03  0.7653E+01
   -0.849997   29.71959  0.1425E-13  0.1442E-04  0.3792E-07  0.1644E-02  0.1269E-03  0.7992E+01
   -0.899998   29.72010  0.1425E-13  0.1448E-04  0.3760E-07  0.1671E-02  0.1197E-03  0.8514E+01
   -0.950000   29.72060  0.1425E-13  0.1451E-04  0.3736E-07  0.1691E-02  0.1130E-03  0.9043E+01
   -1.000002   29.72108  0.1425E-13  0.1453E-04  0.3720E-07  0.1703E-02  0.1066E-03  0.9803E+01
   -1.050003   29.72156  0.1425E-13  0.1453E-04  0.3714E-07  0.1706E-02  0.1006E-03  0.1102E+02
   -1.100005   29.72203  0.1425E-13  0.1451E-04  0.3716E-07  0.1781E-02  0.9484E-04  0.3715E+02
   -1.150007   29.72248  0.1425E-13  0.1447E-04  0.3729E-07  0.1643E-02  0.8969E-04  0.8109E+02
   -1.200008   29.72296  0.1425E-13  0.1441E-04  0.3752E-07  0.1660E-02  0.8443E-04  0.1569E+02
   -1.250010   29.72343  0.1425E-13  0.1433E-04  0.3789E-07  0.1632E-02  0.7937E-04  0.1677E+02
   -1.300011   29.72391  0.1425E-13  0.1422E-04  0.3841E-07  0.1588E-02  0.7451E-04  0.1937E+02
   -1.350013   29.72439  0.1425E-13  0.1408E-04  0.3915E-07  0.1534E-02  0.6980E-04  0.2311E+02
   -1.400014   29.72489  0.1425E-13  0.1392E-04  0.4014E-07  0.1465E-02  0.6523E-04  0.2804E+02
   -1.450014   29.72542  0.1425E-13  0.1372E-04  0.4149E-07  0.1391E-02  0.6076E-04  0.3538E+02
   -1.500015   29.72596  0.1425E-13  0.1348E-04  0.4334E-07  0.1289E-02  0.5639E-04  0.4663E+02
   -1.550015   29.72656  0.1425E-13  0.1318E-04  0.4595E-07  0.1204E-02  0.5202E-04  0.6464E+02
   -1.600016   29.72719  0.1425E-13  0.1282E-04  0.4982E-07  0.1066E-02  0.4775E-04  0.1044E+03
   -1.650015   29.72793  0.1425E-13  0.1237E-04  0.5570E-07  0.9879E-03  0.4328E-04  0.3151E+04
   -1.700015   29.72875  0.1425E-13  0.1176E-04  0.6629E-07  0.8106E-03  0.3896E-04  0.3106E+04
   -1.750014   29.73010  0.1425E-13  0.1091E-04  0.8395E-07  0.7321E-03  0.3345E-04  0.1476E+05
   -1.800013   29.73139  0.1425E-13  0.9731E-05  0.1197E-06  0.5189E-03  0.2880E-04  0.1651E+05
   -1.850011   29.73557  0.1425E-13  0.8293E-05  0.1876E-06  0.4643E-03  0.2124E-04  0.5461E+07
   -1.900009   29.73569  0.1425E-13  0.6509E-05  0.3887E-06  0.2057E-03  0.1705E-04 -0.2153E+06
   -1.950006   29.75059  0.1425E-13  0.4456E-05  0.1003E-05  0.1684E-03  0.9230E-05 -0.1398E+07
   -2.000003   29.75294  0.1425E-13  0.0000E+00  0.0000E+00  0.0000E+00  0.1602E-04  0.0000E+00
