 1 - depth, m
 2 - temperature, C
 3 - salinity, kg/kg
 4 - turbulent kinetic energy, m**2/s**2
 5 - dissipation rate, m**2/s**3
 6 - kinematic heat conductance, m**2/s
 7 - modulus of horizontal velocity, m/s
 8 - Richardson number, n/d
   -0.000000   30.45733  0.5510E-14  0.4811E-05  0.2979E-06  0.5045E-04  0.1639E-02  0.8004E+04
   -0.049997   30.48748  0.5510E-14  0.8206E-05  0.1330E-06  0.1754E-03  0.9378E-03  0.7631E+02
   -0.099994   30.49916  0.5510E-14  0.9953E-05  0.9135E-07  0.3954E-03  0.6863E-03  0.1838E+02
   -0.149992   30.50242  0.5510E-14  0.1105E-04  0.7659E-07  0.4757E-03  0.6058E-03  0.8981E+01
   -0.199991   30.50500  0.5510E-14  0.1189E-04  0.6794E-07  0.6359E-03  0.5406E-03  0.5755E+01
   -0.249989   30.50688  0.5510E-14  0.1257E-04  0.6227E-07  0.7605E-03  0.4918E-03  0.4245E+01
   -0.299989   30.50841  0.5510E-14  0.1311E-04  0.5821E-07  0.8846E-03  0.4513E-03  0.3369E+01
   -0.349988   30.50968  0.5510E-14  0.1356E-04  0.5517E-07  0.9971E-03  0.4165E-03  0.2881E+01
   -0.399988   30.51079  0.5510E-14  0.1394E-04  0.5280E-07  0.1100E-02  0.3859E-03  0.2561E+01
   -0.449988   30.51177  0.5510E-14  0.1427E-04  0.5086E-07  0.1195E-02  0.3589E-03  0.2407E+01
   -0.499988   30.51265  0.5510E-14  0.1455E-04  0.4926E-07  0.1283E-02  0.3350E-03  0.2336E+01
   -0.549989   30.51346  0.5510E-14  0.1479E-04  0.4791E-07  0.1364E-02  0.3137E-03  0.2308E+01
   -0.599990   30.51420  0.5510E-14  0.1500E-04  0.4676E-07  0.1436E-02  0.2944E-03  0.2302E+01
   -0.649991   30.51490  0.5510E-14  0.1517E-04  0.4579E-07  0.1502E-02  0.2767E-03  0.2333E+01
   -0.699992   30.51555  0.5510E-14  0.1532E-04  0.4496E-07  0.1560E-02  0.2606E-03  0.2378E+01
   -0.749993   30.51617  0.5510E-14  0.1544E-04  0.4426E-07  0.1610E-02  0.2456E-03  0.2458E+01
   -0.799995   30.51676  0.5510E-14  0.1554E-04  0.4367E-07  0.1653E-02  0.2317E-03  0.2551E+01
   -0.849996   30.51733  0.5510E-14  0.1561E-04  0.4319E-07  0.1689E-02  0.2188E-03  0.2684E+01
   -0.899998   30.51788  0.5510E-14  0.1567E-04  0.4280E-07  0.1716E-02  0.2066E-03  0.2833E+01
   -0.950000   30.51842  0.5510E-14  0.1570E-04  0.4251E-07  0.1735E-02  0.1951E-03  0.3034E+01
   -1.000001   30.51894  0.5510E-14  0.1571E-04  0.4231E-07  0.1746E-02  0.1843E-03  0.3259E+01
   -1.050003   30.51945  0.5510E-14  0.1569E-04  0.4222E-07  0.1748E-02  0.1740E-03  0.3693E+01
   -1.100005   30.51996  0.5510E-14  0.1566E-04  0.4223E-07  0.1833E-02  0.1643E-03  0.1222E+02
   -1.150006   30.52044  0.5510E-14  0.1561E-04  0.4237E-07  0.1668E-02  0.1555E-03  0.2744E+02
   -1.200008   30.52096  0.5510E-14  0.1553E-04  0.4263E-07  0.1693E-02  0.1465E-03  0.5288E+01
   -1.250010   30.52147  0.5510E-14  0.1543E-04  0.4305E-07  0.1664E-02  0.1378E-03  0.5600E+01
   -1.300011   30.52199  0.5510E-14  0.1529E-04  0.4367E-07  0.1615E-02  0.1295E-03  0.6543E+01
   -1.350012   30.52251  0.5510E-14  0.1513E-04  0.4453E-07  0.1558E-02  0.1214E-03  0.7777E+01
   -1.400013   30.52306  0.5510E-14  0.1494E-04  0.4572E-07  0.1482E-02  0.1136E-03  0.9575E+01
   -1.450014   30.52362  0.5510E-14  0.1470E-04  0.4735E-07  0.1406E-02  0.1059E-03  0.1210E+02
   -1.500015   30.52422  0.5510E-14  0.1441E-04  0.4962E-07  0.1295E-02  0.9830E-04  0.1632E+02
   -1.550015   30.52487  0.5510E-14  0.1407E-04  0.5285E-07  0.1212E-02  0.9071E-04  0.2296E+02
   -1.600015   30.52557  0.5510E-14  0.1364E-04  0.5780E-07  0.1068E-02  0.8329E-04  0.4106E+02
   -1.650015   30.52642  0.5510E-14  0.1309E-04  0.6544E-07  0.9911E-03  0.7536E-04  0.3811E+03
   -1.700014   30.52736  0.5510E-14  0.1235E-04  0.7928E-07  0.8085E-03  0.6770E-04  0.6261E+02
   -1.750013   30.52902  0.5510E-14  0.1135E-04  0.1023E-06  0.7303E-03  0.5742E-04  0.3142E+06
   -1.800012   30.53049  0.5510E-14  0.1001E-04  0.1510E-06  0.5115E-03  0.4926E-04  0.4585E+05
   -1.850010   30.53596  0.5510E-14  0.8468E-05  0.2415E-06  0.4670E-03  0.3542E-04  0.5095E+07
   -1.900008   30.53518  0.5510E-14  0.6687E-05  0.5106E-06  0.2141E-03  0.2867E-04  0.1885E+06
   -1.950006   30.55231  0.5510E-14  0.4652E-05  0.1287E-05  0.1842E-03  0.1547E-04 -0.1999E+06
   -2.000003   30.55474  0.5510E-14  0.0000E+00  0.0000E+00  0.0000E+00  0.2837E-04  0.0000E+00
