 1 - depth, m
 2 - temperature, C
 3 - salinity, kg/kg
 4 - turbulent kinetic energy, m**2/s**2
 5 - dissipation rate, m**2/s**3
 6 - kinematic heat conductance, m**2/s
 7 - modulus of horizontal velocity, m/s
 8 - Richardson number, n/d
   -0.000000   30.63953  0.9019E-14  0.5122E-05  0.3297E-06  0.5264E-04  0.2006E-02  0.1975E+04
   -0.049997   30.67067  0.9019E-14  0.8638E-05  0.1467E-06  0.1768E-03  0.1160E-02  0.5468E+03
   -0.099994   30.68332  0.9019E-14  0.1049E-04  0.9998E-07  0.4048E-03  0.8455E-03  0.1196E+02
   -0.149992   30.68671  0.9019E-14  0.1165E-04  0.8363E-07  0.4835E-03  0.7475E-03  0.5854E+01
   -0.199991   30.68945  0.9019E-14  0.1255E-04  0.7409E-07  0.6496E-03  0.6674E-03  0.3733E+01
   -0.249989   30.69142  0.9019E-14  0.1327E-04  0.6786E-07  0.7767E-03  0.6078E-03  0.2748E+01
   -0.299988   30.69302  0.9019E-14  0.1385E-04  0.6344E-07  0.9047E-03  0.5583E-03  0.2182E+01
   -0.349988   30.69436  0.9019E-14  0.1434E-04  0.6013E-07  0.1020E-02  0.5158E-03  0.1863E+01
   -0.399988   30.69553  0.9019E-14  0.1474E-04  0.5756E-07  0.1126E-02  0.4784E-03  0.1658E+01
   -0.449988   30.69656  0.9019E-14  0.1509E-04  0.5547E-07  0.1224E-02  0.4454E-03  0.1554E+01
   -0.499988   30.69749  0.9019E-14  0.1539E-04  0.5375E-07  0.1315E-02  0.4162E-03  0.1510E+01
   -0.549989   30.69833  0.9019E-14  0.1566E-04  0.5231E-07  0.1397E-02  0.3901E-03  0.1488E+01
   -0.599989   30.69912  0.9019E-14  0.1588E-04  0.5109E-07  0.1472E-02  0.3665E-03  0.1488E+01
   -0.649990   30.69985  0.9019E-14  0.1607E-04  0.5007E-07  0.1539E-02  0.3450E-03  0.1505E+01
   -0.699992   30.70055  0.9019E-14  0.1623E-04  0.4921E-07  0.1598E-02  0.3251E-03  0.1538E+01
   -0.749993   30.70120  0.9019E-14  0.1637E-04  0.4849E-07  0.1650E-02  0.3068E-03  0.1587E+01
   -0.799994   30.70183  0.9019E-14  0.1648E-04  0.4789E-07  0.1693E-02  0.2898E-03  0.1653E+01
   -0.849996   30.70243  0.9019E-14  0.1656E-04  0.4741E-07  0.1729E-02  0.2739E-03  0.1737E+01
   -0.899998   30.70302  0.9019E-14  0.1662E-04  0.4704E-07  0.1756E-02  0.2589E-03  0.1842E+01
   -0.949999   30.70359  0.9019E-14  0.1666E-04  0.4678E-07  0.1775E-02  0.2448E-03  0.1971E+01
   -1.000001   30.70415  0.9019E-14  0.1668E-04  0.4663E-07  0.1785E-02  0.2315E-03  0.2129E+01
   -1.050003   30.70470  0.9019E-14  0.1667E-04  0.4660E-07  0.1785E-02  0.2188E-03  0.2411E+01
   -1.100004   30.70525  0.9019E-14  0.1664E-04  0.4668E-07  0.1879E-02  0.2067E-03  0.7946E+01
   -1.150006   30.70577  0.9019E-14  0.1659E-04  0.4692E-07  0.1692E-02  0.1960E-03  0.1838E+02
   -1.200007   30.70634  0.9019E-14  0.1651E-04  0.4730E-07  0.1722E-02  0.1847E-03  0.3502E+01
   -1.250009   30.70690  0.9019E-14  0.1640E-04  0.4787E-07  0.1691E-02  0.1740E-03  0.3734E+01
   -1.300010   30.70746  0.9019E-14  0.1627E-04  0.4867E-07  0.1639E-02  0.1636E-03  0.4381E+01
   -1.350011   30.70804  0.9019E-14  0.1609E-04  0.4977E-07  0.1578E-02  0.1536E-03  0.5265E+01
   -1.400012   30.70864  0.9019E-14  0.1588E-04  0.5126E-07  0.1498E-02  0.1437E-03  0.6544E+01
   -1.450013   30.70927  0.9019E-14  0.1563E-04  0.5330E-07  0.1418E-02  0.1341E-03  0.8410E+01
   -1.500014   30.70995  0.9019E-14  0.1531E-04  0.5615E-07  0.1304E-02  0.1246E-03  0.1157E+02
   -1.550014   30.71069  0.9019E-14  0.1493E-04  0.6021E-07  0.1218E-02  0.1150E-03  0.1686E+02
   -1.600014   30.71149  0.9019E-14  0.1445E-04  0.6650E-07  0.1074E-02  0.1056E-03  0.2938E+02
   -1.650014   30.71248  0.9019E-14  0.1383E-04  0.7638E-07  0.9920E-03  0.9546E-04  0.2643E+03
   -1.700013   30.71364  0.9019E-14  0.1297E-04  0.9409E-07  0.8119E-03  0.8531E-04 -0.2076E+04
   -1.750013   30.71567  0.9019E-14  0.1187E-04  0.1226E-06  0.7311E-03  0.7199E-04  0.1796E+06
   -1.800011   30.71727  0.9019E-14  0.1041E-04  0.1837E-06  0.5075E-03  0.6179E-04 -0.6905E+03
   -1.850010   30.72451  0.9019E-14  0.8833E-05  0.2988E-06  0.4675E-03  0.4369E-04  0.2533E+07
   -1.900007   30.72255  0.9019E-14  0.7030E-05  0.6255E-06  0.2181E-03  0.3572E-04  0.6118E+06
   -1.950005   30.74391  0.9019E-14  0.4959E-05  0.1549E-05  0.1967E-03  0.1927E-04 -0.1497E+06
   -2.000002   30.74538  0.9019E-14  0.0000E+00  0.0000E+00  0.0000E+00  0.3608E-04  0.0000E+00
