 1 - depth, m
 2 - temperature, C
 3 - salinity, kg/kg
 4 - turbulent kinetic energy, m**2/s**2
 5 - dissipation rate, m**2/s**3
 6 - kinematic heat conductance, m**2/s
 7 - modulus of horizontal velocity, m/s
 8 - Richardson number, n/d
   -0.000000   31.18586  0.9317E-14  0.5346E-05  0.3529E-06  0.5203E-04  0.9774E-03  0.7941E+04
   -0.049997   31.22094  0.9317E-14  0.9252E-05  0.1567E-06  0.1918E-03  0.5544E-03  0.3544E+04
   -0.099994   31.23358  0.9317E-14  0.1120E-04  0.1083E-06  0.4220E-03  0.4098E-03  0.7584E+02
   -0.149992   31.23716  0.9317E-14  0.1243E-04  0.9095E-07  0.5047E-03  0.3631E-03  0.3756E+02
   -0.199990   31.24002  0.9317E-14  0.1339E-04  0.8078E-07  0.6763E-03  0.3251E-03  0.2437E+02
   -0.249989   31.24208  0.9317E-14  0.1415E-04  0.7413E-07  0.8063E-03  0.2968E-03  0.1796E+02
   -0.299988   31.24377  0.9317E-14  0.1477E-04  0.6939E-07  0.9380E-03  0.2731E-03  0.1439E+02
   -0.349987   31.24518  0.9317E-14  0.1528E-04  0.6584E-07  0.1056E-02  0.2528E-03  0.1219E+02
   -0.399987   31.24641  0.9317E-14  0.1571E-04  0.6308E-07  0.1164E-02  0.2349E-03  0.1094E+02
   -0.449987   31.24749  0.9317E-14  0.1607E-04  0.6083E-07  0.1265E-02  0.2191E-03  0.1014E+02
   -0.499988   31.24848  0.9317E-14  0.1639E-04  0.5898E-07  0.1356E-02  0.2051E-03  0.9950E+01
   -0.549988   31.24937  0.9317E-14  0.1666E-04  0.5743E-07  0.1440E-02  0.1925E-03  0.9670E+01
   -0.599989   31.25020  0.9317E-14  0.1690E-04  0.5612E-07  0.1515E-02  0.1811E-03  0.9776E+01
   -0.649990   31.25098  0.9317E-14  0.1710E-04  0.5503E-07  0.1583E-02  0.1707E-03  0.9736E+01
   -0.699991   31.25171  0.9317E-14  0.1726E-04  0.5410E-07  0.1642E-02  0.1611E-03  0.1008E+02
   -0.749992   31.25240  0.9317E-14  0.1740E-04  0.5333E-07  0.1693E-02  0.1523E-03  0.1023E+02
   -0.799994   31.25307  0.9317E-14  0.1751E-04  0.5270E-07  0.1736E-02  0.1440E-03  0.1081E+02
   -0.849995   31.25371  0.9317E-14  0.1759E-04  0.5220E-07  0.1770E-02  0.1363E-03  0.1117E+02
   -0.899997   31.25433  0.9317E-14  0.1765E-04  0.5182E-07  0.1795E-02  0.1290E-03  0.1204E+02
   -0.949998   31.25494  0.9317E-14  0.1769E-04  0.5156E-07  0.1812E-02  0.1221E-03  0.1267E+02
   -1.000000   31.25553  0.9317E-14  0.1769E-04  0.5143E-07  0.1820E-02  0.1156E-03  0.1393E+02
   -1.050002   31.25612  0.9317E-14  0.1768E-04  0.5143E-07  0.1816E-02  0.1094E-03  0.1551E+02
   -1.100003   31.25671  0.9317E-14  0.1764E-04  0.5157E-07  0.1926E-02  0.1035E-03  0.5064E+02
   -1.150005   31.25725  0.9317E-14  0.1757E-04  0.5190E-07  0.1695E-02  0.9826E-04  0.1279E+03
   -1.200006   31.25788  0.9317E-14  0.1747E-04  0.5238E-07  0.1738E-02  0.9265E-04  0.2306E+02
   -1.250008   31.25848  0.9317E-14  0.1734E-04  0.5310E-07  0.1705E-02  0.8734E-04  0.2499E+02
   -1.300009   31.25909  0.9317E-14  0.1718E-04  0.5411E-07  0.1647E-02  0.8224E-04  0.2912E+02
   -1.350010   31.25971  0.9317E-14  0.1698E-04  0.5548E-07  0.1582E-02  0.7724E-04  0.3613E+02
   -1.400011   31.26037  0.9317E-14  0.1673E-04  0.5736E-07  0.1492E-02  0.7237E-04  0.4522E+02
   -1.450012   31.26107  0.9317E-14  0.1643E-04  0.5995E-07  0.1413E-02  0.6754E-04  0.6057E+02
   -1.500013   31.26181  0.9317E-14  0.1606E-04  0.6362E-07  0.1289E-02  0.6279E-04  0.8699E+02
   -1.550013   31.26264  0.9317E-14  0.1560E-04  0.6896E-07  0.1212E-02  0.5794E-04  0.1387E+03
   -1.600013   31.26355  0.9317E-14  0.1503E-04  0.7757E-07  0.1058E-02  0.5320E-04 -0.1750E+02
   -1.650013   31.26478  0.9317E-14  0.1427E-04  0.9095E-07  0.9810E-03  0.4783E-04  0.1511E+04
   -1.700012   31.26614  0.9317E-14  0.1322E-04  0.1158E-06  0.7846E-03  0.4252E-04  0.7513E+07
   -1.750011   31.26886  0.9317E-14  0.1196E-04  0.1542E-06  0.7220E-03  0.3519E-04  0.8643E+06
   -1.800010   31.27026  0.9317E-14  0.1044E-04  0.2383E-06  0.4878E-03  0.3044E-04  0.1826E+06
   -1.850008   31.28026  0.9317E-14  0.8869E-05  0.3997E-06  0.4750E-03  0.2091E-04  0.2000E+09
   -1.900006   31.27583  0.9317E-14  0.7141E-05  0.8427E-06  0.2227E-03  0.1749E-04 -0.8643E+06
   -1.950003   31.30067  0.9317E-14  0.5095E-05  0.2011E-05  0.2200E-03  0.9344E-05 -0.1708E+07
   -2.000000   31.30249  0.9317E-14  0.0000E+00  0.0000E+00  0.0000E+00  0.1847E-04  0.0000E+00
