 1 - depth, m
 2 - temperature, C
 3 - salinity, kg/kg
 4 - turbulent kinetic energy, m**2/s**2
 5 - dissipation rate, m**2/s**3
 6 - kinematic heat conductance, m**2/s
 7 - modulus of horizontal velocity, m/s
 8 - Richardson number, n/d
   -0.000000   30.72979  0.2033E-14  0.4933E-05  0.3112E-06  0.5033E-04  0.6338E-03  0.3793E+05
   -0.049997   30.76236  0.2033E-14  0.8657E-05  0.1382E-06  0.1852E-03  0.3605E-03  0.5008E+04
   -0.099994   30.77408  0.2033E-14  0.1047E-04  0.9559E-07  0.4182E-03  0.2623E-03  0.1598E+03
   -0.149992   30.77735  0.2033E-14  0.1160E-04  0.8066E-07  0.4944E-03  0.2324E-03  0.7952E+02
   -0.199991   30.78000  0.2033E-14  0.1248E-04  0.7181E-07  0.6609E-03  0.2078E-03  0.5207E+02
   -0.249989   30.78192  0.2033E-14  0.1318E-04  0.6598E-07  0.7880E-03  0.1893E-03  0.3894E+02
   -0.299988   30.78349  0.2033E-14  0.1375E-04  0.6179E-07  0.9146E-03  0.1740E-03  0.3109E+02
   -0.349988   30.78480  0.2033E-14  0.1422E-04  0.5864E-07  0.1029E-02  0.1608E-03  0.2676E+02
   -0.399988   30.78594  0.2033E-14  0.1461E-04  0.5618E-07  0.1134E-02  0.1492E-03  0.2381E+02
   -0.449988   30.78695  0.2033E-14  0.1495E-04  0.5417E-07  0.1231E-02  0.1389E-03  0.2246E+02
   -0.499988   30.78786  0.2033E-14  0.1524E-04  0.5250E-07  0.1320E-02  0.1298E-03  0.2177E+02
   -0.549989   30.78869  0.2033E-14  0.1549E-04  0.5110E-07  0.1401E-02  0.1217E-03  0.2158E+02
   -0.599989   30.78946  0.2033E-14  0.1571E-04  0.4991E-07  0.1475E-02  0.1143E-03  0.2149E+02
   -0.649991   30.79018  0.2033E-14  0.1589E-04  0.4890E-07  0.1541E-02  0.1076E-03  0.2185E+02
   -0.699992   30.79086  0.2033E-14  0.1604E-04  0.4804E-07  0.1599E-02  0.1014E-03  0.2223E+02
   -0.749993   30.79151  0.2033E-14  0.1617E-04  0.4732E-07  0.1650E-02  0.9564E-04  0.2306E+02
   -0.799995   30.79212  0.2033E-14  0.1627E-04  0.4671E-07  0.1692E-02  0.9033E-04  0.2388E+02
   -0.849996   30.79271  0.2033E-14  0.1634E-04  0.4622E-07  0.1727E-02  0.8534E-04  0.2522E+02
   -0.899998   30.79329  0.2033E-14  0.1639E-04  0.4583E-07  0.1754E-02  0.8067E-04  0.2659E+02
   -0.949999   30.79384  0.2033E-14  0.1642E-04  0.4554E-07  0.1772E-02  0.7625E-04  0.2859E+02
   -1.000001   30.79439  0.2033E-14  0.1643E-04  0.4536E-07  0.1782E-02  0.7209E-04  0.3069E+02
   -1.050003   30.79492  0.2033E-14  0.1642E-04  0.4529E-07  0.1781E-02  0.6812E-04  0.3490E+02
   -1.100005   30.79546  0.2033E-14  0.1638E-04  0.4534E-07  0.1876E-02  0.6434E-04  0.1136E+03
   -1.150006   30.79595  0.2033E-14  0.1632E-04  0.4553E-07  0.1686E-02  0.6098E-04  0.2682E+03
   -1.200008   30.79651  0.2033E-14  0.1623E-04  0.4585E-07  0.1718E-02  0.5746E-04  0.5079E+02
   -1.250009   30.79704  0.2033E-14  0.1612E-04  0.4636E-07  0.1687E-02  0.5411E-04  0.5378E+02
   -1.300011   30.79759  0.2033E-14  0.1598E-04  0.4708E-07  0.1636E-02  0.5087E-04  0.6342E+02
   -1.350012   30.79814  0.2033E-14  0.1580E-04  0.4809E-07  0.1575E-02  0.4774E-04  0.7591E+02
   -1.400013   30.79872  0.2033E-14  0.1559E-04  0.4947E-07  0.1495E-02  0.4468E-04  0.9495E+02
   -1.450014   30.79932  0.2033E-14  0.1533E-04  0.5137E-07  0.1416E-02  0.4168E-04  0.1216E+03
   -1.500014   30.79996  0.2033E-14  0.1501E-04  0.5403E-07  0.1301E-02  0.3873E-04  0.1691E+03
   -1.550015   30.80066  0.2033E-14  0.1463E-04  0.5784E-07  0.1218E-02  0.3576E-04  0.2453E+03
   -1.600015   30.80142  0.2033E-14  0.1416E-04  0.6380E-07  0.1072E-02  0.3284E-04  0.5966E+03
   -1.650014   30.80236  0.2033E-14  0.1355E-04  0.7314E-07  0.9892E-03  0.2969E-04  0.3920E+04
   -1.700014   30.80342  0.2033E-14  0.1271E-04  0.8983E-07  0.8095E-03  0.2657E-04 -0.2839E+04
   -1.750013   30.80533  0.2033E-14  0.1163E-04  0.1169E-06  0.7261E-03  0.2247E-04  0.1710E+07
   -1.800012   30.80681  0.2033E-14  0.1020E-04  0.1752E-06  0.5113E-03  0.1931E-04  0.6896E+07
   -1.850010   30.81338  0.2033E-14  0.8659E-05  0.2848E-06  0.4649E-03  0.1379E-04  0.1977E+09
   -1.900008   30.81180  0.2033E-14  0.6840E-05  0.5990E-06  0.2131E-03  0.1121E-04 -0.2481E+07
   -1.950005   30.83122  0.2033E-14  0.4809E-05  0.1474E-05  0.1961E-03  0.6032E-05 -0.8010E+07
   -2.000002   30.83302  0.2033E-14  0.0000E+00  0.0000E+00  0.0000E+00  0.1122E-04  0.0000E+00
