 1 - depth, m
 2 - temperature, C
 3 - salinity, kg/kg
 4 - turbulent kinetic energy, m**2/s**2
 5 - dissipation rate, m**2/s**3
 6 - kinematic heat conductance, m**2/s
 7 - modulus of horizontal velocity, m/s
 8 - Richardson number, n/d
   -0.000000   30.33363  0.1093E-13  0.4576E-05  0.2776E-06  0.4934E-04  0.1308E-02  0.1233E+05
   -0.049997   30.36197  0.1093E-13  0.7911E-05  0.1237E-06  0.1753E-03  0.7421E-03  0.4761E+03
   -0.099994   30.37289  0.1093E-13  0.9613E-05  0.8525E-07  0.3966E-03  0.5420E-03  0.2628E+02
   -0.149992   30.37589  0.1093E-13  0.1068E-04  0.7168E-07  0.4770E-03  0.4785E-03  0.1286E+02
   -0.199991   30.37828  0.1093E-13  0.1152E-04  0.6375E-07  0.6376E-03  0.4271E-03  0.8277E+01
   -0.249989   30.38002  0.1093E-13  0.1218E-04  0.5857E-07  0.7623E-03  0.3887E-03  0.6124E+01
   -0.299988   30.38144  0.1093E-13  0.1273E-04  0.5490E-07  0.8867E-03  0.3567E-03  0.4885E+01
   -0.349988   30.38263  0.1093E-13  0.1319E-04  0.5216E-07  0.9994E-03  0.3293E-03  0.4189E+01
   -0.399988   30.38367  0.1093E-13  0.1358E-04  0.5004E-07  0.1103E-02  0.3051E-03  0.3738E+01
   -0.449988   30.38459  0.1093E-13  0.1392E-04  0.4833E-07  0.1199E-02  0.2838E-03  0.3515E+01
   -0.499988   30.38542  0.1093E-13  0.1421E-04  0.4692E-07  0.1287E-02  0.2649E-03  0.3419E+01
   -0.549989   30.38619  0.1093E-13  0.1447E-04  0.4576E-07  0.1368E-02  0.2481E-03  0.3380E+01
   -0.599989   30.38689  0.1093E-13  0.1469E-04  0.4479E-07  0.1441E-02  0.2328E-03  0.3384E+01
   -0.649991   30.38755  0.1093E-13  0.1489E-04  0.4398E-07  0.1507E-02  0.2189E-03  0.3435E+01
   -0.699992   30.38818  0.1093E-13  0.1506E-04  0.4332E-07  0.1566E-02  0.2062E-03  0.3517E+01
   -0.749993   30.38877  0.1093E-13  0.1521E-04  0.4277E-07  0.1617E-02  0.1944E-03  0.3644E+01
   -0.799995   30.38935  0.1093E-13  0.1533E-04  0.4234E-07  0.1661E-02  0.1834E-03  0.3802E+01
   -0.849996   30.38990  0.1093E-13  0.1543E-04  0.4200E-07  0.1697E-02  0.1732E-03  0.4011E+01
   -0.899998   30.39043  0.1093E-13  0.1551E-04  0.4177E-07  0.1725E-02  0.1636E-03  0.4260E+01
   -0.949999   30.39096  0.1093E-13  0.1557E-04  0.4163E-07  0.1744E-02  0.1545E-03  0.4576E+01
   -1.000001   30.39147  0.1093E-13  0.1561E-04  0.4158E-07  0.1756E-02  0.1460E-03  0.4949E+01
   -1.050003   30.39198  0.1093E-13  0.1563E-04  0.4164E-07  0.1759E-02  0.1378E-03  0.5635E+01
   -1.100005   30.39249  0.1093E-13  0.1563E-04  0.4180E-07  0.1838E-02  0.1301E-03  0.1890E+02
   -1.150006   30.39297  0.1093E-13  0.1561E-04  0.4209E-07  0.1688E-02  0.1232E-03  0.4152E+02
   -1.200008   30.39350  0.1093E-13  0.1557E-04  0.4251E-07  0.1706E-02  0.1161E-03  0.8138E+01
   -1.250009   30.39402  0.1093E-13  0.1550E-04  0.4309E-07  0.1677E-02  0.1092E-03  0.8717E+01
   -1.300011   30.39455  0.1093E-13  0.1541E-04  0.4387E-07  0.1630E-02  0.1026E-03  0.1021E+02
   -1.350012   30.39510  0.1093E-13  0.1528E-04  0.4490E-07  0.1573E-02  0.9626E-04  0.1221E+02
   -1.400013   30.39566  0.1093E-13  0.1512E-04  0.4625E-07  0.1499E-02  0.9004E-04  0.1505E+02
   -1.450014   30.39626  0.1093E-13  0.1492E-04  0.4805E-07  0.1423E-02  0.8395E-04  0.1909E+02
   -1.500014   30.39689  0.1093E-13  0.1467E-04  0.5050E-07  0.1315E-02  0.7798E-04  0.2572E+02
   -1.550015   30.39758  0.1093E-13  0.1437E-04  0.5389E-07  0.1231E-02  0.7199E-04  0.3622E+02
   -1.600015   30.39833  0.1093E-13  0.1398E-04  0.5898E-07  0.1088E-02  0.6612E-04  0.6739E+02
   -1.650014   30.39924  0.1093E-13  0.1348E-04  0.6670E-07  0.1007E-02  0.5988E-04  0.3560E+03
   -1.700014   30.40025  0.1093E-13  0.1279E-04  0.8031E-07  0.8267E-03  0.5382E-04 -0.1246E+04
   -1.750013   30.40198  0.1093E-13  0.1187E-04  0.1027E-06  0.7468E-03  0.4600E-04  0.1032E+05
   -1.800012   30.40352  0.1093E-13  0.1059E-04  0.1485E-06  0.5300E-03  0.3960E-04  0.1713E+04
   -1.850010   30.40920  0.1093E-13  0.9105E-05  0.2357E-06  0.4817E-03  0.2906E-04  0.8121E+08
   -1.900008   30.40874  0.1093E-13  0.7239E-05  0.4870E-06  0.2144E-03  0.2353E-04  0.1183E+07
   -1.950005   30.42778  0.1093E-13  0.5031E-05  0.1238E-05  0.1778E-03  0.1289E-04 -0.9773E+06
   -2.000002   30.43086  0.1093E-13  0.0000E+00  0.0000E+00  0.0000E+00  0.2232E-04  0.0000E+00
