 1 - depth, m
 2 - temperature, C
 3 - salinity, kg/kg
 4 - turbulent kinetic energy, m**2/s**2
 5 - dissipation rate, m**2/s**3
 6 - kinematic heat conductance, m**2/s
 7 - modulus of horizontal velocity, m/s
 8 - Richardson number, n/d
   -0.000000   30.57731  0.1912E-14  0.4749E-05  0.2979E-06  0.5057E-04  0.7374E-03  0.1333E+05
   -0.049997   30.60738  0.1912E-14  0.8319E-05  0.1320E-06  0.1779E-03  0.4221E-03  0.4479E+02
   -0.099994   30.61916  0.1912E-14  0.1011E-04  0.9078E-07  0.4147E-03  0.3050E-03  0.8798E+02
   -0.149992   30.62226  0.1912E-14  0.1122E-04  0.7660E-07  0.4880E-03  0.2704E-03  0.4312E+02
   -0.199991   30.62478  0.1912E-14  0.1209E-04  0.6825E-07  0.6540E-03  0.2416E-03  0.2803E+02
   -0.249989   30.62661  0.1912E-14  0.1278E-04  0.6276E-07  0.7800E-03  0.2202E-03  0.2086E+02
   -0.299988   30.62811  0.1912E-14  0.1334E-04  0.5885E-07  0.9059E-03  0.2023E-03  0.1667E+02
   -0.349988   30.62937  0.1912E-14  0.1381E-04  0.5592E-07  0.1020E-02  0.1870E-03  0.1432E+02
   -0.399988   30.63046  0.1912E-14  0.1421E-04  0.5365E-07  0.1124E-02  0.1735E-03  0.1278E+02
   -0.449988   30.63143  0.1912E-14  0.1455E-04  0.5181E-07  0.1220E-02  0.1615E-03  0.1203E+02
   -0.499988   30.63231  0.1912E-14  0.1484E-04  0.5029E-07  0.1309E-02  0.1509E-03  0.1170E+02
   -0.549989   30.63312  0.1912E-14  0.1510E-04  0.4902E-07  0.1389E-02  0.1415E-03  0.1158E+02
   -0.599989   30.63386  0.1912E-14  0.1532E-04  0.4796E-07  0.1463E-02  0.1329E-03  0.1158E+02
   -0.649991   30.63456  0.1912E-14  0.1552E-04  0.4708E-07  0.1528E-02  0.1251E-03  0.1177E+02
   -0.699992   30.63522  0.1912E-14  0.1568E-04  0.4634E-07  0.1586E-02  0.1179E-03  0.1203E+02
   -0.749993   30.63585  0.1912E-14  0.1582E-04  0.4572E-07  0.1635E-02  0.1112E-03  0.1247E+02
   -0.799995   30.63645  0.1912E-14  0.1593E-04  0.4523E-07  0.1677E-02  0.1050E-03  0.1299E+02
   -0.849996   30.63703  0.1912E-14  0.1602E-04  0.4484E-07  0.1711E-02  0.9920E-04  0.1372E+02
   -0.899998   30.63759  0.1912E-14  0.1609E-04  0.4456E-07  0.1737E-02  0.9376E-04  0.1455E+02
   -0.949999   30.63814  0.1912E-14  0.1613E-04  0.4438E-07  0.1755E-02  0.8863E-04  0.1565E+02
   -1.000001   30.63869  0.1912E-14  0.1616E-04  0.4430E-07  0.1764E-02  0.8377E-04  0.1691E+02
   -1.050003   30.63922  0.1912E-14  0.1616E-04  0.4433E-07  0.1763E-02  0.7916E-04  0.1925E+02
   -1.100005   30.63975  0.1912E-14  0.1614E-04  0.4448E-07  0.1857E-02  0.7476E-04  0.6301E+02
   -1.150006   30.64025  0.1912E-14  0.1609E-04  0.4478E-07  0.1666E-02  0.7084E-04  0.1489E+03
   -1.200008   30.64081  0.1912E-14  0.1602E-04  0.4521E-07  0.1697E-02  0.6673E-04  0.2827E+02
   -1.250009   30.64136  0.1912E-14  0.1592E-04  0.4583E-07  0.1665E-02  0.6282E-04  0.3016E+02
   -1.300011   30.64191  0.1912E-14  0.1580E-04  0.4667E-07  0.1612E-02  0.5905E-04  0.3564E+02
   -1.350012   30.64249  0.1912E-14  0.1564E-04  0.4780E-07  0.1551E-02  0.5539E-04  0.4291E+02
   -1.400013   30.64308  0.1912E-14  0.1544E-04  0.4932E-07  0.1470E-02  0.5182E-04  0.5375E+02
   -1.450014   30.64371  0.1912E-14  0.1519E-04  0.5139E-07  0.1390E-02  0.4831E-04  0.6930E+02
   -1.500014   30.64438  0.1912E-14  0.1489E-04  0.5425E-07  0.1276E-02  0.4485E-04  0.9625E+02
   -1.550015   30.64512  0.1912E-14  0.1452E-04  0.5831E-07  0.1192E-02  0.4137E-04  0.1405E+03
   -1.600015   30.64592  0.1912E-14  0.1405E-04  0.6460E-07  0.1047E-02  0.3795E-04  0.3129E+03
   -1.650014   30.64692  0.1912E-14  0.1344E-04  0.7449E-07  0.9667E-03  0.3424E-04  0.6209E+04
   -1.700014   30.64809  0.1912E-14  0.1260E-04  0.9198E-07  0.7836E-03  0.3057E-04  0.2097E+06
   -1.750013   30.65016  0.1912E-14  0.1150E-04  0.1204E-06  0.7078E-03  0.2569E-04  0.1071E+07
   -1.800012   30.65183  0.1912E-14  0.1006E-04  0.1809E-06  0.4846E-03  0.2200E-04  0.7866E+06
   -1.850010   30.65908  0.1912E-14  0.8503E-05  0.2959E-06  0.4578E-03  0.1549E-04  0.3889E+08
   -1.900008   30.65718  0.1912E-14  0.6765E-05  0.6297E-06  0.2094E-03  0.1265E-04  0.4844E+06
   -1.950005   30.67876  0.1912E-14  0.4771E-05  0.1546E-05  0.1992E-03  0.6733E-05 -0.1780E+07
   -2.000002   30.68039  0.1912E-14  0.0000E+00  0.0000E+00  0.0000E+00  0.1282E-04  0.0000E+00
