 1 - depth, m
 2 - temperature, C
 3 - salinity, kg/kg
 4 - turbulent kinetic energy, m**2/s**2
 5 - dissipation rate, m**2/s**3
 6 - kinematic heat conductance, m**2/s
 7 - modulus of horizontal velocity, m/s
 8 - Richardson number, n/d
   -0.000000   30.92916  0.5328E-14  0.4917E-05  0.3120E-06  0.5080E-04  0.6311E-03  0.3285E+05
   -0.049997   30.96081  0.5328E-14  0.8628E-05  0.1383E-06  0.1833E-03  0.3607E-03  0.9513E+04
   -0.099994   30.97266  0.5328E-14  0.1046E-04  0.9541E-07  0.4205E-03  0.2622E-03  0.1391E+03
   -0.149992   30.97586  0.5328E-14  0.1160E-04  0.8052E-07  0.4951E-03  0.2326E-03  0.6857E+02
   -0.199991   30.97846  0.5328E-14  0.1249E-04  0.7172E-07  0.6634E-03  0.2081E-03  0.4478E+02
   -0.249989   30.98035  0.5328E-14  0.1320E-04  0.6594E-07  0.7910E-03  0.1898E-03  0.3320E+02
   -0.299988   30.98189  0.5328E-14  0.1378E-04  0.6181E-07  0.9185E-03  0.1745E-03  0.2663E+02
   -0.349988   30.98318  0.5328E-14  0.1426E-04  0.5872E-07  0.1034E-02  0.1614E-03  0.2271E+02
   -0.399988   30.98431  0.5328E-14  0.1466E-04  0.5631E-07  0.1139E-02  0.1498E-03  0.2035E+02
   -0.449988   30.98530  0.5328E-14  0.1501E-04  0.5435E-07  0.1237E-02  0.1396E-03  0.1898E+02
   -0.499988   30.98621  0.5328E-14  0.1531E-04  0.5274E-07  0.1326E-02  0.1306E-03  0.1856E+02
   -0.549989   30.98703  0.5328E-14  0.1558E-04  0.5140E-07  0.1408E-02  0.1225E-03  0.1818E+02
   -0.599989   30.98780  0.5328E-14  0.1580E-04  0.5027E-07  0.1482E-02  0.1151E-03  0.1830E+02
   -0.649990   30.98851  0.5328E-14  0.1600E-04  0.4932E-07  0.1548E-02  0.1084E-03  0.1838E+02
   -0.699992   30.98919  0.5328E-14  0.1616E-04  0.4853E-07  0.1607E-02  0.1022E-03  0.1892E+02
   -0.749993   30.98983  0.5328E-14  0.1630E-04  0.4787E-07  0.1657E-02  0.9650E-04  0.1939E+02
   -0.799994   30.99045  0.5328E-14  0.1641E-04  0.4733E-07  0.1700E-02  0.9117E-04  0.2035E+02
   -0.849996   30.99104  0.5328E-14  0.1650E-04  0.4691E-07  0.1734E-02  0.8620E-04  0.2123E+02
   -0.899997   30.99162  0.5328E-14  0.1656E-04  0.4660E-07  0.1760E-02  0.8151E-04  0.2269E+02
   -0.949999   30.99218  0.5328E-14  0.1661E-04  0.4640E-07  0.1778E-02  0.7710E-04  0.2410E+02
   -1.000001   30.99273  0.5328E-14  0.1663E-04  0.4630E-07  0.1787E-02  0.7292E-04  0.2625E+02
   -1.050003   30.99328  0.5328E-14  0.1663E-04  0.4632E-07  0.1786E-02  0.6895E-04  0.2951E+02
   -1.100004   30.99382  0.5328E-14  0.1660E-04  0.4646E-07  0.1883E-02  0.6514E-04  0.9785E+02
   -1.150006   30.99433  0.5328E-14  0.1655E-04  0.4676E-07  0.1685E-02  0.6178E-04  0.2275E+03
   -1.200007   30.99490  0.5328E-14  0.1648E-04  0.4720E-07  0.1718E-02  0.5822E-04  0.4300E+02
   -1.250009   30.99546  0.5328E-14  0.1637E-04  0.4783E-07  0.1686E-02  0.5483E-04  0.4626E+02
   -1.300010   30.99602  0.5328E-14  0.1624E-04  0.4870E-07  0.1633E-02  0.5158E-04  0.5400E+02
   -1.350011   30.99661  0.5328E-14  0.1607E-04  0.4988E-07  0.1570E-02  0.4841E-04  0.6541E+02
   -1.400012   30.99721  0.5328E-14  0.1586E-04  0.5146E-07  0.1488E-02  0.4532E-04  0.8105E+02
   -1.450013   30.99785  0.5328E-14  0.1561E-04  0.5361E-07  0.1408E-02  0.4226E-04  0.1048E+03
   -1.500014   30.99853  0.5328E-14  0.1529E-04  0.5660E-07  0.1292E-02  0.3927E-04  0.1442E+03
   -1.550014   30.99928  0.5328E-14  0.1491E-04  0.6086E-07  0.1207E-02  0.3623E-04  0.2120E+03
   -1.600014   31.00010  0.5328E-14  0.1442E-04  0.6748E-07  0.1060E-02  0.3325E-04  0.5314E+03
   -1.650014   31.00113  0.5328E-14  0.1379E-04  0.7777E-07  0.9800E-03  0.3000E-04  0.3669E+04
   -1.700013   31.00231  0.5328E-14  0.1292E-04  0.9624E-07  0.7944E-03  0.2679E-04  0.1041E+07
   -1.750012   31.00444  0.5328E-14  0.1179E-04  0.1261E-06  0.7162E-03  0.2250E-04  0.6691E+06
   -1.800011   31.00610  0.5328E-14  0.1031E-04  0.1902E-06  0.4920E-03  0.1927E-04  0.3974E+06
   -1.850009   31.01376  0.5328E-14  0.8732E-05  0.3107E-06  0.4619E-03  0.1349E-04  0.4299E+09
   -1.900007   31.01157  0.5328E-14  0.6942E-05  0.6474E-06  0.2100E-03  0.1104E-04  0.2739E+09
   -1.950005   31.03404  0.5328E-14  0.4923E-05  0.1586E-05  0.2015E-03  0.5865E-05 -0.5402E+07
   -2.000002   31.03464  0.5328E-14  0.0000E+00  0.0000E+00  0.0000E+00  0.1126E-04  0.0000E+00
