 1 - depth, m
 2 - temperature, C
 3 - salinity, kg/kg
 4 - turbulent kinetic energy, m**2/s**2
 5 - dissipation rate, m**2/s**3
 6 - kinematic heat conductance, m**2/s
 7 - modulus of horizontal velocity, m/s
 8 - Richardson number, n/d
   -0.000000   30.81039  0.1342E-14  0.4830E-05  0.3032E-06  0.5071E-04  0.1133E-02  0.1027E+05
   -0.049997   30.84067  0.1342E-14  0.8356E-05  0.1349E-06  0.1784E-03  0.6456E-03  0.8689E+02
   -0.099994   30.85251  0.1342E-14  0.1015E-04  0.9285E-07  0.4065E-03  0.4717E-03  0.4067E+02
   -0.149992   30.85570  0.1342E-14  0.1127E-04  0.7806E-07  0.4851E-03  0.4169E-03  0.1993E+02
   -0.199991   30.85826  0.1342E-14  0.1215E-04  0.6939E-07  0.6498E-03  0.3724E-03  0.1284E+02
   -0.249989   30.86011  0.1342E-14  0.1284E-04  0.6371E-07  0.7761E-03  0.3392E-03  0.9540E+01
   -0.299988   30.86162  0.1342E-14  0.1341E-04  0.5967E-07  0.9026E-03  0.3115E-03  0.7596E+01
   -0.349988   30.86289  0.1342E-14  0.1388E-04  0.5665E-07  0.1017E-02  0.2878E-03  0.6529E+01
   -0.399988   30.86399  0.1342E-14  0.1428E-04  0.5429E-07  0.1122E-02  0.2668E-03  0.5808E+01
   -0.449988   30.86497  0.1342E-14  0.1462E-04  0.5239E-07  0.1219E-02  0.2483E-03  0.5477E+01
   -0.499988   30.86585  0.1342E-14  0.1492E-04  0.5081E-07  0.1308E-02  0.2320E-03  0.5310E+01
   -0.549989   30.86666  0.1342E-14  0.1518E-04  0.4950E-07  0.1389E-02  0.2174E-03  0.5265E+01
   -0.599989   30.86741  0.1342E-14  0.1540E-04  0.4840E-07  0.1463E-02  0.2042E-03  0.5246E+01
   -0.649990   30.86811  0.1342E-14  0.1559E-04  0.4748E-07  0.1530E-02  0.1921E-03  0.5342E+01
   -0.699992   30.86877  0.1342E-14  0.1576E-04  0.4670E-07  0.1588E-02  0.1810E-03  0.5440E+01
   -0.749993   30.86939  0.1342E-14  0.1589E-04  0.4605E-07  0.1639E-02  0.1707E-03  0.5654E+01
   -0.799994   30.86999  0.1342E-14  0.1601E-04  0.4553E-07  0.1682E-02  0.1612E-03  0.5864E+01
   -0.849996   30.87057  0.1342E-14  0.1610E-04  0.4511E-07  0.1717E-02  0.1523E-03  0.6209E+01
   -0.899998   30.87113  0.1342E-14  0.1616E-04  0.4479E-07  0.1744E-02  0.1439E-03  0.6552E+01
   -0.949999   30.87168  0.1342E-14  0.1621E-04  0.4458E-07  0.1763E-02  0.1360E-03  0.7064E+01
   -1.000001   30.87221  0.1342E-14  0.1623E-04  0.4448E-07  0.1773E-02  0.1286E-03  0.7592E+01
   -1.050003   30.87274  0.1342E-14  0.1623E-04  0.4448E-07  0.1774E-02  0.1215E-03  0.8664E+01
   -1.100004   30.87327  0.1342E-14  0.1621E-04  0.4459E-07  0.1864E-02  0.1147E-03  0.2853E+02
   -1.150006   30.87377  0.1342E-14  0.1617E-04  0.4485E-07  0.1685E-02  0.1087E-03  0.6510E+02
   -1.200008   30.87432  0.1342E-14  0.1610E-04  0.4524E-07  0.1713E-02  0.1024E-03  0.1257E+02
   -1.250009   30.87485  0.1342E-14  0.1601E-04  0.4581E-07  0.1682E-02  0.9643E-04  0.1337E+02
   -1.300010   30.87540  0.1342E-14  0.1588E-04  0.4660E-07  0.1631E-02  0.9065E-04  0.1575E+02
   -1.350012   30.87596  0.1342E-14  0.1573E-04  0.4767E-07  0.1571E-02  0.8505E-04  0.1881E+02
   -1.400013   30.87654  0.1342E-14  0.1553E-04  0.4910E-07  0.1492E-02  0.7958E-04  0.2341E+02
   -1.450013   30.87715  0.1342E-14  0.1530E-04  0.5104E-07  0.1414E-02  0.7422E-04  0.2982E+02
   -1.500014   30.87780  0.1342E-14  0.1500E-04  0.5372E-07  0.1300E-02  0.6894E-04  0.4087E+02
   -1.550014   30.87852  0.1342E-14  0.1465E-04  0.5751E-07  0.1216E-02  0.6363E-04  0.5853E+02
   -1.600014   30.87929  0.1342E-14  0.1420E-04  0.6335E-07  0.1068E-02  0.5843E-04  0.1299E+03
   -1.650014   30.88026  0.1342E-14  0.1362E-04  0.7235E-07  0.9876E-03  0.5278E-04  0.1588E+03
   -1.700014   30.88132  0.1342E-14  0.1283E-04  0.8822E-07  0.8052E-03  0.4733E-04  0.1417E+05
   -1.750013   30.88322  0.1342E-14  0.1179E-04  0.1147E-06  0.7253E-03  0.4009E-04  0.9679E+05
   -1.800011   30.88486  0.1342E-14  0.1038E-04  0.1708E-06  0.5093E-03  0.3433E-04  0.8393E+05
   -1.850010   30.89126  0.1342E-14  0.8798E-05  0.2747E-06  0.4629E-03  0.2464E-04  0.8270E+08
   -1.900008   30.89020  0.1342E-14  0.6914E-05  0.5741E-06  0.2073E-03  0.1988E-04 -0.2154E+06
   -1.950005   30.91049  0.1342E-14  0.4874E-05  0.1417E-05  0.1937E-03  0.1058E-04 -0.1436E+07
   -2.000002   30.91222  0.1342E-14  0.0000E+00  0.0000E+00  0.0000E+00  0.1969E-04  0.0000E+00
