 1 - depth, m
 2 - temperature, C
 3 - salinity, kg/kg
 4 - turbulent kinetic energy, m**2/s**2
 5 - dissipation rate, m**2/s**3
 6 - kinematic heat conductance, m**2/s
 7 - modulus of horizontal velocity, m/s
 8 - Richardson number, n/d
   -0.000000   31.69684  0.1392E-14  0.5630E-05  0.3785E-06  0.5295E-04  0.4474E-03  0.4870E+05
   -0.049997   31.73469  0.1392E-14  0.9887E-05  0.1682E-06  0.2014E-03  0.2524E-03  0.4453E+04
   -0.099994   31.74716  0.1392E-14  0.1192E-04  0.1168E-06  0.4417E-03  0.1872E-03  0.2493E+03
   -0.149992   31.75088  0.1392E-14  0.1320E-04  0.9843E-07  0.5203E-03  0.1663E-03  0.1253E+03
   -0.199990   31.75387  0.1392E-14  0.1420E-04  0.8760E-07  0.6985E-03  0.1492E-03  0.8183E+02
   -0.249989   31.75603  0.1392E-14  0.1500E-04  0.8047E-07  0.8318E-03  0.1363E-03  0.6118E+02
   -0.299988   31.75780  0.1392E-14  0.1564E-04  0.7538E-07  0.9660E-03  0.1256E-03  0.4894E+02
   -0.349987   31.75928  0.1392E-14  0.1617E-04  0.7155E-07  0.1087E-02  0.1164E-03  0.4200E+02
   -0.399987   31.76057  0.1392E-14  0.1662E-04  0.6856E-07  0.1197E-02  0.1083E-03  0.3745E+02
   -0.449987   31.76171  0.1392E-14  0.1700E-04  0.6613E-07  0.1299E-02  0.1011E-03  0.3518E+02
   -0.499987   31.76274  0.1392E-14  0.1733E-04  0.6411E-07  0.1392E-02  0.9474E-04  0.3417E+02
   -0.549988   31.76368  0.1392E-14  0.1761E-04  0.6242E-07  0.1476E-02  0.8901E-04  0.3372E+02
   -0.599989   31.76455  0.1392E-14  0.1784E-04  0.6100E-07  0.1552E-02  0.8382E-04  0.3368E+02
   -0.649990   31.76537  0.1392E-14  0.1804E-04  0.5979E-07  0.1620E-02  0.7906E-04  0.3411E+02
   -0.699991   31.76614  0.1392E-14  0.1821E-04  0.5878E-07  0.1679E-02  0.7469E-04  0.3484E+02
   -0.749992   31.76687  0.1392E-14  0.1835E-04  0.5793E-07  0.1730E-02  0.7062E-04  0.3603E+02
   -0.799994   31.76757  0.1392E-14  0.1845E-04  0.5723E-07  0.1772E-02  0.6684E-04  0.3751E+02
   -0.849995   31.76824  0.1392E-14  0.1853E-04  0.5667E-07  0.1806E-02  0.6329E-04  0.3953E+02
   -0.899997   31.76890  0.1392E-14  0.1858E-04  0.5624E-07  0.1830E-02  0.5996E-04  0.4192E+02
   -0.949998   31.76954  0.1392E-14  0.1860E-04  0.5595E-07  0.1845E-02  0.5680E-04  0.4503E+02
   -1.000000   31.77016  0.1392E-14  0.1860E-04  0.5580E-07  0.1851E-02  0.5380E-04  0.4870E+02
   -1.050002   31.77078  0.1392E-14  0.1856E-04  0.5579E-07  0.1844E-02  0.5095E-04  0.5535E+02
   -1.100003   31.77140  0.1392E-14  0.1851E-04  0.5594E-07  0.1970E-02  0.4822E-04  0.1772E+03
   -1.150005   31.77197  0.1392E-14  0.1842E-04  0.5629E-07  0.1699E-02  0.4582E-04  0.4496E+03
   -1.200006   31.77263  0.1392E-14  0.1830E-04  0.5682E-07  0.1755E-02  0.4320E-04  0.8269E+02
   -1.250008   31.77326  0.1392E-14  0.1814E-04  0.5762E-07  0.1721E-02  0.4075E-04  0.8827E+02
   -1.300009   31.77390  0.1392E-14  0.1795E-04  0.5874E-07  0.1658E-02  0.3837E-04  0.1051E+03
   -1.350010   31.77456  0.1392E-14  0.1772E-04  0.6029E-07  0.1589E-02  0.3606E-04  0.1281E+03
   -1.400011   31.77526  0.1392E-14  0.1743E-04  0.6243E-07  0.1495E-02  0.3379E-04  0.1635E+03
   -1.450012   31.77599  0.1392E-14  0.1708E-04  0.6542E-07  0.1411E-02  0.3154E-04  0.2162E+03
   -1.500012   31.77678  0.1392E-14  0.1666E-04  0.6968E-07  0.1286E-02  0.2931E-04  0.3134E+03
   -1.550013   31.77767  0.1392E-14  0.1615E-04  0.7599E-07  0.1208E-02  0.2704E-04  0.5228E+03
   -1.600013   31.77865  0.1392E-14  0.1549E-04  0.8630E-07  0.1053E-02  0.2479E-04  0.6216E+03
   -1.650012   31.78001  0.1392E-14  0.1461E-04  0.1025E-06  0.9736E-03  0.2219E-04  0.3282E+07
   -1.700012   31.78158  0.1392E-14  0.1342E-04  0.1320E-06  0.7774E-03  0.1957E-04  0.1741E+07
   -1.750011   31.78451  0.1392E-14  0.1206E-04  0.1771E-06  0.7057E-03  0.1601E-04  0.2767E+07
   -1.800009   31.78596  0.1392E-14  0.1040E-04  0.2772E-06  0.4735E-03  0.1386E-04  0.1416E+06
   -1.850008   31.79752  0.1392E-14  0.8794E-05  0.4692E-06  0.4672E-03  0.9166E-05  0.1450E+10
   -1.900005   31.79178  0.1392E-14  0.7039E-05  0.9929E-06  0.2151E-03  0.7766E-05 -0.1519E+06
   -1.950003   31.81975  0.1392E-14  0.5118E-05  0.2306E-05  0.2404E-03  0.4007E-05 -0.6093E+07
   -2.000000   31.81814  0.1392E-14  0.0000E+00  0.0000E+00  0.0000E+00  0.8572E-05  0.0000E+00
