 1 - depth, m
 2 - temperature, C
 3 - salinity, kg/kg
 4 - turbulent kinetic energy, m**2/s**2
 5 - dissipation rate, m**2/s**3
 6 - kinematic heat conductance, m**2/s
 7 - modulus of horizontal velocity, m/s
 8 - Richardson number, n/d
   -0.000000   30.54590  0.3396E-13  0.4710E-05  0.2938E-06  0.5029E-04  0.7388E-03  0.8290E+04
   -0.049997   30.57579  0.3396E-13  0.8252E-05  0.1302E-06  0.1773E-03  0.4224E-03  0.4816E+02
   -0.099994   30.58746  0.3396E-13  0.1003E-04  0.8957E-07  0.4131E-03  0.3052E-03  0.8754E+02
   -0.149992   30.59053  0.3396E-13  0.1113E-04  0.7558E-07  0.4865E-03  0.2705E-03  0.4285E+02
   -0.199991   30.59303  0.3396E-13  0.1198E-04  0.6732E-07  0.6517E-03  0.2417E-03  0.2786E+02
   -0.249989   30.59485  0.3396E-13  0.1266E-04  0.6190E-07  0.7774E-03  0.2202E-03  0.2072E+02
   -0.299988   30.59633  0.3396E-13  0.1322E-04  0.5804E-07  0.9029E-03  0.2023E-03  0.1655E+02
   -0.349988   30.59758  0.3396E-13  0.1369E-04  0.5514E-07  0.1016E-02  0.1869E-03  0.1421E+02
   -0.399988   30.59866  0.3396E-13  0.1408E-04  0.5288E-07  0.1120E-02  0.1733E-03  0.1267E+02
   -0.449988   30.59962  0.3396E-13  0.1442E-04  0.5106E-07  0.1216E-02  0.1614E-03  0.1193E+02
   -0.499988   30.60049  0.3396E-13  0.1471E-04  0.4955E-07  0.1305E-02  0.1508E-03  0.1160E+02
   -0.549989   30.60128  0.3396E-13  0.1497E-04  0.4829E-07  0.1386E-02  0.1413E-03  0.1147E+02
   -0.599989   30.60202  0.3396E-13  0.1519E-04  0.4724E-07  0.1459E-02  0.1327E-03  0.1146E+02
   -0.649991   30.60271  0.3396E-13  0.1538E-04  0.4635E-07  0.1525E-02  0.1249E-03  0.1163E+02
   -0.699992   30.60336  0.3396E-13  0.1554E-04  0.4562E-07  0.1582E-02  0.1176E-03  0.1189E+02
   -0.749993   30.60398  0.3396E-13  0.1568E-04  0.4500E-07  0.1633E-02  0.1110E-03  0.1231E+02
   -0.799995   30.60457  0.3396E-13  0.1579E-04  0.4450E-07  0.1675E-02  0.1048E-03  0.1282E+02
   -0.849996   30.60514  0.3396E-13  0.1588E-04  0.4411E-07  0.1710E-02  0.9899E-04  0.1352E+02
   -0.899998   30.60570  0.3396E-13  0.1595E-04  0.4382E-07  0.1736E-02  0.9355E-04  0.1433E+02
   -0.949999   30.60624  0.3396E-13  0.1599E-04  0.4363E-07  0.1755E-02  0.8842E-04  0.1538E+02
   -1.000001   30.60677  0.3396E-13  0.1602E-04  0.4355E-07  0.1765E-02  0.8356E-04  0.1661E+02
   -1.050003   30.60729  0.3396E-13  0.1602E-04  0.4356E-07  0.1765E-02  0.7895E-04  0.1888E+02
   -1.100005   30.60782  0.3396E-13  0.1600E-04  0.4369E-07  0.1854E-02  0.7455E-04  0.6215E+02
   -1.150006   30.60831  0.3396E-13  0.1596E-04  0.4397E-07  0.1676E-02  0.7064E-04  0.1442E+03
   -1.200008   30.60886  0.3396E-13  0.1590E-04  0.4437E-07  0.1704E-02  0.6655E-04  0.2753E+02
   -1.250009   30.60939  0.3396E-13  0.1581E-04  0.4495E-07  0.1672E-02  0.6265E-04  0.2937E+02
   -1.300011   30.60993  0.3396E-13  0.1569E-04  0.4574E-07  0.1622E-02  0.5889E-04  0.3456E+02
   -1.350012   30.61049  0.3396E-13  0.1553E-04  0.4681E-07  0.1561E-02  0.5524E-04  0.4152E+02
   -1.400013   30.61107  0.3396E-13  0.1534E-04  0.4824E-07  0.1483E-02  0.5169E-04  0.5170E+02
   -1.450014   30.61168  0.3396E-13  0.1511E-04  0.5017E-07  0.1404E-02  0.4819E-04  0.6637E+02
   -1.500014   30.61233  0.3396E-13  0.1482E-04  0.5283E-07  0.1291E-02  0.4476E-04  0.9131E+02
   -1.550015   30.61304  0.3396E-13  0.1447E-04  0.5659E-07  0.1207E-02  0.4131E-04  0.1321E+03
   -1.600015   30.61382  0.3396E-13  0.1403E-04  0.6237E-07  0.1060E-02  0.3793E-04  0.2754E+03
   -1.650014   30.61478  0.3396E-13  0.1345E-04  0.7132E-07  0.9839E-03  0.3426E-04  0.3907E+04
   -1.700014   30.61586  0.3396E-13  0.1266E-04  0.8731E-07  0.7954E-03  0.3072E-04 -0.1051E+05
   -1.750013   30.61781  0.3396E-13  0.1162E-04  0.1135E-06  0.7222E-03  0.2592E-04  0.6690E+06
   -1.800012   30.61939  0.3396E-13  0.1023E-04  0.1690E-06  0.4998E-03  0.2228E-04  0.1616E+06
   -1.850010   30.62611  0.3396E-13  0.8686E-05  0.2732E-06  0.4634E-03  0.1589E-04  0.4459E+10
   -1.900008   30.62461  0.3396E-13  0.6907E-05  0.5717E-06  0.2086E-03  0.1298E-04 -0.3366E+07
   -1.950005   30.64509  0.3396E-13  0.4843E-05  0.1419E-05  0.1922E-03  0.6994E-05 -0.1331E+07
   -2.000002   30.64696  0.3396E-13  0.0000E+00  0.0000E+00  0.0000E+00  0.1279E-04  0.0000E+00
