 1 - depth, m
 2 - temperature, C
 3 - salinity, kg/kg
 4 - turbulent kinetic energy, m**2/s**2
 5 - dissipation rate, m**2/s**3
 6 - kinematic heat conductance, m**2/s
 7 - modulus of horizontal velocity, m/s
 8 - Richardson number, n/d
   -0.000000   30.16914  0.1160E-13  0.4621E-05  0.2806E-06  0.4968E-04  0.1572E-02  0.5592E+04
   -0.049997   30.19782  0.1160E-13  0.7914E-05  0.1251E-06  0.1727E-03  0.8982E-03  0.2538E+04
   -0.099994   30.20907  0.1160E-13  0.9608E-05  0.8588E-07  0.3932E-03  0.6543E-03  0.1949E+02
   -0.149992   30.21215  0.1160E-13  0.1066E-04  0.7212E-07  0.4720E-03  0.5775E-03  0.9487E+01
   -0.199991   30.21461  0.1160E-13  0.1149E-04  0.6405E-07  0.6305E-03  0.5152E-03  0.6099E+01
   -0.249989   30.21640  0.1160E-13  0.1214E-04  0.5876E-07  0.7539E-03  0.4686E-03  0.4507E+01
   -0.299989   30.21786  0.1160E-13  0.1268E-04  0.5499E-07  0.8766E-03  0.4298E-03  0.3583E+01
   -0.349988   30.21908  0.1160E-13  0.1312E-04  0.5216E-07  0.9879E-03  0.3966E-03  0.3070E+01
   -0.399988   30.22014  0.1160E-13  0.1349E-04  0.4996E-07  0.1090E-02  0.3672E-03  0.2732E+01
   -0.449988   30.22108  0.1160E-13  0.1381E-04  0.4818E-07  0.1184E-02  0.3414E-03  0.2572E+01
   -0.499988   30.22193  0.1160E-13  0.1409E-04  0.4670E-07  0.1271E-02  0.3186E-03  0.2498E+01
   -0.549989   30.22270  0.1160E-13  0.1433E-04  0.4546E-07  0.1351E-02  0.2982E-03  0.2472E+01
   -0.599990   30.22342  0.1160E-13  0.1454E-04  0.4442E-07  0.1424E-02  0.2797E-03  0.2467E+01
   -0.649991   30.22409  0.1160E-13  0.1472E-04  0.4354E-07  0.1489E-02  0.2629E-03  0.2506E+01
   -0.699992   30.22472  0.1160E-13  0.1487E-04  0.4279E-07  0.1546E-02  0.2474E-03  0.2556E+01
   -0.749993   30.22532  0.1160E-13  0.1500E-04  0.4216E-07  0.1597E-02  0.2331E-03  0.2648E+01
   -0.799995   30.22589  0.1160E-13  0.1511E-04  0.4165E-07  0.1640E-02  0.2199E-03  0.2750E+01
   -0.849996   30.22645  0.1160E-13  0.1519E-04  0.4123E-07  0.1675E-02  0.2075E-03  0.2900E+01
   -0.899998   30.22698  0.1160E-13  0.1525E-04  0.4090E-07  0.1702E-02  0.1959E-03  0.3063E+01
   -0.950000   30.22750  0.1160E-13  0.1529E-04  0.4067E-07  0.1722E-02  0.1850E-03  0.3288E+01
   -1.000001   30.22801  0.1160E-13  0.1531E-04  0.4053E-07  0.1734E-02  0.1747E-03  0.3535E+01
   -1.050003   30.22851  0.1160E-13  0.1531E-04  0.4048E-07  0.1736E-02  0.1648E-03  0.4016E+01
   -1.100005   30.22901  0.1160E-13  0.1529E-04  0.4054E-07  0.1816E-02  0.1555E-03  0.1336E+02
   -1.150006   30.22948  0.1160E-13  0.1525E-04  0.4071E-07  0.1663E-02  0.1472E-03  0.2962E+02
   -1.200008   30.23000  0.1160E-13  0.1519E-04  0.4101E-07  0.1684E-02  0.1386E-03  0.5757E+01
   -1.250010   30.23050  0.1160E-13  0.1510E-04  0.4146E-07  0.1655E-02  0.1304E-03  0.6109E+01
   -1.300011   30.23101  0.1160E-13  0.1498E-04  0.4209E-07  0.1608E-02  0.1224E-03  0.7145E+01
   -1.350012   30.23153  0.1160E-13  0.1484E-04  0.4296E-07  0.1551E-02  0.1148E-03  0.8488E+01
   -1.400013   30.23207  0.1160E-13  0.1466E-04  0.4413E-07  0.1478E-02  0.1073E-03  0.1045E+02
   -1.450014   30.23263  0.1160E-13  0.1445E-04  0.4572E-07  0.1402E-02  0.9999E-04  0.1317E+02
   -1.500015   30.23322  0.1160E-13  0.1418E-04  0.4791E-07  0.1295E-02  0.9281E-04  0.1769E+02
   -1.550015   30.23387  0.1160E-13  0.1386E-04  0.5099E-07  0.1209E-02  0.8564E-04  0.2473E+02
   -1.600015   30.23457  0.1160E-13  0.1347E-04  0.5560E-07  0.1069E-02  0.7860E-04  0.4206E+02
   -1.650015   30.23539  0.1160E-13  0.1296E-04  0.6267E-07  0.9885E-03  0.7119E-04  0.1354E+05
   -1.700014   30.23632  0.1160E-13  0.1227E-04  0.7546E-07  0.8123E-03  0.6397E-04  0.2420E+04
   -1.750013   30.23790  0.1160E-13  0.1133E-04  0.9674E-07  0.7284E-03  0.5455E-04  0.1793E+06
   -1.800012   30.23938  0.1160E-13  0.1002E-04  0.1412E-06  0.5108E-03  0.4675E-04  0.1764E+07
   -1.850010   30.24456  0.1160E-13  0.8520E-05  0.2240E-06  0.4645E-03  0.3394E-04  0.1118E+09
   -1.900008   30.24416  0.1160E-13  0.6722E-05  0.4739E-06  0.2089E-03  0.2732E-04  0.6952E+04
   -1.950006   30.26153  0.1160E-13  0.4665E-05  0.1195E-05  0.1792E-03  0.1476E-04 -0.1004E+07
   -2.000003   30.26323  0.1160E-13  0.0000E+00  0.0000E+00  0.0000E+00  0.2643E-04  0.0000E+00
