 1 - depth, m
 2 - temperature, C
 3 - salinity, kg/kg
 4 - turbulent kinetic energy, m**2/s**2
 5 - dissipation rate, m**2/s**3
 6 - kinematic heat conductance, m**2/s
 7 - modulus of horizontal velocity, m/s
 8 - Richardson number, n/d
   -0.000000   29.82902  0.1663E-14  0.4762E-05  0.2673E-06  0.4881E-04  0.2602E-02  0.1917E+04
   -0.049997   29.85730  0.1663E-14  0.7908E-05  0.1176E-06  0.1869E-03  0.1409E-02  0.8340E+02
   -0.099994   29.86653  0.1663E-14  0.9416E-05  0.8270E-07  0.3791E-03  0.1076E-02  0.7212E+01
   -0.149992   29.86959  0.1663E-14  0.1039E-04  0.6951E-07  0.4713E-03  0.9501E-03  0.3635E+01
   -0.199991   29.87194  0.1663E-14  0.1116E-04  0.6178E-07  0.6159E-03  0.8517E-03  0.2367E+01
   -0.249989   29.87369  0.1663E-14  0.1177E-04  0.5670E-07  0.7347E-03  0.7765E-03  0.1763E+01
   -0.299989   29.87512  0.1663E-14  0.1228E-04  0.5308E-07  0.8451E-03  0.7139E-03  0.1438E+01
   -0.349988   29.87633  0.1663E-14  0.1271E-04  0.5032E-07  0.9487E-03  0.6594E-03  0.1338E+01
   -0.399988   29.87739  0.1663E-14  0.1309E-04  0.4808E-07  0.1055E-02  0.6088E-03  0.1298E+01
   -0.449988   29.87832  0.1663E-14  0.1343E-04  0.4621E-07  0.1161E-02  0.5623E-03  0.1286E+01
   -0.499988   29.87915  0.1663E-14  0.1373E-04  0.4464E-07  0.1259E-02  0.5204E-03  0.1283E+01
   -0.549989   29.87989  0.1663E-14  0.1399E-04  0.4333E-07  0.1350E-02  0.4827E-03  0.1280E+01
   -0.599990   29.88058  0.1663E-14  0.1421E-04  0.4223E-07  0.1432E-02  0.4486E-03  0.1275E+01
   -0.649991   29.88122  0.1663E-14  0.1441E-04  0.4130E-07  0.1506E-02  0.4178E-03  0.1273E+01
   -0.699992   29.88181  0.1663E-14  0.1456E-04  0.4054E-07  0.1570E-02  0.3899E-03  0.1268E+01
   -0.749993   29.88238  0.1663E-14  0.1469E-04  0.3991E-07  0.1624E-02  0.3646E-03  0.1269E+01
   -0.799995   29.88292  0.1663E-14  0.1480E-04  0.3940E-07  0.1668E-02  0.3416E-03  0.1269E+01
   -0.849997   29.88344  0.1663E-14  0.1487E-04  0.3901E-07  0.1702E-02  0.3207E-03  0.1278E+01
   -0.899998   29.88394  0.1663E-14  0.1493E-04  0.3871E-07  0.1727E-02  0.3016E-03  0.1293E+01
   -0.950000   29.88443  0.1663E-14  0.1496E-04  0.3851E-07  0.1743E-02  0.2842E-03  0.1334E+01
   -1.000002   29.88491  0.1663E-14  0.1497E-04  0.3840E-07  0.1751E-02  0.2681E-03  0.1403E+01
   -1.050003   29.88538  0.1663E-14  0.1496E-04  0.3838E-07  0.1750E-02  0.2531E-03  0.1575E+01
   -1.100005   29.88586  0.1663E-14  0.1493E-04  0.3845E-07  0.1841E-02  0.2388E-03  0.5190E+01
   -1.150007   29.88630  0.1663E-14  0.1488E-04  0.3863E-07  0.1658E-02  0.2262E-03  0.1184E+02
   -1.200008   29.88679  0.1663E-14  0.1481E-04  0.3893E-07  0.1688E-02  0.2130E-03  0.2273E+01
   -1.250010   29.88727  0.1663E-14  0.1472E-04  0.3938E-07  0.1658E-02  0.2004E-03  0.2415E+01
   -1.300011   29.88775  0.1663E-14  0.1460E-04  0.4000E-07  0.1609E-02  0.1883E-03  0.2827E+01
   -1.350012   29.88824  0.1663E-14  0.1445E-04  0.4084E-07  0.1550E-02  0.1765E-03  0.3371E+01
   -1.400014   29.88876  0.1663E-14  0.1427E-04  0.4198E-07  0.1475E-02  0.1650E-03  0.4155E+01
   -1.450014   29.88929  0.1663E-14  0.1406E-04  0.4352E-07  0.1398E-02  0.1538E-03  0.5264E+01
   -1.500015   29.88986  0.1663E-14  0.1379E-04  0.4565E-07  0.1288E-02  0.1428E-03  0.7090E+01
   -1.550015   29.89048  0.1663E-14  0.1347E-04  0.4864E-07  0.1203E-02  0.1317E-03  0.9963E+01
   -1.600015   29.89114  0.1663E-14  0.1308E-04  0.5315E-07  0.1061E-02  0.1209E-03  0.1711E+02
   -1.650015   29.89194  0.1663E-14  0.1257E-04  0.6007E-07  0.9834E-03  0.1095E-03  0.4743E+02
   -1.700015   29.89282  0.1663E-14  0.1189E-04  0.7266E-07  0.8032E-03  0.9831E-04  0.7572E+05
   -1.750014   29.89438  0.1663E-14  0.1094E-04  0.9359E-07  0.7223E-03  0.8354E-04  0.1075E+06
   -1.800013   29.89579  0.1663E-14  0.9642E-05  0.1389E-06  0.5032E-03  0.7156E-04 -0.4380E+04
   -1.850011   29.90099  0.1663E-14  0.8178E-05  0.2206E-06  0.4598E-03  0.5149E-04  0.3031E+07
   -1.900009   29.90023  0.1663E-14  0.6449E-05  0.4611E-06  0.2044E-03  0.4178E-04 -0.2653E+05
   -1.950006   29.91709  0.1663E-14  0.4475E-05  0.1164E-05  0.1805E-03  0.2240E-04 -0.2035E+06
   -2.000003   29.91860  0.1663E-14  0.0000E+00  0.0000E+00  0.0000E+00  0.4076E-04  0.0000E+00
