 1 - depth, m
 2 - temperature, C
 3 - salinity, kg/kg
 4 - turbulent kinetic energy, m**2/s**2
 5 - dissipation rate, m**2/s**3
 6 - kinematic heat conductance, m**2/s
 7 - modulus of horizontal velocity, m/s
 8 - Richardson number, n/d
   -0.000000   30.27538  0.5071E-13  0.4820E-05  0.2843E-06  0.4998E-04  0.2303E-02  0.6491E+04
   -0.049997   30.30424  0.5071E-13  0.8086E-05  0.1258E-06  0.1821E-03  0.1272E-02  0.1124E+03
   -0.099994   30.31435  0.5071E-13  0.9706E-05  0.8753E-07  0.3859E-03  0.9553E-03  0.8861E+01
   -0.149992   30.31749  0.5071E-13  0.1075E-04  0.7337E-07  0.4748E-03  0.8421E-03  0.4414E+01
   -0.199991   30.31994  0.5071E-13  0.1156E-04  0.6509E-07  0.6277E-03  0.7525E-03  0.2846E+01
   -0.249989   30.32173  0.5071E-13  0.1221E-04  0.5966E-07  0.7514E-03  0.6848E-03  0.2103E+01
   -0.299988   30.32319  0.5071E-13  0.1274E-04  0.5580E-07  0.8723E-03  0.6286E-03  0.1675E+01
   -0.349988   30.32442  0.5071E-13  0.1318E-04  0.5292E-07  0.9810E-03  0.5803E-03  0.1440E+01
   -0.399988   30.32548  0.5071E-13  0.1356E-04  0.5066E-07  0.1080E-02  0.5375E-03  0.1311E+01
   -0.449988   30.32643  0.5071E-13  0.1388E-04  0.4881E-07  0.1176E-02  0.4994E-03  0.1273E+01
   -0.499988   30.32729  0.5071E-13  0.1417E-04  0.4727E-07  0.1268E-02  0.4652E-03  0.1262E+01
   -0.549989   30.32807  0.5071E-13  0.1443E-04  0.4597E-07  0.1353E-02  0.4342E-03  0.1258E+01
   -0.599990   30.32878  0.5071E-13  0.1465E-04  0.4488E-07  0.1430E-02  0.4062E-03  0.1255E+01
   -0.649991   30.32945  0.5071E-13  0.1483E-04  0.4396E-07  0.1499E-02  0.3808E-03  0.1261E+01
   -0.699992   30.33008  0.5071E-13  0.1499E-04  0.4320E-07  0.1559E-02  0.3576E-03  0.1267E+01
   -0.749993   30.33067  0.5071E-13  0.1512E-04  0.4257E-07  0.1610E-02  0.3364E-03  0.1286E+01
   -0.799995   30.33124  0.5071E-13  0.1523E-04  0.4206E-07  0.1652E-02  0.3169E-03  0.1315E+01
   -0.849996   30.33179  0.5071E-13  0.1532E-04  0.4166E-07  0.1686E-02  0.2989E-03  0.1369E+01
   -0.899998   30.33233  0.5071E-13  0.1538E-04  0.4136E-07  0.1712E-02  0.2822E-03  0.1442E+01
   -0.950000   30.33285  0.5071E-13  0.1542E-04  0.4115E-07  0.1730E-02  0.2665E-03  0.1546E+01
   -1.000001   30.33336  0.5071E-13  0.1544E-04  0.4104E-07  0.1741E-02  0.2517E-03  0.1669E+01
   -1.050003   30.33386  0.5071E-13  0.1544E-04  0.4102E-07  0.1742E-02  0.2377E-03  0.1899E+01
   -1.100005   30.33436  0.5071E-13  0.1542E-04  0.4111E-07  0.1827E-02  0.2243E-03  0.6295E+01
   -1.150006   30.33484  0.5071E-13  0.1538E-04  0.4133E-07  0.1662E-02  0.2123E-03  0.1430E+02
   -1.200008   30.33536  0.5071E-13  0.1532E-04  0.4167E-07  0.1685E-02  0.2000E-03  0.2756E+01
   -1.250009   30.33586  0.5071E-13  0.1523E-04  0.4218E-07  0.1655E-02  0.1881E-03  0.2940E+01
   -1.300011   30.33638  0.5071E-13  0.1511E-04  0.4287E-07  0.1607E-02  0.1767E-03  0.3451E+01
   -1.350012   30.33691  0.5071E-13  0.1497E-04  0.4382E-07  0.1549E-02  0.1657E-03  0.4133E+01
   -1.400013   30.33746  0.5071E-13  0.1479E-04  0.4509E-07  0.1474E-02  0.1549E-03  0.5121E+01
   -1.450014   30.33804  0.5071E-13  0.1457E-04  0.4680E-07  0.1397E-02  0.1443E-03  0.6529E+01
   -1.500014   30.33865  0.5071E-13  0.1430E-04  0.4916E-07  0.1288E-02  0.1340E-03  0.8892E+01
   -1.550015   30.33932  0.5071E-13  0.1397E-04  0.5249E-07  0.1202E-02  0.1236E-03  0.1266E+02
   -1.600015   30.34004  0.5071E-13  0.1356E-04  0.5754E-07  0.1063E-02  0.1134E-03  0.2390E+02
   -1.650015   30.34092  0.5071E-13  0.1303E-04  0.6534E-07  0.9792E-03  0.1026E-03 -0.2103E+03
   -1.700014   30.34191  0.5071E-13  0.1231E-04  0.7925E-07  0.8033E-03  0.9195E-04  0.2550E+03
   -1.750013   30.34364  0.5071E-13  0.1133E-04  0.1023E-06  0.7208E-03  0.7816E-04  0.4800E+05
   -1.800012   30.34520  0.5071E-13  0.1001E-04  0.1528E-06  0.5078E-03  0.6681E-04  0.2947E+05
   -1.850010   30.35092  0.5071E-13  0.8514E-05  0.2437E-06  0.4613E-03  0.4831E-04  0.2923E+08
   -1.900008   30.35003  0.5071E-13  0.6725E-05  0.5135E-06  0.2082E-03  0.3903E-04  0.1933E+06
   -1.950006   30.36848  0.5071E-13  0.4686E-05  0.1290E-05  0.1831E-03  0.2100E-04 -0.2623E+06
   -2.000002   30.37146  0.5071E-13  0.0000E+00  0.0000E+00  0.0000E+00  0.3824E-04  0.0000E+00
