 1 - depth, m
 2 - temperature, C
 3 - salinity, kg/kg
 4 - turbulent kinetic energy, m**2/s**2
 5 - dissipation rate, m**2/s**3
 6 - kinematic heat conductance, m**2/s
 7 - modulus of horizontal velocity, m/s
 8 - Richardson number, n/d
   -0.000000   30.32276  0.9150E-14  0.4572E-05  0.2780E-06  0.4949E-04  0.1224E-02  0.7171E+04
   -0.049997   30.35127  0.9150E-14  0.7914E-05  0.1237E-06  0.1737E-03  0.6978E-03  0.6100E+03
   -0.099994   30.36247  0.9150E-14  0.9617E-05  0.8517E-07  0.3977E-03  0.5082E-03  0.3099E+02
   -0.149992   30.36548  0.9150E-14  0.1068E-04  0.7166E-07  0.4757E-03  0.4490E-03  0.1507E+02
   -0.199991   30.36791  0.9150E-14  0.1150E-04  0.6373E-07  0.6356E-03  0.4009E-03  0.9717E+01
   -0.249989   30.36967  0.9150E-14  0.1216E-04  0.5853E-07  0.7597E-03  0.3648E-03  0.7175E+01
   -0.299988   30.37111  0.9150E-14  0.1270E-04  0.5482E-07  0.8830E-03  0.3348E-03  0.5723E+01
   -0.349988   30.37231  0.9150E-14  0.1315E-04  0.5205E-07  0.9949E-03  0.3091E-03  0.4891E+01
   -0.399988   30.37336  0.9150E-14  0.1353E-04  0.4989E-07  0.1097E-02  0.2863E-03  0.4367E+01
   -0.449988   30.37429  0.9150E-14  0.1385E-04  0.4814E-07  0.1192E-02  0.2664E-03  0.4095E+01
   -0.499988   30.37513  0.9150E-14  0.1414E-04  0.4670E-07  0.1280E-02  0.2486E-03  0.3991E+01
   -0.549989   30.37589  0.9150E-14  0.1439E-04  0.4549E-07  0.1360E-02  0.2328E-03  0.3931E+01
   -0.599990   30.37661  0.9150E-14  0.1460E-04  0.4447E-07  0.1433E-02  0.2185E-03  0.3941E+01
   -0.649991   30.37727  0.9150E-14  0.1478E-04  0.4362E-07  0.1498E-02  0.2054E-03  0.3983E+01
   -0.699992   30.37790  0.9150E-14  0.1494E-04  0.4290E-07  0.1556E-02  0.1934E-03  0.4081E+01
   -0.749993   30.37849  0.9150E-14  0.1507E-04  0.4230E-07  0.1607E-02  0.1823E-03  0.4207E+01
   -0.799995   30.37906  0.9151E-14  0.1518E-04  0.4181E-07  0.1650E-02  0.1720E-03  0.4392E+01
   -0.849996   30.37961  0.9151E-14  0.1527E-04  0.4142E-07  0.1686E-02  0.1624E-03  0.4608E+01
   -0.899998   30.38014  0.9151E-14  0.1534E-04  0.4112E-07  0.1714E-02  0.1534E-03  0.4895E+01
   -0.950000   30.38066  0.9151E-14  0.1539E-04  0.4091E-07  0.1733E-02  0.1449E-03  0.5225E+01
   -1.000001   30.38117  0.9151E-14  0.1541E-04  0.4080E-07  0.1745E-02  0.1368E-03  0.5650E+01
   -1.050003   30.38167  0.9151E-14  0.1542E-04  0.4078E-07  0.1748E-02  0.1292E-03  0.6387E+01
   -1.100005   30.38217  0.9151E-14  0.1541E-04  0.4086E-07  0.1827E-02  0.1219E-03  0.2140E+02
   -1.150006   30.38264  0.9151E-14  0.1537E-04  0.4107E-07  0.1677E-02  0.1154E-03  0.4711E+02
   -1.200008   30.38315  0.9151E-14  0.1532E-04  0.4139E-07  0.1697E-02  0.1087E-03  0.9147E+01
   -1.250009   30.38366  0.9151E-14  0.1523E-04  0.4187E-07  0.1668E-02  0.1023E-03  0.9771E+01
   -1.300011   30.38417  0.9151E-14  0.1513E-04  0.4254E-07  0.1621E-02  0.9612E-04  0.1137E+02
   -1.350012   30.38469  0.9151E-14  0.1499E-04  0.4344E-07  0.1565E-02  0.9013E-04  0.1357E+02
   -1.400013   30.38523  0.9151E-14  0.1482E-04  0.4465E-07  0.1492E-02  0.8431E-04  0.1662E+02
   -1.450014   30.38580  0.9151E-14  0.1461E-04  0.4627E-07  0.1416E-02  0.7860E-04  0.2102E+02
   -1.500014   30.38640  0.9151E-14  0.1435E-04  0.4850E-07  0.1309E-02  0.7300E-04  0.2811E+02
   -1.550015   30.38705  0.9151E-14  0.1404E-04  0.5161E-07  0.1224E-02  0.6740E-04  0.3932E+02
   -1.600015   30.38775  0.9151E-14  0.1365E-04  0.5628E-07  0.1081E-02  0.6191E-04  0.6950E+02
   -1.650015   30.38859  0.9151E-14  0.1315E-04  0.6337E-07  0.1002E-02  0.5609E-04  0.3227E+03
   -1.700014   30.38951  0.9151E-14  0.1248E-04  0.7598E-07  0.8220E-03  0.5049E-04  0.1818E+05
   -1.750013   30.39110  0.9151E-14  0.1156E-04  0.9692E-07  0.7440E-03  0.4320E-04  0.4716E+06
   -1.800012   30.39252  0.9151E-14  0.1029E-04  0.1410E-06  0.5230E-03  0.3722E-04  0.3810E+05
   -1.850010   30.39769  0.9151E-14  0.8782E-05  0.2229E-06  0.4742E-03  0.2722E-04  0.2022E+08
   -1.900008   30.39739  0.9151E-14  0.6964E-05  0.4602E-06  0.2150E-03  0.2199E-04  0.2482E+06
   -1.950006   30.41449  0.9151E-14  0.4820E-05  0.1177E-05  0.1750E-03  0.1206E-04 -0.1450E+07
   -2.000002   30.41750  0.9151E-14  0.0000E+00  0.0000E+00  0.0000E+00  0.2091E-04  0.0000E+00
