 1 - depth, m
 2 - temperature, C
 3 - salinity, kg/kg
 4 - turbulent kinetic energy, m**2/s**2
 5 - dissipation rate, m**2/s**3
 6 - kinematic heat conductance, m**2/s
 7 - modulus of horizontal velocity, m/s
 8 - Richardson number, n/d
   -0.000000   30.47846  0.2444E-13  0.4963E-05  0.3160E-06  0.5040E-04  0.9413E-03  0.7668E+04
   -0.049997   30.51090  0.2444E-13  0.8622E-05  0.1401E-06  0.1851E-03  0.5305E-03  0.1701E+03
   -0.099994   30.52290  0.2444E-13  0.1046E-04  0.9680E-07  0.4125E-03  0.3899E-03  0.5565E+02
   -0.149992   30.52621  0.2444E-13  0.1161E-04  0.8143E-07  0.4939E-03  0.3450E-03  0.2743E+02
   -0.199990   30.52886  0.2444E-13  0.1251E-04  0.7241E-07  0.6604E-03  0.3085E-03  0.1767E+02
   -0.249989   30.53079  0.2444E-13  0.1322E-04  0.6651E-07  0.7877E-03  0.2812E-03  0.1313E+02
   -0.299988   30.53235  0.2444E-13  0.1381E-04  0.6231E-07  0.9159E-03  0.2585E-03  0.1047E+02
   -0.349988   30.53367  0.2444E-13  0.1429E-04  0.5917E-07  0.1031E-02  0.2389E-03  0.8988E+01
   -0.399987   30.53482  0.2444E-13  0.1470E-04  0.5673E-07  0.1137E-02  0.2217E-03  0.8004E+01
   -0.449987   30.53584  0.2444E-13  0.1505E-04  0.5475E-07  0.1235E-02  0.2065E-03  0.7535E+01
   -0.499988   30.53675  0.2444E-13  0.1536E-04  0.5312E-07  0.1325E-02  0.1931E-03  0.7312E+01
   -0.549988   30.53759  0.2444E-13  0.1562E-04  0.5176E-07  0.1407E-02  0.1810E-03  0.7236E+01
   -0.599989   30.53837  0.2444E-13  0.1585E-04  0.5063E-07  0.1482E-02  0.1701E-03  0.7222E+01
   -0.649990   30.53910  0.2444E-13  0.1605E-04  0.4968E-07  0.1548E-02  0.1601E-03  0.7339E+01
   -0.699991   30.53979  0.2444E-13  0.1622E-04  0.4888E-07  0.1607E-02  0.1510E-03  0.7489E+01
   -0.749992   30.54044  0.2444E-13  0.1636E-04  0.4823E-07  0.1658E-02  0.1425E-03  0.7770E+01
   -0.799994   30.54107  0.2444E-13  0.1648E-04  0.4770E-07  0.1700E-02  0.1346E-03  0.8080E+01
   -0.849995   30.54167  0.2444E-13  0.1657E-04  0.4728E-07  0.1735E-02  0.1272E-03  0.8540E+01
   -0.899997   30.54226  0.2444E-13  0.1664E-04  0.4698E-07  0.1761E-02  0.1203E-03  0.9041E+01
   -0.949999   30.54283  0.2444E-13  0.1668E-04  0.4678E-07  0.1779E-02  0.1138E-03  0.9734E+01
   -1.000000   30.54339  0.2444E-13  0.1671E-04  0.4670E-07  0.1789E-02  0.1076E-03  0.1050E+02
   -1.050002   30.54395  0.2444E-13  0.1671E-04  0.4673E-07  0.1787E-02  0.1017E-03  0.1197E+02
   -1.100004   30.54450  0.2444E-13  0.1669E-04  0.4689E-07  0.1884E-02  0.9608E-04  0.3926E+02
   -1.150005   30.54503  0.2444E-13  0.1664E-04  0.4721E-07  0.1688E-02  0.9110E-04  0.9175E+02
   -1.200007   30.54561  0.2444E-13  0.1657E-04  0.4767E-07  0.1720E-02  0.8584E-04  0.1753E+02
   -1.250008   30.54618  0.2444E-13  0.1647E-04  0.4832E-07  0.1688E-02  0.8085E-04  0.1872E+02
   -1.300010   30.54676  0.2444E-13  0.1634E-04  0.4922E-07  0.1635E-02  0.7603E-04  0.2211E+02
   -1.350011   30.54736  0.2444E-13  0.1617E-04  0.5043E-07  0.1572E-02  0.7136E-04  0.2663E+02
   -1.400012   30.54798  0.2444E-13  0.1596E-04  0.5205E-07  0.1490E-02  0.6679E-04  0.3334E+02
   -1.450013   30.54863  0.2444E-13  0.1571E-04  0.5425E-07  0.1410E-02  0.6229E-04  0.4300E+02
   -1.500013   30.54933  0.2444E-13  0.1540E-04  0.5731E-07  0.1293E-02  0.5787E-04  0.5982E+02
   -1.550013   30.55011  0.2444E-13  0.1501E-04  0.6166E-07  0.1211E-02  0.5339E-04  0.8827E+02
   -1.600013   30.55095  0.2444E-13  0.1453E-04  0.6843E-07  0.1060E-02  0.4901E-04  0.2102E+03
   -1.650013   30.55203  0.2444E-13  0.1389E-04  0.7896E-07  0.9839E-03  0.4420E-04  0.8569E+04
   -1.700013   30.55324  0.2444E-13  0.1302E-04  0.9750E-07  0.7929E-03  0.3948E-04  0.2194E+06
   -1.750012   30.55548  0.2444E-13  0.1190E-04  0.1278E-06  0.7265E-03  0.3312E-04  0.4429E+06
   -1.800010   30.55713  0.2444E-13  0.1042E-04  0.1953E-06  0.4872E-03  0.2849E-04  0.9243E+05
   -1.850009   30.56525  0.2444E-13  0.8834E-05  0.3189E-06  0.4700E-03  0.1988E-04  0.9297E+07
   -1.900006   30.56275  0.2444E-13  0.7047E-05  0.6570E-06  0.2117E-03  0.1641E-04 -0.1145E+06
   -1.950004   30.58623  0.2444E-13  0.4979E-05  0.1622E-05  0.2029E-03  0.8695E-05 -0.2168E+07
   -2.000001   30.58741  0.2444E-13  0.0000E+00  0.0000E+00  0.0000E+00  0.1655E-04  0.0000E+00
