 1 - depth, m
 2 - temperature, C
 3 - salinity, kg/kg
 4 - turbulent kinetic energy, m**2/s**2
 5 - dissipation rate, m**2/s**3
 6 - kinematic heat conductance, m**2/s
 7 - modulus of horizontal velocity, m/s
 8 - Richardson number, n/d
   -0.000000   30.66982  0.7345E-14  0.5163E-05  0.3353E-06  0.5221E-04  0.1488E-02  0.4846E+04
   -0.049997   30.70257  0.7345E-14  0.8819E-05  0.1493E-06  0.1825E-03  0.8525E-03  0.1245E+03
   -0.099994   30.71528  0.7345E-14  0.1071E-04  0.1025E-06  0.4097E-03  0.6251E-03  0.2304E+02
   -0.149992   30.71877  0.7345E-14  0.1190E-04  0.8587E-07  0.4911E-03  0.5526E-03  0.1137E+02
   -0.199990   30.72155  0.7345E-14  0.1282E-04  0.7616E-07  0.6592E-03  0.4938E-03  0.7258E+01
   -0.249989   30.72356  0.7345E-14  0.1355E-04  0.6982E-07  0.7874E-03  0.4499E-03  0.5370E+01
   -0.299988   30.72520  0.7345E-14  0.1415E-04  0.6531E-07  0.9170E-03  0.4134E-03  0.4266E+01
   -0.349988   30.72657  0.7345E-14  0.1465E-04  0.6194E-07  0.1034E-02  0.3822E-03  0.3655E+01
   -0.399987   30.72776  0.7345E-14  0.1506E-04  0.5933E-07  0.1141E-02  0.3546E-03  0.3249E+01
   -0.449987   30.72881  0.7345E-14  0.1542E-04  0.5720E-07  0.1240E-02  0.3303E-03  0.3055E+01
   -0.499988   30.72976  0.7345E-14  0.1573E-04  0.5545E-07  0.1330E-02  0.3088E-03  0.2962E+01
   -0.549988   30.73063  0.7345E-14  0.1600E-04  0.5399E-07  0.1413E-02  0.2896E-03  0.2928E+01
   -0.599989   30.73143  0.7345E-14  0.1623E-04  0.5276E-07  0.1489E-02  0.2721E-03  0.2920E+01
   -0.649990   30.73218  0.7345E-14  0.1643E-04  0.5173E-07  0.1556E-02  0.2562E-03  0.2964E+01
   -0.699991   30.73289  0.7345E-14  0.1659E-04  0.5086E-07  0.1615E-02  0.2416E-03  0.3022E+01
   -0.749992   30.73356  0.7345E-14  0.1673E-04  0.5014E-07  0.1666E-02  0.2281E-03  0.3132E+01
   -0.799994   30.73420  0.7345E-14  0.1684E-04  0.4954E-07  0.1710E-02  0.2155E-03  0.3255E+01
   -0.849995   30.73482  0.7345E-14  0.1693E-04  0.4907E-07  0.1745E-02  0.2037E-03  0.3436E+01
   -0.899997   30.73542  0.7345E-14  0.1700E-04  0.4872E-07  0.1772E-02  0.1927E-03  0.3635E+01
   -0.949999   30.73601  0.7345E-14  0.1704E-04  0.4848E-07  0.1789E-02  0.1822E-03  0.3910E+01
   -1.000000   30.73658  0.7345E-14  0.1705E-04  0.4835E-07  0.1799E-02  0.1724E-03  0.4215E+01
   -1.050002   30.73715  0.7345E-14  0.1705E-04  0.4835E-07  0.1798E-02  0.1630E-03  0.4799E+01
   -1.100004   30.73772  0.7345E-14  0.1702E-04  0.4848E-07  0.1896E-02  0.1540E-03  0.1568E+02
   -1.150005   30.73825  0.7345E-14  0.1696E-04  0.4877E-07  0.1696E-02  0.1461E-03  0.3711E+02
   -1.200007   30.73884  0.7345E-14  0.1688E-04  0.4920E-07  0.1730E-02  0.1377E-03  0.7040E+01
   -1.250008   30.73942  0.7345E-14  0.1677E-04  0.4985E-07  0.1698E-02  0.1297E-03  0.7498E+01
   -1.300010   30.74001  0.7345E-14  0.1663E-04  0.5074E-07  0.1644E-02  0.1220E-03  0.8868E+01
   -1.350011   30.74061  0.7345E-14  0.1645E-04  0.5196E-07  0.1582E-02  0.1145E-03  0.1068E+02
   -1.400012   30.74124  0.7345E-14  0.1623E-04  0.5362E-07  0.1498E-02  0.1072E-03  0.1342E+02
   -1.450012   30.74190  0.7345E-14  0.1596E-04  0.5588E-07  0.1419E-02  0.1000E-03  0.1732E+02
   -1.500013   30.74261  0.7345E-14  0.1563E-04  0.5905E-07  0.1302E-02  0.9294E-04  0.2429E+02
   -1.550013   30.74339  0.7345E-14  0.1523E-04  0.6359E-07  0.1221E-02  0.8579E-04  0.3638E+02
   -1.600013   30.74424  0.7345E-14  0.1472E-04  0.7080E-07  0.1072E-02  0.7876E-04  0.1215E+03
   -1.650013   30.74535  0.7345E-14  0.1405E-04  0.8208E-07  0.9909E-03  0.7096E-04  0.5604E+04
   -1.700012   30.74660  0.7345E-14  0.1313E-04  0.1023E-06  0.8019E-03  0.6323E-04  0.3110E+04
   -1.750012   30.74889  0.7345E-14  0.1198E-04  0.1342E-06  0.7269E-03  0.5293E-04  0.3033E+06
   -1.800010   30.75044  0.7345E-14  0.1053E-04  0.2021E-06  0.5054E-03  0.4565E-04  0.3266E+05
   -1.850008   30.75870  0.7345E-14  0.8985E-05  0.3333E-06  0.4727E-03  0.3201E-04  0.1813E+08
   -1.900006   30.75595  0.7345E-14  0.7193E-05  0.6978E-06  0.2179E-03  0.2645E-04 -0.2444E+06
   -1.950004   30.77895  0.7345E-14  0.5087E-05  0.1690E-05  0.2058E-03  0.1427E-04 -0.4601E+06
   -2.000001   30.78040  0.7345E-14  0.0000E+00  0.0000E+00  0.0000E+00  0.2697E-04  0.0000E+00
