 1 - depth, m
 2 - temperature, C
 3 - salinity, kg/kg
 4 - turbulent kinetic energy, m**2/s**2
 5 - dissipation rate, m**2/s**3
 6 - kinematic heat conductance, m**2/s
 7 - modulus of horizontal velocity, m/s
 8 - Richardson number, n/d
   -0.000000   29.74801  0.2924E-13  0.4718E-05  0.2648E-06  0.4866E-04  0.2557E-02  0.3231E+04
   -0.049997   29.77610  0.2924E-13  0.7848E-05  0.1166E-06  0.1856E-03  0.1387E-02  0.5109E+02
   -0.099994   29.78534  0.2924E-13  0.9353E-05  0.8186E-07  0.3784E-03  0.1057E-02  0.7361E+01
   -0.149992   29.78838  0.2925E-13  0.1033E-04  0.6879E-07  0.4702E-03  0.9335E-03  0.3695E+01
   -0.199991   29.79072  0.2925E-13  0.1109E-04  0.6112E-07  0.6153E-03  0.8364E-03  0.2404E+01
   -0.249989   29.79245  0.2925E-13  0.1170E-04  0.5609E-07  0.7346E-03  0.7624E-03  0.1782E+01
   -0.299989   29.79387  0.2925E-13  0.1220E-04  0.5250E-07  0.8459E-03  0.7007E-03  0.1446E+01
   -0.349988   29.79507  0.2925E-13  0.1263E-04  0.4978E-07  0.9490E-03  0.6473E-03  0.1327E+01
   -0.399988   29.79612  0.2925E-13  0.1301E-04  0.4758E-07  0.1054E-02  0.5979E-03  0.1284E+01
   -0.449988   29.79704  0.2925E-13  0.1334E-04  0.4574E-07  0.1158E-02  0.5527E-03  0.1268E+01
   -0.499988   29.79786  0.2925E-13  0.1364E-04  0.4420E-07  0.1256E-02  0.5119E-03  0.1267E+01
   -0.549989   29.79861  0.2925E-13  0.1390E-04  0.4291E-07  0.1346E-02  0.4752E-03  0.1261E+01
   -0.599990   29.79929  0.2925E-13  0.1412E-04  0.4183E-07  0.1428E-02  0.4420E-03  0.1259E+01
   -0.649991   29.79992  0.2925E-13  0.1432E-04  0.4092E-07  0.1501E-02  0.4119E-03  0.1253E+01
   -0.699992   29.80051  0.2925E-13  0.1448E-04  0.4017E-07  0.1565E-02  0.3847E-03  0.1252E+01
   -0.749993   29.80108  0.2925E-13  0.1461E-04  0.3955E-07  0.1620E-02  0.3599E-03  0.1248E+01
   -0.799995   29.80161  0.2925E-13  0.1471E-04  0.3905E-07  0.1664E-02  0.3375E-03  0.1252E+01
   -0.849996   29.80213  0.2925E-13  0.1479E-04  0.3866E-07  0.1699E-02  0.3170E-03  0.1255E+01
   -0.899998   29.80263  0.2925E-13  0.1485E-04  0.3836E-07  0.1725E-02  0.2983E-03  0.1277E+01
   -0.950000   29.80311  0.2925E-13  0.1488E-04  0.3816E-07  0.1741E-02  0.2812E-03  0.1316E+01
   -1.000002   29.80359  0.2925E-13  0.1490E-04  0.3805E-07  0.1750E-02  0.2654E-03  0.1394E+01
   -1.050003   29.80406  0.2925E-13  0.1489E-04  0.3802E-07  0.1750E-02  0.2505E-03  0.1561E+01
   -1.100005   29.80453  0.2925E-13  0.1487E-04  0.3809E-07  0.1836E-02  0.2364E-03  0.5207E+01
   -1.150007   29.80497  0.2925E-13  0.1483E-04  0.3827E-07  0.1668E-02  0.2239E-03  0.1159E+02
   -1.200008   29.80546  0.2925E-13  0.1477E-04  0.3856E-07  0.1694E-02  0.2108E-03  0.2235E+01
   -1.250010   29.80593  0.2925E-13  0.1468E-04  0.3899E-07  0.1664E-02  0.1984E-03  0.2384E+01
   -1.300011   29.80641  0.2925E-13  0.1457E-04  0.3959E-07  0.1617E-02  0.1864E-03  0.2765E+01
   -1.350012   29.80690  0.2925E-13  0.1443E-04  0.4040E-07  0.1560E-02  0.1747E-03  0.3300E+01
   -1.400013   29.80741  0.2925E-13  0.1426E-04  0.4150E-07  0.1487E-02  0.1634E-03  0.4022E+01
   -1.450014   29.80794  0.2925E-13  0.1406E-04  0.4297E-07  0.1410E-02  0.1523E-03  0.5083E+01
   -1.500015   29.80850  0.2925E-13  0.1381E-04  0.4500E-07  0.1304E-02  0.1415E-03  0.6735E+01
   -1.550015   29.80910  0.2925E-13  0.1350E-04  0.4782E-07  0.1217E-02  0.1306E-03  0.9370E+01
   -1.600015   29.80976  0.2925E-13  0.1313E-04  0.5201E-07  0.1076E-02  0.1199E-03  0.1538E+02
   -1.650015   29.81052  0.2925E-13  0.1265E-04  0.5840E-07  0.9959E-03  0.1087E-03  0.1445E+03
   -1.700015   29.81138  0.2925E-13  0.1201E-04  0.6983E-07  0.8175E-03  0.9781E-04 -0.1435E+03
   -1.750014   29.81280  0.2925E-13  0.1113E-04  0.8885E-07  0.7350E-03  0.8388E-04  0.3369E+05
   -1.800013   29.81418  0.2925E-13  0.9890E-05  0.1287E-06  0.5185E-03  0.7200E-04  0.1160E+06
   -1.850011   29.81876  0.2925E-13  0.8420E-05  0.2020E-06  0.4645E-03  0.5267E-04  0.1727E+07
   -1.900009   29.81867  0.2925E-13  0.6631E-05  0.4147E-06  0.2105E-03  0.4234E-04 -0.3571E+06
   -1.950006   29.83451  0.2925E-13  0.4581E-05  0.1065E-05  0.1726E-03  0.2300E-04 -0.5677E+06
   -2.000003   29.83686  0.2925E-13  0.0000E+00  0.0000E+00  0.0000E+00  0.4029E-04  0.0000E+00
