 1 - depth, m
 2 - temperature, C
 3 - salinity, kg/kg
 4 - turbulent kinetic energy, m**2/s**2
 5 - dissipation rate, m**2/s**3
 6 - kinematic heat conductance, m**2/s
 7 - modulus of horizontal velocity, m/s
 8 - Richardson number, n/d
   -0.000000   31.61727  0.1504E-13  0.5202E-05  0.3437E-06  0.5299E-04  0.7611E-03  0.2691E+04
   -0.049997   31.64998  0.1504E-13  0.9053E-05  0.1523E-06  0.1843E-03  0.4382E-03  0.5690E+02
   -0.099994   31.66281  0.1504E-13  0.1100E-04  0.1045E-06  0.4269E-03  0.3183E-03  0.8296E+02
   -0.149992   31.66619  0.1504E-13  0.1221E-04  0.8795E-07  0.5005E-03  0.2825E-03  0.4086E+02
   -0.199990   31.66894  0.1504E-13  0.1315E-04  0.7821E-07  0.6740E-03  0.2528E-03  0.2641E+02
   -0.249989   31.67093  0.1504E-13  0.1390E-04  0.7184E-07  0.8034E-03  0.2306E-03  0.1961E+02
   -0.299988   31.67255  0.1504E-13  0.1451E-04  0.6730E-07  0.9343E-03  0.2122E-03  0.1566E+02
   -0.349988   31.67391  0.1504E-13  0.1502E-04  0.6390E-07  0.1052E-02  0.1964E-03  0.1340E+02
   -0.399987   31.67509  0.1504E-13  0.1544E-04  0.6126E-07  0.1160E-02  0.1824E-03  0.1195E+02
   -0.449987   31.67613  0.1504E-13  0.1581E-04  0.5911E-07  0.1259E-02  0.1701E-03  0.1121E+02
   -0.499988   31.67708  0.1504E-13  0.1612E-04  0.5734E-07  0.1350E-02  0.1592E-03  0.1090E+02
   -0.549988   31.67794  0.1504E-13  0.1639E-04  0.5587E-07  0.1434E-02  0.1494E-03  0.1074E+02
   -0.599989   31.67875  0.1504E-13  0.1663E-04  0.5463E-07  0.1509E-02  0.1405E-03  0.1075E+02
   -0.649990   31.67949  0.1504E-13  0.1683E-04  0.5360E-07  0.1576E-02  0.1324E-03  0.1087E+02
   -0.699991   31.68020  0.1504E-13  0.1700E-04  0.5273E-07  0.1634E-02  0.1249E-03  0.1113E+02
   -0.749992   31.68087  0.1504E-13  0.1714E-04  0.5201E-07  0.1685E-02  0.1180E-03  0.1149E+02
   -0.799994   31.68152  0.1504E-13  0.1725E-04  0.5143E-07  0.1727E-02  0.1116E-03  0.1199E+02
   -0.849995   31.68214  0.1504E-13  0.1734E-04  0.5097E-07  0.1761E-02  0.1055E-03  0.1261E+02
   -0.899997   31.68274  0.1504E-13  0.1741E-04  0.5063E-07  0.1787E-02  0.9988E-04  0.1340E+02
   -0.949998   31.68333  0.1504E-13  0.1744E-04  0.5042E-07  0.1803E-02  0.9453E-04  0.1437E+02
   -1.000000   31.68391  0.1504E-13  0.1746E-04  0.5032E-07  0.1811E-02  0.8946E-04  0.1557E+02
   -1.050002   31.68448  0.1504E-13  0.1745E-04  0.5036E-07  0.1807E-02  0.8464E-04  0.1767E+02
   -1.100003   31.68505  0.1504E-13  0.1741E-04  0.5053E-07  0.1916E-02  0.8003E-04  0.5736E+02
   -1.150005   31.68559  0.1504E-13  0.1735E-04  0.5088E-07  0.1689E-02  0.7596E-04  0.1405E+03
   -1.200007   31.68619  0.1504E-13  0.1726E-04  0.5139E-07  0.1731E-02  0.7160E-04  0.2619E+02
   -1.250008   31.68678  0.1504E-13  0.1714E-04  0.5213E-07  0.1697E-02  0.6747E-04  0.2804E+02
   -1.300009   31.68738  0.1504E-13  0.1699E-04  0.5315E-07  0.1640E-02  0.6350E-04  0.3317E+02
   -1.350010   31.68799  0.1504E-13  0.1680E-04  0.5452E-07  0.1573E-02  0.5963E-04  0.4036E+02
   -1.400011   31.68863  0.1504E-13  0.1656E-04  0.5639E-07  0.1487E-02  0.5584E-04  0.5089E+02
   -1.450012   31.68932  0.1504E-13  0.1627E-04  0.5895E-07  0.1404E-02  0.5210E-04  0.6679E+02
   -1.500013   31.69005  0.1504E-13  0.1591E-04  0.6255E-07  0.1284E-02  0.4841E-04  0.9452E+02
   -1.550013   31.69086  0.1504E-13  0.1547E-04  0.6778E-07  0.1201E-02  0.4466E-04  0.1483E+03
   -1.600013   31.69176  0.1504E-13  0.1492E-04  0.7606E-07  0.1053E-02  0.4097E-04 -0.1126E+04
   -1.650013   31.69292  0.1504E-13  0.1418E-04  0.8914E-07  0.9712E-03  0.3686E-04  0.2783E+05
   -1.700012   31.69433  0.1504E-13  0.1315E-04  0.1126E-06  0.7821E-03  0.3268E-04  0.2958E+06
   -1.750011   31.69684  0.1504E-13  0.1192E-04  0.1491E-06  0.7106E-03  0.2713E-04  0.4743E+07
   -1.800010   31.69844  0.1504E-13  0.1036E-04  0.2314E-06  0.4771E-03  0.2340E-04  0.2664E+07
   -1.850008   31.70820  0.1504E-13  0.8775E-05  0.3859E-06  0.4660E-03  0.1591E-04  0.3012E+10
   -1.900006   31.70415  0.1504E-13  0.7022E-05  0.8037E-06  0.2104E-03  0.1329E-04 -0.1422E+07
   -1.950003   31.72987  0.1504E-13  0.5034E-05  0.1924E-05  0.2197E-03  0.6986E-05 -0.5424E+06
   -2.000000   31.72951  0.1504E-13  0.0000E+00  0.0000E+00  0.0000E+00  0.1398E-04  0.0000E+00
