 1 - depth, m
 2 - temperature, C
 3 - salinity, kg/kg
 4 - turbulent kinetic energy, m**2/s**2
 5 - dissipation rate, m**2/s**3
 6 - kinematic heat conductance, m**2/s
 7 - modulus of horizontal velocity, m/s
 8 - Richardson number, n/d
   -0.000000   30.94233  0.8698E-13  0.5413E-05  0.3594E-06  0.5361E-04  0.1629E-02  0.9857E+04
   -0.049997   30.97698  0.8698E-13  0.9173E-05  0.1605E-06  0.1827E-03  0.9415E-03  0.3231E+04
   -0.099994   30.99062  0.8698E-13  0.1113E-04  0.1100E-06  0.4115E-03  0.6913E-03  0.1982E+02
   -0.149992   30.99437  0.8698E-13  0.1235E-04  0.9194E-07  0.4918E-03  0.6115E-03  0.9755E+01
   -0.199990   30.99737  0.8698E-13  0.1330E-04  0.8139E-07  0.6610E-03  0.5464E-03  0.6208E+01
   -0.249989   30.99952  0.8698E-13  0.1404E-04  0.7448E-07  0.7898E-03  0.4980E-03  0.4575E+01
   -0.299988   31.00127  0.8698E-13  0.1464E-04  0.6955E-07  0.9197E-03  0.4577E-03  0.3623E+01
   -0.349988   31.00272  0.8698E-13  0.1514E-04  0.6584E-07  0.1037E-02  0.4232E-03  0.3092E+01
   -0.399987   31.00398  0.8698E-13  0.1555E-04  0.6294E-07  0.1144E-02  0.3928E-03  0.2743E+01
   -0.449987   31.00509  0.8698E-13  0.1590E-04  0.6058E-07  0.1243E-02  0.3660E-03  0.2573E+01
   -0.499988   31.00609  0.8698E-13  0.1620E-04  0.5861E-07  0.1333E-02  0.3422E-03  0.2492E+01
   -0.549988   31.00701  0.8698E-13  0.1646E-04  0.5695E-07  0.1416E-02  0.3209E-03  0.2458E+01
   -0.599989   31.00785  0.8698E-13  0.1667E-04  0.5554E-07  0.1491E-02  0.3017E-03  0.2447E+01
   -0.649990   31.00864  0.8698E-13  0.1685E-04  0.5434E-07  0.1557E-02  0.2841E-03  0.2477E+01
   -0.699991   31.00938  0.8698E-13  0.1700E-04  0.5332E-07  0.1616E-02  0.2679E-03  0.2520E+01
   -0.749993   31.01008  0.8698E-13  0.1712E-04  0.5244E-07  0.1667E-02  0.2529E-03  0.2603E+01
   -0.799994   31.01075  0.8698E-13  0.1721E-04  0.5170E-07  0.1709E-02  0.2390E-03  0.2698E+01
   -0.849996   31.01139  0.8698E-13  0.1727E-04  0.5109E-07  0.1743E-02  0.2260E-03  0.2838E+01
   -0.899997   31.01201  0.8698E-13  0.1731E-04  0.5060E-07  0.1769E-02  0.2138E-03  0.2994E+01
   -0.949999   31.01261  0.8698E-13  0.1733E-04  0.5023E-07  0.1786E-02  0.2022E-03  0.3208E+01
   -1.000000   31.01320  0.8698E-13  0.1732E-04  0.4998E-07  0.1794E-02  0.1913E-03  0.3448E+01
   -1.050002   31.01378  0.8698E-13  0.1728E-04  0.4985E-07  0.1792E-02  0.1809E-03  0.3907E+01
   -1.100004   31.01435  0.8698E-13  0.1722E-04  0.4986E-07  0.1899E-02  0.1709E-03  0.1260E+02
   -1.150005   31.01488  0.8698E-13  0.1713E-04  0.5004E-07  0.1674E-02  0.1622E-03  0.3079E+02
   -1.200007   31.01548  0.8698E-13  0.1702E-04  0.5037E-07  0.1717E-02  0.1528E-03  0.5723E+01
   -1.250008   31.01606  0.8698E-13  0.1687E-04  0.5091E-07  0.1685E-02  0.1439E-03  0.6052E+01
   -1.300010   31.01664  0.8698E-13  0.1669E-04  0.5172E-07  0.1628E-02  0.1354E-03  0.7149E+01
   -1.350011   31.01724  0.8698E-13  0.1648E-04  0.5287E-07  0.1563E-02  0.1271E-03  0.8604E+01
   -1.400012   31.01786  0.8698E-13  0.1622E-04  0.5447E-07  0.1477E-02  0.1190E-03  0.1083E+02
   -1.450013   31.01852  0.8698E-13  0.1591E-04  0.5673E-07  0.1396E-02  0.1110E-03  0.1404E+02
   -1.500013   31.01921  0.8698E-13  0.1553E-04  0.5997E-07  0.1277E-02  0.1031E-03  0.1983E+02
   -1.550014   31.01997  0.8698E-13  0.1508E-04  0.6474E-07  0.1196E-02  0.9507E-04  0.3052E+02
   -1.600014   31.02080  0.8698E-13  0.1451E-04  0.7247E-07  0.1048E-02  0.8721E-04  0.8174E+02
   -1.650013   31.02191  0.8698E-13  0.1376E-04  0.8475E-07  0.9657E-03  0.7836E-04  0.8758E+03
   -1.700013   31.02317  0.8698E-13  0.1274E-04  0.1060E-06  0.7837E-03  0.6953E-04 -0.1170E+05
   -1.750012   31.02546  0.8698E-13  0.1151E-04  0.1407E-06  0.7042E-03  0.5769E-04  0.6425E+05
   -1.800010   31.02694  0.8698E-13  0.9954E-05  0.2166E-06  0.4856E-03  0.4955E-04  0.1367E+06
   -1.850009   31.03540  0.8698E-13  0.8376E-05  0.3618E-06  0.4550E-03  0.3382E-04  0.3454E+08
   -1.900007   31.03205  0.8698E-13  0.6640E-05  0.7730E-06  0.2159E-03  0.2798E-04 -0.1716E+06
   -1.950004   31.05437  0.8698E-13  0.4743E-05  0.1843E-05  0.2184E-03  0.1458E-04 -0.3790E+06
   -2.000001   31.05527  0.8698E-13  0.0000E+00  0.0000E+00  0.0000E+00  0.3011E-04  0.0000E+00
