 1 - depth, m
 2 - temperature, C
 3 - salinity, kg/kg
 4 - turbulent kinetic energy, m**2/s**2
 5 - dissipation rate, m**2/s**3
 6 - kinematic heat conductance, m**2/s
 7 - modulus of horizontal velocity, m/s
 8 - Richardson number, n/d
   -0.000000   30.69429  0.4207E-14  0.4858E-05  0.3062E-06  0.5026E-04  0.8335E-03  0.3986E+04
   -0.049997   30.72562  0.4207E-14  0.8471E-05  0.1358E-06  0.1820E-03  0.4719E-03  0.5177E+02
   -0.099994   30.73746  0.4207E-14  0.1028E-04  0.9369E-07  0.4123E-03  0.3454E-03  0.6907E+02
   -0.149992   30.74067  0.4207E-14  0.1140E-04  0.7892E-07  0.4905E-03  0.3059E-03  0.3387E+02
   -0.199991   30.74325  0.4207E-14  0.1228E-04  0.7022E-07  0.6561E-03  0.2735E-03  0.2189E+02
   -0.249989   30.74512  0.4207E-14  0.1298E-04  0.6451E-07  0.7827E-03  0.2493E-03  0.1623E+02
   -0.299988   30.74665  0.4207E-14  0.1355E-04  0.6044E-07  0.9097E-03  0.2291E-03  0.1296E+02
   -0.349988   30.74794  0.4207E-14  0.1403E-04  0.5739E-07  0.1024E-02  0.2118E-03  0.1109E+02
   -0.399988   30.74905  0.4207E-14  0.1442E-04  0.5501E-07  0.1129E-02  0.1965E-03  0.9898E+01
   -0.449988   30.75004  0.4207E-14  0.1477E-04  0.5308E-07  0.1226E-02  0.1830E-03  0.9281E+01
   -0.499988   30.75093  0.4207E-14  0.1507E-04  0.5149E-07  0.1316E-02  0.1710E-03  0.9036E+01
   -0.549989   30.75175  0.4207E-14  0.1532E-04  0.5016E-07  0.1397E-02  0.1603E-03  0.8902E+01
   -0.599989   30.75251  0.4207E-14  0.1555E-04  0.4904E-07  0.1471E-02  0.1506E-03  0.8915E+01
   -0.649990   30.75321  0.4207E-14  0.1574E-04  0.4810E-07  0.1538E-02  0.1418E-03  0.9012E+01
   -0.699992   30.75388  0.4207E-14  0.1590E-04  0.4731E-07  0.1596E-02  0.1337E-03  0.9229E+01
   -0.749993   30.75451  0.4207E-14  0.1604E-04  0.4666E-07  0.1647E-02  0.1261E-03  0.9520E+01
   -0.799994   30.75512  0.4207E-14  0.1615E-04  0.4612E-07  0.1690E-02  0.1191E-03  0.9937E+01
   -0.849996   30.75571  0.4207E-14  0.1624E-04  0.4569E-07  0.1725E-02  0.1126E-03  0.1044E+02
   -0.899998   30.75627  0.4207E-14  0.1630E-04  0.4537E-07  0.1752E-02  0.1064E-03  0.1109E+02
   -0.949999   30.75683  0.4207E-14  0.1635E-04  0.4515E-07  0.1771E-02  0.1006E-03  0.1186E+02
   -1.000001   30.75737  0.4208E-14  0.1637E-04  0.4504E-07  0.1781E-02  0.9514E-04  0.1284E+02
   -1.050003   30.75791  0.4208E-14  0.1637E-04  0.4503E-07  0.1781E-02  0.8993E-04  0.1454E+02
   -1.100004   30.75844  0.4208E-14  0.1635E-04  0.4514E-07  0.1873E-02  0.8495E-04  0.4812E+02
   -1.150006   30.75894  0.4208E-14  0.1630E-04  0.4540E-07  0.1690E-02  0.8052E-04  0.1103E+03
   -1.200008   30.75950  0.4208E-14  0.1623E-04  0.4579E-07  0.1719E-02  0.7588E-04  0.2112E+02
   -1.250009   30.76004  0.4208E-14  0.1613E-04  0.4637E-07  0.1688E-02  0.7146E-04  0.2259E+02
   -1.300010   30.76059  0.4208E-14  0.1601E-04  0.4716E-07  0.1637E-02  0.6720E-04  0.2648E+02
   -1.350012   30.76116  0.4208E-14  0.1585E-04  0.4824E-07  0.1576E-02  0.6306E-04  0.3184E+02
   -1.400013   30.76174  0.4208E-14  0.1565E-04  0.4969E-07  0.1498E-02  0.5903E-04  0.3948E+02
   -1.450013   30.76236  0.4208E-14  0.1541E-04  0.5165E-07  0.1417E-02  0.5506E-04  0.5066E+02
   -1.500014   30.76302  0.4208E-14  0.1511E-04  0.5437E-07  0.1305E-02  0.5116E-04  0.6929E+02
   -1.550014   30.76374  0.4208E-14  0.1475E-04  0.5823E-07  0.1217E-02  0.4723E-04  0.1010E+03
   -1.600014   30.76453  0.4208E-14  0.1429E-04  0.6412E-07  0.1072E-02  0.4337E-04  0.2002E+03
   -1.650014   30.76549  0.4208E-14  0.1371E-04  0.7327E-07  0.9896E-03  0.3923E-04  0.9742E+03
   -1.700014   30.76660  0.4208E-14  0.1290E-04  0.8951E-07  0.8081E-03  0.3513E-04 -0.1470E+04
   -1.750013   30.76850  0.4208E-14  0.1185E-04  0.1160E-06  0.7284E-03  0.2977E-04  0.4929E+06
   -1.800011   30.77011  0.4208E-14  0.1041E-04  0.1745E-06  0.5022E-03  0.2557E-04  0.3165E+06
   -1.850010   30.77699  0.4208E-14  0.8826E-05  0.2817E-06  0.4679E-03  0.1819E-04  0.3170E+08
   -1.900008   30.77543  0.4208E-14  0.6984E-05  0.5801E-06  0.2137E-03  0.1481E-04  0.5113E+06
   -1.950005   30.79629  0.4208E-14  0.4909E-05  0.1449E-05  0.1936E-03  0.7910E-05 -0.2915E+07
   -2.000002   30.79757  0.4208E-14  0.0000E+00  0.0000E+00  0.0000E+00  0.1472E-04  0.0000E+00
