 1 - depth, m
 2 - temperature, C
 3 - salinity, kg/kg
 4 - turbulent kinetic energy, m**2/s**2
 5 - dissipation rate, m**2/s**3
 6 - kinematic heat conductance, m**2/s
 7 - modulus of horizontal velocity, m/s
 8 - Richardson number, n/d
   -0.000000   31.13413  0.1156E-12  0.5005E-05  0.3162E-06  0.5024E-04  0.6075E-03  0.3472E+05
   -0.049997   31.16750  0.1156E-12  0.8777E-05  0.1405E-06  0.1873E-03  0.3445E-03  0.4741E+04
   -0.099994   31.17908  0.1156E-12  0.1059E-04  0.9732E-07  0.4191E-03  0.2525E-03  0.1478E+03
   -0.149992   31.18239  0.1156E-12  0.1173E-04  0.8210E-07  0.4963E-03  0.2240E-03  0.7292E+02
   -0.199990   31.18506  0.1156E-12  0.1261E-04  0.7307E-07  0.6629E-03  0.2004E-03  0.4765E+02
   -0.249989   31.18699  0.1156E-12  0.1331E-04  0.6710E-07  0.7903E-03  0.1828E-03  0.3535E+02
   -0.299988   31.18856  0.1156E-12  0.1388E-04  0.6282E-07  0.9171E-03  0.1681E-03  0.2827E+02
   -0.349988   31.18988  0.1156E-12  0.1435E-04  0.5960E-07  0.1032E-02  0.1555E-03  0.2412E+02
   -0.399987   31.19102  0.1156E-12  0.1475E-04  0.5708E-07  0.1137E-02  0.1443E-03  0.2153E+02
   -0.449987   31.19203  0.1156E-12  0.1509E-04  0.5502E-07  0.1234E-02  0.1345E-03  0.2011E+02
   -0.499988   31.19295  0.1156E-12  0.1538E-04  0.5331E-07  0.1323E-02  0.1257E-03  0.1959E+02
   -0.549988   31.19378  0.1156E-12  0.1563E-04  0.5187E-07  0.1405E-02  0.1179E-03  0.1920E+02
   -0.599989   31.19455  0.1156E-12  0.1584E-04  0.5066E-07  0.1478E-02  0.1108E-03  0.1924E+02
   -0.649990   31.19526  0.1156E-12  0.1602E-04  0.4963E-07  0.1544E-02  0.1043E-03  0.1935E+02
   -0.699991   31.19594  0.1156E-12  0.1618E-04  0.4876E-07  0.1603E-02  0.9836E-04  0.1983E+02
   -0.749992   31.19658  0.1156E-12  0.1630E-04  0.4803E-07  0.1653E-02  0.9286E-04  0.2034E+02
   -0.799994   31.19719  0.1156E-12  0.1641E-04  0.4742E-07  0.1696E-02  0.8772E-04  0.2124E+02
   -0.849995   31.19778  0.1156E-12  0.1648E-04  0.4693E-07  0.1731E-02  0.8293E-04  0.2218E+02
   -0.899997   31.19835  0.1156E-12  0.1654E-04  0.4654E-07  0.1757E-02  0.7841E-04  0.2358E+02
   -0.949999   31.19891  0.1156E-12  0.1657E-04  0.4627E-07  0.1775E-02  0.7417E-04  0.2508E+02
   -1.000000   31.19945  0.1156E-12  0.1658E-04  0.4610E-07  0.1785E-02  0.7013E-04  0.2716E+02
   -1.050002   31.19999  0.1156E-12  0.1657E-04  0.4605E-07  0.1785E-02  0.6631E-04  0.3056E+02
   -1.100004   31.20052  0.1156E-12  0.1654E-04  0.4612E-07  0.1880E-02  0.6265E-04  0.1010E+03
   -1.150005   31.20102  0.1156E-12  0.1648E-04  0.4634E-07  0.1688E-02  0.5940E-04  0.2326E+03
   -1.200007   31.20158  0.1156E-12  0.1640E-04  0.4669E-07  0.1721E-02  0.5599E-04  0.4414E+02
   -1.250008   31.20212  0.1156E-12  0.1629E-04  0.4724E-07  0.1690E-02  0.5273E-04  0.4718E+02
   -1.300010   31.20266  0.1156E-12  0.1615E-04  0.4801E-07  0.1638E-02  0.4961E-04  0.5498E+02
   -1.350011   31.20322  0.1156E-12  0.1597E-04  0.4907E-07  0.1576E-02  0.4656E-04  0.6616E+02
   -1.400012   31.20380  0.1156E-12  0.1576E-04  0.5052E-07  0.1496E-02  0.4360E-04  0.8157E+02
   -1.450012   31.20442  0.1156E-12  0.1551E-04  0.5250E-07  0.1416E-02  0.4067E-04  0.1047E+03
   -1.500013   31.20506  0.1156E-12  0.1520E-04  0.5526E-07  0.1301E-02  0.3780E-04  0.1425E+03
   -1.550013   31.20578  0.1156E-12  0.1482E-04  0.5920E-07  0.1215E-02  0.3490E-04  0.2061E+03
   -1.600013   31.20655  0.1156E-12  0.1434E-04  0.6527E-07  0.1070E-02  0.3206E-04  0.4733E+03
   -1.650013   31.20750  0.1156E-12  0.1373E-04  0.7475E-07  0.9884E-03  0.2898E-04  0.5974E+05
   -1.700012   31.20859  0.1156E-12  0.1289E-04  0.9162E-07  0.8082E-03  0.2593E-04 -0.3811E+04
   -1.750012   31.21053  0.1156E-12  0.1180E-04  0.1193E-06  0.7247E-03  0.2188E-04  0.4086E+06
   -1.800010   31.21209  0.1156E-12  0.1032E-04  0.1795E-06  0.5028E-03  0.1877E-04  0.5401E+06
   -1.850009   31.21899  0.1156E-12  0.8736E-05  0.2916E-06  0.4639E-03  0.1326E-04  0.9353E+08
   -1.900006   31.21737  0.1156E-12  0.6909E-05  0.6129E-06  0.2117E-03  0.1083E-04 -0.5984E+06
   -1.950004   31.23823  0.1156E-12  0.4886E-05  0.1507E-05  0.1985E-03  0.5789E-05 -0.3122E+07
   -2.000001   31.23933  0.1156E-12  0.0000E+00  0.0000E+00  0.0000E+00  0.1094E-04  0.0000E+00
