 1 - depth, m
 2 - temperature, C
 3 - salinity, kg/kg
 4 - turbulent kinetic energy, m**2/s**2
 5 - dissipation rate, m**2/s**3
 6 - kinematic heat conductance, m**2/s
 7 - modulus of horizontal velocity, m/s
 8 - Richardson number, n/d
   -0.000000   30.51250  0.2447E-14  0.4835E-05  0.3012E-06  0.4950E-04  0.8000E-03  0.3238E+05
   -0.049997   30.54408  0.2447E-14  0.8466E-05  0.1337E-06  0.1851E-03  0.4513E-03  0.1789E+03
   -0.099994   30.55540  0.2447E-14  0.1025E-04  0.9267E-07  0.4129E-03  0.3324E-03  0.1054E+03
   -0.149992   30.55858  0.2447E-14  0.1137E-04  0.7814E-07  0.4930E-03  0.2943E-03  0.5197E+02
   -0.199991   30.56113  0.2447E-14  0.1224E-04  0.6958E-07  0.6582E-03  0.2632E-03  0.3390E+02
   -0.249989   30.56299  0.2447E-14  0.1294E-04  0.6396E-07  0.7852E-03  0.2400E-03  0.2517E+02
   -0.299988   30.56450  0.2447E-14  0.1351E-04  0.5995E-07  0.9121E-03  0.2206E-03  0.2018E+02
   -0.349988   30.56578  0.2447E-14  0.1399E-04  0.5695E-07  0.1027E-02  0.2040E-03  0.1725E+02
   -0.399988   30.56688  0.2447E-14  0.1439E-04  0.5462E-07  0.1132E-02  0.1893E-03  0.1545E+02
   -0.449988   30.56787  0.2447E-14  0.1473E-04  0.5273E-07  0.1229E-02  0.1763E-03  0.1445E+02
   -0.499988   30.56876  0.2447E-14  0.1503E-04  0.5117E-07  0.1319E-02  0.1648E-03  0.1412E+02
   -0.549989   30.56957  0.2447E-14  0.1529E-04  0.4987E-07  0.1400E-02  0.1546E-03  0.1387E+02
   -0.599989   30.57032  0.2447E-14  0.1552E-04  0.4878E-07  0.1475E-02  0.1452E-03  0.1394E+02
   -0.649990   30.57103  0.2447E-14  0.1572E-04  0.4787E-07  0.1541E-02  0.1368E-03  0.1405E+02
   -0.699992   30.57169  0.2447E-14  0.1588E-04  0.4711E-07  0.1600E-02  0.1289E-03  0.1445E+02
   -0.749993   30.57233  0.2447E-14  0.1602E-04  0.4647E-07  0.1651E-02  0.1217E-03  0.1485E+02
   -0.799994   30.57293  0.2447E-14  0.1614E-04  0.4596E-07  0.1694E-02  0.1150E-03  0.1557E+02
   -0.849996   30.57352  0.2447E-14  0.1623E-04  0.4556E-07  0.1729E-02  0.1087E-03  0.1630E+02
   -0.899998   30.57409  0.2447E-14  0.1630E-04  0.4526E-07  0.1756E-02  0.1027E-03  0.1740E+02
   -0.949999   30.57464  0.2447E-14  0.1635E-04  0.4506E-07  0.1775E-02  0.9718E-04  0.1855E+02
   -1.000001   30.57519  0.2447E-14  0.1638E-04  0.4497E-07  0.1786E-02  0.9188E-04  0.2018E+02
   -1.050003   30.57573  0.2447E-14  0.1638E-04  0.4499E-07  0.1786E-02  0.8688E-04  0.2278E+02
   -1.100004   30.57626  0.2447E-14  0.1637E-04  0.4513E-07  0.1877E-02  0.8208E-04  0.7557E+02
   -1.150006   30.57677  0.2447E-14  0.1633E-04  0.4541E-07  0.1697E-02  0.7781E-04  0.1741E+03
   -1.200008   30.57732  0.2447E-14  0.1626E-04  0.4582E-07  0.1725E-02  0.7335E-04  0.3320E+02
   -1.250009   30.57787  0.2447E-14  0.1617E-04  0.4642E-07  0.1694E-02  0.6909E-04  0.3568E+02
   -1.300010   30.57842  0.2447E-14  0.1605E-04  0.4723E-07  0.1643E-02  0.6500E-04  0.4175E+02
   -1.350012   30.57900  0.2447E-14  0.1590E-04  0.4833E-07  0.1583E-02  0.6101E-04  0.5042E+02
   -1.400013   30.57959  0.2447E-14  0.1571E-04  0.4979E-07  0.1505E-02  0.5714E-04  0.6245E+02
   -1.450013   30.58021  0.2447E-14  0.1547E-04  0.5177E-07  0.1425E-02  0.5332E-04  0.8045E+02
   -1.500014   30.58087  0.2447E-14  0.1518E-04  0.5450E-07  0.1312E-02  0.4957E-04  0.1102E+03
   -1.550014   30.58160  0.2447E-14  0.1483E-04  0.5834E-07  0.1227E-02  0.4580E-04  0.1596E+03
   -1.600014   30.58239  0.2447E-14  0.1438E-04  0.6418E-07  0.1081E-02  0.4210E-04  0.3215E+03
   -1.650014   30.58335  0.2447E-14  0.1381E-04  0.7322E-07  0.1001E-02  0.3814E-04 -0.3594E+04
   -1.700014   30.58445  0.2447E-14  0.1302E-04  0.8919E-07  0.8179E-03  0.3425E-04 -0.7113E+04
   -1.750013   30.58634  0.2447E-14  0.1198E-04  0.1155E-06  0.7395E-03  0.2922E-04  0.9816E+05
   -1.800011   30.58803  0.2447E-14  0.1056E-04  0.1715E-06  0.5208E-03  0.2507E-04  0.5348E+05
   -1.850010   30.59445  0.2447E-14  0.8988E-05  0.2753E-06  0.4784E-03  0.1818E-04  0.6965E+09
   -1.900008   30.59342  0.2447E-14  0.7145E-05  0.5770E-06  0.2181E-03  0.1470E-04 -0.4630E+06
   -1.950005   30.61374  0.2447E-14  0.5021E-05  0.1448E-05  0.1904E-03  0.8021E-05 -0.7563E+07
   -2.000002   30.61622  0.2447E-14  0.0000E+00  0.0000E+00  0.0000E+00  0.1439E-04  0.0000E+00
