 1 - depth, m
 2 - temperature, C
 3 - salinity, kg/kg
 4 - turbulent kinetic energy, m**2/s**2
 5 - dissipation rate, m**2/s**3
 6 - kinematic heat conductance, m**2/s
 7 - modulus of horizontal velocity, m/s
 8 - Richardson number, n/d
   -0.000000   29.76860  0.3222E-14  0.5196E-05  0.2963E-06  0.5082E-04  0.3061E-02  0.8636E+03
   -0.049997   29.79945  0.3222E-14  0.8491E-05  0.1294E-06  0.1974E-03  0.1652E-02  0.2033E+02
   -0.099994   29.80906  0.3222E-14  0.1003E-04  0.9160E-07  0.3840E-03  0.1283E-02  0.5432E+01
   -0.149992   29.81243  0.3222E-14  0.1104E-04  0.7706E-07  0.4798E-03  0.1139E-02  0.2797E+01
   -0.199991   29.81501  0.3222E-14  0.1183E-04  0.6852E-07  0.6214E-03  0.1026E-02  0.1842E+01
   -0.249989   29.81695  0.3222E-14  0.1246E-04  0.6291E-07  0.7354E-03  0.9389E-03  0.1399E+01
   -0.299989   29.81854  0.3222E-14  0.1299E-04  0.5886E-07  0.8393E-03  0.8658E-03  0.1232E+01
   -0.349988   29.81989  0.3222E-14  0.1345E-04  0.5566E-07  0.9484E-03  0.8000E-03  0.1275E+01
   -0.399988   29.82106  0.3222E-14  0.1387E-04  0.5298E-07  0.1069E-02  0.7361E-03  0.1299E+01
   -0.449988   29.82207  0.3222E-14  0.1425E-04  0.5070E-07  0.1187E-02  0.6768E-03  0.1311E+01
   -0.499988   29.82296  0.3222E-14  0.1459E-04  0.4878E-07  0.1298E-02  0.6231E-03  0.1319E+01
   -0.549989   29.82376  0.3222E-14  0.1488E-04  0.4717E-07  0.1399E-02  0.5748E-03  0.1317E+01
   -0.599990   29.82449  0.3222E-14  0.1512E-04  0.4581E-07  0.1491E-02  0.5312E-03  0.1311E+01
   -0.649991   29.82516  0.3222E-14  0.1532E-04  0.4467E-07  0.1572E-02  0.4920E-03  0.1299E+01
   -0.699992   29.82578  0.3222E-14  0.1548E-04  0.4372E-07  0.1642E-02  0.4566E-03  0.1283E+01
   -0.749993   29.82637  0.3222E-14  0.1560E-04  0.4294E-07  0.1699E-02  0.4246E-03  0.1264E+01
   -0.799995   29.82693  0.3222E-14  0.1568E-04  0.4230E-07  0.1745E-02  0.3958E-03  0.1240E+01
   -0.849996   29.82746  0.3222E-14  0.1574E-04  0.4180E-07  0.1779E-02  0.3698E-03  0.1213E+01
   -0.899998   29.82798  0.3222E-14  0.1577E-04  0.4142E-07  0.1801E-02  0.3464E-03  0.1183E+01
   -0.950000   29.82848  0.3222E-14  0.1577E-04  0.4115E-07  0.1812E-02  0.3252E-03  0.1157E+01
   -1.000002   29.82898  0.3222E-14  0.1575E-04  0.4099E-07  0.1815E-02  0.3062E-03  0.1154E+01
   -1.050003   29.82947  0.3222E-14  0.1571E-04  0.4093E-07  0.1806E-02  0.2888E-03  0.1221E+01
   -1.100005   29.82995  0.3222E-14  0.1565E-04  0.4098E-07  0.1926E-02  0.2727E-03  0.3811E+01
   -1.150007   29.83039  0.3222E-14  0.1556E-04  0.4115E-07  0.1668E-02  0.2589E-03  0.9394E+01
   -1.200008   29.83091  0.3222E-14  0.1545E-04  0.4144E-07  0.1725E-02  0.2438E-03  0.1730E+01
   -1.250010   29.83139  0.3222E-14  0.1532E-04  0.4190E-07  0.1691E-02  0.2297E-03  0.1830E+01
   -1.300011   29.83188  0.3222E-14  0.1516E-04  0.4255E-07  0.1634E-02  0.2161E-03  0.2145E+01
   -1.350012   29.83239  0.3222E-14  0.1496E-04  0.4346E-07  0.1568E-02  0.2028E-03  0.2578E+01
   -1.400013   29.83291  0.3222E-14  0.1473E-04  0.4473E-07  0.1484E-02  0.1899E-03  0.3206E+01
   -1.450014   29.83345  0.3222E-14  0.1446E-04  0.4648E-07  0.1401E-02  0.1771E-03  0.4125E+01
   -1.500015   29.83403  0.3222E-14  0.1413E-04  0.4895E-07  0.1282E-02  0.1645E-03  0.5696E+01
   -1.550015   29.83466  0.3222E-14  0.1374E-04  0.5252E-07  0.1198E-02  0.1518E-03  0.8340E+01
   -1.600015   29.83534  0.3222E-14  0.1326E-04  0.5815E-07  0.1051E-02  0.1394E-03  0.3515E+02
   -1.650015   29.83620  0.3222E-14  0.1264E-04  0.6712E-07  0.9694E-03  0.1258E-03  0.2916E+04
   -1.700015   29.83719  0.3222E-14  0.1178E-04  0.8305E-07  0.7861E-03  0.1121E-03  0.1605E+04
   -1.750014   29.83898  0.3222E-14  0.1069E-04  0.1088E-06  0.7060E-03  0.9386E-04  0.1102E+06
   -1.800012   29.84031  0.3222E-14  0.9264E-05  0.1644E-06  0.4833E-03  0.8038E-04  0.1944E+05
   -1.850011   29.84671  0.3222E-14  0.7764E-05  0.2690E-06  0.4505E-03  0.5572E-04  0.4077E+07
   -1.900009   29.84452  0.3222E-14  0.6102E-05  0.5649E-06  0.2063E-03  0.4581E-04 -0.7528E+06
   -1.950006   29.86241  0.3222E-14  0.4276E-05  0.1384E-05  0.1997E-03  0.2386E-04 -0.1662E+06
   -2.000003   29.86246  0.3222E-14  0.0000E+00  0.0000E+00  0.0000E+00  0.4775E-04  0.0000E+00
