 1 - depth, m
 2 - temperature, C
 3 - salinity, kg/kg
 4 - turbulent kinetic energy, m**2/s**2
 5 - dissipation rate, m**2/s**3
 6 - kinematic heat conductance, m**2/s
 7 - modulus of horizontal velocity, m/s
 8 - Richardson number, n/d
   -0.000000   29.97189  0.1136E-12  0.4509E-05  0.2670E-06  0.4865E-04  0.1834E-02  0.4495E+04
   -0.049997   29.99997  0.1136E-12  0.7659E-05  0.1190E-06  0.1698E-03  0.1046E-02  0.9648E+02
   -0.099994   30.01077  0.1136E-12  0.9276E-05  0.8164E-07  0.3843E-03  0.7631E-03  0.1392E+02
   -0.149992   30.01378  0.1136E-12  0.1028E-04  0.6850E-07  0.4635E-03  0.6729E-03  0.6727E+01
   -0.199991   30.01617  0.1136E-12  0.1107E-04  0.6078E-07  0.6172E-03  0.5999E-03  0.4322E+01
   -0.249989   30.01792  0.1136E-12  0.1169E-04  0.5571E-07  0.7383E-03  0.5452E-03  0.3181E+01
   -0.299989   30.01933  0.1136E-12  0.1220E-04  0.5209E-07  0.8581E-03  0.4997E-03  0.2528E+01
   -0.349988   30.02052  0.1136E-12  0.1262E-04  0.4938E-07  0.9670E-03  0.4607E-03  0.2159E+01
   -0.399988   30.02154  0.1136E-12  0.1297E-04  0.4726E-07  0.1067E-02  0.4262E-03  0.1923E+01
   -0.449988   30.02246  0.1136E-12  0.1328E-04  0.4553E-07  0.1160E-02  0.3959E-03  0.1804E+01
   -0.499988   30.02328  0.1136E-12  0.1355E-04  0.4410E-07  0.1245E-02  0.3691E-03  0.1755E+01
   -0.549989   30.02402  0.1136E-12  0.1377E-04  0.4291E-07  0.1324E-02  0.3452E-03  0.1731E+01
   -0.599990   30.02472  0.1136E-12  0.1397E-04  0.4190E-07  0.1395E-02  0.3236E-03  0.1732E+01
   -0.649991   30.02536  0.1136E-12  0.1414E-04  0.4105E-07  0.1459E-02  0.3039E-03  0.1754E+01
   -0.699992   30.02597  0.1136E-12  0.1429E-04  0.4032E-07  0.1516E-02  0.2858E-03  0.1794E+01
   -0.749993   30.02654  0.1136E-12  0.1441E-04  0.3972E-07  0.1566E-02  0.2691E-03  0.1853E+01
   -0.799995   30.02710  0.1136E-12  0.1451E-04  0.3921E-07  0.1609E-02  0.2536E-03  0.1931E+01
   -0.849996   30.02762  0.1136E-12  0.1459E-04  0.3880E-07  0.1644E-02  0.2392E-03  0.2030E+01
   -0.899998   30.02814  0.1136E-12  0.1465E-04  0.3849E-07  0.1672E-02  0.2256E-03  0.2152E+01
   -0.950000   30.02864  0.1136E-12  0.1469E-04  0.3825E-07  0.1692E-02  0.2129E-03  0.2303E+01
   -1.000001   30.02912  0.1136E-12  0.1471E-04  0.3811E-07  0.1704E-02  0.2008E-03  0.2484E+01
   -1.050003   30.02961  0.1136E-12  0.1472E-04  0.3806E-07  0.1708E-02  0.1894E-03  0.2818E+01
   -1.100005   30.03008  0.1136E-12  0.1470E-04  0.3810E-07  0.1781E-02  0.1786E-03  0.9469E+01
   -1.150007   30.03053  0.1136E-12  0.1467E-04  0.3826E-07  0.1648E-02  0.1689E-03  0.2059E+02
   -1.200008   30.03102  0.1136E-12  0.1461E-04  0.3852E-07  0.1662E-02  0.1589E-03  0.4028E+01
   -1.250010   30.03150  0.1136E-12  0.1453E-04  0.3893E-07  0.1634E-02  0.1494E-03  0.4287E+01
   -1.300011   30.03199  0.1136E-12  0.1443E-04  0.3951E-07  0.1590E-02  0.1402E-03  0.4994E+01
   -1.350012   30.03248  0.1136E-12  0.1430E-04  0.4030E-07  0.1536E-02  0.1314E-03  0.5933E+01
   -1.400013   30.03300  0.1136E-12  0.1414E-04  0.4136E-07  0.1467E-02  0.1227E-03  0.7256E+01
   -1.450014   30.03353  0.1136E-12  0.1394E-04  0.4281E-07  0.1393E-02  0.1143E-03  0.9127E+01
   -1.500015   30.03410  0.1136E-12  0.1370E-04  0.4478E-07  0.1291E-02  0.1060E-03  0.1211E+02
   -1.550015   30.03471  0.1136E-12  0.1341E-04  0.4755E-07  0.1207E-02  0.9781E-04  0.1680E+02
   -1.600015   30.03537  0.1136E-12  0.1305E-04  0.5168E-07  0.1071E-02  0.8974E-04  0.2763E+02
   -1.650015   30.03614  0.1136E-12  0.1259E-04  0.5798E-07  0.9909E-03  0.8129E-04  0.6225E+02
   -1.700014   30.03701  0.1136E-12  0.1196E-04  0.6927E-07  0.8166E-03  0.7306E-04  0.2122E+03
   -1.750013   30.03844  0.1136E-12  0.1110E-04  0.8810E-07  0.7327E-03  0.6253E-04  0.5279E+06
   -1.800012   30.03985  0.1136E-12  0.9904E-05  0.1258E-06  0.5210E-03  0.5361E-04  0.3452E+05
   -1.850010   30.04423  0.1136E-12  0.8503E-05  0.1971E-06  0.4703E-03  0.3946E-04  0.6426E+07
   -1.900008   30.04423  0.1136E-12  0.6766E-05  0.4109E-06  0.2111E-03  0.3188E-04  0.2268E+06
   -1.950006   30.06009  0.1136E-12  0.4653E-05  0.1057E-05  0.1686E-03  0.1750E-04 -0.2050E+06
   -2.000003   30.06317  0.1136E-12  0.0000E+00  0.0000E+00  0.0000E+00  0.3016E-04  0.0000E+00
