 1 - depth, m
 2 - temperature, C
 3 - salinity, kg/kg
 4 - turbulent kinetic energy, m**2/s**2
 5 - dissipation rate, m**2/s**3
 6 - kinematic heat conductance, m**2/s
 7 - modulus of horizontal velocity, m/s
 8 - Richardson number, n/d
   -0.000000   30.30950  0.2215E-14  0.4886E-05  0.3090E-06  0.5114E-04  0.1252E-02  0.8268E+04
   -0.049997   30.34040  0.2215E-14  0.8421E-05  0.1375E-06  0.1783E-03  0.7161E-03  0.1530E+03
   -0.099994   30.35258  0.2215E-14  0.1024E-04  0.9449E-07  0.4065E-03  0.5228E-03  0.3692E+02
   -0.149992   30.35586  0.2215E-14  0.1137E-04  0.7938E-07  0.4850E-03  0.4621E-03  0.1813E+02
   -0.199991   30.35850  0.2215E-14  0.1225E-04  0.7054E-07  0.6500E-03  0.4127E-03  0.1168E+02
   -0.249989   30.36042  0.2215E-14  0.1295E-04  0.6475E-07  0.7764E-03  0.3758E-03  0.8685E+01
   -0.299988   30.36197  0.2215E-14  0.1352E-04  0.6063E-07  0.9030E-03  0.3452E-03  0.6911E+01
   -0.349988   30.36328  0.2215E-14  0.1400E-04  0.5756E-07  0.1017E-02  0.3188E-03  0.5951E+01
   -0.399988   30.36442  0.2215E-14  0.1440E-04  0.5516E-07  0.1122E-02  0.2957E-03  0.5290E+01
   -0.449988   30.36542  0.2215E-14  0.1474E-04  0.5322E-07  0.1219E-02  0.2752E-03  0.5000E+01
   -0.499988   30.36633  0.2215E-14  0.1504E-04  0.5162E-07  0.1308E-02  0.2571E-03  0.4844E+01
   -0.549989   30.36717  0.2215E-14  0.1530E-04  0.5029E-07  0.1389E-02  0.2409E-03  0.4814E+01
   -0.599989   30.36794  0.2215E-14  0.1552E-04  0.4917E-07  0.1463E-02  0.2263E-03  0.4794E+01
   -0.649990   30.36866  0.2215E-14  0.1571E-04  0.4823E-07  0.1528E-02  0.2129E-03  0.4893E+01
   -0.699992   30.36934  0.2215E-14  0.1587E-04  0.4744E-07  0.1586E-02  0.2006E-03  0.4978E+01
   -0.749993   30.36999  0.2215E-14  0.1601E-04  0.4678E-07  0.1636E-02  0.1892E-03  0.5186E+01
   -0.799994   30.37060  0.2215E-14  0.1612E-04  0.4624E-07  0.1679E-02  0.1787E-03  0.5376E+01
   -0.849996   30.37120  0.2215E-14  0.1620E-04  0.4582E-07  0.1713E-02  0.1688E-03  0.5704E+01
   -0.899998   30.37178  0.2215E-14  0.1627E-04  0.4550E-07  0.1739E-02  0.1595E-03  0.6018E+01
   -0.949999   30.37235  0.2215E-14  0.1631E-04  0.4528E-07  0.1756E-02  0.1507E-03  0.6502E+01
   -1.000001   30.37290  0.2215E-14  0.1632E-04  0.4518E-07  0.1765E-02  0.1425E-03  0.6990E+01
   -1.050003   30.37345  0.2215E-14  0.1632E-04  0.4518E-07  0.1764E-02  0.1346E-03  0.7992E+01
   -1.100004   30.37400  0.2215E-14  0.1629E-04  0.4531E-07  0.1860E-02  0.1271E-03  0.2607E+02
   -1.150006   30.37451  0.2215E-14  0.1624E-04  0.4558E-07  0.1664E-02  0.1204E-03  0.6137E+02
   -1.200008   30.37508  0.2215E-14  0.1616E-04  0.4599E-07  0.1697E-02  0.1134E-03  0.1171E+02
   -1.250009   30.37564  0.2215E-14  0.1606E-04  0.4659E-07  0.1665E-02  0.1068E-03  0.1245E+02
   -1.300010   30.37621  0.2215E-14  0.1592E-04  0.4743E-07  0.1612E-02  0.1004E-03  0.1475E+02
   -1.350012   30.37679  0.2215E-14  0.1575E-04  0.4855E-07  0.1550E-02  0.9414E-04  0.1770E+02
   -1.400013   30.37740  0.2215E-14  0.1554E-04  0.5008E-07  0.1468E-02  0.8805E-04  0.2221E+02
   -1.450013   30.37804  0.2215E-14  0.1529E-04  0.5215E-07  0.1388E-02  0.8207E-04  0.2855E+02
   -1.500014   30.37872  0.2215E-14  0.1497E-04  0.5505E-07  0.1272E-02  0.7618E-04  0.3970E+02
   -1.550014   30.37947  0.2215E-14  0.1459E-04  0.5919E-07  0.1190E-02  0.7025E-04  0.5804E+02
   -1.600014   30.38028  0.2215E-14  0.1410E-04  0.6564E-07  0.1042E-02  0.6442E-04  0.1327E+03
   -1.650014   30.38131  0.2215E-14  0.1347E-04  0.7578E-07  0.9654E-03  0.5807E-04 -0.5099E+03
   -1.700014   30.38249  0.2215E-14  0.1260E-04  0.9377E-07  0.7794E-03  0.5176E-04  0.3657E+05
   -1.750013   30.38463  0.2215E-14  0.1147E-04  0.1230E-06  0.7088E-03  0.4333E-04  0.2956E+06
   -1.800011   30.38627  0.2215E-14  0.9997E-05  0.1857E-06  0.4862E-03  0.3706E-04  0.7101E+05
   -1.850010   30.39388  0.2215E-14  0.8420E-05  0.3044E-06  0.4536E-03  0.2578E-04  0.8527E+08
   -1.900008   30.39169  0.2215E-14  0.6659E-05  0.6443E-06  0.2063E-03  0.2102E-04 -0.5243E+07
   -1.950005   30.41398  0.2215E-14  0.4721E-05  0.1577E-05  0.2030E-03  0.1098E-04 -0.2806E+06
   -2.000002   30.41503  0.2215E-14  0.0000E+00  0.0000E+00  0.0000E+00  0.2167E-04  0.0000E+00
