 1 - depth, m
 2 - temperature, C
 3 - salinity, kg/kg
 4 - turbulent kinetic energy, m**2/s**2
 5 - dissipation rate, m**2/s**3
 6 - kinematic heat conductance, m**2/s
 7 - modulus of horizontal velocity, m/s
 8 - Richardson number, n/d
   -0.000000   29.72184  0.3398E-14  0.4344E-05  0.2548E-06  0.4809E-04  0.1432E-02  0.1042E+05
   -0.049997   29.74879  0.3398E-14  0.7502E-05  0.1135E-06  0.1704E-03  0.8128E-03  0.9280E+03
   -0.099994   29.75919  0.3398E-14  0.9110E-05  0.7824E-07  0.3878E-03  0.5916E-03  0.2154E+02
   -0.149992   29.76205  0.3398E-14  0.1012E-04  0.6585E-07  0.4668E-03  0.5219E-03  0.1047E+02
   -0.199991   29.76434  0.3398E-14  0.1090E-04  0.5860E-07  0.6219E-03  0.4655E-03  0.6760E+01
   -0.249989   29.76601  0.3398E-14  0.1153E-04  0.5384E-07  0.7437E-03  0.4232E-03  0.4999E+01
   -0.299989   29.76737  0.3398E-14  0.1204E-04  0.5046E-07  0.8641E-03  0.3880E-03  0.3989E+01
   -0.349988   29.76852  0.3398E-14  0.1247E-04  0.4794E-07  0.9736E-03  0.3578E-03  0.3421E+01
   -0.399988   29.76952  0.3398E-14  0.1284E-04  0.4598E-07  0.1074E-02  0.3312E-03  0.3055E+01
   -0.449988   29.77040  0.3398E-14  0.1315E-04  0.4439E-07  0.1167E-02  0.3077E-03  0.2875E+01
   -0.499988   29.77120  0.3399E-14  0.1343E-04  0.4309E-07  0.1253E-02  0.2870E-03  0.2803E+01
   -0.549989   29.77194  0.3399E-14  0.1367E-04  0.4200E-07  0.1332E-02  0.2685E-03  0.2772E+01
   -0.599990   29.77262  0.3399E-14  0.1388E-04  0.4109E-07  0.1403E-02  0.2517E-03  0.2780E+01
   -0.649991   29.77325  0.3399E-14  0.1406E-04  0.4033E-07  0.1467E-02  0.2365E-03  0.2823E+01
   -0.699992   29.77385  0.3399E-14  0.1422E-04  0.3970E-07  0.1524E-02  0.2225E-03  0.2893E+01
   -0.749993   29.77443  0.3399E-14  0.1435E-04  0.3918E-07  0.1574E-02  0.2095E-03  0.2998E+01
   -0.799995   29.77497  0.3399E-14  0.1446E-04  0.3875E-07  0.1617E-02  0.1975E-03  0.3130E+01
   -0.849996   29.77550  0.3399E-14  0.1455E-04  0.3842E-07  0.1652E-02  0.1863E-03  0.3302E+01
   -0.899998   29.77601  0.3399E-14  0.1463E-04  0.3818E-07  0.1679E-02  0.1758E-03  0.3507E+01
   -0.950000   29.77651  0.3399E-14  0.1468E-04  0.3802E-07  0.1699E-02  0.1659E-03  0.3767E+01
   -1.000002   29.77701  0.3399E-14  0.1471E-04  0.3794E-07  0.1711E-02  0.1565E-03  0.4070E+01
   -1.050003   29.77749  0.3399E-14  0.1473E-04  0.3796E-07  0.1714E-02  0.1477E-03  0.4634E+01
   -1.100005   29.77797  0.3399E-14  0.1472E-04  0.3807E-07  0.1788E-02  0.1392E-03  0.1556E+02
   -1.150007   29.77843  0.3399E-14  0.1470E-04  0.3829E-07  0.1650E-02  0.1317E-03  0.3397E+02
   -1.200008   29.77893  0.3399E-14  0.1465E-04  0.3862E-07  0.1666E-02  0.1240E-03  0.6665E+01
   -1.250010   29.77942  0.3399E-14  0.1459E-04  0.3910E-07  0.1637E-02  0.1165E-03  0.7126E+01
   -1.300011   29.77992  0.3399E-14  0.1449E-04  0.3975E-07  0.1592E-02  0.1094E-03  0.8326E+01
   -1.350012   29.78043  0.3399E-14  0.1437E-04  0.4062E-07  0.1537E-02  0.1025E-03  0.9927E+01
   -1.400013   29.78096  0.3399E-14  0.1422E-04  0.4177E-07  0.1467E-02  0.9576E-04  0.1217E+02
   -1.450014   29.78152  0.3399E-14  0.1403E-04  0.4329E-07  0.1391E-02  0.8919E-04  0.1538E+02
   -1.500015   29.78210  0.3399E-14  0.1380E-04  0.4537E-07  0.1289E-02  0.8275E-04  0.2046E+02
   -1.550015   29.78274  0.3399E-14  0.1351E-04  0.4824E-07  0.1201E-02  0.7633E-04  0.2848E+02
   -1.600015   29.78344  0.3399E-14  0.1315E-04  0.5245E-07  0.1064E-02  0.7001E-04  0.4521E+02
   -1.650015   29.78424  0.3399E-14  0.1269E-04  0.5881E-07  0.9816E-03  0.6346E-04  0.3749E+03
   -1.700015   29.78515  0.3399E-14  0.1207E-04  0.7019E-07  0.8089E-03  0.5704E-04  0.6608E+03
   -1.750014   29.78662  0.3399E-14  0.1121E-04  0.8913E-07  0.7261E-03  0.4895E-04  0.2713E+05
   -1.800012   29.78812  0.3399E-14  0.9984E-05  0.1285E-06  0.5126E-03  0.4197E-04  0.4204E+06
   -1.850011   29.79289  0.3399E-14  0.8511E-05  0.2014E-06  0.4601E-03  0.3080E-04  0.2138E+07
   -1.900009   29.79300  0.3399E-14  0.6707E-05  0.4161E-06  0.2069E-03  0.2463E-04  0.1930E+06
   -1.950006   29.81000  0.3399E-14  0.4626E-05  0.1072E-05  0.1698E-03  0.1336E-04 -0.5511E+06
   -2.000003   29.81246  0.3399E-14  0.0000E+00  0.0000E+00  0.0000E+00  0.2324E-04  0.0000E+00
