 1 - depth, m
 2 - temperature, C
 3 - salinity, kg/kg
 4 - turbulent kinetic energy, m**2/s**2
 5 - dissipation rate, m**2/s**3
 6 - kinematic heat conductance, m**2/s
 7 - modulus of horizontal velocity, m/s
 8 - Richardson number, n/d
   -0.000000   30.52297  0.3624E-13  0.4526E-05  0.2736E-06  0.4843E-04  0.5903E-03  0.6873E+05
   -0.049997   30.55188  0.3625E-13  0.8003E-05  0.1211E-06  0.1789E-03  0.3323E-03  0.6140E+02
   -0.099994   30.56255  0.3625E-13  0.9702E-05  0.8385E-07  0.4113E-03  0.2413E-03  0.1242E+03
   -0.149992   30.56543  0.3625E-13  0.1076E-04  0.7092E-07  0.4865E-03  0.2137E-03  0.6086E+02
   -0.199991   30.56777  0.3625E-13  0.1159E-04  0.6329E-07  0.6492E-03  0.1910E-03  0.3979E+02
   -0.249989   30.56947  0.3625E-13  0.1225E-04  0.5827E-07  0.7744E-03  0.1740E-03  0.2966E+02
   -0.299988   30.57086  0.3625E-13  0.1280E-04  0.5469E-07  0.8986E-03  0.1599E-03  0.2378E+02
   -0.349988   30.57204  0.3625E-13  0.1325E-04  0.5202E-07  0.1011E-02  0.1477E-03  0.2045E+02
   -0.399988   30.57306  0.3625E-13  0.1364E-04  0.4994E-07  0.1115E-02  0.1369E-03  0.1827E+02
   -0.449988   30.57397  0.3625E-13  0.1397E-04  0.4827E-07  0.1210E-02  0.1274E-03  0.1720E+02
   -0.499988   30.57479  0.3625E-13  0.1427E-04  0.4689E-07  0.1299E-02  0.1190E-03  0.1674E+02
   -0.549989   30.57554  0.3625E-13  0.1453E-04  0.4575E-07  0.1379E-02  0.1115E-03  0.1656E+02
   -0.599989   30.57624  0.3625E-13  0.1475E-04  0.4480E-07  0.1453E-02  0.1047E-03  0.1658E+02
   -0.649990   30.57689  0.3625E-13  0.1495E-04  0.4401E-07  0.1519E-02  0.9846E-04  0.1683E+02
   -0.699992   30.57751  0.3625E-13  0.1512E-04  0.4335E-07  0.1577E-02  0.9276E-04  0.1724E+02
   -0.749993   30.57810  0.3625E-13  0.1526E-04  0.4282E-07  0.1628E-02  0.8747E-04  0.1786E+02
   -0.799995   30.57867  0.3625E-13  0.1539E-04  0.4240E-07  0.1671E-02  0.8257E-04  0.1864E+02
   -0.849996   30.57921  0.3625E-13  0.1549E-04  0.4208E-07  0.1707E-02  0.7798E-04  0.1967E+02
   -0.899998   30.57974  0.3625E-13  0.1557E-04  0.4185E-07  0.1734E-02  0.7367E-04  0.2090E+02
   -0.949999   30.58026  0.3625E-13  0.1563E-04  0.4172E-07  0.1754E-02  0.6961E-04  0.2245E+02
   -1.000001   30.58077  0.3625E-13  0.1568E-04  0.4169E-07  0.1766E-02  0.6578E-04  0.2429E+02
   -1.050003   30.58128  0.3625E-13  0.1570E-04  0.4176E-07  0.1768E-02  0.6213E-04  0.2766E+02
   -1.100005   30.58178  0.3625E-13  0.1570E-04  0.4193E-07  0.1848E-02  0.5866E-04  0.9267E+02
   -1.150006   30.58226  0.3625E-13  0.1568E-04  0.4224E-07  0.1696E-02  0.5555E-04  0.2042E+03
   -1.200008   30.58278  0.3625E-13  0.1564E-04  0.4266E-07  0.1715E-02  0.5234E-04  0.3998E+02
   -1.250009   30.58330  0.3625E-13  0.1557E-04  0.4326E-07  0.1685E-02  0.4927E-04  0.4287E+02
   -1.300011   30.58383  0.3625E-13  0.1548E-04  0.4405E-07  0.1638E-02  0.4631E-04  0.5023E+02
   -1.350012   30.58437  0.3625E-13  0.1535E-04  0.4509E-07  0.1580E-02  0.4344E-04  0.6010E+02
   -1.400013   30.58493  0.3625E-13  0.1520E-04  0.4645E-07  0.1506E-02  0.4065E-04  0.7410E+02
   -1.450014   30.58553  0.3625E-13  0.1500E-04  0.4827E-07  0.1430E-02  0.3791E-04  0.9411E+02
   -1.500014   30.58616  0.3625E-13  0.1475E-04  0.5072E-07  0.1321E-02  0.3522E-04  0.1270E+03
   -1.550015   30.58685  0.3625E-13  0.1445E-04  0.5413E-07  0.1236E-02  0.3252E-04  0.1793E+03
   -1.600015   30.58759  0.3625E-13  0.1406E-04  0.5923E-07  0.1090E-02  0.2989E-04  0.3345E+03
   -1.650014   30.58850  0.3625E-13  0.1356E-04  0.6689E-07  0.1010E-02  0.2706E-04  0.2875E+04
   -1.700014   30.58949  0.3625E-13  0.1288E-04  0.8040E-07  0.8261E-03  0.2437E-04 -0.1602E+05
   -1.750013   30.59123  0.3625E-13  0.1196E-04  0.1028E-06  0.7474E-03  0.2083E-04  0.1609E+06
   -1.800012   30.59273  0.3625E-13  0.1069E-04  0.1496E-06  0.5258E-03  0.1798E-04  0.2572E+06
   -1.850010   30.59844  0.3625E-13  0.9188E-05  0.2377E-06  0.4797E-03  0.1322E-04  0.8586E+08
   -1.900008   30.59802  0.3625E-13  0.7302E-05  0.4916E-06  0.2099E-03  0.1071E-04  0.1772E+06
   -1.950005   30.61705  0.3625E-13  0.5074E-05  0.1244E-05  0.1784E-03  0.5885E-05 -0.1500E+08
   -2.000002   30.62035  0.3625E-13  0.0000E+00  0.0000E+00  0.0000E+00  0.1009E-04  0.0000E+00
