 1 - depth, m
 2 - temperature, C
 3 - salinity, kg/kg
 4 - turbulent kinetic energy, m**2/s**2
 5 - dissipation rate, m**2/s**3
 6 - kinematic heat conductance, m**2/s
 7 - modulus of horizontal velocity, m/s
 8 - Richardson number, n/d
   -0.000000   30.67616  0.1715E-14  0.5333E-05  0.3254E-06  0.5242E-04  0.2573E-02  0.1519E+04
   -0.049997   30.70788  0.1715E-14  0.8868E-05  0.1433E-06  0.1950E-03  0.1408E-02  0.1739E+02
   -0.099994   30.71847  0.1715E-14  0.1059E-04  0.1003E-06  0.3968E-03  0.1076E-02  0.7290E+01
   -0.149992   30.72194  0.1715E-14  0.1171E-04  0.8404E-07  0.4917E-03  0.9511E-03  0.3721E+01
   -0.199991   30.72461  0.1715E-14  0.1258E-04  0.7452E-07  0.6473E-03  0.8528E-03  0.2406E+01
   -0.249989   30.72658  0.1715E-14  0.1328E-04  0.6829E-07  0.7737E-03  0.7783E-03  0.1782E+01
   -0.299988   30.72818  0.1715E-14  0.1385E-04  0.6387E-07  0.8948E-03  0.7163E-03  0.1431E+01
   -0.349988   30.72953  0.1715E-14  0.1433E-04  0.6053E-07  0.1003E-02  0.6629E-03  0.1271E+01
   -0.399988   30.73071  0.1715E-14  0.1474E-04  0.5788E-07  0.1108E-02  0.6146E-03  0.1219E+01
   -0.449988   30.73175  0.1715E-14  0.1511E-04  0.5567E-07  0.1215E-02  0.5705E-03  0.1212E+01
   -0.499988   30.73269  0.1715E-14  0.1544E-04  0.5380E-07  0.1316E-02  0.5305E-03  0.1218E+01
   -0.549989   30.73353  0.1715E-14  0.1572E-04  0.5223E-07  0.1409E-02  0.4942E-03  0.1217E+01
   -0.599989   30.73430  0.1715E-14  0.1597E-04  0.5090E-07  0.1495E-02  0.4613E-03  0.1216E+01
   -0.649990   30.73502  0.1715E-14  0.1617E-04  0.4979E-07  0.1571E-02  0.4314E-03  0.1210E+01
   -0.699992   30.73569  0.1715E-14  0.1635E-04  0.4887E-07  0.1637E-02  0.4041E-03  0.1204E+01
   -0.749993   30.73633  0.1715E-14  0.1649E-04  0.4811E-07  0.1692E-02  0.3794E-03  0.1198E+01
   -0.799994   30.73694  0.1715E-14  0.1660E-04  0.4749E-07  0.1737E-02  0.3569E-03  0.1197E+01
   -0.849996   30.73752  0.1715E-14  0.1668E-04  0.4701E-07  0.1772E-02  0.3363E-03  0.1203E+01
   -0.899998   30.73809  0.1715E-14  0.1673E-04  0.4665E-07  0.1797E-02  0.3174E-03  0.1231E+01
   -0.949999   30.73864  0.1715E-14  0.1677E-04  0.4640E-07  0.1813E-02  0.3000E-03  0.1282E+01
   -1.000001   30.73918  0.1715E-14  0.1677E-04  0.4626E-07  0.1821E-02  0.2836E-03  0.1366E+01
   -1.050003   30.73972  0.1715E-14  0.1676E-04  0.4623E-07  0.1818E-02  0.2683E-03  0.1535E+01
   -1.100004   30.74025  0.1715E-14  0.1672E-04  0.4633E-07  0.1921E-02  0.2536E-03  0.5034E+01
   -1.150006   30.74074  0.1715E-14  0.1666E-04  0.4656E-07  0.1709E-02  0.2407E-03  0.1182E+02
   -1.200008   30.74130  0.1715E-14  0.1658E-04  0.4694E-07  0.1749E-02  0.2269E-03  0.2231E+01
   -1.250009   30.74184  0.1715E-14  0.1646E-04  0.4751E-07  0.1717E-02  0.2138E-03  0.2376E+01
   -1.300010   30.74239  0.1715E-14  0.1632E-04  0.4830E-07  0.1663E-02  0.2012E-03  0.2781E+01
   -1.350012   30.74295  0.1715E-14  0.1614E-04  0.4939E-07  0.1600E-02  0.1890E-03  0.3343E+01
   -1.400013   30.74353  0.1715E-14  0.1593E-04  0.5087E-07  0.1518E-02  0.1770E-03  0.4143E+01
   -1.450013   30.74415  0.1715E-14  0.1566E-04  0.5289E-07  0.1437E-02  0.1653E-03  0.5330E+01
   -1.500014   30.74480  0.1715E-14  0.1535E-04  0.5572E-07  0.1321E-02  0.1537E-03  0.7310E+01
   -1.550014   30.74551  0.1715E-14  0.1496E-04  0.5974E-07  0.1234E-02  0.1420E-03  0.1070E+02
   -1.600014   30.74629  0.1715E-14  0.1448E-04  0.6599E-07  0.1089E-02  0.1305E-03 -0.4486E+03
   -1.650014   30.74726  0.1715E-14  0.1386E-04  0.7579E-07  0.1003E-02  0.1180E-03  0.3718E+03
   -1.700014   30.74838  0.1715E-14  0.1300E-04  0.9292E-07  0.8223E-03  0.1055E-03  0.4817E+03
   -1.750013   30.75031  0.1715E-14  0.1192E-04  0.1207E-06  0.7389E-03  0.8917E-04  0.1097E+06
   -1.800011   30.75181  0.1715E-14  0.1048E-04  0.1819E-06  0.5155E-03  0.7682E-04  0.6944E+04
   -1.850010   30.75872  0.1715E-14  0.8919E-05  0.2955E-06  0.4757E-03  0.5473E-04  0.3790E+08
   -1.900008   30.75697  0.1715E-14  0.7075E-05  0.6148E-06  0.2218E-03  0.4475E-04 -0.4770E+05
   -1.950005   30.77697  0.1715E-14  0.4969E-05  0.1524E-05  0.1955E-03  0.2416E-04 -0.7751E+06
   -2.000002   30.77909  0.1715E-14  0.0000E+00  0.0000E+00  0.0000E+00  0.4507E-04  0.0000E+00
