 1 - depth, m
 2 - temperature, C
 3 - salinity, kg/kg
 4 - turbulent kinetic energy, m**2/s**2
 5 - dissipation rate, m**2/s**3
 6 - kinematic heat conductance, m**2/s
 7 - modulus of horizontal velocity, m/s
 8 - Richardson number, n/d
   -0.000000   29.60957  0.1643E-14  0.4378E-05  0.2584E-06  0.4826E-04  0.1317E-02  0.4754E+04
   -0.049997   29.63714  0.1643E-14  0.7576E-05  0.1151E-06  0.1709E-03  0.7479E-03  0.3403E+04
   -0.099994   29.64782  0.1643E-14  0.9199E-05  0.7932E-07  0.3900E-03  0.5440E-03  0.2605E+02
   -0.149992   29.65073  0.1643E-14  0.1021E-04  0.6679E-07  0.4684E-03  0.4802E-03  0.1265E+02
   -0.199991   29.65307  0.1643E-14  0.1100E-04  0.5943E-07  0.6241E-03  0.4283E-03  0.8175E+01
   -0.249989   29.65477  0.1643E-14  0.1163E-04  0.5461E-07  0.7460E-03  0.3895E-03  0.6049E+01
   -0.299989   29.65616  0.1643E-14  0.1215E-04  0.5117E-07  0.8667E-03  0.3571E-03  0.4825E+01
   -0.349988   29.65733  0.1643E-14  0.1258E-04  0.4859E-07  0.9763E-03  0.3294E-03  0.4138E+01
   -0.399988   29.65834  0.1643E-14  0.1294E-04  0.4659E-07  0.1077E-02  0.3049E-03  0.3694E+01
   -0.449988   29.65924  0.1643E-14  0.1326E-04  0.4497E-07  0.1170E-02  0.2833E-03  0.3476E+01
   -0.499988   29.66006  0.1643E-14  0.1353E-04  0.4364E-07  0.1256E-02  0.2643E-03  0.3387E+01
   -0.549989   29.66080  0.1643E-14  0.1377E-04  0.4252E-07  0.1334E-02  0.2472E-03  0.3350E+01
   -0.599990   29.66149  0.1643E-14  0.1398E-04  0.4159E-07  0.1406E-02  0.2318E-03  0.3357E+01
   -0.649991   29.66214  0.1643E-14  0.1416E-04  0.4081E-07  0.1470E-02  0.2178E-03  0.3408E+01
   -0.699992   29.66275  0.1643E-14  0.1431E-04  0.4015E-07  0.1527E-02  0.2049E-03  0.3490E+01
   -0.749993   29.66333  0.1643E-14  0.1444E-04  0.3960E-07  0.1577E-02  0.1930E-03  0.3616E+01
   -0.799995   29.66388  0.1643E-14  0.1455E-04  0.3916E-07  0.1619E-02  0.1819E-03  0.3772E+01
   -0.849996   29.66442  0.1643E-14  0.1464E-04  0.3881E-07  0.1654E-02  0.1716E-03  0.3979E+01
   -0.899998   29.66494  0.1643E-14  0.1471E-04  0.3854E-07  0.1682E-02  0.1619E-03  0.4223E+01
   -0.950000   29.66544  0.1643E-14  0.1476E-04  0.3836E-07  0.1701E-02  0.1528E-03  0.4534E+01
   -1.000002   29.66594  0.1643E-14  0.1479E-04  0.3827E-07  0.1713E-02  0.1442E-03  0.4898E+01
   -1.050003   29.66643  0.1643E-14  0.1480E-04  0.3827E-07  0.1716E-02  0.1361E-03  0.5573E+01
   -1.100005   29.66691  0.1643E-14  0.1479E-04  0.3837E-07  0.1791E-02  0.1283E-03  0.1867E+02
   -1.150007   29.66738  0.1643E-14  0.1476E-04  0.3858E-07  0.1651E-02  0.1214E-03  0.4114E+02
   -1.200008   29.66788  0.1643E-14  0.1471E-04  0.3890E-07  0.1667E-02  0.1142E-03  0.8034E+01
   -1.250010   29.66837  0.1643E-14  0.1464E-04  0.3936E-07  0.1639E-02  0.1074E-03  0.8578E+01
   -1.300011   29.66887  0.1643E-14  0.1454E-04  0.4001E-07  0.1594E-02  0.1008E-03  0.1004E+02
   -1.350012   29.66939  0.1643E-14  0.1441E-04  0.4087E-07  0.1539E-02  0.9445E-04  0.1198E+02
   -1.400013   29.66992  0.1643E-14  0.1426E-04  0.4202E-07  0.1468E-02  0.8826E-04  0.1474E+02
   -1.450014   29.67048  0.1643E-14  0.1406E-04  0.4355E-07  0.1394E-02  0.8220E-04  0.1865E+02
   -1.500015   29.67107  0.1643E-14  0.1382E-04  0.4565E-07  0.1289E-02  0.7626E-04  0.2506E+02
   -1.550015   29.67171  0.1643E-14  0.1353E-04  0.4859E-07  0.1206E-02  0.7034E-04  0.3509E+02
   -1.600015   29.67240  0.1643E-14  0.1316E-04  0.5296E-07  0.1068E-02  0.6453E-04  0.5998E+02
   -1.650015   29.67323  0.1643E-14  0.1269E-04  0.5962E-07  0.9874E-03  0.5841E-04  0.2696E+03
   -1.700015   29.67414  0.1643E-14  0.1204E-04  0.7154E-07  0.8116E-03  0.5247E-04  0.2069E+04
   -1.750014   29.67571  0.1643E-14  0.1116E-04  0.9124E-07  0.7306E-03  0.4478E-04  0.1220E+06
   -1.800012   29.67715  0.1643E-14  0.9955E-05  0.1315E-06  0.5158E-03  0.3847E-04  0.1532E+05
   -1.850011   29.68215  0.1643E-14  0.8537E-05  0.2078E-06  0.4687E-03  0.2819E-04  0.6178E+07
   -1.900009   29.68182  0.1643E-14  0.6809E-05  0.4312E-06  0.2148E-03  0.2278E-04  0.2045E+06
   -1.950006   29.69860  0.1643E-14  0.4683E-05  0.1107E-05  0.1697E-03  0.1254E-04 -0.2730E+07
   -2.000003   29.70196  0.1643E-14  0.0000E+00  0.0000E+00  0.0000E+00  0.2168E-04  0.0000E+00
