 1 - depth, m
 2 - temperature, C
 3 - salinity, kg/kg
 4 - turbulent kinetic energy, m**2/s**2
 5 - dissipation rate, m**2/s**3
 6 - kinematic heat conductance, m**2/s
 7 - modulus of horizontal velocity, m/s
 8 - Richardson number, n/d
   -0.000000   30.61134  0.1567E-14  0.5100E-05  0.3271E-06  0.5236E-04  0.1866E-02  0.6690E+04
   -0.049997   30.64297  0.1567E-14  0.8625E-05  0.1458E-06  0.1770E-03  0.1077E-02  0.1628E+03
   -0.099994   30.65561  0.1567E-14  0.1047E-04  0.9961E-07  0.4031E-03  0.7868E-03  0.1447E+02
   -0.149992   30.65906  0.1567E-14  0.1162E-04  0.8335E-07  0.4821E-03  0.6954E-03  0.7078E+01
   -0.199991   30.66182  0.1567E-14  0.1251E-04  0.7384E-07  0.6468E-03  0.6208E-03  0.4519E+01
   -0.249989   30.66381  0.1567E-14  0.1322E-04  0.6761E-07  0.7733E-03  0.5653E-03  0.3329E+01
   -0.299988   30.66543  0.1567E-14  0.1379E-04  0.6318E-07  0.9002E-03  0.5191E-03  0.2639E+01
   -0.349988   30.66678  0.1567E-14  0.1427E-04  0.5985E-07  0.1015E-02  0.4795E-03  0.2254E+01
   -0.399988   30.66795  0.1567E-14  0.1466E-04  0.5725E-07  0.1120E-02  0.4446E-03  0.2003E+01
   -0.449988   30.66899  0.1567E-14  0.1500E-04  0.5514E-07  0.1217E-02  0.4139E-03  0.1879E+01
   -0.499988   30.66993  0.1567E-14  0.1529E-04  0.5338E-07  0.1307E-02  0.3867E-03  0.1823E+01
   -0.549989   30.67078  0.1567E-14  0.1555E-04  0.5191E-07  0.1388E-02  0.3623E-03  0.1798E+01
   -0.599989   30.67157  0.1567E-14  0.1576E-04  0.5066E-07  0.1462E-02  0.3403E-03  0.1794E+01
   -0.649990   30.67230  0.1567E-14  0.1594E-04  0.4960E-07  0.1529E-02  0.3202E-03  0.1815E+01
   -0.699992   30.67299  0.1567E-14  0.1609E-04  0.4870E-07  0.1587E-02  0.3017E-03  0.1851E+01
   -0.749993   30.67365  0.1567E-14  0.1622E-04  0.4794E-07  0.1638E-02  0.2847E-03  0.1909E+01
   -0.799994   30.67428  0.1567E-14  0.1632E-04  0.4730E-07  0.1681E-02  0.2688E-03  0.1984E+01
   -0.849996   30.67488  0.1567E-14  0.1639E-04  0.4678E-07  0.1716E-02  0.2540E-03  0.2084E+01
   -0.899998   30.67546  0.1567E-14  0.1644E-04  0.4636E-07  0.1743E-02  0.2400E-03  0.2204E+01
   -0.949999   30.67603  0.1567E-14  0.1647E-04  0.4605E-07  0.1761E-02  0.2269E-03  0.2356E+01
   -1.000001   30.67658  0.1567E-14  0.1647E-04  0.4585E-07  0.1771E-02  0.2145E-03  0.2537E+01
   -1.050003   30.67713  0.1567E-14  0.1645E-04  0.4576E-07  0.1771E-02  0.2027E-03  0.2869E+01
   -1.100004   30.67767  0.1567E-14  0.1641E-04  0.4579E-07  0.1865E-02  0.1914E-03  0.9416E+01
   -1.150006   30.67818  0.1567E-14  0.1635E-04  0.4597E-07  0.1676E-02  0.1814E-03  0.2189E+02
   -1.200008   30.67874  0.1567E-14  0.1626E-04  0.4628E-07  0.1708E-02  0.1709E-03  0.4148E+01
   -1.250009   30.67928  0.1567E-14  0.1614E-04  0.4678E-07  0.1677E-02  0.1609E-03  0.4402E+01
   -1.300010   30.67983  0.1567E-14  0.1600E-04  0.4751E-07  0.1626E-02  0.1513E-03  0.5152E+01
   -1.350012   30.68040  0.1567E-14  0.1582E-04  0.4852E-07  0.1564E-02  0.1420E-03  0.6175E+01
   -1.400013   30.68098  0.1567E-14  0.1560E-04  0.4992E-07  0.1485E-02  0.1329E-03  0.7650E+01
   -1.450013   30.68159  0.1567E-14  0.1533E-04  0.5185E-07  0.1405E-02  0.1239E-03  0.9810E+01
   -1.500014   30.68224  0.1567E-14  0.1501E-04  0.5457E-07  0.1293E-02  0.1151E-03  0.1343E+02
   -1.550014   30.68295  0.1567E-14  0.1462E-04  0.5848E-07  0.1207E-02  0.1062E-03  0.1957E+02
   -1.600014   30.68372  0.1567E-14  0.1414E-04  0.6457E-07  0.1065E-02  0.9749E-04  0.4442E+02
   -1.650014   30.68467  0.1567E-14  0.1351E-04  0.7425E-07  0.9821E-03  0.8806E-04  0.3762E+04
   -1.700014   30.68580  0.1567E-14  0.1264E-04  0.9126E-07  0.8033E-03  0.7852E-04  0.2461E+04
   -1.750013   30.68770  0.1567E-14  0.1155E-04  0.1188E-06  0.7221E-03  0.6615E-04  0.1656E+06
   -1.800011   30.68919  0.1567E-14  0.1009E-04  0.1795E-06  0.4959E-03  0.5680E-04  0.1021E+06
   -1.850010   30.69611  0.1567E-14  0.8536E-05  0.2926E-06  0.4646E-03  0.3980E-04  0.1999E+08
   -1.900008   30.69411  0.1567E-14  0.6769E-05  0.6110E-06  0.2147E-03  0.3270E-04 -0.1660E+05
   -1.950005   30.71421  0.1567E-14  0.4759E-05  0.1512E-05  0.1985E-03  0.1738E-04 -0.1558E+06
   -2.000002   30.71513  0.1567E-14  0.0000E+00  0.0000E+00  0.0000E+00  0.3340E-04  0.0000E+00
