 1 - depth, m
 2 - temperature, C
 3 - salinity, kg/kg
 4 - turbulent kinetic energy, m**2/s**2
 5 - dissipation rate, m**2/s**3
 6 - kinematic heat conductance, m**2/s
 7 - modulus of horizontal velocity, m/s
 8 - Richardson number, n/d
   -0.000000   30.63963  0.2854E-13  0.6035E-05  0.3136E-06  0.5499E-04  0.4793E-02  0.6483E+00
   -0.049997   30.66989  0.2854E-13  0.9260E-05  0.1327E-06  0.2259E-03  0.2538E-02  0.4923E+02
   -0.099994   30.67731  0.2854E-13  0.1060E-04  0.9766E-07  0.3847E-03  0.2100E-02  0.2616E+01
   -0.149992   30.68069  0.2854E-13  0.1156E-04  0.8320E-07  0.4798E-03  0.1894E-02  0.1515E+01
   -0.199991   30.68329  0.2854E-13  0.1237E-04  0.7452E-07  0.5950E-03  0.1732E-02  0.1298E+01
   -0.249989   30.68532  0.2854E-13  0.1310E-04  0.6833E-07  0.7171E-03  0.1592E-02  0.1396E+01
   -0.299988   30.68696  0.2854E-13  0.1381E-04  0.6342E-07  0.8636E-03  0.1457E-02  0.1510E+01
   -0.349988   30.68829  0.2854E-13  0.1448E-04  0.5941E-07  0.1025E-02  0.1324E-02  0.1619E+01
   -0.399988   30.68939  0.2854E-13  0.1510E-04  0.5612E-07  0.1190E-02  0.1194E-02  0.1633E+01
   -0.449988   30.69031  0.2854E-13  0.1565E-04  0.5340E-07  0.1342E-02  0.1075E-02  0.1617E+01
   -0.499988   30.69111  0.2854E-13  0.1612E-04  0.5120E-07  0.1479E-02  0.9686E-03  0.1595E+01
   -0.549989   30.69182  0.2854E-13  0.1652E-04  0.4942E-07  0.1606E-02  0.8750E-03  0.1566E+01
   -0.599989   30.69247  0.2854E-13  0.1684E-04  0.4799E-07  0.1724E-02  0.7924E-03  0.1535E+01
   -0.649990   30.69306  0.2854E-13  0.1709E-04  0.4685E-07  0.1832E-02  0.7193E-03  0.1503E+01
   -0.699992   30.69361  0.2854E-13  0.1729E-04  0.4597E-07  0.1924E-02  0.6547E-03  0.1469E+01
   -0.749993   30.69412  0.2854E-13  0.1742E-04  0.4530E-07  0.1997E-02  0.5975E-03  0.1433E+01
   -0.799994   30.69461  0.2854E-13  0.1751E-04  0.4484E-07  0.2046E-02  0.5469E-03  0.1393E+01
   -0.849996   30.69508  0.2854E-13  0.1754E-04  0.4455E-07  0.2071E-02  0.5021E-03  0.1353E+01
   -0.899998   30.69554  0.2854E-13  0.1754E-04  0.4442E-07  0.2075E-02  0.4624E-03  0.1309E+01
   -0.949999   30.69600  0.2854E-13  0.1751E-04  0.4443E-07  0.2063E-02  0.4271E-03  0.1264E+01
   -1.000001   30.69645  0.2854E-13  0.1745E-04  0.4459E-07  0.2037E-02  0.3958E-03  0.1215E+01
   -1.050003   30.69691  0.2854E-13  0.1736E-04  0.4487E-07  0.1979E-02  0.3681E-03  0.1163E+01
   -1.100005   30.69737  0.2854E-13  0.1726E-04  0.4523E-07  0.2190E-02  0.3436E-03  0.2268E+01
   -1.150006   30.69779  0.2854E-13  0.1715E-04  0.4572E-07  0.1744E-02  0.3280E-03  0.6314E+01
   -1.200008   30.69831  0.2854E-13  0.1701E-04  0.4636E-07  0.1863E-02  0.3096E-03  0.1194E+01
   -1.250009   30.69880  0.2854E-13  0.1684E-04  0.4725E-07  0.1809E-02  0.2917E-03  0.1220E+01
   -1.300011   30.69929  0.2854E-13  0.1664E-04  0.4840E-07  0.1735E-02  0.2749E-03  0.1405E+01
   -1.350012   30.69981  0.2854E-13  0.1640E-04  0.4991E-07  0.1656E-02  0.2588E-03  0.1706E+01
   -1.400013   30.70035  0.2854E-13  0.1612E-04  0.5193E-07  0.1553E-02  0.2430E-03  0.2185E+01
   -1.450014   30.70093  0.2854E-13  0.1578E-04  0.5470E-07  0.1456E-02  0.2273E-03  0.2924E+01
   -1.500014   30.70155  0.2854E-13  0.1538E-04  0.5860E-07  0.1328E-02  0.2116E-03  0.4265E+01
   -1.550015   30.70226  0.2854E-13  0.1489E-04  0.6435E-07  0.1235E-02  0.1956E-03  0.7595E+01
   -1.600015   30.70306  0.2854E-13  0.1426E-04  0.7361E-07  0.1082E-02  0.1794E-03 -0.1399E+03
   -1.650014   30.70416  0.2854E-13  0.1344E-04  0.8823E-07  0.9845E-03  0.1609E-03  0.4346E+03
   -1.700014   30.70550  0.2854E-13  0.1230E-04  0.1159E-06  0.7926E-03  0.1415E-03  0.3164E+04
   -1.750013   30.70785  0.2854E-13  0.1105E-04  0.1556E-06  0.7084E-03  0.1164E-03  0.9927E+06
   -1.800012   30.70913  0.2854E-13  0.9502E-05  0.2445E-06  0.4829E-03  0.1002E-03  0.3590E+06
   -1.850010   30.71850  0.2854E-13  0.8027E-05  0.4103E-06  0.4667E-03  0.6692E-04  0.4072E+07
   -1.900008   30.71373  0.2854E-13  0.6411E-05  0.8564E-06  0.2211E-03  0.5648E-04 -0.1905E+06
   -1.950005   30.73704  0.2854E-13  0.4616E-05  0.1997E-05  0.2331E-03  0.2928E-04 -0.1037E+06
   -2.000002   30.73677  0.2854E-13  0.0000E+00  0.0000E+00  0.0000E+00  0.6313E-04  0.0000E+00
