 1 - depth, m
 2 - temperature, C
 3 - salinity, kg/kg
 4 - turbulent kinetic energy, m**2/s**2
 5 - dissipation rate, m**2/s**3
 6 - kinematic heat conductance, m**2/s
 7 - modulus of horizontal velocity, m/s
 8 - Richardson number, n/d
   -0.000000   30.33513  0.2419E-13  0.4984E-05  0.3098E-06  0.4879E-04  0.4092E-03  0.1155E+06
   -0.049997   30.36979  0.2419E-13  0.8838E-05  0.1379E-06  0.1952E-03  0.2273E-03  0.2208E+05
   -0.099994   30.38062  0.2419E-13  0.1063E-04  0.9663E-07  0.4211E-03  0.1683E-03  0.3258E+03
   -0.149992   30.38396  0.2419E-13  0.1177E-04  0.8171E-07  0.5029E-03  0.1492E-03  0.1636E+03
   -0.199991   30.38663  0.2419E-13  0.1266E-04  0.7287E-07  0.6690E-03  0.1337E-03  0.1077E+03
   -0.249989   30.38858  0.2419E-13  0.1337E-04  0.6702E-07  0.7974E-03  0.1220E-03  0.8043E+02
   -0.299988   30.39017  0.2419E-13  0.1394E-04  0.6283E-07  0.9243E-03  0.1122E-03  0.6443E+02
   -0.349988   30.39151  0.2419E-13  0.1442E-04  0.5967E-07  0.1039E-02  0.1038E-03  0.5524E+02
   -0.399988   30.39267  0.2419E-13  0.1482E-04  0.5720E-07  0.1144E-02  0.9635E-04  0.4933E+02
   -0.449988   30.39370  0.2419E-13  0.1516E-04  0.5519E-07  0.1241E-02  0.8979E-04  0.4634E+02
   -0.499988   30.39463  0.2419E-13  0.1545E-04  0.5352E-07  0.1330E-02  0.8398E-04  0.4511E+02
   -0.549989   30.39549  0.2419E-13  0.1571E-04  0.5212E-07  0.1412E-02  0.7877E-04  0.4448E+02
   -0.599989   30.39628  0.2419E-13  0.1592E-04  0.5093E-07  0.1485E-02  0.7404E-04  0.4450E+02
   -0.649990   30.39702  0.2419E-13  0.1611E-04  0.4993E-07  0.1551E-02  0.6972E-04  0.4499E+02
   -0.699992   30.39771  0.2419E-13  0.1626E-04  0.4908E-07  0.1608E-02  0.6575E-04  0.4600E+02
   -0.749993   30.39837  0.2419E-13  0.1639E-04  0.4837E-07  0.1658E-02  0.6207E-04  0.4742E+02
   -0.799994   30.39901  0.2419E-13  0.1649E-04  0.4777E-07  0.1700E-02  0.5865E-04  0.4939E+02
   -0.849996   30.39962  0.2419E-13  0.1657E-04  0.4729E-07  0.1734E-02  0.5545E-04  0.5182E+02
   -0.899998   30.40021  0.2419E-13  0.1662E-04  0.4692E-07  0.1760E-02  0.5243E-04  0.5494E+02
   -0.949999   30.40078  0.2419E-13  0.1665E-04  0.4666E-07  0.1776E-02  0.4960E-04  0.5869E+02
   -1.000001   30.40135  0.2419E-13  0.1665E-04  0.4650E-07  0.1785E-02  0.4690E-04  0.6338E+02
   -1.050003   30.40190  0.2419E-13  0.1664E-04  0.4646E-07  0.1783E-02  0.4435E-04  0.7157E+02
   -1.100004   30.40245  0.2419E-13  0.1660E-04  0.4654E-07  0.1884E-02  0.4190E-04  0.2336E+03
   -1.150006   30.40297  0.2419E-13  0.1653E-04  0.4678E-07  0.1675E-02  0.3974E-04  0.5573E+03
   -1.200008   30.40355  0.2419E-13  0.1644E-04  0.4715E-07  0.1713E-02  0.3744E-04  0.1043E+03
   -1.250009   30.40411  0.2419E-13  0.1632E-04  0.4772E-07  0.1681E-02  0.3526E-04  0.1110E+03
   -1.300010   30.40468  0.2419E-13  0.1617E-04  0.4853E-07  0.1626E-02  0.3317E-04  0.1302E+03
   -1.350011   30.40526  0.2419E-13  0.1598E-04  0.4965E-07  0.1563E-02  0.3113E-04  0.1571E+03
   -1.400013   30.40587  0.2419E-13  0.1576E-04  0.5117E-07  0.1481E-02  0.2913E-04  0.1956E+03
   -1.450013   30.40651  0.2419E-13  0.1548E-04  0.5328E-07  0.1398E-02  0.2717E-04  0.2532E+03
   -1.500014   30.40719  0.2419E-13  0.1515E-04  0.5624E-07  0.1284E-02  0.2523E-04  0.3503E+03
   -1.550014   30.40794  0.2419E-13  0.1474E-04  0.6051E-07  0.1196E-02  0.2328E-04  0.5193E+03
   -1.600014   30.40875  0.2419E-13  0.1423E-04  0.6716E-07  0.1056E-02  0.2136E-04  0.1553E+04
   -1.650014   30.40977  0.2419E-13  0.1357E-04  0.7786E-07  0.9669E-03  0.1928E-04  0.3034E+05
   -1.700013   30.41102  0.2419E-13  0.1265E-04  0.9668E-07  0.7915E-03  0.1712E-04  0.1063E+06
   -1.750013   30.41311  0.2419E-13  0.1151E-04  0.1264E-06  0.7082E-03  0.1437E-04  0.2449E+07
   -1.800011   30.41466  0.2419E-13  0.1002E-04  0.1932E-06  0.4845E-03  0.1233E-04  0.1128E+07
   -1.850010   30.42269  0.2419E-13  0.8459E-05  0.3182E-06  0.4589E-03  0.8558E-05  0.1242E+10
   -1.900007   30.41985  0.2419E-13  0.6715E-05  0.6667E-06  0.2092E-03  0.7049E-05 -0.1921E+07
   -1.950005   30.44184  0.2419E-13  0.4754E-05  0.1619E-05  0.2062E-03  0.3717E-05 -0.3657E+07
   -2.000002   30.44224  0.2419E-13  0.0000E+00  0.0000E+00  0.0000E+00  0.7270E-05  0.0000E+00
