 1 - depth, m
 2 - temperature, C
 3 - salinity, kg/kg
 4 - turbulent kinetic energy, m**2/s**2
 5 - dissipation rate, m**2/s**3
 6 - kinematic heat conductance, m**2/s
 7 - modulus of horizontal velocity, m/s
 8 - Richardson number, n/d
   -0.000000   30.67611  0.4401E-13  0.4805E-05  0.2919E-06  0.4759E-04  0.3745E-03  0.1296E+06
   -0.049997   30.70900  0.4401E-13  0.8563E-05  0.1299E-06  0.1942E-03  0.2070E-03  0.9629E+06
   -0.099994   30.71909  0.4401E-13  0.1030E-04  0.9132E-07  0.4179E-03  0.1533E-03  0.4235E+03
   -0.149992   30.72222  0.4401E-13  0.1141E-04  0.7730E-07  0.5010E-03  0.1359E-03  0.2130E+03
   -0.199991   30.72470  0.4401E-13  0.1227E-04  0.6901E-07  0.6655E-03  0.1217E-03  0.1406E+03
   -0.249989   30.72652  0.4401E-13  0.1297E-04  0.6354E-07  0.7935E-03  0.1110E-03  0.1045E+03
   -0.299988   30.72801  0.4401E-13  0.1353E-04  0.5963E-07  0.9198E-03  0.1021E-03  0.8409E+02
   -0.349988   30.72926  0.4401E-13  0.1401E-04  0.5669E-07  0.1034E-02  0.9447E-04  0.7168E+02
   -0.399988   30.73035  0.4401E-13  0.1440E-04  0.5441E-07  0.1139E-02  0.8769E-04  0.6436E+02
   -0.449988   30.73132  0.4401E-13  0.1475E-04  0.5256E-07  0.1236E-02  0.8172E-04  0.6000E+02
   -0.499988   30.73220  0.4401E-13  0.1505E-04  0.5103E-07  0.1325E-02  0.7641E-04  0.5878E+02
   -0.549989   30.73300  0.4401E-13  0.1531E-04  0.4977E-07  0.1407E-02  0.7166E-04  0.5749E+02
   -0.599989   30.73375  0.4401E-13  0.1554E-04  0.4871E-07  0.1481E-02  0.6735E-04  0.5799E+02
   -0.649990   30.73444  0.4401E-13  0.1574E-04  0.4782E-07  0.1547E-02  0.6343E-04  0.5815E+02
   -0.699992   30.73510  0.4401E-13  0.1590E-04  0.4708E-07  0.1605E-02  0.5980E-04  0.6001E+02
   -0.749993   30.73573  0.4401E-13  0.1605E-04  0.4647E-07  0.1656E-02  0.5646E-04  0.6138E+02
   -0.799994   30.73633  0.4401E-13  0.1616E-04  0.4598E-07  0.1698E-02  0.5333E-04  0.6460E+02
   -0.849996   30.73691  0.4401E-13  0.1626E-04  0.4561E-07  0.1733E-02  0.5042E-04  0.6726E+02
   -0.899998   30.73747  0.4401E-13  0.1633E-04  0.4533E-07  0.1760E-02  0.4768E-04  0.7210E+02
   -0.949999   30.73802  0.4401E-13  0.1638E-04  0.4517E-07  0.1778E-02  0.4510E-04  0.7646E+02
   -1.000001   30.73856  0.4401E-13  0.1641E-04  0.4511E-07  0.1788E-02  0.4264E-04  0.8351E+02
   -1.050003   30.73910  0.4401E-13  0.1642E-04  0.4516E-07  0.1787E-02  0.4032E-04  0.9380E+02
   -1.100004   30.73963  0.4401E-13  0.1641E-04  0.4532E-07  0.1880E-02  0.3809E-04  0.3111E+03
   -1.150006   30.74014  0.4401E-13  0.1637E-04  0.4564E-07  0.1695E-02  0.3612E-04  0.7292E+03
   -1.200008   30.74070  0.4401E-13  0.1631E-04  0.4609E-07  0.1724E-02  0.3404E-04  0.1372E+03
   -1.250009   30.74125  0.4401E-13  0.1622E-04  0.4673E-07  0.1693E-02  0.3206E-04  0.1478E+03
   -1.300010   30.74181  0.4401E-13  0.1610E-04  0.4760E-07  0.1641E-02  0.3016E-04  0.1726E+03
   -1.350011   30.74238  0.4401E-13  0.1595E-04  0.4876E-07  0.1580E-02  0.2831E-04  0.2096E+03
   -1.400012   30.74298  0.4401E-13  0.1576E-04  0.5030E-07  0.1501E-02  0.2651E-04  0.2598E+03
   -1.450013   30.74361  0.4401E-13  0.1552E-04  0.5238E-07  0.1421E-02  0.2473E-04  0.3375E+03
   -1.500014   30.74428  0.4401E-13  0.1523E-04  0.5524E-07  0.1308E-02  0.2298E-04  0.4650E+03
   -1.550014   30.74502  0.4401E-13  0.1487E-04  0.5928E-07  0.1221E-02  0.2122E-04  0.6911E+03
   -1.600014   30.74583  0.4401E-13  0.1442E-04  0.6543E-07  0.1078E-02  0.1949E-04  0.3517E+04
   -1.650014   30.74682  0.4401E-13  0.1383E-04  0.7500E-07  0.9946E-03  0.1764E-04  0.1649E+05
   -1.700013   30.74798  0.4401E-13  0.1302E-04  0.9181E-07  0.8129E-03  0.1578E-04 -0.7373E+04
   -1.750013   30.74995  0.4401E-13  0.1197E-04  0.1191E-06  0.7321E-03  0.1339E-04  0.8108E+07
   -1.800011   30.75163  0.4401E-13  0.1055E-04  0.1775E-06  0.5086E-03  0.1149E-04 -0.4080E+06
   -1.850010   30.75850  0.4401E-13  0.9011E-05  0.2864E-06  0.4730E-03  0.8232E-05  0.4489E+08
   -1.900007   30.75706  0.4401E-13  0.7192E-05  0.5925E-06  0.2116E-03  0.6727E-05 -0.2698E+07
   -1.950005   30.77843  0.4401E-13  0.5073E-05  0.1468E-05  0.1935E-03  0.3670E-05 -0.1202E+08
   -2.000002   30.78066  0.4401E-13  0.0000E+00  0.0000E+00  0.0000E+00  0.6600E-05  0.0000E+00
