 1 - depth, m
 2 - temperature, C
 3 - salinity, kg/kg
 4 - turbulent kinetic energy, m**2/s**2
 5 - dissipation rate, m**2/s**3
 6 - kinematic heat conductance, m**2/s
 7 - modulus of horizontal velocity, m/s
 8 - Richardson number, n/d
   -0.000000   29.85241  0.1938E-14  0.5042E-05  0.3001E-06  0.5098E-04  0.2446E-02  0.6177E+04
   -0.049997   29.88287  0.1938E-14  0.8406E-05  0.1323E-06  0.1887E-03  0.1341E-02  0.2915E+04
   -0.099994   29.89338  0.1938E-14  0.1006E-04  0.9228E-07  0.3913E-03  0.1018E-02  0.9187E+01
   -0.149992   29.89669  0.1938E-14  0.1112E-04  0.7744E-07  0.4817E-03  0.8998E-03  0.4601E+01
   -0.199991   29.89927  0.1938E-14  0.1195E-04  0.6875E-07  0.6341E-03  0.8067E-03  0.2971E+01
   -0.249989   29.90117  0.1938E-14  0.1261E-04  0.6307E-07  0.7567E-03  0.7360E-03  0.2209E+01
   -0.299989   29.90272  0.1938E-14  0.1316E-04  0.5902E-07  0.8727E-03  0.6771E-03  0.1780E+01
   -0.349988   29.90404  0.1938E-14  0.1362E-04  0.5594E-07  0.9801E-03  0.6260E-03  0.1611E+01
   -0.399988   29.90518  0.1938E-14  0.1402E-04  0.5347E-07  0.1089E-02  0.5789E-03  0.1519E+01
   -0.449988   29.90618  0.1938E-14  0.1438E-04  0.5141E-07  0.1195E-02  0.5358E-03  0.1485E+01
   -0.499988   29.90708  0.1938E-14  0.1469E-04  0.4969E-07  0.1294E-02  0.4970E-03  0.1467E+01
   -0.549989   29.90790  0.1938E-14  0.1496E-04  0.4824E-07  0.1385E-02  0.4619E-03  0.1463E+01
   -0.599990   29.90864  0.1938E-14  0.1520E-04  0.4702E-07  0.1468E-02  0.4303E-03  0.1455E+01
   -0.649991   29.90934  0.1938E-14  0.1540E-04  0.4601E-07  0.1541E-02  0.4016E-03  0.1461E+01
   -0.699992   29.90999  0.1938E-14  0.1556E-04  0.4516E-07  0.1605E-02  0.3756E-03  0.1462E+01
   -0.749993   29.91060  0.1938E-14  0.1569E-04  0.4446E-07  0.1659E-02  0.3519E-03  0.1479E+01
   -0.799995   29.91119  0.1938E-14  0.1580E-04  0.4389E-07  0.1704E-02  0.3303E-03  0.1492E+01
   -0.849996   29.91176  0.1938E-14  0.1587E-04  0.4344E-07  0.1738E-02  0.3106E-03  0.1525E+01
   -0.899998   29.91231  0.1938E-14  0.1593E-04  0.4310E-07  0.1763E-02  0.2926E-03  0.1562E+01
   -0.950000   29.91284  0.1938E-14  0.1596E-04  0.4287E-07  0.1779E-02  0.2759E-03  0.1635E+01
   -1.000001   29.91337  0.1938E-14  0.1596E-04  0.4274E-07  0.1787E-02  0.2606E-03  0.1726E+01
   -1.050003   29.91388  0.1938E-14  0.1595E-04  0.4271E-07  0.1784E-02  0.2461E-03  0.1942E+01
   -1.100005   29.91440  0.1938E-14  0.1591E-04  0.4279E-07  0.1884E-02  0.2325E-03  0.6351E+01
   -1.150006   29.91488  0.1938E-14  0.1585E-04  0.4300E-07  0.1680E-02  0.2204E-03  0.1466E+02
   -1.200008   29.91541  0.1938E-14  0.1577E-04  0.4334E-07  0.1717E-02  0.2077E-03  0.2798E+01
   -1.250010   29.91594  0.1938E-14  0.1566E-04  0.4385E-07  0.1685E-02  0.1956E-03  0.2964E+01
   -1.300011   29.91646  0.1938E-14  0.1553E-04  0.4457E-07  0.1633E-02  0.1839E-03  0.3474E+01
   -1.350012   29.91700  0.1938E-14  0.1536E-04  0.4555E-07  0.1572E-02  0.1726E-03  0.4143E+01
   -1.400013   29.91756  0.1938E-14  0.1516E-04  0.4688E-07  0.1491E-02  0.1615E-03  0.5129E+01
   -1.450014   29.91815  0.1938E-14  0.1491E-04  0.4870E-07  0.1413E-02  0.1506E-03  0.6515E+01
   -1.500015   29.91877  0.1938E-14  0.1461E-04  0.5123E-07  0.1297E-02  0.1399E-03  0.8883E+01
   -1.550015   29.91946  0.1938E-14  0.1425E-04  0.5482E-07  0.1216E-02  0.1291E-03  0.1263E+02
   -1.600015   29.92019  0.1938E-14  0.1380E-04  0.6040E-07  0.1065E-02  0.1186E-03  0.2464E+02
   -1.650015   29.92111  0.1938E-14  0.1321E-04  0.6903E-07  0.9904E-03  0.1071E-03 -0.1470E+04
   -1.700014   29.92212  0.1938E-14  0.1242E-04  0.8447E-07  0.8005E-03  0.9601E-04  0.2282E+04
   -1.750013   29.92399  0.1938E-14  0.1137E-04  0.1099E-06  0.7290E-03  0.8090E-04  0.1698E+06
   -1.800012   29.92545  0.1938E-14  0.9993E-05  0.1653E-06  0.5057E-03  0.6945E-04  0.1540E+05
   -1.850010   29.93173  0.1938E-14  0.8445E-05  0.2667E-06  0.4671E-03  0.4931E-04  0.1142E+08
   -1.900008   29.93039  0.1938E-14  0.6658E-05  0.5607E-06  0.2151E-03  0.4017E-04 -0.4575E+06
   -1.950006   29.94921  0.1938E-14  0.4660E-05  0.1405E-05  0.1913E-03  0.2139E-04 -0.1585E+06
   -2.000003   29.95200  0.1938E-14  0.0000E+00  0.0000E+00  0.0000E+00  0.4056E-04  0.0000E+00
