 1 - depth, m
 2 - temperature, C
 3 - salinity, kg/kg
 4 - turbulent kinetic energy, m**2/s**2
 5 - dissipation rate, m**2/s**3
 6 - kinematic heat conductance, m**2/s
 7 - modulus of horizontal velocity, m/s
 8 - Richardson number, n/d
   -0.000000   30.58717  0.2648E-13  0.4859E-05  0.3076E-06  0.5101E-04  0.9693E-03  0.3671E+04
   -0.049997   30.61813  0.2649E-13  0.8426E-05  0.1366E-06  0.1778E-03  0.5539E-03  0.6428E+02
   -0.099994   30.63039  0.2649E-13  0.1024E-04  0.9384E-07  0.4103E-03  0.4031E-03  0.5773E+02
   -0.149992   30.63363  0.2649E-13  0.1136E-04  0.7896E-07  0.4860E-03  0.3567E-03  0.2821E+02
   -0.199991   30.63626  0.2649E-13  0.1223E-04  0.7019E-07  0.6513E-03  0.3186E-03  0.1822E+02
   -0.249989   30.63816  0.2649E-13  0.1293E-04  0.6443E-07  0.7773E-03  0.2902E-03  0.1353E+02
   -0.299988   30.63970  0.2649E-13  0.1349E-04  0.6032E-07  0.9035E-03  0.2665E-03  0.1078E+02
   -0.349988   30.64100  0.2649E-13  0.1396E-04  0.5723E-07  0.1018E-02  0.2462E-03  0.9251E+01
   -0.399988   30.64212  0.2649E-13  0.1435E-04  0.5483E-07  0.1122E-02  0.2283E-03  0.8237E+01
   -0.449988   30.64312  0.2649E-13  0.1469E-04  0.5287E-07  0.1218E-02  0.2125E-03  0.7754E+01
   -0.499988   30.64402  0.2649E-13  0.1498E-04  0.5125E-07  0.1307E-02  0.1986E-03  0.7527E+01
   -0.549989   30.64484  0.2649E-13  0.1523E-04  0.4989E-07  0.1388E-02  0.1860E-03  0.7447E+01
   -0.599989   30.64560  0.2649E-13  0.1545E-04  0.4874E-07  0.1462E-02  0.1747E-03  0.7430E+01
   -0.649990   30.64631  0.2649E-13  0.1563E-04  0.4777E-07  0.1528E-02  0.1643E-03  0.7545E+01
   -0.699992   30.64698  0.2649E-13  0.1579E-04  0.4694E-07  0.1586E-02  0.1549E-03  0.7694E+01
   -0.749993   30.64762  0.2649E-13  0.1592E-04  0.4625E-07  0.1637E-02  0.1461E-03  0.7972E+01
   -0.799994   30.64823  0.2649E-13  0.1602E-04  0.4568E-07  0.1679E-02  0.1379E-03  0.8281E+01
   -0.849996   30.64881  0.2649E-13  0.1610E-04  0.4521E-07  0.1714E-02  0.1302E-03  0.8736E+01
   -0.899998   30.64938  0.2649E-13  0.1616E-04  0.4485E-07  0.1741E-02  0.1231E-03  0.9234E+01
   -0.949999   30.64993  0.2649E-13  0.1619E-04  0.4459E-07  0.1759E-02  0.1163E-03  0.9917E+01
   -1.000001   30.65047  0.2649E-13  0.1621E-04  0.4444E-07  0.1770E-02  0.1099E-03  0.1068E+02
   -1.050003   30.65100  0.2649E-13  0.1620E-04  0.4439E-07  0.1770E-02  0.1039E-03  0.1213E+02
   -1.100004   30.65153  0.2649E-13  0.1617E-04  0.4445E-07  0.1862E-02  0.9808E-04  0.3999E+02
   -1.150006   30.65203  0.2649E-13  0.1611E-04  0.4466E-07  0.1679E-02  0.9292E-04  0.9131E+02
   -1.200008   30.65258  0.2649E-13  0.1604E-04  0.4500E-07  0.1709E-02  0.8754E-04  0.1755E+02
   -1.250009   30.65311  0.2649E-13  0.1593E-04  0.4551E-07  0.1678E-02  0.8241E-04  0.1868E+02
   -1.300011   30.65365  0.2649E-13  0.1580E-04  0.4624E-07  0.1628E-02  0.7746E-04  0.2193E+02
   -1.350012   30.65421  0.2649E-13  0.1563E-04  0.4724E-07  0.1568E-02  0.7267E-04  0.2622E+02
   -1.400013   30.65478  0.2649E-13  0.1543E-04  0.4861E-07  0.1488E-02  0.6799E-04  0.3254E+02
   -1.450014   30.65539  0.2649E-13  0.1518E-04  0.5048E-07  0.1411E-02  0.6340E-04  0.4146E+02
   -1.500014   30.65602  0.2649E-13  0.1488E-04  0.5308E-07  0.1296E-02  0.5889E-04  0.5673E+02
   -1.550014   30.65673  0.2649E-13  0.1451E-04  0.5677E-07  0.1214E-02  0.5434E-04  0.8109E+02
   -1.600015   30.65748  0.2649E-13  0.1406E-04  0.6253E-07  0.1066E-02  0.4991E-04  0.1635E+03
   -1.650014   30.65842  0.2649E-13  0.1347E-04  0.7140E-07  0.9865E-03  0.4507E-04  0.8002E+04
   -1.700014   30.65945  0.2649E-13  0.1267E-04  0.8719E-07  0.8052E-03  0.4040E-04 -0.1357E+03
   -1.750013   30.66136  0.2649E-13  0.1161E-04  0.1133E-06  0.7261E-03  0.3408E-04  0.1450E+06
   -1.800012   30.66285  0.2649E-13  0.1021E-04  0.1700E-06  0.5129E-03  0.2927E-04  0.1179E+06
   -1.850010   30.66922  0.2649E-13  0.8646E-05  0.2746E-06  0.4618E-03  0.2083E-04  0.4660E+08
   -1.900008   30.66792  0.2649E-13  0.6787E-05  0.5726E-06  0.2102E-03  0.1692E-04 -0.2304E+07
   -1.950005   30.68731  0.2649E-13  0.4774E-05  0.1422E-05  0.1929E-03  0.9007E-05 -0.1497E+07
   -2.000002   30.68972  0.2649E-13  0.0000E+00  0.0000E+00  0.0000E+00  0.1700E-04  0.0000E+00
