 1 - depth, m
 2 - temperature, C
 3 - salinity, kg/kg
 4 - turbulent kinetic energy, m**2/s**2
 5 - dissipation rate, m**2/s**3
 6 - kinematic heat conductance, m**2/s
 7 - modulus of horizontal velocity, m/s
 8 - Richardson number, n/d
   -0.000000   29.55024  0.2048E-14  0.5128E-05  0.2949E-06  0.5088E-04  0.2920E-02  0.2112E+04
   -0.049997   29.58079  0.2048E-14  0.8431E-05  0.1290E-06  0.1950E-03  0.1583E-02  0.2605E+02
   -0.099994   29.59049  0.2048E-14  0.9994E-05  0.9108E-07  0.3851E-03  0.1226E-02  0.6087E+01
   -0.149992   29.59384  0.2048E-14  0.1101E-04  0.7658E-07  0.4799E-03  0.1088E-02  0.3108E+01
   -0.199991   29.59641  0.2048E-14  0.1181E-04  0.6809E-07  0.6238E-03  0.9790E-03  0.2039E+01
   -0.249989   29.59833  0.2048E-14  0.1246E-04  0.6253E-07  0.7393E-03  0.8958E-03  0.1545E+01
   -0.299989   29.59991  0.2048E-14  0.1299E-04  0.5849E-07  0.8500E-03  0.8256E-03  0.1343E+01
   -0.349988   29.60125  0.2048E-14  0.1347E-04  0.5533E-07  0.9627E-03  0.7620E-03  0.1303E+01
   -0.399988   29.60240  0.2048E-14  0.1389E-04  0.5275E-07  0.1079E-02  0.7017E-03  0.1289E+01
   -0.449988   29.60340  0.2048E-14  0.1426E-04  0.5058E-07  0.1193E-02  0.6462E-03  0.1289E+01
   -0.499988   29.60429  0.2048E-14  0.1460E-04  0.4875E-07  0.1300E-02  0.5959E-03  0.1295E+01
   -0.549989   29.60509  0.2048E-14  0.1488E-04  0.4722E-07  0.1399E-02  0.5507E-03  0.1291E+01
   -0.599990   29.60583  0.2048E-14  0.1513E-04  0.4594E-07  0.1489E-02  0.5100E-03  0.1287E+01
   -0.649991   29.60650  0.2048E-14  0.1533E-04  0.4486E-07  0.1568E-02  0.4732E-03  0.1276E+01
   -0.699992   29.60713  0.2048E-14  0.1549E-04  0.4397E-07  0.1635E-02  0.4400E-03  0.1267E+01
   -0.749993   29.60773  0.2048E-14  0.1562E-04  0.4324E-07  0.1692E-02  0.4100E-03  0.1252E+01
   -0.799995   29.60830  0.2048E-14  0.1571E-04  0.4265E-07  0.1737E-02  0.3829E-03  0.1242E+01
   -0.849996   29.60884  0.2048E-14  0.1578E-04  0.4219E-07  0.1770E-02  0.3584E-03  0.1230E+01
   -0.899998   29.60937  0.2048E-14  0.1582E-04  0.4185E-07  0.1792E-02  0.3361E-03  0.1232E+01
   -0.950000   29.60989  0.2048E-14  0.1583E-04  0.4162E-07  0.1805E-02  0.3159E-03  0.1242E+01
   -1.000002   29.61040  0.2048E-14  0.1582E-04  0.4149E-07  0.1808E-02  0.2974E-03  0.1276E+01
   -1.050003   29.61090  0.2048E-14  0.1579E-04  0.4146E-07  0.1801E-02  0.2804E-03  0.1368E+01
   -1.100005   29.61139  0.2048E-14  0.1574E-04  0.4154E-07  0.1916E-02  0.2646E-03  0.4306E+01
   -1.150007   29.61185  0.2048E-14  0.1566E-04  0.4174E-07  0.1672E-02  0.2512E-03  0.1033E+02
   -1.200008   29.61238  0.2048E-14  0.1557E-04  0.4207E-07  0.1723E-02  0.2366E-03  0.1922E+01
   -1.250010   29.61288  0.2048E-14  0.1544E-04  0.4256E-07  0.1690E-02  0.2229E-03  0.2047E+01
   -1.300011   29.61339  0.2048E-14  0.1529E-04  0.4326E-07  0.1635E-02  0.2097E-03  0.2389E+01
   -1.350012   29.61391  0.2048E-14  0.1511E-04  0.4422E-07  0.1570E-02  0.1969E-03  0.2881E+01
   -1.400013   29.61445  0.2048E-14  0.1489E-04  0.4554E-07  0.1487E-02  0.1843E-03  0.3564E+01
   -1.450014   29.61502  0.2048E-14  0.1463E-04  0.4734E-07  0.1403E-02  0.1719E-03  0.4588E+01
   -1.500015   29.61562  0.2048E-14  0.1431E-04  0.4987E-07  0.1288E-02  0.1597E-03  0.6276E+01
   -1.550015   29.61627  0.2048E-14  0.1393E-04  0.5350E-07  0.1200E-02  0.1474E-03  0.9127E+01
   -1.600015   29.61699  0.2048E-14  0.1346E-04  0.5912E-07  0.1059E-02  0.1353E-03  0.1824E+02
   -1.650015   29.61786  0.2048E-14  0.1285E-04  0.6809E-07  0.9717E-03  0.1223E-03  0.7124E+02
   -1.700015   29.61890  0.2048E-14  0.1201E-04  0.8395E-07  0.7947E-03  0.1090E-03  0.3396E+04
   -1.750014   29.62069  0.2048E-14  0.1093E-04  0.1096E-06  0.7079E-03  0.9168E-04  0.1819E+05
   -1.800012   29.62216  0.2048E-14  0.9499E-05  0.1653E-06  0.4890E-03  0.7826E-04  0.7177E+05
   -1.850011   29.62851  0.2048E-14  0.7999E-05  0.2686E-06  0.4524E-03  0.5469E-04  0.1358E+08
   -1.900009   29.62671  0.2048E-14  0.6300E-05  0.5635E-06  0.2040E-03  0.4479E-04 -0.2388E+04
   -1.950006   29.64555  0.2048E-14  0.4426E-05  0.1383E-05  0.1976E-03  0.2348E-04 -0.3265E+06
   -2.000003   29.64569  0.2048E-14  0.0000E+00  0.0000E+00  0.0000E+00  0.4590E-04  0.0000E+00
