 1 - depth, m
 2 - temperature, C
 3 - salinity, kg/kg
 4 - turbulent kinetic energy, m**2/s**2
 5 - dissipation rate, m**2/s**3
 6 - kinematic heat conductance, m**2/s
 7 - modulus of horizontal velocity, m/s
 8 - Richardson number, n/d
   -0.000000   30.93743  0.4562E-14  0.5230E-05  0.3478E-06  0.5355E-04  0.7388E-03  0.2051E+04
   -0.049997   30.97075  0.4562E-14  0.9094E-05  0.1541E-06  0.1830E-03  0.4275E-03  0.5137E+02
   -0.099994   30.98414  0.4562E-14  0.1106E-04  0.1054E-06  0.4289E-03  0.3090E-03  0.9191E+02
   -0.149992   30.98760  0.4562E-14  0.1228E-04  0.8873E-07  0.5006E-03  0.2743E-03  0.4533E+02
   -0.199990   30.99044  0.4562E-14  0.1322E-04  0.7888E-07  0.6752E-03  0.2453E-03  0.2929E+02
   -0.249989   30.99248  0.4562E-14  0.1397E-04  0.7243E-07  0.8050E-03  0.2238E-03  0.2180E+02
   -0.299988   30.99414  0.4562E-14  0.1458E-04  0.6782E-07  0.9364E-03  0.2059E-03  0.1737E+02
   -0.349988   30.99553  0.4562E-14  0.1509E-04  0.6437E-07  0.1055E-02  0.1905E-03  0.1491E+02
   -0.399987   30.99674  0.4562E-14  0.1552E-04  0.6169E-07  0.1163E-02  0.1770E-03  0.1326E+02
   -0.449987   30.99781  0.4562E-14  0.1588E-04  0.5951E-07  0.1263E-02  0.1650E-03  0.1248E+02
   -0.499988   30.99878  0.4562E-14  0.1620E-04  0.5771E-07  0.1355E-02  0.1544E-03  0.1209E+02
   -0.549988   30.99967  0.4562E-14  0.1647E-04  0.5620E-07  0.1438E-02  0.1449E-03  0.1195E+02
   -0.599989   31.00049  0.4562E-14  0.1671E-04  0.5493E-07  0.1514E-02  0.1362E-03  0.1191E+02
   -0.649990   31.00125  0.4562E-14  0.1691E-04  0.5386E-07  0.1582E-02  0.1284E-03  0.1209E+02
   -0.699991   31.00197  0.4562E-14  0.1707E-04  0.5297E-07  0.1641E-02  0.1211E-03  0.1231E+02
   -0.749992   31.00266  0.4562E-14  0.1721E-04  0.5222E-07  0.1693E-02  0.1144E-03  0.1275E+02
   -0.799994   31.00331  0.4562E-14  0.1733E-04  0.5161E-07  0.1736E-02  0.1082E-03  0.1323E+02
   -0.849995   31.00395  0.4562E-14  0.1742E-04  0.5112E-07  0.1771E-02  0.1023E-03  0.1397E+02
   -0.899997   31.00456  0.4562E-14  0.1748E-04  0.5075E-07  0.1798E-02  0.9684E-04  0.1475E+02
   -0.949998   31.00516  0.4562E-14  0.1752E-04  0.5050E-07  0.1815E-02  0.9164E-04  0.1586E+02
   -1.000000   31.00575  0.4562E-14  0.1753E-04  0.5037E-07  0.1824E-02  0.8673E-04  0.1708E+02
   -1.050002   31.00633  0.4562E-14  0.1752E-04  0.5037E-07  0.1822E-02  0.8205E-04  0.1942E+02
   -1.100003   31.00690  0.4562E-14  0.1749E-04  0.5050E-07  0.1927E-02  0.7759E-04  0.6310E+02
   -1.150005   31.00744  0.4562E-14  0.1742E-04  0.5080E-07  0.1711E-02  0.7363E-04  0.1510E+03
   -1.200007   31.00805  0.4562E-14  0.1734E-04  0.5126E-07  0.1750E-02  0.6943E-04  0.2849E+02
   -1.250008   31.00864  0.4562E-14  0.1722E-04  0.5194E-07  0.1718E-02  0.6545E-04  0.3029E+02
   -1.300009   31.00924  0.4562E-14  0.1707E-04  0.5288E-07  0.1662E-02  0.6160E-04  0.3582E+02
   -1.350010   31.00986  0.4562E-14  0.1688E-04  0.5416E-07  0.1599E-02  0.5786E-04  0.4314E+02
   -1.400011   31.01050  0.4562E-14  0.1665E-04  0.5591E-07  0.1513E-02  0.5420E-04  0.5427E+02
   -1.450012   31.01118  0.4562E-14  0.1637E-04  0.5830E-07  0.1432E-02  0.5059E-04  0.7020E+02
   -1.500013   31.01190  0.4562E-14  0.1602E-04  0.6166E-07  0.1313E-02  0.4703E-04  0.9884E+02
   -1.550013   31.01271  0.4562E-14  0.1560E-04  0.6649E-07  0.1231E-02  0.4344E-04  0.1493E+03
   -1.600013   31.01358  0.4562E-14  0.1507E-04  0.7414E-07  0.1080E-02  0.3990E-04  0.6098E+03
   -1.650013   31.01471  0.4562E-14  0.1437E-04  0.8611E-07  0.1000E-02  0.3597E-04  0.1186E+04
   -1.700012   31.01601  0.4562E-14  0.1340E-04  0.1077E-06  0.8089E-03  0.3207E-04  0.1929E+05
   -1.750011   31.01837  0.4562E-14  0.1221E-04  0.1418E-06  0.7329E-03  0.2684E-04  0.9901E+05
   -1.800010   31.01998  0.4562E-14  0.1069E-04  0.2144E-06  0.5070E-03  0.2314E-04  0.1145E+06
   -1.850008   31.02860  0.4562E-14  0.9106E-05  0.3534E-06  0.4775E-03  0.1617E-04  0.6468E+09
   -1.900006   31.02558  0.4562E-14  0.7290E-05  0.7325E-06  0.2209E-03  0.1340E-04 -0.1045E+06
   -1.950003   31.04951  0.4562E-14  0.5188E-05  0.1776E-05  0.2099E-03  0.7216E-05 -0.1856E+08
   -2.000000   31.05001  0.4562E-14  0.0000E+00  0.0000E+00  0.0000E+00  0.1370E-04  0.0000E+00
