 1 - depth, m
 2 - temperature, C
 3 - salinity, kg/kg
 4 - turbulent kinetic energy, m**2/s**2
 5 - dissipation rate, m**2/s**3
 6 - kinematic heat conductance, m**2/s
 7 - modulus of horizontal velocity, m/s
 8 - Richardson number, n/d
   -0.000000   31.40480  0.2440E-13  0.5277E-05  0.3425E-06  0.5127E-04  0.4865E-03  0.5377E+05
   -0.049997   31.44014  0.2440E-13  0.9285E-05  0.1522E-06  0.1952E-03  0.2742E-03  0.4166E+05
   -0.099994   31.45192  0.2440E-13  0.1120E-04  0.1058E-06  0.4301E-03  0.2023E-03  0.2118E+03
   -0.149992   31.45539  0.2440E-13  0.1241E-04  0.8930E-07  0.5087E-03  0.1796E-03  0.1058E+03
   -0.199990   31.45819  0.2440E-13  0.1335E-04  0.7953E-07  0.6808E-03  0.1609E-03  0.6919E+02
   -0.249989   31.46022  0.2440E-13  0.1409E-04  0.7309E-07  0.8112E-03  0.1470E-03  0.5154E+02
   -0.299988   31.46187  0.2440E-13  0.1470E-04  0.6849E-07  0.9415E-03  0.1353E-03  0.4124E+02
   -0.349988   31.46326  0.2440E-13  0.1520E-04  0.6502E-07  0.1059E-02  0.1253E-03  0.3528E+02
   -0.399987   31.46447  0.2440E-13  0.1563E-04  0.6233E-07  0.1166E-02  0.1164E-03  0.3151E+02
   -0.449987   31.46554  0.2440E-13  0.1599E-04  0.6013E-07  0.1265E-02  0.1086E-03  0.2951E+02
   -0.499988   31.46650  0.2440E-13  0.1630E-04  0.5831E-07  0.1356E-02  0.1016E-03  0.2874E+02
   -0.549988   31.46739  0.2440E-13  0.1656E-04  0.5679E-07  0.1439E-02  0.9540E-04  0.2827E+02
   -0.599989   31.46820  0.2440E-13  0.1679E-04  0.5551E-07  0.1513E-02  0.8975E-04  0.2831E+02
   -0.649990   31.46897  0.2440E-13  0.1699E-04  0.5443E-07  0.1580E-02  0.8459E-04  0.2857E+02
   -0.699991   31.46969  0.2440E-13  0.1715E-04  0.5352E-07  0.1638E-02  0.7983E-04  0.2926E+02
   -0.749992   31.47038  0.2440E-13  0.1728E-04  0.5276E-07  0.1688E-02  0.7543E-04  0.3013E+02
   -0.799994   31.47104  0.2440E-13  0.1739E-04  0.5213E-07  0.1730E-02  0.7133E-04  0.3145E+02
   -0.849995   31.47167  0.2440E-13  0.1746E-04  0.5164E-07  0.1763E-02  0.6749E-04  0.3300E+02
   -0.899997   31.47228  0.2440E-13  0.1752E-04  0.5127E-07  0.1788E-02  0.6387E-04  0.3508E+02
   -0.949998   31.47288  0.2440E-13  0.1755E-04  0.5101E-07  0.1803E-02  0.6046E-04  0.3751E+02
   -1.000000   31.47347  0.2440E-13  0.1755E-04  0.5089E-07  0.1810E-02  0.5722E-04  0.4065E+02
   -1.050002   31.47405  0.2440E-13  0.1753E-04  0.5089E-07  0.1805E-02  0.5414E-04  0.4597E+02
   -1.100003   31.47463  0.2440E-13  0.1748E-04  0.5103E-07  0.1919E-02  0.5120E-04  0.1485E+03
   -1.150005   31.47517  0.2440E-13  0.1741E-04  0.5136E-07  0.1677E-02  0.4860E-04  0.3698E+03
   -1.200007   31.47579  0.2440E-13  0.1731E-04  0.5185E-07  0.1724E-02  0.4580E-04  0.6815E+02
   -1.250008   31.47638  0.2440E-13  0.1718E-04  0.5257E-07  0.1690E-02  0.4316E-04  0.7288E+02
   -1.300009   31.47699  0.2440E-13  0.1701E-04  0.5358E-07  0.1631E-02  0.4062E-04  0.8612E+02
   -1.350010   31.47761  0.2440E-13  0.1680E-04  0.5495E-07  0.1565E-02  0.3814E-04  0.1049E+03
   -1.400011   31.47826  0.2440E-13  0.1655E-04  0.5684E-07  0.1474E-02  0.3571E-04  0.1327E+03
   -1.450012   31.47895  0.2440E-13  0.1624E-04  0.5945E-07  0.1395E-02  0.3331E-04  0.1743E+03
   -1.500013   31.47969  0.2440E-13  0.1586E-04  0.6316E-07  0.1269E-02  0.3094E-04  0.2499E+03
   -1.550013   31.48052  0.2440E-13  0.1540E-04  0.6855E-07  0.1195E-02  0.2853E-04  0.3930E+03
   -1.600013   31.48142  0.2440E-13  0.1482E-04  0.7733E-07  0.1036E-02  0.2616E-04  0.1500E+04
   -1.650013   31.48267  0.2440E-13  0.1404E-04  0.9095E-07  0.9626E-03  0.2345E-04  0.1016E+05
   -1.700012   31.48403  0.2440E-13  0.1298E-04  0.1150E-06  0.7705E-03  0.2082E-04  0.1247E+07
   -1.750011   31.48672  0.2440E-13  0.1171E-04  0.1535E-06  0.7045E-03  0.1712E-04  0.2235E+07
   -1.800010   31.48807  0.2440E-13  0.1015E-04  0.2355E-06  0.4753E-03  0.1480E-04  0.2280E+06
   -1.850008   31.49824  0.2440E-13  0.8554E-05  0.3980E-06  0.4553E-03  0.9958E-05  0.1752E+09
   -1.900006   31.49383  0.2440E-13  0.6809E-05  0.8395E-06  0.2115E-03  0.8290E-05 -0.1367E+07
   -1.950003   31.51946  0.2440E-13  0.4901E-05  0.1992E-05  0.2235E-03  0.4298E-05 -0.4277E+07
   -2.000000   31.51963  0.2440E-13  0.0000E+00  0.0000E+00  0.0000E+00  0.8895E-05  0.0000E+00
