 1 - depth, m
 2 - temperature, C
 3 - salinity, kg/kg
 4 - turbulent kinetic energy, m**2/s**2
 5 - dissipation rate, m**2/s**3
 6 - kinematic heat conductance, m**2/s
 7 - modulus of horizontal velocity, m/s
 8 - Richardson number, n/d
   -0.000000   30.30118  0.7901E-14  0.4937E-05  0.3112E-06  0.5080E-04  0.1417E-02  0.9299E+04
   -0.049997   30.33287  0.7901E-14  0.8462E-05  0.1388E-06  0.1799E-03  0.8082E-03  0.4161E+03
   -0.099994   30.34498  0.7901E-14  0.1027E-04  0.9561E-07  0.4016E-03  0.5934E-03  0.2464E+02
   -0.149992   30.34836  0.7901E-14  0.1140E-04  0.8021E-07  0.4835E-03  0.5242E-03  0.1212E+02
   -0.199991   30.35104  0.7901E-14  0.1228E-04  0.7119E-07  0.6465E-03  0.4682E-03  0.7765E+01
   -0.249989   30.35299  0.7901E-14  0.1297E-04  0.6528E-07  0.7724E-03  0.4264E-03  0.5739E+01
   -0.299988   30.35457  0.7901E-14  0.1354E-04  0.6107E-07  0.8984E-03  0.3916E-03  0.4560E+01
   -0.349988   30.35590  0.7901E-14  0.1401E-04  0.5792E-07  0.1012E-02  0.3617E-03  0.3904E+01
   -0.399988   30.35705  0.7901E-14  0.1440E-04  0.5546E-07  0.1116E-02  0.3354E-03  0.3474E+01
   -0.449988   30.35807  0.7901E-14  0.1474E-04  0.5346E-07  0.1213E-02  0.3122E-03  0.3267E+01
   -0.499988   30.35899  0.7901E-14  0.1503E-04  0.5180E-07  0.1301E-02  0.2916E-03  0.3173E+01
   -0.549989   30.35983  0.7901E-14  0.1528E-04  0.5041E-07  0.1382E-02  0.2732E-03  0.3136E+01
   -0.599989   30.36061  0.7901E-14  0.1550E-04  0.4924E-07  0.1455E-02  0.2566E-03  0.3132E+01
   -0.649991   30.36133  0.7901E-14  0.1568E-04  0.4825E-07  0.1521E-02  0.2414E-03  0.3177E+01
   -0.699992   30.36202  0.7901E-14  0.1583E-04  0.4741E-07  0.1578E-02  0.2275E-03  0.3242E+01
   -0.749993   30.36267  0.7901E-14  0.1596E-04  0.4670E-07  0.1628E-02  0.2145E-03  0.3356E+01
   -0.799995   30.36329  0.7901E-14  0.1606E-04  0.4612E-07  0.1670E-02  0.2026E-03  0.3489E+01
   -0.849996   30.36389  0.7901E-14  0.1613E-04  0.4564E-07  0.1705E-02  0.1913E-03  0.3677E+01
   -0.899998   30.36447  0.7901E-14  0.1619E-04  0.4527E-07  0.1730E-02  0.1808E-03  0.3891E+01
   -0.949999   30.36504  0.7901E-14  0.1622E-04  0.4500E-07  0.1748E-02  0.1709E-03  0.4174E+01
   -1.000001   30.36559  0.7901E-14  0.1622E-04  0.4484E-07  0.1757E-02  0.1615E-03  0.4500E+01
   -1.050003   30.36613  0.7901E-14  0.1621E-04  0.4479E-07  0.1756E-02  0.1526E-03  0.5108E+01
   -1.100005   30.36667  0.7901E-14  0.1617E-04  0.4486E-07  0.1853E-02  0.1440E-03  0.1672E+02
   -1.150006   30.36718  0.7901E-14  0.1611E-04  0.4507E-07  0.1656E-02  0.1365E-03  0.3930E+02
   -1.200008   30.36775  0.7901E-14  0.1602E-04  0.4542E-07  0.1690E-02  0.1285E-03  0.7445E+01
   -1.250009   30.36830  0.7901E-14  0.1591E-04  0.4595E-07  0.1658E-02  0.1210E-03  0.7929E+01
   -1.300011   30.36885  0.7901E-14  0.1576E-04  0.4670E-07  0.1605E-02  0.1137E-03  0.9328E+01
   -1.350012   30.36942  0.7901E-14  0.1559E-04  0.4775E-07  0.1543E-02  0.1067E-03  0.1122E+02
   -1.400013   30.37001  0.7901E-14  0.1537E-04  0.4917E-07  0.1462E-02  0.9976E-04  0.1399E+02
   -1.450014   30.37064  0.7901E-14  0.1511E-04  0.5113E-07  0.1382E-02  0.9298E-04  0.1801E+02
   -1.500014   30.37130  0.7901E-14  0.1479E-04  0.5389E-07  0.1266E-02  0.8631E-04  0.2490E+02
   -1.550015   30.37203  0.7901E-14  0.1440E-04  0.5783E-07  0.1181E-02  0.7959E-04  0.3633E+02
   -1.600015   30.37282  0.7901E-14  0.1391E-04  0.6399E-07  0.1037E-02  0.7299E-04  0.7492E+02
   -1.650014   30.37380  0.7901E-14  0.1328E-04  0.7369E-07  0.9547E-03  0.6583E-04 -0.2785E+04
   -1.700014   30.37493  0.7901E-14  0.1241E-04  0.9100E-07  0.7800E-03  0.5870E-04  0.1242E+04
   -1.750013   30.37699  0.7901E-14  0.1128E-04  0.1194E-06  0.6971E-03  0.4921E-04  0.2168E+05
   -1.800012   30.37858  0.7901E-14  0.9784E-05  0.1825E-06  0.4828E-03  0.4199E-04  0.6755E+05
   -1.850010   30.38601  0.7901E-14  0.8184E-05  0.2983E-06  0.4406E-03  0.2910E-04  0.2670E+09
   -1.900008   30.38379  0.7901E-14  0.6401E-05  0.6303E-06  0.2042E-03  0.2363E-04  0.3786E+05
   -1.950005   30.40504  0.7901E-14  0.4546E-05  0.1546E-05  0.2024E-03  0.1223E-04 -0.8452E+06
   -2.000002   30.40603  0.7901E-14  0.0000E+00  0.0000E+00  0.0000E+00  0.2460E-04  0.0000E+00
