 1 - depth, m
 2 - temperature, C
 3 - salinity, kg/kg
 4 - turbulent kinetic energy, m**2/s**2
 5 - dissipation rate, m**2/s**3
 6 - kinematic heat conductance, m**2/s
 7 - modulus of horizontal velocity, m/s
 8 - Richardson number, n/d
   -0.000000   31.02332  0.2238E-14  0.5311E-05  0.3530E-06  0.5290E-04  0.1106E-02  0.9134E+04
   -0.049997   31.05740  0.2238E-14  0.9141E-05  0.1568E-06  0.1865E-03  0.6330E-03  0.1003E+03
   -0.099994   31.07061  0.2238E-14  0.1111E-04  0.1077E-06  0.4198E-03  0.4643E-03  0.4282E+02
   -0.149992   31.07418  0.2238E-14  0.1233E-04  0.9037E-07  0.4999E-03  0.4112E-03  0.2114E+02
   -0.199990   31.07705  0.2238E-14  0.1329E-04  0.8021E-07  0.6718E-03  0.3677E-03  0.1354E+02
   -0.249989   31.07912  0.2238E-14  0.1405E-04  0.7359E-07  0.8013E-03  0.3354E-03  0.1005E+02
   -0.299988   31.08080  0.2238E-14  0.1467E-04  0.6888E-07  0.9328E-03  0.3085E-03  0.7999E+01
   -0.349987   31.08222  0.2238E-14  0.1518E-04  0.6535E-07  0.1051E-02  0.2854E-03  0.6862E+01
   -0.399987   31.08345  0.2238E-14  0.1561E-04  0.6262E-07  0.1159E-02  0.2651E-03  0.6108E+01
   -0.449987   31.08453  0.2238E-14  0.1598E-04  0.6040E-07  0.1259E-02  0.2471E-03  0.5746E+01
   -0.499988   31.08551  0.2238E-14  0.1629E-04  0.5856E-07  0.1350E-02  0.2312E-03  0.5574E+01
   -0.549988   31.08641  0.2238E-14  0.1657E-04  0.5704E-07  0.1434E-02  0.2170E-03  0.5515E+01
   -0.599989   31.08724  0.2238E-14  0.1680E-04  0.5576E-07  0.1509E-02  0.2041E-03  0.5503E+01
   -0.649990   31.08802  0.2238E-14  0.1700E-04  0.5468E-07  0.1576E-02  0.1922E-03  0.5592E+01
   -0.699991   31.08875  0.2238E-14  0.1717E-04  0.5377E-07  0.1635E-02  0.1814E-03  0.5705E+01
   -0.749992   31.08945  0.2238E-14  0.1731E-04  0.5302E-07  0.1685E-02  0.1713E-03  0.5921E+01
   -0.799994   31.09012  0.2238E-14  0.1742E-04  0.5241E-07  0.1728E-02  0.1620E-03  0.6158E+01
   -0.849995   31.09076  0.2238E-14  0.1751E-04  0.5193E-07  0.1761E-02  0.1532E-03  0.6513E+01
   -0.899997   31.09139  0.2238E-14  0.1757E-04  0.5157E-07  0.1786E-02  0.1450E-03  0.6899E+01
   -0.949998   31.09200  0.2238E-14  0.1760E-04  0.5134E-07  0.1802E-02  0.1372E-03  0.7437E+01
   -1.000000   31.09260  0.2238E-14  0.1761E-04  0.5123E-07  0.1810E-02  0.1299E-03  0.8033E+01
   -1.050002   31.09319  0.2238E-14  0.1760E-04  0.5125E-07  0.1806E-02  0.1228E-03  0.9168E+01
   -1.100003   31.09378  0.2238E-14  0.1756E-04  0.5141E-07  0.1918E-02  0.1161E-03  0.2960E+02
   -1.150005   31.09433  0.2238E-14  0.1749E-04  0.5176E-07  0.1681E-02  0.1102E-03  0.7287E+02
   -1.200006   31.09496  0.2238E-14  0.1739E-04  0.5227E-07  0.1726E-02  0.1039E-03  0.1365E+02
   -1.250008   31.09557  0.2238E-14  0.1726E-04  0.5302E-07  0.1692E-02  0.9789E-04  0.1457E+02
   -1.300009   31.09619  0.2238E-14  0.1710E-04  0.5405E-07  0.1633E-02  0.9211E-04  0.1735E+02
   -1.350010   31.09683  0.2238E-14  0.1690E-04  0.5545E-07  0.1567E-02  0.8648E-04  0.2102E+02
   -1.400011   31.09749  0.2238E-14  0.1665E-04  0.5736E-07  0.1476E-02  0.8097E-04  0.2673E+02
   -1.450012   31.09820  0.2238E-14  0.1635E-04  0.5999E-07  0.1397E-02  0.7552E-04  0.3487E+02
   -1.500013   31.09896  0.2238E-14  0.1597E-04  0.6371E-07  0.1269E-02  0.7015E-04  0.4994E+02
   -1.550013   31.09981  0.2238E-14  0.1552E-04  0.6907E-07  0.1195E-02  0.6467E-04  0.7631E+02
   -1.600013   31.10072  0.2238E-14  0.1494E-04  0.7781E-07  0.1036E-02  0.5935E-04  0.2756E+03
   -1.650013   31.10200  0.2238E-14  0.1417E-04  0.9139E-07  0.9622E-03  0.5316E-04  0.2389E+05
   -1.700012   31.10336  0.2238E-14  0.1312E-04  0.1161E-06  0.7677E-03  0.4728E-04  0.1034E+06
   -1.750011   31.10616  0.2238E-14  0.1182E-04  0.1557E-06  0.7029E-03  0.3877E-04  0.8903E+06
   -1.800010   31.10782  0.2238E-14  0.1022E-04  0.2416E-06  0.4761E-03  0.3334E-04  0.4670E+06
   -1.850008   31.11807  0.2238E-14  0.8588E-05  0.4044E-06  0.4506E-03  0.2243E-04  0.4955E+09
   -1.900006   31.11371  0.2238E-14  0.6824E-05  0.8627E-06  0.2110E-03  0.1863E-04  0.2813E+06
   -1.950003   31.14052  0.2238E-14  0.4942E-05  0.2030E-05  0.2262E-03  0.9637E-05 -0.3603E+06
   -2.000000   31.13948  0.2238E-14  0.0000E+00  0.0000E+00  0.0000E+00  0.2022E-04  0.0000E+00
