 1 - depth, m
 2 - temperature, C
 3 - salinity, kg/kg
 4 - turbulent kinetic energy, m**2/s**2
 5 - dissipation rate, m**2/s**3
 6 - kinematic heat conductance, m**2/s
 7 - modulus of horizontal velocity, m/s
 8 - Richardson number, n/d
   -0.000000   30.24976  0.4024E-14  0.4604E-05  0.2821E-06  0.4971E-04  0.1119E-02  0.3697E+04
   -0.049997   30.27857  0.4024E-14  0.7988E-05  0.1254E-06  0.1748E-03  0.6372E-03  0.2506E+03
   -0.099994   30.28994  0.4024E-14  0.9713E-05  0.8630E-07  0.4012E-03  0.4633E-03  0.3661E+02
   -0.149992   30.29297  0.4024E-14  0.1079E-04  0.7264E-07  0.4788E-03  0.4095E-03  0.1786E+02
   -0.199991   30.29541  0.4024E-14  0.1162E-04  0.6463E-07  0.6402E-03  0.3656E-03  0.1152E+02
   -0.249989   30.29719  0.4024E-14  0.1229E-04  0.5938E-07  0.7648E-03  0.3328E-03  0.8538E+01
   -0.299988   30.29864  0.4024E-14  0.1284E-04  0.5564E-07  0.8891E-03  0.3055E-03  0.6810E+01
   -0.349988   30.29985  0.4024E-14  0.1329E-04  0.5285E-07  0.1002E-02  0.2820E-03  0.5841E+01
   -0.399988   30.30091  0.4024E-14  0.1368E-04  0.5068E-07  0.1105E-02  0.2614E-03  0.5209E+01
   -0.449988   30.30185  0.4024E-14  0.1401E-04  0.4892E-07  0.1200E-02  0.2431E-03  0.4899E+01
   -0.499988   30.30269  0.4024E-14  0.1430E-04  0.4747E-07  0.1288E-02  0.2270E-03  0.4765E+01
   -0.549989   30.30347  0.4024E-14  0.1455E-04  0.4626E-07  0.1369E-02  0.2126E-03  0.4710E+01
   -0.599990   30.30419  0.4024E-14  0.1477E-04  0.4525E-07  0.1442E-02  0.1995E-03  0.4711E+01
   -0.649991   30.30486  0.4024E-14  0.1496E-04  0.4440E-07  0.1508E-02  0.1876E-03  0.4781E+01
   -0.699992   30.30550  0.4024E-14  0.1513E-04  0.4369E-07  0.1566E-02  0.1767E-03  0.4887E+01
   -0.749993   30.30610  0.4024E-14  0.1526E-04  0.4311E-07  0.1617E-02  0.1666E-03  0.5060E+01
   -0.799995   30.30668  0.4024E-14  0.1538E-04  0.4263E-07  0.1660E-02  0.1572E-03  0.5270E+01
   -0.849996   30.30723  0.4024E-14  0.1547E-04  0.4225E-07  0.1695E-02  0.1484E-03  0.5554E+01
   -0.899998   30.30777  0.4024E-14  0.1554E-04  0.4197E-07  0.1723E-02  0.1402E-03  0.5887E+01
   -0.950000   30.30830  0.4024E-14  0.1559E-04  0.4179E-07  0.1742E-02  0.1324E-03  0.6314E+01
   -1.000001   30.30882  0.4024E-14  0.1562E-04  0.4170E-07  0.1754E-02  0.1251E-03  0.6813E+01
   -1.050003   30.30933  0.4024E-14  0.1563E-04  0.4171E-07  0.1756E-02  0.1182E-03  0.7739E+01
   -1.100005   30.30984  0.4024E-14  0.1562E-04  0.4182E-07  0.1837E-02  0.1115E-03  0.2586E+02
   -1.150006   30.31032  0.4024E-14  0.1559E-04  0.4207E-07  0.1681E-02  0.1056E-03  0.5712E+02
   -1.200008   30.31085  0.4024E-14  0.1553E-04  0.4244E-07  0.1702E-02  0.9947E-04  0.1113E+02
   -1.250009   30.31137  0.4024E-14  0.1545E-04  0.4297E-07  0.1672E-02  0.9361E-04  0.1188E+02
   -1.300011   30.31189  0.4024E-14  0.1535E-04  0.4370E-07  0.1625E-02  0.8796E-04  0.1388E+02
   -1.350012   30.31243  0.4024E-14  0.1521E-04  0.4468E-07  0.1567E-02  0.8249E-04  0.1658E+02
   -1.400013   30.31299  0.4024E-14  0.1504E-04  0.4598E-07  0.1493E-02  0.7716E-04  0.2037E+02
   -1.450014   30.31358  0.4024E-14  0.1482E-04  0.4773E-07  0.1416E-02  0.7193E-04  0.2585E+02
   -1.500014   30.31420  0.4024E-14  0.1456E-04  0.5013E-07  0.1309E-02  0.6681E-04  0.3470E+02
   -1.550015   30.31487  0.4024E-14  0.1424E-04  0.5350E-07  0.1223E-02  0.6167E-04  0.4908E+02
   -1.600015   30.31561  0.4024E-14  0.1384E-04  0.5858E-07  0.1083E-02  0.5662E-04  0.8813E+02
   -1.650015   30.31649  0.4024E-14  0.1332E-04  0.6640E-07  0.9988E-03  0.5126E-04  0.1120E+03
   -1.700014   30.31750  0.4024E-14  0.1261E-04  0.8012E-07  0.8225E-03  0.4598E-04 -0.7217E+04
   -1.750013   30.31917  0.4024E-14  0.1166E-04  0.1027E-06  0.7385E-03  0.3922E-04  0.1722E+05
   -1.800012   30.32073  0.4024E-14  0.1036E-04  0.1500E-06  0.5247E-03  0.3367E-04  0.1530E+06
   -1.850010   30.32615  0.4024E-14  0.8878E-05  0.2384E-06  0.4743E-03  0.2452E-04  0.5954E+08
   -1.900008   30.32572  0.4024E-14  0.7057E-05  0.4945E-06  0.2164E-03  0.1985E-04 -0.8101E+06
   -1.950006   30.34386  0.4024E-14  0.4908E-05  0.1254E-05  0.1793E-03  0.1084E-04 -0.2502E+07
   -2.000003   30.34699  0.4024E-14  0.0000E+00  0.0000E+00  0.0000E+00  0.1921E-04  0.0000E+00
