 1 - depth, m
 2 - temperature, C
 3 - salinity, kg/kg
 4 - turbulent kinetic energy, m**2/s**2
 5 - dissipation rate, m**2/s**3
 6 - kinematic heat conductance, m**2/s
 7 - modulus of horizontal velocity, m/s
 8 - Richardson number, n/d
   -0.000000   30.57751  0.9179E-14  0.5406E-05  0.3110E-06  0.5273E-04  0.3392E-02  0.1428E+04
   -0.049997   30.60753  0.9179E-14  0.8760E-05  0.1344E-06  0.2042E-03  0.1826E-02  0.8431E+03
   -0.099994   30.61671  0.9179E-14  0.1032E-04  0.9525E-07  0.3904E-03  0.1432E-02  0.4553E+01
   -0.149992   30.62000  0.9179E-14  0.1135E-04  0.8027E-07  0.4875E-03  0.1277E-02  0.2367E+01
   -0.199991   30.62252  0.9179E-14  0.1218E-04  0.7154E-07  0.6264E-03  0.1155E-02  0.1589E+01
   -0.249989   30.62443  0.9179E-14  0.1285E-04  0.6582E-07  0.7365E-03  0.1061E-02  0.1290E+01
   -0.299988   30.62601  0.9179E-14  0.1344E-04  0.6160E-07  0.8495E-03  0.9785E-03  0.1257E+01
   -0.349988   30.62735  0.9179E-14  0.1398E-04  0.5821E-07  0.9766E-03  0.9009E-03  0.1322E+01
   -0.399988   30.62849  0.9179E-14  0.1448E-04  0.5540E-07  0.1112E-02  0.8254E-03  0.1348E+01
   -0.449988   30.62948  0.9179E-14  0.1493E-04  0.5305E-07  0.1245E-02  0.7554E-03  0.1356E+01
   -0.499988   30.63034  0.9179E-14  0.1534E-04  0.5112E-07  0.1369E-02  0.6924E-03  0.1361E+01
   -0.549989   30.63111  0.9179E-14  0.1569E-04  0.4952E-07  0.1483E-02  0.6359E-03  0.1354E+01
   -0.599989   30.63180  0.9179E-14  0.1599E-04  0.4822E-07  0.1585E-02  0.5852E-03  0.1345E+01
   -0.649990   30.63245  0.9179E-14  0.1624E-04  0.4716E-07  0.1675E-02  0.5398E-03  0.1330E+01
   -0.699992   30.63305  0.9179E-14  0.1644E-04  0.4632E-07  0.1750E-02  0.4990E-03  0.1312E+01
   -0.749993   30.63362  0.9179E-14  0.1661E-04  0.4567E-07  0.1812E-02  0.4624E-03  0.1291E+01
   -0.799994   30.63416  0.9179E-14  0.1673E-04  0.4518E-07  0.1860E-02  0.4295E-03  0.1267E+01
   -0.849996   30.63468  0.9179E-14  0.1682E-04  0.4484E-07  0.1894E-02  0.3999E-03  0.1239E+01
   -0.899998   30.63519  0.9179E-14  0.1688E-04  0.4463E-07  0.1914E-02  0.3734E-03  0.1211E+01
   -0.949999   30.63569  0.9179E-14  0.1691E-04  0.4455E-07  0.1922E-02  0.3496E-03  0.1181E+01
   -1.000001   30.63619  0.9179E-14  0.1691E-04  0.4459E-07  0.1920E-02  0.3281E-03  0.1158E+01
   -1.050003   30.63668  0.9179E-14  0.1689E-04  0.4474E-07  0.1905E-02  0.3088E-03  0.1170E+01
   -1.100004   30.63717  0.9179E-14  0.1685E-04  0.4499E-07  0.2047E-02  0.2915E-03  0.3374E+01
   -1.150006   30.63762  0.9179E-14  0.1678E-04  0.4538E-07  0.1742E-02  0.2773E-03  0.8360E+01
   -1.200008   30.63816  0.9179E-14  0.1669E-04  0.4591E-07  0.1812E-02  0.2616E-03  0.1544E+01
   -1.250009   30.63867  0.9179E-14  0.1658E-04  0.4663E-07  0.1776E-02  0.2469E-03  0.1649E+01
   -1.300010   30.63919  0.9179E-14  0.1643E-04  0.4759E-07  0.1715E-02  0.2327E-03  0.1940E+01
   -1.350012   30.63973  0.9179E-14  0.1625E-04  0.4886E-07  0.1644E-02  0.2189E-03  0.2347E+01
   -1.400013   30.64029  0.9179E-14  0.1603E-04  0.5054E-07  0.1555E-02  0.2054E-03  0.2929E+01
   -1.450013   30.64088  0.9179E-14  0.1577E-04  0.5280E-07  0.1466E-02  0.1919E-03  0.3799E+01
   -1.500014   30.64152  0.9179E-14  0.1544E-04  0.5592E-07  0.1345E-02  0.1787E-03  0.5257E+01
   -1.550014   30.64222  0.9179E-14  0.1505E-04  0.6037E-07  0.1254E-02  0.1652E-03  0.7960E+01
   -1.600014   30.64300  0.9179E-14  0.1456E-04  0.6722E-07  0.1105E-02  0.1519E-03  0.4687E+02
   -1.650014   30.64397  0.9179E-14  0.1391E-04  0.7794E-07  0.1014E-02  0.1374E-03 -0.1269E+03
   -1.700014   30.64513  0.9179E-14  0.1303E-04  0.9630E-07  0.8348E-03  0.1226E-03  0.1800E+05
   -1.750013   30.64707  0.9179E-14  0.1191E-04  0.1262E-06  0.7466E-03  0.1037E-03  0.1877E+06
   -1.800011   30.64871  0.9179E-14  0.1041E-04  0.1939E-06  0.5135E-03  0.8883E-04  0.2394E+05
   -1.850010   30.65590  0.9180E-14  0.8860E-05  0.3137E-06  0.4802E-03  0.6272E-04  0.2745E+07
   -1.900008   30.65384  0.9179E-14  0.7059E-05  0.6439E-06  0.2230E-03  0.5157E-04 -0.7837E+05
   -1.950005   30.67532  0.9180E-14  0.4996E-05  0.1589E-05  0.2025E-03  0.2770E-04 -0.1535E+06
   -2.000002   30.67647  0.9180E-14  0.0000E+00  0.0000E+00  0.0000E+00  0.5271E-04  0.0000E+00
