 1 - depth, m
 2 - temperature, C
 3 - salinity, kg/kg
 4 - turbulent kinetic energy, m**2/s**2
 5 - dissipation rate, m**2/s**3
 6 - kinematic heat conductance, m**2/s
 7 - modulus of horizontal velocity, m/s
 8 - Richardson number, n/d
   -0.000000   30.41078  0.3853E-13  0.5053E-05  0.2984E-06  0.5076E-04  0.2544E-02  0.4765E+04
   -0.049997   30.44109  0.3853E-13  0.8402E-05  0.1317E-06  0.1887E-03  0.1395E-02  0.3172E+02
   -0.099994   30.45126  0.3853E-13  0.1003E-04  0.9216E-07  0.3874E-03  0.1062E-02  0.7624E+01
   -0.149992   30.45457  0.3853E-13  0.1108E-04  0.7727E-07  0.4794E-03  0.9388E-03  0.3840E+01
   -0.199991   30.45712  0.3853E-13  0.1190E-04  0.6854E-07  0.6300E-03  0.8413E-03  0.2486E+01
   -0.249989   30.45901  0.3853E-13  0.1255E-04  0.6281E-07  0.7527E-03  0.7672E-03  0.1838E+01
   -0.299988   30.46054  0.3853E-13  0.1309E-04  0.5873E-07  0.8692E-03  0.7054E-03  0.1478E+01
   -0.349988   30.46184  0.3853E-13  0.1353E-04  0.5563E-07  0.9747E-03  0.6522E-03  0.1322E+01
   -0.399988   30.46296  0.3853E-13  0.1392E-04  0.5316E-07  0.1079E-02  0.6037E-03  0.1264E+01
   -0.449988   30.46395  0.3853E-13  0.1426E-04  0.5109E-07  0.1182E-02  0.5594E-03  0.1245E+01
   -0.499988   30.46484  0.3853E-13  0.1456E-04  0.4935E-07  0.1280E-02  0.5194E-03  0.1244E+01
   -0.549989   30.46564  0.3853E-13  0.1483E-04  0.4787E-07  0.1370E-02  0.4833E-03  0.1239E+01
   -0.599990   30.46638  0.3853E-13  0.1505E-04  0.4663E-07  0.1451E-02  0.4506E-03  0.1237E+01
   -0.649991   30.46706  0.3853E-13  0.1524E-04  0.4558E-07  0.1524E-02  0.4209E-03  0.1231E+01
   -0.699992   30.46770  0.3853E-13  0.1539E-04  0.4471E-07  0.1587E-02  0.3939E-03  0.1229E+01
   -0.749993   30.46831  0.3853E-13  0.1552E-04  0.4398E-07  0.1640E-02  0.3694E-03  0.1226E+01
   -0.799995   30.46889  0.3853E-13  0.1561E-04  0.4338E-07  0.1684E-02  0.3471E-03  0.1231E+01
   -0.849996   30.46944  0.3853E-13  0.1568E-04  0.4291E-07  0.1717E-02  0.3267E-03  0.1243E+01
   -0.899998   30.46998  0.3853E-13  0.1573E-04  0.4254E-07  0.1742E-02  0.3079E-03  0.1276E+01
   -0.950000   30.47050  0.3853E-13  0.1575E-04  0.4228E-07  0.1758E-02  0.2906E-03  0.1328E+01
   -1.000001   30.47102  0.3853E-13  0.1575E-04  0.4212E-07  0.1766E-02  0.2745E-03  0.1415E+01
   -1.050003   30.47152  0.3853E-13  0.1573E-04  0.4205E-07  0.1763E-02  0.2593E-03  0.1590E+01
   -1.100005   30.47202  0.3853E-13  0.1569E-04  0.4210E-07  0.1861E-02  0.2449E-03  0.5223E+01
   -1.150006   30.47249  0.3853E-13  0.1562E-04  0.4227E-07  0.1661E-02  0.2321E-03  0.1216E+02
   -1.200008   30.47301  0.3853E-13  0.1554E-04  0.4257E-07  0.1697E-02  0.2186E-03  0.2301E+01
   -1.250009   30.47352  0.3853E-13  0.1543E-04  0.4304E-07  0.1666E-02  0.2058E-03  0.2447E+01
   -1.300011   30.47403  0.3853E-13  0.1528E-04  0.4371E-07  0.1614E-02  0.1934E-03  0.2859E+01
   -1.350012   30.47455  0.3853E-13  0.1511E-04  0.4464E-07  0.1553E-02  0.1814E-03  0.3429E+01
   -1.400013   30.47509  0.3853E-13  0.1490E-04  0.4591E-07  0.1474E-02  0.1697E-03  0.4236E+01
   -1.450014   30.47566  0.3853E-13  0.1465E-04  0.4767E-07  0.1395E-02  0.1582E-03  0.5420E+01
   -1.500014   30.47626  0.3853E-13  0.1435E-04  0.5013E-07  0.1281E-02  0.1469E-03  0.7381E+01
   -1.550015   30.47692  0.3853E-13  0.1398E-04  0.5364E-07  0.1197E-02  0.1355E-03  0.1061E+02
   -1.600015   30.47763  0.3853E-13  0.1353E-04  0.5910E-07  0.1054E-02  0.1244E-03  0.2167E+02
   -1.650015   30.47851  0.3853E-13  0.1295E-04  0.6769E-07  0.9709E-03  0.1123E-03  0.8241E+02
   -1.700014   30.47951  0.3853E-13  0.1214E-04  0.8299E-07  0.7944E-03  0.1004E-03 -0.7322E+02
   -1.750013   30.48128  0.3853E-13  0.1110E-04  0.1080E-06  0.7086E-03  0.8456E-04  0.2121E+06
   -1.800012   30.48271  0.3853E-13  0.9704E-05  0.1611E-06  0.4948E-03  0.7241E-04  0.6983E+05
   -1.850010   30.48889  0.3853E-13  0.8184E-05  0.2616E-06  0.4531E-03  0.5111E-04  0.3515E+07
   -1.900008   30.48742  0.3853E-13  0.6428E-05  0.5517E-06  0.2064E-03  0.4154E-04 -0.3870E+05
   -1.950006   30.50585  0.3853E-13  0.4515E-05  0.1366E-05  0.1926E-03  0.2192E-04 -0.2219E+06
   -2.000003   30.50719  0.3853E-13  0.0000E+00  0.0000E+00  0.0000E+00  0.4211E-04  0.0000E+00
