 1 - depth, m
 2 - temperature, C
 3 - salinity, kg/kg
 4 - turbulent kinetic energy, m**2/s**2
 5 - dissipation rate, m**2/s**3
 6 - kinematic heat conductance, m**2/s
 7 - modulus of horizontal velocity, m/s
 8 - Richardson number, n/d
   -0.000000   30.29458  0.2186E-14  0.4597E-05  0.2760E-06  0.4742E-04  0.5347E-03  0.1565E+06
   -0.049997   30.32522  0.2186E-14  0.8156E-05  0.1224E-06  0.1859E-03  0.2971E-03  0.8188E+03
   -0.099994   30.33551  0.2186E-14  0.9844E-05  0.8545E-07  0.4109E-03  0.2189E-03  0.1976E+03
   -0.149992   30.33850  0.2186E-14  0.1091E-04  0.7231E-07  0.4908E-03  0.1939E-03  0.9787E+02
   -0.199991   30.34089  0.2186E-14  0.1174E-04  0.6454E-07  0.6522E-03  0.1735E-03  0.6443E+02
   -0.249989   30.34264  0.2186E-14  0.1240E-04  0.5941E-07  0.7776E-03  0.1581E-03  0.4810E+02
   -0.299988   30.34408  0.2186E-14  0.1295E-04  0.5574E-07  0.9017E-03  0.1453E-03  0.3864E+02
   -0.349988   30.34529  0.2186E-14  0.1340E-04  0.5299E-07  0.1014E-02  0.1343E-03  0.3319E+02
   -0.399988   30.34634  0.2186E-14  0.1378E-04  0.5085E-07  0.1117E-02  0.1245E-03  0.2973E+02
   -0.449988   30.34727  0.2186E-14  0.1412E-04  0.4911E-07  0.1213E-02  0.1159E-03  0.2793E+02
   -0.499988   30.34812  0.2186E-14  0.1441E-04  0.4768E-07  0.1301E-02  0.1083E-03  0.2726E+02
   -0.549989   30.34889  0.2186E-14  0.1466E-04  0.4648E-07  0.1381E-02  0.1015E-03  0.2690E+02
   -0.599990   30.34961  0.2186E-14  0.1487E-04  0.4548E-07  0.1454E-02  0.9530E-04  0.2700E+02
   -0.649991   30.35028  0.2186E-14  0.1506E-04  0.4464E-07  0.1520E-02  0.8967E-04  0.2734E+02
   -0.699992   30.35091  0.2186E-14  0.1523E-04  0.4393E-07  0.1578E-02  0.8448E-04  0.2806E+02
   -0.749993   30.35151  0.2186E-14  0.1536E-04  0.4335E-07  0.1628E-02  0.7969E-04  0.2898E+02
   -0.799995   30.35209  0.2186E-14  0.1548E-04  0.4287E-07  0.1671E-02  0.7523E-04  0.3031E+02
   -0.849996   30.35265  0.2186E-14  0.1557E-04  0.4250E-07  0.1706E-02  0.7107E-04  0.3187E+02
   -0.899998   30.35319  0.2186E-14  0.1564E-04  0.4222E-07  0.1734E-02  0.6715E-04  0.3393E+02
   -0.950000   30.35372  0.2186E-14  0.1569E-04  0.4204E-07  0.1753E-02  0.6347E-04  0.3632E+02
   -1.000001   30.35424  0.2186E-14  0.1572E-04  0.4195E-07  0.1764E-02  0.5997E-04  0.3937E+02
   -1.050003   30.35475  0.2186E-14  0.1573E-04  0.4197E-07  0.1766E-02  0.5666E-04  0.4465E+02
   -1.100005   30.35526  0.2186E-14  0.1572E-04  0.4209E-07  0.1849E-02  0.5350E-04  0.1492E+03
   -1.150006   30.35574  0.2186E-14  0.1568E-04  0.4234E-07  0.1689E-02  0.5067E-04  0.3339E+03
   -1.200008   30.35627  0.2186E-14  0.1562E-04  0.4271E-07  0.1711E-02  0.4775E-04  0.6465E+02
   -1.250009   30.35678  0.2186E-14  0.1554E-04  0.4325E-07  0.1681E-02  0.4495E-04  0.6932E+02
   -1.300011   30.35731  0.2186E-14  0.1543E-04  0.4398E-07  0.1633E-02  0.4227E-04  0.8109E+02
   -1.350012   30.35785  0.2186E-14  0.1530E-04  0.4497E-07  0.1575E-02  0.3965E-04  0.9731E+02
   -1.400013   30.35840  0.2186E-14  0.1512E-04  0.4628E-07  0.1500E-02  0.3711E-04  0.1201E+03
   -1.450014   30.35899  0.2186E-14  0.1491E-04  0.4805E-07  0.1424E-02  0.3461E-04  0.1532E+03
   -1.500014   30.35961  0.2186E-14  0.1464E-04  0.5047E-07  0.1314E-02  0.3216E-04  0.2078E+03
   -1.550015   30.36029  0.2186E-14  0.1432E-04  0.5386E-07  0.1231E-02  0.2970E-04  0.2957E+03
   -1.600015   30.36103  0.2186E-14  0.1391E-04  0.5902E-07  0.1086E-02  0.2730E-04  0.5637E+03
   -1.650015   30.36192  0.2186E-14  0.1339E-04  0.6689E-07  0.1006E-02  0.2471E-04  0.2627E+04
   -1.700014   30.36291  0.2186E-14  0.1268E-04  0.8088E-07  0.8208E-03  0.2223E-04 -0.1099E+05
   -1.750013   30.36466  0.2186E-14  0.1172E-04  0.1038E-06  0.7433E-03  0.1892E-04  0.7263E+06
   -1.800012   30.36612  0.2186E-14  0.1044E-04  0.1517E-06  0.5222E-03  0.1634E-04  0.5886E+06
   -1.850010   30.37179  0.2186E-14  0.8964E-05  0.2426E-06  0.4795E-03  0.1195E-04  0.3379E+09
   -1.900008   30.37110  0.2186E-14  0.7142E-05  0.5061E-06  0.2167E-03  0.9731E-05 -0.9549E+06
   -1.950006   30.38932  0.2186E-14  0.4952E-05  0.1276E-05  0.1803E-03  0.5343E-05 -0.6080E+07
   -2.000003   30.39277  0.2186E-14  0.0000E+00  0.0000E+00  0.0000E+00  0.9321E-05  0.0000E+00
