 1 - depth, m
 2 - temperature, C
 3 - salinity, kg/kg
 4 - turbulent kinetic energy, m**2/s**2
 5 - dissipation rate, m**2/s**3
 6 - kinematic heat conductance, m**2/s
 7 - modulus of horizontal velocity, m/s
 8 - Richardson number, n/d
   -0.000000   30.90364  0.1738E-13  0.5089E-05  0.3262E-06  0.5128E-04  0.1350E-02  0.7967E+04
   -0.049997   30.93635  0.1738E-13  0.8723E-05  0.1453E-06  0.1830E-03  0.7697E-03  0.9136E+03
   -0.099994   30.94872  0.1738E-13  0.1058E-04  0.1002E-06  0.4064E-03  0.5666E-03  0.2757E+02
   -0.149992   30.95217  0.1738E-13  0.1174E-04  0.8400E-07  0.4889E-03  0.5009E-03  0.1357E+02
   -0.199991   30.95492  0.1738E-13  0.1264E-04  0.7454E-07  0.6540E-03  0.4477E-03  0.8686E+01
   -0.249989   30.95690  0.1738E-13  0.1336E-04  0.6834E-07  0.7810E-03  0.4080E-03  0.6415E+01
   -0.299988   30.95852  0.1738E-13  0.1394E-04  0.6392E-07  0.9085E-03  0.3749E-03  0.5098E+01
   -0.349988   30.95987  0.1738E-13  0.1442E-04  0.6060E-07  0.1023E-02  0.3465E-03  0.4358E+01
   -0.399988   30.96104  0.1738E-13  0.1482E-04  0.5802E-07  0.1128E-02  0.3215E-03  0.3879E+01
   -0.449988   30.96208  0.1738E-13  0.1516E-04  0.5592E-07  0.1226E-02  0.2994E-03  0.3640E+01
   -0.499988   30.96302  0.1738E-13  0.1546E-04  0.5418E-07  0.1315E-02  0.2798E-03  0.3537E+01
   -0.549989   30.96388  0.1738E-13  0.1571E-04  0.5272E-07  0.1396E-02  0.2623E-03  0.3490E+01
   -0.599989   30.96467  0.1738E-13  0.1593E-04  0.5149E-07  0.1470E-02  0.2465E-03  0.3486E+01
   -0.649990   30.96541  0.1738E-13  0.1612E-04  0.5045E-07  0.1536E-02  0.2320E-03  0.3532E+01
   -0.699992   30.96610  0.1738E-13  0.1627E-04  0.4957E-07  0.1594E-02  0.2187E-03  0.3606E+01
   -0.749993   30.96676  0.1738E-13  0.1640E-04  0.4883E-07  0.1643E-02  0.2064E-03  0.3729E+01
   -0.799994   30.96740  0.1738E-13  0.1650E-04  0.4822E-07  0.1685E-02  0.1949E-03  0.3879E+01
   -0.849996   30.96800  0.1738E-13  0.1657E-04  0.4772E-07  0.1719E-02  0.1842E-03  0.4086E+01
   -0.899998   30.96859  0.1738E-13  0.1662E-04  0.4734E-07  0.1745E-02  0.1742E-03  0.4327E+01
   -0.949999   30.96917  0.1738E-13  0.1665E-04  0.4706E-07  0.1761E-02  0.1647E-03  0.4642E+01
   -1.000001   30.96973  0.1738E-13  0.1665E-04  0.4690E-07  0.1770E-02  0.1557E-03  0.5011E+01
   -1.050003   30.97029  0.1738E-13  0.1663E-04  0.4686E-07  0.1767E-02  0.1472E-03  0.5688E+01
   -1.100004   30.97084  0.1738E-13  0.1659E-04  0.4694E-07  0.1869E-02  0.1390E-03  0.1849E+02
   -1.150006   30.97135  0.1738E-13  0.1652E-04  0.4718E-07  0.1657E-02  0.1318E-03  0.4470E+02
   -1.200008   30.97193  0.1738E-13  0.1643E-04  0.4757E-07  0.1696E-02  0.1242E-03  0.8371E+01
   -1.250009   30.97250  0.1738E-13  0.1631E-04  0.4816E-07  0.1663E-02  0.1169E-03  0.8917E+01
   -1.300010   30.97306  0.1738E-13  0.1615E-04  0.4899E-07  0.1608E-02  0.1099E-03  0.1054E+02
   -1.350011   30.97365  0.1738E-13  0.1596E-04  0.5014E-07  0.1544E-02  0.1031E-03  0.1274E+02
   -1.400013   30.97426  0.1738E-13  0.1573E-04  0.5172E-07  0.1460E-02  0.9646E-04  0.1602E+02
   -1.450013   30.97490  0.1738E-13  0.1544E-04  0.5390E-07  0.1379E-02  0.8992E-04  0.2083E+02
   -1.500014   30.97558  0.1738E-13  0.1510E-04  0.5699E-07  0.1262E-02  0.8347E-04  0.2928E+02
   -1.550014   30.97634  0.1738E-13  0.1468E-04  0.6147E-07  0.1179E-02  0.7695E-04  0.4433E+02
   -1.600014   30.97717  0.1738E-13  0.1416E-04  0.6858E-07  0.1035E-02  0.7053E-04  0.1102E+03
   -1.650014   30.97823  0.1738E-13  0.1346E-04  0.7990E-07  0.9527E-03  0.6346E-04  0.1743E+06
   -1.700013   30.97948  0.1738E-13  0.1251E-04  0.1001E-06  0.7701E-03  0.5634E-04  0.6387E+05
   -1.750013   30.98176  0.1738E-13  0.1131E-04  0.1326E-06  0.6948E-03  0.4683E-04  0.6646E+06
   -1.800011   30.98342  0.1738E-13  0.9794E-05  0.2039E-06  0.4733E-03  0.4002E-04  0.1938E+05
   -1.850010   30.99180  0.1738E-13  0.8233E-05  0.3375E-06  0.4483E-03  0.2738E-04  0.1117E+09
   -1.900007   30.98857  0.1738E-13  0.6549E-05  0.7151E-06  0.2067E-03  0.2260E-04 -0.2999E+06
   -1.950005   31.01137  0.1738E-13  0.4662E-05  0.1716E-05  0.2121E-03  0.1180E-04 -0.5795E+06
   -2.000002   31.01148  0.1738E-13  0.0000E+00  0.0000E+00  0.0000E+00  0.2390E-04  0.0000E+00
