 1 - depth, m
 2 - temperature, C
 3 - salinity, kg/kg
 4 - turbulent kinetic energy, m**2/s**2
 5 - dissipation rate, m**2/s**3
 6 - kinematic heat conductance, m**2/s
 7 - modulus of horizontal velocity, m/s
 8 - Richardson number, n/d
   -0.000000   30.10832  0.7714E-13  0.5296E-05  0.2994E-06  0.5108E-04  0.3341E-02  0.6503E+03
   -0.049997   30.13949  0.7715E-13  0.8554E-05  0.1304E-06  0.1987E-03  0.1808E-02  0.1388E+03
   -0.099994   30.14895  0.7715E-13  0.1006E-04  0.9252E-07  0.3800E-03  0.1417E-02  0.4892E+01
   -0.149992   30.15238  0.7715E-13  0.1105E-04  0.7787E-07  0.4758E-03  0.1261E-02  0.2518E+01
   -0.199991   30.15499  0.7715E-13  0.1183E-04  0.6926E-07  0.6115E-03  0.1139E-02  0.1675E+01
   -0.249989   30.15695  0.7715E-13  0.1245E-04  0.6359E-07  0.7191E-03  0.1044E-02  0.1321E+01
   -0.299989   30.15858  0.7715E-13  0.1298E-04  0.5939E-07  0.8247E-03  0.9635E-03  0.1263E+01
   -0.349988   30.15995  0.7715E-13  0.1347E-04  0.5598E-07  0.9438E-03  0.8874E-03  0.1331E+01
   -0.399988   30.16111  0.7715E-13  0.1391E-04  0.5312E-07  0.1071E-02  0.8133E-03  0.1355E+01
   -0.449988   30.16211  0.7715E-13  0.1431E-04  0.5070E-07  0.1196E-02  0.7445E-03  0.1365E+01
   -0.499988   30.16299  0.7715E-13  0.1465E-04  0.4866E-07  0.1312E-02  0.6824E-03  0.1370E+01
   -0.549989   30.16377  0.7715E-13  0.1495E-04  0.4695E-07  0.1419E-02  0.6268E-03  0.1364E+01
   -0.599990   30.16447  0.7715E-13  0.1519E-04  0.4551E-07  0.1515E-02  0.5767E-03  0.1356E+01
   -0.649991   30.16512  0.7715E-13  0.1539E-04  0.4430E-07  0.1600E-02  0.5318E-03  0.1340E+01
   -0.699992   30.16573  0.7715E-13  0.1554E-04  0.4329E-07  0.1673E-02  0.4914E-03  0.1323E+01
   -0.749993   30.16629  0.7715E-13  0.1566E-04  0.4246E-07  0.1732E-02  0.4551E-03  0.1299E+01
   -0.799995   30.16683  0.7715E-13  0.1574E-04  0.4178E-07  0.1778E-02  0.4224E-03  0.1274E+01
   -0.849996   30.16735  0.7715E-13  0.1578E-04  0.4125E-07  0.1812E-02  0.3930E-03  0.1244E+01
   -0.899998   30.16784  0.7715E-13  0.1580E-04  0.4084E-07  0.1833E-02  0.3666E-03  0.1212E+01
   -0.950000   30.16833  0.7715E-13  0.1579E-04  0.4055E-07  0.1842E-02  0.3428E-03  0.1175E+01
   -1.000002   30.16880  0.7715E-13  0.1575E-04  0.4038E-07  0.1841E-02  0.3215E-03  0.1145E+01
   -1.050003   30.16927  0.7715E-13  0.1570E-04  0.4031E-07  0.1829E-02  0.3022E-03  0.1155E+01
   -1.100005   30.16973  0.7715E-13  0.1563E-04  0.4035E-07  0.1960E-02  0.2849E-03  0.3355E+01
   -1.150007   30.17015  0.7715E-13  0.1553E-04  0.4051E-07  0.1678E-02  0.2706E-03  0.8300E+01
   -1.200008   30.17064  0.7715E-13  0.1542E-04  0.4078E-07  0.1743E-02  0.2550E-03  0.1518E+01
   -1.250010   30.17111  0.7715E-13  0.1527E-04  0.4122E-07  0.1709E-02  0.2403E-03  0.1600E+01
   -1.300011   30.17158  0.7715E-13  0.1510E-04  0.4185E-07  0.1651E-02  0.2262E-03  0.1869E+01
   -1.350012   30.17205  0.7715E-13  0.1490E-04  0.4273E-07  0.1583E-02  0.2124E-03  0.2242E+01
   -1.400013   30.17255  0.7715E-13  0.1467E-04  0.4396E-07  0.1497E-02  0.1990E-03  0.2776E+01
   -1.450014   30.17307  0.7715E-13  0.1439E-04  0.4566E-07  0.1412E-02  0.1857E-03  0.3563E+01
   -1.500015   30.17361  0.7715E-13  0.1406E-04  0.4807E-07  0.1293E-02  0.1726E-03  0.4884E+01
   -1.550015   30.17421  0.7715E-13  0.1366E-04  0.5154E-07  0.1204E-02  0.1594E-03  0.7088E+01
   -1.600015   30.17485  0.7715E-13  0.1318E-04  0.5702E-07  0.1061E-02  0.1464E-03  0.1613E+02
   -1.650015   30.17565  0.7715E-13  0.1256E-04  0.6581E-07  0.9733E-03  0.1323E-03  0.2312E+03
   -1.700014   30.17659  0.7715E-13  0.1171E-04  0.8135E-07  0.7947E-03  0.1179E-03  0.1568E+04
   -1.750014   30.17823  0.7715E-13  0.1061E-04  0.1068E-06  0.7058E-03  0.9907E-04  0.5693E+05
   -1.800012   30.17957  0.7715E-13  0.9156E-05  0.1651E-06  0.4889E-03  0.8439E-04  0.7748E+04
   -1.850011   30.18541  0.7715E-13  0.7652E-05  0.2679E-06  0.4478E-03  0.5872E-04  0.1284E+08
   -1.900009   30.18359  0.7715E-13  0.5956E-05  0.5711E-06  0.2053E-03  0.4791E-04 -0.3379E+07
   -1.950006   30.20036  0.7715E-13  0.4196E-05  0.1396E-05  0.2007E-03  0.2475E-04 -0.4611E+05
   -2.000003   30.20126  0.7715E-13  0.0000E+00  0.0000E+00  0.0000E+00  0.5066E-04  0.0000E+00
