 1 - depth, m
 2 - temperature, C
 3 - salinity, kg/kg
 4 - turbulent kinetic energy, m**2/s**2
 5 - dissipation rate, m**2/s**3
 6 - kinematic heat conductance, m**2/s
 7 - modulus of horizontal velocity, m/s
 8 - Richardson number, n/d
   -0.000000   30.65056  0.1033E-12  0.4614E-05  0.2829E-06  0.4946E-04  0.7745E-03  0.2600E+05
   -0.049997   30.68008  0.1033E-12  0.8067E-05  0.1254E-06  0.1752E-03  0.4415E-03  0.3920E+02
   -0.099994   30.69148  0.1033E-12  0.9788E-05  0.8632E-07  0.4071E-03  0.3193E-03  0.8073E+02
   -0.149992   30.69450  0.1033E-12  0.1085E-04  0.7282E-07  0.4809E-03  0.2827E-03  0.3927E+02
   -0.199991   30.69694  0.1033E-12  0.1168E-04  0.6484E-07  0.6426E-03  0.2525E-03  0.2552E+02
   -0.249989   30.69872  0.1033E-12  0.1233E-04  0.5958E-07  0.7668E-03  0.2299E-03  0.1897E+02
   -0.299988   30.70017  0.1033E-12  0.1287E-04  0.5581E-07  0.8902E-03  0.2110E-03  0.1514E+02
   -0.349988   30.70138  0.1033E-12  0.1332E-04  0.5298E-07  0.1002E-02  0.1949E-03  0.1300E+02
   -0.399988   30.70243  0.1033E-12  0.1369E-04  0.5078E-07  0.1105E-02  0.1806E-03  0.1158E+02
   -0.449988   30.70337  0.1033E-12  0.1402E-04  0.4898E-07  0.1200E-02  0.1680E-03  0.1089E+02
   -0.499988   30.70421  0.1033E-12  0.1430E-04  0.4750E-07  0.1287E-02  0.1568E-03  0.1057E+02
   -0.549989   30.70498  0.1033E-12  0.1454E-04  0.4626E-07  0.1367E-02  0.1469E-03  0.1046E+02
   -0.599989   30.70569  0.1033E-12  0.1476E-04  0.4522E-07  0.1440E-02  0.1378E-03  0.1044E+02
   -0.649990   30.70635  0.1033E-12  0.1494E-04  0.4435E-07  0.1505E-02  0.1296E-03  0.1060E+02
   -0.699992   30.70698  0.1033E-12  0.1509E-04  0.4361E-07  0.1563E-02  0.1220E-03  0.1082E+02
   -0.749993   30.70757  0.1033E-12  0.1523E-04  0.4300E-07  0.1613E-02  0.1150E-03  0.1121E+02
   -0.799994   30.70814  0.1033E-12  0.1533E-04  0.4250E-07  0.1656E-02  0.1085E-03  0.1166E+02
   -0.849996   30.70869  0.1033E-12  0.1542E-04  0.4210E-07  0.1691E-02  0.1025E-03  0.1231E+02
   -0.899998   30.70922  0.1033E-12  0.1549E-04  0.4180E-07  0.1719E-02  0.9678E-04  0.1303E+02
   -0.949999   30.70974  0.1033E-12  0.1554E-04  0.4159E-07  0.1738E-02  0.9140E-04  0.1400E+02
   -1.000001   30.71025  0.1033E-12  0.1556E-04  0.4148E-07  0.1750E-02  0.8633E-04  0.1509E+02
   -1.050003   30.71075  0.1033E-12  0.1557E-04  0.4147E-07  0.1752E-02  0.8151E-04  0.1719E+02
   -1.100004   30.71125  0.1033E-12  0.1555E-04  0.4157E-07  0.1833E-02  0.7693E-04  0.5730E+02
   -1.150006   30.71172  0.1033E-12  0.1552E-04  0.4180E-07  0.1678E-02  0.7283E-04  0.1269E+03
   -1.200008   30.71224  0.1033E-12  0.1546E-04  0.4215E-07  0.1698E-02  0.6859E-04  0.2479E+02
   -1.250009   30.71275  0.1033E-12  0.1538E-04  0.4266E-07  0.1669E-02  0.6455E-04  0.2642E+02
   -1.300011   30.71326  0.1033E-12  0.1527E-04  0.4337E-07  0.1621E-02  0.6064E-04  0.3101E+02
   -1.350012   30.71379  0.1033E-12  0.1513E-04  0.4432E-07  0.1564E-02  0.5686E-04  0.3692E+02
   -1.400013   30.71433  0.1033E-12  0.1496E-04  0.4559E-07  0.1490E-02  0.5317E-04  0.4561E+02
   -1.450014   30.71491  0.1033E-12  0.1475E-04  0.4730E-07  0.1413E-02  0.4957E-04  0.5766E+02
   -1.500014   30.71552  0.1033E-12  0.1449E-04  0.4965E-07  0.1306E-02  0.4602E-04  0.7772E+02
   -1.550014   30.71618  0.1033E-12  0.1417E-04  0.5294E-07  0.1218E-02  0.4248E-04  0.1091E+03
   -1.600015   30.71690  0.1033E-12  0.1377E-04  0.5786E-07  0.1078E-02  0.3899E-04  0.1892E+03
   -1.650014   30.71776  0.1033E-12  0.1327E-04  0.6539E-07  0.9949E-03  0.3531E-04  0.1159E+04
   -1.700014   30.71873  0.1033E-12  0.1257E-04  0.7885E-07  0.8185E-03  0.3170E-04 -0.1624E+05
   -1.750013   30.72039  0.1033E-12  0.1162E-04  0.1011E-06  0.7342E-03  0.2702E-04  0.2536E+06
   -1.800012   30.72192  0.1033E-12  0.1032E-04  0.1472E-06  0.5162E-03  0.2320E-04  0.2283E+06
   -1.850010   30.72740  0.1033E-12  0.8824E-05  0.2336E-06  0.4710E-03  0.1687E-04  0.4767E+08
   -1.900008   30.72690  0.1033E-12  0.7028E-05  0.4865E-06  0.2130E-03  0.1365E-04 -0.2679E+06
   -1.950005   30.74526  0.1033E-12  0.4886E-05  0.1230E-05  0.1792E-03  0.7476E-05 -0.2573E+07
   -2.000002   30.74767  0.1033E-12  0.0000E+00  0.0000E+00  0.0000E+00  0.1313E-04  0.0000E+00
