 1 - depth, m
 2 - temperature, C
 3 - salinity, kg/kg
 4 - turbulent kinetic energy, m**2/s**2
 5 - dissipation rate, m**2/s**3
 6 - kinematic heat conductance, m**2/s
 7 - modulus of horizontal velocity, m/s
 8 - Richardson number, n/d
   -0.000000   30.54960  0.3610E-13  0.4879E-05  0.3054E-06  0.5017E-04  0.1232E-02  0.4380E+04
   -0.049997   30.58111  0.3610E-13  0.8407E-05  0.1359E-06  0.1805E-03  0.6988E-03  0.1025E+04
   -0.099994   30.59301  0.3610E-13  0.1019E-04  0.9381E-07  0.4027E-03  0.5133E-03  0.3225E+02
   -0.149992   30.59631  0.3610E-13  0.1131E-04  0.7881E-07  0.4842E-03  0.4536E-03  0.1581E+02
   -0.199991   30.59894  0.3610E-13  0.1217E-04  0.6998E-07  0.6465E-03  0.4052E-03  0.1015E+02
   -0.249989   30.60085  0.3610E-13  0.1286E-04  0.6419E-07  0.7721E-03  0.3690E-03  0.7496E+01
   -0.299988   30.60240  0.3610E-13  0.1342E-04  0.6005E-07  0.8977E-03  0.3389E-03  0.5959E+01
   -0.349988   30.60370  0.3610E-13  0.1388E-04  0.5694E-07  0.1011E-02  0.3131E-03  0.5094E+01
   -0.399988   30.60482  0.3610E-13  0.1427E-04  0.5452E-07  0.1115E-02  0.2902E-03  0.4533E+01
   -0.449988   30.60582  0.3610E-13  0.1460E-04  0.5254E-07  0.1211E-02  0.2701E-03  0.4254E+01
   -0.499988   30.60672  0.3610E-13  0.1489E-04  0.5090E-07  0.1300E-02  0.2523E-03  0.4131E+01
   -0.549989   30.60754  0.3610E-13  0.1514E-04  0.4952E-07  0.1381E-02  0.2364E-03  0.4074E+01
   -0.599990   30.60830  0.3610E-13  0.1535E-04  0.4836E-07  0.1454E-02  0.2220E-03  0.4067E+01
   -0.649991   30.60901  0.3610E-13  0.1553E-04  0.4737E-07  0.1520E-02  0.2088E-03  0.4114E+01
   -0.699992   30.60968  0.3610E-13  0.1568E-04  0.4652E-07  0.1578E-02  0.1967E-03  0.4197E+01
   -0.749993   30.61031  0.3610E-13  0.1580E-04  0.4581E-07  0.1629E-02  0.1856E-03  0.4331E+01
   -0.799995   30.61092  0.3610E-13  0.1590E-04  0.4522E-07  0.1672E-02  0.1752E-03  0.4499E+01
   -0.849996   30.61150  0.3610E-13  0.1598E-04  0.4473E-07  0.1707E-02  0.1654E-03  0.4727E+01
   -0.899998   30.61206  0.3610E-13  0.1603E-04  0.4435E-07  0.1734E-02  0.1563E-03  0.4995E+01
   -0.949999   30.61261  0.3610E-13  0.1607E-04  0.4407E-07  0.1753E-02  0.1477E-03  0.5341E+01
   -1.000001   30.61315  0.3610E-13  0.1608E-04  0.4388E-07  0.1763E-02  0.1396E-03  0.5745E+01
   -1.050003   30.61367  0.3610E-13  0.1606E-04  0.4381E-07  0.1764E-02  0.1319E-03  0.6498E+01
   -1.100005   30.61420  0.3610E-13  0.1603E-04  0.4384E-07  0.1854E-02  0.1245E-03  0.2145E+02
   -1.150006   30.61469  0.3610E-13  0.1597E-04  0.4401E-07  0.1677E-02  0.1180E-03  0.4872E+02
   -1.200008   30.61523  0.3610E-13  0.1589E-04  0.4431E-07  0.1706E-02  0.1111E-03  0.9331E+01
   -1.250009   30.61575  0.3610E-13  0.1579E-04  0.4479E-07  0.1675E-02  0.1046E-03  0.9898E+01
   -1.300011   30.61629  0.3610E-13  0.1565E-04  0.4547E-07  0.1626E-02  0.9834E-04  0.1156E+02
   -1.350012   30.61683  0.3610E-13  0.1549E-04  0.4641E-07  0.1566E-02  0.9225E-04  0.1379E+02
   -1.400013   30.61739  0.3610E-13  0.1528E-04  0.4770E-07  0.1489E-02  0.8632E-04  0.1701E+02
   -1.450014   30.61798  0.3610E-13  0.1504E-04  0.4948E-07  0.1410E-02  0.8049E-04  0.2162E+02
   -1.500014   30.61861  0.3610E-13  0.1474E-04  0.5196E-07  0.1300E-02  0.7476E-04  0.2930E+02
   -1.550015   30.61929  0.3610E-13  0.1438E-04  0.5548E-07  0.1213E-02  0.6901E-04  0.4176E+02
   -1.600015   30.62002  0.3610E-13  0.1393E-04  0.6091E-07  0.1073E-02  0.6336E-04  0.8135E+02
   -1.650014   30.62091  0.3610E-13  0.1336E-04  0.6943E-07  0.9863E-03  0.5732E-04  0.5391E+03
   -1.700014   30.62194  0.3610E-13  0.1257E-04  0.8448E-07  0.8119E-03  0.5130E-04  0.6199E+03
   -1.750013   30.62369  0.3610E-13  0.1153E-04  0.1093E-06  0.7234E-03  0.4355E-04  0.3819E+05
   -1.800012   30.62524  0.3610E-13  0.1014E-04  0.1619E-06  0.5126E-03  0.3723E-04  0.8594E+05
   -1.850010   30.63107  0.3610E-13  0.8603E-05  0.2602E-06  0.4612E-03  0.2680E-04  0.1412E+08
   -1.900008   30.63016  0.3610E-13  0.6758E-05  0.5517E-06  0.2096E-03  0.2161E-04  0.7143E+06
   -1.950005   30.64880  0.3610E-13  0.4738E-05  0.1364E-05  0.1905E-03  0.1155E-04 -0.6637E+06
   -2.000002   30.65059  0.3610E-13  0.0000E+00  0.0000E+00  0.0000E+00  0.2154E-04  0.0000E+00
