 1 - depth, m
 2 - temperature, C
 3 - salinity, kg/kg
 4 - turbulent kinetic energy, m**2/s**2
 5 - dissipation rate, m**2/s**3
 6 - kinematic heat conductance, m**2/s
 7 - modulus of horizontal velocity, m/s
 8 - Richardson number, n/d
   -0.000000   30.44028  0.1693E-14  0.4499E-05  0.2652E-06  0.4640E-04  0.4986E-03  0.1544E+06
   -0.049997   30.47026  0.1693E-14  0.8014E-05  0.1177E-06  0.1872E-03  0.2749E-03  0.7515E+03
   -0.099994   30.47992  0.1693E-14  0.9660E-05  0.8251E-07  0.4082E-03  0.2033E-03  0.2440E+03
   -0.149992   30.48280  0.1693E-14  0.1070E-04  0.6990E-07  0.4901E-03  0.1800E-03  0.1212E+03
   -0.199991   30.48510  0.1693E-14  0.1152E-04  0.6243E-07  0.6498E-03  0.1610E-03  0.8004E+02
   -0.249989   30.48679  0.1693E-14  0.1217E-04  0.5751E-07  0.7749E-03  0.1468E-03  0.5967E+02
   -0.299988   30.48817  0.1693E-14  0.1271E-04  0.5399E-07  0.8982E-03  0.1348E-03  0.4802E+02
   -0.349988   30.48933  0.1693E-14  0.1316E-04  0.5135E-07  0.1010E-02  0.1246E-03  0.4113E+02
   -0.399988   30.49035  0.1693E-14  0.1354E-04  0.4931E-07  0.1113E-02  0.1156E-03  0.3690E+02
   -0.449988   30.49125  0.1693E-14  0.1387E-04  0.4765E-07  0.1208E-02  0.1076E-03  0.3456E+02
   -0.499988   30.49207  0.1693E-14  0.1416E-04  0.4628E-07  0.1296E-02  0.1005E-03  0.3381E+02
   -0.549989   30.49282  0.1693E-14  0.1441E-04  0.4515E-07  0.1376E-02  0.9417E-04  0.3323E+02
   -0.599990   30.49351  0.1693E-14  0.1463E-04  0.4420E-07  0.1449E-02  0.8842E-04  0.3345E+02
   -0.649991   30.49416  0.1693E-14  0.1482E-04  0.4341E-07  0.1514E-02  0.8319E-04  0.3372E+02
   -0.699992   30.49478  0.1693E-14  0.1499E-04  0.4275E-07  0.1572E-02  0.7837E-04  0.3471E+02
   -0.749993   30.49536  0.1693E-14  0.1513E-04  0.4221E-07  0.1623E-02  0.7393E-04  0.3567E+02
   -0.799995   30.49593  0.1693E-14  0.1525E-04  0.4177E-07  0.1666E-02  0.6978E-04  0.3743E+02
   -0.849996   30.49647  0.1693E-14  0.1535E-04  0.4144E-07  0.1701E-02  0.6592E-04  0.3915E+02
   -0.899998   30.49699  0.1693E-14  0.1542E-04  0.4120E-07  0.1729E-02  0.6228E-04  0.4180E+02
   -0.950000   30.49751  0.1693E-14  0.1548E-04  0.4105E-07  0.1749E-02  0.5886E-04  0.4451E+02
   -1.000001   30.49801  0.1693E-14  0.1552E-04  0.4099E-07  0.1760E-02  0.5562E-04  0.4837E+02
   -1.050003   30.49851  0.1693E-14  0.1554E-04  0.4103E-07  0.1763E-02  0.5255E-04  0.5457E+02
   -1.100005   30.49901  0.1693E-14  0.1553E-04  0.4117E-07  0.1842E-02  0.4961E-04  0.1838E+03
   -1.150006   30.49949  0.1693E-14  0.1551E-04  0.4144E-07  0.1691E-02  0.4698E-04  0.4033E+03
   -1.200008   30.50000  0.1693E-14  0.1546E-04  0.4183E-07  0.1710E-02  0.4428E-04  0.7837E+02
   -1.250009   30.50051  0.1693E-14  0.1539E-04  0.4238E-07  0.1681E-02  0.4168E-04  0.8417E+02
   -1.300011   30.50102  0.1693E-14  0.1529E-04  0.4311E-07  0.1634E-02  0.3918E-04  0.9774E+02
   -1.350012   30.50156  0.1693E-14  0.1517E-04  0.4409E-07  0.1577E-02  0.3675E-04  0.1171E+03
   -1.400013   30.50211  0.1693E-14  0.1501E-04  0.4538E-07  0.1504E-02  0.3440E-04  0.1431E+03
   -1.450014   30.50268  0.1693E-14  0.1481E-04  0.4710E-07  0.1428E-02  0.3208E-04  0.1818E+03
   -1.500014   30.50329  0.1693E-14  0.1456E-04  0.4943E-07  0.1321E-02  0.2981E-04  0.2424E+03
   -1.550015   30.50396  0.1693E-14  0.1426E-04  0.5266E-07  0.1234E-02  0.2753E-04  0.3405E+03
   -1.600015   30.50468  0.1693E-14  0.1388E-04  0.5746E-07  0.1092E-02  0.2530E-04  0.6231E+03
   -1.650015   30.50554  0.1693E-14  0.1339E-04  0.6475E-07  0.1012E-02  0.2294E-04  0.1122E+04
   -1.700014   30.50650  0.1693E-14  0.1272E-04  0.7760E-07  0.8290E-03  0.2065E-04 -0.2832E+05
   -1.750013   30.50810  0.1693E-14  0.1181E-04  0.9900E-07  0.7506E-03  0.1771E-04  0.1543E+06
   -1.800012   30.50966  0.1693E-14  0.1053E-04  0.1442E-06  0.5282E-03  0.1522E-04  0.2843E+07
   -1.850010   30.51474  0.1693E-14  0.9042E-05  0.2265E-06  0.4839E-03  0.1121E-04  0.8877E+08
   -1.900008   30.51462  0.1693E-14  0.7188E-05  0.4673E-06  0.2135E-03  0.9084E-05 -0.3032E+07
   -1.950006   30.53252  0.1693E-14  0.4983E-05  0.1191E-05  0.1768E-03  0.4994E-05 -0.1365E+08
   -2.000003   30.53525  0.1693E-14  0.0000E+00  0.0000E+00  0.0000E+00  0.8584E-05  0.0000E+00
