 1 - depth, m
 2 - temperature, C
 3 - salinity, kg/kg
 4 - turbulent kinetic energy, m**2/s**2
 5 - dissipation rate, m**2/s**3
 6 - kinematic heat conductance, m**2/s
 7 - modulus of horizontal velocity, m/s
 8 - Richardson number, n/d
   -0.000000   30.76696  0.9689E-13  0.5073E-05  0.3162E-06  0.5170E-04  0.2086E-02  0.7101E+04
   -0.049997   30.79810  0.9689E-13  0.8527E-05  0.1406E-06  0.1809E-03  0.1177E-02  0.6758E+04
   -0.099994   30.80972  0.9690E-13  0.1029E-04  0.9686E-07  0.3956E-03  0.8746E-03  0.1222E+02
   -0.149992   30.81311  0.9690E-13  0.1140E-04  0.8104E-07  0.4801E-03  0.7719E-03  0.6018E+01
   -0.199991   30.81578  0.9690E-13  0.1227E-04  0.7179E-07  0.6396E-03  0.6896E-03  0.3849E+01
   -0.249989   30.81772  0.9690E-13  0.1295E-04  0.6573E-07  0.7652E-03  0.6278E-03  0.2838E+01
   -0.299988   30.81930  0.9690E-13  0.1351E-04  0.6141E-07  0.8895E-03  0.5765E-03  0.2250E+01
   -0.349988   30.82062  0.9690E-13  0.1397E-04  0.5817E-07  0.1002E-02  0.5324E-03  0.1927E+01
   -0.399988   30.82176  0.9690E-13  0.1436E-04  0.5564E-07  0.1104E-02  0.4935E-03  0.1723E+01
   -0.449988   30.82277  0.9690E-13  0.1469E-04  0.5357E-07  0.1201E-02  0.4590E-03  0.1635E+01
   -0.499988   30.82369  0.9690E-13  0.1499E-04  0.5185E-07  0.1291E-02  0.4283E-03  0.1595E+01
   -0.549989   30.82452  0.9690E-13  0.1524E-04  0.5040E-07  0.1374E-02  0.4006E-03  0.1580E+01
   -0.599989   30.82528  0.9690E-13  0.1545E-04  0.4918E-07  0.1450E-02  0.3756E-03  0.1572E+01
   -0.649990   30.82599  0.9690E-13  0.1563E-04  0.4815E-07  0.1517E-02  0.3529E-03  0.1588E+01
   -0.699992   30.82666  0.9690E-13  0.1579E-04  0.4728E-07  0.1575E-02  0.3321E-03  0.1608E+01
   -0.749993   30.82730  0.9690E-13  0.1591E-04  0.4655E-07  0.1626E-02  0.3129E-03  0.1654E+01
   -0.799994   30.82791  0.9690E-13  0.1601E-04  0.4595E-07  0.1668E-02  0.2952E-03  0.1707E+01
   -0.849996   30.82849  0.9690E-13  0.1608E-04  0.4547E-07  0.1702E-02  0.2787E-03  0.1793E+01
   -0.899998   30.82906  0.9690E-13  0.1614E-04  0.4509E-07  0.1728E-02  0.2633E-03  0.1890E+01
   -0.949999   30.82961  0.9690E-13  0.1617E-04  0.4482E-07  0.1745E-02  0.2488E-03  0.2027E+01
   -1.000001   30.83015  0.9690E-13  0.1617E-04  0.4465E-07  0.1754E-02  0.2351E-03  0.2181E+01
   -1.050003   30.83068  0.9690E-13  0.1616E-04  0.4460E-07  0.1753E-02  0.2221E-03  0.2478E+01
   -1.100004   30.83121  0.9690E-13  0.1612E-04  0.4466E-07  0.1848E-02  0.2097E-03  0.8108E+01
   -1.150006   30.83171  0.9690E-13  0.1606E-04  0.4487E-07  0.1657E-02  0.1987E-03  0.1902E+02
   -1.200008   30.83226  0.9690E-13  0.1598E-04  0.4522E-07  0.1689E-02  0.1871E-03  0.3606E+01
   -1.250009   30.83280  0.9690E-13  0.1587E-04  0.4576E-07  0.1657E-02  0.1761E-03  0.3830E+01
   -1.300010   30.83334  0.9690E-13  0.1573E-04  0.4651E-07  0.1606E-02  0.1655E-03  0.4504E+01
   -1.350012   30.83390  0.9690E-13  0.1555E-04  0.4756E-07  0.1544E-02  0.1552E-03  0.5410E+01
   -1.400013   30.83448  0.9690E-13  0.1534E-04  0.4899E-07  0.1464E-02  0.1451E-03  0.6739E+01
   -1.450013   30.83509  0.9690E-13  0.1508E-04  0.5096E-07  0.1384E-02  0.1353E-03  0.8669E+01
   -1.500014   30.83574  0.9690E-13  0.1477E-04  0.5372E-07  0.1272E-02  0.1255E-03  0.1196E+02
   -1.550014   30.83646  0.9690E-13  0.1439E-04  0.5768E-07  0.1185E-02  0.1158E-03  0.1753E+02
   -1.600014   30.83724  0.9690E-13  0.1391E-04  0.6384E-07  0.1046E-02  0.1061E-03  0.2561E+04
   -1.650014   30.83820  0.9690E-13  0.1329E-04  0.7361E-07  0.9592E-03  0.9575E-04  0.5366E+04
   -1.700014   30.83936  0.9690E-13  0.1243E-04  0.9081E-07  0.7877E-03  0.8518E-04 -0.2025E+03
   -1.750013   30.84133  0.9690E-13  0.1133E-04  0.1187E-06  0.7017E-03  0.7161E-04  0.1686E+05
   -1.800011   30.84290  0.9690E-13  0.9889E-05  0.1796E-06  0.4864E-03  0.6123E-04  0.1727E+06
   -1.850010   30.85016  0.9690E-13  0.8341E-05  0.2944E-06  0.4510E-03  0.4275E-04  0.7402E+08
   -1.900008   30.84807  0.9690E-13  0.6577E-05  0.6220E-06  0.2059E-03  0.3483E-04 -0.3657E+05
   -1.950005   30.86911  0.9690E-13  0.4653E-05  0.1516E-05  0.1996E-03  0.1829E-04 -0.8880E+06
   -2.000002   30.87039  0.9690E-13  0.0000E+00  0.0000E+00  0.0000E+00  0.3575E-04  0.0000E+00
