 1 - depth, m
 2 - temperature, C
 3 - salinity, kg/kg
 4 - turbulent kinetic energy, m**2/s**2
 5 - dissipation rate, m**2/s**3
 6 - kinematic heat conductance, m**2/s
 7 - modulus of horizontal velocity, m/s
 8 - Richardson number, n/d
   -0.000000   31.11182  0.1905E-13  0.4957E-05  0.3151E-06  0.5175E-04  0.1659E-02  0.6877E+04
   -0.049997   31.14173  0.1905E-13  0.8455E-05  0.1404E-06  0.1773E-03  0.9537E-03  0.2218E+04
   -0.099994   31.15370  0.1905E-13  0.1029E-04  0.9611E-07  0.4047E-03  0.6958E-03  0.1684E+02
   -0.149992   31.15693  0.1905E-13  0.1143E-04  0.8053E-07  0.4845E-03  0.6149E-03  0.8259E+01
   -0.199991   31.15951  0.1905E-13  0.1233E-04  0.7145E-07  0.6508E-03  0.5491E-03  0.5277E+01
   -0.249989   31.16138  0.1905E-13  0.1304E-04  0.6554E-07  0.7782E-03  0.5001E-03  0.3891E+01
   -0.299988   31.16290  0.1905E-13  0.1362E-04  0.6134E-07  0.9065E-03  0.4593E-03  0.3097E+01
   -0.349988   31.16417  0.1905E-13  0.1411E-04  0.5822E-07  0.1022E-02  0.4244E-03  0.2647E+01
   -0.399987   31.16528  0.1905E-13  0.1452E-04  0.5580E-07  0.1129E-02  0.3936E-03  0.2359E+01
   -0.449988   31.16626  0.1905E-13  0.1488E-04  0.5384E-07  0.1227E-02  0.3665E-03  0.2211E+01
   -0.499988   31.16715  0.1905E-13  0.1519E-04  0.5223E-07  0.1318E-02  0.3425E-03  0.2150E+01
   -0.549988   31.16796  0.1905E-13  0.1545E-04  0.5090E-07  0.1401E-02  0.3210E-03  0.2119E+01
   -0.599989   31.16871  0.1905E-13  0.1569E-04  0.4978E-07  0.1476E-02  0.3016E-03  0.2121E+01
   -0.649990   31.16941  0.1905E-13  0.1589E-04  0.4884E-07  0.1544E-02  0.2838E-03  0.2145E+01
   -0.699991   31.17008  0.1905E-13  0.1607E-04  0.4807E-07  0.1604E-02  0.2676E-03  0.2196E+01
   -0.749993   31.17071  0.1905E-13  0.1621E-04  0.4743E-07  0.1656E-02  0.2525E-03  0.2267E+01
   -0.799994   31.17131  0.1905E-13  0.1634E-04  0.4691E-07  0.1700E-02  0.2385E-03  0.2366E+01
   -0.849996   31.17189  0.1905E-13  0.1644E-04  0.4650E-07  0.1736E-02  0.2254E-03  0.2486E+01
   -0.899997   31.17246  0.1905E-13  0.1651E-04  0.4621E-07  0.1764E-02  0.2131E-03  0.2642E+01
   -0.949999   31.17301  0.1905E-13  0.1657E-04  0.4602E-07  0.1784E-02  0.2015E-03  0.2827E+01
   -1.000001   31.17355  0.1905E-13  0.1660E-04  0.4594E-07  0.1795E-02  0.1906E-03  0.3059E+01
   -1.050002   31.17409  0.1905E-13  0.1661E-04  0.4597E-07  0.1796E-02  0.1801E-03  0.3467E+01
   -1.100004   31.17462  0.1905E-13  0.1660E-04  0.4612E-07  0.1884E-02  0.1702E-03  0.1155E+02
   -1.150006   31.17513  0.1905E-13  0.1657E-04  0.4642E-07  0.1713E-02  0.1613E-03  0.2600E+02
   -1.200007   31.17569  0.1905E-13  0.1651E-04  0.4685E-07  0.1738E-02  0.1521E-03  0.5019E+01
   -1.250009   31.17623  0.1905E-13  0.1642E-04  0.4748E-07  0.1708E-02  0.1433E-03  0.5374E+01
   -1.300010   31.17679  0.1905E-13  0.1631E-04  0.4833E-07  0.1657E-02  0.1348E-03  0.6289E+01
   -1.350011   31.17736  0.1905E-13  0.1616E-04  0.4946E-07  0.1597E-02  0.1265E-03  0.7552E+01
   -1.400012   31.17796  0.1905E-13  0.1597E-04  0.5097E-07  0.1520E-02  0.1185E-03  0.9331E+01
   -1.450013   31.17858  0.1905E-13  0.1574E-04  0.5300E-07  0.1440E-02  0.1106E-03  0.1194E+02
   -1.500014   31.17925  0.1905E-13  0.1546E-04  0.5580E-07  0.1329E-02  0.1028E-03  0.1625E+02
   -1.550014   31.17998  0.1905E-13  0.1511E-04  0.5974E-07  0.1242E-02  0.9496E-04  0.2351E+02
   -1.600014   31.18077  0.1905E-13  0.1467E-04  0.6574E-07  0.1097E-02  0.8727E-04  0.5737E+02
   -1.650014   31.18174  0.1905E-13  0.1409E-04  0.7499E-07  0.1013E-02  0.7900E-04  0.1249E+03
   -1.700013   31.18285  0.1905E-13  0.1331E-04  0.9120E-07  0.8286E-03  0.7084E-04  0.1530E+04
   -1.750012   31.18475  0.1905E-13  0.1228E-04  0.1177E-06  0.7500E-03  0.6029E-04  0.1046E+06
   -1.800011   31.18638  0.1905E-13  0.1092E-04  0.1723E-06  0.5291E-03  0.5191E-04 -0.1416E+04
   -1.850009   31.19277  0.1905E-13  0.9359E-05  0.2769E-06  0.4820E-03  0.3776E-04  0.1352E+08
   -1.900007   31.19176  0.1905E-13  0.7462E-05  0.5800E-06  0.2227E-03  0.3073E-04 -0.1311E+06
   -1.950004   31.21214  0.1905E-13  0.5224E-05  0.1450E-05  0.1881E-03  0.1686E-04 -0.4211E+06
   -2.000001   31.21489  0.1905E-13  0.0000E+00  0.0000E+00  0.0000E+00  0.2998E-04  0.0000E+00
