 1 - depth, m
 2 - temperature, C
 3 - salinity, kg/kg
 4 - turbulent kinetic energy, m**2/s**2
 5 - dissipation rate, m**2/s**3
 6 - kinematic heat conductance, m**2/s
 7 - modulus of horizontal velocity, m/s
 8 - Richardson number, n/d
   -0.000000   29.77439  0.2917E-13  0.4904E-05  0.2647E-06  0.4971E-04  0.3159E-02  0.1469E+04
   -0.049997   29.80188  0.2917E-13  0.7958E-05  0.1152E-06  0.1930E-03  0.1692E-02  0.9227E+02
   -0.099994   29.81033  0.2917E-13  0.9379E-05  0.8192E-07  0.3750E-03  0.1325E-02  0.5676E+01
   -0.149992   29.81335  0.2917E-13  0.1032E-04  0.6910E-07  0.4682E-03  0.1178E-02  0.2910E+01
   -0.199991   29.81567  0.2917E-13  0.1107E-04  0.6157E-07  0.6024E-03  0.1063E-02  0.1962E+01
   -0.249989   29.81742  0.2917E-13  0.1169E-04  0.5655E-07  0.7167E-03  0.9722E-03  0.1578E+01
   -0.299989   29.81886  0.2917E-13  0.1223E-04  0.5284E-07  0.8336E-03  0.8924E-03  0.1418E+01
   -0.349988   29.82007  0.2917E-13  0.1270E-04  0.4994E-07  0.9527E-03  0.8183E-03  0.1385E+01
   -0.399988   29.82110  0.2917E-13  0.1314E-04  0.4758E-07  0.1074E-02  0.7481E-03  0.1358E+01
   -0.449988   29.82200  0.2917E-13  0.1352E-04  0.4563E-07  0.1192E-02  0.6837E-03  0.1349E+01
   -0.499988   29.82279  0.2917E-13  0.1386E-04  0.4401E-07  0.1302E-02  0.6262E-03  0.1343E+01
   -0.549989   29.82351  0.2917E-13  0.1416E-04  0.4268E-07  0.1403E-02  0.5748E-03  0.1335E+01
   -0.599990   29.82416  0.2917E-13  0.1441E-04  0.4159E-07  0.1494E-02  0.5289E-03  0.1322E+01
   -0.649991   29.82476  0.2917E-13  0.1462E-04  0.4069E-07  0.1575E-02  0.4878E-03  0.1312E+01
   -0.699992   29.82533  0.2917E-13  0.1479E-04  0.3996E-07  0.1643E-02  0.4511E-03  0.1297E+01
   -0.749993   29.82586  0.2917E-13  0.1492E-04  0.3939E-07  0.1699E-02  0.4181E-03  0.1288E+01
   -0.799995   29.82637  0.2917E-13  0.1503E-04  0.3895E-07  0.1743E-02  0.3886E-03  0.1277E+01
   -0.849996   29.82687  0.2917E-13  0.1510E-04  0.3863E-07  0.1775E-02  0.3619E-03  0.1278E+01
   -0.899998   29.82735  0.2917E-13  0.1515E-04  0.3841E-07  0.1795E-02  0.3380E-03  0.1279E+01
   -0.950000   29.82782  0.2917E-13  0.1518E-04  0.3830E-07  0.1805E-02  0.3162E-03  0.1300E+01
   -1.000002   29.82828  0.2917E-13  0.1518E-04  0.3828E-07  0.1806E-02  0.2965E-03  0.1329E+01
   -1.050003   29.82874  0.2917E-13  0.1517E-04  0.3836E-07  0.1793E-02  0.2785E-03  0.1428E+01
   -1.100005   29.82920  0.2917E-13  0.1513E-04  0.3852E-07  0.1909E-02  0.2620E-03  0.4323E+01
   -1.150007   29.82963  0.2917E-13  0.1508E-04  0.3881E-07  0.1670E-02  0.2487E-03  0.1017E+02
   -1.200008   29.83012  0.2917E-13  0.1500E-04  0.3920E-07  0.1719E-02  0.2342E-03  0.1944E+01
   -1.250010   29.83059  0.2917E-13  0.1490E-04  0.3976E-07  0.1684E-02  0.2205E-03  0.2062E+01
   -1.300011   29.83107  0.2917E-13  0.1478E-04  0.4051E-07  0.1629E-02  0.2073E-03  0.2425E+01
   -1.350012   29.83157  0.2917E-13  0.1462E-04  0.4150E-07  0.1566E-02  0.1945E-03  0.2903E+01
   -1.400013   29.83208  0.2917E-13  0.1443E-04  0.4282E-07  0.1483E-02  0.1820E-03  0.3615E+01
   -1.450014   29.83263  0.2917E-13  0.1420E-04  0.4459E-07  0.1403E-02  0.1697E-03  0.4616E+01
   -1.500015   29.83320  0.2917E-13  0.1393E-04  0.4703E-07  0.1287E-02  0.1576E-03  0.6321E+01
   -1.550015   29.83384  0.2917E-13  0.1359E-04  0.5048E-07  0.1202E-02  0.1454E-03  0.9095E+01
   -1.600015   29.83453  0.2917E-13  0.1316E-04  0.5579E-07  0.1055E-02  0.1334E-03  0.1872E+02
   -1.650015   29.83540  0.2917E-13  0.1261E-04  0.6397E-07  0.9732E-03  0.1204E-03  0.1281E+03
   -1.700015   29.83636  0.2917E-13  0.1186E-04  0.7838E-07  0.7936E-03  0.1076E-03  0.4711E+03
   -1.750014   29.83810  0.2917E-13  0.1087E-04  0.1021E-06  0.7112E-03  0.9068E-04  0.8602E+05
   -1.800012   29.83950  0.2917E-13  0.9532E-05  0.1531E-06  0.4906E-03  0.7769E-04  0.8016E+04
   -1.850011   29.84558  0.2917E-13  0.8060E-05  0.2480E-06  0.4536E-03  0.5468E-04  0.5344E+07
   -1.900009   29.84423  0.2917E-13  0.6363E-05  0.5218E-06  0.2000E-03  0.4451E-04 -0.6337E+05
   -1.950006   29.86289  0.2917E-13  0.4462E-05  0.1281E-05  0.1908E-03  0.2356E-04 -0.4770E+06
   -2.000003   29.86409  0.2917E-13  0.0000E+00  0.0000E+00  0.0000E+00  0.4463E-04  0.0000E+00
