 1 - depth, m
 2 - temperature, C
 3 - salinity, kg/kg
 4 - turbulent kinetic energy, m**2/s**2
 5 - dissipation rate, m**2/s**3
 6 - kinematic heat conductance, m**2/s
 7 - modulus of horizontal velocity, m/s
 8 - Richardson number, n/d
   -0.000000   30.70317  0.2822E-13  0.4903E-05  0.3079E-06  0.5012E-04  0.6351E-03  0.5491E+05
   -0.049997   30.73558  0.2822E-13  0.8606E-05  0.1367E-06  0.1847E-03  0.3609E-03  0.9940E+03
   -0.099994   30.74722  0.2822E-13  0.1041E-04  0.9459E-07  0.4172E-03  0.2626E-03  0.1589E+03
   -0.149992   30.75047  0.2822E-13  0.1153E-04  0.7982E-07  0.4934E-03  0.2327E-03  0.7893E+02
   -0.199991   30.75310  0.2822E-13  0.1240E-04  0.7106E-07  0.6593E-03  0.2080E-03  0.5165E+02
   -0.249989   30.75501  0.2822E-13  0.1309E-04  0.6528E-07  0.7862E-03  0.1895E-03  0.3860E+02
   -0.299988   30.75656  0.2822E-13  0.1366E-04  0.6113E-07  0.9124E-03  0.1741E-03  0.3080E+02
   -0.349988   30.75787  0.2822E-13  0.1412E-04  0.5801E-07  0.1027E-02  0.1609E-03  0.2648E+02
   -0.399988   30.75900  0.2822E-13  0.1451E-04  0.5556E-07  0.1131E-02  0.1493E-03  0.2354E+02
   -0.449988   30.76000  0.2822E-13  0.1485E-04  0.5357E-07  0.1228E-02  0.1390E-03  0.2219E+02
   -0.499988   30.76090  0.2822E-13  0.1514E-04  0.5191E-07  0.1317E-02  0.1299E-03  0.2149E+02
   -0.549989   30.76173  0.2822E-13  0.1539E-04  0.5051E-07  0.1399E-02  0.1217E-03  0.2127E+02
   -0.599990   30.76249  0.2822E-13  0.1560E-04  0.4933E-07  0.1472E-02  0.1143E-03  0.2115E+02
   -0.649991   30.76321  0.2822E-13  0.1578E-04  0.4833E-07  0.1538E-02  0.1075E-03  0.2148E+02
   -0.699992   30.76388  0.2822E-13  0.1593E-04  0.4747E-07  0.1597E-02  0.1013E-03  0.2181E+02
   -0.749993   30.76452  0.2822E-13  0.1606E-04  0.4675E-07  0.1648E-02  0.9558E-04  0.2260E+02
   -0.799995   30.76513  0.2822E-13  0.1616E-04  0.4614E-07  0.1691E-02  0.9025E-04  0.2336E+02
   -0.849996   30.76571  0.2822E-13  0.1623E-04  0.4564E-07  0.1726E-02  0.8525E-04  0.2463E+02
   -0.899998   30.76628  0.2822E-13  0.1629E-04  0.4525E-07  0.1753E-02  0.8058E-04  0.2589E+02
   -0.949999   30.76683  0.2822E-13  0.1632E-04  0.4496E-07  0.1772E-02  0.7615E-04  0.2778E+02
   -1.000001   30.76737  0.2822E-13  0.1633E-04  0.4477E-07  0.1783E-02  0.7198E-04  0.2971E+02
   -1.050003   30.76790  0.2822E-13  0.1632E-04  0.4469E-07  0.1784E-02  0.6800E-04  0.3371E+02
   -1.100005   30.76842  0.2822E-13  0.1628E-04  0.4472E-07  0.1874E-02  0.6423E-04  0.1109E+03
   -1.150006   30.76891  0.2822E-13  0.1622E-04  0.4489E-07  0.1695E-02  0.6085E-04  0.2496E+03
   -1.200008   30.76946  0.2822E-13  0.1614E-04  0.4519E-07  0.1725E-02  0.5734E-04  0.4817E+02
   -1.250009   30.76999  0.2822E-13  0.1603E-04  0.4567E-07  0.1694E-02  0.5399E-04  0.5080E+02
   -1.300011   30.77052  0.2822E-13  0.1590E-04  0.4635E-07  0.1644E-02  0.5075E-04  0.5949E+02
   -1.350012   30.77106  0.2822E-13  0.1573E-04  0.4731E-07  0.1584E-02  0.4763E-04  0.7045E+02
   -1.400013   30.77163  0.2822E-13  0.1552E-04  0.4861E-07  0.1507E-02  0.4457E-04  0.8696E+02
   -1.450014   30.77222  0.2822E-13  0.1527E-04  0.5041E-07  0.1427E-02  0.4157E-04  0.1097E+03
   -1.500014   30.77284  0.2822E-13  0.1497E-04  0.5292E-07  0.1317E-02  0.3862E-04  0.1483E+03
   -1.550015   30.77352  0.2822E-13  0.1461E-04  0.5649E-07  0.1228E-02  0.3566E-04  0.2102E+03
   -1.600015   30.77426  0.2822E-13  0.1416E-04  0.6196E-07  0.1088E-02  0.3275E-04  0.3990E+03
   -1.650014   30.77515  0.2822E-13  0.1358E-04  0.7051E-07  0.1001E-02  0.2964E-04  0.3812E+04
   -1.700014   30.77617  0.2822E-13  0.1279E-04  0.8563E-07  0.8256E-03  0.2654E-04  0.4647E+05
   -1.750013   30.77790  0.2822E-13  0.1175E-04  0.1107E-06  0.7383E-03  0.2255E-04  0.8777E+06
   -1.800012   30.77947  0.2822E-13  0.1033E-04  0.1682E-06  0.5170E-03  0.1928E-04  0.1127E+07
   -1.850010   30.78552  0.2822E-13  0.8786E-05  0.2683E-06  0.4734E-03  0.1380E-04  0.2534E+08
   -1.900008   30.78426  0.2822E-13  0.6985E-05  0.5566E-06  0.2202E-03  0.1124E-04  0.3151E+07
   -1.950005   30.80281  0.2822E-13  0.4877E-05  0.1388E-05  0.1894E-03  0.6084E-05 -0.3505E+07
   -2.000002   30.80474  0.2822E-13  0.0000E+00  0.0000E+00  0.0000E+00  0.1128E-04  0.0000E+00
