 1 - depth, m
 2 - temperature, C
 3 - salinity, kg/kg
 4 - turbulent kinetic energy, m**2/s**2
 5 - dissipation rate, m**2/s**3
 6 - kinematic heat conductance, m**2/s
 7 - modulus of horizontal velocity, m/s
 8 - Richardson number, n/d
   -0.000000   30.43706  0.4004E-13  0.4934E-05  0.3111E-06  0.4947E-04  0.9447E-03  0.1682E+04
   -0.049997   30.46975  0.4004E-13  0.8578E-05  0.1379E-06  0.1875E-03  0.5275E-03  0.6433E+03
   -0.099994   30.48140  0.4004E-13  0.1039E-04  0.9562E-07  0.4098E-03  0.3899E-03  0.5531E+02
   -0.149992   30.48470  0.4004E-13  0.1153E-04  0.8044E-07  0.4942E-03  0.3448E-03  0.2730E+02
   -0.199990   30.48732  0.4004E-13  0.1242E-04  0.7153E-07  0.6590E-03  0.3083E-03  0.1759E+02
   -0.249989   30.48923  0.4004E-13  0.1312E-04  0.6570E-07  0.7860E-03  0.2810E-03  0.1307E+02
   -0.299988   30.49079  0.4004E-13  0.1370E-04  0.6155E-07  0.9138E-03  0.2583E-03  0.1042E+02
   -0.349988   30.49209  0.4004E-13  0.1418E-04  0.5844E-07  0.1029E-02  0.2387E-03  0.8947E+01
   -0.399987   30.49323  0.4004E-13  0.1459E-04  0.5602E-07  0.1134E-02  0.2215E-03  0.7966E+01
   -0.449987   30.49424  0.4004E-13  0.1494E-04  0.5406E-07  0.1232E-02  0.2063E-03  0.7501E+01
   -0.499988   30.49515  0.4004E-13  0.1524E-04  0.5245E-07  0.1322E-02  0.1928E-03  0.7278E+01
   -0.549988   30.49598  0.4004E-13  0.1550E-04  0.5111E-07  0.1404E-02  0.1807E-03  0.7203E+01
   -0.599989   30.49675  0.4004E-13  0.1573E-04  0.4998E-07  0.1478E-02  0.1698E-03  0.7188E+01
   -0.649990   30.49747  0.4004E-13  0.1593E-04  0.4904E-07  0.1545E-02  0.1599E-03  0.7304E+01
   -0.699991   30.49815  0.4004E-13  0.1610E-04  0.4825E-07  0.1604E-02  0.1507E-03  0.7452E+01
   -0.749993   30.49880  0.4004E-13  0.1624E-04  0.4759E-07  0.1655E-02  0.1422E-03  0.7730E+01
   -0.799994   30.49942  0.4004E-13  0.1635E-04  0.4706E-07  0.1698E-02  0.1343E-03  0.8037E+01
   -0.849995   30.50002  0.4004E-13  0.1645E-04  0.4665E-07  0.1733E-02  0.1269E-03  0.8493E+01
   -0.899997   30.50060  0.4004E-13  0.1652E-04  0.4634E-07  0.1760E-02  0.1200E-03  0.8990E+01
   -0.949999   30.50116  0.4004E-13  0.1656E-04  0.4615E-07  0.1778E-02  0.1135E-03  0.9676E+01
   -1.000000   30.50172  0.4004E-13  0.1659E-04  0.4606E-07  0.1789E-02  0.1073E-03  0.1043E+02
   -1.050002   30.50227  0.4004E-13  0.1659E-04  0.4608E-07  0.1788E-02  0.1014E-03  0.1189E+02
   -1.100004   30.50282  0.4004E-13  0.1657E-04  0.4623E-07  0.1881E-02  0.9582E-04  0.3908E+02
   -1.150005   30.50334  0.4004E-13  0.1653E-04  0.4653E-07  0.1695E-02  0.9083E-04  0.9062E+02
   -1.200007   30.50391  0.4004E-13  0.1646E-04  0.4697E-07  0.1725E-02  0.8560E-04  0.1738E+02
   -1.250008   30.50447  0.4004E-13  0.1637E-04  0.4760E-07  0.1693E-02  0.8062E-04  0.1853E+02
   -1.300010   30.50504  0.4004E-13  0.1624E-04  0.4846E-07  0.1641E-02  0.7582E-04  0.2188E+02
   -1.350011   30.50563  0.4004E-13  0.1608E-04  0.4962E-07  0.1580E-02  0.7116E-04  0.2626E+02
   -1.400012   30.50624  0.4004E-13  0.1588E-04  0.5117E-07  0.1499E-02  0.6660E-04  0.3283E+02
   -1.450013   30.50688  0.4004E-13  0.1564E-04  0.5327E-07  0.1419E-02  0.6213E-04  0.4213E+02
   -1.500013   30.50757  0.4004E-13  0.1534E-04  0.5618E-07  0.1305E-02  0.5772E-04  0.5827E+02
   -1.550013   30.50833  0.4004E-13  0.1497E-04  0.6031E-07  0.1220E-02  0.5329E-04  0.8500E+02
   -1.600013   30.50915  0.4004E-13  0.1450E-04  0.6666E-07  0.1075E-02  0.4893E-04  0.3261E+03
   -1.650013   30.51017  0.4005E-13  0.1390E-04  0.7655E-07  0.9926E-03  0.4422E-04  0.6981E+03
   -1.700013   30.51135  0.4005E-13  0.1305E-04  0.9412E-07  0.8090E-03  0.3952E-04 -0.2762E+05
   -1.750012   30.51343  0.4005E-13  0.1197E-04  0.1225E-06  0.7321E-03  0.3339E-04  0.6621E+05
   -1.800010   30.51508  0.4005E-13  0.1053E-04  0.1847E-06  0.5025E-03  0.2870E-04  0.9150E+05
   -1.850009   30.52254  0.4005E-13  0.8964E-05  0.2996E-06  0.4746E-03  0.2036E-04  0.8196E+08
   -1.900006   30.52061  0.4005E-13  0.7157E-05  0.6190E-06  0.2165E-03  0.1671E-04 -0.3156E+07
   -1.950004   30.54296  0.4005E-13  0.5044E-05  0.1523E-05  0.1980E-03  0.9057E-05 -0.2021E+07
   -2.000001   30.54392  0.4005E-13  0.0000E+00  0.0000E+00  0.0000E+00  0.1668E-04  0.0000E+00
