 1 - depth, m
 2 - temperature, C
 3 - salinity, kg/kg
 4 - turbulent kinetic energy, m**2/s**2
 5 - dissipation rate, m**2/s**3
 6 - kinematic heat conductance, m**2/s
 7 - modulus of horizontal velocity, m/s
 8 - Richardson number, n/d
   -0.000000   30.58321  0.2523E-14  0.4599E-05  0.2782E-06  0.4923E-04  0.1589E-02  0.5467E+04
   -0.049997   30.61120  0.2523E-14  0.7886E-05  0.1238E-06  0.1746E-03  0.9035E-03  0.6511E+03
   -0.099994   30.62199  0.2523E-14  0.9577E-05  0.8521E-07  0.3939E-03  0.6597E-03  0.1928E+02
   -0.149992   30.62495  0.2523E-14  0.1064E-04  0.7157E-07  0.4751E-03  0.5824E-03  0.9428E+01
   -0.199991   30.62732  0.2523E-14  0.1147E-04  0.6361E-07  0.6346E-03  0.5198E-03  0.6056E+01
   -0.249989   30.62904  0.2523E-14  0.1214E-04  0.5842E-07  0.7589E-03  0.4730E-03  0.4461E+01
   -0.299988   30.63044  0.2523E-14  0.1268E-04  0.5474E-07  0.8828E-03  0.4340E-03  0.3560E+01
   -0.349988   30.63162  0.2523E-14  0.1314E-04  0.5200E-07  0.9951E-03  0.4006E-03  0.3040E+01
   -0.399988   30.63265  0.2523E-14  0.1352E-04  0.4988E-07  0.1098E-02  0.3711E-03  0.2718E+01
   -0.449988   30.63357  0.2523E-14  0.1386E-04  0.4817E-07  0.1194E-02  0.3452E-03  0.2543E+01
   -0.499988   30.63439  0.2523E-14  0.1415E-04  0.4677E-07  0.1282E-02  0.3223E-03  0.2484E+01
   -0.549989   30.63515  0.2523E-14  0.1441E-04  0.4561E-07  0.1362E-02  0.3018E-03  0.2443E+01
   -0.599989   30.63585  0.2523E-14  0.1464E-04  0.4465E-07  0.1436E-02  0.2832E-03  0.2456E+01
   -0.649990   30.63650  0.2523E-14  0.1483E-04  0.4385E-07  0.1501E-02  0.2663E-03  0.2480E+01
   -0.699992   30.63712  0.2523E-14  0.1500E-04  0.4319E-07  0.1560E-02  0.2507E-03  0.2551E+01
   -0.749993   30.63771  0.2523E-14  0.1515E-04  0.4265E-07  0.1610E-02  0.2364E-03  0.2628E+01
   -0.799994   30.63828  0.2523E-14  0.1527E-04  0.4223E-07  0.1653E-02  0.2231E-03  0.2757E+01
   -0.849996   30.63883  0.2523E-14  0.1537E-04  0.4190E-07  0.1689E-02  0.2106E-03  0.2890E+01
   -0.899998   30.63936  0.2523E-14  0.1546E-04  0.4168E-07  0.1716E-02  0.1989E-03  0.3088E+01
   -0.949999   30.63988  0.2523E-14  0.1552E-04  0.4155E-07  0.1736E-02  0.1879E-03  0.3296E+01
   -1.000001   30.64040  0.2523E-14  0.1556E-04  0.4151E-07  0.1747E-02  0.1775E-03  0.3589E+01
   -1.050003   30.64090  0.2523E-14  0.1558E-04  0.4158E-07  0.1749E-02  0.1676E-03  0.4060E+01
   -1.100005   30.64141  0.2523E-14  0.1558E-04  0.4176E-07  0.1829E-02  0.1582E-03  0.1362E+02
   -1.150006   30.64189  0.2523E-14  0.1556E-04  0.4207E-07  0.1675E-02  0.1498E-03  0.3056E+02
   -1.200008   30.64242  0.2523E-14  0.1551E-04  0.4250E-07  0.1695E-02  0.1411E-03  0.5899E+01
   -1.250009   30.64294  0.2523E-14  0.1545E-04  0.4310E-07  0.1664E-02  0.1328E-03  0.6356E+01
   -1.300011   30.64347  0.2523E-14  0.1535E-04  0.4390E-07  0.1616E-02  0.1248E-03  0.7422E+01
   -1.350012   30.64402  0.2523E-14  0.1522E-04  0.4495E-07  0.1559E-02  0.1170E-03  0.8949E+01
   -1.400013   30.64459  0.2523E-14  0.1506E-04  0.4634E-07  0.1484E-02  0.1094E-03  0.1103E+02
   -1.450014   30.64518  0.2523E-14  0.1486E-04  0.4818E-07  0.1408E-02  0.1020E-03  0.1413E+02
   -1.500014   30.64582  0.2523E-14  0.1461E-04  0.5069E-07  0.1297E-02  0.9471E-04  0.1916E+02
   -1.550015   30.64652  0.2523E-14  0.1430E-04  0.5417E-07  0.1214E-02  0.8740E-04  0.2728E+02
   -1.600015   30.64728  0.2523E-14  0.1390E-04  0.5940E-07  0.1068E-02  0.8026E-04  0.5135E+02
   -1.650014   30.64820  0.2523E-14  0.1339E-04  0.6728E-07  0.9910E-03  0.7261E-04  0.1205E+04
   -1.700014   30.64922  0.2523E-14  0.1269E-04  0.8137E-07  0.8072E-03  0.6531E-04  0.1893E+05
   -1.750013   30.65105  0.2523E-14  0.1173E-04  0.1048E-06  0.7323E-03  0.5557E-04  0.4005E+05
   -1.800012   30.65264  0.2523E-14  0.1042E-04  0.1539E-06  0.5097E-03  0.4780E-04  0.1647E+05
   -1.850010   30.65859  0.2523E-14  0.8893E-05  0.2453E-06  0.4666E-03  0.3478E-04  0.3748E+08
   -1.900008   30.65794  0.2523E-14  0.7038E-05  0.5072E-06  0.2077E-03  0.2811E-04  0.7274E+06
   -1.950005   30.67764  0.2523E-14  0.4916E-05  0.1279E-05  0.1827E-03  0.1526E-04 -0.1659E+07
   -2.000002   30.68044  0.2523E-14  0.0000E+00  0.0000E+00  0.0000E+00  0.2691E-04  0.0000E+00
