 1 - depth, m
 2 - temperature, C
 3 - salinity, kg/kg
 4 - turbulent kinetic energy, m**2/s**2
 5 - dissipation rate, m**2/s**3
 6 - kinematic heat conductance, m**2/s
 7 - modulus of horizontal velocity, m/s
 8 - Richardson number, n/d
   -0.000000   30.60850  0.2165E-14  0.5440E-05  0.3166E-06  0.5260E-04  0.3270E-02  0.7526E+03
   -0.049997   30.63942  0.2165E-14  0.8848E-05  0.1374E-06  0.2033E-03  0.1766E-02  0.5602E+02
   -0.099994   30.64899  0.2165E-14  0.1044E-04  0.9730E-07  0.3914E-03  0.1380E-02  0.4873E+01
   -0.149992   30.65237  0.2165E-14  0.1149E-04  0.8191E-07  0.4885E-03  0.1228E-02  0.2526E+01
   -0.199991   30.65496  0.2165E-14  0.1232E-04  0.7293E-07  0.6305E-03  0.1109E-02  0.1679E+01
   -0.249989   30.65692  0.2165E-14  0.1299E-04  0.6706E-07  0.7423E-03  0.1018E-02  0.1318E+01
   -0.299988   30.65853  0.2165E-14  0.1356E-04  0.6277E-07  0.8512E-03  0.9396E-03  0.1239E+01
   -0.349988   30.65991  0.2165E-14  0.1408E-04  0.5934E-07  0.9720E-03  0.8668E-03  0.1301E+01
   -0.399988   30.66108  0.2165E-14  0.1456E-04  0.5649E-07  0.1102E-02  0.7959E-03  0.1326E+01
   -0.449988   30.66210  0.2165E-14  0.1499E-04  0.5409E-07  0.1230E-02  0.7302E-03  0.1337E+01
   -0.499988   30.66299  0.2165E-14  0.1538E-04  0.5210E-07  0.1349E-02  0.6708E-03  0.1342E+01
   -0.549989   30.66379  0.2165E-14  0.1571E-04  0.5045E-07  0.1458E-02  0.6175E-03  0.1338E+01
   -0.599989   30.66451  0.2165E-14  0.1599E-04  0.4909E-07  0.1556E-02  0.5696E-03  0.1329E+01
   -0.649990   30.66518  0.2165E-14  0.1622E-04  0.4797E-07  0.1642E-02  0.5265E-03  0.1316E+01
   -0.699992   30.66581  0.2165E-14  0.1641E-04  0.4707E-07  0.1715E-02  0.4877E-03  0.1299E+01
   -0.749993   30.66639  0.2165E-14  0.1656E-04  0.4635E-07  0.1774E-02  0.4529E-03  0.1279E+01
   -0.799994   30.66696  0.2165E-14  0.1667E-04  0.4580E-07  0.1820E-02  0.4215E-03  0.1255E+01
   -0.849996   30.66750  0.2165E-14  0.1674E-04  0.4540E-07  0.1852E-02  0.3933E-03  0.1228E+01
   -0.899998   30.66803  0.2165E-14  0.1679E-04  0.4513E-07  0.1872E-02  0.3679E-03  0.1197E+01
   -0.949999   30.66854  0.2165E-14  0.1680E-04  0.4500E-07  0.1879E-02  0.3451E-03  0.1170E+01
   -1.000001   30.66905  0.2165E-14  0.1679E-04  0.4498E-07  0.1878E-02  0.3246E-03  0.1155E+01
   -1.050003   30.66955  0.2165E-14  0.1676E-04  0.4508E-07  0.1863E-02  0.3060E-03  0.1201E+01
   -1.100005   30.67006  0.2165E-14  0.1671E-04  0.4529E-07  0.2005E-02  0.2890E-03  0.3572E+01
   -1.150006   30.67052  0.2165E-14  0.1662E-04  0.4565E-07  0.1697E-02  0.2748E-03  0.9266E+01
   -1.200008   30.67107  0.2165E-14  0.1652E-04  0.4615E-07  0.1766E-02  0.2590E-03  0.1682E+01
   -1.250009   30.67160  0.2165E-14  0.1639E-04  0.4686E-07  0.1730E-02  0.2443E-03  0.1792E+01
   -1.300011   30.67213  0.2165E-14  0.1622E-04  0.4782E-07  0.1667E-02  0.2301E-03  0.2128E+01
   -1.350012   30.67268  0.2165E-14  0.1602E-04  0.4911E-07  0.1597E-02  0.2162E-03  0.2593E+01
   -1.400013   30.67325  0.2165E-14  0.1578E-04  0.5086E-07  0.1505E-02  0.2026E-03  0.3288E+01
   -1.450014   30.67386  0.2165E-14  0.1549E-04  0.5324E-07  0.1419E-02  0.1891E-03  0.4332E+01
   -1.500014   30.67452  0.2165E-14  0.1513E-04  0.5660E-07  0.1297E-02  0.1758E-03  0.6204E+01
   -1.550015   30.67525  0.2165E-14  0.1470E-04  0.6148E-07  0.1212E-02  0.1622E-03  0.1010E+02
   -1.600015   30.67605  0.2165E-14  0.1415E-04  0.6927E-07  0.1063E-02  0.1488E-03  0.2807E+02
   -1.650014   30.67713  0.2165E-14  0.1343E-04  0.8159E-07  0.9748E-03  0.1337E-03  0.1234E+04
   -1.700014   30.67840  0.2165E-14  0.1243E-04  0.1038E-06  0.7888E-03  0.1184E-03  0.2299E+05
   -1.750013   30.68067  0.2165E-14  0.1126E-04  0.1376E-06  0.7121E-03  0.9814E-04  0.6716E+05
   -1.800012   30.68200  0.2165E-14  0.9780E-05  0.2115E-06  0.4825E-03  0.8469E-04  0.1156E+07
   -1.850010   30.69085  0.2165E-14  0.8298E-05  0.3536E-06  0.4629E-03  0.5767E-04  0.1450E+08
   -1.900008   30.68693  0.2165E-14  0.6618E-05  0.7404E-06  0.2114E-03  0.4830E-04  0.4823E+06
   -1.950005   30.70971  0.2165E-14  0.4718E-05  0.1755E-05  0.2171E-03  0.2535E-04 -0.2217E+06
   -2.000002   30.70933  0.2165E-14  0.0000E+00  0.0000E+00  0.0000E+00  0.5105E-04  0.0000E+00
