 1 - depth, m
 2 - temperature, C
 3 - salinity, kg/kg
 4 - turbulent kinetic energy, m**2/s**2
 5 - dissipation rate, m**2/s**3
 6 - kinematic heat conductance, m**2/s
 7 - modulus of horizontal velocity, m/s
 8 - Richardson number, n/d
   -0.000000   29.91019  0.1323E-14  0.4613E-05  0.2804E-06  0.4961E-04  0.1345E-02  0.3225E+04
   -0.049997   29.93961  0.1323E-14  0.7938E-05  0.1250E-06  0.1728E-03  0.7685E-03  0.1087E+04
   -0.099994   29.95115  0.1323E-14  0.9634E-05  0.8600E-07  0.3940E-03  0.5599E-03  0.2668E+02
   -0.149992   29.95429  0.1323E-14  0.1069E-04  0.7228E-07  0.4719E-03  0.4945E-03  0.1296E+02
   -0.199991   29.95681  0.1323E-14  0.1150E-04  0.6421E-07  0.6298E-03  0.4413E-03  0.8342E+01
   -0.249989   29.95865  0.1323E-14  0.1215E-04  0.5889E-07  0.7527E-03  0.4014E-03  0.6156E+01
   -0.299989   29.96013  0.1323E-14  0.1268E-04  0.5508E-07  0.8746E-03  0.3682E-03  0.4894E+01
   -0.349988   29.96138  0.1323E-14  0.1311E-04  0.5222E-07  0.9853E-03  0.3398E-03  0.4183E+01
   -0.399988   29.96246  0.1323E-14  0.1348E-04  0.4998E-07  0.1086E-02  0.3146E-03  0.3723E+01
   -0.449988   29.96342  0.1323E-14  0.1379E-04  0.4815E-07  0.1180E-02  0.2925E-03  0.3497E+01
   -0.499988   29.96428  0.1323E-14  0.1406E-04  0.4663E-07  0.1267E-02  0.2729E-03  0.3399E+01
   -0.549989   29.96507  0.1323E-14  0.1429E-04  0.4535E-07  0.1346E-02  0.2554E-03  0.3354E+01
   -0.599990   29.96580  0.1323E-14  0.1449E-04  0.4426E-07  0.1418E-02  0.2396E-03  0.3351E+01
   -0.649991   29.96648  0.1323E-14  0.1466E-04  0.4333E-07  0.1482E-02  0.2252E-03  0.3391E+01
   -0.699992   29.96712  0.1323E-14  0.1480E-04  0.4254E-07  0.1539E-02  0.2119E-03  0.3459E+01
   -0.749993   29.96772  0.1323E-14  0.1491E-04  0.4186E-07  0.1589E-02  0.1997E-03  0.3569E+01
   -0.799995   29.96830  0.1323E-14  0.1501E-04  0.4129E-07  0.1632E-02  0.1883E-03  0.3706E+01
   -0.849997   29.96886  0.1323E-14  0.1508E-04  0.4082E-07  0.1667E-02  0.1777E-03  0.3890E+01
   -0.899998   29.96939  0.1323E-14  0.1512E-04  0.4043E-07  0.1694E-02  0.1677E-03  0.4107E+01
   -0.950000   29.96991  0.1323E-14  0.1515E-04  0.4014E-07  0.1714E-02  0.1583E-03  0.4386E+01
   -1.000002   29.97042  0.1323E-14  0.1516E-04  0.3993E-07  0.1725E-02  0.1495E-03  0.4710E+01
   -1.050003   29.97092  0.1323E-14  0.1515E-04  0.3982E-07  0.1728E-02  0.1411E-03  0.5320E+01
   -1.100005   29.97141  0.1323E-14  0.1511E-04  0.3980E-07  0.1808E-02  0.1331E-03  0.1770E+02
   -1.150007   29.97188  0.1323E-14  0.1506E-04  0.3990E-07  0.1655E-02  0.1259E-03  0.3907E+02
   -1.200008   29.97238  0.1323E-14  0.1498E-04  0.4012E-07  0.1677E-02  0.1185E-03  0.7553E+01
   -1.250010   29.97287  0.1323E-14  0.1488E-04  0.4048E-07  0.1648E-02  0.1115E-03  0.7989E+01
   -1.300011   29.97337  0.1323E-14  0.1476E-04  0.4102E-07  0.1602E-02  0.1047E-03  0.9278E+01
   -1.350012   29.97387  0.1323E-14  0.1460E-04  0.4178E-07  0.1546E-02  0.9813E-04  0.1100E+02
   -1.400014   29.97439  0.1323E-14  0.1442E-04  0.4283E-07  0.1474E-02  0.9174E-04  0.1342E+02
   -1.450014   29.97493  0.1323E-14  0.1419E-04  0.4427E-07  0.1398E-02  0.8548E-04  0.1689E+02
   -1.500015   29.97550  0.1323E-14  0.1392E-04  0.4629E-07  0.1292E-02  0.7935E-04  0.2247E+02
   -1.550015   29.97612  0.1323E-14  0.1359E-04  0.4916E-07  0.1207E-02  0.7322E-04  0.3126E+02
   -1.600015   29.97678  0.1323E-14  0.1319E-04  0.5350E-07  0.1067E-02  0.6721E-04  0.5272E+02
   -1.650015   29.97755  0.1323E-14  0.1268E-04  0.6019E-07  0.9880E-03  0.6087E-04  0.1412E+03
   -1.700015   29.97842  0.1323E-14  0.1200E-04  0.7231E-07  0.8106E-03  0.5471E-04  0.1522E+04
   -1.750014   29.97990  0.1323E-14  0.1106E-04  0.9243E-07  0.7278E-03  0.4668E-04  0.5242E+05
   -1.800013   29.98126  0.1323E-14  0.9779E-05  0.1339E-06  0.5156E-03  0.4004E-04  0.3622E+05
   -1.850011   29.98604  0.1323E-14  0.8293E-05  0.2120E-06  0.4640E-03  0.2905E-04  0.4901E+07
   -1.900009   29.98564  0.1323E-14  0.6483E-05  0.4420E-06  0.2026E-03  0.2344E-04  0.1111E+05
   -1.950006   30.00170  0.1323E-14  0.4486E-05  0.1121E-05  0.1786E-03  0.1249E-04 -0.5254E+06
   -2.000003   30.00311  0.1323E-14  0.0000E+00  0.0000E+00  0.0000E+00  0.2261E-04  0.0000E+00
