 1 - depth, m
 2 - temperature, C
 3 - salinity, kg/kg
 4 - turbulent kinetic energy, m**2/s**2
 5 - dissipation rate, m**2/s**3
 6 - kinematic heat conductance, m**2/s
 7 - modulus of horizontal velocity, m/s
 8 - Richardson number, n/d
   -0.000000   30.30141  0.1091E-12  0.4556E-05  0.2692E-06  0.4886E-04  0.1903E-02  0.4438E+04
   -0.049997   30.32930  0.1091E-12  0.7728E-05  0.1197E-06  0.1723E-03  0.1076E-02  0.7240E+04
   -0.099994   30.33982  0.1091E-12  0.9343E-05  0.8239E-07  0.3850E-03  0.7895E-03  0.1369E+02
   -0.149992   30.34281  0.1091E-12  0.1036E-04  0.6912E-07  0.4663E-03  0.6959E-03  0.6648E+01
   -0.199991   30.34517  0.1091E-12  0.1115E-04  0.6134E-07  0.6202E-03  0.6206E-03  0.4273E+01
   -0.249989   30.34689  0.1091E-12  0.1178E-04  0.5623E-07  0.7423E-03  0.5641E-03  0.3151E+01
   -0.299988   30.34830  0.1091E-12  0.1229E-04  0.5259E-07  0.8627E-03  0.5171E-03  0.2504E+01
   -0.349988   30.34947  0.1091E-12  0.1272E-04  0.4986E-07  0.9722E-03  0.4768E-03  0.2143E+01
   -0.399988   30.35049  0.1091E-12  0.1308E-04  0.4774E-07  0.1072E-02  0.4412E-03  0.1908E+01
   -0.449988   30.35139  0.1091E-12  0.1339E-04  0.4601E-07  0.1166E-02  0.4099E-03  0.1799E+01
   -0.499988   30.35221  0.1091E-12  0.1366E-04  0.4458E-07  0.1253E-02  0.3821E-03  0.1750E+01
   -0.549989   30.35295  0.1091E-12  0.1390E-04  0.4339E-07  0.1332E-02  0.3573E-03  0.1732E+01
   -0.599990   30.35363  0.1091E-12  0.1411E-04  0.4238E-07  0.1405E-02  0.3348E-03  0.1728E+01
   -0.649991   30.35427  0.1091E-12  0.1428E-04  0.4154E-07  0.1470E-02  0.3144E-03  0.1751E+01
   -0.699992   30.35488  0.1091E-12  0.1444E-04  0.4083E-07  0.1528E-02  0.2957E-03  0.1784E+01
   -0.749993   30.35545  0.1091E-12  0.1456E-04  0.4024E-07  0.1579E-02  0.2784E-03  0.1843E+01
   -0.799995   30.35600  0.1091E-12  0.1467E-04  0.3975E-07  0.1622E-02  0.2624E-03  0.1914E+01
   -0.849996   30.35652  0.1091E-12  0.1476E-04  0.3936E-07  0.1657E-02  0.2475E-03  0.2017E+01
   -0.899998   30.35703  0.1091E-12  0.1482E-04  0.3906E-07  0.1686E-02  0.2336E-03  0.2133E+01
   -0.950000   30.35753  0.1091E-12  0.1487E-04  0.3886E-07  0.1706E-02  0.2204E-03  0.2289E+01
   -1.000001   30.35802  0.1091E-12  0.1490E-04  0.3874E-07  0.1719E-02  0.2080E-03  0.2463E+01
   -1.050003   30.35850  0.1091E-12  0.1491E-04  0.3871E-07  0.1722E-02  0.1963E-03  0.2802E+01
   -1.100005   30.35897  0.1091E-12  0.1490E-04  0.3878E-07  0.1795E-02  0.1851E-03  0.9407E+01
   -1.150006   30.35943  0.1091E-12  0.1487E-04  0.3897E-07  0.1664E-02  0.1750E-03  0.2038E+02
   -1.200008   30.35992  0.1091E-12  0.1482E-04  0.3927E-07  0.1677E-02  0.1648E-03  0.4002E+01
   -1.250009   30.36040  0.1091E-12  0.1475E-04  0.3971E-07  0.1649E-02  0.1550E-03  0.4258E+01
   -1.300011   30.36089  0.1091E-12  0.1465E-04  0.4033E-07  0.1605E-02  0.1455E-03  0.4969E+01
   -1.350012   30.36139  0.1091E-12  0.1453E-04  0.4116E-07  0.1551E-02  0.1363E-03  0.5896E+01
   -1.400013   30.36191  0.1091E-12  0.1438E-04  0.4228E-07  0.1482E-02  0.1274E-03  0.7222E+01
   -1.450014   30.36245  0.1091E-12  0.1418E-04  0.4378E-07  0.1408E-02  0.1187E-03  0.9077E+01
   -1.500014   30.36302  0.1091E-12  0.1395E-04  0.4582E-07  0.1306E-02  0.1102E-03  0.1207E+02
   -1.550015   30.36364  0.1091E-12  0.1366E-04  0.4867E-07  0.1221E-02  0.1017E-03  0.1674E+02
   -1.600015   30.36431  0.1091E-12  0.1330E-04  0.5290E-07  0.1084E-02  0.9336E-04  0.2819E+02
   -1.650015   30.36510  0.1091E-12  0.1285E-04  0.5928E-07  0.1001E-02  0.8460E-04  0.1704E+04
   -1.700014   30.36598  0.1091E-12  0.1223E-04  0.7059E-07  0.8260E-03  0.7615E-04 -0.2264E+04
   -1.750013   30.36742  0.1091E-12  0.1139E-04  0.8947E-07  0.7418E-03  0.6538E-04  0.1064E+05
   -1.800012   30.36883  0.1091E-12  0.1020E-04  0.1280E-06  0.5308E-03  0.5627E-04  0.3688E+04
   -1.850010   30.37324  0.1091E-12  0.8787E-05  0.2003E-06  0.4735E-03  0.4179E-04  0.4934E+07
   -1.900008   30.37343  0.1091E-12  0.6986E-05  0.4153E-06  0.2138E-03  0.3366E-04  0.7715E+05
   -1.950006   30.38943  0.1091E-12  0.4811E-05  0.1064E-05  0.1685E-03  0.1867E-04 -0.4301E+06
   -2.000003   30.39305  0.1091E-12  0.0000E+00  0.0000E+00  0.0000E+00  0.3144E-04  0.0000E+00
