 1 - depth, m
 2 - temperature, C
 3 - salinity, kg/kg
 4 - turbulent kinetic energy, m**2/s**2
 5 - dissipation rate, m**2/s**3
 6 - kinematic heat conductance, m**2/s
 7 - modulus of horizontal velocity, m/s
 8 - Richardson number, n/d
   -0.000000   30.74735  0.4702E-13  0.5374E-05  0.3250E-06  0.5265E-04  0.2813E-02  0.1042E+04
   -0.049997   30.77914  0.4702E-13  0.8841E-05  0.1426E-06  0.1940E-03  0.1544E-02  0.1277E+04
   -0.099994   30.78985  0.4702E-13  0.1053E-04  0.9972E-07  0.3936E-03  0.1186E-02  0.7274E+01
   -0.149992   30.79334  0.4702E-13  0.1161E-04  0.8365E-07  0.4853E-03  0.1052E-02  0.3666E+01
   -0.199991   30.79605  0.4702E-13  0.1246E-04  0.7424E-07  0.6352E-03  0.9466E-03  0.2379E+01
   -0.249989   30.79805  0.4702E-13  0.1314E-04  0.6807E-07  0.7540E-03  0.8658E-03  0.1801E+01
   -0.299988   30.79969  0.4702E-13  0.1371E-04  0.6360E-07  0.8704E-03  0.7976E-03  0.1526E+01
   -0.349988   30.80107  0.4702E-13  0.1420E-04  0.6012E-07  0.9863E-03  0.7360E-03  0.1433E+01
   -0.399988   30.80226  0.4702E-13  0.1463E-04  0.5730E-07  0.1103E-02  0.6782E-03  0.1373E+01
   -0.449988   30.80329  0.4702E-13  0.1501E-04  0.5494E-07  0.1216E-02  0.6253E-03  0.1352E+01
   -0.499988   30.80421  0.4702E-13  0.1535E-04  0.5297E-07  0.1322E-02  0.5777E-03  0.1342E+01
   -0.549989   30.80504  0.4702E-13  0.1563E-04  0.5131E-07  0.1419E-02  0.5348E-03  0.1337E+01
   -0.599989   30.80580  0.4702E-13  0.1588E-04  0.4992E-07  0.1507E-02  0.4963E-03  0.1329E+01
   -0.649991   30.80650  0.4702E-13  0.1608E-04  0.4875E-07  0.1585E-02  0.4614E-03  0.1328E+01
   -0.699992   30.80716  0.4702E-13  0.1624E-04  0.4778E-07  0.1652E-02  0.4298E-03  0.1321E+01
   -0.749993   30.80777  0.4702E-13  0.1636E-04  0.4697E-07  0.1708E-02  0.4012E-03  0.1325E+01
   -0.799995   30.80836  0.4702E-13  0.1646E-04  0.4632E-07  0.1753E-02  0.3753E-03  0.1325E+01
   -0.849996   30.80893  0.4702E-13  0.1652E-04  0.4580E-07  0.1786E-02  0.3517E-03  0.1339E+01
   -0.899998   30.80948  0.4702E-13  0.1656E-04  0.4540E-07  0.1809E-02  0.3303E-03  0.1356E+01
   -0.949999   30.81001  0.4702E-13  0.1657E-04  0.4513E-07  0.1821E-02  0.3106E-03  0.1394E+01
   -1.000001   30.81054  0.4702E-13  0.1655E-04  0.4497E-07  0.1825E-02  0.2926E-03  0.1441E+01
   -1.050003   30.81105  0.4702E-13  0.1651E-04  0.4492E-07  0.1817E-02  0.2759E-03  0.1576E+01
   -1.100005   30.81156  0.4702E-13  0.1646E-04  0.4499E-07  0.1937E-02  0.2605E-03  0.4920E+01
   -1.150006   30.81204  0.4702E-13  0.1637E-04  0.4520E-07  0.1683E-02  0.2473E-03  0.1198E+02
   -1.200008   30.81258  0.4702E-13  0.1627E-04  0.4555E-07  0.1737E-02  0.2330E-03  0.2229E+01
   -1.250009   30.81310  0.4702E-13  0.1613E-04  0.4608E-07  0.1703E-02  0.2196E-03  0.2357E+01
   -1.300011   30.81363  0.4702E-13  0.1597E-04  0.4685E-07  0.1645E-02  0.2067E-03  0.2776E+01
   -1.350012   30.81417  0.4702E-13  0.1577E-04  0.4791E-07  0.1580E-02  0.1941E-03  0.3335E+01
   -1.400013   30.81473  0.4702E-13  0.1553E-04  0.4938E-07  0.1493E-02  0.1817E-03  0.4173E+01
   -1.450014   30.81532  0.4702E-13  0.1524E-04  0.5141E-07  0.1411E-02  0.1696E-03  0.5379E+01
   -1.500014   30.81594  0.4702E-13  0.1490E-04  0.5429E-07  0.1290E-02  0.1576E-03  0.7495E+01
   -1.550015   30.81663  0.4702E-13  0.1448E-04  0.5844E-07  0.1207E-02  0.1454E-03  0.1109E+02
   -1.600015   30.81738  0.4702E-13  0.1396E-04  0.6507E-07  0.1056E-02  0.1335E-03  0.2824E+02
   -1.650014   30.81835  0.4702E-13  0.1329E-04  0.7554E-07  0.9738E-03  0.1202E-03  0.1536E+03
   -1.700014   30.81946  0.4702E-13  0.1237E-04  0.9374E-07  0.7899E-03  0.1070E-03  0.4562E+02
   -1.750013   30.82145  0.4702E-13  0.1123E-04  0.1233E-06  0.7106E-03  0.8939E-04  0.2306E+05
   -1.800012   30.82281  0.4702E-13  0.9747E-05  0.1888E-06  0.4826E-03  0.7698E-04  0.1797E+05
   -1.850010   30.83024  0.4702E-13  0.8187E-05  0.3119E-06  0.4537E-03  0.5303E-04  0.2342E+08
   -1.900008   30.82765  0.4702E-13  0.6454E-05  0.6548E-06  0.2099E-03  0.4372E-04 -0.1002E+06
   -1.950005   30.84793  0.4702E-13  0.4573E-05  0.1571E-05  0.2087E-03  0.2295E-04 -0.1416E+06
   -2.000002   30.84763  0.4702E-13  0.0000E+00  0.0000E+00  0.0000E+00  0.4566E-04  0.0000E+00
