 1 - depth, m
 2 - temperature, C
 3 - salinity, kg/kg
 4 - turbulent kinetic energy, m**2/s**2
 5 - dissipation rate, m**2/s**3
 6 - kinematic heat conductance, m**2/s
 7 - modulus of horizontal velocity, m/s
 8 - Richardson number, n/d
   -0.000000   30.94254  0.1518E-14  0.5052E-05  0.3264E-06  0.5217E-04  0.8679E-03  0.2400E+03
   -0.049997   30.97514  0.1518E-14  0.8751E-05  0.1451E-06  0.1784E-03  0.5037E-03  0.3625E+02
   -0.099994   30.98814  0.1518E-14  0.1062E-04  0.9962E-07  0.4154E-03  0.3654E-03  0.7570E+02
   -0.149992   30.99157  0.1518E-14  0.1178E-04  0.8403E-07  0.4875E-03  0.3243E-03  0.3710E+02
   -0.199991   30.99437  0.1518E-14  0.1267E-04  0.7484E-07  0.6523E-03  0.2902E-03  0.2416E+02
   -0.249989   30.99640  0.1518E-14  0.1337E-04  0.6882E-07  0.7767E-03  0.2646E-03  0.1806E+02
   -0.299988   30.99806  0.1518E-14  0.1395E-04  0.6452E-07  0.8999E-03  0.2434E-03  0.1447E+02
   -0.349988   30.99946  0.1518E-14  0.1442E-04  0.6130E-07  0.1011E-02  0.2251E-03  0.1250E+02
   -0.399988   31.00068  0.1518E-14  0.1481E-04  0.5879E-07  0.1111E-02  0.2089E-03  0.1119E+02
   -0.449988   31.00176  0.1518E-14  0.1514E-04  0.5676E-07  0.1202E-02  0.1946E-03  0.1062E+02
   -0.499988   31.00274  0.1518E-14  0.1542E-04  0.5509E-07  0.1285E-02  0.1819E-03  0.1040E+02
   -0.549989   31.00364  0.1518E-14  0.1566E-04  0.5370E-07  0.1360E-02  0.1705E-03  0.1039E+02
   -0.599989   31.00448  0.1518E-14  0.1586E-04  0.5254E-07  0.1426E-02  0.1603E-03  0.1046E+02
   -0.649990   31.00526  0.1518E-14  0.1602E-04  0.5157E-07  0.1484E-02  0.1508E-03  0.1075E+02
   -0.699991   31.00601  0.1518E-14  0.1616E-04  0.5077E-07  0.1533E-02  0.1422E-03  0.1109E+02
   -0.749993   31.00672  0.1518E-14  0.1626E-04  0.5011E-07  0.1573E-02  0.1341E-03  0.1165E+02
   -0.799994   31.00740  0.1518E-14  0.1633E-04  0.4959E-07  0.1604E-02  0.1266E-03  0.1228E+02
   -0.849996   31.00806  0.1518E-14  0.1638E-04  0.4920E-07  0.1626E-02  0.1196E-03  0.1318E+02
   -0.899997   31.00871  0.1518E-14  0.1640E-04  0.4894E-07  0.1639E-02  0.1130E-03  0.1418E+02
   -0.949999   31.00934  0.1518E-14  0.1639E-04  0.4881E-07  0.1642E-02  0.1068E-03  0.1557E+02
   -1.000001   31.00997  0.1518E-14  0.1635E-04  0.4881E-07  0.1636E-02  0.1009E-03  0.1716E+02
   -1.050003   31.01060  0.1518E-14  0.1628E-04  0.4897E-07  0.1616E-02  0.9524E-04  0.2000E+02
   -1.100004   31.01123  0.1518E-14  0.1619E-04  0.4928E-07  0.1773E-02  0.8985E-04  0.6028E+02
   -1.150006   31.01179  0.1518E-14  0.1606E-04  0.4984E-07  0.1403E-02  0.8526E-04  0.1947E+03
   -1.200007   31.01251  0.1518E-14  0.1590E-04  0.5060E-07  0.1482E-02  0.7991E-04  0.3335E+02
   -1.250009   31.01318  0.1518E-14  0.1570E-04  0.5167E-07  0.1440E-02  0.7503E-04  0.3641E+02
   -1.300010   31.01387  0.1518E-14  0.1545E-04  0.5314E-07  0.1357E-02  0.7031E-04  0.4568E+02
   -1.350011   31.01460  0.1518E-14  0.1515E-04  0.5517E-07  0.1287E-02  0.6569E-04  0.5862E+02
   -1.400012   31.01538  0.1518E-14  0.1479E-04  0.5800E-07  0.1154E-02  0.6116E-04  0.8126E+02
   -1.450013   31.01625  0.1518E-14  0.1435E-04  0.6201E-07  0.1106E-02  0.5657E-04  0.1144E+03
   -1.500014   31.01718  0.1518E-14  0.1381E-04  0.6799E-07  0.9169E-03  0.5214E-04  0.1907E+03
   -1.550014   31.01837  0.1518E-14  0.1315E-04  0.7675E-07  0.9326E-03  0.4727E-04  0.3203E+03
   -1.600014   31.01957  0.1518E-14  0.1230E-04  0.9288E-07  0.7140E-03  0.4300E-04  0.1093E+04
   -1.650014   31.02167  0.1518E-14  0.1104E-04  0.1163E-06  0.7139E-03  0.3685E-04 -0.6187E+03
   -1.700013   31.02363  0.1518E-14  0.9338E-05  0.1605E-06  0.4526E-03  0.3185E-04 -0.2429E+04
   -1.750012   31.03029  0.1518E-14  0.7454E-05  0.2342E-06  0.4859E-03  0.2129E-04  0.1067E+06
   -1.800011   31.03023  0.1518E-14  0.5967E-05  0.3868E-06  0.2667E-03  0.1889E-04 -0.3766E+05
   -1.850009   31.05587  0.1518E-14  0.4724E-05  0.7115E-06  0.3367E-03  0.8577E-05  0.1157E+09
   -1.900007   31.03481  0.1518E-14  0.4034E-05  0.1518E-05  0.1697E-03  0.8617E-05 -0.4672E+07
   -1.950005   31.07667  0.1518E-14  0.3163E-05  0.3294E-05  0.3070E-03  0.3424E-05  0.5987E+04
   -2.000002   31.06927  0.1518E-14  0.0000E+00  0.0000E+00  0.0000E+00  0.1353E-04  0.0000E+00
