 1 - depth, m
 2 - temperature, C
 3 - salinity, kg/kg
 4 - turbulent kinetic energy, m**2/s**2
 5 - dissipation rate, m**2/s**3
 6 - kinematic heat conductance, m**2/s
 7 - modulus of horizontal velocity, m/s
 8 - Richardson number, n/d
   -0.000000   30.24338  0.1003E-12  0.4649E-05  0.2811E-06  0.4890E-04  0.1446E-02  0.4564E+04
   -0.049997   30.27327  0.1003E-12  0.7980E-05  0.1254E-06  0.1759E-03  0.8198E-03  0.4133E+03
   -0.099994   30.28440  0.1003E-12  0.9662E-05  0.8655E-07  0.3917E-03  0.6016E-03  0.2318E+02
   -0.149992   30.28755  0.1003E-12  0.1072E-04  0.7269E-07  0.4734E-03  0.5309E-03  0.1130E+02
   -0.199991   30.29004  0.1003E-12  0.1153E-04  0.6454E-07  0.6304E-03  0.4739E-03  0.7262E+01
   -0.249989   30.29185  0.1003E-12  0.1218E-04  0.5918E-07  0.7537E-03  0.4311E-03  0.5344E+01
   -0.299988   30.29332  0.1003E-12  0.1271E-04  0.5536E-07  0.8759E-03  0.3955E-03  0.4250E+01
   -0.349988   30.29456  0.1003E-12  0.1315E-04  0.5248E-07  0.9868E-03  0.3650E-03  0.3623E+01
   -0.399988   30.29562  0.1003E-12  0.1352E-04  0.5023E-07  0.1088E-02  0.3380E-03  0.3228E+01
   -0.449988   30.29657  0.1003E-12  0.1383E-04  0.4840E-07  0.1183E-02  0.3143E-03  0.3020E+01
   -0.499988   30.29742  0.1003E-12  0.1411E-04  0.4689E-07  0.1269E-02  0.2933E-03  0.2939E+01
   -0.549989   30.29820  0.1003E-12  0.1434E-04  0.4562E-07  0.1349E-02  0.2746E-03  0.2889E+01
   -0.599990   30.29892  0.1003E-12  0.1455E-04  0.4454E-07  0.1421E-02  0.2576E-03  0.2893E+01
   -0.649991   30.29959  0.1003E-12  0.1472E-04  0.4363E-07  0.1486E-02  0.2421E-03  0.2916E+01
   -0.699992   30.30022  0.1003E-12  0.1487E-04  0.4286E-07  0.1543E-02  0.2279E-03  0.2986E+01
   -0.749993   30.30082  0.1003E-12  0.1499E-04  0.4221E-07  0.1594E-02  0.2148E-03  0.3069E+01
   -0.799995   30.30139  0.1003E-12  0.1509E-04  0.4167E-07  0.1636E-02  0.2025E-03  0.3201E+01
   -0.849996   30.30194  0.1003E-12  0.1517E-04  0.4122E-07  0.1672E-02  0.1912E-03  0.3349E+01
   -0.899998   30.30247  0.1003E-12  0.1523E-04  0.4088E-07  0.1699E-02  0.1805E-03  0.3555E+01
   -0.950000   30.30299  0.1003E-12  0.1527E-04  0.4062E-07  0.1719E-02  0.1704E-03  0.3785E+01
   -1.000001   30.30350  0.1003E-12  0.1528E-04  0.4046E-07  0.1731E-02  0.1609E-03  0.4089E+01
   -1.050003   30.30399  0.1003E-12  0.1528E-04  0.4040E-07  0.1733E-02  0.1519E-03  0.4610E+01
   -1.100005   30.30449  0.1003E-12  0.1526E-04  0.4044E-07  0.1812E-02  0.1433E-03  0.1544E+02
   -1.150006   30.30495  0.1003E-12  0.1522E-04  0.4060E-07  0.1663E-02  0.1356E-03  0.3402E+02
   -1.200008   30.30546  0.1003E-12  0.1515E-04  0.4087E-07  0.1682E-02  0.1277E-03  0.6576E+01
   -1.250009   30.30596  0.1003E-12  0.1506E-04  0.4131E-07  0.1654E-02  0.1201E-03  0.7008E+01
   -1.300011   30.30646  0.1003E-12  0.1495E-04  0.4192E-07  0.1608E-02  0.1129E-03  0.8127E+01
   -1.350012   30.30698  0.1003E-12  0.1480E-04  0.4277E-07  0.1552E-02  0.1058E-03  0.9693E+01
   -1.400013   30.30751  0.1003E-12  0.1463E-04  0.4392E-07  0.1479E-02  0.9893E-04  0.1183E+02
   -1.450014   30.30806  0.1003E-12  0.1441E-04  0.4548E-07  0.1404E-02  0.9219E-04  0.1495E+02
   -1.500014   30.30865  0.1003E-12  0.1415E-04  0.4764E-07  0.1297E-02  0.8560E-04  0.1992E+02
   -1.550015   30.30928  0.1003E-12  0.1383E-04  0.5069E-07  0.1215E-02  0.7899E-04  0.2784E+02
   -1.600015   30.30997  0.1003E-12  0.1344E-04  0.5528E-07  0.1072E-02  0.7254E-04  0.4791E+02
   -1.650015   30.31078  0.1003E-12  0.1294E-04  0.6231E-07  0.9976E-03  0.6567E-04  0.4286E+03
   -1.700014   30.31169  0.1003E-12  0.1225E-04  0.7501E-07  0.8143E-03  0.5905E-04  0.3299E+05
   -1.750013   30.31327  0.1003E-12  0.1132E-04  0.9600E-07  0.7405E-03  0.5028E-04 -0.1891E+04
   -1.800012   30.31466  0.1003E-12  0.1005E-04  0.1390E-06  0.5192E-03  0.4326E-04  0.5843E+04
   -1.850010   30.31967  0.1003E-12  0.8575E-05  0.2208E-06  0.4720E-03  0.3143E-04  0.3621E+07
   -1.900008   30.31934  0.1003E-12  0.6804E-05  0.4589E-06  0.2142E-03  0.2542E-04  0.2223E+06
   -1.950006   30.33613  0.1003E-12  0.4713E-05  0.1176E-05  0.1753E-03  0.1385E-04 -0.8621E+06
   -2.000003   30.33946  0.1003E-12  0.0000E+00  0.0000E+00  0.0000E+00  0.2456E-04  0.0000E+00
