 1 - depth, m
 2 - temperature, C
 3 - salinity, kg/kg
 4 - turbulent kinetic energy, m**2/s**2
 5 - dissipation rate, m**2/s**3
 6 - kinematic heat conductance, m**2/s
 7 - modulus of horizontal velocity, m/s
 8 - Richardson number, n/d
   -0.000000   30.22257  0.3081E-13  0.5017E-05  0.3124E-06  0.5168E-04  0.2121E-02  0.4608E+04
   -0.049997   30.25326  0.3081E-13  0.8442E-05  0.1388E-06  0.1794E-03  0.1202E-02  0.1463E+03
   -0.099994   30.26494  0.3081E-13  0.1020E-04  0.9544E-07  0.3963E-03  0.8889E-03  0.1084E+02
   -0.149992   30.26830  0.3081E-13  0.1131E-04  0.7987E-07  0.4798E-03  0.7847E-03  0.5342E+01
   -0.199991   30.27095  0.3081E-13  0.1218E-04  0.7078E-07  0.6402E-03  0.7008E-03  0.3420E+01
   -0.249989   30.27289  0.3081E-13  0.1287E-04  0.6483E-07  0.7660E-03  0.6380E-03  0.2520E+01
   -0.299988   30.27446  0.3081E-13  0.1343E-04  0.6060E-07  0.8910E-03  0.5857E-03  0.2002E+01
   -0.349988   30.27577  0.3081E-13  0.1389E-04  0.5743E-07  0.1004E-02  0.5410E-03  0.1711E+01
   -0.399988   30.27692  0.3081E-13  0.1429E-04  0.5496E-07  0.1107E-02  0.5014E-03  0.1528E+01
   -0.449988   30.27793  0.3081E-13  0.1462E-04  0.5295E-07  0.1204E-02  0.4665E-03  0.1444E+01
   -0.499988   30.27884  0.3081E-13  0.1492E-04  0.5128E-07  0.1294E-02  0.4355E-03  0.1411E+01
   -0.549989   30.27967  0.3081E-13  0.1517E-04  0.4989E-07  0.1376E-02  0.4077E-03  0.1396E+01
   -0.599989   30.28044  0.3081E-13  0.1539E-04  0.4871E-07  0.1451E-02  0.3825E-03  0.1395E+01
   -0.649990   30.28116  0.3081E-13  0.1557E-04  0.4771E-07  0.1518E-02  0.3595E-03  0.1408E+01
   -0.699992   30.28183  0.3081E-13  0.1573E-04  0.4687E-07  0.1577E-02  0.3385E-03  0.1432E+01
   -0.749993   30.28248  0.3081E-13  0.1586E-04  0.4617E-07  0.1628E-02  0.3191E-03  0.1471E+01
   -0.799994   30.28309  0.3081E-13  0.1596E-04  0.4559E-07  0.1670E-02  0.3011E-03  0.1527E+01
   -0.849996   30.28368  0.3081E-13  0.1604E-04  0.4512E-07  0.1705E-02  0.2844E-03  0.1601E+01
   -0.899998   30.28425  0.3081E-13  0.1610E-04  0.4475E-07  0.1732E-02  0.2687E-03  0.1696E+01
   -0.949999   30.28481  0.3081E-13  0.1613E-04  0.4449E-07  0.1750E-02  0.2540E-03  0.1815E+01
   -1.000001   30.28535  0.3081E-13  0.1614E-04  0.4433E-07  0.1760E-02  0.2400E-03  0.1960E+01
   -1.050003   30.28589  0.3081E-13  0.1613E-04  0.4428E-07  0.1760E-02  0.2267E-03  0.2221E+01
   -1.100005   30.28642  0.3081E-13  0.1610E-04  0.4435E-07  0.1852E-02  0.2141E-03  0.7315E+01
   -1.150006   30.28693  0.3081E-13  0.1605E-04  0.4456E-07  0.1669E-02  0.2029E-03  0.1697E+02
   -1.200008   30.28748  0.3081E-13  0.1597E-04  0.4490E-07  0.1699E-02  0.1911E-03  0.3227E+01
   -1.250009   30.28802  0.3081E-13  0.1586E-04  0.4542E-07  0.1668E-02  0.1799E-03  0.3438E+01
   -1.300011   30.28857  0.3081E-13  0.1573E-04  0.4615E-07  0.1617E-02  0.1691E-03  0.4032E+01
   -1.350012   30.28913  0.3081E-13  0.1556E-04  0.4716E-07  0.1556E-02  0.1586E-03  0.4845E+01
   -1.400013   30.28972  0.3081E-13  0.1535E-04  0.4854E-07  0.1477E-02  0.1484E-03  0.6018E+01
   -1.450014   30.29033  0.3081E-13  0.1510E-04  0.5043E-07  0.1399E-02  0.1383E-03  0.7724E+01
   -1.500014   30.29098  0.3081E-13  0.1480E-04  0.5307E-07  0.1284E-02  0.1285E-03  0.1063E+02
   -1.550015   30.29169  0.3081E-13  0.1443E-04  0.5682E-07  0.1203E-02  0.1185E-03  0.1535E+02
   -1.600015   30.29246  0.3081E-13  0.1397E-04  0.6267E-07  0.1055E-02  0.1088E-03  0.3445E+02
   -1.650014   30.29342  0.3081E-13  0.1337E-04  0.7179E-07  0.9792E-03  0.9822E-04  0.1712E+03
   -1.700014   30.29449  0.3081E-13  0.1255E-04  0.8822E-07  0.7920E-03  0.8797E-04  0.5509E+05
   -1.750013   30.29648  0.3081E-13  0.1147E-04  0.1151E-06  0.7206E-03  0.7400E-04  0.1574E+06
   -1.800012   30.29800  0.3081E-13  0.1005E-04  0.1714E-06  0.4956E-03  0.6356E-04  0.5072E+05
   -1.850010   30.30485  0.3081E-13  0.8497E-05  0.2787E-06  0.4604E-03  0.4489E-04  0.5769E+07
   -1.900008   30.30309  0.3081E-13  0.6720E-05  0.5825E-06  0.2057E-03  0.3669E-04 -0.9208E+05
   -1.950005   30.32358  0.3081E-13  0.4725E-05  0.1440E-05  0.1967E-03  0.1947E-04 -0.1502E+06
   -2.000002   30.32462  0.3081E-13  0.0000E+00  0.0000E+00  0.0000E+00  0.3677E-04  0.0000E+00
