 1 - depth, m
 2 - temperature, C
 3 - salinity, kg/kg
 4 - turbulent kinetic energy, m**2/s**2
 5 - dissipation rate, m**2/s**3
 6 - kinematic heat conductance, m**2/s
 7 - modulus of horizontal velocity, m/s
 8 - Richardson number, n/d
   -0.000000   30.23293  0.1727E-14  0.4759E-05  0.2911E-06  0.5008E-04  0.1811E-02  0.5381E+04
   -0.049997   30.26231  0.1727E-14  0.8094E-05  0.1294E-06  0.1753E-03  0.1034E-02  0.9502E+03
   -0.099994   30.27364  0.1727E-14  0.9805E-05  0.8894E-07  0.3942E-03  0.7571E-03  0.1669E+02
   -0.149992   30.27680  0.1727E-14  0.1088E-04  0.7459E-07  0.4751E-03  0.6685E-03  0.8149E+01
   -0.199991   30.27931  0.1727E-14  0.1171E-04  0.6619E-07  0.6342E-03  0.5967E-03  0.5234E+01
   -0.249989   30.28114  0.1727E-14  0.1238E-04  0.6069E-07  0.7584E-03  0.5430E-03  0.3845E+01
   -0.299988   30.28263  0.1727E-14  0.1292E-04  0.5677E-07  0.8821E-03  0.4983E-03  0.3065E+01
   -0.349988   30.28388  0.1727E-14  0.1337E-04  0.5383E-07  0.9942E-03  0.4600E-03  0.2607E+01
   -0.399988   30.28496  0.1727E-14  0.1375E-04  0.5154E-07  0.1097E-02  0.4262E-03  0.2330E+01
   -0.449988   30.28592  0.1727E-14  0.1408E-04  0.4968E-07  0.1192E-02  0.3964E-03  0.2176E+01
   -0.499988   30.28678  0.1727E-14  0.1436E-04  0.4815E-07  0.1280E-02  0.3701E-03  0.2126E+01
   -0.549989   30.28757  0.1727E-14  0.1461E-04  0.4686E-07  0.1361E-02  0.3465E-03  0.2084E+01
   -0.599990   30.28830  0.1727E-14  0.1482E-04  0.4578E-07  0.1434E-02  0.3252E-03  0.2096E+01
   -0.649991   30.28899  0.1727E-14  0.1500E-04  0.4486E-07  0.1499E-02  0.3058E-03  0.2106E+01
   -0.699992   30.28963  0.1727E-14  0.1516E-04  0.4409E-07  0.1557E-02  0.2879E-03  0.2165E+01
   -0.749993   30.29024  0.1727E-14  0.1528E-04  0.4344E-07  0.1608E-02  0.2714E-03  0.2217E+01
   -0.799995   30.29083  0.1727E-14  0.1539E-04  0.4290E-07  0.1651E-02  0.2561E-03  0.2324E+01
   -0.849996   30.29139  0.1727E-14  0.1547E-04  0.4247E-07  0.1687E-02  0.2418E-03  0.2422E+01
   -0.899998   30.29193  0.1727E-14  0.1553E-04  0.4213E-07  0.1714E-02  0.2284E-03  0.2583E+01
   -0.950000   30.29246  0.1727E-14  0.1557E-04  0.4188E-07  0.1734E-02  0.2158E-03  0.2740E+01
   -1.000001   30.29298  0.1727E-14  0.1559E-04  0.4174E-07  0.1746E-02  0.2038E-03  0.2975E+01
   -1.050003   30.29350  0.1727E-14  0.1559E-04  0.4169E-07  0.1748E-02  0.1925E-03  0.3342E+01
   -1.100005   30.29400  0.1727E-14  0.1557E-04  0.4174E-07  0.1830E-02  0.1816E-03  0.1121E+02
   -1.150006   30.29448  0.1727E-14  0.1553E-04  0.4193E-07  0.1673E-02  0.1720E-03  0.2492E+02
   -1.200008   30.29501  0.1727E-14  0.1546E-04  0.4223E-07  0.1695E-02  0.1620E-03  0.4785E+01
   -1.250009   30.29552  0.1727E-14  0.1537E-04  0.4270E-07  0.1665E-02  0.1524E-03  0.5125E+01
   -1.300011   30.29604  0.1727E-14  0.1525E-04  0.4336E-07  0.1618E-02  0.1433E-03  0.5927E+01
   -1.350012   30.29657  0.1727E-14  0.1510E-04  0.4426E-07  0.1561E-02  0.1343E-03  0.7118E+01
   -1.400013   30.29712  0.1727E-14  0.1492E-04  0.4548E-07  0.1486E-02  0.1257E-03  0.8664E+01
   -1.450014   30.29769  0.1727E-14  0.1470E-04  0.4714E-07  0.1410E-02  0.1172E-03  0.1106E+02
   -1.500014   30.29830  0.1727E-14  0.1443E-04  0.4944E-07  0.1302E-02  0.1088E-03  0.1473E+02
   -1.550015   30.29896  0.1727E-14  0.1410E-04  0.5267E-07  0.1217E-02  0.1004E-03  0.2090E+02
   -1.600015   30.29968  0.1727E-14  0.1369E-04  0.5757E-07  0.1075E-02  0.9226E-04  0.3703E+02
   -1.650015   30.30053  0.1727E-14  0.1316E-04  0.6512E-07  0.9968E-03  0.8353E-04  0.2597E+04
   -1.700014   30.30149  0.1727E-14  0.1245E-04  0.7864E-07  0.8137E-03  0.7504E-04 -0.9632E+02
   -1.750013   30.30314  0.1727E-14  0.1148E-04  0.1010E-06  0.7384E-03  0.6388E-04 -0.7659E+04
   -1.800012   30.30464  0.1727E-14  0.1018E-04  0.1479E-06  0.5177E-03  0.5493E-04 -0.4199E+05
   -1.850010   30.31003  0.1727E-14  0.8673E-05  0.2349E-06  0.4747E-03  0.3984E-04  0.2976E+08
   -1.900008   30.30937  0.1727E-14  0.6870E-05  0.4847E-06  0.2151E-03  0.3236E-04 -0.2990E+04
   -1.950006   30.32709  0.1727E-14  0.4763E-05  0.1238E-05  0.1804E-03  0.1751E-04 -0.2588E+06
   -2.000003   30.32944  0.1727E-14  0.0000E+00  0.0000E+00  0.0000E+00  0.3127E-04  0.0000E+00
