 1 - depth, m
 2 - temperature, C
 3 - salinity, kg/kg
 4 - turbulent kinetic energy, m**2/s**2
 5 - dissipation rate, m**2/s**3
 6 - kinematic heat conductance, m**2/s
 7 - modulus of horizontal velocity, m/s
 8 - Richardson number, n/d
   -0.000000   31.62152  0.4560E-14  0.5443E-05  0.3563E-06  0.5145E-04  0.4393E-03  0.8755E+05
   -0.049997   31.65863  0.4560E-14  0.9578E-05  0.1587E-06  0.2004E-03  0.2461E-03  0.6340E+04
   -0.099994   31.67036  0.4560E-14  0.1152E-04  0.1106E-06  0.4331E-03  0.1830E-03  0.2551E+03
   -0.149992   31.67398  0.4560E-14  0.1276E-04  0.9330E-07  0.5140E-03  0.1624E-03  0.1280E+03
   -0.199990   31.67687  0.4560E-14  0.1372E-04  0.8304E-07  0.6873E-03  0.1456E-03  0.8371E+02
   -0.249989   31.67897  0.4560E-14  0.1448E-04  0.7626E-07  0.8189E-03  0.1330E-03  0.6241E+02
   -0.299988   31.68068  0.4560E-14  0.1509E-04  0.7140E-07  0.9503E-03  0.1225E-03  0.4985E+02
   -0.349988   31.68211  0.4560E-14  0.1560E-04  0.6773E-07  0.1069E-02  0.1134E-03  0.4265E+02
   -0.399987   31.68335  0.4560E-14  0.1602E-04  0.6486E-07  0.1177E-02  0.1054E-03  0.3800E+02
   -0.449987   31.68445  0.4560E-14  0.1639E-04  0.6252E-07  0.1277E-02  0.9837E-04  0.3561E+02
   -0.499988   31.68545  0.4560E-14  0.1670E-04  0.6057E-07  0.1369E-02  0.9211E-04  0.3459E+02
   -0.549988   31.68635  0.4560E-14  0.1696E-04  0.5893E-07  0.1453E-02  0.8649E-04  0.3403E+02
   -0.599989   31.68719  0.4560E-14  0.1719E-04  0.5754E-07  0.1528E-02  0.8139E-04  0.3397E+02
   -0.649990   31.68798  0.4560E-14  0.1737E-04  0.5635E-07  0.1595E-02  0.7673E-04  0.3429E+02
   -0.699991   31.68871  0.4560E-14  0.1753E-04  0.5534E-07  0.1654E-02  0.7243E-04  0.3498E+02
   -0.749992   31.68941  0.4560E-14  0.1766E-04  0.5449E-07  0.1705E-02  0.6846E-04  0.3601E+02
   -0.799994   31.69008  0.4560E-14  0.1775E-04  0.5377E-07  0.1748E-02  0.6475E-04  0.3743E+02
   -0.849995   31.69073  0.4560E-14  0.1782E-04  0.5319E-07  0.1782E-02  0.6128E-04  0.3923E+02
   -0.899997   31.69135  0.4560E-14  0.1787E-04  0.5273E-07  0.1807E-02  0.5801E-04  0.4150E+02
   -0.949999   31.69195  0.4560E-14  0.1788E-04  0.5239E-07  0.1823E-02  0.5493E-04  0.4430E+02
   -1.000000   31.69255  0.4560E-14  0.1788E-04  0.5217E-07  0.1831E-02  0.5201E-04  0.4777E+02
   -1.050002   31.69313  0.4560E-14  0.1785E-04  0.5209E-07  0.1827E-02  0.4922E-04  0.5388E+02
   -1.100004   31.69371  0.4560E-14  0.1779E-04  0.5215E-07  0.1941E-02  0.4656E-04  0.1739E+03
   -1.150005   31.69425  0.4560E-14  0.1770E-04  0.5239E-07  0.1701E-02  0.4421E-04  0.4267E+03
   -1.200007   31.69486  0.4560E-14  0.1759E-04  0.5278E-07  0.1748E-02  0.4169E-04  0.7886E+02
   -1.250008   31.69545  0.4560E-14  0.1744E-04  0.5341E-07  0.1716E-02  0.3930E-04  0.8368E+02
   -1.300010   31.69604  0.4560E-14  0.1726E-04  0.5432E-07  0.1657E-02  0.3701E-04  0.9841E+02
   -1.350011   31.69665  0.4560E-14  0.1705E-04  0.5558E-07  0.1591E-02  0.3477E-04  0.1189E+03
   -1.400012   31.69729  0.4560E-14  0.1678E-04  0.5734E-07  0.1503E-02  0.3258E-04  0.1491E+03
   -1.450013   31.69796  0.4560E-14  0.1646E-04  0.5980E-07  0.1421E-02  0.3041E-04  0.1939E+03
   -1.500013   31.69867  0.4560E-14  0.1608E-04  0.6330E-07  0.1298E-02  0.2827E-04  0.2732E+03
   -1.550013   31.69946  0.4560E-14  0.1561E-04  0.6844E-07  0.1220E-02  0.2610E-04  0.4273E+03
   -1.600013   31.70031  0.4560E-14  0.1502E-04  0.7676E-07  0.1065E-02  0.2396E-04  0.1774E+04
   -1.650013   31.70146  0.4560E-14  0.1425E-04  0.8991E-07  0.9862E-03  0.2154E-04 -0.2666E+05
   -1.700013   31.70277  0.4560E-14  0.1319E-04  0.1129E-06  0.7956E-03  0.1913E-04 -0.9843E+05
   -1.750012   31.70516  0.4560E-14  0.1193E-04  0.1497E-06  0.7229E-03  0.1587E-04  0.7357E+08
   -1.800010   31.70658  0.4560E-14  0.1034E-04  0.2318E-06  0.4908E-03  0.1371E-04 -0.8422E+06
   -1.850009   31.71564  0.4560E-14  0.8731E-05  0.3868E-06  0.4703E-03  0.9327E-05  0.2817E+09
   -1.900006   31.71192  0.4560E-14  0.6968E-05  0.8123E-06  0.2202E-03  0.7793E-05 -0.3823E+07
   -1.950004   31.73532  0.4560E-14  0.4985E-05  0.1952E-05  0.2207E-03  0.4101E-05 -0.7271E+07
   -2.000001   31.73578  0.4560E-14  0.0000E+00  0.0000E+00  0.0000E+00  0.8333E-05  0.0000E+00
