 1 - depth, m
 2 - temperature, C
 3 - salinity, kg/kg
 4 - turbulent kinetic energy, m**2/s**2
 5 - dissipation rate, m**2/s**3
 6 - kinematic heat conductance, m**2/s
 7 - modulus of horizontal velocity, m/s
 8 - Richardson number, n/d
   -0.000000   29.71475  0.8797E-14  0.4338E-05  0.2545E-06  0.4812E-04  0.1432E-02  0.7365E+04
   -0.049997   29.74162  0.8798E-14  0.7490E-05  0.1133E-06  0.1700E-03  0.8135E-03  0.5234E+03
   -0.099994   29.75205  0.8798E-14  0.9097E-05  0.7803E-07  0.3881E-03  0.5914E-03  0.2152E+02
   -0.149992   29.75490  0.8798E-14  0.1010E-04  0.6568E-07  0.4666E-03  0.5218E-03  0.1044E+02
   -0.199991   29.75718  0.8798E-14  0.1088E-04  0.5844E-07  0.6217E-03  0.4654E-03  0.6748E+01
   -0.249989   29.75885  0.8798E-14  0.1151E-04  0.5370E-07  0.7434E-03  0.4231E-03  0.4990E+01
   -0.299989   29.76021  0.8798E-14  0.1202E-04  0.5033E-07  0.8638E-03  0.3879E-03  0.3982E+01
   -0.349988   29.76135  0.8798E-14  0.1245E-04  0.4781E-07  0.9733E-03  0.3577E-03  0.3414E+01
   -0.399988   29.76235  0.8798E-14  0.1282E-04  0.4585E-07  0.1074E-02  0.3311E-03  0.3049E+01
   -0.449988   29.76323  0.8798E-14  0.1313E-04  0.4427E-07  0.1167E-02  0.3076E-03  0.2868E+01
   -0.499988   29.76403  0.8798E-14  0.1341E-04  0.4297E-07  0.1253E-02  0.2869E-03  0.2796E+01
   -0.549989   29.76476  0.8798E-14  0.1365E-04  0.4188E-07  0.1331E-02  0.2683E-03  0.2765E+01
   -0.599990   29.76544  0.8798E-14  0.1386E-04  0.4098E-07  0.1403E-02  0.2516E-03  0.2772E+01
   -0.649991   29.76607  0.8798E-14  0.1404E-04  0.4022E-07  0.1467E-02  0.2363E-03  0.2814E+01
   -0.699992   29.76667  0.8798E-14  0.1420E-04  0.3959E-07  0.1524E-02  0.2223E-03  0.2884E+01
   -0.749993   29.76724  0.8798E-14  0.1433E-04  0.3906E-07  0.1574E-02  0.2094E-03  0.2986E+01
   -0.799995   29.76779  0.8798E-14  0.1444E-04  0.3864E-07  0.1617E-02  0.1974E-03  0.3118E+01
   -0.849996   29.76831  0.8798E-14  0.1453E-04  0.3830E-07  0.1652E-02  0.1862E-03  0.3286E+01
   -0.899998   29.76882  0.8798E-14  0.1461E-04  0.3806E-07  0.1680E-02  0.1757E-03  0.3491E+01
   -0.950000   29.76932  0.8798E-14  0.1466E-04  0.3790E-07  0.1700E-02  0.1658E-03  0.3744E+01
   -1.000002   29.76981  0.8798E-14  0.1470E-04  0.3782E-07  0.1712E-02  0.1564E-03  0.4049E+01
   -1.050003   29.77030  0.8798E-14  0.1471E-04  0.3783E-07  0.1716E-02  0.1476E-03  0.4602E+01
   -1.100005   29.77078  0.8798E-14  0.1471E-04  0.3794E-07  0.1789E-02  0.1392E-03  0.1550E+02
   -1.150007   29.77124  0.8798E-14  0.1468E-04  0.3816E-07  0.1655E-02  0.1316E-03  0.3363E+02
   -1.200008   29.77173  0.8798E-14  0.1464E-04  0.3849E-07  0.1669E-02  0.1239E-03  0.6608E+01
   -1.250010   29.77222  0.8798E-14  0.1457E-04  0.3896E-07  0.1640E-02  0.1165E-03  0.7062E+01
   -1.300011   29.77272  0.8798E-14  0.1448E-04  0.3960E-07  0.1596E-02  0.1093E-03  0.8242E+01
   -1.350012   29.77322  0.8798E-14  0.1436E-04  0.4045E-07  0.1542E-02  0.1024E-03  0.9811E+01
   -1.400013   29.77375  0.8798E-14  0.1421E-04  0.4158E-07  0.1472E-02  0.9573E-04  0.1201E+02
   -1.450014   29.77430  0.8798E-14  0.1403E-04  0.4309E-07  0.1398E-02  0.8917E-04  0.1513E+02
   -1.500015   29.77489  0.8798E-14  0.1380E-04  0.4512E-07  0.1295E-02  0.8274E-04  0.2009E+02
   -1.550015   29.77552  0.8798E-14  0.1352E-04  0.4795E-07  0.1209E-02  0.7633E-04  0.2782E+02
   -1.600015   29.77620  0.8798E-14  0.1316E-04  0.5209E-07  0.1071E-02  0.7003E-04  0.4460E+02
   -1.650015   29.77700  0.8798E-14  0.1271E-04  0.5833E-07  0.9912E-03  0.6348E-04  0.3409E+03
   -1.700015   29.77789  0.8798E-14  0.1210E-04  0.6947E-07  0.8159E-03  0.5711E-04  0.7894E+04
   -1.750014   29.77935  0.8798E-14  0.1126E-04  0.8814E-07  0.7338E-03  0.4903E-04  0.4761E+05
   -1.800012   29.78082  0.8798E-14  0.1005E-04  0.1263E-06  0.5198E-03  0.4208E-04  0.2001E+07
   -1.850011   29.78537  0.8798E-14  0.8606E-05  0.1973E-06  0.4688E-03  0.3103E-04  0.2712E+07
   -1.900009   29.78556  0.8798E-14  0.6810E-05  0.4133E-06  0.2072E-03  0.2491E-04  0.5736E+06
   -1.950006   29.80210  0.8798E-14  0.4694E-05  0.1062E-05  0.1686E-03  0.1360E-04 -0.4486E+06
   -2.000003   29.80500  0.8798E-14  0.0000E+00  0.0000E+00  0.0000E+00  0.2336E-04  0.0000E+00
