 1 - depth, m
 2 - temperature, C
 3 - salinity, kg/kg
 4 - turbulent kinetic energy, m**2/s**2
 5 - dissipation rate, m**2/s**3
 6 - kinematic heat conductance, m**2/s
 7 - modulus of horizontal velocity, m/s
 8 - Richardson number, n/d
   -0.000000   30.18072  0.7805E-13  0.4756E-05  0.2914E-06  0.4899E-04  0.1153E-02  0.2566E+04
   -0.049997   30.21236  0.7805E-13  0.8213E-05  0.1298E-06  0.1795E-03  0.6516E-03  0.5913E+02
   -0.099994   30.22391  0.7805E-13  0.9930E-05  0.8985E-07  0.3971E-03  0.4785E-03  0.4143E+02
   -0.149992   30.22719  0.7805E-13  0.1100E-04  0.7554E-07  0.4788E-03  0.4226E-03  0.2032E+02
   -0.199991   30.22980  0.7805E-13  0.1183E-04  0.6709E-07  0.6369E-03  0.3773E-03  0.1309E+02
   -0.249989   30.23169  0.7805E-13  0.1249E-04  0.6151E-07  0.7605E-03  0.3433E-03  0.9685E+01
   -0.299989   30.23323  0.7805E-13  0.1302E-04  0.5750E-07  0.8832E-03  0.3150E-03  0.7696E+01
   -0.349988   30.23451  0.7805E-13  0.1346E-04  0.5447E-07  0.9944E-03  0.2907E-03  0.6582E+01
   -0.399988   30.23563  0.7805E-13  0.1383E-04  0.5210E-07  0.1096E-02  0.2693E-03  0.5852E+01
   -0.449988   30.23661  0.7805E-13  0.1414E-04  0.5016E-07  0.1190E-02  0.2504E-03  0.5497E+01
   -0.499988   30.23750  0.7805E-13  0.1441E-04  0.4853E-07  0.1277E-02  0.2337E-03  0.5335E+01
   -0.549989   30.23830  0.7805E-13  0.1464E-04  0.4716E-07  0.1356E-02  0.2187E-03  0.5265E+01
   -0.599990   30.23905  0.7805E-13  0.1483E-04  0.4600E-07  0.1429E-02  0.2052E-03  0.5249E+01
   -0.649991   30.23975  0.7805E-13  0.1500E-04  0.4500E-07  0.1493E-02  0.1929E-03  0.5313E+01
   -0.699992   30.24040  0.7805E-13  0.1513E-04  0.4413E-07  0.1551E-02  0.1815E-03  0.5410E+01
   -0.749993   30.24102  0.7805E-13  0.1524E-04  0.4340E-07  0.1601E-02  0.1711E-03  0.5584E+01
   -0.799995   30.24161  0.7805E-13  0.1533E-04  0.4277E-07  0.1643E-02  0.1613E-03  0.5789E+01
   -0.849996   30.24217  0.7805E-13  0.1539E-04  0.4225E-07  0.1678E-02  0.1522E-03  0.6080E+01
   -0.899998   30.24272  0.7805E-13  0.1543E-04  0.4181E-07  0.1706E-02  0.1437E-03  0.6410E+01
   -0.950000   30.24325  0.7805E-13  0.1546E-04  0.4148E-07  0.1725E-02  0.1357E-03  0.6849E+01
   -1.000001   30.24376  0.7805E-13  0.1546E-04  0.4123E-07  0.1736E-02  0.1281E-03  0.7348E+01
   -1.050003   30.24427  0.7805E-13  0.1544E-04  0.4109E-07  0.1739E-02  0.1209E-03  0.8304E+01
   -1.100005   30.24477  0.7805E-13  0.1539E-04  0.4104E-07  0.1822E-02  0.1141E-03  0.2750E+02
   -1.150007   30.24524  0.7805E-13  0.1533E-04  0.4112E-07  0.1662E-02  0.1080E-03  0.6140E+02
   -1.200008   30.24575  0.7805E-13  0.1525E-04  0.4131E-07  0.1686E-02  0.1017E-03  0.1183E+02
   -1.250010   30.24624  0.7805E-13  0.1514E-04  0.4166E-07  0.1657E-02  0.9563E-04  0.1249E+02
   -1.300011   30.24674  0.7805E-13  0.1500E-04  0.4219E-07  0.1611E-02  0.8981E-04  0.1456E+02
   -1.350012   30.24725  0.7805E-13  0.1484E-04  0.4295E-07  0.1554E-02  0.8420E-04  0.1725E+02
   -1.400013   30.24777  0.7805E-13  0.1464E-04  0.4401E-07  0.1481E-02  0.7872E-04  0.2117E+02
   -1.450014   30.24832  0.7805E-13  0.1441E-04  0.4549E-07  0.1405E-02  0.7337E-04  0.2665E+02
   -1.500015   30.24889  0.7805E-13  0.1412E-04  0.4756E-07  0.1298E-02  0.6810E-04  0.3577E+02
   -1.550015   30.24951  0.7805E-13  0.1378E-04  0.5053E-07  0.1214E-02  0.6286E-04  0.5001E+02
   -1.600015   30.25017  0.7805E-13  0.1336E-04  0.5506E-07  0.1074E-02  0.5770E-04  0.8895E+02
   -1.650015   30.25095  0.7805E-13  0.1284E-04  0.6212E-07  0.9953E-03  0.5227E-04  0.6613E+04
   -1.700014   30.25183  0.7805E-13  0.1212E-04  0.7486E-07  0.8168E-03  0.4693E-04 -0.2567E+03
   -1.750014   30.25333  0.7805E-13  0.1116E-04  0.9592E-07  0.7340E-03  0.4000E-04  0.4518E+06
   -1.800012   30.25466  0.7805E-13  0.9851E-05  0.1407E-06  0.5170E-03  0.3431E-04  0.2985E+05
   -1.850011   30.25959  0.7805E-13  0.8368E-05  0.2237E-06  0.4700E-03  0.2482E-04  0.8852E+07
   -1.900009   30.25896  0.7805E-13  0.6605E-05  0.4605E-06  0.2174E-03  0.2012E-04 -0.1898E+07
   -1.950006   30.27480  0.7805E-13  0.4584E-05  0.1173E-05  0.1792E-03  0.1091E-04 -0.6002E+06
   -2.000003   30.27709  0.7805E-13  0.0000E+00  0.0000E+00  0.0000E+00  0.1972E-04  0.0000E+00
