 1 - depth, m
 2 - temperature, C
 3 - salinity, kg/kg
 4 - turbulent kinetic energy, m**2/s**2
 5 - dissipation rate, m**2/s**3
 6 - kinematic heat conductance, m**2/s
 7 - modulus of horizontal velocity, m/s
 8 - Richardson number, n/d
   -0.000000   30.18516  0.5672E-14  0.4635E-05  0.2816E-06  0.4965E-04  0.1570E-02  0.4884E+04
   -0.049997   30.21398  0.5672E-14  0.7940E-05  0.1256E-06  0.1734E-03  0.8962E-03  0.1755E+04
   -0.099994   30.22521  0.5672E-14  0.9638E-05  0.8631E-07  0.3933E-03  0.6536E-03  0.1948E+02
   -0.149992   30.22830  0.5672E-14  0.1070E-04  0.7247E-07  0.4729E-03  0.5768E-03  0.9504E+01
   -0.199991   30.23077  0.5672E-14  0.1152E-04  0.6436E-07  0.6316E-03  0.5146E-03  0.6107E+01
   -0.249989   30.23256  0.5672E-14  0.1218E-04  0.5904E-07  0.7553E-03  0.4681E-03  0.4512E+01
   -0.299989   30.23402  0.5672E-14  0.1272E-04  0.5525E-07  0.8784E-03  0.4294E-03  0.3586E+01
   -0.349988   30.23524  0.5672E-14  0.1316E-04  0.5241E-07  0.9900E-03  0.3962E-03  0.3072E+01
   -0.399988   30.23631  0.5672E-14  0.1354E-04  0.5020E-07  0.1092E-02  0.3669E-03  0.2734E+01
   -0.449988   30.23725  0.5672E-14  0.1386E-04  0.4841E-07  0.1187E-02  0.3411E-03  0.2572E+01
   -0.499988   30.23810  0.5672E-14  0.1414E-04  0.4692E-07  0.1275E-02  0.3184E-03  0.2498E+01
   -0.549989   30.23887  0.5672E-14  0.1439E-04  0.4568E-07  0.1355E-02  0.2980E-03  0.2470E+01
   -0.599990   30.23959  0.5672E-14  0.1460E-04  0.4463E-07  0.1427E-02  0.2795E-03  0.2466E+01
   -0.649991   30.24026  0.5672E-14  0.1478E-04  0.4375E-07  0.1493E-02  0.2627E-03  0.2503E+01
   -0.699992   30.24090  0.5672E-14  0.1493E-04  0.4300E-07  0.1551E-02  0.2473E-03  0.2553E+01
   -0.749993   30.24150  0.5672E-14  0.1506E-04  0.4237E-07  0.1601E-02  0.2331E-03  0.2643E+01
   -0.799995   30.24207  0.5672E-14  0.1517E-04  0.4185E-07  0.1645E-02  0.2198E-03  0.2745E+01
   -0.849996   30.24262  0.5672E-14  0.1525E-04  0.4143E-07  0.1680E-02  0.2075E-03  0.2892E+01
   -0.899998   30.24316  0.5672E-14  0.1531E-04  0.4110E-07  0.1708E-02  0.1959E-03  0.3055E+01
   -0.950000   30.24368  0.5672E-14  0.1535E-04  0.4087E-07  0.1728E-02  0.1850E-03  0.3275E+01
   -1.000001   30.24419  0.5672E-14  0.1538E-04  0.4072E-07  0.1740E-02  0.1747E-03  0.3521E+01
   -1.050003   30.24469  0.5672E-14  0.1538E-04  0.4068E-07  0.1742E-02  0.1649E-03  0.3996E+01
   -1.100005   30.24519  0.5672E-14  0.1536E-04  0.4073E-07  0.1821E-02  0.1556E-03  0.1332E+02
   -1.150006   30.24566  0.5672E-14  0.1532E-04  0.4091E-07  0.1672E-02  0.1472E-03  0.2935E+02
   -1.200008   30.24618  0.5672E-14  0.1526E-04  0.4121E-07  0.1692E-02  0.1387E-03  0.5711E+01
   -1.250010   30.24668  0.5672E-14  0.1517E-04  0.4166E-07  0.1663E-02  0.1304E-03  0.6059E+01
   -1.300011   30.24719  0.5672E-14  0.1506E-04  0.4229E-07  0.1617E-02  0.1225E-03  0.7073E+01
   -1.350012   30.24771  0.5672E-14  0.1492E-04  0.4316E-07  0.1560E-02  0.1149E-03  0.8397E+01
   -1.400013   30.24824  0.5672E-14  0.1474E-04  0.4433E-07  0.1488E-02  0.1074E-03  0.1031E+02
   -1.450014   30.24881  0.5672E-14  0.1453E-04  0.4592E-07  0.1412E-02  0.1001E-03  0.1299E+02
   -1.500015   30.24940  0.5672E-14  0.1427E-04  0.4811E-07  0.1306E-02  0.9297E-04  0.1741E+02
   -1.550015   30.25004  0.5672E-14  0.1395E-04  0.5120E-07  0.1222E-02  0.8581E-04  0.2435E+02
   -1.600015   30.25074  0.5672E-14  0.1355E-04  0.5585E-07  0.1081E-02  0.7878E-04  0.4305E+02
   -1.650015   30.25156  0.5672E-14  0.1305E-04  0.6300E-07  0.1001E-02  0.7137E-04  0.9677E+02
   -1.700014   30.25248  0.5672E-14  0.1236E-04  0.7576E-07  0.8211E-03  0.6412E-04  0.1085E+03
   -1.750013   30.25405  0.5672E-14  0.1144E-04  0.9662E-07  0.7416E-03  0.5473E-04  0.2958E+05
   -1.800012   30.25543  0.5672E-14  0.1019E-04  0.1398E-06  0.5250E-03  0.4721E-04  0.2475E+05
   -1.850010   30.26054  0.5672E-14  0.8720E-05  0.2226E-06  0.4741E-03  0.3450E-04  0.3178E+08
   -1.900008   30.26013  0.5672E-14  0.6940E-05  0.4634E-06  0.2197E-03  0.2790E-04  0.1618E+07
   -1.950006   30.27663  0.5672E-14  0.4797E-05  0.1172E-05  0.1756E-03  0.1538E-04 -0.2796E+06
   -2.000003   30.27941  0.5672E-14  0.0000E+00  0.0000E+00  0.0000E+00  0.2679E-04  0.0000E+00
