 1 - depth, m
 2 - temperature, C
 3 - salinity, kg/kg
 4 - turbulent kinetic energy, m**2/s**2
 5 - dissipation rate, m**2/s**3
 6 - kinematic heat conductance, m**2/s
 7 - modulus of horizontal velocity, m/s
 8 - Richardson number, n/d
   -0.000000   29.83590  0.2454E-14  0.5144E-05  0.2927E-06  0.5114E-04  0.3089E-02  0.1756E+04
   -0.049997   29.86544  0.2454E-14  0.8416E-05  0.1271E-06  0.1984E-03  0.1661E-02  0.1155E+03
   -0.099994   29.87465  0.2454E-14  0.9952E-05  0.8991E-07  0.3863E-03  0.1291E-02  0.5251E+01
   -0.149992   29.87787  0.2454E-14  0.1096E-04  0.7570E-07  0.4823E-03  0.1147E-02  0.2708E+01
   -0.199991   29.88034  0.2454E-14  0.1176E-04  0.6741E-07  0.6243E-03  0.1034E-02  0.1790E+01
   -0.249989   29.88219  0.2454E-14  0.1241E-04  0.6198E-07  0.7371E-03  0.9471E-03  0.1382E+01
   -0.299989   29.88373  0.2454E-14  0.1295E-04  0.5806E-07  0.8459E-03  0.8735E-03  0.1257E+01
   -0.349988   29.88503  0.2454E-14  0.1345E-04  0.5496E-07  0.9620E-03  0.8058E-03  0.1280E+01
   -0.399988   29.88615  0.2454E-14  0.1390E-04  0.5240E-07  0.1085E-02  0.7407E-03  0.1298E+01
   -0.449988   29.88713  0.2454E-14  0.1431E-04  0.5026E-07  0.1208E-02  0.6804E-03  0.1309E+01
   -0.499988   29.88799  0.2454E-14  0.1467E-04  0.4848E-07  0.1322E-02  0.6258E-03  0.1315E+01
   -0.549989   29.88876  0.2454E-14  0.1499E-04  0.4701E-07  0.1427E-02  0.5769E-03  0.1311E+01
   -0.599990   29.88947  0.2454E-14  0.1526E-04  0.4579E-07  0.1522E-02  0.5328E-03  0.1304E+01
   -0.649991   29.89011  0.2454E-14  0.1549E-04  0.4479E-07  0.1606E-02  0.4932E-03  0.1292E+01
   -0.699992   29.89072  0.2454E-14  0.1568E-04  0.4398E-07  0.1677E-02  0.4575E-03  0.1276E+01
   -0.749993   29.89130  0.2454E-14  0.1583E-04  0.4334E-07  0.1736E-02  0.4254E-03  0.1257E+01
   -0.799995   29.89185  0.2454E-14  0.1595E-04  0.4285E-07  0.1782E-02  0.3965E-03  0.1236E+01
   -0.849996   29.89237  0.2454E-14  0.1603E-04  0.4249E-07  0.1817E-02  0.3704E-03  0.1213E+01
   -0.899998   29.89289  0.2454E-14  0.1609E-04  0.4225E-07  0.1839E-02  0.3469E-03  0.1193E+01
   -0.950000   29.89339  0.2454E-14  0.1612E-04  0.4213E-07  0.1850E-02  0.3257E-03  0.1178E+01
   -1.000001   29.89389  0.2454E-14  0.1613E-04  0.4211E-07  0.1852E-02  0.3066E-03  0.1182E+01
   -1.050003   29.89438  0.2454E-14  0.1611E-04  0.4219E-07  0.1843E-02  0.2891E-03  0.1245E+01
   -1.100005   29.89487  0.2454E-14  0.1608E-04  0.4237E-07  0.1964E-02  0.2731E-03  0.3862E+01
   -1.150006   29.89532  0.2454E-14  0.1602E-04  0.4269E-07  0.1706E-02  0.2594E-03  0.9391E+01
   -1.200008   29.89585  0.2454E-14  0.1594E-04  0.4313E-07  0.1761E-02  0.2445E-03  0.1750E+01
   -1.250009   29.89636  0.2454E-14  0.1583E-04  0.4375E-07  0.1726E-02  0.2305E-03  0.1869E+01
   -1.300011   29.89687  0.2454E-14  0.1569E-04  0.4458E-07  0.1669E-02  0.2170E-03  0.2196E+01
   -1.350012   29.89740  0.2454E-14  0.1552E-04  0.4570E-07  0.1603E-02  0.2038E-03  0.2653E+01
   -1.400013   29.89795  0.2454E-14  0.1532E-04  0.4718E-07  0.1518E-02  0.1910E-03  0.3302E+01
   -1.450014   29.89853  0.2454E-14  0.1507E-04  0.4918E-07  0.1434E-02  0.1783E-03  0.4272E+01
   -1.500015   29.89915  0.2454E-14  0.1477E-04  0.5195E-07  0.1318E-02  0.1658E-03  0.5880E+01
   -1.550015   29.89984  0.2454E-14  0.1440E-04  0.5590E-07  0.1228E-02  0.1531E-03  0.8864E+01
   -1.600015   29.90059  0.2454E-14  0.1393E-04  0.6197E-07  0.1083E-02  0.1406E-03  0.3754E+02
   -1.650015   29.90152  0.2454E-14  0.1333E-04  0.7146E-07  0.9947E-03  0.1271E-03  0.3211E+03
   -1.700014   29.90262  0.2454E-14  0.1251E-04  0.8794E-07  0.8161E-03  0.1135E-03  0.6576E+05
   -1.750013   29.90447  0.2454E-14  0.1146E-04  0.1146E-06  0.7270E-03  0.9595E-04  0.2514E+05
   -1.800012   29.90599  0.2454E-14  0.1006E-04  0.1725E-06  0.5115E-03  0.8237E-04  0.2269E+04
   -1.850010   29.91267  0.2454E-14  0.8560E-05  0.2801E-06  0.4690E-03  0.5855E-04  0.2492E+07
   -1.900008   29.91097  0.2454E-14  0.6786E-05  0.5862E-06  0.2156E-03  0.4788E-04 -0.2757E+06
   -1.950006   29.93093  0.2454E-14  0.4771E-05  0.1440E-05  0.1959E-03  0.2575E-04 -0.8488E+05
   -2.000003   29.93250  0.2454E-14  0.0000E+00  0.0000E+00  0.0000E+00  0.4831E-04  0.0000E+00
