 1 - depth, m
 2 - temperature, C
 3 - salinity, kg/kg
 4 - turbulent kinetic energy, m**2/s**2
 5 - dissipation rate, m**2/s**3
 6 - kinematic heat conductance, m**2/s
 7 - modulus of horizontal velocity, m/s
 8 - Richardson number, n/d
   -0.000000   30.43964  0.9072E-14  0.4852E-05  0.3032E-06  0.5077E-04  0.1450E-02  0.9938E+04
   -0.049997   30.47036  0.9072E-14  0.8316E-05  0.1353E-06  0.1768E-03  0.8301E-03  0.4473E+04
   -0.099994   30.48230  0.9072E-14  0.1009E-04  0.9309E-07  0.3993E-03  0.6078E-03  0.2264E+02
   -0.149992   30.48560  0.9072E-14  0.1120E-04  0.7811E-07  0.4792E-03  0.5369E-03  0.1107E+02
   -0.199991   30.48822  0.9072E-14  0.1207E-04  0.6933E-07  0.6411E-03  0.4794E-03  0.7101E+01
   -0.249989   30.49013  0.9072E-14  0.1275E-04  0.6358E-07  0.7663E-03  0.4365E-03  0.5238E+01
   -0.299988   30.49168  0.9072E-14  0.1331E-04  0.5947E-07  0.8912E-03  0.4007E-03  0.4164E+01
   -0.349988   30.49298  0.9072E-14  0.1377E-04  0.5639E-07  0.1004E-02  0.3701E-03  0.3559E+01
   -0.399988   30.49410  0.9072E-14  0.1415E-04  0.5399E-07  0.1107E-02  0.3430E-03  0.3169E+01
   -0.449988   30.49510  0.9072E-14  0.1448E-04  0.5203E-07  0.1203E-02  0.3192E-03  0.2974E+01
   -0.499988   30.49600  0.9072E-14  0.1477E-04  0.5042E-07  0.1291E-02  0.2981E-03  0.2893E+01
   -0.549989   30.49682  0.9072E-14  0.1501E-04  0.4906E-07  0.1372E-02  0.2792E-03  0.2853E+01
   -0.599990   30.49758  0.9072E-14  0.1522E-04  0.4791E-07  0.1444E-02  0.2621E-03  0.2854E+01
   -0.649991   30.49829  0.9072E-14  0.1540E-04  0.4694E-07  0.1509E-02  0.2466E-03  0.2888E+01
   -0.699992   30.49895  0.9072E-14  0.1555E-04  0.4611E-07  0.1567E-02  0.2323E-03  0.2953E+01
   -0.749993   30.49959  0.9072E-14  0.1568E-04  0.4542E-07  0.1617E-02  0.2190E-03  0.3049E+01
   -0.799995   30.50019  0.9072E-14  0.1578E-04  0.4484E-07  0.1659E-02  0.2067E-03  0.3176E+01
   -0.849996   30.50078  0.9072E-14  0.1585E-04  0.4437E-07  0.1693E-02  0.1952E-03  0.3338E+01
   -0.899998   30.50134  0.9072E-14  0.1590E-04  0.4400E-07  0.1720E-02  0.1844E-03  0.3540E+01
   -0.949999   30.50189  0.9072E-14  0.1593E-04  0.4373E-07  0.1737E-02  0.1743E-03  0.3788E+01
   -1.000001   30.50243  0.9072E-14  0.1594E-04  0.4356E-07  0.1747E-02  0.1647E-03  0.4090E+01
   -1.050003   30.50296  0.9072E-14  0.1593E-04  0.4350E-07  0.1747E-02  0.1555E-03  0.4633E+01
   -1.100005   30.50348  0.9072E-14  0.1589E-04  0.4355E-07  0.1839E-02  0.1468E-03  0.1524E+02
   -1.150006   30.50398  0.9072E-14  0.1583E-04  0.4375E-07  0.1654E-02  0.1391E-03  0.3545E+02
   -1.200008   30.50452  0.9072E-14  0.1575E-04  0.4407E-07  0.1684E-02  0.1310E-03  0.6732E+01
   -1.250009   30.50506  0.9072E-14  0.1564E-04  0.4456E-07  0.1653E-02  0.1232E-03  0.7172E+01
   -1.300011   30.50559  0.9072E-14  0.1550E-04  0.4527E-07  0.1602E-02  0.1158E-03  0.8412E+01
   -1.350012   30.50614  0.9072E-14  0.1533E-04  0.4626E-07  0.1541E-02  0.1086E-03  0.1011E+02
   -1.400013   30.50671  0.9072E-14  0.1512E-04  0.4760E-07  0.1462E-02  0.1016E-03  0.1255E+02
   -1.450014   30.50731  0.9072E-14  0.1487E-04  0.4945E-07  0.1383E-02  0.9466E-04  0.1612E+02
   -1.500014   30.50795  0.9072E-14  0.1456E-04  0.5204E-07  0.1270E-02  0.8787E-04  0.2211E+02
   -1.550015   30.50865  0.9072E-14  0.1419E-04  0.5575E-07  0.1186E-02  0.8103E-04  0.3205E+02
   -1.600015   30.50940  0.9072E-14  0.1372E-04  0.6149E-07  0.1043E-02  0.7432E-04  0.6669E+02
   -1.650014   30.51033  0.9072E-14  0.1312E-04  0.7055E-07  0.9643E-03  0.6709E-04  0.2559E+04
   -1.700014   30.51141  0.9072E-14  0.1229E-04  0.8681E-07  0.7855E-03  0.5990E-04 -0.4982E+04
   -1.750013   30.51332  0.9072E-14  0.1120E-04  0.1132E-06  0.7064E-03  0.5033E-04  0.6269E+05
   -1.800012   30.51482  0.9072E-14  0.9761E-05  0.1694E-06  0.4826E-03  0.4315E-04  0.9951E+05
   -1.850010   30.52174  0.9072E-14  0.8203E-05  0.2769E-06  0.4503E-03  0.3005E-04  0.2528E+08
   -1.900008   30.51985  0.9072E-14  0.6482E-05  0.5808E-06  0.2082E-03  0.2452E-04  0.9821E+05
   -1.950005   30.53987  0.9072E-14  0.4576E-05  0.1436E-05  0.1963E-03  0.1293E-04 -0.5735E+06
   -2.000002   30.54047  0.9072E-14  0.0000E+00  0.0000E+00  0.0000E+00  0.2507E-04  0.0000E+00
