 1 - depth, m
 2 - temperature, C
 3 - salinity, kg/kg
 4 - turbulent kinetic energy, m**2/s**2
 5 - dissipation rate, m**2/s**3
 6 - kinematic heat conductance, m**2/s
 7 - modulus of horizontal velocity, m/s
 8 - Richardson number, n/d
   -0.000000   30.31866  0.7329E-13  0.4620E-05  0.2794E-06  0.4820E-04  0.5521E-03  0.6687E+05
   -0.049997   30.34935  0.7329E-13  0.8161E-05  0.1240E-06  0.1820E-03  0.3095E-03  0.9230E+02
   -0.099994   30.36011  0.7329E-13  0.9860E-05  0.8614E-07  0.4105E-03  0.2264E-03  0.1485E+03
   -0.149992   30.36314  0.7329E-13  0.1092E-04  0.7285E-07  0.4873E-03  0.2006E-03  0.7287E+02
   -0.199991   30.36559  0.7329E-13  0.1175E-04  0.6497E-07  0.6485E-03  0.1794E-03  0.4772E+02
   -0.249989   30.36737  0.7329E-13  0.1241E-04  0.5976E-07  0.7733E-03  0.1634E-03  0.3551E+02
   -0.299988   30.36883  0.7329E-13  0.1294E-04  0.5602E-07  0.8966E-03  0.1501E-03  0.2844E+02
   -0.349988   30.37005  0.7329E-13  0.1339E-04  0.5321E-07  0.1009E-02  0.1387E-03  0.2437E+02
   -0.399988   30.37112  0.7329E-13  0.1377E-04  0.5102E-07  0.1111E-02  0.1286E-03  0.2178E+02
   -0.449988   30.37206  0.7329E-13  0.1409E-04  0.4923E-07  0.1206E-02  0.1197E-03  0.2044E+02
   -0.499988   30.37291  0.7329E-13  0.1437E-04  0.4775E-07  0.1293E-02  0.1118E-03  0.1992E+02
   -0.549989   30.37369  0.7329E-13  0.1462E-04  0.4652E-07  0.1373E-02  0.1047E-03  0.1964E+02
   -0.599990   30.37442  0.7329E-13  0.1483E-04  0.4547E-07  0.1445E-02  0.9834E-04  0.1968E+02
   -0.649991   30.37509  0.7329E-13  0.1501E-04  0.4459E-07  0.1510E-02  0.9250E-04  0.1990E+02
   -0.699992   30.37573  0.7329E-13  0.1516E-04  0.4385E-07  0.1568E-02  0.8713E-04  0.2038E+02
   -0.749993   30.37633  0.7329E-13  0.1529E-04  0.4323E-07  0.1618E-02  0.8216E-04  0.2103E+02
   -0.799995   30.37691  0.7329E-13  0.1540E-04  0.4272E-07  0.1660E-02  0.7754E-04  0.2194E+02
   -0.849996   30.37747  0.7329E-13  0.1548E-04  0.4231E-07  0.1695E-02  0.7323E-04  0.2304E+02
   -0.899998   30.37801  0.7329E-13  0.1554E-04  0.4200E-07  0.1722E-02  0.6918E-04  0.2447E+02
   -0.950000   30.37853  0.7329E-13  0.1558E-04  0.4178E-07  0.1740E-02  0.6536E-04  0.2616E+02
   -1.000001   30.37905  0.7329E-13  0.1560E-04  0.4166E-07  0.1751E-02  0.6174E-04  0.2829E+02
   -1.050003   30.37956  0.7329E-13  0.1560E-04  0.4163E-07  0.1753E-02  0.5832E-04  0.3202E+02
   -1.100005   30.38006  0.7329E-13  0.1558E-04  0.4171E-07  0.1837E-02  0.5505E-04  0.1067E+03
   -1.150006   30.38054  0.7329E-13  0.1554E-04  0.4193E-07  0.1673E-02  0.5213E-04  0.2395E+03
   -1.200008   30.38107  0.7329E-13  0.1548E-04  0.4226E-07  0.1696E-02  0.4910E-04  0.4618E+02
   -1.250009   30.38158  0.7329E-13  0.1539E-04  0.4276E-07  0.1667E-02  0.4621E-04  0.4931E+02
   -1.300011   30.38210  0.7329E-13  0.1527E-04  0.4345E-07  0.1618E-02  0.4342E-04  0.5760E+02
   -1.350012   30.38263  0.7329E-13  0.1512E-04  0.4439E-07  0.1561E-02  0.4072E-04  0.6894E+02
   -1.400013   30.38318  0.7329E-13  0.1494E-04  0.4567E-07  0.1485E-02  0.3809E-04  0.8498E+02
   -1.450014   30.38376  0.7329E-13  0.1472E-04  0.4739E-07  0.1409E-02  0.3551E-04  0.1082E+03
   -1.500014   30.38437  0.7329E-13  0.1444E-04  0.4977E-07  0.1298E-02  0.3297E-04  0.1466E+03
   -1.550015   30.38504  0.7329E-13  0.1411E-04  0.5312E-07  0.1217E-02  0.3043E-04  0.2079E+03
   -1.600015   30.38576  0.7329E-13  0.1370E-04  0.5826E-07  0.1072E-02  0.2794E-04  0.4153E+03
   -1.650015   30.38664  0.7329E-13  0.1316E-04  0.6615E-07  0.9974E-03  0.2526E-04  0.5383E+05
   -1.700014   30.38760  0.7329E-13  0.1243E-04  0.8037E-07  0.8094E-03  0.2269E-04  0.1994E+06
   -1.750013   30.38936  0.7329E-13  0.1145E-04  0.1036E-06  0.7396E-03  0.1920E-04  0.1094E+07
   -1.800012   30.39073  0.7329E-13  0.1015E-04  0.1534E-06  0.5084E-03  0.1657E-04  0.3156E+06
   -1.850010   30.39664  0.7329E-13  0.8669E-05  0.2466E-06  0.4765E-03  0.1189E-04  0.8960E+09
   -1.900008   30.39558  0.7329E-13  0.6948E-05  0.5085E-06  0.2160E-03  0.9741E-05  0.3141E+07
   -1.950006   30.41363  0.7329E-13  0.4815E-05  0.1291E-05  0.1812E-03  0.5317E-05 -0.6384E+07
   -2.000003   30.41701  0.7329E-13  0.0000E+00  0.0000E+00  0.0000E+00  0.9506E-05  0.0000E+00
