 1 - depth, m
 2 - temperature, C
 3 - salinity, kg/kg
 4 - turbulent kinetic energy, m**2/s**2
 5 - dissipation rate, m**2/s**3
 6 - kinematic heat conductance, m**2/s
 7 - modulus of horizontal velocity, m/s
 8 - Richardson number, n/d
   -0.000000   30.71171  0.5697E-14  0.5088E-05  0.3126E-06  0.5161E-04  0.2215E-02  0.4324E+04
   -0.049997   30.74233  0.5697E-14  0.8546E-05  0.1385E-06  0.1855E-03  0.1234E-02  0.4345E+04
   -0.099994   30.75333  0.5697E-14  0.1028E-04  0.9610E-07  0.3958E-03  0.9270E-03  0.1047E+02
   -0.149992   30.75667  0.5697E-14  0.1139E-04  0.8049E-07  0.4840E-03  0.8187E-03  0.5201E+01
   -0.199991   30.75928  0.5697E-14  0.1226E-04  0.7139E-07  0.6423E-03  0.7325E-03  0.3342E+01
   -0.249989   30.76119  0.5697E-14  0.1294E-04  0.6543E-07  0.7683E-03  0.6676E-03  0.2461E+01
   -0.299988   30.76274  0.5697E-14  0.1351E-04  0.6120E-07  0.8920E-03  0.6136E-03  0.1963E+01
   -0.349988   30.76405  0.5697E-14  0.1398E-04  0.5803E-07  0.1003E-02  0.5672E-03  0.1685E+01
   -0.399988   30.76518  0.5697E-14  0.1437E-04  0.5555E-07  0.1105E-02  0.5259E-03  0.1537E+01
   -0.449988   30.76619  0.5697E-14  0.1472E-04  0.5352E-07  0.1204E-02  0.4891E-03  0.1473E+01
   -0.499988   30.76709  0.5697E-14  0.1503E-04  0.5182E-07  0.1298E-02  0.4559E-03  0.1458E+01
   -0.549989   30.76792  0.5697E-14  0.1529E-04  0.5040E-07  0.1384E-02  0.4260E-03  0.1442E+01
   -0.599989   30.76868  0.5697E-14  0.1552E-04  0.4920E-07  0.1462E-02  0.3989E-03  0.1444E+01
   -0.649990   30.76939  0.5697E-14  0.1571E-04  0.4820E-07  0.1531E-02  0.3742E-03  0.1445E+01
   -0.699992   30.77006  0.5697E-14  0.1588E-04  0.4736E-07  0.1592E-02  0.3517E-03  0.1463E+01
   -0.749993   30.77069  0.5697E-14  0.1601E-04  0.4667E-07  0.1643E-02  0.3311E-03  0.1482E+01
   -0.799994   30.77130  0.5697E-14  0.1612E-04  0.4612E-07  0.1685E-02  0.3122E-03  0.1529E+01
   -0.849996   30.77188  0.5697E-14  0.1620E-04  0.4568E-07  0.1718E-02  0.2947E-03  0.1584E+01
   -0.899998   30.77245  0.5697E-14  0.1626E-04  0.4535E-07  0.1743E-02  0.2784E-03  0.1674E+01
   -0.949999   30.77300  0.5697E-14  0.1629E-04  0.4512E-07  0.1760E-02  0.2632E-03  0.1780E+01
   -1.000001   30.77354  0.5697E-14  0.1630E-04  0.4501E-07  0.1768E-02  0.2488E-03  0.1930E+01
   -1.050003   30.77408  0.5697E-14  0.1629E-04  0.4500E-07  0.1766E-02  0.2352E-03  0.2181E+01
   -1.100004   30.77461  0.5697E-14  0.1626E-04  0.4512E-07  0.1865E-02  0.2221E-03  0.7172E+01
   -1.150006   30.77511  0.5697E-14  0.1620E-04  0.4539E-07  0.1661E-02  0.2106E-03  0.1699E+02
   -1.200007   30.77567  0.5697E-14  0.1612E-04  0.4579E-07  0.1697E-02  0.1984E-03  0.3196E+01
   -1.250009   30.77622  0.5697E-14  0.1602E-04  0.4638E-07  0.1665E-02  0.1868E-03  0.3426E+01
   -1.300010   30.77677  0.5697E-14  0.1588E-04  0.4721E-07  0.1611E-02  0.1756E-03  0.4014E+01
   -1.350011   30.77734  0.5697E-14  0.1570E-04  0.4833E-07  0.1548E-02  0.1647E-03  0.4867E+01
   -1.400012   30.77793  0.5697E-14  0.1549E-04  0.4985E-07  0.1466E-02  0.1541E-03  0.6050E+01
   -1.450013   30.77856  0.5697E-14  0.1523E-04  0.5193E-07  0.1386E-02  0.1437E-03  0.7855E+01
   -1.500014   30.77922  0.5697E-14  0.1491E-04  0.5484E-07  0.1269E-02  0.1334E-03  0.1087E+02
   -1.550014   30.77996  0.5697E-14  0.1452E-04  0.5900E-07  0.1187E-02  0.1230E-03  0.1621E+02
   -1.600014   30.78076  0.5697E-14  0.1403E-04  0.6552E-07  0.1039E-02  0.1129E-03  0.4160E+02
   -1.650014   30.78178  0.5697E-14  0.1340E-04  0.7573E-07  0.9612E-03  0.1017E-03  0.3359E+04
   -1.700013   30.78293  0.5697E-14  0.1252E-04  0.9383E-07  0.7784E-03  0.9068E-04  0.8228E+04
   -1.750013   30.78504  0.5697E-14  0.1138E-04  0.1235E-06  0.7028E-03  0.7587E-04  0.5469E+05
   -1.800011   30.78666  0.5697E-14  0.9900E-05  0.1900E-06  0.4792E-03  0.6488E-04  0.3481E+05
   -1.850010   30.79431  0.5697E-14  0.8330E-05  0.3107E-06  0.4510E-03  0.4489E-04  0.5509E+08
   -1.900007   30.79185  0.5697E-14  0.6588E-05  0.6533E-06  0.2059E-03  0.3684E-04 -0.5801E+05
   -1.950005   30.81374  0.5697E-14  0.4679E-05  0.1598E-05  0.2045E-03  0.1923E-04 -0.9127E+05
   -2.000002   30.81488  0.5697E-14  0.0000E+00  0.0000E+00  0.0000E+00  0.3813E-04  0.0000E+00
