 1 - depth, m
 2 - temperature, C
 3 - salinity, kg/kg
 4 - turbulent kinetic energy, m**2/s**2
 5 - dissipation rate, m**2/s**3
 6 - kinematic heat conductance, m**2/s
 7 - modulus of horizontal velocity, m/s
 8 - Richardson number, n/d
   -0.000000   31.54878  0.3993E-13  0.5284E-05  0.3491E-06  0.5270E-04  0.6468E-03  0.1835E+05
   -0.049997   31.58279  0.3993E-13  0.9226E-05  0.1548E-06  0.1889E-03  0.3701E-03  0.7167E+03
   -0.099994   31.59543  0.3993E-13  0.1118E-04  0.1067E-06  0.4298E-03  0.2699E-03  0.1366E+03
   -0.149992   31.59887  0.3993E-13  0.1240E-04  0.8986E-07  0.5053E-03  0.2396E-03  0.6812E+02
   -0.199990   31.60167  0.3993E-13  0.1336E-04  0.7994E-07  0.6793E-03  0.2144E-03  0.4427E+02
   -0.249989   31.60370  0.3993E-13  0.1411E-04  0.7344E-07  0.8096E-03  0.1957E-03  0.3313E+02
   -0.299988   31.60535  0.3993E-13  0.1473E-04  0.6881E-07  0.9410E-03  0.1801E-03  0.2640E+02
   -0.349988   31.60673  0.3993E-13  0.1524E-04  0.6534E-07  0.1059E-02  0.1667E-03  0.2275E+02
   -0.399987   31.60793  0.3993E-13  0.1567E-04  0.6264E-07  0.1167E-02  0.1549E-03  0.2020E+02
   -0.449987   31.60900  0.3993E-13  0.1604E-04  0.6044E-07  0.1267E-02  0.1444E-03  0.1908E+02
   -0.499988   31.60997  0.3993E-13  0.1636E-04  0.5863E-07  0.1359E-02  0.1352E-03  0.1845E+02
   -0.549988   31.61085  0.3993E-13  0.1663E-04  0.5713E-07  0.1442E-02  0.1269E-03  0.1832E+02
   -0.599989   31.61166  0.3993E-13  0.1687E-04  0.5586E-07  0.1517E-02  0.1194E-03  0.1820E+02
   -0.649990   31.61243  0.3993E-13  0.1707E-04  0.5480E-07  0.1584E-02  0.1125E-03  0.1857E+02
   -0.699991   31.61315  0.3993E-13  0.1724E-04  0.5391E-07  0.1643E-02  0.1062E-03  0.1884E+02
   -0.749992   31.61383  0.3993E-13  0.1738E-04  0.5317E-07  0.1693E-02  0.1003E-03  0.1965E+02
   -0.799994   31.61449  0.3993E-13  0.1749E-04  0.5257E-07  0.1735E-02  0.9483E-04  0.2030E+02
   -0.849995   31.61512  0.3993E-13  0.1757E-04  0.5210E-07  0.1769E-02  0.8972E-04  0.2158E+02
   -0.899997   31.61574  0.3993E-13  0.1763E-04  0.5176E-07  0.1794E-02  0.8492E-04  0.2269E+02
   -0.949998   31.61634  0.3993E-13  0.1767E-04  0.5153E-07  0.1810E-02  0.8037E-04  0.2459E+02
   -1.000000   31.61693  0.3993E-13  0.1768E-04  0.5144E-07  0.1817E-02  0.7607E-04  0.2635E+02
   -1.050002   31.61752  0.3993E-13  0.1767E-04  0.5147E-07  0.1812E-02  0.7197E-04  0.3019E+02
   -1.100003   31.61810  0.3993E-13  0.1763E-04  0.5165E-07  0.1926E-02  0.6806E-04  0.9658E+02
   -1.150005   31.61864  0.3993E-13  0.1756E-04  0.5202E-07  0.1685E-02  0.6461E-04  0.2393E+03
   -1.200007   31.61926  0.3993E-13  0.1747E-04  0.5255E-07  0.1731E-02  0.6089E-04  0.4477E+02
   -1.250008   31.61987  0.3993E-13  0.1734E-04  0.5331E-07  0.1697E-02  0.5739E-04  0.4746E+02
   -1.300009   31.62048  0.3993E-13  0.1718E-04  0.5436E-07  0.1638E-02  0.5400E-04  0.5674E+02
   -1.350010   31.62111  0.3993E-13  0.1698E-04  0.5579E-07  0.1571E-02  0.5071E-04  0.6841E+02
   -1.400011   31.62177  0.3993E-13  0.1673E-04  0.5774E-07  0.1481E-02  0.4748E-04  0.8731E+02
   -1.450012   31.62247  0.3993E-13  0.1642E-04  0.6042E-07  0.1398E-02  0.4429E-04  0.1136E+03
   -1.500013   31.62322  0.3993E-13  0.1605E-04  0.6420E-07  0.1276E-02  0.4115E-04  0.1632E+03
   -1.550013   31.62406  0.3993E-13  0.1560E-04  0.6966E-07  0.1192E-02  0.3794E-04  0.2512E+03
   -1.600013   31.62498  0.3993E-13  0.1502E-04  0.7843E-07  0.1043E-02  0.3480E-04  0.2056E+04
   -1.650013   31.62622  0.3993E-13  0.1425E-04  0.9220E-07  0.9577E-03  0.3125E-04  0.6731E+04
   -1.700012   31.62764  0.3993E-13  0.1318E-04  0.1167E-06  0.7770E-03  0.2770E-04  0.1285E+05
   -1.750011   31.63031  0.3993E-13  0.1191E-04  0.1557E-06  0.7010E-03  0.2290E-04  0.1494E+07
   -1.800010   31.63193  0.3993E-13  0.1029E-04  0.2422E-06  0.4735E-03  0.1969E-04  0.6183E+06
   -1.850008   31.64236  0.3993E-13  0.8660E-05  0.4064E-06  0.4547E-03  0.1330E-04  0.5329E+09
   -1.900006   31.63798  0.3993E-13  0.6876E-05  0.8678E-06  0.2078E-03  0.1101E-04 -0.3230E+07
   -1.950003   31.66489  0.3993E-13  0.4970E-05  0.2035E-05  0.2265E-03  0.5712E-05 -0.9819E+06
   -2.000000   31.66357  0.3993E-13  0.0000E+00  0.0000E+00  0.0000E+00  0.1183E-04  0.0000E+00
