 1 - depth, m
 2 - temperature, C
 3 - salinity, kg/kg
 4 - turbulent kinetic energy, m**2/s**2
 5 - dissipation rate, m**2/s**3
 6 - kinematic heat conductance, m**2/s
 7 - modulus of horizontal velocity, m/s
 8 - Richardson number, n/d
   -0.000000   31.45681  0.3596E-14  0.5326E-05  0.3482E-06  0.5169E-04  0.4854E-03  0.3563E+05
   -0.049997   31.49228  0.3596E-14  0.9369E-05  0.1547E-06  0.1956E-03  0.2742E-03  0.6943E+05
   -0.099994   31.50422  0.3596E-14  0.1131E-04  0.1074E-06  0.4328E-03  0.2021E-03  0.2122E+03
   -0.149992   31.50771  0.3596E-14  0.1253E-04  0.9059E-07  0.5108E-03  0.1794E-03  0.1060E+03
   -0.199990   31.51053  0.3596E-14  0.1348E-04  0.8068E-07  0.6843E-03  0.1608E-03  0.6930E+02
   -0.249989   31.51257  0.3596E-14  0.1423E-04  0.7415E-07  0.8153E-03  0.1468E-03  0.5162E+02
   -0.299988   31.51423  0.3596E-14  0.1485E-04  0.6948E-07  0.9465E-03  0.1352E-03  0.4132E+02
   -0.349988   31.51563  0.3596E-14  0.1536E-04  0.6597E-07  0.1065E-02  0.1252E-03  0.3534E+02
   -0.399987   31.51685  0.3596E-14  0.1578E-04  0.6324E-07  0.1173E-02  0.1164E-03  0.3156E+02
   -0.449987   31.51792  0.3596E-14  0.1615E-04  0.6101E-07  0.1273E-02  0.1086E-03  0.2956E+02
   -0.499988   31.51890  0.3596E-14  0.1647E-04  0.5917E-07  0.1364E-02  0.1016E-03  0.2878E+02
   -0.549988   31.51979  0.3596E-14  0.1674E-04  0.5763E-07  0.1447E-02  0.9543E-04  0.2831E+02
   -0.599989   31.52061  0.3596E-14  0.1697E-04  0.5633E-07  0.1522E-02  0.8980E-04  0.2833E+02
   -0.649990   31.52138  0.3596E-14  0.1717E-04  0.5524E-07  0.1589E-02  0.8465E-04  0.2860E+02
   -0.699991   31.52211  0.3596E-14  0.1733E-04  0.5432E-07  0.1648E-02  0.7991E-04  0.2927E+02
   -0.749992   31.52280  0.3596E-14  0.1747E-04  0.5355E-07  0.1698E-02  0.7552E-04  0.3015E+02
   -0.799994   31.52346  0.3596E-14  0.1757E-04  0.5292E-07  0.1740E-02  0.7142E-04  0.3144E+02
   -0.849995   31.52410  0.3596E-14  0.1765E-04  0.5242E-07  0.1774E-02  0.6759E-04  0.3299E+02
   -0.899997   31.52472  0.3596E-14  0.1771E-04  0.5205E-07  0.1799E-02  0.6399E-04  0.3504E+02
   -0.949998   31.52532  0.3596E-14  0.1774E-04  0.5179E-07  0.1814E-02  0.6058E-04  0.3745E+02
   -1.000000   31.52592  0.3596E-14  0.1774E-04  0.5166E-07  0.1822E-02  0.5735E-04  0.4056E+02
   -1.050002   31.52650  0.3596E-14  0.1772E-04  0.5167E-07  0.1817E-02  0.5428E-04  0.4585E+02
   -1.100003   31.52709  0.3596E-14  0.1768E-04  0.5181E-07  0.1932E-02  0.5133E-04  0.1482E+03
   -1.150005   31.52763  0.3596E-14  0.1761E-04  0.5214E-07  0.1689E-02  0.4874E-04  0.3660E+03
   -1.200006   31.52825  0.3596E-14  0.1751E-04  0.5263E-07  0.1736E-02  0.4595E-04  0.6774E+02
   -1.250008   31.52885  0.3596E-14  0.1737E-04  0.5336E-07  0.1702E-02  0.4331E-04  0.7238E+02
   -1.300009   31.52946  0.3596E-14  0.1720E-04  0.5437E-07  0.1644E-02  0.4077E-04  0.8540E+02
   -1.350010   31.53009  0.3596E-14  0.1700E-04  0.5575E-07  0.1575E-02  0.3829E-04  0.1038E+03
   -1.400011   31.53074  0.3596E-14  0.1674E-04  0.5764E-07  0.1488E-02  0.3587E-04  0.1307E+03
   -1.450012   31.53143  0.3596E-14  0.1643E-04  0.6025E-07  0.1401E-02  0.3347E-04  0.1714E+03
   -1.500013   31.53218  0.3596E-14  0.1606E-04  0.6394E-07  0.1284E-02  0.3110E-04  0.2419E+03
   -1.550013   31.53300  0.3596E-14  0.1559E-04  0.6934E-07  0.1194E-02  0.2870E-04  0.3816E+03
   -1.600013   31.53392  0.3596E-14  0.1501E-04  0.7782E-07  0.1051E-02  0.2630E-04  0.1096E+04
   -1.650013   31.53509  0.3596E-14  0.1424E-04  0.9138E-07  0.9611E-03  0.2370E-04  0.2605E+05
   -1.700012   31.53656  0.3596E-14  0.1317E-04  0.1160E-06  0.7844E-03  0.2092E-04  0.5719E+06
   -1.750011   31.53902  0.3596E-14  0.1190E-04  0.1535E-06  0.6993E-03  0.1742E-04  0.4717E+07
   -1.800010   31.54068  0.3596E-14  0.1025E-04  0.2380E-06  0.4718E-03  0.1495E-04  0.1228E+07
   -1.850008   31.55074  0.3596E-14  0.8613E-05  0.3972E-06  0.4573E-03  0.1007E-04  0.2382E+09
   -1.900006   31.54650  0.3596E-14  0.6868E-05  0.8268E-06  0.2107E-03  0.8390E-05 -0.2360E+07
   -1.950003   31.57279  0.3596E-14  0.4950E-05  0.1970E-05  0.2244E-03  0.4372E-05 -0.3841E+07
   -2.000000   31.57103  0.3596E-14  0.0000E+00  0.0000E+00  0.0000E+00  0.9007E-05  0.0000E+00
