 1 - depth, m
 2 - temperature, C
 3 - salinity, kg/kg
 4 - turbulent kinetic energy, m**2/s**2
 5 - dissipation rate, m**2/s**3
 6 - kinematic heat conductance, m**2/s
 7 - modulus of horizontal velocity, m/s
 8 - Richardson number, n/d
   -0.000000   30.53260  0.1311E-12  0.4546E-05  0.2675E-06  0.4680E-04  0.6558E-03  0.1246E+06
   -0.049997   30.56420  0.1311E-12  0.7985E-05  0.1193E-06  0.1816E-03  0.3656E-03  0.1590E+03
   -0.099994   30.57436  0.1311E-12  0.9596E-05  0.8327E-07  0.3970E-03  0.2689E-03  0.1245E+03
   -0.149992   30.57745  0.1311E-12  0.1061E-04  0.7034E-07  0.4767E-03  0.2378E-03  0.6088E+02
   -0.199991   30.57990  0.1311E-12  0.1138E-04  0.6262E-07  0.6306E-03  0.2125E-03  0.3990E+02
   -0.249989   30.58169  0.1311E-12  0.1200E-04  0.5747E-07  0.7522E-03  0.1934E-03  0.2958E+02
   -0.299988   30.58314  0.1311E-12  0.1250E-04  0.5374E-07  0.8711E-03  0.1774E-03  0.2357E+02
   -0.349988   30.58436  0.1311E-12  0.1291E-04  0.5092E-07  0.9793E-03  0.1637E-03  0.2011E+02
   -0.399988   30.58541  0.1311E-12  0.1325E-04  0.4870E-07  0.1078E-02  0.1516E-03  0.1789E+02
   -0.449988   30.58634  0.1311E-12  0.1354E-04  0.4687E-07  0.1170E-02  0.1409E-03  0.1675E+02
   -0.499988   30.58717  0.1311E-12  0.1379E-04  0.4535E-07  0.1254E-02  0.1314E-03  0.1627E+02
   -0.549989   30.58793  0.1311E-12  0.1400E-04  0.4406E-07  0.1331E-02  0.1230E-03  0.1599E+02
   -0.599990   30.58863  0.1311E-12  0.1419E-04  0.4296E-07  0.1402E-02  0.1153E-03  0.1596E+02
   -0.649991   30.58928  0.1311E-12  0.1434E-04  0.4201E-07  0.1465E-02  0.1083E-03  0.1609E+02
   -0.699992   30.58989  0.1311E-12  0.1447E-04  0.4121E-07  0.1520E-02  0.1019E-03  0.1641E+02
   -0.749993   30.59047  0.1311E-12  0.1457E-04  0.4052E-07  0.1569E-02  0.9598E-04  0.1686E+02
   -0.799995   30.59102  0.1311E-12  0.1465E-04  0.3993E-07  0.1611E-02  0.9047E-04  0.1751E+02
   -0.849996   30.59155  0.1311E-12  0.1471E-04  0.3944E-07  0.1645E-02  0.8533E-04  0.1831E+02
   -0.899998   30.59206  0.1311E-12  0.1476E-04  0.3905E-07  0.1672E-02  0.8052E-04  0.1934E+02
   -0.950000   30.59256  0.1311E-12  0.1478E-04  0.3874E-07  0.1691E-02  0.7598E-04  0.2057E+02
   -1.000001   30.59304  0.1311E-12  0.1478E-04  0.3852E-07  0.1702E-02  0.7169E-04  0.2212E+02
   -1.050003   30.59352  0.1311E-12  0.1477E-04  0.3839E-07  0.1705E-02  0.6763E-04  0.2489E+02
   -1.100005   30.59399  0.1311E-12  0.1473E-04  0.3837E-07  0.1783E-02  0.6376E-04  0.8281E+02
   -1.150006   30.59443  0.1311E-12  0.1468E-04  0.3845E-07  0.1635E-02  0.6030E-04  0.1843E+03
   -1.200008   30.59491  0.1311E-12  0.1460E-04  0.3865E-07  0.1655E-02  0.5675E-04  0.3535E+02
   -1.250009   30.59537  0.1311E-12  0.1451E-04  0.3899E-07  0.1627E-02  0.5335E-04  0.3740E+02
   -1.300011   30.59585  0.1311E-12  0.1438E-04  0.3951E-07  0.1582E-02  0.5007E-04  0.4334E+02
   -1.350012   30.59633  0.1311E-12  0.1424E-04  0.4024E-07  0.1527E-02  0.4690E-04  0.5146E+02
   -1.400013   30.59682  0.1311E-12  0.1406E-04  0.4125E-07  0.1456E-02  0.4383E-04  0.6278E+02
   -1.450014   30.59734  0.1311E-12  0.1384E-04  0.4264E-07  0.1382E-02  0.4081E-04  0.7903E+02
   -1.500014   30.59788  0.1311E-12  0.1358E-04  0.4458E-07  0.1278E-02  0.3786E-04  0.1052E+03
   -1.550015   30.59847  0.1311E-12  0.1326E-04  0.4733E-07  0.1194E-02  0.3491E-04  0.1463E+03
   -1.600015   30.59910  0.1311E-12  0.1288E-04  0.5150E-07  0.1056E-02  0.3203E-04  0.2468E+03
   -1.650015   30.59985  0.1311E-12  0.1239E-04  0.5795E-07  0.9791E-03  0.2898E-04  0.1158E+04
   -1.700014   30.60068  0.1311E-12  0.1173E-04  0.6963E-07  0.8016E-03  0.2602E-04 -0.2546E+05
   -1.750013   30.60211  0.1311E-12  0.1083E-04  0.8920E-07  0.7212E-03  0.2218E-04  0.5009E+06
   -1.800012   30.60348  0.1311E-12  0.9591E-05  0.1286E-06  0.5099E-03  0.1897E-04  0.2369E+06
   -1.850010   30.60795  0.1311E-12  0.8157E-05  0.2027E-06  0.4577E-03  0.1385E-04  0.9496E+08
   -1.900008   30.60760  0.1311E-12  0.6455E-05  0.4201E-06  0.2091E-03  0.1117E-04  0.1234E+07
   -1.950006   30.62312  0.1311E-12  0.4451E-05  0.1077E-05  0.1724E-03  0.6078E-05 -0.2080E+07
   -2.000003   30.62606  0.1311E-12  0.0000E+00  0.0000E+00  0.0000E+00  0.1077E-04  0.0000E+00
