 1 - depth, m
 2 - temperature, C
 3 - salinity, kg/kg
 4 - turbulent kinetic energy, m**2/s**2
 5 - dissipation rate, m**2/s**3
 6 - kinematic heat conductance, m**2/s
 7 - modulus of horizontal velocity, m/s
 8 - Richardson number, n/d
   -0.000000   31.25616  0.9259E-14  0.5103E-05  0.3289E-06  0.5141E-04  0.5876E-03  0.2934E+05
   -0.049997   31.28944  0.9259E-14  0.8946E-05  0.1460E-06  0.1870E-03  0.3347E-03  0.1002E+03
   -0.099994   31.30155  0.9259E-14  0.1083E-04  0.1008E-06  0.4248E-03  0.2447E-03  0.1408E+03
   -0.149992   31.30490  0.9259E-14  0.1200E-04  0.8507E-07  0.5000E-03  0.2172E-03  0.6954E+02
   -0.199991   31.30762  0.9259E-14  0.1291E-04  0.7574E-07  0.6699E-03  0.1945E-03  0.4536E+02
   -0.249989   31.30959  0.9259E-14  0.1364E-04  0.6960E-07  0.7982E-03  0.1775E-03  0.3371E+02
   -0.299988   31.31120  0.9259E-14  0.1423E-04  0.6521E-07  0.9266E-03  0.1633E-03  0.2699E+02
   -0.349988   31.31255  0.9259E-14  0.1471E-04  0.6191E-07  0.1043E-02  0.1511E-03  0.2308E+02
   -0.399987   31.31372  0.9259E-14  0.1512E-04  0.5933E-07  0.1148E-02  0.1403E-03  0.2064E+02
   -0.449988   31.31476  0.9259E-14  0.1547E-04  0.5723E-07  0.1246E-02  0.1308E-03  0.1934E+02
   -0.499988   31.31570  0.9259E-14  0.1577E-04  0.5550E-07  0.1335E-02  0.1224E-03  0.1888E+02
   -0.549988   31.31656  0.9259E-14  0.1603E-04  0.5404E-07  0.1417E-02  0.1148E-03  0.1857E+02
   -0.599989   31.31735  0.9259E-14  0.1625E-04  0.5281E-07  0.1491E-02  0.1080E-03  0.1865E+02
   -0.649990   31.31810  0.9259E-14  0.1644E-04  0.5177E-07  0.1556E-02  0.1017E-03  0.1882E+02
   -0.699991   31.31880  0.9259E-14  0.1659E-04  0.5090E-07  0.1614E-02  0.9596E-04  0.1934E+02
   -0.749993   31.31946  0.9259E-14  0.1672E-04  0.5017E-07  0.1663E-02  0.9063E-04  0.1991E+02
   -0.799994   31.32010  0.9259E-14  0.1682E-04  0.4956E-07  0.1705E-02  0.8565E-04  0.2087E+02
   -0.849996   31.32072  0.9259E-14  0.1690E-04  0.4908E-07  0.1738E-02  0.8101E-04  0.2189E+02
   -0.899997   31.32131  0.9259E-14  0.1695E-04  0.4871E-07  0.1762E-02  0.7663E-04  0.2337E+02
   -0.949999   31.32189  0.9259E-14  0.1698E-04  0.4845E-07  0.1778E-02  0.7251E-04  0.2498E+02
   -1.000001   31.32246  0.9259E-14  0.1698E-04  0.4831E-07  0.1785E-02  0.6859E-04  0.2721E+02
   -1.050002   31.32303  0.9259E-14  0.1696E-04  0.4830E-07  0.1781E-02  0.6488E-04  0.3079E+02
   -1.100004   31.32359  0.9259E-14  0.1691E-04  0.4841E-07  0.1889E-02  0.6131E-04  0.9941E+02
   -1.150006   31.32411  0.9259E-14  0.1684E-04  0.4870E-07  0.1660E-02  0.5818E-04  0.2531E+03
   -1.200007   31.32470  0.9259E-14  0.1674E-04  0.4914E-07  0.1703E-02  0.5481E-04  0.4618E+02
   -1.250009   31.32527  0.9259E-14  0.1661E-04  0.4979E-07  0.1670E-02  0.5163E-04  0.4968E+02
   -1.300010   31.32585  0.9259E-14  0.1645E-04  0.5071E-07  0.1612E-02  0.4858E-04  0.5888E+02
   -1.350011   31.32645  0.9259E-14  0.1624E-04  0.5198E-07  0.1547E-02  0.4559E-04  0.7249E+02
   -1.400012   31.32708  0.9259E-14  0.1600E-04  0.5372E-07  0.1459E-02  0.4268E-04  0.9242E+02
   -1.450013   31.32774  0.9259E-14  0.1570E-04  0.5613E-07  0.1381E-02  0.3979E-04  0.1231E+03
   -1.500014   31.32845  0.9259E-14  0.1534E-04  0.5956E-07  0.1257E-02  0.3696E-04  0.1803E+03
   -1.550014   31.32924  0.9259E-14  0.1490E-04  0.6455E-07  0.1184E-02  0.3407E-04  0.2847E+03
   -1.600014   31.33010  0.9259E-14  0.1433E-04  0.7273E-07  0.1030E-02  0.3125E-04  0.1576E+03
   -1.650014   31.33126  0.9259E-14  0.1358E-04  0.8543E-07  0.9537E-03  0.2805E-04  0.9211E+04
   -1.700013   31.33257  0.9259E-14  0.1255E-04  0.1081E-06  0.7610E-03  0.2489E-04  0.4490E+04
   -1.750012   31.33518  0.9259E-14  0.1132E-04  0.1441E-06  0.6976E-03  0.2052E-04  0.1284E+07
   -1.800011   31.33642  0.9259E-14  0.9842E-05  0.2221E-06  0.4660E-03  0.1778E-04  0.5936E+06
   -1.850009   31.34634  0.9259E-14  0.8314E-05  0.3759E-06  0.4538E-03  0.1204E-04  0.4860E+09
   -1.900007   31.34159  0.9259E-14  0.6663E-05  0.7910E-06  0.2109E-03  0.1009E-04 -0.1032E+07
   -1.950004   31.36557  0.9259E-14  0.4746E-05  0.1875E-05  0.2193E-03  0.5301E-05  0.6048E+07
   -2.000001   31.36579  0.9259E-14  0.0000E+00  0.0000E+00  0.0000E+00  0.1071E-04  0.0000E+00
