 1 - depth, m
 2 - temperature, C
 3 - salinity, kg/kg
 4 - turbulent kinetic energy, m**2/s**2
 5 - dissipation rate, m**2/s**3
 6 - kinematic heat conductance, m**2/s
 7 - modulus of horizontal velocity, m/s
 8 - Richardson number, n/d
   -0.000000   30.17434  0.7972E-13  0.4416E-05  0.2608E-06  0.4814E-04  0.1321E-02  0.9834E+04
   -0.049997   30.20198  0.7972E-13  0.7633E-05  0.1162E-06  0.1728E-03  0.7469E-03  0.8168E+03
   -0.099994   30.21246  0.7972E-13  0.9260E-05  0.8030E-07  0.3893E-03  0.5457E-03  0.2580E+02
   -0.149992   30.21536  0.7972E-13  0.1028E-04  0.6756E-07  0.4699E-03  0.4814E-03  0.1257E+02
   -0.199991   30.21767  0.7972E-13  0.1108E-04  0.6009E-07  0.6260E-03  0.4295E-03  0.8099E+01
   -0.249989   30.21935  0.7972E-13  0.1171E-04  0.5520E-07  0.7486E-03  0.3905E-03  0.5986E+01
   -0.299988   30.22072  0.7972E-13  0.1224E-04  0.5173E-07  0.8700E-03  0.3581E-03  0.4773E+01
   -0.349988   30.22188  0.7972E-13  0.1267E-04  0.4913E-07  0.9802E-03  0.3303E-03  0.4092E+01
   -0.399988   30.22288  0.7972E-13  0.1304E-04  0.4711E-07  0.1081E-02  0.3058E-03  0.3650E+01
   -0.449988   30.22377  0.7972E-13  0.1336E-04  0.4548E-07  0.1175E-02  0.2842E-03  0.3431E+01
   -0.499988   30.22457  0.7972E-13  0.1364E-04  0.4414E-07  0.1262E-02  0.2652E-03  0.3339E+01
   -0.549989   30.22530  0.7972E-13  0.1388E-04  0.4303E-07  0.1341E-02  0.2481E-03  0.3301E+01
   -0.599990   30.22598  0.7972E-13  0.1410E-04  0.4210E-07  0.1413E-02  0.2327E-03  0.3305E+01
   -0.649991   30.22662  0.7972E-13  0.1428E-04  0.4133E-07  0.1478E-02  0.2186E-03  0.3357E+01
   -0.699992   30.22722  0.7972E-13  0.1445E-04  0.4069E-07  0.1536E-02  0.2057E-03  0.3436E+01
   -0.749993   30.22779  0.7972E-13  0.1458E-04  0.4016E-07  0.1586E-02  0.1938E-03  0.3562E+01
   -0.799995   30.22834  0.7972E-13  0.1470E-04  0.3973E-07  0.1629E-02  0.1827E-03  0.3717E+01
   -0.849996   30.22886  0.7972E-13  0.1480E-04  0.3941E-07  0.1665E-02  0.1724E-03  0.3924E+01
   -0.899998   30.22938  0.7972E-13  0.1487E-04  0.3917E-07  0.1692E-02  0.1627E-03  0.4167E+01
   -0.950000   30.22988  0.7972E-13  0.1493E-04  0.3902E-07  0.1712E-02  0.1536E-03  0.4479E+01
   -1.000001   30.23037  0.7972E-13  0.1497E-04  0.3897E-07  0.1725E-02  0.1450E-03  0.4842E+01
   -1.050003   30.23086  0.7972E-13  0.1499E-04  0.3901E-07  0.1728E-02  0.1368E-03  0.5521E+01
   -1.100005   30.23134  0.7972E-13  0.1499E-04  0.3914E-07  0.1801E-02  0.1290E-03  0.1856E+02
   -1.150006   30.23180  0.7972E-13  0.1497E-04  0.3940E-07  0.1666E-02  0.1221E-03  0.4053E+02
   -1.200008   30.23231  0.7972E-13  0.1493E-04  0.3977E-07  0.1680E-02  0.1149E-03  0.7967E+01
   -1.250009   30.23280  0.7972E-13  0.1487E-04  0.4029E-07  0.1651E-02  0.1081E-03  0.8528E+01
   -1.300011   30.23330  0.7972E-13  0.1478E-04  0.4099E-07  0.1606E-02  0.1015E-03  0.9989E+01
   -1.350012   30.23382  0.7972E-13  0.1467E-04  0.4192E-07  0.1551E-02  0.9512E-04  0.1192E+02
   -1.400013   30.23436  0.7972E-13  0.1452E-04  0.4314E-07  0.1480E-02  0.8891E-04  0.1467E+02
   -1.450014   30.23493  0.7972E-13  0.1433E-04  0.4476E-07  0.1406E-02  0.8284E-04  0.1856E+02
   -1.500014   30.23553  0.7972E-13  0.1410E-04  0.4695E-07  0.1302E-02  0.7688E-04  0.2487E+02
   -1.550015   30.23618  0.7972E-13  0.1382E-04  0.4999E-07  0.1216E-02  0.7094E-04  0.3476E+02
   -1.600015   30.23689  0.7972E-13  0.1346E-04  0.5446E-07  0.1078E-02  0.6510E-04  0.5813E+02
   -1.650015   30.23772  0.7972E-13  0.1300E-04  0.6118E-07  0.9965E-03  0.5900E-04  0.1383E+03
   -1.700014   30.23865  0.7972E-13  0.1237E-04  0.7316E-07  0.8198E-03  0.5307E-04 -0.1161E+04
   -1.750013   30.24022  0.7972E-13  0.1151E-04  0.9303E-07  0.7385E-03  0.4548E-04  0.2075E+05
   -1.800012   30.24172  0.7972E-13  0.1030E-04  0.1333E-06  0.5251E-03  0.3910E-04  0.2517E+06
   -1.850010   30.24667  0.7972E-13  0.8861E-05  0.2095E-06  0.4720E-03  0.2889E-04  0.9218E+07
   -1.900008   30.24662  0.7972E-13  0.7068E-05  0.4340E-06  0.2139E-03  0.2327E-04  0.1172E+06
   -1.950006   30.26402  0.7972E-13  0.4875E-05  0.1115E-05  0.1690E-03  0.1286E-04 -0.5008E+07
   -2.000003   30.26788  0.7972E-13  0.0000E+00  0.0000E+00  0.0000E+00  0.2181E-04  0.0000E+00
