 1 - depth, m
 2 - temperature, C
 3 - salinity, kg/kg
 4 - turbulent kinetic energy, m**2/s**2
 5 - dissipation rate, m**2/s**3
 6 - kinematic heat conductance, m**2/s
 7 - modulus of horizontal velocity, m/s
 8 - Richardson number, n/d
   -0.000000   30.47060  0.1332E-13  0.5013E-05  0.3196E-06  0.5184E-04  0.1669E-02  0.6848E+04
   -0.049997   30.50197  0.1332E-13  0.8535E-05  0.1426E-06  0.1777E-03  0.9607E-03  0.6868E+04
   -0.099994   30.51436  0.1332E-13  0.1037E-04  0.9770E-07  0.4030E-03  0.7028E-03  0.1729E+02
   -0.149992   30.51776  0.1332E-13  0.1151E-04  0.8184E-07  0.4826E-03  0.6211E-03  0.8469E+01
   -0.199991   30.52047  0.1332E-13  0.1240E-04  0.7256E-07  0.6474E-03  0.5547E-03  0.5416E+01
   -0.249989   30.52243  0.1332E-13  0.1311E-04  0.6651E-07  0.7740E-03  0.5052E-03  0.3989E+01
   -0.299988   30.52403  0.1332E-13  0.1368E-04  0.6219E-07  0.9010E-03  0.4640E-03  0.3170E+01
   -0.349988   30.52537  0.1332E-13  0.1416E-04  0.5896E-07  0.1016E-02  0.4287E-03  0.2706E+01
   -0.399988   30.52652  0.1332E-13  0.1456E-04  0.5644E-07  0.1121E-02  0.3975E-03  0.2410E+01
   -0.449988   30.52755  0.1332E-13  0.1490E-04  0.5440E-07  0.1218E-02  0.3701E-03  0.2259E+01
   -0.499988   30.52847  0.1332E-13  0.1520E-04  0.5271E-07  0.1307E-02  0.3458E-03  0.2197E+01
   -0.549989   30.52932  0.1332E-13  0.1545E-04  0.5129E-07  0.1389E-02  0.3241E-03  0.2164E+01
   -0.599989   30.53010  0.1332E-13  0.1567E-04  0.5010E-07  0.1463E-02  0.3044E-03  0.2166E+01
   -0.649990   30.53083  0.1332E-13  0.1586E-04  0.4908E-07  0.1529E-02  0.2865E-03  0.2189E+01
   -0.699992   30.53152  0.1332E-13  0.1601E-04  0.4823E-07  0.1588E-02  0.2700E-03  0.2239E+01
   -0.749993   30.53217  0.1332E-13  0.1614E-04  0.4751E-07  0.1638E-02  0.2547E-03  0.2309E+01
   -0.799995   30.53280  0.1332E-13  0.1625E-04  0.4691E-07  0.1681E-02  0.2405E-03  0.2407E+01
   -0.849996   30.53340  0.1332E-13  0.1633E-04  0.4643E-07  0.1716E-02  0.2273E-03  0.2527E+01
   -0.899998   30.53398  0.1332E-13  0.1638E-04  0.4606E-07  0.1742E-02  0.2148E-03  0.2682E+01
   -0.949999   30.53455  0.1332E-13  0.1642E-04  0.4579E-07  0.1760E-02  0.2031E-03  0.2867E+01
   -1.000001   30.53510  0.1332E-13  0.1643E-04  0.4563E-07  0.1770E-02  0.1920E-03  0.3100E+01
   -1.050003   30.53565  0.1332E-13  0.1642E-04  0.4558E-07  0.1770E-02  0.1814E-03  0.3506E+01
   -1.100005   30.53619  0.1332E-13  0.1638E-04  0.4565E-07  0.1864E-02  0.1714E-03  0.1154E+02
   -1.150006   30.53670  0.1332E-13  0.1632E-04  0.4587E-07  0.1674E-02  0.1624E-03  0.2696E+02
   -1.200008   30.53727  0.1332E-13  0.1624E-04  0.4622E-07  0.1706E-02  0.1530E-03  0.5105E+01
   -1.250009   30.53782  0.1332E-13  0.1613E-04  0.4676E-07  0.1674E-02  0.1441E-03  0.5447E+01
   -1.300011   30.53838  0.1332E-13  0.1599E-04  0.4753E-07  0.1622E-02  0.1355E-03  0.6388E+01
   -1.350012   30.53895  0.1332E-13  0.1581E-04  0.4859E-07  0.1561E-02  0.1271E-03  0.7694E+01
   -1.400013   30.53955  0.1332E-13  0.1560E-04  0.5004E-07  0.1480E-02  0.1189E-03  0.9568E+01
   -1.450014   30.54017  0.1332E-13  0.1533E-04  0.5203E-07  0.1401E-02  0.1109E-03  0.1233E+02
   -1.500014   30.54083  0.1332E-13  0.1502E-04  0.5483E-07  0.1286E-02  0.1030E-03  0.1701E+02
   -1.550015   30.54156  0.1332E-13  0.1463E-04  0.5884E-07  0.1203E-02  0.9504E-04  0.2500E+02
   -1.600015   30.54235  0.1332E-13  0.1415E-04  0.6509E-07  0.1058E-02  0.8722E-04  0.6163E+02
   -1.650014   30.54334  0.1332E-13  0.1352E-04  0.7495E-07  0.9777E-03  0.7873E-04  0.6105E+03
   -1.700014   30.54448  0.1332E-13  0.1265E-04  0.9245E-07  0.7931E-03  0.7023E-04 -0.4069E+03
   -1.750013   30.54652  0.1332E-13  0.1154E-04  0.1209E-06  0.7204E-03  0.5894E-04  0.3591E+06
   -1.800012   30.54808  0.1332E-13  0.1008E-04  0.1853E-06  0.4902E-03  0.5061E-04  0.2879E+05
   -1.850010   30.55539  0.1332E-13  0.8534E-05  0.3021E-06  0.4634E-03  0.3537E-04  0.9531E+07
   -1.900008   30.55322  0.1332E-13  0.6797E-05  0.6403E-06  0.2112E-03  0.2911E-04 -0.3791E+06
   -1.950005   30.57407  0.1332E-13  0.4792E-05  0.1559E-05  0.2015E-03  0.1552E-04 -0.2619E+06
   -2.000002   30.57533  0.1332E-13  0.0000E+00  0.0000E+00  0.0000E+00  0.2979E-04  0.0000E+00
