 1 - depth, m
 2 - temperature, C
 3 - salinity, kg/kg
 4 - turbulent kinetic energy, m**2/s**2
 5 - dissipation rate, m**2/s**3
 6 - kinematic heat conductance, m**2/s
 7 - modulus of horizontal velocity, m/s
 8 - Richardson number, n/d
   -0.000000   30.31915  0.1324E-13  0.4769E-05  0.2948E-06  0.5021E-04  0.1421E-02  0.1012E+05
   -0.049997   30.34926  0.1325E-13  0.8189E-05  0.1316E-06  0.1768E-03  0.8093E-03  0.2395E+04
   -0.099994   30.36085  0.1325E-13  0.9939E-05  0.9065E-07  0.3975E-03  0.5931E-03  0.2329E+02
   -0.149992   30.36407  0.1325E-13  0.1104E-04  0.7608E-07  0.4787E-03  0.5236E-03  0.1141E+02
   -0.199991   30.36663  0.1325E-13  0.1189E-04  0.6755E-07  0.6399E-03  0.4674E-03  0.7316E+01
   -0.249989   30.36848  0.1325E-13  0.1257E-04  0.6196E-07  0.7653E-03  0.4254E-03  0.5400E+01
   -0.299988   30.36999  0.1325E-13  0.1312E-04  0.5798E-07  0.8902E-03  0.3904E-03  0.4292E+01
   -0.349988   30.37126  0.1325E-13  0.1358E-04  0.5499E-07  0.1003E-02  0.3605E-03  0.3672E+01
   -0.399988   30.37236  0.1325E-13  0.1397E-04  0.5267E-07  0.1107E-02  0.3341E-03  0.3268E+01
   -0.449988   30.37333  0.1325E-13  0.1430E-04  0.5078E-07  0.1203E-02  0.3108E-03  0.3069E+01
   -0.499988   30.37421  0.1325E-13  0.1459E-04  0.4922E-07  0.1292E-02  0.2902E-03  0.2982E+01
   -0.549989   30.37501  0.1325E-13  0.1484E-04  0.4792E-07  0.1373E-02  0.2718E-03  0.2943E+01
   -0.599990   30.37575  0.1325E-13  0.1505E-04  0.4682E-07  0.1446E-02  0.2551E-03  0.2940E+01
   -0.649991   30.37644  0.1325E-13  0.1524E-04  0.4588E-07  0.1512E-02  0.2399E-03  0.2978E+01
   -0.699992   30.37710  0.1325E-13  0.1540E-04  0.4510E-07  0.1571E-02  0.2260E-03  0.3039E+01
   -0.749993   30.37772  0.1325E-13  0.1553E-04  0.4444E-07  0.1622E-02  0.2131E-03  0.3141E+01
   -0.799995   30.37831  0.1325E-13  0.1563E-04  0.4389E-07  0.1665E-02  0.2011E-03  0.3265E+01
   -0.849996   30.37888  0.1325E-13  0.1572E-04  0.4345E-07  0.1701E-02  0.1899E-03  0.3435E+01
   -0.899998   30.37943  0.1325E-13  0.1578E-04  0.4310E-07  0.1729E-02  0.1794E-03  0.3633E+01
   -0.950000   30.37997  0.1325E-13  0.1582E-04  0.4286E-07  0.1748E-02  0.1695E-03  0.3889E+01
   -1.000001   30.38049  0.1325E-13  0.1584E-04  0.4271E-07  0.1760E-02  0.1601E-03  0.4187E+01
   -1.050003   30.38101  0.1325E-13  0.1584E-04  0.4266E-07  0.1762E-02  0.1512E-03  0.4745E+01
   -1.100005   30.38153  0.1325E-13  0.1582E-04  0.4272E-07  0.1845E-02  0.1428E-03  0.1577E+02
   -1.150006   30.38201  0.1325E-13  0.1577E-04  0.4291E-07  0.1685E-02  0.1352E-03  0.3515E+02
   -1.200008   30.38254  0.1325E-13  0.1571E-04  0.4323E-07  0.1708E-02  0.1274E-03  0.6802E+01
   -1.250009   30.38306  0.1325E-13  0.1561E-04  0.4371E-07  0.1678E-02  0.1199E-03  0.7233E+01
   -1.300011   30.38359  0.1325E-13  0.1549E-04  0.4439E-07  0.1630E-02  0.1127E-03  0.8445E+01
   -1.350012   30.38413  0.1325E-13  0.1534E-04  0.4532E-07  0.1573E-02  0.1057E-03  0.1006E+02
   -1.400013   30.38468  0.1325E-13  0.1516E-04  0.4657E-07  0.1497E-02  0.9889E-04  0.1238E+02
   -1.450014   30.38527  0.1325E-13  0.1493E-04  0.4828E-07  0.1421E-02  0.9222E-04  0.1566E+02
   -1.500014   30.38588  0.1325E-13  0.1466E-04  0.5064E-07  0.1310E-02  0.8567E-04  0.2114E+02
   -1.550015   30.38656  0.1325E-13  0.1432E-04  0.5397E-07  0.1228E-02  0.7910E-04  0.2968E+02
   -1.600015   30.38728  0.1325E-13  0.1390E-04  0.5906E-07  0.1080E-02  0.7268E-04  0.5653E+02
   -1.650015   30.38816  0.1325E-13  0.1337E-04  0.6681E-07  0.1006E-02  0.6576E-04  0.3123E+05
   -1.700014   30.38910  0.1325E-13  0.1264E-04  0.8078E-07  0.8178E-03  0.5921E-04 -0.3482E+03
   -1.750013   30.39084  0.1325E-13  0.1166E-04  0.1041E-06  0.7433E-03  0.5029E-04  0.5223E+05
   -1.800012   30.39230  0.1325E-13  0.1033E-04  0.1526E-06  0.5199E-03  0.4330E-04  0.1353E+05
   -1.850010   30.39788  0.1325E-13  0.8809E-05  0.2435E-06  0.4766E-03  0.3138E-04  0.8138E+07
   -1.900008   30.39719  0.1325E-13  0.7006E-05  0.5099E-06  0.2154E-03  0.2549E-04  0.3382E+05
   -1.950006   30.41498  0.1325E-13  0.4871E-05  0.1285E-05  0.1823E-03  0.1393E-04 -0.4712E+06
   -2.000003   30.41781  0.1325E-13  0.0000E+00  0.0000E+00  0.0000E+00  0.2479E-04  0.0000E+00
