 1 - depth, m
 2 - temperature, C
 3 - salinity, kg/kg
 4 - turbulent kinetic energy, m**2/s**2
 5 - dissipation rate, m**2/s**3
 6 - kinematic heat conductance, m**2/s
 7 - modulus of horizontal velocity, m/s
 8 - Richardson number, n/d
   -0.000000   30.56860  0.1508E-14  0.4756E-05  0.2953E-06  0.4945E-04  0.7408E-03  0.1810E+05
   -0.049997   30.59938  0.1508E-14  0.8338E-05  0.1310E-06  0.1825E-03  0.4173E-03  0.9290E+03
   -0.099994   30.61070  0.1508E-14  0.1011E-04  0.9065E-07  0.4115E-03  0.3052E-03  0.8754E+02
   -0.149992   30.61382  0.1508E-14  0.1121E-04  0.7648E-07  0.4900E-03  0.2702E-03  0.4307E+02
   -0.199991   30.61633  0.1508E-14  0.1208E-04  0.6814E-07  0.6543E-03  0.2416E-03  0.2800E+02
   -0.249989   30.61816  0.1508E-14  0.1277E-04  0.6266E-07  0.7803E-03  0.2202E-03  0.2084E+02
   -0.299988   30.61965  0.1508E-14  0.1333E-04  0.5876E-07  0.9061E-03  0.2023E-03  0.1665E+02
   -0.349988   30.62091  0.1508E-14  0.1380E-04  0.5583E-07  0.1020E-02  0.1870E-03  0.1431E+02
   -0.399988   30.62200  0.1508E-14  0.1419E-04  0.5356E-07  0.1124E-02  0.1735E-03  0.1277E+02
   -0.449988   30.62297  0.1508E-14  0.1453E-04  0.5172E-07  0.1220E-02  0.1615E-03  0.1202E+02
   -0.499988   30.62385  0.1508E-14  0.1483E-04  0.5020E-07  0.1309E-02  0.1509E-03  0.1170E+02
   -0.549989   30.62465  0.1508E-14  0.1509E-04  0.4894E-07  0.1389E-02  0.1414E-03  0.1157E+02
   -0.599989   30.62540  0.1508E-14  0.1531E-04  0.4788E-07  0.1462E-02  0.1329E-03  0.1158E+02
   -0.649991   30.62609  0.1508E-14  0.1550E-04  0.4699E-07  0.1528E-02  0.1250E-03  0.1176E+02
   -0.699992   30.62675  0.1508E-14  0.1566E-04  0.4625E-07  0.1585E-02  0.1178E-03  0.1202E+02
   -0.749993   30.62738  0.1508E-14  0.1580E-04  0.4564E-07  0.1635E-02  0.1112E-03  0.1247E+02
   -0.799995   30.62798  0.1508E-14  0.1592E-04  0.4514E-07  0.1677E-02  0.1050E-03  0.1299E+02
   -0.849996   30.62856  0.1508E-14  0.1600E-04  0.4475E-07  0.1712E-02  0.9918E-04  0.1371E+02
   -0.899998   30.62912  0.1508E-14  0.1607E-04  0.4447E-07  0.1738E-02  0.9374E-04  0.1454E+02
   -0.949999   30.62967  0.1508E-14  0.1612E-04  0.4429E-07  0.1755E-02  0.8861E-04  0.1564E+02
   -1.000001   30.63022  0.1508E-14  0.1614E-04  0.4421E-07  0.1764E-02  0.8375E-04  0.1690E+02
   -1.050003   30.63075  0.1508E-14  0.1614E-04  0.4424E-07  0.1763E-02  0.7913E-04  0.1924E+02
   -1.100005   30.63128  0.1508E-14  0.1612E-04  0.4439E-07  0.1857E-02  0.7473E-04  0.6301E+02
   -1.150006   30.63178  0.1508E-14  0.1608E-04  0.4468E-07  0.1667E-02  0.7082E-04  0.1487E+03
   -1.200008   30.63234  0.1508E-14  0.1601E-04  0.4511E-07  0.1698E-02  0.6671E-04  0.2825E+02
   -1.250009   30.63289  0.1508E-14  0.1591E-04  0.4572E-07  0.1666E-02  0.6281E-04  0.3016E+02
   -1.300011   30.63344  0.1508E-14  0.1579E-04  0.4656E-07  0.1614E-02  0.5904E-04  0.3562E+02
   -1.350012   30.63401  0.1508E-14  0.1563E-04  0.4768E-07  0.1553E-02  0.5538E-04  0.4292E+02
   -1.400013   30.63461  0.1508E-14  0.1543E-04  0.4919E-07  0.1471E-02  0.5181E-04  0.5377E+02
   -1.450014   30.63523  0.1508E-14  0.1519E-04  0.5123E-07  0.1393E-02  0.4830E-04  0.6932E+02
   -1.500014   30.63590  0.1508E-14  0.1489E-04  0.5406E-07  0.1276E-02  0.4485E-04  0.9653E+02
   -1.550015   30.63664  0.1508E-14  0.1452E-04  0.5806E-07  0.1196E-02  0.4137E-04  0.1407E+03
   -1.600015   30.63744  0.1508E-14  0.1405E-04  0.6429E-07  0.1046E-02  0.3797E-04 -0.1035E+04
   -1.650014   30.63845  0.1508E-14  0.1345E-04  0.7392E-07  0.9707E-03  0.3425E-04  0.2282E+04
   -1.700014   30.63957  0.1508E-14  0.1261E-04  0.9130E-07  0.7840E-03  0.3064E-04  0.2818E+04
   -1.750013   30.64170  0.1508E-14  0.1151E-04  0.1196E-06  0.7124E-03  0.2569E-04  0.2745E+06
   -1.800012   30.64325  0.1508E-14  0.1007E-04  0.1822E-06  0.4864E-03  0.2208E-04  0.1001E+07
   -1.850010   30.65079  0.1508E-14  0.8509E-05  0.2975E-06  0.4560E-03  0.1551E-04  0.6500E+08
   -1.900008   30.64863  0.1508E-14  0.6739E-05  0.6203E-06  0.2131E-03  0.1268E-04 -0.5814E+07
   -1.950005   30.67010  0.1508E-14  0.4761E-05  0.1528E-05  0.1990E-03  0.6737E-05 -0.1491E+07
   -2.000002   30.67206  0.1508E-14  0.0000E+00  0.0000E+00  0.0000E+00  0.1290E-04  0.0000E+00
