 1 - depth, m
 2 - temperature, C
 3 - salinity, kg/kg
 4 - turbulent kinetic energy, m**2/s**2
 5 - dissipation rate, m**2/s**3
 6 - kinematic heat conductance, m**2/s
 7 - modulus of horizontal velocity, m/s
 8 - Richardson number, n/d
   -0.000000   30.73240  0.1237E-14  0.4910E-05  0.3098E-06  0.5039E-04  0.1050E-02  0.7604E+04
   -0.049997   30.76405  0.1237E-14  0.8503E-05  0.1376E-06  0.1818E-03  0.5942E-03  0.6055E+02
   -0.099994   30.77601  0.1237E-14  0.1031E-04  0.9497E-07  0.4084E-03  0.4360E-03  0.5037E+02
   -0.149992   30.77929  0.1237E-14  0.1144E-04  0.7987E-07  0.4884E-03  0.3855E-03  0.2474E+02
   -0.199991   30.78191  0.1237E-14  0.1232E-04  0.7099E-07  0.6527E-03  0.3445E-03  0.1597E+02
   -0.249989   30.78382  0.1237E-14  0.1302E-04  0.6517E-07  0.7790E-03  0.3138E-03  0.1187E+02
   -0.299988   30.78537  0.1237E-14  0.1358E-04  0.6101E-07  0.9054E-03  0.2883E-03  0.9450E+01
   -0.349988   30.78668  0.1237E-14  0.1405E-04  0.5789E-07  0.1020E-02  0.2663E-03  0.8122E+01
   -0.399988   30.78781  0.1237E-14  0.1445E-04  0.5546E-07  0.1124E-02  0.2470E-03  0.7222E+01
   -0.449988   30.78881  0.1237E-14  0.1479E-04  0.5348E-07  0.1221E-02  0.2299E-03  0.6812E+01
   -0.499988   30.78971  0.1237E-14  0.1508E-04  0.5185E-07  0.1309E-02  0.2148E-03  0.6602E+01
   -0.549989   30.79054  0.1237E-14  0.1534E-04  0.5048E-07  0.1391E-02  0.2013E-03  0.6546E+01
   -0.599989   30.79130  0.1237E-14  0.1555E-04  0.4933E-07  0.1464E-02  0.1891E-03  0.6520E+01
   -0.649990   30.79202  0.1237E-14  0.1574E-04  0.4835E-07  0.1530E-02  0.1779E-03  0.6636E+01
   -0.699992   30.79269  0.1237E-14  0.1589E-04  0.4753E-07  0.1588E-02  0.1677E-03  0.6754E+01
   -0.749993   30.79333  0.1237E-14  0.1602E-04  0.4684E-07  0.1638E-02  0.1581E-03  0.7014E+01
   -0.799994   30.79395  0.1237E-14  0.1613E-04  0.4627E-07  0.1680E-02  0.1493E-03  0.7274E+01
   -0.849996   30.79454  0.1237E-14  0.1621E-04  0.4581E-07  0.1715E-02  0.1411E-03  0.7691E+01
   -0.899998   30.79511  0.1237E-14  0.1627E-04  0.4546E-07  0.1741E-02  0.1333E-03  0.8117E+01
   -0.949999   30.79567  0.1237E-14  0.1630E-04  0.4521E-07  0.1758E-02  0.1260E-03  0.8739E+01
   -1.000001   30.79621  0.1237E-14  0.1631E-04  0.4507E-07  0.1768E-02  0.1191E-03  0.9396E+01
   -1.050003   30.79675  0.1237E-14  0.1630E-04  0.4504E-07  0.1767E-02  0.1125E-03  0.1070E+02
   -1.100004   30.79728  0.1237E-14  0.1627E-04  0.4512E-07  0.1862E-02  0.1063E-03  0.3499E+02
   -1.150006   30.79779  0.1237E-14  0.1622E-04  0.4536E-07  0.1670E-02  0.1007E-03  0.8173E+02
   -1.200008   30.79835  0.1237E-14  0.1614E-04  0.4572E-07  0.1702E-02  0.9485E-04  0.1558E+02
   -1.250009   30.79889  0.1237E-14  0.1603E-04  0.4628E-07  0.1671E-02  0.8929E-04  0.1656E+02
   -1.300010   30.79944  0.1237E-14  0.1589E-04  0.4706E-07  0.1618E-02  0.8393E-04  0.1952E+02
   -1.350012   30.80001  0.1237E-14  0.1572E-04  0.4813E-07  0.1557E-02  0.7874E-04  0.2340E+02
   -1.400013   30.80060  0.1237E-14  0.1551E-04  0.4958E-07  0.1476E-02  0.7366E-04  0.2920E+02
   -1.450013   30.80121  0.1237E-14  0.1525E-04  0.5156E-07  0.1396E-02  0.6867E-04  0.3741E+02
   -1.500014   30.80187  0.1237E-14  0.1494E-04  0.5434E-07  0.1280E-02  0.6376E-04  0.5165E+02
   -1.550014   30.80259  0.1237E-14  0.1455E-04  0.5830E-07  0.1198E-02  0.5881E-04  0.7465E+02
   -1.600014   30.80338  0.1237E-14  0.1407E-04  0.6447E-07  0.1050E-02  0.5397E-04  0.1620E+03
   -1.650014   30.80436  0.1237E-14  0.1345E-04  0.7413E-07  0.9742E-03  0.4868E-04  0.6700E+03
   -1.700014   30.80546  0.1237E-14  0.1260E-04  0.9154E-07  0.7876E-03  0.4350E-04 -0.3368E+04
   -1.750013   30.80752  0.1237E-14  0.1148E-04  0.1199E-06  0.7125E-03  0.3646E-04  0.1204E+08
   -1.800011   30.80912  0.1237E-14  0.1001E-04  0.1809E-06  0.4858E-03  0.3120E-04  0.8434E+05
   -1.850010   30.81635  0.1237E-14  0.8428E-05  0.2946E-06  0.4560E-03  0.2177E-04  0.1515E+09
   -1.900008   30.81422  0.1237E-14  0.6680E-05  0.6227E-06  0.2080E-03  0.1787E-04 -0.4334E+05
   -1.950005   30.83533  0.1237E-14  0.4730E-05  0.1527E-05  0.2014E-03  0.9468E-05 -0.9181E+06
   -2.000002   30.83597  0.1237E-14  0.0000E+00  0.0000E+00  0.0000E+00  0.1833E-04  0.0000E+00
