 1 - depth, m
 2 - temperature, C
 3 - salinity, kg/kg
 4 - turbulent kinetic energy, m**2/s**2
 5 - dissipation rate, m**2/s**3
 6 - kinematic heat conductance, m**2/s
 7 - modulus of horizontal velocity, m/s
 8 - Richardson number, n/d
   -0.000000   30.36623  0.1862E-13  0.4756E-05  0.2924E-06  0.4936E-04  0.1352E-02  0.4508E+04
   -0.049997   30.39665  0.1862E-13  0.8195E-05  0.1303E-06  0.1800E-03  0.7656E-03  0.7335E+04
   -0.099994   30.40790  0.1862E-13  0.9932E-05  0.9008E-07  0.3979E-03  0.5632E-03  0.2730E+02
   -0.149992   30.41109  0.1862E-13  0.1103E-04  0.7566E-07  0.4813E-03  0.4974E-03  0.1342E+02
   -0.199991   30.41361  0.1862E-13  0.1188E-04  0.6722E-07  0.6420E-03  0.4442E-03  0.8627E+01
   -0.249989   30.41545  0.1862E-13  0.1256E-04  0.6169E-07  0.7672E-03  0.4045E-03  0.6359E+01
   -0.299988   30.41694  0.1862E-13  0.1311E-04  0.5775E-07  0.8922E-03  0.3713E-03  0.5069E+01
   -0.349988   30.41820  0.1862E-13  0.1357E-04  0.5480E-07  0.1005E-02  0.3430E-03  0.4321E+01
   -0.399988   30.41929  0.1862E-13  0.1396E-04  0.5250E-07  0.1109E-02  0.3179E-03  0.3860E+01
   -0.449988   30.42025  0.1862E-13  0.1429E-04  0.5064E-07  0.1205E-02  0.2958E-03  0.3610E+01
   -0.499988   30.42113  0.1862E-13  0.1458E-04  0.4910E-07  0.1293E-02  0.2763E-03  0.3521E+01
   -0.549989   30.42192  0.1862E-13  0.1483E-04  0.4781E-07  0.1375E-02  0.2588E-03  0.3460E+01
   -0.599990   30.42266  0.1862E-13  0.1505E-04  0.4673E-07  0.1448E-02  0.2430E-03  0.3471E+01
   -0.649991   30.42335  0.1862E-13  0.1524E-04  0.4582E-07  0.1514E-02  0.2285E-03  0.3498E+01
   -0.699992   30.42400  0.1862E-13  0.1539E-04  0.4505E-07  0.1572E-02  0.2153E-03  0.3589E+01
   -0.749993   30.42462  0.1862E-13  0.1553E-04  0.4441E-07  0.1623E-02  0.2030E-03  0.3688E+01
   -0.799995   30.42521  0.1862E-13  0.1564E-04  0.4388E-07  0.1666E-02  0.1916E-03  0.3856E+01
   -0.849996   30.42578  0.1862E-13  0.1572E-04  0.4345E-07  0.1702E-02  0.1810E-03  0.4031E+01
   -0.899998   30.42633  0.1862E-13  0.1579E-04  0.4313E-07  0.1730E-02  0.1710E-03  0.4291E+01
   -0.949999   30.42686  0.1862E-13  0.1583E-04  0.4290E-07  0.1749E-02  0.1616E-03  0.4565E+01
   -1.000001   30.42739  0.1862E-13  0.1585E-04  0.4277E-07  0.1760E-02  0.1527E-03  0.4949E+01
   -1.050003   30.42791  0.1862E-13  0.1586E-04  0.4274E-07  0.1762E-02  0.1443E-03  0.5574E+01
   -1.100005   30.42842  0.1862E-13  0.1584E-04  0.4282E-07  0.1846E-02  0.1362E-03  0.1863E+02
   -1.150006   30.42891  0.1862E-13  0.1579E-04  0.4304E-07  0.1683E-02  0.1290E-03  0.4171E+02
   -1.200008   30.42944  0.1862E-13  0.1573E-04  0.4337E-07  0.1707E-02  0.1215E-03  0.8008E+01
   -1.250009   30.42996  0.1862E-13  0.1564E-04  0.4388E-07  0.1677E-02  0.1144E-03  0.8576E+01
   -1.300011   30.43049  0.1862E-13  0.1552E-04  0.4459E-07  0.1628E-02  0.1075E-03  0.9959E+01
   -1.350012   30.43104  0.1862E-13  0.1537E-04  0.4555E-07  0.1570E-02  0.1009E-03  0.1196E+02
   -1.400013   30.43160  0.1862E-13  0.1518E-04  0.4684E-07  0.1495E-02  0.9440E-04  0.1463E+02
   -1.450014   30.43218  0.1862E-13  0.1496E-04  0.4860E-07  0.1416E-02  0.8803E-04  0.1871E+02
   -1.500014   30.43281  0.1862E-13  0.1468E-04  0.5103E-07  0.1310E-02  0.8178E-04  0.2508E+02
   -1.550015   30.43349  0.1862E-13  0.1434E-04  0.5445E-07  0.1220E-02  0.7551E-04  0.3588E+02
   -1.600015   30.43423  0.1862E-13  0.1392E-04  0.5963E-07  0.1084E-02  0.6934E-04  0.7144E+02
   -1.650014   30.43511  0.1862E-13  0.1338E-04  0.6769E-07  0.9932E-03  0.6282E-04  0.4978E+04
   -1.700014   30.43614  0.1862E-13  0.1264E-04  0.8180E-07  0.8220E-03  0.5627E-04  0.2013E+04
   -1.750013   30.43782  0.1862E-13  0.1166E-04  0.1050E-06  0.7336E-03  0.4804E-04  0.1160E+06
   -1.800012   30.43938  0.1862E-13  0.1033E-04  0.1566E-06  0.5198E-03  0.4120E-04  0.1859E+05
   -1.850010   30.44512  0.1862E-13  0.8821E-05  0.2498E-06  0.4712E-03  0.3002E-04  0.3004E+08
   -1.900008   30.44434  0.1862E-13  0.6981E-05  0.5263E-06  0.2158E-03  0.2428E-04 -0.6057E+05
   -1.950005   30.46271  0.1862E-13  0.4853E-05  0.1314E-05  0.1843E-03  0.1321E-04 -0.3263E+06
   -2.000002   30.46534  0.1862E-13  0.0000E+00  0.0000E+00  0.0000E+00  0.2366E-04  0.0000E+00
