 1 - depth, m
 2 - temperature, C
 3 - salinity, kg/kg
 4 - turbulent kinetic energy, m**2/s**2
 5 - dissipation rate, m**2/s**3
 6 - kinematic heat conductance, m**2/s
 7 - modulus of horizontal velocity, m/s
 8 - Richardson number, n/d
   -0.000000   30.03952  0.2205E-13  0.5072E-05  0.2885E-06  0.5067E-04  0.2983E-02  0.1006E+04
   -0.049997   30.06901  0.2205E-13  0.8306E-05  0.1260E-06  0.1936E-03  0.1614E-02  0.5005E+04
   -0.099994   30.07847  0.2205E-13  0.9840E-05  0.8884E-07  0.3832E-03  0.1249E-02  0.6183E+01
   -0.149992   30.08169  0.2205E-13  0.1084E-04  0.7474E-07  0.4763E-03  0.1109E-02  0.3139E+01
   -0.199991   30.08417  0.2205E-13  0.1163E-04  0.6649E-07  0.6179E-03  0.9990E-03  0.2062E+01
   -0.249989   30.08603  0.2205E-13  0.1226E-04  0.6106E-07  0.7308E-03  0.9143E-03  0.1587E+01
   -0.299989   30.08757  0.2205E-13  0.1280E-04  0.5711E-07  0.8416E-03  0.8422E-03  0.1405E+01
   -0.349988   30.08886  0.2205E-13  0.1327E-04  0.5400E-07  0.9575E-03  0.7760E-03  0.1382E+01
   -0.399988   30.08997  0.2205E-13  0.1370E-04  0.5145E-07  0.1077E-02  0.7129E-03  0.1359E+01
   -0.449988   30.09094  0.2205E-13  0.1408E-04  0.4932E-07  0.1194E-02  0.6547E-03  0.1353E+01
   -0.499988   30.09179  0.2205E-13  0.1442E-04  0.4754E-07  0.1304E-02  0.6024E-03  0.1350E+01
   -0.549989   30.09256  0.2205E-13  0.1471E-04  0.4605E-07  0.1404E-02  0.5554E-03  0.1346E+01
   -0.599990   30.09326  0.2205E-13  0.1496E-04  0.4481E-07  0.1495E-02  0.5132E-03  0.1336E+01
   -0.649991   30.09391  0.2205E-13  0.1517E-04  0.4378E-07  0.1575E-02  0.4752E-03  0.1331E+01
   -0.699992   30.09451  0.2205E-13  0.1534E-04  0.4293E-07  0.1644E-02  0.4410E-03  0.1319E+01
   -0.749993   30.09509  0.2205E-13  0.1547E-04  0.4223E-07  0.1701E-02  0.4101E-03  0.1313E+01
   -0.799995   30.09563  0.2205E-13  0.1557E-04  0.4168E-07  0.1747E-02  0.3823E-03  0.1301E+01
   -0.849996   30.09615  0.2205E-13  0.1564E-04  0.4125E-07  0.1780E-02  0.3571E-03  0.1298E+01
   -0.899998   30.09666  0.2205E-13  0.1568E-04  0.4094E-07  0.1803E-02  0.3343E-03  0.1291E+01
   -0.950000   30.09716  0.2205E-13  0.1570E-04  0.4074E-07  0.1815E-02  0.3137E-03  0.1302E+01
   -1.000002   30.09764  0.2205E-13  0.1570E-04  0.4064E-07  0.1818E-02  0.2950E-03  0.1318E+01
   -1.050003   30.09812  0.2205E-13  0.1567E-04  0.4064E-07  0.1810E-02  0.2779E-03  0.1415E+01
   -1.100005   30.09860  0.2205E-13  0.1562E-04  0.4073E-07  0.1925E-02  0.2621E-03  0.4377E+01
   -1.150007   30.09904  0.2205E-13  0.1556E-04  0.4096E-07  0.1684E-02  0.2488E-03  0.1047E+02
   -1.200008   30.09955  0.2205E-13  0.1547E-04  0.4129E-07  0.1734E-02  0.2344E-03  0.1967E+01
   -1.250010   30.10003  0.2205E-13  0.1535E-04  0.4180E-07  0.1701E-02  0.2208E-03  0.2077E+01
   -1.300011   30.10052  0.2205E-13  0.1521E-04  0.4250E-07  0.1646E-02  0.2077E-03  0.2447E+01
   -1.350012   30.10103  0.2205E-13  0.1503E-04  0.4346E-07  0.1583E-02  0.1950E-03  0.2923E+01
   -1.400013   30.10155  0.2205E-13  0.1482E-04  0.4476E-07  0.1498E-02  0.1826E-03  0.3649E+01
   -1.450014   30.10210  0.2205E-13  0.1457E-04  0.4654E-07  0.1420E-02  0.1703E-03  0.4653E+01
   -1.500015   30.10268  0.2205E-13  0.1427E-04  0.4903E-07  0.1300E-02  0.1583E-03  0.6445E+01
   -1.550015   30.10332  0.2205E-13  0.1390E-04  0.5257E-07  0.1222E-02  0.1461E-03  0.9281E+01
   -1.600015   30.10400  0.2205E-13  0.1345E-04  0.5815E-07  0.1069E-02  0.1342E-03  0.1965E+02
   -1.650015   30.10488  0.2205E-13  0.1286E-04  0.6679E-07  0.9946E-03  0.1210E-03  0.9284E+01
   -1.700015   30.10584  0.2205E-13  0.1206E-04  0.8220E-07  0.8014E-03  0.1084E-03 -0.5033E+03
   -1.750014   30.10768  0.2205E-13  0.1101E-04  0.1072E-06  0.7308E-03  0.9077E-04 -0.2254E+04
   -1.800012   30.10891  0.2205E-13  0.9685E-05  0.1619E-06  0.5047E-03  0.7836E-04  0.6634E+06
   -1.850011   30.11526  0.2205E-13  0.8228E-05  0.2638E-06  0.4687E-03  0.5532E-04  0.5182E+08
   -1.900009   30.11333  0.2205E-13  0.6534E-05  0.5573E-06  0.2148E-03  0.4560E-04 -0.3177E+05
   -1.950006   30.13123  0.2205E-13  0.4560E-05  0.1364E-05  0.1942E-03  0.2451E-04 -0.2900E+06
   -2.000003   30.13299  0.2205E-13  0.0000E+00  0.0000E+00  0.0000E+00  0.4610E-04  0.0000E+00
