 1 - depth, m
 2 - temperature, C
 3 - salinity, kg/kg
 4 - turbulent kinetic energy, m**2/s**2
 5 - dissipation rate, m**2/s**3
 6 - kinematic heat conductance, m**2/s
 7 - modulus of horizontal velocity, m/s
 8 - Richardson number, n/d
   -0.000000   30.53069  0.3906E-14  0.4912E-05  0.3085E-06  0.5030E-04  0.1318E-02  0.5501E+04
   -0.049997   30.56223  0.3906E-14  0.8451E-05  0.1375E-06  0.1817E-03  0.7478E-03  0.8717E+03
   -0.099994   30.57403  0.3906E-14  0.1025E-04  0.9498E-07  0.4022E-03  0.5510E-03  0.2776E+02
   -0.149992   30.57735  0.3906E-14  0.1138E-04  0.7972E-07  0.4856E-03  0.4868E-03  0.1367E+02
   -0.199991   30.57999  0.3906E-14  0.1226E-04  0.7078E-07  0.6487E-03  0.4350E-03  0.8761E+01
   -0.249989   30.58190  0.3906E-14  0.1296E-04  0.6493E-07  0.7750E-03  0.3963E-03  0.6463E+01
   -0.299988   30.58346  0.3906E-14  0.1353E-04  0.6077E-07  0.9015E-03  0.3640E-03  0.5145E+01
   -0.349988   30.58476  0.3906E-14  0.1400E-04  0.5764E-07  0.1016E-02  0.3364E-03  0.4393E+01
   -0.399988   30.58590  0.3906E-14  0.1439E-04  0.5521E-07  0.1120E-02  0.3119E-03  0.3918E+01
   -0.449988   30.58690  0.3906E-14  0.1473E-04  0.5323E-07  0.1217E-02  0.2904E-03  0.3670E+01
   -0.499988   30.58781  0.3906E-14  0.1503E-04  0.5160E-07  0.1306E-02  0.2714E-03  0.3574E+01
   -0.549989   30.58864  0.3906E-14  0.1528E-04  0.5023E-07  0.1388E-02  0.2543E-03  0.3516E+01
   -0.599989   30.58940  0.3906E-14  0.1550E-04  0.4907E-07  0.1462E-02  0.2389E-03  0.3523E+01
   -0.649991   30.59012  0.3906E-14  0.1569E-04  0.4810E-07  0.1528E-02  0.2248E-03  0.3556E+01
   -0.699992   30.59079  0.3906E-14  0.1584E-04  0.4727E-07  0.1586E-02  0.2118E-03  0.3643E+01
   -0.749993   30.59144  0.3906E-14  0.1598E-04  0.4658E-07  0.1637E-02  0.1999E-03  0.3750E+01
   -0.799995   30.59205  0.3906E-14  0.1608E-04  0.4600E-07  0.1680E-02  0.1887E-03  0.3915E+01
   -0.849996   30.59264  0.3906E-14  0.1616E-04  0.4554E-07  0.1715E-02  0.1783E-03  0.4103E+01
   -0.899998   30.59321  0.3906E-14  0.1622E-04  0.4518E-07  0.1742E-02  0.1685E-03  0.4359E+01
   -0.949999   30.59377  0.3906E-14  0.1626E-04  0.4492E-07  0.1760E-02  0.1593E-03  0.4650E+01
   -1.000001   30.59432  0.3906E-14  0.1627E-04  0.4477E-07  0.1770E-02  0.1506E-03  0.5031E+01
   -1.050003   30.59485  0.3906E-14  0.1626E-04  0.4473E-07  0.1770E-02  0.1423E-03  0.5681E+01
   -1.100005   30.59539  0.3906E-14  0.1623E-04  0.4480E-07  0.1863E-02  0.1344E-03  0.1880E+02
   -1.150006   30.59589  0.3906E-14  0.1618E-04  0.4501E-07  0.1679E-02  0.1274E-03  0.4307E+02
   -1.200008   30.59644  0.3906E-14  0.1610E-04  0.4536E-07  0.1709E-02  0.1200E-03  0.8218E+01
   -1.250009   30.59698  0.3906E-14  0.1599E-04  0.4588E-07  0.1678E-02  0.1130E-03  0.8773E+01
   -1.300011   30.59753  0.3906E-14  0.1586E-04  0.4662E-07  0.1627E-02  0.1062E-03  0.1025E+02
   -1.350012   30.59809  0.3906E-14  0.1569E-04  0.4764E-07  0.1566E-02  0.9968E-04  0.1231E+02
   -1.400013   30.59867  0.3906E-14  0.1549E-04  0.4903E-07  0.1487E-02  0.9329E-04  0.1522E+02
   -1.450014   30.59928  0.3906E-14  0.1524E-04  0.5093E-07  0.1408E-02  0.8700E-04  0.1949E+02
   -1.500014   30.59993  0.3906E-14  0.1493E-04  0.5357E-07  0.1294E-02  0.8082E-04  0.2659E+02
   -1.550015   30.60064  0.3906E-14  0.1456E-04  0.5734E-07  0.1209E-02  0.7459E-04  0.3818E+02
   -1.600015   30.60141  0.3906E-14  0.1410E-04  0.6314E-07  0.1063E-02  0.6850E-04  0.8324E+02
   -1.650014   30.60235  0.3906E-14  0.1350E-04  0.7221E-07  0.9835E-03  0.6191E-04  0.5090E+03
   -1.700014   30.60342  0.3906E-14  0.1268E-04  0.8841E-07  0.8002E-03  0.5543E-04 -0.2420E+04
   -1.750013   30.60533  0.3906E-14  0.1160E-04  0.1151E-06  0.7219E-03  0.4679E-04  0.7882E+05
   -1.800012   30.60695  0.3906E-14  0.1016E-04  0.1731E-06  0.5006E-03  0.4006E-04  0.1514E+05
   -1.850010   30.61353  0.3906E-14  0.8591E-05  0.2789E-06  0.4623E-03  0.2838E-04  0.2104E+08
   -1.900008   30.61202  0.3906E-14  0.6775E-05  0.5834E-06  0.2076E-03  0.2313E-04 -0.2576E+06
   -1.950005   30.63219  0.3906E-14  0.4767E-05  0.1450E-05  0.1959E-03  0.1226E-04 -0.7112E+06
   -2.000002   30.63331  0.3906E-14  0.0000E+00  0.0000E+00  0.0000E+00  0.2321E-04  0.0000E+00
