 1 - depth, m
 2 - temperature, C
 3 - salinity, kg/kg
 4 - turbulent kinetic energy, m**2/s**2
 5 - dissipation rate, m**2/s**3
 6 - kinematic heat conductance, m**2/s
 7 - modulus of horizontal velocity, m/s
 8 - Richardson number, n/d
   -0.000000   29.57676  0.7863E-13  0.4197E-05  0.2392E-06  0.4547E-04  0.6279E-03  0.1022E+06
   -0.049997   29.60466  0.7863E-13  0.7449E-05  0.1061E-06  0.1771E-03  0.3473E-03  0.8440E+02
   -0.099994   29.61424  0.7864E-13  0.8997E-05  0.7413E-07  0.3958E-03  0.2548E-03  0.1227E+03
   -0.149992   29.61697  0.7864E-13  0.9969E-05  0.6281E-07  0.4748E-03  0.2253E-03  0.5992E+02
   -0.199991   29.61916  0.7864E-13  0.1073E-04  0.5611E-07  0.6284E-03  0.2013E-03  0.3943E+02
   -0.249989   29.62077  0.7864E-13  0.1134E-04  0.5168E-07  0.7497E-03  0.1832E-03  0.2936E+02
   -0.299989   29.62208  0.7864E-13  0.1184E-04  0.4852E-07  0.8687E-03  0.1681E-03  0.2359E+02
   -0.349988   29.62319  0.7864E-13  0.1225E-04  0.4614E-07  0.9770E-03  0.1551E-03  0.2025E+02
   -0.399988   29.62415  0.7864E-13  0.1261E-04  0.4430E-07  0.1076E-02  0.1436E-03  0.1816E+02
   -0.449988   29.62501  0.7864E-13  0.1292E-04  0.4280E-07  0.1168E-02  0.1335E-03  0.1706E+02
   -0.499988   29.62579  0.7864E-13  0.1319E-04  0.4157E-07  0.1253E-02  0.1245E-03  0.1668E+02
   -0.549989   29.62650  0.7864E-13  0.1342E-04  0.4055E-07  0.1331E-02  0.1165E-03  0.1647E+02
   -0.599990   29.62716  0.7864E-13  0.1363E-04  0.3970E-07  0.1402E-02  0.1093E-03  0.1657E+02
   -0.649991   29.62778  0.7864E-13  0.1381E-04  0.3898E-07  0.1465E-02  0.1027E-03  0.1678E+02
   -0.699992   29.62836  0.7864E-13  0.1396E-04  0.3839E-07  0.1522E-02  0.9658E-04  0.1726E+02
   -0.749993   29.62892  0.7864E-13  0.1410E-04  0.3790E-07  0.1571E-02  0.9098E-04  0.1783E+02
   -0.799995   29.62945  0.7864E-13  0.1421E-04  0.3751E-07  0.1613E-02  0.8576E-04  0.1871E+02
   -0.849997   29.62996  0.7864E-13  0.1430E-04  0.3721E-07  0.1648E-02  0.8091E-04  0.1967E+02
   -0.899998   29.63046  0.7864E-13  0.1438E-04  0.3699E-07  0.1675E-02  0.7634E-04  0.2100E+02
   -0.950000   29.63095  0.7864E-13  0.1443E-04  0.3686E-07  0.1695E-02  0.7206E-04  0.2248E+02
   -1.000002   29.63143  0.7864E-13  0.1447E-04  0.3681E-07  0.1707E-02  0.6800E-04  0.2444E+02
   -1.050003   29.63190  0.7864E-13  0.1449E-04  0.3684E-07  0.1710E-02  0.6416E-04  0.2774E+02
   -1.100005   29.63237  0.7864E-13  0.1449E-04  0.3697E-07  0.1782E-02  0.6049E-04  0.9384E+02
   -1.150007   29.63282  0.7864E-13  0.1447E-04  0.3721E-07  0.1650E-02  0.5721E-04  0.2040E+03
   -1.200008   29.63331  0.7864E-13  0.1443E-04  0.3755E-07  0.1663E-02  0.5386E-04  0.4001E+02
   -1.250010   29.63379  0.7864E-13  0.1437E-04  0.3803E-07  0.1635E-02  0.5063E-04  0.4308E+02
   -1.300011   29.63428  0.7864E-13  0.1429E-04  0.3868E-07  0.1591E-02  0.4753E-04  0.5021E+02
   -1.350012   29.63478  0.7864E-13  0.1418E-04  0.3954E-07  0.1537E-02  0.4453E-04  0.6017E+02
   -1.400014   29.63530  0.7864E-13  0.1404E-04  0.4067E-07  0.1468E-02  0.4162E-04  0.7363E+02
   -1.450014   29.63585  0.7864E-13  0.1386E-04  0.4217E-07  0.1394E-02  0.3876E-04  0.9343E+02
   -1.500015   29.63643  0.7864E-13  0.1364E-04  0.4419E-07  0.1293E-02  0.3597E-04  0.1241E+03
   -1.550015   29.63706  0.7864E-13  0.1337E-04  0.4698E-07  0.1207E-02  0.3318E-04  0.1735E+03
   -1.600015   29.63774  0.7864E-13  0.1303E-04  0.5106E-07  0.1071E-02  0.3045E-04  0.2834E+03
   -1.650015   29.63854  0.7864E-13  0.1259E-04  0.5722E-07  0.9894E-03  0.2760E-04  0.6503E+03
   -1.700015   29.63943  0.7864E-13  0.1200E-04  0.6810E-07  0.8157E-03  0.2483E-04 -0.1854E+05
   -1.750014   29.64089  0.7864E-13  0.1118E-04  0.8624E-07  0.7343E-03  0.2133E-04  0.7994E+05
   -1.800013   29.64237  0.7864E-13  0.1002E-04  0.1232E-06  0.5191E-03  0.1835E-04  0.2081E+06
   -1.850011   29.64694  0.7864E-13  0.8608E-05  0.1924E-06  0.4677E-03  0.1360E-04  0.7305E+10
   -1.900009   29.64712  0.7864E-13  0.6844E-05  0.3960E-06  0.2107E-03  0.1094E-04 -0.6614E+08
   -1.950006   29.66369  0.7864E-13  0.4701E-05  0.1024E-05  0.1653E-03  0.6033E-05 -0.3792E+07
   -2.000003   29.66714  0.7864E-13  0.0000E+00  0.0000E+00  0.0000E+00  0.1017E-04  0.0000E+00
