 1 - depth, m
 2 - temperature, C
 3 - salinity, kg/kg
 4 - turbulent kinetic energy, m**2/s**2
 5 - dissipation rate, m**2/s**3
 6 - kinematic heat conductance, m**2/s
 7 - modulus of horizontal velocity, m/s
 8 - Richardson number, n/d
   -0.000000   30.76138  0.3196E-14  0.4844E-05  0.3022E-06  0.4960E-04  0.6692E-03  0.1638E+05
   -0.049997   30.79320  0.3196E-14  0.8495E-05  0.1341E-06  0.1842E-03  0.3768E-03  0.7639E+02
   -0.099994   30.80464  0.3196E-14  0.1028E-04  0.9287E-07  0.4142E-03  0.2767E-03  0.1163E+03
   -0.149992   30.80783  0.3196E-14  0.1139E-04  0.7835E-07  0.4922E-03  0.2451E-03  0.5718E+02
   -0.199991   30.81040  0.3196E-14  0.1226E-04  0.6976E-07  0.6570E-03  0.2192E-03  0.3726E+02
   -0.249989   30.81227  0.3196E-14  0.1295E-04  0.6411E-07  0.7834E-03  0.1999E-03  0.2768E+02
   -0.299988   30.81379  0.3196E-14  0.1351E-04  0.6006E-07  0.9094E-03  0.1837E-03  0.2214E+02
   -0.349988   30.81507  0.3196E-14  0.1397E-04  0.5701E-07  0.1024E-02  0.1698E-03  0.1895E+02
   -0.399988   30.81618  0.3196E-14  0.1437E-04  0.5463E-07  0.1128E-02  0.1576E-03  0.1693E+02
   -0.449988   30.81716  0.3196E-14  0.1470E-04  0.5270E-07  0.1224E-02  0.1468E-03  0.1586E+02
   -0.499988   30.81805  0.3196E-14  0.1499E-04  0.5109E-07  0.1313E-02  0.1372E-03  0.1545E+02
   -0.549989   30.81886  0.3196E-14  0.1524E-04  0.4975E-07  0.1394E-02  0.1286E-03  0.1521E+02
   -0.599989   30.81961  0.3196E-14  0.1546E-04  0.4861E-07  0.1468E-02  0.1208E-03  0.1524E+02
   -0.649990   30.82032  0.3196E-14  0.1565E-04  0.4765E-07  0.1534E-02  0.1137E-03  0.1538E+02
   -0.699992   30.82098  0.3196E-14  0.1580E-04  0.4684E-07  0.1592E-02  0.1072E-03  0.1576E+02
   -0.749993   30.82161  0.3196E-14  0.1593E-04  0.4616E-07  0.1643E-02  0.1011E-03  0.1623E+02
   -0.799994   30.82221  0.3196E-14  0.1604E-04  0.4559E-07  0.1686E-02  0.9549E-04  0.1694E+02
   -0.849996   30.82278  0.3196E-14  0.1612E-04  0.4514E-07  0.1721E-02  0.9025E-04  0.1775E+02
   -0.899998   30.82334  0.3196E-14  0.1618E-04  0.4479E-07  0.1748E-02  0.8531E-04  0.1886E+02
   -0.949999   30.82389  0.3196E-14  0.1622E-04  0.4454E-07  0.1767E-02  0.8066E-04  0.2013E+02
   -1.000001   30.82442  0.3196E-14  0.1623E-04  0.4439E-07  0.1778E-02  0.7625E-04  0.2178E+02
   -1.050003   30.82495  0.3196E-14  0.1623E-04  0.4435E-07  0.1778E-02  0.7207E-04  0.2460E+02
   -1.100004   30.82547  0.3196E-14  0.1620E-04  0.4442E-07  0.1868E-02  0.6807E-04  0.8154E+02
   -1.150006   30.82597  0.3196E-14  0.1615E-04  0.4463E-07  0.1690E-02  0.6451E-04  0.1859E+03
   -1.200008   30.82651  0.3196E-14  0.1608E-04  0.4497E-07  0.1719E-02  0.6080E-04  0.3555E+02
   -1.250009   30.82704  0.3196E-14  0.1598E-04  0.4549E-07  0.1688E-02  0.5725E-04  0.3798E+02
   -1.300010   30.82758  0.3196E-14  0.1585E-04  0.4622E-07  0.1638E-02  0.5385E-04  0.4435E+02
   -1.350012   30.82813  0.3196E-14  0.1568E-04  0.4723E-07  0.1578E-02  0.5053E-04  0.5325E+02
   -1.400013   30.82870  0.3196E-14  0.1549E-04  0.4859E-07  0.1500E-02  0.4730E-04  0.6570E+02
   -1.450014   30.82929  0.3196E-14  0.1524E-04  0.5044E-07  0.1421E-02  0.4413E-04  0.8414E+02
   -1.500014   30.82993  0.3196E-14  0.1495E-04  0.5301E-07  0.1310E-02  0.4101E-04  0.1144E+03
   -1.550014   30.83062  0.3196E-14  0.1459E-04  0.5667E-07  0.1221E-02  0.3787E-04  0.1649E+03
   -1.600015   30.83137  0.3196E-14  0.1415E-04  0.6225E-07  0.1082E-02  0.3479E-04  0.3108E+03
   -1.650014   30.83228  0.3196E-14  0.1357E-04  0.7096E-07  0.9935E-03  0.3150E-04  0.1069E+04
   -1.700014   30.83333  0.3196E-14  0.1278E-04  0.8639E-07  0.8184E-03  0.2822E-04  0.2004E+05
   -1.750013   30.83513  0.3196E-14  0.1174E-04  0.1119E-06  0.7318E-03  0.2399E-04  0.1904E+06
   -1.800012   30.83672  0.3196E-14  0.1033E-04  0.1684E-06  0.5120E-03  0.2056E-04  0.6480E+06
   -1.850010   30.84292  0.3196E-14  0.8805E-05  0.2696E-06  0.4712E-03  0.1482E-04  0.4582E+08
   -1.900008   30.84167  0.3196E-14  0.6984E-05  0.5647E-06  0.2140E-03  0.1206E-04 -0.7767E+07
   -1.950005   30.86099  0.3196E-14  0.4891E-05  0.1397E-05  0.1913E-03  0.6549E-05 -0.1113E+07
   -2.000002   30.86254  0.3196E-14  0.0000E+00  0.0000E+00  0.0000E+00  0.1193E-04  0.0000E+00
