 1 - depth, m
 2 - temperature, C
 3 - salinity, kg/kg
 4 - turbulent kinetic energy, m**2/s**2
 5 - dissipation rate, m**2/s**3
 6 - kinematic heat conductance, m**2/s
 7 - modulus of horizontal velocity, m/s
 8 - Richardson number, n/d
   -0.000000   31.50373  0.4561E-14  0.5308E-05  0.3486E-06  0.5209E-04  0.5172E-03  0.9135E+05
   -0.049997   31.53846  0.4561E-14  0.9326E-05  0.1547E-06  0.1934E-03  0.2935E-03  0.1461E+05
   -0.099994   31.55065  0.4561E-14  0.1128E-04  0.1071E-06  0.4336E-03  0.2151E-03  0.1977E+03
   -0.149992   31.55410  0.4561E-14  0.1250E-04  0.9032E-07  0.5103E-03  0.1910E-03  0.9908E+02
   -0.199990   31.55689  0.4561E-14  0.1346E-04  0.8043E-07  0.6851E-03  0.1711E-03  0.6465E+02
   -0.249989   31.55891  0.4561E-14  0.1422E-04  0.7393E-07  0.8163E-03  0.1562E-03  0.4837E+02
   -0.299988   31.56056  0.4561E-14  0.1484E-04  0.6930E-07  0.9481E-03  0.1438E-03  0.3865E+02
   -0.349988   31.56195  0.4561E-14  0.1535E-04  0.6582E-07  0.1067E-02  0.1331E-03  0.3325E+02
   -0.399987   31.56315  0.4561E-14  0.1579E-04  0.6311E-07  0.1176E-02  0.1237E-03  0.2961E+02
   -0.449987   31.56422  0.4561E-14  0.1616E-04  0.6092E-07  0.1276E-02  0.1154E-03  0.2790E+02
   -0.499988   31.56519  0.4561E-14  0.1648E-04  0.5911E-07  0.1368E-02  0.1080E-03  0.2704E+02
   -0.549988   31.56607  0.4561E-14  0.1676E-04  0.5760E-07  0.1452E-02  0.1014E-03  0.2677E+02
   -0.599989   31.56689  0.4561E-14  0.1700E-04  0.5633E-07  0.1527E-02  0.9543E-04  0.2667E+02
   -0.649990   31.56766  0.4561E-14  0.1720E-04  0.5526E-07  0.1595E-02  0.8995E-04  0.2712E+02
   -0.699991   31.56838  0.4561E-14  0.1737E-04  0.5437E-07  0.1654E-02  0.8491E-04  0.2761E+02
   -0.749992   31.56907  0.4561E-14  0.1751E-04  0.5364E-07  0.1705E-02  0.8023E-04  0.2866E+02
   -0.799994   31.56973  0.4561E-14  0.1763E-04  0.5304E-07  0.1748E-02  0.7589E-04  0.2975E+02
   -0.849995   31.57036  0.4561E-14  0.1772E-04  0.5257E-07  0.1782E-02  0.7181E-04  0.3145E+02
   -0.899997   31.57098  0.4561E-14  0.1778E-04  0.5222E-07  0.1807E-02  0.6798E-04  0.3324E+02
   -0.949998   31.57159  0.4561E-14  0.1782E-04  0.5200E-07  0.1824E-02  0.6435E-04  0.3582E+02
   -1.000000   31.57218  0.4561E-14  0.1783E-04  0.5190E-07  0.1832E-02  0.6092E-04  0.3859E+02
   -1.050002   31.57277  0.4561E-14  0.1782E-04  0.5194E-07  0.1828E-02  0.5765E-04  0.4398E+02
   -1.100003   31.57335  0.4561E-14  0.1779E-04  0.5212E-07  0.1939E-02  0.5453E-04  0.1419E+03
   -1.150005   31.57390  0.4561E-14  0.1772E-04  0.5249E-07  0.1704E-02  0.5177E-04  0.3475E+03
   -1.200006   31.57452  0.4561E-14  0.1763E-04  0.5302E-07  0.1749E-02  0.4881E-04  0.6506E+02
   -1.250008   31.57512  0.4561E-14  0.1751E-04  0.5378E-07  0.1715E-02  0.4602E-04  0.6926E+02
   -1.300009   31.57573  0.4561E-14  0.1735E-04  0.5483E-07  0.1657E-02  0.4332E-04  0.8227E+02
   -1.350010   31.57636  0.4561E-14  0.1715E-04  0.5625E-07  0.1590E-02  0.4069E-04  0.9949E+02
   -1.400011   31.57702  0.4561E-14  0.1691E-04  0.5819E-07  0.1502E-02  0.3812E-04  0.1260E+03
   -1.450012   31.57772  0.4561E-14  0.1661E-04  0.6084E-07  0.1420E-02  0.3558E-04  0.1642E+03
   -1.500013   31.57847  0.4561E-14  0.1624E-04  0.6458E-07  0.1297E-02  0.3307E-04  0.2338E+03
   -1.550013   31.57930  0.4561E-14  0.1579E-04  0.7000E-07  0.1217E-02  0.3052E-04  0.3704E+03
   -1.600013   31.58022  0.4561E-14  0.1522E-04  0.7862E-07  0.1065E-02  0.2802E-04 -0.7542E+03
   -1.650013   31.58143  0.4561E-14  0.1447E-04  0.9205E-07  0.9845E-03  0.2520E-04 -0.3718E+05
   -1.700012   31.58282  0.4561E-14  0.1343E-04  0.1160E-06  0.7949E-03  0.2241E-04  0.2555E+06
   -1.750011   31.58541  0.4561E-14  0.1216E-04  0.1544E-06  0.7230E-03  0.1859E-04  0.1420E+07
   -1.800010   31.58708  0.4561E-14  0.1057E-04  0.2429E-06  0.4905E-03  0.1599E-04  0.1934E+07
   -1.850008   31.59690  0.4561E-14  0.8973E-05  0.4023E-06  0.4738E-03  0.1094E-04  0.3961E+09
   -1.900006   31.59285  0.4561E-14  0.7208E-05  0.8433E-06  0.2198E-03  0.9141E-05 -0.4515E+07
   -1.950003   31.61862  0.4561E-14  0.5178E-05  0.2000E-05  0.2225E-03  0.4866E-05 -0.4527E+07
   -2.000000   31.61877  0.4561E-14  0.0000E+00  0.0000E+00  0.0000E+00  0.9663E-05  0.0000E+00
