 1 - depth, m
 2 - temperature, C
 3 - salinity, kg/kg
 4 - turbulent kinetic energy, m**2/s**2
 5 - dissipation rate, m**2/s**3
 6 - kinematic heat conductance, m**2/s
 7 - modulus of horizontal velocity, m/s
 8 - Richardson number, n/d
   -0.000000   30.74814  0.5135E-14  0.4918E-05  0.3097E-06  0.5004E-04  0.1052E-02  0.7441E+04
   -0.049997   30.78011  0.5135E-14  0.8517E-05  0.1376E-06  0.1833E-03  0.5933E-03  0.1396E+04
   -0.099994   30.79195  0.5135E-14  0.1032E-04  0.9512E-07  0.4074E-03  0.4368E-03  0.5047E+02
   -0.149992   30.79525  0.5135E-14  0.1145E-04  0.8000E-07  0.4888E-03  0.3861E-03  0.2483E+02
   -0.199991   30.79788  0.5135E-14  0.1233E-04  0.7111E-07  0.6524E-03  0.3451E-03  0.1603E+02
   -0.249989   30.79980  0.5135E-14  0.1302E-04  0.6528E-07  0.7783E-03  0.3144E-03  0.1192E+02
   -0.299988   30.80135  0.5135E-14  0.1359E-04  0.6112E-07  0.9045E-03  0.2888E-03  0.9492E+01
   -0.349988   30.80266  0.5135E-14  0.1406E-04  0.5800E-07  0.1018E-02  0.2669E-03  0.8164E+01
   -0.399988   30.80380  0.5135E-14  0.1445E-04  0.5557E-07  0.1122E-02  0.2475E-03  0.7261E+01
   -0.449988   30.80480  0.5135E-14  0.1479E-04  0.5359E-07  0.1218E-02  0.2304E-03  0.6855E+01
   -0.499988   30.80571  0.5135E-14  0.1508E-04  0.5195E-07  0.1307E-02  0.2153E-03  0.6646E+01
   -0.549989   30.80654  0.5135E-14  0.1533E-04  0.5058E-07  0.1387E-02  0.2017E-03  0.6597E+01
   -0.599989   30.80731  0.5135E-14  0.1555E-04  0.4943E-07  0.1460E-02  0.1895E-03  0.6574E+01
   -0.649990   30.80803  0.5135E-14  0.1573E-04  0.4846E-07  0.1525E-02  0.1783E-03  0.6700E+01
   -0.699992   30.80871  0.5135E-14  0.1589E-04  0.4763E-07  0.1583E-02  0.1680E-03  0.6823E+01
   -0.749993   30.80935  0.5135E-14  0.1602E-04  0.4695E-07  0.1632E-02  0.1584E-03  0.7099E+01
   -0.799994   30.80997  0.5135E-14  0.1612E-04  0.4638E-07  0.1674E-02  0.1496E-03  0.7364E+01
   -0.849996   30.81056  0.5135E-14  0.1620E-04  0.4593E-07  0.1708E-02  0.1413E-03  0.7807E+01
   -0.899998   30.81114  0.5135E-14  0.1625E-04  0.4558E-07  0.1733E-02  0.1336E-03  0.8241E+01
   -0.949999   30.81170  0.5135E-14  0.1628E-04  0.4534E-07  0.1750E-02  0.1262E-03  0.8902E+01
   -1.000001   30.81225  0.5135E-14  0.1629E-04  0.4520E-07  0.1758E-02  0.1193E-03  0.9573E+01
   -1.050003   30.81279  0.5135E-14  0.1628E-04  0.4518E-07  0.1756E-02  0.1127E-03  0.1094E+02
   -1.100004   30.81333  0.5135E-14  0.1624E-04  0.4528E-07  0.1855E-02  0.1064E-03  0.3551E+02
   -1.150006   30.81384  0.5135E-14  0.1618E-04  0.4553E-07  0.1651E-02  0.1008E-03  0.8528E+02
   -1.200008   30.81440  0.5135E-14  0.1610E-04  0.4592E-07  0.1687E-02  0.9495E-04  0.1613E+02
   -1.250009   30.81495  0.5135E-14  0.1598E-04  0.4650E-07  0.1654E-02  0.8938E-04  0.1713E+02
   -1.300010   30.81551  0.5135E-14  0.1584E-04  0.4732E-07  0.1600E-02  0.8399E-04  0.2035E+02
   -1.350012   30.81608  0.5135E-14  0.1566E-04  0.4844E-07  0.1537E-02  0.7877E-04  0.2447E+02
   -1.400013   30.81668  0.5135E-14  0.1544E-04  0.4996E-07  0.1454E-02  0.7366E-04  0.3087E+02
   -1.450013   30.81731  0.5135E-14  0.1517E-04  0.5206E-07  0.1374E-02  0.6864E-04  0.3987E+02
   -1.500014   30.81798  0.5135E-14  0.1484E-04  0.5500E-07  0.1257E-02  0.6369E-04  0.5598E+02
   -1.550014   30.81872  0.5135E-14  0.1444E-04  0.5922E-07  0.1175E-02  0.5870E-04  0.8300E+02
   -1.600014   30.81952  0.5135E-14  0.1394E-04  0.6586E-07  0.1029E-02  0.5380E-04  0.3455E+03
   -1.650014   30.82055  0.5135E-14  0.1329E-04  0.7637E-07  0.9497E-03  0.4843E-04  0.8531E+05
   -1.700014   30.82175  0.5135E-14  0.1238E-04  0.9504E-07  0.7695E-03  0.4306E-04  0.3332E+04
   -1.750013   30.82392  0.5135E-14  0.1123E-04  0.1252E-06  0.6930E-03  0.3586E-04  0.2820E+06
   -1.800011   30.82548  0.5135E-14  0.9736E-05  0.1895E-06  0.4707E-03  0.3068E-04  0.2878E+07
   -1.850010   30.83346  0.5135E-14  0.8173E-05  0.3132E-06  0.4479E-03  0.2099E-04  0.6146E+09
   -1.900008   30.83078  0.5135E-14  0.6480E-05  0.6584E-06  0.2000E-03  0.1724E-04  0.4326E+07
   -1.950005   30.85301  0.5135E-14  0.4602E-05  0.1596E-05  0.2062E-03  0.8968E-05 -0.8865E+06
   -2.000002   30.85312  0.5135E-14  0.0000E+00  0.0000E+00  0.0000E+00  0.1801E-04  0.0000E+00
