 1 - depth, m
 2 - temperature, C
 3 - salinity, kg/kg
 4 - turbulent kinetic energy, m**2/s**2
 5 - dissipation rate, m**2/s**3
 6 - kinematic heat conductance, m**2/s
 7 - modulus of horizontal velocity, m/s
 8 - Richardson number, n/d
   -0.000000   30.51605  0.7347E-14  0.4986E-05  0.3219E-06  0.5185E-04  0.9358E-03  0.1948E+04
   -0.049997   30.54777  0.7347E-14  0.8651E-05  0.1427E-06  0.1808E-03  0.5366E-03  0.1177E+03
   -0.099994   30.56039  0.7347E-14  0.1052E-04  0.9787E-07  0.4170E-03  0.3896E-03  0.5607E+02
   -0.149992   30.56369  0.7347E-14  0.1169E-04  0.8234E-07  0.4927E-03  0.3451E-03  0.2754E+02
   -0.199990   30.56638  0.7347E-14  0.1259E-04  0.7322E-07  0.6620E-03  0.3085E-03  0.1775E+02
   -0.249989   30.56832  0.7347E-14  0.1332E-04  0.6725E-07  0.7896E-03  0.2812E-03  0.1319E+02
   -0.299988   30.56990  0.7347E-14  0.1391E-04  0.6301E-07  0.9184E-03  0.2585E-03  0.1052E+02
   -0.349988   30.57123  0.7347E-14  0.1440E-04  0.5984E-07  0.1034E-02  0.2390E-03  0.9033E+01
   -0.399987   30.57238  0.7347E-14  0.1481E-04  0.5738E-07  0.1141E-02  0.2218E-03  0.8046E+01
   -0.449987   30.57341  0.7347E-14  0.1516E-04  0.5539E-07  0.1239E-02  0.2066E-03  0.7576E+01
   -0.499988   30.57433  0.7347E-14  0.1547E-04  0.5375E-07  0.1329E-02  0.1932E-03  0.7352E+01
   -0.549988   30.57518  0.7347E-14  0.1574E-04  0.5238E-07  0.1412E-02  0.1812E-03  0.7280E+01
   -0.599989   30.57596  0.7347E-14  0.1597E-04  0.5124E-07  0.1486E-02  0.1703E-03  0.7265E+01
   -0.649990   30.57670  0.7347E-14  0.1617E-04  0.5029E-07  0.1553E-02  0.1603E-03  0.7389E+01
   -0.699991   30.57739  0.7347E-14  0.1634E-04  0.4949E-07  0.1611E-02  0.1512E-03  0.7537E+01
   -0.749992   30.57805  0.7347E-14  0.1649E-04  0.4883E-07  0.1662E-02  0.1427E-03  0.7828E+01
   -0.799994   30.57868  0.7347E-14  0.1660E-04  0.4830E-07  0.1705E-02  0.1348E-03  0.8138E+01
   -0.849995   30.57929  0.7347E-14  0.1670E-04  0.4789E-07  0.1739E-02  0.1274E-03  0.8611E+01
   -0.899997   30.57988  0.7347E-14  0.1677E-04  0.4759E-07  0.1766E-02  0.1205E-03  0.9114E+01
   -0.949999   30.58046  0.7347E-14  0.1681E-04  0.4740E-07  0.1783E-02  0.1140E-03  0.9829E+01
   -1.000000   30.58103  0.7347E-14  0.1684E-04  0.4733E-07  0.1792E-02  0.1078E-03  0.1060E+02
   -1.050002   30.58159  0.7347E-14  0.1684E-04  0.4737E-07  0.1790E-02  0.1019E-03  0.1211E+02
   -1.100004   30.58216  0.7347E-14  0.1681E-04  0.4754E-07  0.1889E-02  0.9630E-04  0.3954E+02
   -1.150005   30.58268  0.7347E-14  0.1677E-04  0.4787E-07  0.1687E-02  0.9132E-04  0.9336E+02
   -1.200007   30.58327  0.7347E-14  0.1669E-04  0.4835E-07  0.1721E-02  0.8606E-04  0.1780E+02
   -1.250008   30.58385  0.7347E-14  0.1659E-04  0.4904E-07  0.1689E-02  0.8106E-04  0.1898E+02
   -1.300010   30.58444  0.7347E-14  0.1646E-04  0.4997E-07  0.1635E-02  0.7624E-04  0.2250E+02
   -1.350011   30.58504  0.7347E-14  0.1629E-04  0.5123E-07  0.1572E-02  0.7155E-04  0.2708E+02
   -1.400012   30.58567  0.7347E-14  0.1607E-04  0.5292E-07  0.1489E-02  0.6697E-04  0.3407E+02
   -1.450012   30.58634  0.7347E-14  0.1581E-04  0.5521E-07  0.1409E-02  0.6246E-04  0.4397E+02
   -1.500013   30.58705  0.7347E-14  0.1549E-04  0.5841E-07  0.1293E-02  0.5802E-04  0.6164E+02
   -1.550013   30.58784  0.7347E-14  0.1510E-04  0.6300E-07  0.1210E-02  0.5353E-04  0.9323E+02
   -1.600013   30.58870  0.7347E-14  0.1460E-04  0.7021E-07  0.1063E-02  0.4911E-04  0.2032E+03
   -1.650013   30.58981  0.7347E-14  0.1394E-04  0.8140E-07  0.9790E-03  0.4425E-04  0.3949E+05
   -1.700013   30.59108  0.7347E-14  0.1303E-04  0.1010E-06  0.7974E-03  0.3942E-04  0.1985E+04
   -1.750012   30.59338  0.7347E-14  0.1190E-04  0.1328E-06  0.7197E-03  0.3303E-04  0.2225E+06
   -1.800010   30.59502  0.7347E-14  0.1043E-04  0.2000E-06  0.4977E-03  0.2840E-04  0.1847E+05
   -1.850009   30.60327  0.7347E-14  0.8868E-05  0.3298E-06  0.4656E-03  0.1988E-04  0.5720E+09
   -1.900006   30.60076  0.7347E-14  0.7096E-05  0.6872E-06  0.2179E-03  0.1635E-04 -0.2162E+06
   -1.950004   30.62411  0.7347E-14  0.5029E-05  0.1669E-05  0.2041E-03  0.8792E-05 -0.1772E+07
   -2.000001   30.62573  0.7347E-14  0.0000E+00  0.0000E+00  0.0000E+00  0.1677E-04  0.0000E+00
