 1 - depth, m
 2 - temperature, C
 3 - salinity, kg/kg
 4 - turbulent kinetic energy, m**2/s**2
 5 - dissipation rate, m**2/s**3
 6 - kinematic heat conductance, m**2/s
 7 - modulus of horizontal velocity, m/s
 8 - Richardson number, n/d
   -0.000000   30.03409  0.7751E-13  0.4377E-05  0.2590E-06  0.4781E-04  0.8852E-03  0.3266E+05
   -0.049997   30.06222  0.7751E-13  0.7656E-05  0.1150E-06  0.1730E-03  0.4997E-03  0.4549E+02
   -0.099994   30.07287  0.7751E-13  0.9284E-05  0.7947E-07  0.3959E-03  0.3634E-03  0.6255E+02
   -0.149992   30.07575  0.7751E-13  0.1030E-04  0.6708E-07  0.4728E-03  0.3211E-03  0.3030E+02
   -0.199991   30.07807  0.7751E-13  0.1108E-04  0.5975E-07  0.6293E-03  0.2867E-03  0.1970E+02
   -0.249989   30.07976  0.7751E-13  0.1171E-04  0.5493E-07  0.7514E-03  0.2608E-03  0.1458E+02
   -0.299989   30.08114  0.7751E-13  0.1223E-04  0.5148E-07  0.8721E-03  0.2393E-03  0.1165E+02
   -0.349988   30.08230  0.7751E-13  0.1265E-04  0.4889E-07  0.9817E-03  0.2208E-03  0.9962E+01
   -0.399988   30.08331  0.7751E-13  0.1301E-04  0.4688E-07  0.1082E-02  0.2044E-03  0.8903E+01
   -0.449988   30.08420  0.7751E-13  0.1333E-04  0.4524E-07  0.1175E-02  0.1900E-03  0.8343E+01
   -0.499988   30.08501  0.7751E-13  0.1360E-04  0.4388E-07  0.1261E-02  0.1773E-03  0.8139E+01
   -0.549989   30.08575  0.7751E-13  0.1383E-04  0.4275E-07  0.1340E-02  0.1659E-03  0.8010E+01
   -0.599990   30.08643  0.7751E-13  0.1404E-04  0.4180E-07  0.1411E-02  0.1556E-03  0.8039E+01
   -0.649991   30.08707  0.7751E-13  0.1422E-04  0.4100E-07  0.1476E-02  0.1462E-03  0.8115E+01
   -0.699992   30.08767  0.7751E-13  0.1437E-04  0.4033E-07  0.1533E-02  0.1376E-03  0.8327E+01
   -0.749993   30.08824  0.7751E-13  0.1450E-04  0.3977E-07  0.1583E-02  0.1296E-03  0.8573E+01
   -0.799995   30.08879  0.7751E-13  0.1461E-04  0.3931E-07  0.1625E-02  0.1222E-03  0.8963E+01
   -0.849996   30.08932  0.7751E-13  0.1469E-04  0.3895E-07  0.1661E-02  0.1153E-03  0.9392E+01
   -0.899998   30.08983  0.7751E-13  0.1476E-04  0.3867E-07  0.1688E-02  0.1088E-03  0.9991E+01
   -0.950000   30.09032  0.7751E-13  0.1481E-04  0.3848E-07  0.1708E-02  0.1027E-03  0.1065E+02
   -1.000001   30.09081  0.7751E-13  0.1484E-04  0.3838E-07  0.1720E-02  0.9696E-04  0.1154E+02
   -1.050003   30.09129  0.7751E-13  0.1485E-04  0.3836E-07  0.1724E-02  0.9150E-04  0.1303E+02
   -1.100005   30.09177  0.7751E-13  0.1484E-04  0.3845E-07  0.1797E-02  0.8630E-04  0.4388E+02
   -1.150007   30.09223  0.7751E-13  0.1481E-04  0.3865E-07  0.1661E-02  0.8163E-04  0.9585E+02
   -1.200008   30.09272  0.7751E-13  0.1476E-04  0.3895E-07  0.1676E-02  0.7687E-04  0.1865E+02
   -1.250010   30.09320  0.7751E-13  0.1469E-04  0.3941E-07  0.1648E-02  0.7228E-04  0.1994E+02
   -1.300011   30.09369  0.7751E-13  0.1459E-04  0.4003E-07  0.1604E-02  0.6787E-04  0.2315E+02
   -1.350012   30.09420  0.7751E-13  0.1447E-04  0.4087E-07  0.1549E-02  0.6360E-04  0.2765E+02
   -1.400013   30.09472  0.7751E-13  0.1431E-04  0.4200E-07  0.1479E-02  0.5946E-04  0.3375E+02
   -1.450014   30.09526  0.7751E-13  0.1412E-04  0.4350E-07  0.1405E-02  0.5539E-04  0.4268E+02
   -1.500015   30.09584  0.7751E-13  0.1388E-04  0.4556E-07  0.1302E-02  0.5142E-04  0.5673E+02
   -1.550015   30.09646  0.7751E-13  0.1359E-04  0.4842E-07  0.1216E-02  0.4745E-04  0.7916E+02
   -1.600015   30.09714  0.7751E-13  0.1323E-04  0.5265E-07  0.1080E-02  0.4355E-04  0.1337E+03
   -1.650015   30.09793  0.7751E-13  0.1277E-04  0.5910E-07  0.9977E-03  0.3948E-04  0.1266E+04
   -1.700014   30.09882  0.7751E-13  0.1215E-04  0.7054E-07  0.8233E-03  0.3550E-04  0.1029E+05
   -1.750013   30.10028  0.7751E-13  0.1129E-04  0.8967E-07  0.7404E-03  0.3048E-04  0.2471E+06
   -1.800012   30.10176  0.7751E-13  0.1009E-04  0.1290E-06  0.5242E-03  0.2615E-04  0.3045E+07
   -1.850011   30.10635  0.7751E-13  0.8675E-05  0.2015E-06  0.4757E-03  0.1936E-04  0.8058E+07
   -1.900008   30.10623  0.7751E-13  0.6948E-05  0.4167E-06  0.2148E-03  0.1568E-04 -0.2529E+10
   -1.950006   30.12249  0.7751E-13  0.4772E-05  0.1075E-05  0.1676E-03  0.8733E-05 -0.2860E+07
   -2.000003   30.12584  0.7751E-13  0.0000E+00  0.0000E+00  0.0000E+00  0.1472E-04  0.0000E+00
