 1 - depth, m
 2 - temperature, C
 3 - salinity, kg/kg
 4 - turbulent kinetic energy, m**2/s**2
 5 - dissipation rate, m**2/s**3
 6 - kinematic heat conductance, m**2/s
 7 - modulus of horizontal velocity, m/s
 8 - Richardson number, n/d
   -0.000000   30.31647  0.3882E-13  0.4707E-05  0.2873E-06  0.4907E-04  0.1357E-02  0.4798E+04
   -0.049997   30.34666  0.3882E-13  0.8111E-05  0.1281E-06  0.1789E-03  0.7676E-03  0.8816E+02
   -0.099994   30.35781  0.3882E-13  0.9826E-05  0.8858E-07  0.3957E-03  0.5647E-03  0.2719E+02
   -0.149992   30.36097  0.3882E-13  0.1091E-04  0.7442E-07  0.4790E-03  0.4986E-03  0.1335E+02
   -0.199991   30.36347  0.3882E-13  0.1175E-04  0.6612E-07  0.6384E-03  0.4453E-03  0.8579E+01
   -0.249989   30.36530  0.3882E-13  0.1242E-04  0.6068E-07  0.7629E-03  0.4053E-03  0.6322E+01
   -0.299988   30.36678  0.3882E-13  0.1296E-04  0.5680E-07  0.8870E-03  0.3720E-03  0.5038E+01
   -0.349988   30.36802  0.3882E-13  0.1342E-04  0.5389E-07  0.9993E-03  0.3435E-03  0.4297E+01
   -0.399988   30.36910  0.3882E-13  0.1380E-04  0.5163E-07  0.1102E-02  0.3183E-03  0.3837E+01
   -0.449988   30.37006  0.3882E-13  0.1413E-04  0.4979E-07  0.1198E-02  0.2961E-03  0.3589E+01
   -0.499988   30.37093  0.3882E-13  0.1441E-04  0.4827E-07  0.1286E-02  0.2765E-03  0.3500E+01
   -0.549989   30.37172  0.3882E-13  0.1466E-04  0.4700E-07  0.1366E-02  0.2590E-03  0.3439E+01
   -0.599990   30.37245  0.3882E-13  0.1487E-04  0.4593E-07  0.1439E-02  0.2431E-03  0.3450E+01
   -0.649991   30.37313  0.3882E-13  0.1506E-04  0.4503E-07  0.1504E-02  0.2286E-03  0.3477E+01
   -0.699992   30.37377  0.3882E-13  0.1521E-04  0.4427E-07  0.1563E-02  0.2153E-03  0.3568E+01
   -0.749993   30.37439  0.3882E-13  0.1534E-04  0.4363E-07  0.1613E-02  0.2030E-03  0.3667E+01
   -0.799995   30.37497  0.3882E-13  0.1545E-04  0.4311E-07  0.1656E-02  0.1915E-03  0.3834E+01
   -0.849996   30.37553  0.3882E-13  0.1553E-04  0.4269E-07  0.1691E-02  0.1809E-03  0.4010E+01
   -0.899998   30.37608  0.3882E-13  0.1560E-04  0.4236E-07  0.1719E-02  0.1708E-03  0.4268E+01
   -0.950000   30.37661  0.3882E-13  0.1564E-04  0.4214E-07  0.1738E-02  0.1614E-03  0.4544E+01
   -1.000001   30.37713  0.3882E-13  0.1566E-04  0.4200E-07  0.1749E-02  0.1525E-03  0.4923E+01
   -1.050003   30.37765  0.3882E-13  0.1566E-04  0.4197E-07  0.1751E-02  0.1440E-03  0.5553E+01
   -1.100005   30.37816  0.3882E-13  0.1564E-04  0.4205E-07  0.1834E-02  0.1359E-03  0.1857E+02
   -1.150006   30.37864  0.3882E-13  0.1560E-04  0.4226E-07  0.1674E-02  0.1287E-03  0.4141E+02
   -1.200008   30.37917  0.3882E-13  0.1554E-04  0.4259E-07  0.1696E-02  0.1212E-03  0.7984E+01
   -1.250009   30.37968  0.3882E-13  0.1545E-04  0.4308E-07  0.1667E-02  0.1141E-03  0.8530E+01
   -1.300011   30.38021  0.3882E-13  0.1533E-04  0.4377E-07  0.1619E-02  0.1072E-03  0.9931E+01
   -1.350012   30.38074  0.3882E-13  0.1518E-04  0.4471E-07  0.1561E-02  0.1005E-03  0.1189E+02
   -1.400013   30.38130  0.3882E-13  0.1500E-04  0.4598E-07  0.1486E-02  0.9402E-04  0.1459E+02
   -1.450014   30.38188  0.3882E-13  0.1478E-04  0.4771E-07  0.1409E-02  0.8764E-04  0.1857E+02
   -1.500014   30.38250  0.3882E-13  0.1450E-04  0.5009E-07  0.1300E-02  0.8139E-04  0.2499E+02
   -1.550015   30.38317  0.3882E-13  0.1417E-04  0.5344E-07  0.1215E-02  0.7510E-04  0.3544E+02
   -1.600015   30.38390  0.3882E-13  0.1375E-04  0.5854E-07  0.1074E-02  0.6895E-04  0.6614E+02
   -1.650015   30.38478  0.3882E-13  0.1322E-04  0.6639E-07  0.9913E-03  0.6237E-04  0.2369E+04
   -1.700014   30.38577  0.3882E-13  0.1249E-04  0.8039E-07  0.8126E-03  0.5595E-04 -0.9822E+02
   -1.750013   30.38750  0.3882E-13  0.1152E-04  0.1034E-06  0.7318E-03  0.4749E-04  0.1438E+06
   -1.800012   30.38896  0.3882E-13  0.1021E-04  0.1522E-06  0.5115E-03  0.4085E-04  0.2015E+05
   -1.850010   30.39476  0.3882E-13  0.8704E-05  0.2439E-06  0.4677E-03  0.2952E-04  0.3685E+08
   -1.900008   30.39395  0.3882E-13  0.6895E-05  0.5139E-06  0.2115E-03  0.2391E-04 -0.6913E+07
   -1.950005   30.41224  0.3882E-13  0.4789E-05  0.1283E-05  0.1833E-03  0.1297E-04 -0.6703E+06
   -2.000002   30.41478  0.3882E-13  0.0000E+00  0.0000E+00  0.0000E+00  0.2332E-04  0.0000E+00
