 1 - depth, m
 2 - temperature, C
 3 - salinity, kg/kg
 4 - turbulent kinetic energy, m**2/s**2
 5 - dissipation rate, m**2/s**3
 6 - kinematic heat conductance, m**2/s
 7 - modulus of horizontal velocity, m/s
 8 - Richardson number, n/d
   -0.000000   30.71255  0.6078E-13  0.5338E-05  0.3204E-06  0.5232E-04  0.2822E-02  0.1721E+04
   -0.049997   30.74423  0.6078E-13  0.8774E-05  0.1407E-06  0.1935E-03  0.1548E-02  0.4131E+03
   -0.099994   30.75481  0.6078E-13  0.1044E-04  0.9850E-07  0.3913E-03  0.1190E-02  0.7249E+01
   -0.149992   30.75829  0.6078E-13  0.1151E-04  0.8263E-07  0.4832E-03  0.1056E-02  0.3656E+01
   -0.199991   30.76099  0.6078E-13  0.1235E-04  0.7334E-07  0.6317E-03  0.9496E-03  0.2373E+01
   -0.249989   30.76298  0.6078E-13  0.1302E-04  0.6724E-07  0.7498E-03  0.8685E-03  0.1797E+01
   -0.299988   30.76462  0.6078E-13  0.1358E-04  0.6281E-07  0.8654E-03  0.7999E-03  0.1524E+01
   -0.349988   30.76599  0.6078E-13  0.1407E-04  0.5937E-07  0.9806E-03  0.7379E-03  0.1433E+01
   -0.399988   30.76717  0.6078E-13  0.1449E-04  0.5658E-07  0.1096E-02  0.6797E-03  0.1373E+01
   -0.449988   30.76820  0.6078E-13  0.1487E-04  0.5425E-07  0.1208E-02  0.6264E-03  0.1352E+01
   -0.499988   30.76912  0.6078E-13  0.1519E-04  0.5230E-07  0.1313E-02  0.5785E-03  0.1342E+01
   -0.549989   30.76995  0.6078E-13  0.1547E-04  0.5066E-07  0.1409E-02  0.5355E-03  0.1336E+01
   -0.599989   30.77070  0.6078E-13  0.1571E-04  0.4928E-07  0.1496E-02  0.4967E-03  0.1327E+01
   -0.649991   30.77140  0.6078E-13  0.1591E-04  0.4813E-07  0.1572E-02  0.4617E-03  0.1324E+01
   -0.699992   30.77205  0.6078E-13  0.1606E-04  0.4716E-07  0.1638E-02  0.4301E-03  0.1317E+01
   -0.749993   30.77267  0.6078E-13  0.1618E-04  0.4637E-07  0.1692E-02  0.4014E-03  0.1319E+01
   -0.799995   30.77326  0.6078E-13  0.1627E-04  0.4572E-07  0.1735E-02  0.3755E-03  0.1318E+01
   -0.849996   30.77383  0.6078E-13  0.1633E-04  0.4521E-07  0.1767E-02  0.3518E-03  0.1334E+01
   -0.899998   30.77437  0.6078E-13  0.1636E-04  0.4483E-07  0.1789E-02  0.3304E-03  0.1348E+01
   -0.949999   30.77491  0.6078E-13  0.1637E-04  0.4456E-07  0.1800E-02  0.3107E-03  0.1386E+01
   -1.000001   30.77543  0.6078E-13  0.1635E-04  0.4440E-07  0.1803E-02  0.2927E-03  0.1433E+01
   -1.050003   30.77595  0.6078E-13  0.1631E-04  0.4435E-07  0.1794E-02  0.2761E-03  0.1572E+01
   -1.100005   30.77646  0.6078E-13  0.1625E-04  0.4442E-07  0.1916E-02  0.2606E-03  0.4930E+01
   -1.150006   30.77693  0.6078E-13  0.1616E-04  0.4465E-07  0.1656E-02  0.2474E-03  0.1214E+02
   -1.200008   30.77748  0.6078E-13  0.1605E-04  0.4500E-07  0.1711E-02  0.2330E-03  0.2254E+01
   -1.250009   30.77800  0.6078E-13  0.1591E-04  0.4554E-07  0.1677E-02  0.2195E-03  0.2380E+01
   -1.300011   30.77853  0.6078E-13  0.1574E-04  0.4632E-07  0.1619E-02  0.2064E-03  0.2816E+01
   -1.350012   30.77907  0.6078E-13  0.1554E-04  0.4740E-07  0.1552E-02  0.1938E-03  0.3384E+01
   -1.400013   30.77963  0.6078E-13  0.1529E-04  0.4890E-07  0.1464E-02  0.1813E-03  0.4257E+01
   -1.450014   30.78022  0.6078E-13  0.1500E-04  0.5098E-07  0.1382E-02  0.1691E-03  0.5501E+01
   -1.500014   30.78085  0.6078E-13  0.1465E-04  0.5394E-07  0.1261E-02  0.1570E-03  0.7726E+01
   -1.550015   30.78155  0.6078E-13  0.1422E-04  0.5822E-07  0.1180E-02  0.1447E-03  0.1157E+02
   -1.600015   30.78231  0.6078E-13  0.1369E-04  0.6510E-07  0.1032E-02  0.1327E-03  0.3074E+02
   -1.650014   30.78329  0.6078E-13  0.1300E-04  0.7611E-07  0.9513E-03  0.1192E-03  0.1853E+03
   -1.700014   30.78445  0.6078E-13  0.1204E-04  0.9534E-07  0.7717E-03  0.1056E-03  0.8477E+05
   -1.750013   30.78653  0.6078E-13  0.1086E-04  0.1264E-06  0.6892E-03  0.8737E-04  0.6587E+05
   -1.800012   30.78792  0.6078E-13  0.9356E-05  0.1969E-06  0.4714E-03  0.7477E-04  0.1212E+06
   -1.850010   30.79584  0.6078E-13  0.7838E-05  0.3265E-06  0.4465E-03  0.5030E-04  0.2896E+07
   -1.900008   30.79251  0.6078E-13  0.6222E-05  0.6864E-06  0.2092E-03  0.4188E-04 -0.4670E+05
   -1.950005   30.81332  0.6078E-13  0.4424E-05  0.1656E-05  0.2115E-03  0.2162E-04 -0.1427E+06
   -2.000002   30.81381  0.6078E-13  0.0000E+00  0.0000E+00  0.0000E+00  0.4530E-04  0.0000E+00
