 1 - depth, m
 2 - temperature, C
 3 - salinity, kg/kg
 4 - turbulent kinetic energy, m**2/s**2
 5 - dissipation rate, m**2/s**3
 6 - kinematic heat conductance, m**2/s
 7 - modulus of horizontal velocity, m/s
 8 - Richardson number, n/d
   -0.000000   31.19020  0.5786E-14  0.5347E-05  0.3536E-06  0.5223E-04  0.9767E-03  0.7981E+04
   -0.049997   31.22517  0.5786E-14  0.9253E-05  0.1570E-06  0.1911E-03  0.5557E-03  0.1726E+04
   -0.099994   31.23788  0.5786E-14  0.1121E-04  0.1084E-06  0.4227E-03  0.4099E-03  0.7582E+02
   -0.149992   31.24145  0.5786E-14  0.1244E-04  0.9103E-07  0.5043E-03  0.3633E-03  0.3752E+02
   -0.199990   31.24432  0.5786E-14  0.1339E-04  0.8085E-07  0.6762E-03  0.3253E-03  0.2435E+02
   -0.249989   31.24639  0.5786E-14  0.1415E-04  0.7420E-07  0.8062E-03  0.2969E-03  0.1796E+02
   -0.299988   31.24808  0.5786E-14  0.1477E-04  0.6946E-07  0.9378E-03  0.2732E-03  0.1438E+02
   -0.349987   31.24949  0.5786E-14  0.1528E-04  0.6590E-07  0.1056E-02  0.2530E-03  0.1218E+02
   -0.399987   31.25072  0.5786E-14  0.1571E-04  0.6314E-07  0.1164E-02  0.2350E-03  0.1093E+02
   -0.449987   31.25180  0.5786E-14  0.1608E-04  0.6090E-07  0.1264E-02  0.2192E-03  0.1013E+02
   -0.499988   31.25279  0.5786E-14  0.1640E-04  0.5904E-07  0.1356E-02  0.2052E-03  0.9934E+01
   -0.549988   31.25368  0.5786E-14  0.1667E-04  0.5749E-07  0.1439E-02  0.1926E-03  0.9656E+01
   -0.599989   31.25452  0.5786E-14  0.1690E-04  0.5619E-07  0.1515E-02  0.1812E-03  0.9756E+01
   -0.649990   31.25529  0.5786E-14  0.1710E-04  0.5509E-07  0.1582E-02  0.1708E-03  0.9716E+01
   -0.699991   31.25603  0.5786E-14  0.1727E-04  0.5417E-07  0.1641E-02  0.1612E-03  0.1005E+02
   -0.749992   31.25672  0.5786E-14  0.1741E-04  0.5340E-07  0.1692E-02  0.1524E-03  0.1020E+02
   -0.799994   31.25739  0.5786E-14  0.1752E-04  0.5277E-07  0.1734E-02  0.1441E-03  0.1078E+02
   -0.849995   31.25803  0.5786E-14  0.1760E-04  0.5227E-07  0.1768E-02  0.1364E-03  0.1113E+02
   -0.899997   31.25866  0.5786E-14  0.1766E-04  0.5189E-07  0.1794E-02  0.1291E-03  0.1199E+02
   -0.949998   31.25927  0.5786E-14  0.1769E-04  0.5164E-07  0.1810E-02  0.1222E-03  0.1261E+02
   -1.000000   31.25986  0.5786E-14  0.1770E-04  0.5151E-07  0.1818E-02  0.1157E-03  0.1387E+02
   -1.050002   31.26045  0.5786E-14  0.1768E-04  0.5152E-07  0.1814E-02  0.1095E-03  0.1543E+02
   -1.100003   31.26104  0.5786E-14  0.1764E-04  0.5166E-07  0.1925E-02  0.1035E-03  0.5050E+02
   -1.150005   31.26159  0.5786E-14  0.1757E-04  0.5199E-07  0.1690E-02  0.9830E-04  0.1261E+03
   -1.200006   31.26221  0.5786E-14  0.1747E-04  0.5248E-07  0.1735E-02  0.9268E-04  0.2293E+02
   -1.250008   31.26282  0.5786E-14  0.1734E-04  0.5320E-07  0.1702E-02  0.8736E-04  0.2474E+02
   -1.300009   31.26343  0.5786E-14  0.1718E-04  0.5421E-07  0.1643E-02  0.8224E-04  0.2893E+02
   -1.350010   31.26406  0.5786E-14  0.1697E-04  0.5559E-07  0.1577E-02  0.7724E-04  0.3557E+02
   -1.400011   31.26472  0.5786E-14  0.1672E-04  0.5747E-07  0.1489E-02  0.7236E-04  0.4455E+02
   -1.450012   31.26542  0.5786E-14  0.1642E-04  0.6007E-07  0.1406E-02  0.6752E-04  0.5909E+02
   -1.500013   31.26617  0.5786E-14  0.1605E-04  0.6374E-07  0.1285E-02  0.6276E-04  0.8375E+02
   -1.550013   31.26700  0.5786E-14  0.1559E-04  0.6906E-07  0.1203E-02  0.5791E-04  0.1343E+03
   -1.600013   31.26791  0.5786E-14  0.1502E-04  0.7753E-07  0.1053E-02  0.5314E-04  0.2523E+04
   -1.650013   31.26912  0.5786E-14  0.1426E-04  0.9100E-07  0.9704E-03  0.4781E-04  0.2121E+04
   -1.700012   31.27055  0.5786E-14  0.1321E-04  0.1146E-06  0.7861E-03  0.4241E-04  0.1633E+05
   -1.750011   31.27310  0.5786E-14  0.1195E-04  0.1521E-06  0.7123E-03  0.3525E-04  0.7431E+06
   -1.800010   31.27472  0.5786E-14  0.1036E-04  0.2364E-06  0.4792E-03  0.3029E-04  0.1032E+08
   -1.850008   31.28459  0.5786E-14  0.8750E-05  0.3938E-06  0.4639E-03  0.2067E-04  0.8451E+08
   -1.900006   31.28042  0.5786E-14  0.6989E-05  0.8170E-06  0.2167E-03  0.1720E-04 -0.1614E+06
   -1.950003   31.30625  0.5786E-14  0.5012E-05  0.1958E-05  0.2208E-03  0.9020E-05 -0.1264E+07
   -2.000000   31.30572  0.5786E-14  0.0000E+00  0.0000E+00  0.0000E+00  0.1825E-04  0.0000E+00
