 1 - depth, m
 2 - temperature, C
 3 - salinity, kg/kg
 4 - turbulent kinetic energy, m**2/s**2
 5 - dissipation rate, m**2/s**3
 6 - kinematic heat conductance, m**2/s
 7 - modulus of horizontal velocity, m/s
 8 - Richardson number, n/d
   -0.000000   30.48097  0.1908E-14  0.5310E-05  0.3250E-06  0.5258E-04  0.2595E-02  0.3785E+04
   -0.049997   30.51270  0.1908E-14  0.8803E-05  0.1428E-06  0.1924E-03  0.1429E-02  0.1525E+03
   -0.099994   30.52367  0.1908E-14  0.1052E-04  0.9953E-07  0.3966E-03  0.1089E-02  0.8528E+01
   -0.149992   30.52714  0.1908E-14  0.1163E-04  0.8347E-07  0.4874E-03  0.9645E-03  0.4281E+01
   -0.199991   30.52984  0.1908E-14  0.1249E-04  0.7407E-07  0.6415E-03  0.8662E-03  0.2762E+01
   -0.249989   30.53184  0.1908E-14  0.1318E-04  0.6793E-07  0.7635E-03  0.7915E-03  0.2060E+01
   -0.299988   30.53347  0.1908E-14  0.1374E-04  0.6355E-07  0.8794E-03  0.7291E-03  0.1686E+01
   -0.349988   30.53485  0.1908E-14  0.1423E-04  0.6018E-07  0.9904E-03  0.6742E-03  0.1558E+01
   -0.399988   30.53604  0.1908E-14  0.1465E-04  0.5745E-07  0.1104E-02  0.6230E-03  0.1478E+01
   -0.449988   30.53709  0.1908E-14  0.1503E-04  0.5518E-07  0.1214E-02  0.5760E-03  0.1449E+01
   -0.499988   30.53802  0.1908E-14  0.1536E-04  0.5328E-07  0.1316E-02  0.5337E-03  0.1434E+01
   -0.549989   30.53886  0.1908E-14  0.1564E-04  0.5168E-07  0.1410E-02  0.4955E-03  0.1430E+01
   -0.599989   30.53963  0.1908E-14  0.1588E-04  0.5035E-07  0.1496E-02  0.4611E-03  0.1421E+01
   -0.649990   30.54035  0.1908E-14  0.1609E-04  0.4922E-07  0.1571E-02  0.4299E-03  0.1426E+01
   -0.699992   30.54102  0.1908E-14  0.1625E-04  0.4829E-07  0.1636E-02  0.4016E-03  0.1424E+01
   -0.749993   30.54166  0.1908E-14  0.1638E-04  0.4752E-07  0.1690E-02  0.3758E-03  0.1438E+01
   -0.799994   30.54226  0.1908E-14  0.1648E-04  0.4690E-07  0.1734E-02  0.3525E-03  0.1445E+01
   -0.849996   30.54285  0.1908E-14  0.1655E-04  0.4641E-07  0.1767E-02  0.3311E-03  0.1475E+01
   -0.899998   30.54341  0.1908E-14  0.1659E-04  0.4605E-07  0.1790E-02  0.3116E-03  0.1500E+01
   -0.949999   30.54396  0.1908E-14  0.1661E-04  0.4580E-07  0.1804E-02  0.2937E-03  0.1561E+01
   -1.000001   30.54450  0.1908E-14  0.1661E-04  0.4566E-07  0.1808E-02  0.2772E-03  0.1632E+01
   -1.050003   30.54504  0.1908E-14  0.1658E-04  0.4564E-07  0.1802E-02  0.2619E-03  0.1825E+01
   -1.100005   30.54557  0.1908E-14  0.1652E-04  0.4574E-07  0.1918E-02  0.2475E-03  0.5836E+01
   -1.150006   30.54606  0.1908E-14  0.1645E-04  0.4600E-07  0.1670E-02  0.2349E-03  0.1420E+02
   -1.200008   30.54662  0.1908E-14  0.1635E-04  0.4639E-07  0.1721E-02  0.2213E-03  0.2656E+01
   -1.250009   30.54717  0.1908E-14  0.1621E-04  0.4698E-07  0.1687E-02  0.2085E-03  0.2812E+01
   -1.300011   30.54771  0.1908E-14  0.1605E-04  0.4781E-07  0.1629E-02  0.1962E-03  0.3326E+01
   -1.350012   30.54828  0.1908E-14  0.1585E-04  0.4895E-07  0.1564E-02  0.1841E-03  0.3996E+01
   -1.400013   30.54886  0.1908E-14  0.1562E-04  0.5051E-07  0.1475E-02  0.1724E-03  0.5023E+01
   -1.450014   30.54948  0.1908E-14  0.1533E-04  0.5267E-07  0.1396E-02  0.1608E-03  0.6480E+01
   -1.500014   30.55014  0.1908E-14  0.1498E-04  0.5572E-07  0.1272E-02  0.1493E-03  0.9101E+01
   -1.550015   30.55087  0.1908E-14  0.1456E-04  0.6012E-07  0.1195E-02  0.1377E-03  0.1356E+02
   -1.600015   30.55166  0.1908E-14  0.1403E-04  0.6724E-07  0.1039E-02  0.1264E-03  0.3289E+02
   -1.650014   30.55272  0.1908E-14  0.1334E-04  0.7837E-07  0.9653E-03  0.1135E-03  0.3257E+03
   -1.700014   30.55386  0.1908E-14  0.1239E-04  0.9815E-07  0.7726E-03  0.1011E-03 -0.1676E+04
   -1.750013   30.55613  0.1908E-14  0.1120E-04  0.1303E-06  0.7041E-03  0.8354E-04  0.7956E+05
   -1.800012   30.55750  0.1908E-14  0.9703E-05  0.1996E-06  0.4758E-03  0.7194E-04  0.3597E+05
   -1.850010   30.56571  0.1908E-14  0.8133E-05  0.3320E-06  0.4503E-03  0.4884E-04  0.1480E+08
   -1.900008   30.56264  0.1908E-14  0.6416E-05  0.7007E-06  0.2081E-03  0.4034E-04  0.1389E+05
   -1.950005   30.58459  0.1908E-14  0.4564E-05  0.1685E-05  0.2126E-03  0.2079E-04 -0.5757E+05
   -2.000002   30.58489  0.1908E-14  0.0000E+00  0.0000E+00  0.0000E+00  0.4294E-04  0.0000E+00
