 1 - depth, m
 2 - temperature, C
 3 - salinity, kg/kg
 4 - turbulent kinetic energy, m**2/s**2
 5 - dissipation rate, m**2/s**3
 6 - kinematic heat conductance, m**2/s
 7 - modulus of horizontal velocity, m/s
 8 - Richardson number, n/d
   -0.000000   30.61549  0.5574E-14  0.4683E-05  0.2876E-06  0.4896E-04  0.6209E-03  0.3719E+05
   -0.049997   30.64577  0.5574E-14  0.8256E-05  0.1274E-06  0.1823E-03  0.3495E-03  0.4383E+03
   -0.099994   30.65677  0.5574E-14  0.1000E-04  0.8830E-07  0.4136E-03  0.2555E-03  0.1298E+03
   -0.149992   30.65979  0.5574E-14  0.1109E-04  0.7462E-07  0.4904E-03  0.2263E-03  0.6389E+02
   -0.199991   30.66224  0.5574E-14  0.1194E-04  0.6654E-07  0.6545E-03  0.2024E-03  0.4177E+02
   -0.249989   30.66402  0.5574E-14  0.1262E-04  0.6123E-07  0.7805E-03  0.1845E-03  0.3112E+02
   -0.299988   30.66547  0.5574E-14  0.1318E-04  0.5743E-07  0.9058E-03  0.1696E-03  0.2495E+02
   -0.349988   30.66670  0.5574E-14  0.1364E-04  0.5459E-07  0.1019E-02  0.1567E-03  0.2141E+02
   -0.399988   30.66777  0.5574E-14  0.1403E-04  0.5239E-07  0.1123E-02  0.1454E-03  0.1916E+02
   -0.449988   30.66872  0.5574E-14  0.1437E-04  0.5060E-07  0.1219E-02  0.1354E-03  0.1800E+02
   -0.499988   30.66957  0.5574E-14  0.1467E-04  0.4912E-07  0.1308E-02  0.1265E-03  0.1755E+02
   -0.549989   30.67036  0.5574E-14  0.1492E-04  0.4790E-07  0.1389E-02  0.1186E-03  0.1731E+02
   -0.599989   30.67109  0.5574E-14  0.1515E-04  0.4687E-07  0.1462E-02  0.1114E-03  0.1737E+02
   -0.649990   30.67177  0.5574E-14  0.1534E-04  0.4601E-07  0.1528E-02  0.1048E-03  0.1758E+02
   -0.699992   30.67241  0.5574E-14  0.1550E-04  0.4529E-07  0.1586E-02  0.9877E-04  0.1803E+02
   -0.749993   30.67302  0.5574E-14  0.1564E-04  0.4470E-07  0.1636E-02  0.9319E-04  0.1863E+02
   -0.799994   30.67361  0.5574E-14  0.1576E-04  0.4422E-07  0.1679E-02  0.8799E-04  0.1948E+02
   -0.849996   30.67417  0.5574E-14  0.1585E-04  0.4385E-07  0.1714E-02  0.8314E-04  0.2049E+02
   -0.899998   30.67472  0.5574E-14  0.1592E-04  0.4358E-07  0.1741E-02  0.7857E-04  0.2180E+02
   -0.949999   30.67526  0.5574E-14  0.1597E-04  0.4341E-07  0.1759E-02  0.7428E-04  0.2336E+02
   -1.000001   30.67579  0.5574E-14  0.1600E-04  0.4333E-07  0.1770E-02  0.7020E-04  0.2531E+02
   -1.050003   30.67631  0.5574E-14  0.1601E-04  0.4337E-07  0.1770E-02  0.6634E-04  0.2872E+02
   -1.100004   30.67683  0.5574E-14  0.1600E-04  0.4351E-07  0.1858E-02  0.6264E-04  0.9562E+02
   -1.150006   30.67732  0.5574E-14  0.1596E-04  0.4380E-07  0.1685E-02  0.5936E-04  0.2162E+03
   -1.200008   30.67786  0.5574E-14  0.1590E-04  0.4421E-07  0.1711E-02  0.5593E-04  0.4171E+02
   -1.250009   30.67840  0.5574E-14  0.1582E-04  0.4480E-07  0.1680E-02  0.5265E-04  0.4474E+02
   -1.300010   30.67894  0.5574E-14  0.1570E-04  0.4560E-07  0.1630E-02  0.4950E-04  0.5243E+02
   -1.350012   30.67949  0.5574E-14  0.1555E-04  0.4667E-07  0.1570E-02  0.4644E-04  0.6302E+02
   -1.400013   30.68007  0.5574E-14  0.1537E-04  0.4810E-07  0.1492E-02  0.4346E-04  0.7804E+02
   -1.450013   30.68068  0.5574E-14  0.1515E-04  0.5002E-07  0.1415E-02  0.4052E-04  0.9983E+02
   -1.500014   30.68132  0.5574E-14  0.1487E-04  0.5266E-07  0.1301E-02  0.3764E-04  0.1363E+03
   -1.550014   30.68204  0.5574E-14  0.1452E-04  0.5638E-07  0.1218E-02  0.3473E-04  0.1948E+03
   -1.600014   30.68280  0.5574E-14  0.1409E-04  0.6206E-07  0.1071E-02  0.3190E-04  0.4016E+03
   -1.650014   30.68376  0.5574E-14  0.1353E-04  0.7079E-07  0.9923E-03  0.2882E-04  0.1192E+05
   -1.700014   30.68481  0.5574E-14  0.1277E-04  0.8633E-07  0.8067E-03  0.2585E-04  0.3613E+06
   -1.750013   30.68674  0.5574E-14  0.1175E-04  0.1119E-06  0.7334E-03  0.2185E-04  0.2199E+06
   -1.800011   30.68828  0.5574E-14  0.1039E-04  0.1667E-06  0.5085E-03  0.1878E-04  0.8363E+06
   -1.850010   30.69479  0.5574E-14  0.8851E-05  0.2687E-06  0.4693E-03  0.1342E-04  0.4803E+08
   -1.900008   30.69355  0.5574E-14  0.7039E-05  0.5673E-06  0.2139E-03  0.1093E-04 -0.1767E+08
   -1.950005   30.71356  0.5574E-14  0.4925E-05  0.1413E-05  0.1891E-03  0.5895E-05 -0.7017E+07
   -2.000002   30.71651  0.5574E-14  0.0000E+00  0.0000E+00  0.0000E+00  0.1079E-04  0.0000E+00
