 1 - depth, m
 2 - temperature, C
 3 - salinity, kg/kg
 4 - turbulent kinetic energy, m**2/s**2
 5 - dissipation rate, m**2/s**3
 6 - kinematic heat conductance, m**2/s
 7 - modulus of horizontal velocity, m/s
 8 - Richardson number, n/d
   -0.000000   30.54654  0.3859E-13  0.5164E-05  0.3174E-06  0.5190E-04  0.2359E-02  0.1801E+04
   -0.049997   30.57763  0.3859E-13  0.8634E-05  0.1404E-06  0.1869E-03  0.1311E-02  0.4957E+02
   -0.099994   30.58872  0.3859E-13  0.1037E-04  0.9742E-07  0.3963E-03  0.9862E-03  0.8940E+01
   -0.149992   30.59211  0.3859E-13  0.1148E-04  0.8157E-07  0.4851E-03  0.8712E-03  0.4469E+01
   -0.199991   30.59476  0.3859E-13  0.1234E-04  0.7231E-07  0.6429E-03  0.7797E-03  0.2873E+01
   -0.249989   30.59670  0.3859E-13  0.1303E-04  0.6625E-07  0.7688E-03  0.7107E-03  0.2125E+01
   -0.299988   30.59828  0.3859E-13  0.1360E-04  0.6194E-07  0.8915E-03  0.6532E-03  0.1696E+01
   -0.349988   30.59960  0.3859E-13  0.1407E-04  0.5869E-07  0.1002E-02  0.6038E-03  0.1479E+01
   -0.399988   30.60075  0.3859E-13  0.1447E-04  0.5614E-07  0.1107E-02  0.5596E-03  0.1362E+01
   -0.449988   30.60177  0.3859E-13  0.1482E-04  0.5403E-07  0.1208E-02  0.5198E-03  0.1318E+01
   -0.499988   30.60269  0.3859E-13  0.1513E-04  0.5227E-07  0.1304E-02  0.4840E-03  0.1302E+01
   -0.549989   30.60352  0.3859E-13  0.1540E-04  0.5079E-07  0.1392E-02  0.4517E-03  0.1295E+01
   -0.599989   30.60429  0.3859E-13  0.1563E-04  0.4954E-07  0.1472E-02  0.4225E-03  0.1291E+01
   -0.649990   30.60500  0.3859E-13  0.1582E-04  0.4849E-07  0.1543E-02  0.3959E-03  0.1297E+01
   -0.699992   30.60567  0.3859E-13  0.1599E-04  0.4761E-07  0.1605E-02  0.3717E-03  0.1304E+01
   -0.749993   30.60630  0.3859E-13  0.1612E-04  0.4688E-07  0.1658E-02  0.3495E-03  0.1322E+01
   -0.799994   30.60691  0.3859E-13  0.1623E-04  0.4628E-07  0.1702E-02  0.3292E-03  0.1347E+01
   -0.849996   30.60749  0.3859E-13  0.1631E-04  0.4581E-07  0.1737E-02  0.3105E-03  0.1390E+01
   -0.899998   30.60806  0.3859E-13  0.1636E-04  0.4544E-07  0.1763E-02  0.2931E-03  0.1447E+01
   -0.949999   30.60861  0.3859E-13  0.1640E-04  0.4519E-07  0.1780E-02  0.2769E-03  0.1534E+01
   -1.000001   30.60915  0.3859E-13  0.1641E-04  0.4504E-07  0.1790E-02  0.2618E-03  0.1644E+01
   -1.050003   30.60968  0.3859E-13  0.1640E-04  0.4500E-07  0.1789E-02  0.2474E-03  0.1860E+01
   -1.100004   30.61021  0.3859E-13  0.1636E-04  0.4508E-07  0.1884E-02  0.2337E-03  0.6115E+01
   -1.150006   30.61070  0.3859E-13  0.1631E-04  0.4530E-07  0.1691E-02  0.2216E-03  0.1414E+02
   -1.200008   30.61125  0.3859E-13  0.1623E-04  0.4566E-07  0.1724E-02  0.2088E-03  0.2696E+01
   -1.250009   30.61179  0.3859E-13  0.1612E-04  0.4619E-07  0.1693E-02  0.1967E-03  0.2867E+01
   -1.300010   30.61233  0.3859E-13  0.1598E-04  0.4695E-07  0.1641E-02  0.1850E-03  0.3364E+01
   -1.350012   30.61289  0.3859E-13  0.1581E-04  0.4799E-07  0.1580E-02  0.1736E-03  0.4029E+01
   -1.400013   30.61347  0.3859E-13  0.1561E-04  0.4940E-07  0.1500E-02  0.1625E-03  0.5002E+01
   -1.450013   30.61407  0.3859E-13  0.1535E-04  0.5133E-07  0.1421E-02  0.1516E-03  0.6394E+01
   -1.500014   30.61472  0.3859E-13  0.1505E-04  0.5402E-07  0.1306E-02  0.1409E-03  0.8783E+01
   -1.550014   30.61543  0.3859E-13  0.1468E-04  0.5784E-07  0.1222E-02  0.1301E-03  0.1266E+02
   -1.600014   30.61619  0.3859E-13  0.1421E-04  0.6383E-07  0.1076E-02  0.1195E-03  0.3010E+02
   -1.650014   30.61715  0.3859E-13  0.1361E-04  0.7310E-07  0.9943E-03  0.1079E-03  0.7446E+03
   -1.700014   30.61821  0.3859E-13  0.1279E-04  0.8951E-07  0.8133E-03  0.9669E-04 -0.3529E+03
   -1.750013   30.62015  0.3859E-13  0.1171E-04  0.1167E-06  0.7321E-03  0.8163E-04  0.7745E+04
   -1.800011   30.62169  0.3859E-13  0.1029E-04  0.1755E-06  0.5131E-03  0.7001E-04  0.1313E+04
   -1.850010   30.62836  0.3859E-13  0.8746E-05  0.2835E-06  0.4673E-03  0.4986E-04  0.2195E+09
   -1.900008   30.62663  0.3859E-13  0.6921E-05  0.5962E-06  0.2136E-03  0.4072E-04  0.4200E+05
   -1.950005   30.64670  0.3859E-13  0.4877E-05  0.1465E-05  0.1960E-03  0.2184E-04 -0.1381E+06
   -2.000002   30.64822  0.3859E-13  0.0000E+00  0.0000E+00  0.0000E+00  0.4100E-04  0.0000E+00
