 1 - depth, m
 2 - temperature, C
 3 - salinity, kg/kg
 4 - turbulent kinetic energy, m**2/s**2
 5 - dissipation rate, m**2/s**3
 6 - kinematic heat conductance, m**2/s
 7 - modulus of horizontal velocity, m/s
 8 - Richardson number, n/d
   -0.000000   30.61478  0.6258E-14  0.4900E-05  0.3113E-06  0.5087E-04  0.9681E-03  0.7504E+04
   -0.049997   30.64615  0.6258E-14  0.8500E-05  0.1381E-06  0.1804E-03  0.5507E-03  0.1668E+04
   -0.099994   30.65832  0.6258E-14  0.1032E-04  0.9496E-07  0.4117E-03  0.4018E-03  0.5771E+02
   -0.149992   30.66158  0.6258E-14  0.1146E-04  0.7988E-07  0.4891E-03  0.3555E-03  0.2828E+02
   -0.199991   30.66421  0.6258E-14  0.1234E-04  0.7100E-07  0.6551E-03  0.3176E-03  0.1824E+02
   -0.249989   30.66611  0.6258E-14  0.1304E-04  0.6518E-07  0.7817E-03  0.2893E-03  0.1355E+02
   -0.299988   30.66766  0.6258E-14  0.1361E-04  0.6102E-07  0.9090E-03  0.2658E-03  0.1080E+02
   -0.349988   30.66897  0.6258E-14  0.1408E-04  0.5790E-07  0.1024E-02  0.2456E-03  0.9267E+01
   -0.399988   30.67009  0.6258E-14  0.1448E-04  0.5547E-07  0.1129E-02  0.2278E-03  0.8250E+01
   -0.449988   30.67109  0.6258E-14  0.1483E-04  0.5349E-07  0.1227E-02  0.2120E-03  0.7765E+01
   -0.499988   30.67200  0.6258E-14  0.1512E-04  0.5185E-07  0.1316E-02  0.1981E-03  0.7535E+01
   -0.549989   30.67282  0.6258E-14  0.1538E-04  0.5047E-07  0.1398E-02  0.1857E-03  0.7453E+01
   -0.599989   30.67359  0.6258E-14  0.1560E-04  0.4931E-07  0.1473E-02  0.1744E-03  0.7434E+01
   -0.649990   30.67430  0.6258E-14  0.1579E-04  0.4833E-07  0.1539E-02  0.1641E-03  0.7546E+01
   -0.699992   30.67497  0.6258E-14  0.1595E-04  0.4750E-07  0.1599E-02  0.1547E-03  0.7692E+01
   -0.749993   30.67561  0.6258E-14  0.1608E-04  0.4680E-07  0.1650E-02  0.1459E-03  0.7967E+01
   -0.799994   30.67622  0.6258E-14  0.1619E-04  0.4622E-07  0.1694E-02  0.1378E-03  0.8272E+01
   -0.849996   30.67681  0.6258E-14  0.1627E-04  0.4575E-07  0.1730E-02  0.1302E-03  0.8722E+01
   -0.899998   30.67737  0.6258E-14  0.1633E-04  0.4539E-07  0.1757E-02  0.1230E-03  0.9216E+01
   -0.949999   30.67793  0.6258E-14  0.1637E-04  0.4512E-07  0.1777E-02  0.1163E-03  0.9892E+01
   -1.000001   30.67847  0.6258E-14  0.1639E-04  0.4496E-07  0.1788E-02  0.1099E-03  0.1064E+02
   -1.050003   30.67900  0.6258E-14  0.1638E-04  0.4491E-07  0.1790E-02  0.1039E-03  0.1209E+02
   -1.100004   30.67953  0.6258E-14  0.1636E-04  0.4497E-07  0.1878E-02  0.9813E-04  0.3992E+02
   -1.150006   30.68003  0.6258E-14  0.1631E-04  0.4517E-07  0.1706E-02  0.9299E-04  0.9064E+02
   -1.200008   30.68058  0.6258E-14  0.1623E-04  0.4549E-07  0.1732E-02  0.8765E-04  0.1746E+02
   -1.250009   30.68111  0.6258E-14  0.1613E-04  0.4600E-07  0.1702E-02  0.8255E-04  0.1857E+02
   -1.300010   30.68165  0.6258E-14  0.1601E-04  0.4672E-07  0.1653E-02  0.7763E-04  0.2179E+02
   -1.350012   30.68221  0.6258E-14  0.1584E-04  0.4770E-07  0.1594E-02  0.7286E-04  0.2604E+02
   -1.400013   30.68278  0.6258E-14  0.1565E-04  0.4903E-07  0.1516E-02  0.6821E-04  0.3231E+02
   -1.450014   30.68338  0.6258E-14  0.1541E-04  0.5086E-07  0.1439E-02  0.6365E-04  0.4113E+02
   -1.500014   30.68402  0.6258E-14  0.1512E-04  0.5339E-07  0.1325E-02  0.5917E-04  0.5641E+02
   -1.550014   30.68471  0.6258E-14  0.1476E-04  0.5696E-07  0.1243E-02  0.5467E-04  0.8040E+02
   -1.600015   30.68546  0.6258E-14  0.1432E-04  0.6248E-07  0.1093E-02  0.5027E-04  0.1773E+03
   -1.650014   30.68638  0.6258E-14  0.1375E-04  0.7093E-07  0.1016E-02  0.4551E-04  0.6356E+03
   -1.700014   30.68738  0.6258E-14  0.1298E-04  0.8601E-07  0.8264E-03  0.4096E-04 -0.8565E+04
   -1.750013   30.68924  0.6258E-14  0.1196E-04  0.1111E-06  0.7542E-03  0.3482E-04  0.8516E+05
   -1.800012   30.69072  0.6258E-14  0.1059E-04  0.1656E-06  0.5248E-03  0.3004E-04  0.9067E+04
   -1.850010   30.69691  0.6258E-14  0.9049E-05  0.2644E-06  0.4823E-03  0.2183E-04  0.2688E+08
   -1.900008   30.69562  0.6258E-14  0.7185E-05  0.5442E-06  0.2198E-03  0.1784E-04 -0.2494E+06
   -1.950005   30.71461  0.6258E-14  0.5001E-05  0.1368E-05  0.1878E-03  0.9741E-05 -0.2441E+07
   -2.000002   30.71664  0.6258E-14  0.0000E+00  0.0000E+00  0.0000E+00  0.1731E-04  0.0000E+00
