 1 - depth, m
 2 - temperature, C
 3 - salinity, kg/kg
 4 - turbulent kinetic energy, m**2/s**2
 5 - dissipation rate, m**2/s**3
 6 - kinematic heat conductance, m**2/s
 7 - modulus of horizontal velocity, m/s
 8 - Richardson number, n/d
   -0.000000   30.41514  0.1450E-13  0.4719E-05  0.2894E-06  0.5006E-04  0.1676E-02  0.6839E+04
   -0.049997   30.44408  0.1450E-13  0.8057E-05  0.1289E-06  0.1747E-03  0.9587E-03  0.4035E+04
   -0.099994   30.45539  0.1450E-13  0.9782E-05  0.8847E-07  0.3957E-03  0.7000E-03  0.1826E+02
   -0.149992   30.45849  0.1450E-13  0.1086E-04  0.7423E-07  0.4760E-03  0.6182E-03  0.8917E+01
   -0.199991   30.46096  0.1450E-13  0.1171E-04  0.6591E-07  0.6364E-03  0.5518E-03  0.5724E+01
   -0.249989   30.46276  0.1450E-13  0.1238E-04  0.6048E-07  0.7609E-03  0.5021E-03  0.4211E+01
   -0.299988   30.46423  0.1450E-13  0.1293E-04  0.5661E-07  0.8853E-03  0.4608E-03  0.3357E+01
   -0.349988   30.46546  0.1450E-13  0.1338E-04  0.5372E-07  0.9980E-03  0.4255E-03  0.2860E+01
   -0.399988   30.46653  0.1450E-13  0.1377E-04  0.5148E-07  0.1101E-02  0.3942E-03  0.2557E+01
   -0.449988   30.46748  0.1450E-13  0.1410E-04  0.4967E-07  0.1197E-02  0.3667E-03  0.2389E+01
   -0.499988   30.46833  0.1450E-13  0.1439E-04  0.4817E-07  0.1285E-02  0.3424E-03  0.2333E+01
   -0.549989   30.46912  0.1450E-13  0.1465E-04  0.4693E-07  0.1366E-02  0.3206E-03  0.2292E+01
   -0.599990   30.46984  0.1450E-13  0.1487E-04  0.4588E-07  0.1439E-02  0.3009E-03  0.2302E+01
   -0.649991   30.47052  0.1450E-13  0.1505E-04  0.4501E-07  0.1505E-02  0.2830E-03  0.2320E+01
   -0.699992   30.47116  0.1450E-13  0.1522E-04  0.4427E-07  0.1563E-02  0.2665E-03  0.2384E+01
   -0.749993   30.47177  0.1450E-13  0.1535E-04  0.4366E-07  0.1614E-02  0.2513E-03  0.2449E+01
   -0.799995   30.47235  0.1450E-13  0.1547E-04  0.4316E-07  0.1657E-02  0.2372E-03  0.2566E+01
   -0.849996   30.47291  0.1450E-13  0.1556E-04  0.4277E-07  0.1693E-02  0.2239E-03  0.2683E+01
   -0.899998   30.47345  0.1450E-13  0.1563E-04  0.4248E-07  0.1720E-02  0.2115E-03  0.2862E+01
   -0.949999   30.47399  0.1450E-13  0.1567E-04  0.4228E-07  0.1740E-02  0.1999E-03  0.3046E+01
   -1.000001   30.47451  0.1450E-13  0.1570E-04  0.4218E-07  0.1751E-02  0.1888E-03  0.3308E+01
   -1.050003   30.47502  0.1450E-13  0.1571E-04  0.4218E-07  0.1753E-02  0.1783E-03  0.3730E+01
   -1.100005   30.47553  0.1450E-13  0.1570E-04  0.4229E-07  0.1836E-02  0.1683E-03  0.1251E+02
   -1.150006   30.47602  0.1450E-13  0.1566E-04  0.4253E-07  0.1676E-02  0.1594E-03  0.2787E+02
   -1.200008   30.47655  0.1450E-13  0.1560E-04  0.4290E-07  0.1698E-02  0.1501E-03  0.5374E+01
   -1.250009   30.47707  0.1450E-13  0.1552E-04  0.4343E-07  0.1668E-02  0.1413E-03  0.5766E+01
   -1.300011   30.47760  0.1450E-13  0.1540E-04  0.4417E-07  0.1620E-02  0.1328E-03  0.6706E+01
   -1.350012   30.47814  0.1450E-13  0.1526E-04  0.4515E-07  0.1562E-02  0.1245E-03  0.8058E+01
   -1.400013   30.47870  0.1450E-13  0.1508E-04  0.4648E-07  0.1486E-02  0.1165E-03  0.9888E+01
   -1.450014   30.47930  0.1450E-13  0.1487E-04  0.4826E-07  0.1411E-02  0.1086E-03  0.1263E+02
   -1.500014   30.47992  0.1450E-13  0.1460E-04  0.5072E-07  0.1300E-02  0.1009E-03  0.1703E+02
   -1.550015   30.48061  0.1450E-13  0.1427E-04  0.5416E-07  0.1219E-02  0.9306E-04  0.2419E+02
   -1.600015   30.48135  0.1450E-13  0.1385E-04  0.5946E-07  0.1072E-02  0.8548E-04  0.4878E+02
   -1.650014   30.48227  0.1450E-13  0.1332E-04  0.6757E-07  0.9956E-03  0.7724E-04  0.1664E+03
   -1.700014   30.48326  0.1450E-13  0.1259E-04  0.8195E-07  0.8127E-03  0.6937E-04 -0.5417E+03
   -1.750013   30.48507  0.1450E-13  0.1161E-04  0.1058E-06  0.7354E-03  0.5888E-04  0.6600E+05
   -1.800012   30.48657  0.1450E-13  0.1029E-04  0.1548E-06  0.5197E-03  0.5064E-04  0.4428E+05
   -1.850010   30.49249  0.1450E-13  0.8782E-05  0.2482E-06  0.4703E-03  0.3661E-04  0.5090E+07
   -1.900008   30.49160  0.1450E-13  0.6967E-05  0.5130E-06  0.2145E-03  0.2970E-04 -0.1338E+09
   -1.950005   30.51071  0.1450E-13  0.4859E-05  0.1293E-05  0.1833E-03  0.1611E-04 -0.7303E+06
   -2.000002   30.51326  0.1450E-13  0.0000E+00  0.0000E+00  0.0000E+00  0.2883E-04  0.0000E+00
