 1 - depth, m
 2 - temperature, C
 3 - salinity, kg/kg
 4 - turbulent kinetic energy, m**2/s**2
 5 - dissipation rate, m**2/s**3
 6 - kinematic heat conductance, m**2/s
 7 - modulus of horizontal velocity, m/s
 8 - Richardson number, n/d
   -0.000000   30.20601  0.3944E-13  0.4729E-05  0.2904E-06  0.5030E-04  0.1808E-02  0.5329E+04
   -0.049997   30.23505  0.3944E-13  0.8039E-05  0.1294E-06  0.1728E-03  0.1037E-02  0.5237E+03
   -0.099994   30.24656  0.3944E-13  0.9762E-05  0.8859E-07  0.3941E-03  0.7559E-03  0.1429E+02
   -0.149992   30.24970  0.3944E-13  0.1084E-04  0.7428E-07  0.4731E-03  0.6674E-03  0.6959E+01
   -0.199991   30.25221  0.3944E-13  0.1167E-04  0.6591E-07  0.6329E-03  0.5955E-03  0.4461E+01
   -0.249989   30.25404  0.3944E-13  0.1234E-04  0.6044E-07  0.7570E-03  0.5417E-03  0.3288E+01
   -0.299988   30.25552  0.3944E-13  0.1288E-04  0.5654E-07  0.8806E-03  0.4970E-03  0.2615E+01
   -0.349988   30.25676  0.3944E-13  0.1334E-04  0.5363E-07  0.9928E-03  0.4587E-03  0.2236E+01
   -0.399988   30.25784  0.3944E-13  0.1372E-04  0.5136E-07  0.1095E-02  0.4249E-03  0.1993E+01
   -0.449988   30.25880  0.3944E-13  0.1405E-04  0.4952E-07  0.1191E-02  0.3952E-03  0.1871E+01
   -0.499988   30.25967  0.3944E-13  0.1433E-04  0.4801E-07  0.1278E-02  0.3689E-03  0.1820E+01
   -0.549989   30.26045  0.3944E-13  0.1458E-04  0.4674E-07  0.1359E-02  0.3453E-03  0.1796E+01
   -0.599990   30.26118  0.3944E-13  0.1479E-04  0.4567E-07  0.1432E-02  0.3240E-03  0.1798E+01
   -0.649991   30.26187  0.3944E-13  0.1498E-04  0.4478E-07  0.1497E-02  0.3047E-03  0.1821E+01
   -0.699992   30.26251  0.3944E-13  0.1513E-04  0.4402E-07  0.1555E-02  0.2868E-03  0.1864E+01
   -0.749993   30.26312  0.3944E-13  0.1526E-04  0.4339E-07  0.1606E-02  0.2704E-03  0.1926E+01
   -0.799995   30.26371  0.3944E-13  0.1537E-04  0.4287E-07  0.1648E-02  0.2551E-03  0.2009E+01
   -0.849996   30.26427  0.3944E-13  0.1546E-04  0.4246E-07  0.1684E-02  0.2408E-03  0.2114E+01
   -0.899998   30.26482  0.3944E-13  0.1552E-04  0.4214E-07  0.1711E-02  0.2274E-03  0.2244E+01
   -0.950000   30.26535  0.3944E-13  0.1556E-04  0.4192E-07  0.1730E-02  0.2148E-03  0.2403E+01
   -1.000001   30.26587  0.3944E-13  0.1559E-04  0.4179E-07  0.1741E-02  0.2029E-03  0.2597E+01
   -1.050003   30.26638  0.3944E-13  0.1559E-04  0.4177E-07  0.1743E-02  0.1916E-03  0.2946E+01
   -1.100005   30.26690  0.3944E-13  0.1557E-04  0.4185E-07  0.1826E-02  0.1808E-03  0.9811E+01
   -1.150006   30.26738  0.3944E-13  0.1553E-04  0.4206E-07  0.1665E-02  0.1712E-03  0.2197E+02
   -1.200008   30.26791  0.3944E-13  0.1546E-04  0.4240E-07  0.1688E-02  0.1612E-03  0.4251E+01
   -1.250009   30.26843  0.3944E-13  0.1538E-04  0.4290E-07  0.1658E-02  0.1517E-03  0.4539E+01
   -1.300011   30.26895  0.3944E-13  0.1526E-04  0.4359E-07  0.1610E-02  0.1425E-03  0.5306E+01
   -1.350012   30.26949  0.3944E-13  0.1511E-04  0.4454E-07  0.1552E-02  0.1336E-03  0.6349E+01
   -1.400013   30.27005  0.3944E-13  0.1493E-04  0.4581E-07  0.1477E-02  0.1249E-03  0.7822E+01
   -1.450014   30.27064  0.3944E-13  0.1471E-04  0.4753E-07  0.1401E-02  0.1164E-03  0.9949E+01
   -1.500014   30.27126  0.3944E-13  0.1444E-04  0.4991E-07  0.1290E-02  0.1081E-03  0.1343E+02
   -1.550015   30.27193  0.3944E-13  0.1410E-04  0.5324E-07  0.1207E-02  0.9975E-04  0.1897E+02
   -1.600015   30.27267  0.3944E-13  0.1369E-04  0.5830E-07  0.1060E-02  0.9157E-04  0.3435E+02
   -1.650015   30.27355  0.3944E-13  0.1316E-04  0.6605E-07  0.9857E-03  0.8282E-04  0.1622E+03
   -1.700014   30.27453  0.3944E-13  0.1244E-04  0.8000E-07  0.8008E-03  0.7440E-04 -0.1009E+03
   -1.750013   30.27626  0.3944E-13  0.1145E-04  0.1030E-06  0.7256E-03  0.6317E-04  0.3800E+05
   -1.800012   30.27776  0.3944E-13  0.1010E-04  0.1514E-06  0.5066E-03  0.5427E-04  0.3499E+06
   -1.850010   30.28359  0.3944E-13  0.8555E-05  0.2424E-06  0.4620E-03  0.3889E-04  0.4444E+07
   -1.900008   30.28286  0.3944E-13  0.6750E-05  0.5057E-06  0.2063E-03  0.3141E-04  0.1681E+06
   -1.950006   30.30165  0.3944E-13  0.4718E-05  0.1275E-05  0.1848E-03  0.1682E-04 -0.3160E+06
   -2.000002   30.30350  0.3944E-13  0.0000E+00  0.0000E+00  0.0000E+00  0.3069E-04  0.0000E+00
