 1 - depth, m
 2 - temperature, C
 3 - salinity, kg/kg
 4 - turbulent kinetic energy, m**2/s**2
 5 - dissipation rate, m**2/s**3
 6 - kinematic heat conductance, m**2/s
 7 - modulus of horizontal velocity, m/s
 8 - Richardson number, n/d
   -0.000000   31.02507  0.1764E-14  0.5414E-05  0.3490E-06  0.5360E-04  0.2002E-02  0.2301E+04
   -0.049997   31.05791  0.1764E-14  0.9134E-05  0.1543E-06  0.1908E-03  0.1121E-02  0.3243E+04
   -0.099994   31.06998  0.1764E-14  0.1101E-04  0.1067E-06  0.4113E-03  0.8423E-03  0.2342E+02
   -0.149992   31.07353  0.1764E-14  0.1221E-04  0.8939E-07  0.4979E-03  0.7460E-03  0.1150E+02
   -0.199990   31.07633  0.1764E-14  0.1314E-04  0.7929E-07  0.6636E-03  0.6686E-03  0.7436E+01
   -0.249989   31.07837  0.1764E-14  0.1388E-04  0.7271E-07  0.7923E-03  0.6105E-03  0.5443E+01
   -0.299988   31.08003  0.1764E-14  0.1449E-04  0.6803E-07  0.9194E-03  0.5620E-03  0.4375E+01
   -0.349988   31.08143  0.1764E-14  0.1500E-04  0.6452E-07  0.1034E-02  0.5203E-03  0.3712E+01
   -0.399987   31.08265  0.1764E-14  0.1543E-04  0.6177E-07  0.1143E-02  0.4828E-03  0.3382E+01
   -0.449987   31.08372  0.1764E-14  0.1581E-04  0.5952E-07  0.1247E-02  0.4490E-03  0.3144E+01
   -0.499988   31.08469  0.1764E-14  0.1614E-04  0.5765E-07  0.1344E-02  0.4187E-03  0.3118E+01
   -0.549988   31.08557  0.1764E-14  0.1643E-04  0.5609E-07  0.1433E-02  0.3915E-03  0.3018E+01
   -0.599989   31.08639  0.1764E-14  0.1667E-04  0.5478E-07  0.1513E-02  0.3667E-03  0.3070E+01
   -0.649990   31.08715  0.1764E-14  0.1688E-04  0.5369E-07  0.1584E-02  0.3443E-03  0.3029E+01
   -0.699991   31.08786  0.1764E-14  0.1706E-04  0.5278E-07  0.1646E-02  0.3237E-03  0.3144E+01
   -0.749993   31.08854  0.1764E-14  0.1720E-04  0.5203E-07  0.1699E-02  0.3049E-03  0.3151E+01
   -0.799994   31.08919  0.1764E-14  0.1732E-04  0.5143E-07  0.1742E-02  0.2875E-03  0.3334E+01
   -0.849995   31.08982  0.1764E-14  0.1740E-04  0.5095E-07  0.1776E-02  0.2716E-03  0.3397E+01
   -0.899997   31.09042  0.1764E-14  0.1746E-04  0.5061E-07  0.1801E-02  0.2567E-03  0.3670E+01
   -0.949999   31.09102  0.1764E-14  0.1750E-04  0.5038E-07  0.1816E-02  0.2429E-03  0.3817E+01
   -1.000000   31.09160  0.1764E-14  0.1750E-04  0.5027E-07  0.1823E-02  0.2299E-03  0.4226E+01
   -1.050002   31.09218  0.1764E-14  0.1749E-04  0.5029E-07  0.1818E-02  0.2176E-03  0.4662E+01
   -1.100004   31.09275  0.1764E-14  0.1745E-04  0.5045E-07  0.1931E-02  0.2058E-03  0.1534E+02
   -1.150005   31.09329  0.1764E-14  0.1738E-04  0.5079E-07  0.1692E-02  0.1954E-03  0.3891E+02
   -1.200007   31.09390  0.1764E-14  0.1729E-04  0.5128E-07  0.1738E-02  0.1843E-03  0.6932E+01
   -1.250008   31.09449  0.1764E-14  0.1716E-04  0.5199E-07  0.1705E-02  0.1737E-03  0.7603E+01
   -1.300010   31.09509  0.1764E-14  0.1700E-04  0.5298E-07  0.1646E-02  0.1635E-03  0.8791E+01
   -1.350011   31.09571  0.1764E-14  0.1680E-04  0.5433E-07  0.1580E-02  0.1536E-03  0.1103E+02
   -1.400012   31.09636  0.1764E-14  0.1656E-04  0.5616E-07  0.1491E-02  0.1439E-03  0.1378E+02
   -1.450013   31.09704  0.1764E-14  0.1626E-04  0.5868E-07  0.1409E-02  0.1343E-03  0.1860E+02
   -1.500013   31.09778  0.1764E-14  0.1590E-04  0.6223E-07  0.1285E-02  0.1249E-03  0.2671E+02
   -1.550013   31.09859  0.1764E-14  0.1545E-04  0.6734E-07  0.1205E-02  0.1152E-03  0.4196E+02
   -1.600014   31.09948  0.1764E-14  0.1489E-04  0.7551E-07  0.1052E-02  0.1058E-03  0.1370E+04
   -1.650013   31.10067  0.1764E-14  0.1415E-04  0.8836E-07  0.9733E-03  0.9519E-04  0.9421E+01
   -1.700013   31.10202  0.1764E-14  0.1314E-04  0.1108E-06  0.7848E-03  0.8464E-04  0.1420E+03
   -1.750012   31.10454  0.1764E-14  0.1189E-04  0.1470E-06  0.7128E-03  0.7037E-04  0.9884E+05
   -1.800010   31.10608  0.1764E-14  0.1033E-04  0.2287E-06  0.4806E-03  0.6065E-04  0.3887E+05
   -1.850009   31.11579  0.1764E-14  0.8711E-05  0.3811E-06  0.4599E-03  0.4148E-04  0.2069E+09
   -1.900007   31.11184  0.1764E-14  0.6937E-05  0.8073E-06  0.2114E-03  0.3437E-04 -0.5568E+06
   -1.950004   31.13722  0.1764E-14  0.4974E-05  0.1915E-05  0.2203E-03  0.1809E-04 -0.1050E+07
   -2.000001   31.13661  0.1764E-14  0.0000E+00  0.0000E+00  0.0000E+00  0.3609E-04  0.0000E+00
