 1 - depth, m
 2 - temperature, C
 3 - salinity, kg/kg
 4 - turbulent kinetic energy, m**2/s**2
 5 - dissipation rate, m**2/s**3
 6 - kinematic heat conductance, m**2/s
 7 - modulus of horizontal velocity, m/s
 8 - Richardson number, n/d
   -0.000000   30.71946  0.2097E-13  0.4854E-05  0.2972E-06  0.4800E-04  0.3736E-03  0.1031E+06
   -0.049997   30.75250  0.2097E-13  0.8646E-05  0.1322E-06  0.1949E-03  0.2069E-03  0.2019E+07
   -0.099994   30.76273  0.2097E-13  0.1040E-04  0.9280E-07  0.4205E-03  0.1531E-03  0.4239E+03
   -0.149992   30.76588  0.2097E-13  0.1153E-04  0.7855E-07  0.5031E-03  0.1357E-03  0.2133E+03
   -0.199991   30.76838  0.2097E-13  0.1241E-04  0.7012E-07  0.6690E-03  0.1216E-03  0.1408E+03
   -0.249989   30.77022  0.2097E-13  0.1311E-04  0.6457E-07  0.7976E-03  0.1110E-03  0.1046E+03
   -0.299988   30.77172  0.2097E-13  0.1368E-04  0.6060E-07  0.9247E-03  0.1021E-03  0.8423E+02
   -0.349988   30.77298  0.2097E-13  0.1416E-04  0.5763E-07  0.1040E-02  0.9446E-04  0.7181E+02
   -0.399988   30.77408  0.2097E-13  0.1457E-04  0.5531E-07  0.1145E-02  0.8769E-04  0.6447E+02
   -0.449988   30.77506  0.2097E-13  0.1492E-04  0.5344E-07  0.1243E-02  0.8174E-04  0.6008E+02
   -0.499988   30.77595  0.2097E-13  0.1522E-04  0.5190E-07  0.1333E-02  0.7645E-04  0.5886E+02
   -0.549989   30.77676  0.2097E-13  0.1549E-04  0.5061E-07  0.1415E-02  0.7171E-04  0.5755E+02
   -0.599989   30.77751  0.2097E-13  0.1572E-04  0.4954E-07  0.1489E-02  0.6741E-04  0.5803E+02
   -0.649990   30.77822  0.2097E-13  0.1592E-04  0.4865E-07  0.1555E-02  0.6349E-04  0.5818E+02
   -0.699992   30.77888  0.2097E-13  0.1609E-04  0.4790E-07  0.1614E-02  0.5988E-04  0.6001E+02
   -0.749993   30.77952  0.2097E-13  0.1623E-04  0.4729E-07  0.1665E-02  0.5654E-04  0.6138E+02
   -0.799994   30.78012  0.2097E-13  0.1635E-04  0.4680E-07  0.1707E-02  0.5342E-04  0.6455E+02
   -0.849996   30.78071  0.2097E-13  0.1645E-04  0.4642E-07  0.1742E-02  0.5052E-04  0.6722E+02
   -0.899998   30.78128  0.2097E-13  0.1652E-04  0.4615E-07  0.1769E-02  0.4778E-04  0.7197E+02
   -0.949999   30.78184  0.2097E-13  0.1658E-04  0.4599E-07  0.1787E-02  0.4520E-04  0.7635E+02
   -1.000001   30.78239  0.2097E-13  0.1661E-04  0.4593E-07  0.1797E-02  0.4275E-04  0.8326E+02
   -1.050003   30.78293  0.2097E-13  0.1661E-04  0.4599E-07  0.1796E-02  0.4043E-04  0.9353E+02
   -1.100004   30.78347  0.2097E-13  0.1660E-04  0.4617E-07  0.1890E-02  0.3820E-04  0.3105E+03
   -1.150006   30.78398  0.2097E-13  0.1656E-04  0.4650E-07  0.1701E-02  0.3623E-04  0.7213E+03
   -1.200007   30.78455  0.2097E-13  0.1650E-04  0.4697E-07  0.1731E-02  0.3415E-04  0.1363E+03
   -1.250009   30.78511  0.2097E-13  0.1641E-04  0.4763E-07  0.1699E-02  0.3217E-04  0.1467E+03
   -1.300010   30.78568  0.2097E-13  0.1629E-04  0.4853E-07  0.1647E-02  0.3027E-04  0.1710E+03
   -1.350011   30.78626  0.2097E-13  0.1613E-04  0.4972E-07  0.1586E-02  0.2841E-04  0.2073E+03
   -1.400012   30.78687  0.2097E-13  0.1594E-04  0.5132E-07  0.1505E-02  0.2661E-04  0.2564E+03
   -1.450013   30.78751  0.2097E-13  0.1570E-04  0.5346E-07  0.1425E-02  0.2483E-04  0.3323E+03
   -1.500014   30.78819  0.2097E-13  0.1540E-04  0.5642E-07  0.1311E-02  0.2308E-04  0.4562E+03
   -1.550014   30.78895  0.2097E-13  0.1504E-04  0.6059E-07  0.1225E-02  0.2131E-04  0.6748E+03
   -1.600014   30.78977  0.2097E-13  0.1457E-04  0.6701E-07  0.1082E-02  0.1958E-04  0.1562E+04
   -1.650014   30.79079  0.2097E-13  0.1397E-04  0.7697E-07  0.9954E-03  0.1770E-04  0.3886E+05
   -1.700013   30.79197  0.2097E-13  0.1314E-04  0.9439E-07  0.8174E-03  0.1583E-04 -0.1665E+06
   -1.750013   30.79402  0.2097E-13  0.1206E-04  0.1228E-06  0.7337E-03  0.1341E-04  0.2609E+07
   -1.800011   30.79573  0.2097E-13  0.1063E-04  0.1843E-06  0.5181E-03  0.1150E-04  0.1155E+08
   -1.850010   30.80281  0.2097E-13  0.9094E-05  0.2980E-06  0.4750E-03  0.8288E-05  0.3085E+09
   -1.900007   30.80127  0.2097E-13  0.7222E-05  0.6336E-06  0.2125E-03  0.6747E-05 -0.1843E+07
   -1.950005   30.82308  0.2097E-13  0.5099E-05  0.1547E-05  0.1977E-03  0.3661E-05 -0.7946E+07
   -2.000002   30.82531  0.2097E-13  0.0000E+00  0.0000E+00  0.0000E+00  0.6686E-05  0.0000E+00
