 1 - depth, m
 2 - temperature, C
 3 - salinity, kg/kg
 4 - turbulent kinetic energy, m**2/s**2
 5 - dissipation rate, m**2/s**3
 6 - kinematic heat conductance, m**2/s
 7 - modulus of horizontal velocity, m/s
 8 - Richardson number, n/d
   -0.000000   30.49083  0.5874E-13  0.4496E-05  0.2676E-06  0.4854E-04  0.1600E-02  0.4311E+04
   -0.049997   30.51832  0.5874E-13  0.7706E-05  0.1191E-06  0.1727E-03  0.9085E-03  0.3049E+03
   -0.099994   30.52882  0.5874E-13  0.9349E-05  0.8198E-07  0.3896E-03  0.6629E-03  0.1906E+02
   -0.149992   30.53172  0.5874E-13  0.1038E-04  0.6889E-07  0.4704E-03  0.5849E-03  0.9280E+01
   -0.199991   30.53403  0.5874E-13  0.1118E-04  0.6123E-07  0.6271E-03  0.5218E-03  0.5967E+01
   -0.249989   30.53572  0.5874E-13  0.1183E-04  0.5622E-07  0.7499E-03  0.4746E-03  0.4393E+01
   -0.299988   30.53709  0.5874E-13  0.1236E-04  0.5267E-07  0.8720E-03  0.4353E-03  0.3504E+01
   -0.349988   30.53824  0.5874E-13  0.1280E-04  0.5002E-07  0.9827E-03  0.4016E-03  0.2990E+01
   -0.399988   30.53925  0.5874E-13  0.1317E-04  0.4797E-07  0.1084E-02  0.3719E-03  0.2673E+01
   -0.449988   30.54014  0.5874E-13  0.1350E-04  0.4631E-07  0.1179E-02  0.3457E-03  0.2500E+01
   -0.499988   30.54094  0.5874E-13  0.1378E-04  0.4495E-07  0.1266E-02  0.3225E-03  0.2441E+01
   -0.549989   30.54168  0.5874E-13  0.1403E-04  0.4382E-07  0.1345E-02  0.3019E-03  0.2400E+01
   -0.599990   30.54236  0.5874E-13  0.1425E-04  0.4288E-07  0.1417E-02  0.2831E-03  0.2413E+01
   -0.649991   30.54300  0.5874E-13  0.1444E-04  0.4211E-07  0.1482E-02  0.2661E-03  0.2436E+01
   -0.699992   30.54360  0.5874E-13  0.1460E-04  0.4146E-07  0.1540E-02  0.2504E-03  0.2505E+01
   -0.749993   30.54418  0.5874E-13  0.1474E-04  0.4093E-07  0.1590E-02  0.2360E-03  0.2581E+01
   -0.799995   30.54473  0.5874E-13  0.1486E-04  0.4051E-07  0.1633E-02  0.2226E-03  0.2706E+01
   -0.849996   30.54526  0.5874E-13  0.1496E-04  0.4019E-07  0.1669E-02  0.2100E-03  0.2838E+01
   -0.899998   30.54578  0.5874E-13  0.1504E-04  0.3997E-07  0.1696E-02  0.1983E-03  0.3030E+01
   -0.949999   30.54628  0.5874E-13  0.1510E-04  0.3983E-07  0.1716E-02  0.1872E-03  0.3236E+01
   -1.000001   30.54678  0.5874E-13  0.1514E-04  0.3979E-07  0.1728E-02  0.1768E-03  0.3519E+01
   -1.050003   30.54727  0.5874E-13  0.1516E-04  0.3985E-07  0.1730E-02  0.1668E-03  0.3985E+01
   -1.100005   30.54776  0.5874E-13  0.1517E-04  0.4001E-07  0.1806E-02  0.1574E-03  0.1341E+02
   -1.150006   30.54823  0.5874E-13  0.1515E-04  0.4029E-07  0.1663E-02  0.1489E-03  0.2977E+02
   -1.200008   30.54874  0.5874E-13  0.1511E-04  0.4070E-07  0.1679E-02  0.1402E-03  0.5775E+01
   -1.250009   30.54924  0.5874E-13  0.1504E-04  0.4126E-07  0.1650E-02  0.1319E-03  0.6211E+01
   -1.300011   30.54975  0.5874E-13  0.1495E-04  0.4201E-07  0.1603E-02  0.1239E-03  0.7251E+01
   -1.350012   30.55028  0.5874E-13  0.1483E-04  0.4300E-07  0.1547E-02  0.1161E-03  0.8718E+01
   -1.400013   30.55083  0.5874E-13  0.1468E-04  0.4430E-07  0.1475E-02  0.1085E-03  0.1073E+02
   -1.450014   30.55141  0.5874E-13  0.1449E-04  0.4603E-07  0.1400E-02  0.1011E-03  0.1370E+02
   -1.500014   30.55202  0.5874E-13  0.1425E-04  0.4838E-07  0.1294E-02  0.9386E-04  0.1846E+02
   -1.550015   30.55269  0.5874E-13  0.1395E-04  0.5164E-07  0.1210E-02  0.8658E-04  0.2617E+02
   -1.600015   30.55342  0.5874E-13  0.1358E-04  0.5652E-07  0.1070E-02  0.7946E-04  0.4683E+02
   -1.650014   30.55430  0.5874E-13  0.1309E-04  0.6394E-07  0.9901E-03  0.7189E-04  0.9672E+03
   -1.700014   30.55529  0.5874E-13  0.1242E-04  0.7710E-07  0.8115E-03  0.6457E-04 -0.3507E+04
   -1.750013   30.55698  0.5874E-13  0.1151E-04  0.9894E-07  0.7321E-03  0.5504E-04  0.7620E+05
   -1.800012   30.55857  0.5874E-13  0.1027E-04  0.1446E-06  0.5207E-03  0.4724E-04  0.2070E+05
   -1.850010   30.56400  0.5874E-13  0.8819E-05  0.2291E-06  0.4680E-03  0.3465E-04  0.9983E+07
   -1.900008   30.56355  0.5874E-13  0.7064E-05  0.4774E-06  0.2174E-03  0.2802E-04  0.1598E+07
   -1.950005   30.58157  0.5874E-13  0.4901E-05  0.1214E-05  0.1744E-03  0.1560E-04 -0.9700E+06
   -2.000002   30.58578  0.5874E-13  0.0000E+00  0.0000E+00  0.0000E+00  0.2682E-04  0.0000E+00
