 1 - depth, m
 2 - temperature, C
 3 - salinity, kg/kg
 4 - turbulent kinetic energy, m**2/s**2
 5 - dissipation rate, m**2/s**3
 6 - kinematic heat conductance, m**2/s
 7 - modulus of horizontal velocity, m/s
 8 - Richardson number, n/d
   -0.000000   30.29987  0.2803E-14  0.4810E-05  0.2990E-06  0.5083E-04  0.1800E-02  0.6301E+04
   -0.049997   30.32931  0.2803E-14  0.8177E-05  0.1332E-06  0.1740E-03  0.1034E-02  0.3501E+04
   -0.099994   30.34107  0.2803E-14  0.9936E-05  0.9114E-07  0.3974E-03  0.7537E-03  0.1443E+02
   -0.149992   30.34426  0.2803E-14  0.1103E-04  0.7640E-07  0.4765E-03  0.6657E-03  0.7045E+01
   -0.199991   30.34681  0.2803E-14  0.1189E-04  0.6778E-07  0.6383E-03  0.5941E-03  0.4512E+01
   -0.249989   30.34866  0.2803E-14  0.1257E-04  0.6216E-07  0.7633E-03  0.5407E-03  0.3326E+01
   -0.299988   30.35017  0.2804E-14  0.1313E-04  0.5816E-07  0.8884E-03  0.4963E-03  0.2646E+01
   -0.349988   30.35144  0.2804E-14  0.1359E-04  0.5517E-07  0.1002E-02  0.4582E-03  0.2263E+01
   -0.399988   30.35254  0.2804E-14  0.1398E-04  0.5285E-07  0.1105E-02  0.4246E-03  0.2018E+01
   -0.449988   30.35351  0.2804E-14  0.1432E-04  0.5097E-07  0.1202E-02  0.3950E-03  0.1894E+01
   -0.499988   30.35439  0.2804E-14  0.1461E-04  0.4942E-07  0.1290E-02  0.3689E-03  0.1843E+01
   -0.549989   30.35519  0.2804E-14  0.1486E-04  0.4812E-07  0.1371E-02  0.3454E-03  0.1819E+01
   -0.599990   30.35594  0.2804E-14  0.1508E-04  0.4704E-07  0.1444E-02  0.3243E-03  0.1822E+01
   -0.649991   30.35663  0.2804E-14  0.1527E-04  0.4612E-07  0.1510E-02  0.3050E-03  0.1845E+01
   -0.699992   30.35729  0.2804E-14  0.1543E-04  0.4535E-07  0.1569E-02  0.2873E-03  0.1889E+01
   -0.749993   30.35791  0.2804E-14  0.1556E-04  0.4471E-07  0.1619E-02  0.2709E-03  0.1952E+01
   -0.799995   30.35851  0.2804E-14  0.1567E-04  0.4419E-07  0.1662E-02  0.2556E-03  0.2037E+01
   -0.849996   30.35909  0.2804E-14  0.1576E-04  0.4377E-07  0.1698E-02  0.2414E-03  0.2143E+01
   -0.899998   30.35964  0.2804E-14  0.1583E-04  0.4345E-07  0.1725E-02  0.2281E-03  0.2276E+01
   -0.949999   30.36019  0.2804E-14  0.1587E-04  0.4323E-07  0.1744E-02  0.2155E-03  0.2439E+01
   -1.000001   30.36072  0.2804E-14  0.1589E-04  0.4311E-07  0.1755E-02  0.2036E-03  0.2637E+01
   -1.050003   30.36125  0.2804E-14  0.1590E-04  0.4310E-07  0.1756E-02  0.1923E-03  0.2993E+01
   -1.100005   30.36177  0.2804E-14  0.1588E-04  0.4319E-07  0.1842E-02  0.1815E-03  0.9933E+01
   -1.150006   30.36226  0.2804E-14  0.1583E-04  0.4343E-07  0.1673E-02  0.1719E-03  0.2251E+02
   -1.200008   30.36281  0.2804E-14  0.1577E-04  0.4378E-07  0.1698E-02  0.1620E-03  0.4338E+01
   -1.250009   30.36334  0.2804E-14  0.1567E-04  0.4432E-07  0.1668E-02  0.1524E-03  0.4634E+01
   -1.300011   30.36387  0.2804E-14  0.1555E-04  0.4505E-07  0.1619E-02  0.1433E-03  0.5432E+01
   -1.350012   30.36443  0.2804E-14  0.1540E-04  0.4606E-07  0.1560E-02  0.1344E-03  0.6514E+01
   -1.400013   30.36500  0.2804E-14  0.1521E-04  0.4740E-07  0.1482E-02  0.1257E-03  0.8061E+01
   -1.450014   30.36560  0.2804E-14  0.1498E-04  0.4923E-07  0.1406E-02  0.1172E-03  0.1030E+02
   -1.500014   30.36624  0.2804E-14  0.1470E-04  0.5175E-07  0.1293E-02  0.1088E-03  0.1403E+02
   -1.550015   30.36694  0.2804E-14  0.1435E-04  0.5531E-07  0.1210E-02  0.1004E-03  0.2000E+02
   -1.600015   30.36770  0.2804E-14  0.1392E-04  0.6077E-07  0.1064E-02  0.9222E-04  0.3867E+02
   -1.650014   30.36863  0.2804E-14  0.1336E-04  0.6915E-07  0.9877E-03  0.8337E-04  0.1226E+04
   -1.700014   30.36965  0.2804E-14  0.1260E-04  0.8427E-07  0.8029E-03  0.7484E-04  0.3800E+05
   -1.750013   30.37152  0.2804E-14  0.1157E-04  0.1093E-06  0.7273E-03  0.6330E-04  0.1958E+05
   -1.800012   30.37308  0.2804E-14  0.1018E-04  0.1635E-06  0.5038E-03  0.5434E-04  0.5780E+05
   -1.850010   30.37939  0.2804E-14  0.8647E-05  0.2625E-06  0.4644E-03  0.3883E-04  0.6220E+07
   -1.900008   30.37813  0.2804E-14  0.6844E-05  0.5480E-06  0.2112E-03  0.3161E-04  0.5849E+06
   -1.950005   30.39794  0.2804E-14  0.4794E-05  0.1374E-05  0.1889E-03  0.1693E-04 -0.8776E+06
   -2.000002   30.39955  0.2804E-14  0.0000E+00  0.0000E+00  0.0000E+00  0.3114E-04  0.0000E+00
