 1 - depth, m
 2 - temperature, C
 3 - salinity, kg/kg
 4 - turbulent kinetic energy, m**2/s**2
 5 - dissipation rate, m**2/s**3
 6 - kinematic heat conductance, m**2/s
 7 - modulus of horizontal velocity, m/s
 8 - Richardson number, n/d
   -0.000000   30.60933  0.1314E-13  0.4720E-05  0.2941E-06  0.4985E-04  0.8666E-03  0.1465E+04
   -0.049997   30.63932  0.1314E-13  0.8234E-05  0.1303E-06  0.1790E-03  0.4916E-03  0.5324E+02
   -0.099994   30.65090  0.1314E-13  0.1000E-04  0.8980E-07  0.4085E-03  0.3578E-03  0.6080E+02
   -0.149992   30.65399  0.1314E-13  0.1110E-04  0.7566E-07  0.4860E-03  0.3167E-03  0.2976E+02
   -0.199991   30.65649  0.1314E-13  0.1196E-04  0.6735E-07  0.6500E-03  0.2830E-03  0.1923E+02
   -0.249989   30.65830  0.1314E-13  0.1265E-04  0.6189E-07  0.7756E-03  0.2578E-03  0.1427E+02
   -0.299988   30.65978  0.1314E-13  0.1321E-04  0.5801E-07  0.9014E-03  0.2368E-03  0.1139E+02
   -0.349988   30.66103  0.1314E-13  0.1367E-04  0.5510E-07  0.1015E-02  0.2188E-03  0.9766E+01
   -0.399988   30.66211  0.1314E-13  0.1406E-04  0.5284E-07  0.1119E-02  0.2029E-03  0.8714E+01
   -0.449988   30.66307  0.1314E-13  0.1440E-04  0.5101E-07  0.1215E-02  0.1889E-03  0.8191E+01
   -0.499988   30.66393  0.1314E-13  0.1470E-04  0.4950E-07  0.1304E-02  0.1765E-03  0.7968E+01
   -0.549989   30.66473  0.1314E-13  0.1496E-04  0.4824E-07  0.1385E-02  0.1653E-03  0.7871E+01
   -0.599989   30.66546  0.1314E-13  0.1518E-04  0.4719E-07  0.1459E-02  0.1553E-03  0.7875E+01
   -0.649990   30.66615  0.1314E-13  0.1537E-04  0.4630E-07  0.1525E-02  0.1461E-03  0.7985E+01
   -0.699992   30.66680  0.1314E-13  0.1553E-04  0.4556E-07  0.1583E-02  0.1376E-03  0.8167E+01
   -0.749993   30.66741  0.1314E-13  0.1567E-04  0.4495E-07  0.1634E-02  0.1298E-03  0.8451E+01
   -0.799994   30.66801  0.1314E-13  0.1579E-04  0.4445E-07  0.1677E-02  0.1226E-03  0.8806E+01
   -0.849996   30.66858  0.1314E-13  0.1588E-04  0.4406E-07  0.1712E-02  0.1158E-03  0.9280E+01
   -0.899998   30.66913  0.1314E-13  0.1595E-04  0.4377E-07  0.1739E-02  0.1094E-03  0.9842E+01
   -0.949999   30.66967  0.1314E-13  0.1600E-04  0.4358E-07  0.1758E-02  0.1034E-03  0.1056E+02
   -1.000001   30.67020  0.1314E-13  0.1603E-04  0.4348E-07  0.1769E-02  0.9774E-04  0.1141E+02
   -1.050003   30.67072  0.1314E-13  0.1603E-04  0.4350E-07  0.1770E-02  0.9234E-04  0.1296E+02
   -1.100005   30.67125  0.1314E-13  0.1602E-04  0.4363E-07  0.1857E-02  0.8719E-04  0.4297E+02
   -1.150006   30.67174  0.1314E-13  0.1598E-04  0.4389E-07  0.1686E-02  0.8260E-04  0.9749E+02
   -1.200008   30.67228  0.1314E-13  0.1592E-04  0.4429E-07  0.1711E-02  0.7783E-04  0.1880E+02
   -1.250009   30.67281  0.1314E-13  0.1583E-04  0.4486E-07  0.1681E-02  0.7327E-04  0.2007E+02
   -1.300011   30.67335  0.1314E-13  0.1571E-04  0.4564E-07  0.1631E-02  0.6887E-04  0.2358E+02
   -1.350012   30.67391  0.1314E-13  0.1556E-04  0.4669E-07  0.1572E-02  0.6461E-04  0.2824E+02
   -1.400013   30.67448  0.1314E-13  0.1538E-04  0.4810E-07  0.1495E-02  0.6045E-04  0.3504E+02
   -1.450014   30.67509  0.1314E-13  0.1515E-04  0.5000E-07  0.1417E-02  0.5637E-04  0.4470E+02
   -1.500014   30.67573  0.1314E-13  0.1487E-04  0.5261E-07  0.1307E-02  0.5236E-04  0.6107E+02
   -1.550015   30.67644  0.1314E-13  0.1453E-04  0.5630E-07  0.1220E-02  0.4833E-04  0.8769E+02
   -1.600015   30.67720  0.1314E-13  0.1410E-04  0.6194E-07  0.1081E-02  0.4438E-04  0.1695E+03
   -1.650014   30.67814  0.1314E-13  0.1354E-04  0.7068E-07  0.9930E-03  0.4014E-04  0.3361E+04
   -1.700014   30.67921  0.1314E-13  0.1277E-04  0.8603E-07  0.8168E-03  0.3594E-04  0.3327E+05
   -1.750013   30.68107  0.1314E-13  0.1176E-04  0.1113E-06  0.7332E-03  0.3051E-04  0.1414E+06
   -1.800012   30.68267  0.1314E-13  0.1040E-04  0.1664E-06  0.5162E-03  0.2614E-04  0.4338E+05
   -1.850010   30.68889  0.1314E-13  0.8907E-05  0.2671E-06  0.4721E-03  0.1891E-04  0.1630E+08
   -1.900008   30.68777  0.1314E-13  0.7091E-05  0.5598E-06  0.2167E-03  0.1537E-04 -0.3707E+04
   -1.950005   30.70720  0.1314E-13  0.4954E-05  0.1389E-05  0.1881E-03  0.8397E-05 -0.1679E+07
   -2.000002   30.71014  0.1314E-13  0.0000E+00  0.0000E+00  0.0000E+00  0.1511E-04  0.0000E+00
