 1 - depth, m
 2 - temperature, C
 3 - salinity, kg/kg
 4 - turbulent kinetic energy, m**2/s**2
 5 - dissipation rate, m**2/s**3
 6 - kinematic heat conductance, m**2/s
 7 - modulus of horizontal velocity, m/s
 8 - Richardson number, n/d
   -0.000000   30.11221  0.7583E-13  0.4475E-05  0.2639E-06  0.4710E-04  0.1135E-02  0.3553E+04
   -0.049997   30.14143  0.7583E-13  0.7777E-05  0.1176E-06  0.1790E-03  0.6311E-03  0.5512E+02
   -0.099994   30.15174  0.7583E-13  0.9404E-05  0.8190E-07  0.3900E-03  0.4663E-03  0.3556E+02
   -0.149992   30.15473  0.7583E-13  0.1043E-04  0.6895E-07  0.4752E-03  0.4112E-03  0.1747E+02
   -0.199991   30.15708  0.7583E-13  0.1124E-04  0.6134E-07  0.6307E-03  0.3671E-03  0.1127E+02
   -0.249989   30.15880  0.7583E-13  0.1188E-04  0.5634E-07  0.7537E-03  0.3339E-03  0.8342E+01
   -0.299989   30.16020  0.7583E-13  0.1240E-04  0.5277E-07  0.8755E-03  0.3063E-03  0.6647E+01
   -0.349988   30.16138  0.7583E-13  0.1284E-04  0.5010E-07  0.9860E-03  0.2826E-03  0.5697E+01
   -0.399988   30.16240  0.7583E-13  0.1320E-04  0.4802E-07  0.1087E-02  0.2617E-03  0.5077E+01
   -0.449988   30.16331  0.7583E-13  0.1352E-04  0.4633E-07  0.1182E-02  0.2433E-03  0.4773E+01
   -0.499988   30.16412  0.7583E-13  0.1380E-04  0.4493E-07  0.1268E-02  0.2270E-03  0.4641E+01
   -0.549989   30.16487  0.7583E-13  0.1404E-04  0.4377E-07  0.1348E-02  0.2124E-03  0.4586E+01
   -0.599990   30.16556  0.7583E-13  0.1425E-04  0.4279E-07  0.1420E-02  0.1992E-03  0.4585E+01
   -0.649991   30.16621  0.7583E-13  0.1443E-04  0.4197E-07  0.1485E-02  0.1872E-03  0.4650E+01
   -0.699992   30.16682  0.7583E-13  0.1459E-04  0.4128E-07  0.1543E-02  0.1762E-03  0.4751E+01
   -0.749993   30.16740  0.7583E-13  0.1472E-04  0.4070E-07  0.1594E-02  0.1660E-03  0.4917E+01
   -0.799995   30.16795  0.7583E-13  0.1483E-04  0.4023E-07  0.1637E-02  0.1566E-03  0.5117E+01
   -0.849996   30.16848  0.7583E-13  0.1492E-04  0.3986E-07  0.1673E-02  0.1477E-03  0.5389E+01
   -0.899998   30.16900  0.7583E-13  0.1499E-04  0.3957E-07  0.1701E-02  0.1395E-03  0.5707E+01
   -0.950000   30.16950  0.7583E-13  0.1504E-04  0.3938E-07  0.1721E-02  0.1317E-03  0.6115E+01
   -1.000001   30.17000  0.7583E-13  0.1507E-04  0.3927E-07  0.1734E-02  0.1243E-03  0.6592E+01
   -1.050003   30.17049  0.7583E-13  0.1508E-04  0.3925E-07  0.1738E-02  0.1173E-03  0.7483E+01
   -1.100005   30.17097  0.7583E-13  0.1507E-04  0.3934E-07  0.1811E-02  0.1107E-03  0.2517E+02
   -1.150006   30.17143  0.7583E-13  0.1505E-04  0.3954E-07  0.1677E-02  0.1047E-03  0.5441E+02
   -1.200008   30.17193  0.7583E-13  0.1500E-04  0.3985E-07  0.1691E-02  0.9861E-04  0.1068E+02
   -1.250010   30.17242  0.7583E-13  0.1493E-04  0.4031E-07  0.1664E-02  0.9275E-04  0.1139E+02
   -1.300011   30.17291  0.7583E-13  0.1483E-04  0.4095E-07  0.1619E-02  0.8711E-04  0.1327E+02
   -1.350012   30.17342  0.7583E-13  0.1471E-04  0.4181E-07  0.1565E-02  0.8166E-04  0.1576E+02
   -1.400013   30.17395  0.7583E-13  0.1455E-04  0.4295E-07  0.1495E-02  0.7635E-04  0.1928E+02
   -1.450014   30.17450  0.7583E-13  0.1436E-04  0.4448E-07  0.1421E-02  0.7117E-04  0.2427E+02
   -1.500015   30.17508  0.7583E-13  0.1413E-04  0.4657E-07  0.1319E-02  0.6608E-04  0.3224E+02
   -1.550015   30.17571  0.7583E-13  0.1384E-04  0.4947E-07  0.1232E-02  0.6101E-04  0.4489E+02
   -1.600015   30.17639  0.7583E-13  0.1348E-04  0.5377E-07  0.1098E-02  0.5603E-04  0.7435E+02
   -1.650015   30.17718  0.7583E-13  0.1302E-04  0.6031E-07  0.1011E-02  0.5083E-04  0.3709E+04
   -1.700014   30.17809  0.7583E-13  0.1239E-04  0.7181E-07  0.8377E-03  0.4571E-04  0.3089E+05
   -1.750013   30.17954  0.7583E-13  0.1154E-04  0.9070E-07  0.7502E-03  0.3930E-04  0.4411E+05
   -1.800012   30.18094  0.7583E-13  0.1037E-04  0.1295E-06  0.5391E-03  0.3389E-04  0.6181E+05
   -1.850010   30.18545  0.7583E-13  0.8985E-05  0.2027E-06  0.4836E-03  0.2534E-04  0.3057E+08
   -1.900008   30.18550  0.7583E-13  0.7187E-05  0.4157E-06  0.2215E-03  0.2052E-04 -0.5273E+07
   -1.950006   30.20134  0.7583E-13  0.4927E-05  0.1067E-05  0.1669E-03  0.1150E-04 -0.6753E+06
   -2.000003   30.20512  0.7583E-13  0.0000E+00  0.0000E+00  0.0000E+00  0.1908E-04  0.0000E+00
