 1 - depth, m
 2 - temperature, C
 3 - salinity, kg/kg
 4 - turbulent kinetic energy, m**2/s**2
 5 - dissipation rate, m**2/s**3
 6 - kinematic heat conductance, m**2/s
 7 - modulus of horizontal velocity, m/s
 8 - Richardson number, n/d
   -0.000000   30.59397  0.1851E-13  0.5205E-05  0.3221E-06  0.5218E-04  0.2354E-02  0.1343E+04
   -0.049997   30.62528  0.1851E-13  0.8704E-05  0.1425E-06  0.1873E-03  0.1311E-02  0.7099E+02
   -0.099994   30.63651  0.1851E-13  0.1046E-04  0.9881E-07  0.3979E-03  0.9853E-03  0.9010E+01
   -0.149992   30.63993  0.1851E-13  0.1158E-04  0.8273E-07  0.4866E-03  0.8706E-03  0.4507E+01
   -0.199991   30.64260  0.1851E-13  0.1246E-04  0.7334E-07  0.6453E-03  0.7793E-03  0.2897E+01
   -0.249989   30.64456  0.1851E-13  0.1315E-04  0.6720E-07  0.7715E-03  0.7104E-03  0.2143E+01
   -0.299988   30.64615  0.1851E-13  0.1372E-04  0.6284E-07  0.8947E-03  0.6532E-03  0.1710E+01
   -0.349988   30.64749  0.1851E-13  0.1420E-04  0.5956E-07  0.1006E-02  0.6039E-03  0.1491E+01
   -0.399988   30.64866  0.1851E-13  0.1460E-04  0.5698E-07  0.1110E-02  0.5598E-03  0.1372E+01
   -0.449988   30.64969  0.1851E-13  0.1496E-04  0.5485E-07  0.1212E-02  0.5201E-03  0.1329E+01
   -0.499988   30.65061  0.1851E-13  0.1527E-04  0.5307E-07  0.1307E-02  0.4844E-03  0.1313E+01
   -0.549989   30.65146  0.1851E-13  0.1554E-04  0.5158E-07  0.1395E-02  0.4523E-03  0.1307E+01
   -0.599989   30.65223  0.1851E-13  0.1577E-04  0.5032E-07  0.1475E-02  0.4231E-03  0.1304E+01
   -0.649990   30.65295  0.1851E-13  0.1597E-04  0.4926E-07  0.1546E-02  0.3966E-03  0.1311E+01
   -0.699992   30.65363  0.1851E-13  0.1613E-04  0.4838E-07  0.1608E-02  0.3724E-03  0.1320E+01
   -0.749993   30.65427  0.1851E-13  0.1627E-04  0.4765E-07  0.1661E-02  0.3503E-03  0.1342E+01
   -0.799994   30.65489  0.1851E-13  0.1637E-04  0.4705E-07  0.1704E-02  0.3300E-03  0.1368E+01
   -0.849996   30.65548  0.1851E-13  0.1645E-04  0.4658E-07  0.1739E-02  0.3112E-03  0.1416E+01
   -0.899998   30.65605  0.1851E-13  0.1651E-04  0.4622E-07  0.1764E-02  0.2939E-03  0.1475E+01
   -0.949999   30.65661  0.1851E-13  0.1654E-04  0.4598E-07  0.1780E-02  0.2777E-03  0.1568E+01
   -1.000001   30.65716  0.1851E-13  0.1655E-04  0.4584E-07  0.1789E-02  0.2625E-03  0.1681E+01
   -1.050003   30.65770  0.1851E-13  0.1653E-04  0.4581E-07  0.1786E-02  0.2481E-03  0.1908E+01
   -1.100004   30.65824  0.1851E-13  0.1650E-04  0.4591E-07  0.1887E-02  0.2344E-03  0.6224E+01
   -1.150006   30.65874  0.1851E-13  0.1644E-04  0.4616E-07  0.1681E-02  0.2223E-03  0.1482E+02
   -1.200008   30.65931  0.1851E-13  0.1635E-04  0.4655E-07  0.1718E-02  0.2095E-03  0.2799E+01
   -1.250009   30.65986  0.1851E-13  0.1624E-04  0.4713E-07  0.1686E-02  0.1973E-03  0.2977E+01
   -1.300010   30.66041  0.1851E-13  0.1609E-04  0.4794E-07  0.1632E-02  0.1855E-03  0.3518E+01
   -1.350012   30.66098  0.1851E-13  0.1592E-04  0.4905E-07  0.1570E-02  0.1741E-03  0.4234E+01
   -1.400013   30.66158  0.1851E-13  0.1570E-04  0.5057E-07  0.1487E-02  0.1630E-03  0.5314E+01
   -1.450013   30.66220  0.1851E-13  0.1543E-04  0.5266E-07  0.1408E-02  0.1520E-03  0.6861E+01
   -1.500014   30.66287  0.1851E-13  0.1511E-04  0.5559E-07  0.1292E-02  0.1412E-03  0.9595E+01
   -1.550014   30.66360  0.1851E-13  0.1472E-04  0.5980E-07  0.1211E-02  0.1303E-03  0.1431E+02
   -1.600014   30.66440  0.1851E-13  0.1422E-04  0.6647E-07  0.1064E-02  0.1196E-03  0.2622E+02
   -1.650014   30.66542  0.1851E-13  0.1357E-04  0.7693E-07  0.9835E-03  0.1077E-03  0.8420E+04
   -1.700014   30.66659  0.1851E-13  0.1268E-04  0.9539E-07  0.7981E-03  0.9605E-04 -0.5623E+02
   -1.750013   30.66873  0.1851E-13  0.1156E-04  0.1250E-06  0.7245E-03  0.8036E-04  0.5888E+05
   -1.800011   30.67015  0.1851E-13  0.1014E-04  0.1897E-06  0.4967E-03  0.6934E-04  0.4280E+05
   -1.850010   30.67794  0.1851E-13  0.8617E-05  0.3129E-06  0.4693E-03  0.4843E-04  0.1247E+08
   -1.900008   30.67527  0.1851E-13  0.6894E-05  0.6559E-06  0.2202E-03  0.4002E-04  0.2577E+05
   -1.950005   30.69635  0.1851E-13  0.4858E-05  0.1601E-05  0.2016E-03  0.2150E-04 -0.4187E+06
   -2.000002   30.69837  0.1851E-13  0.0000E+00  0.0000E+00  0.0000E+00  0.4106E-04  0.0000E+00
