 1 - depth, m
 2 - temperature, C
 3 - salinity, kg/kg
 4 - turbulent kinetic energy, m**2/s**2
 5 - dissipation rate, m**2/s**3
 6 - kinematic heat conductance, m**2/s
 7 - modulus of horizontal velocity, m/s
 8 - Richardson number, n/d
   -0.000000   30.29149  0.1112E-12  0.5055E-05  0.2961E-06  0.5070E-04  0.2611E-02  0.2259E+04
   -0.049997   30.32193  0.1112E-12  0.8382E-05  0.1305E-06  0.1897E-03  0.1425E-02  0.2272E+03
   -0.099994   30.33193  0.1112E-12  0.9986E-05  0.9153E-07  0.3853E-03  0.1089E-02  0.7269E+01
   -0.149992   30.33524  0.1112E-12  0.1102E-04  0.7673E-07  0.4784E-03  0.9622E-03  0.3671E+01
   -0.199991   30.33779  0.1112E-12  0.1184E-04  0.6806E-07  0.6274E-03  0.8625E-03  0.2378E+01
   -0.249989   30.33967  0.1112E-12  0.1248E-04  0.6236E-07  0.7492E-03  0.7867E-03  0.1762E+01
   -0.299988   30.34120  0.1112E-12  0.1301E-04  0.5829E-07  0.8646E-03  0.7235E-03  0.1429E+01
   -0.349988   30.34250  0.1112E-12  0.1346E-04  0.5520E-07  0.9709E-03  0.6685E-03  0.1293E+01
   -0.399988   30.34362  0.1112E-12  0.1385E-04  0.5273E-07  0.1076E-02  0.6183E-03  0.1241E+01
   -0.449988   30.34461  0.1112E-12  0.1419E-04  0.5065E-07  0.1180E-02  0.5725E-03  0.1232E+01
   -0.499988   30.34549  0.1112E-12  0.1450E-04  0.4890E-07  0.1280E-02  0.5309E-03  0.1235E+01
   -0.549989   30.34628  0.1112E-12  0.1477E-04  0.4743E-07  0.1372E-02  0.4934E-03  0.1232E+01
   -0.599990   30.34701  0.1112E-12  0.1499E-04  0.4618E-07  0.1455E-02  0.4594E-03  0.1229E+01
   -0.649991   30.34769  0.1112E-12  0.1519E-04  0.4514E-07  0.1530E-02  0.4286E-03  0.1221E+01
   -0.699992   30.34832  0.1112E-12  0.1535E-04  0.4427E-07  0.1595E-02  0.4007E-03  0.1215E+01
   -0.749993   30.34892  0.1112E-12  0.1548E-04  0.4355E-07  0.1649E-02  0.3753E-03  0.1208E+01
   -0.799995   30.34949  0.1112E-12  0.1558E-04  0.4297E-07  0.1694E-02  0.3523E-03  0.1208E+01
   -0.849996   30.35003  0.1112E-12  0.1565E-04  0.4251E-07  0.1728E-02  0.3312E-03  0.1214E+01
   -0.899998   30.35056  0.1112E-12  0.1570E-04  0.4216E-07  0.1753E-02  0.3120E-03  0.1237E+01
   -0.949999   30.35108  0.1112E-12  0.1573E-04  0.4191E-07  0.1769E-02  0.2943E-03  0.1280E+01
   -1.000001   30.35158  0.1112E-12  0.1574E-04  0.4177E-07  0.1777E-02  0.2779E-03  0.1354E+01
   -1.050003   30.35208  0.1112E-12  0.1572E-04  0.4172E-07  0.1776E-02  0.2624E-03  0.1514E+01
   -1.100005   30.35258  0.1112E-12  0.1569E-04  0.4178E-07  0.1871E-02  0.2478E-03  0.4982E+01
   -1.150006   30.35304  0.1112E-12  0.1563E-04  0.4196E-07  0.1679E-02  0.2349E-03  0.1147E+02
   -1.200008   30.35356  0.1112E-12  0.1555E-04  0.4227E-07  0.1713E-02  0.2213E-03  0.2183E+01
   -1.250009   30.35406  0.1112E-12  0.1545E-04  0.4274E-07  0.1682E-02  0.2084E-03  0.2323E+01
   -1.300011   30.35457  0.1112E-12  0.1532E-04  0.4342E-07  0.1631E-02  0.1959E-03  0.2713E+01
   -1.350012   30.35509  0.1112E-12  0.1516E-04  0.4434E-07  0.1571E-02  0.1838E-03  0.3248E+01
   -1.400013   30.35562  0.1112E-12  0.1496E-04  0.4559E-07  0.1493E-02  0.1720E-03  0.4004E+01
   -1.450014   30.35619  0.1112E-12  0.1472E-04  0.4730E-07  0.1414E-02  0.1604E-03  0.5107E+01
   -1.500014   30.35678  0.1112E-12  0.1444E-04  0.4967E-07  0.1303E-02  0.1490E-03  0.6918E+01
   -1.550015   30.35744  0.1112E-12  0.1409E-04  0.5304E-07  0.1216E-02  0.1376E-03  0.9871E+01
   -1.600015   30.35814  0.1112E-12  0.1366E-04  0.5819E-07  0.1075E-02  0.1263E-03  0.1926E+02
   -1.650014   30.35900  0.1112E-12  0.1311E-04  0.6622E-07  0.9894E-03  0.1143E-03  0.4728E+02
   -1.700014   30.35998  0.1112E-12  0.1236E-04  0.8045E-07  0.8129E-03  0.1025E-03 -0.2988E+04
   -1.750013   30.36166  0.1112E-12  0.1136E-04  0.1039E-06  0.7271E-03  0.8711E-04  0.1215E+05
   -1.800012   30.36314  0.1112E-12  0.1002E-04  0.1538E-06  0.5126E-03  0.7465E-04  0.2395E+05
   -1.850010   30.36884  0.1112E-12  0.8502E-05  0.2467E-06  0.4627E-03  0.5392E-04  0.3093E+09
   -1.900008   30.36795  0.1112E-12  0.6690E-05  0.5208E-06  0.2125E-03  0.4345E-04 -0.7050E+06
   -1.950005   30.38615  0.1112E-12  0.4689E-05  0.1287E-05  0.1874E-03  0.2342E-04 -0.2797E+06
   -2.000002   30.38799  0.1112E-12  0.0000E+00  0.0000E+00  0.0000E+00  0.4301E-04  0.0000E+00
