 1 - depth, m
 2 - temperature, C
 3 - salinity, kg/kg
 4 - turbulent kinetic energy, m**2/s**2
 5 - dissipation rate, m**2/s**3
 6 - kinematic heat conductance, m**2/s
 7 - modulus of horizontal velocity, m/s
 8 - Richardson number, n/d
   -0.000000   30.10308  0.9963E-13  0.4575E-05  0.2701E-06  0.4899E-04  0.1865E-02  0.5354E+04
   -0.049997   30.13142  0.9963E-13  0.7756E-05  0.1201E-06  0.1727E-03  0.1051E-02  0.1049E+04
   -0.099994   30.14210  0.9964E-13  0.9367E-05  0.8278E-07  0.3844E-03  0.7743E-03  0.1553E+02
   -0.149992   30.14514  0.9964E-13  0.1038E-04  0.6948E-07  0.4656E-03  0.6827E-03  0.7502E+01
   -0.199991   30.14756  0.9964E-13  0.1116E-04  0.6166E-07  0.6184E-03  0.6092E-03  0.4829E+01
   -0.249989   30.14932  0.9964E-13  0.1179E-04  0.5652E-07  0.7397E-03  0.5539E-03  0.3546E+01
   -0.299989   30.15075  0.9964E-13  0.1230E-04  0.5284E-07  0.8591E-03  0.5079E-03  0.2821E+01
   -0.349988   30.15194  0.9964E-13  0.1272E-04  0.5008E-07  0.9673E-03  0.4684E-03  0.2403E+01
   -0.399988   30.15298  0.9964E-13  0.1307E-04  0.4793E-07  0.1066E-02  0.4335E-03  0.2150E+01
   -0.449988   30.15390  0.9964E-13  0.1338E-04  0.4616E-07  0.1159E-02  0.4027E-03  0.2019E+01
   -0.499988   30.15473  0.9964E-13  0.1365E-04  0.4470E-07  0.1246E-02  0.3753E-03  0.1975E+01
   -0.549989   30.15549  0.9964E-13  0.1388E-04  0.4347E-07  0.1325E-02  0.3507E-03  0.1942E+01
   -0.599990   30.15619  0.9964E-13  0.1407E-04  0.4244E-07  0.1397E-02  0.3285E-03  0.1947E+01
   -0.649991   30.15684  0.9964E-13  0.1424E-04  0.4156E-07  0.1462E-02  0.3083E-03  0.1956E+01
   -0.699992   30.15745  0.9964E-13  0.1439E-04  0.4082E-07  0.1519E-02  0.2898E-03  0.2000E+01
   -0.749993   30.15803  0.9964E-13  0.1451E-04  0.4020E-07  0.1568E-02  0.2728E-03  0.2047E+01
   -0.799995   30.15858  0.9964E-13  0.1460E-04  0.3968E-07  0.1610E-02  0.2571E-03  0.2135E+01
   -0.849996   30.15912  0.9964E-13  0.1468E-04  0.3926E-07  0.1644E-02  0.2425E-03  0.2227E+01
   -0.899998   30.15964  0.9964E-13  0.1473E-04  0.3893E-07  0.1671E-02  0.2288E-03  0.2369E+01
   -0.950000   30.16014  0.9964E-13  0.1477E-04  0.3869E-07  0.1690E-02  0.2159E-03  0.2517E+01
   -1.000001   30.16063  0.9964E-13  0.1479E-04  0.3854E-07  0.1702E-02  0.2037E-03  0.2727E+01
   -1.050003   30.16112  0.9964E-13  0.1478E-04  0.3849E-07  0.1704E-02  0.1922E-03  0.3069E+01
   -1.100005   30.16160  0.9964E-13  0.1476E-04  0.3853E-07  0.1782E-02  0.1812E-03  0.1029E+02
   -1.150007   30.16205  0.9964E-13  0.1472E-04  0.3868E-07  0.1634E-02  0.1714E-03  0.2286E+02
   -1.200008   30.16255  0.9964E-13  0.1466E-04  0.3895E-07  0.1653E-02  0.1613E-03  0.4399E+01
   -1.250010   30.16303  0.9964E-13  0.1457E-04  0.3937E-07  0.1624E-02  0.1516E-03  0.4692E+01
   -1.300011   30.16352  0.9964E-13  0.1446E-04  0.3996E-07  0.1579E-02  0.1423E-03  0.5443E+01
   -1.350012   30.16402  0.9964E-13  0.1432E-04  0.4077E-07  0.1523E-02  0.1333E-03  0.6504E+01
   -1.400013   30.16454  0.9964E-13  0.1415E-04  0.4187E-07  0.1452E-02  0.1246E-03  0.7943E+01
   -1.450014   30.16508  0.9964E-13  0.1394E-04  0.4336E-07  0.1376E-02  0.1160E-03  0.1006E+02
   -1.500015   30.16566  0.9964E-13  0.1369E-04  0.4542E-07  0.1272E-02  0.1076E-03  0.1339E+02
   -1.550015   30.16628  0.9964E-13  0.1338E-04  0.4833E-07  0.1186E-02  0.9919E-04  0.1875E+02
   -1.600015   30.16695  0.9964E-13  0.1299E-04  0.5263E-07  0.1048E-02  0.9094E-04  0.3023E+02
   -1.650015   30.16774  0.9964E-13  0.1251E-04  0.5925E-07  0.9711E-03  0.8233E-04  0.2589E+03
   -1.700014   30.16864  0.9964E-13  0.1185E-04  0.7135E-07  0.7950E-03  0.7390E-04  0.1608E+04
   -1.750014   30.17013  0.9964E-13  0.1093E-04  0.9147E-07  0.7130E-03  0.6296E-04  0.1195E+06
   -1.800012   30.17160  0.9964E-13  0.9651E-05  0.1331E-06  0.5005E-03  0.5380E-04  0.4302E+05
   -1.850011   30.17650  0.9964E-13  0.8178E-05  0.2104E-06  0.4531E-03  0.3885E-04  0.2483E+08
   -1.900008   30.17621  0.9964E-13  0.6449E-05  0.4379E-06  0.2033E-03  0.3125E-04  0.1445E+07
   -1.950006   30.19314  0.9964E-13  0.4476E-05  0.1119E-05  0.1756E-03  0.1679E-04 -0.5131E+06
   -2.000003   30.19518  0.9964E-13  0.0000E+00  0.0000E+00  0.0000E+00  0.3018E-04  0.0000E+00
