 1 - depth, m
 2 - temperature, C
 3 - salinity, kg/kg
 4 - turbulent kinetic energy, m**2/s**2
 5 - dissipation rate, m**2/s**3
 6 - kinematic heat conductance, m**2/s
 7 - modulus of horizontal velocity, m/s
 8 - Richardson number, n/d
   -0.000000   29.16735  0.4568E-13  0.4478E-05  0.2464E-06  0.4743E-04  0.2375E-02  0.3204E+04
   -0.049997   29.19419  0.4568E-13  0.7504E-05  0.1087E-06  0.1810E-03  0.1290E-02  0.1102E+04
   -0.099994   29.20323  0.4568E-13  0.8968E-05  0.7618E-07  0.3759E-03  0.9769E-03  0.8755E+01
   -0.149992   29.20611  0.4568E-13  0.9910E-05  0.6412E-07  0.4652E-03  0.8623E-03  0.4338E+01
   -0.199991   29.20834  0.4568E-13  0.1065E-04  0.5704E-07  0.6096E-03  0.7721E-03  0.2822E+01
   -0.249990   29.21000  0.4568E-13  0.1124E-04  0.5239E-07  0.7279E-03  0.7033E-03  0.2089E+01
   -0.299989   29.21136  0.4568E-13  0.1173E-04  0.4909E-07  0.8394E-03  0.6459E-03  0.1690E+01
   -0.349988   29.21251  0.4568E-13  0.1215E-04  0.4659E-07  0.9420E-03  0.5963E-03  0.1520E+01
   -0.399988   29.21351  0.4568E-13  0.1251E-04  0.4458E-07  0.1045E-02  0.5507E-03  0.1444E+01
   -0.449988   29.21440  0.4568E-13  0.1284E-04  0.4292E-07  0.1146E-02  0.5091E-03  0.1406E+01
   -0.499988   29.21519  0.4568E-13  0.1313E-04  0.4153E-07  0.1241E-02  0.4716E-03  0.1398E+01
   -0.549989   29.21591  0.4568E-13  0.1338E-04  0.4038E-07  0.1328E-02  0.4380E-03  0.1386E+01
   -0.599990   29.21657  0.4568E-13  0.1360E-04  0.3941E-07  0.1407E-02  0.4076E-03  0.1388E+01
   -0.649991   29.21719  0.4568E-13  0.1379E-04  0.3861E-07  0.1478E-02  0.3801E-03  0.1385E+01
   -0.699992   29.21776  0.4568E-13  0.1395E-04  0.3794E-07  0.1540E-02  0.3551E-03  0.1396E+01
   -0.749994   29.21831  0.4568E-13  0.1408E-04  0.3740E-07  0.1593E-02  0.3325E-03  0.1402E+01
   -0.799995   29.21884  0.4568E-13  0.1419E-04  0.3696E-07  0.1637E-02  0.3118E-03  0.1426E+01
   -0.849997   29.21934  0.4568E-13  0.1428E-04  0.3663E-07  0.1672E-02  0.2930E-03  0.1445E+01
   -0.899998   29.21983  0.4568E-13  0.1434E-04  0.3638E-07  0.1698E-02  0.2757E-03  0.1493E+01
   -0.950000   29.22031  0.4568E-13  0.1439E-04  0.3622E-07  0.1715E-02  0.2599E-03  0.1553E+01
   -1.000002   29.22078  0.4568E-13  0.1441E-04  0.3614E-07  0.1725E-02  0.2452E-03  0.1667E+01
   -1.050004   29.22125  0.4568E-13  0.1442E-04  0.3615E-07  0.1726E-02  0.2314E-03  0.1877E+01
   -1.100005   29.22171  0.4568E-13  0.1441E-04  0.3624E-07  0.1805E-02  0.2183E-03  0.6332E+01
   -1.150007   29.22215  0.4568E-13  0.1438E-04  0.3644E-07  0.1656E-02  0.2065E-03  0.1381E+02
   -1.200009   29.22263  0.4568E-13  0.1433E-04  0.3674E-07  0.1675E-02  0.1944E-03  0.2685E+01
   -1.250010   29.22309  0.4568E-13  0.1426E-04  0.3717E-07  0.1647E-02  0.1828E-03  0.2877E+01
   -1.300011   29.22357  0.4568E-13  0.1416E-04  0.3776E-07  0.1602E-02  0.1717E-03  0.3331E+01
   -1.350013   29.22406  0.4568E-13  0.1404E-04  0.3856E-07  0.1547E-02  0.1609E-03  0.3980E+01
   -1.400014   29.22456  0.4568E-13  0.1389E-04  0.3961E-07  0.1477E-02  0.1504E-03  0.4835E+01
   -1.450015   29.22508  0.4568E-13  0.1370E-04  0.4102E-07  0.1402E-02  0.1401E-03  0.6106E+01
   -1.500015   29.22564  0.4568E-13  0.1348E-04  0.4293E-07  0.1300E-02  0.1300E-03  0.8040E+01
   -1.550016   29.22624  0.4568E-13  0.1320E-04  0.4557E-07  0.1213E-02  0.1200E-03  0.1116E+02
   -1.600016   29.22689  0.4568E-13  0.1285E-04  0.4946E-07  0.1076E-02  0.1101E-03  0.1814E+02
   -1.650015   29.22765  0.4568E-13  0.1242E-04  0.5532E-07  0.9935E-03  0.9984E-04  0.3732E+02
   -1.700015   29.22850  0.4568E-13  0.1183E-04  0.6569E-07  0.8207E-03  0.8984E-04  0.2907E+03
   -1.750014   29.22986  0.4568E-13  0.1101E-04  0.8303E-07  0.7349E-03  0.7725E-04  0.4162E+04
   -1.800013   29.23123  0.4568E-13  0.9856E-05  0.1184E-06  0.5240E-03  0.6632E-04  0.2784E+05
   -1.850011   29.23546  0.4568E-13  0.8452E-05  0.1843E-06  0.4637E-03  0.4910E-04  0.1106E+07
   -1.900009   29.23569  0.4568E-13  0.6689E-05  0.3798E-06  0.2122E-03  0.3935E-04  0.1402E+07
   -1.950007   29.25096  0.4568E-13  0.4586E-05  0.9796E-06  0.1640E-03  0.2163E-04 -0.6820E+06
   -2.000004   29.25425  0.4568E-13  0.0000E+00  0.0000E+00  0.0000E+00  0.3690E-04  0.0000E+00
