 1 - depth, m
 2 - temperature, C
 3 - salinity, kg/kg
 4 - turbulent kinetic energy, m**2/s**2
 5 - dissipation rate, m**2/s**3
 6 - kinematic heat conductance, m**2/s
 7 - modulus of horizontal velocity, m/s
 8 - Richardson number, n/d
   -0.000000   30.80440  0.2239E-14  0.5326E-05  0.3415E-06  0.5328E-04  0.2114E-02  0.3525E+04
   -0.049997   30.83669  0.2239E-14  0.8957E-05  0.1514E-06  0.1868E-03  0.1191E-02  0.1003E+04
   -0.099994   30.84883  0.2239E-14  0.1081E-04  0.1043E-06  0.4068E-03  0.8884E-03  0.1212E+02
   -0.149992   30.85234  0.2239E-14  0.1199E-04  0.8729E-07  0.4927E-03  0.7857E-03  0.6007E+01
   -0.199990   30.85512  0.2239E-14  0.1291E-04  0.7736E-07  0.6579E-03  0.7031E-03  0.3840E+01
   -0.249989   30.85713  0.2239E-14  0.1365E-04  0.7089E-07  0.7865E-03  0.6412E-03  0.2826E+01
   -0.299988   30.85877  0.2239E-14  0.1425E-04  0.6629E-07  0.9144E-03  0.5897E-03  0.2250E+01
   -0.349988   30.86015  0.2239E-14  0.1474E-04  0.6286E-07  0.1029E-02  0.5455E-03  0.1928E+01
   -0.399987   30.86135  0.2239E-14  0.1517E-04  0.6017E-07  0.1136E-02  0.5062E-03  0.1746E+01
   -0.449987   30.86241  0.2239E-14  0.1554E-04  0.5798E-07  0.1238E-02  0.4711E-03  0.1654E+01
   -0.499988   30.86336  0.2239E-14  0.1586E-04  0.5617E-07  0.1333E-02  0.4397E-03  0.1623E+01
   -0.549988   30.86423  0.2239E-14  0.1614E-04  0.5465E-07  0.1420E-02  0.4115E-03  0.1598E+01
   -0.599989   30.86504  0.2239E-14  0.1638E-04  0.5338E-07  0.1499E-02  0.3859E-03  0.1600E+01
   -0.649990   30.86579  0.2239E-14  0.1659E-04  0.5232E-07  0.1570E-02  0.3626E-03  0.1603E+01
   -0.699991   30.86649  0.2239E-14  0.1676E-04  0.5143E-07  0.1632E-02  0.3412E-03  0.1630E+01
   -0.749992   30.86716  0.2239E-14  0.1691E-04  0.5070E-07  0.1684E-02  0.3217E-03  0.1659E+01
   -0.799994   30.86780  0.2239E-14  0.1702E-04  0.5011E-07  0.1728E-02  0.3036E-03  0.1717E+01
   -0.849995   30.86842  0.2239E-14  0.1711E-04  0.4965E-07  0.1763E-02  0.2869E-03  0.1782E+01
   -0.899997   30.86902  0.2239E-14  0.1718E-04  0.4931E-07  0.1789E-02  0.2713E-03  0.1884E+01
   -0.949999   30.86961  0.2239E-14  0.1722E-04  0.4908E-07  0.1805E-02  0.2566E-03  0.2002E+01
   -1.000000   30.87018  0.2239E-14  0.1724E-04  0.4897E-07  0.1815E-02  0.2428E-03  0.2167E+01
   -1.050002   30.87075  0.2239E-14  0.1723E-04  0.4898E-07  0.1812E-02  0.2297E-03  0.2445E+01
   -1.100004   30.87131  0.2239E-14  0.1720E-04  0.4913E-07  0.1915E-02  0.2171E-03  0.8021E+01
   -1.150005   30.87185  0.2239E-14  0.1714E-04  0.4944E-07  0.1704E-02  0.2060E-03  0.1897E+02
   -1.200007   30.87244  0.2239E-14  0.1706E-04  0.4990E-07  0.1742E-02  0.1943E-03  0.3573E+01
   -1.250008   30.87302  0.2239E-14  0.1695E-04  0.5057E-07  0.1709E-02  0.1831E-03  0.3814E+01
   -1.300009   30.87361  0.2239E-14  0.1681E-04  0.5150E-07  0.1654E-02  0.1723E-03  0.4477E+01
   -1.350011   30.87422  0.2239E-14  0.1663E-04  0.5276E-07  0.1590E-02  0.1618E-03  0.5403E+01
   -1.400012   30.87485  0.2239E-14  0.1641E-04  0.5446E-07  0.1506E-02  0.1516E-03  0.6728E+01
   -1.450012   30.87551  0.2239E-14  0.1613E-04  0.5678E-07  0.1424E-02  0.1414E-03  0.8711E+01
   -1.500013   30.87623  0.2239E-14  0.1580E-04  0.6002E-07  0.1307E-02  0.1315E-03  0.1206E+02
   -1.550013   30.87701  0.2239E-14  0.1539E-04  0.6470E-07  0.1221E-02  0.1214E-03  0.1844E+02
   -1.600013   30.87787  0.2239E-14  0.1488E-04  0.7199E-07  0.1073E-02  0.1114E-03  0.8688E+02
   -1.650013   30.87897  0.2239E-14  0.1420E-04  0.8340E-07  0.9895E-03  0.1006E-03 -0.9813E+03
   -1.700012   30.88025  0.2239E-14  0.1328E-04  0.1033E-06  0.8045E-03  0.8964E-04 -0.6088E+03
   -1.750011   30.88246  0.2239E-14  0.1212E-04  0.1354E-06  0.7266E-03  0.7536E-04  0.3558E+06
   -1.800010   30.88413  0.2239E-14  0.1059E-04  0.2054E-06  0.4962E-03  0.6479E-04  0.1295E+05
   -1.850008   30.89240  0.2239E-14  0.8986E-05  0.3371E-06  0.4725E-03  0.4521E-04  0.1033E+08
   -1.900006   30.88982  0.2239E-14  0.7166E-05  0.6996E-06  0.2123E-03  0.3733E-04 -0.8977E+06
   -1.950004   30.91360  0.2239E-14  0.5090E-05  0.1712E-05  0.2080E-03  0.1988E-04 -0.1741E+06
   -2.000000   30.91447  0.2239E-14  0.0000E+00  0.0000E+00  0.0000E+00  0.3806E-04  0.0000E+00
