 1 - depth, m
 2 - temperature, C
 3 - salinity, kg/kg
 4 - turbulent kinetic energy, m**2/s**2
 5 - dissipation rate, m**2/s**3
 6 - kinematic heat conductance, m**2/s
 7 - modulus of horizontal velocity, m/s
 8 - Richardson number, n/d
   -0.000000   30.03000  0.5013E-14  0.4749E-05  0.2968E-06  0.5057E-04  0.8750E-03  0.1119E+05
   -0.049997   30.06066  0.5013E-14  0.8267E-05  0.1317E-06  0.1758E-03  0.5020E-03  0.1355E+03
   -0.099994   30.07282  0.5013E-14  0.1004E-04  0.9048E-07  0.4095E-03  0.3631E-03  0.7268E+02
   -0.149992   30.07602  0.5013E-14  0.1114E-04  0.7625E-07  0.4829E-03  0.3214E-03  0.3549E+02
   -0.199991   30.07863  0.5013E-14  0.1199E-04  0.6784E-07  0.6465E-03  0.2870E-03  0.2303E+02
   -0.249989   30.08052  0.5013E-14  0.1266E-04  0.6230E-07  0.7713E-03  0.2613E-03  0.1713E+02
   -0.299989   30.08206  0.5013E-14  0.1321E-04  0.5833E-07  0.8958E-03  0.2400E-03  0.1366E+02
   -0.349988   30.08334  0.5013E-14  0.1366E-04  0.5534E-07  0.1009E-02  0.2216E-03  0.1173E+02
   -0.399988   30.08446  0.5013E-14  0.1404E-04  0.5301E-07  0.1111E-02  0.2054E-03  0.1045E+02
   -0.449988   30.08545  0.5013E-14  0.1437E-04  0.5111E-07  0.1207E-02  0.1911E-03  0.9842E+01
   -0.499988   30.08635  0.5013E-14  0.1465E-04  0.4953E-07  0.1294E-02  0.1785E-03  0.9557E+01
   -0.549989   30.08717  0.5013E-14  0.1490E-04  0.4820E-07  0.1375E-02  0.1671E-03  0.9462E+01
   -0.599990   30.08792  0.5013E-14  0.1510E-04  0.4708E-07  0.1447E-02  0.1569E-03  0.9440E+01
   -0.649991   30.08863  0.5013E-14  0.1528E-04  0.4613E-07  0.1512E-02  0.1475E-03  0.9592E+01
   -0.699992   30.08929  0.5013E-14  0.1543E-04  0.4531E-07  0.1570E-02  0.1389E-03  0.9775E+01
   -0.749993   30.08993  0.5013E-14  0.1555E-04  0.4463E-07  0.1620E-02  0.1310E-03  0.1013E+02
   -0.799995   30.09053  0.5013E-14  0.1565E-04  0.4405E-07  0.1662E-02  0.1236E-03  0.1051E+02
   -0.849996   30.09111  0.5013E-14  0.1572E-04  0.4358E-07  0.1697E-02  0.1167E-03  0.1110E+02
   -0.899998   30.09167  0.5013E-14  0.1577E-04  0.4321E-07  0.1723E-02  0.1102E-03  0.1171E+02
   -0.950000   30.09222  0.5013E-14  0.1580E-04  0.4293E-07  0.1741E-02  0.1041E-03  0.1258E+02
   -1.000001   30.09275  0.5013E-14  0.1581E-04  0.4275E-07  0.1752E-02  0.9838E-04  0.1352E+02
   -1.050003   30.09328  0.5013E-14  0.1580E-04  0.4268E-07  0.1752E-02  0.9289E-04  0.1537E+02
   -1.100005   30.09380  0.5013E-14  0.1576E-04  0.4271E-07  0.1841E-02  0.8768E-04  0.5058E+02
   -1.150006   30.09428  0.5013E-14  0.1571E-04  0.4287E-07  0.1665E-02  0.8303E-04  0.1159E+03
   -1.200008   30.09482  0.5013E-14  0.1563E-04  0.4316E-07  0.1693E-02  0.7818E-04  0.2222E+02
   -1.250009   30.09535  0.5013E-14  0.1552E-04  0.4362E-07  0.1663E-02  0.7357E-04  0.2356E+02
   -1.300011   30.09588  0.5013E-14  0.1538E-04  0.4428E-07  0.1613E-02  0.6912E-04  0.2769E+02
   -1.350012   30.09642  0.5013E-14  0.1522E-04  0.4520E-07  0.1554E-02  0.6481E-04  0.3304E+02
   -1.400013   30.09698  0.5013E-14  0.1501E-04  0.4646E-07  0.1476E-02  0.6061E-04  0.4106E+02
   -1.450014   30.09757  0.5013E-14  0.1477E-04  0.4819E-07  0.1400E-02  0.5649E-04  0.5225E+02
   -1.500015   30.09818  0.5013E-14  0.1447E-04  0.5063E-07  0.1286E-02  0.5244E-04  0.7167E+02
   -1.550015   30.09886  0.5013E-14  0.1411E-04  0.5409E-07  0.1207E-02  0.4837E-04  0.1023E+03
   -1.600015   30.09959  0.5013E-14  0.1366E-04  0.5950E-07  0.1059E-02  0.4440E-04  0.2237E+03
   -1.650015   30.10050  0.5013E-14  0.1309E-04  0.6792E-07  0.9857E-03  0.4007E-04  0.1141E+04
   -1.700014   30.10149  0.5013E-14  0.1230E-04  0.8304E-07  0.7977E-03  0.3591E-04  0.2199E+05
   -1.750013   30.10334  0.5013E-14  0.1126E-04  0.1078E-06  0.7268E-03  0.3020E-04  0.2200E+06
   -1.800012   30.10472  0.5013E-14  0.9893E-05  0.1624E-06  0.4974E-03  0.2601E-04 -0.2434E+06
   -1.850010   30.11113  0.5013E-14  0.8390E-05  0.2628E-06  0.4668E-03  0.1835E-04  0.1467E+09
   -1.900008   30.10938  0.5013E-14  0.6665E-05  0.5431E-06  0.2102E-03  0.1513E-04 -0.1310E+08
   -1.950006   30.12800  0.5013E-14  0.4651E-05  0.1363E-05  0.1908E-03  0.8082E-05 -0.3043E+07
   -2.000003   30.13005  0.5013E-14  0.0000E+00  0.0000E+00  0.0000E+00  0.1509E-04  0.0000E+00
