 1 - depth, m
 2 - temperature, C
 3 - salinity, kg/kg
 4 - turbulent kinetic energy, m**2/s**2
 5 - dissipation rate, m**2/s**3
 6 - kinematic heat conductance, m**2/s
 7 - modulus of horizontal velocity, m/s
 8 - Richardson number, n/d
   -0.000000   30.52053  0.7349E-13  0.4929E-05  0.3067E-06  0.5119E-04  0.1889E-02  0.8936E+04
   -0.049997   30.55113  0.7350E-13  0.8333E-05  0.1367E-06  0.1765E-03  0.1077E-02  0.1696E+03
   -0.099994   30.56291  0.7350E-13  0.1009E-04  0.9380E-07  0.3949E-03  0.7921E-03  0.1453E+02
   -0.149992   30.56624  0.7350E-13  0.1119E-04  0.7853E-07  0.4761E-03  0.6990E-03  0.7095E+01
   -0.199991   30.56888  0.7350E-13  0.1204E-04  0.6959E-07  0.6359E-03  0.6240E-03  0.4539E+01
   -0.249989   30.57080  0.7350E-13  0.1271E-04  0.6372E-07  0.7607E-03  0.5678E-03  0.3342E+01
   -0.299988   30.57235  0.7350E-13  0.1326E-04  0.5953E-07  0.8847E-03  0.5210E-03  0.2649E+01
   -0.349988   30.57365  0.7350E-13  0.1372E-04  0.5638E-07  0.9973E-03  0.4810E-03  0.2262E+01
   -0.399988   30.57478  0.7350E-13  0.1409E-04  0.5392E-07  0.1100E-02  0.4456E-03  0.2009E+01
   -0.449988   30.57577  0.7350E-13  0.1442E-04  0.5192E-07  0.1195E-02  0.4145E-03  0.1889E+01
   -0.499988   30.57667  0.7350E-13  0.1470E-04  0.5025E-07  0.1283E-02  0.3870E-03  0.1835E+01
   -0.549989   30.57749  0.7350E-13  0.1494E-04  0.4885E-07  0.1364E-02  0.3622E-03  0.1812E+01
   -0.599990   30.57824  0.7350E-13  0.1515E-04  0.4766E-07  0.1438E-02  0.3399E-03  0.1807E+01
   -0.649991   30.57895  0.7350E-13  0.1532E-04  0.4665E-07  0.1504E-02  0.3195E-03  0.1827E+01
   -0.699992   30.57961  0.7350E-13  0.1547E-04  0.4579E-07  0.1562E-02  0.3008E-03  0.1859E+01
   -0.749993   30.58024  0.7350E-13  0.1559E-04  0.4506E-07  0.1612E-02  0.2836E-03  0.1917E+01
   -0.799995   30.58084  0.7350E-13  0.1568E-04  0.4445E-07  0.1655E-02  0.2676E-03  0.1988E+01
   -0.849996   30.58141  0.7350E-13  0.1576E-04  0.4395E-07  0.1690E-02  0.2526E-03  0.2089E+01
   -0.899998   30.58197  0.7350E-13  0.1581E-04  0.4355E-07  0.1717E-02  0.2386E-03  0.2205E+01
   -0.949999   30.58251  0.7350E-13  0.1583E-04  0.4324E-07  0.1735E-02  0.2254E-03  0.2358E+01
   -1.000001   30.58304  0.7350E-13  0.1584E-04  0.4304E-07  0.1746E-02  0.2129E-03  0.2535E+01
   -1.050003   30.58356  0.7350E-13  0.1583E-04  0.4294E-07  0.1747E-02  0.2011E-03  0.2867E+01
   -1.100005   30.58408  0.7350E-13  0.1579E-04  0.4295E-07  0.1835E-02  0.1898E-03  0.9445E+01
   -1.150006   30.58456  0.7350E-13  0.1573E-04  0.4310E-07  0.1663E-02  0.1797E-03  0.2160E+02
   -1.200008   30.58509  0.7350E-13  0.1565E-04  0.4337E-07  0.1690E-02  0.1693E-03  0.4119E+01
   -1.250009   30.58561  0.7350E-13  0.1554E-04  0.4381E-07  0.1660E-02  0.1593E-03  0.4363E+01
   -1.300011   30.58613  0.7350E-13  0.1541E-04  0.4445E-07  0.1611E-02  0.1497E-03  0.5094E+01
   -1.350012   30.58667  0.7350E-13  0.1524E-04  0.4535E-07  0.1552E-02  0.1404E-03  0.6079E+01
   -1.400013   30.58722  0.7350E-13  0.1504E-04  0.4658E-07  0.1476E-02  0.1313E-03  0.7492E+01
   -1.450014   30.58780  0.7350E-13  0.1479E-04  0.4828E-07  0.1399E-02  0.1224E-03  0.9532E+01
   -1.500014   30.58841  0.7350E-13  0.1450E-04  0.5065E-07  0.1287E-02  0.1136E-03  0.1292E+02
   -1.550015   30.58907  0.7350E-13  0.1414E-04  0.5404E-07  0.1204E-02  0.1049E-03  0.1845E+02
   -1.600015   30.58979  0.7350E-13  0.1370E-04  0.5923E-07  0.1059E-02  0.9626E-04  0.3417E+02
   -1.650014   30.59065  0.7350E-13  0.1313E-04  0.6731E-07  0.9831E-03  0.8708E-04  0.4452E+03
   -1.700014   30.59163  0.7350E-13  0.1236E-04  0.8193E-07  0.7984E-03  0.7810E-04  0.6432E+04
   -1.750013   30.59336  0.7350E-13  0.1133E-04  0.1058E-06  0.7226E-03  0.6612E-04  0.1609E+05
   -1.800012   30.59478  0.7350E-13  0.9945E-05  0.1560E-06  0.5013E-03  0.5682E-04  0.1488E+05
   -1.850010   30.60067  0.7350E-13  0.8398E-05  0.2514E-06  0.4579E-03  0.4048E-04  0.3521E+08
   -1.900008   30.59962  0.7350E-13  0.6612E-05  0.5223E-06  0.2096E-03  0.3281E-04 -0.3297E+05
   -1.950005   30.61787  0.7350E-13  0.4630E-05  0.1313E-05  0.1878E-03  0.1754E-04 -0.8920E+05
   -2.000002   30.61960  0.7350E-13  0.0000E+00  0.0000E+00  0.0000E+00  0.3245E-04  0.0000E+00
