 1 - depth, m
 2 - temperature, C
 3 - salinity, kg/kg
 4 - turbulent kinetic energy, m**2/s**2
 5 - dissipation rate, m**2/s**3
 6 - kinematic heat conductance, m**2/s
 7 - modulus of horizontal velocity, m/s
 8 - Richardson number, n/d
   -0.000000   31.03590  0.1098E-14  0.5425E-05  0.3504E-06  0.5352E-04  0.2001E-02  0.2014E+04
   -0.049997   31.06884  0.1098E-14  0.9153E-05  0.1550E-06  0.1911E-03  0.1120E-02  0.9518E+02
   -0.099994   31.08094  0.1098E-14  0.1104E-04  0.1071E-06  0.4118E-03  0.8416E-03  0.2330E+02
   -0.149992   31.08448  0.1098E-14  0.1224E-04  0.8971E-07  0.4988E-03  0.7452E-03  0.1146E+02
   -0.199990   31.08729  0.1098E-14  0.1317E-04  0.7956E-07  0.6650E-03  0.6679E-03  0.7384E+01
   -0.249989   31.08933  0.1098E-14  0.1392E-04  0.7295E-07  0.7940E-03  0.6099E-03  0.5398E+01
   -0.299988   31.09099  0.1098E-14  0.1453E-04  0.6825E-07  0.9217E-03  0.5615E-03  0.4333E+01
   -0.349988   31.09239  0.1098E-14  0.1504E-04  0.6473E-07  0.1037E-02  0.5198E-03  0.3672E+01
   -0.399987   31.09360  0.1098E-14  0.1548E-04  0.6196E-07  0.1147E-02  0.4823E-03  0.3339E+01
   -0.449987   31.09468  0.1098E-14  0.1586E-04  0.5970E-07  0.1251E-02  0.4486E-03  0.3100E+01
   -0.499988   31.09565  0.1098E-14  0.1619E-04  0.5782E-07  0.1349E-02  0.4184E-03  0.3068E+01
   -0.549988   31.09653  0.1098E-14  0.1648E-04  0.5625E-07  0.1438E-02  0.3912E-03  0.2966E+01
   -0.599989   31.09734  0.1098E-14  0.1673E-04  0.5494E-07  0.1519E-02  0.3664E-03  0.3008E+01
   -0.649990   31.09810  0.1098E-14  0.1695E-04  0.5384E-07  0.1592E-02  0.3440E-03  0.2960E+01
   -0.699991   31.09881  0.1098E-14  0.1712E-04  0.5293E-07  0.1655E-02  0.3234E-03  0.3063E+01
   -0.749993   31.09949  0.1098E-14  0.1727E-04  0.5217E-07  0.1708E-02  0.3046E-03  0.3059E+01
   -0.799994   31.10013  0.1098E-14  0.1739E-04  0.5156E-07  0.1752E-02  0.2873E-03  0.3225E+01
   -0.849995   31.10076  0.1098E-14  0.1748E-04  0.5109E-07  0.1787E-02  0.2714E-03  0.3273E+01
   -0.899997   31.10137  0.1098E-14  0.1754E-04  0.5073E-07  0.1813E-02  0.2565E-03  0.3518E+01
   -0.949999   31.10196  0.1098E-14  0.1758E-04  0.5050E-07  0.1829E-02  0.2427E-03  0.3645E+01
   -1.000000   31.10254  0.1098E-14  0.1759E-04  0.5039E-07  0.1837E-02  0.2297E-03  0.4005E+01
   -1.050002   31.10311  0.1098E-14  0.1758E-04  0.5040E-07  0.1834E-02  0.2174E-03  0.4404E+01
   -1.100004   31.10368  0.1098E-14  0.1755E-04  0.5055E-07  0.1943E-02  0.2057E-03  0.1476E+02
   -1.150005   31.10422  0.1098E-14  0.1748E-04  0.5087E-07  0.1716E-02  0.1953E-03  0.3419E+02
   -1.200007   31.10482  0.1098E-14  0.1740E-04  0.5134E-07  0.1759E-02  0.1842E-03  0.6341E+01
   -1.250008   31.10541  0.1098E-14  0.1728E-04  0.5203E-07  0.1726E-02  0.1737E-03  0.6867E+01
   -1.300010   31.10600  0.1098E-14  0.1712E-04  0.5299E-07  0.1669E-02  0.1636E-03  0.7859E+01
   -1.350011   31.10662  0.1098E-14  0.1693E-04  0.5429E-07  0.1604E-02  0.1537E-03  0.9610E+01
   -1.400012   31.10726  0.1098E-14  0.1670E-04  0.5606E-07  0.1518E-02  0.1441E-03  0.1169E+02
   -1.450013   31.10793  0.1098E-14  0.1642E-04  0.5848E-07  0.1435E-02  0.1345E-03  0.1528E+02
   -1.500013   31.10865  0.1098E-14  0.1607E-04  0.6187E-07  0.1316E-02  0.1251E-03  0.2073E+02
   -1.550013   31.10945  0.1098E-14  0.1564E-04  0.6676E-07  0.1229E-02  0.1156E-03  0.3150E+02
   -1.600014   31.11032  0.1098E-14  0.1511E-04  0.7443E-07  0.1082E-02  0.1061E-03  0.5912E+02
   -1.650013   31.11145  0.1098E-14  0.1441E-04  0.8640E-07  0.9954E-03  0.9571E-04 -0.1964E+04
   -1.700013   31.11274  0.1098E-14  0.1345E-04  0.1076E-06  0.8147E-03  0.8531E-04  0.1324E+05
   -1.750012   31.11506  0.1098E-14  0.1225E-04  0.1417E-06  0.7301E-03  0.7154E-04  0.5859E+05
   -1.800010   31.11674  0.1098E-14  0.1068E-04  0.2176E-06  0.5022E-03  0.6153E-04  0.1132E+06
   -1.850009   31.12541  0.1098E-14  0.9073E-05  0.3576E-06  0.4706E-03  0.4288E-04  0.8661E+09
   -1.900007   31.12243  0.1098E-14  0.7220E-05  0.7519E-06  0.2146E-03  0.3547E-04 -0.1358E+06
   -1.950004   31.14661  0.1098E-14  0.5158E-05  0.1800E-05  0.2140E-03  0.1896E-04 -0.2943E+06
   -2.000001   31.14665  0.1098E-14  0.0000E+00  0.0000E+00  0.0000E+00  0.3647E-04  0.0000E+00
