 1 - depth, m
 2 - temperature, C
 3 - salinity, kg/kg
 4 - turbulent kinetic energy, m**2/s**2
 5 - dissipation rate, m**2/s**3
 6 - kinematic heat conductance, m**2/s
 7 - modulus of horizontal velocity, m/s
 8 - Richardson number, n/d
   -0.000000   30.16935  0.2338E-13  0.4658E-05  0.2841E-06  0.4964E-04  0.1589E-02  0.3483E+04
   -0.049997   30.19823  0.2338E-13  0.7981E-05  0.1264E-06  0.1745E-03  0.9085E-03  0.2275E+04
   -0.099994   30.20946  0.2338E-13  0.9690E-05  0.8687E-07  0.3954E-03  0.6628E-03  0.2056E+02
   -0.149992   30.21253  0.2338E-13  0.1076E-04  0.7295E-07  0.4751E-03  0.5854E-03  0.1003E+02
   -0.199991   30.21500  0.2338E-13  0.1159E-04  0.6480E-07  0.6348E-03  0.5226E-03  0.6457E+01
   -0.249989   30.21679  0.2338E-13  0.1225E-04  0.5947E-07  0.7588E-03  0.4756E-03  0.4754E+01
   -0.299989   30.21824  0.2338E-13  0.1280E-04  0.5568E-07  0.8825E-03  0.4364E-03  0.3795E+01
   -0.349988   30.21947  0.2338E-13  0.1325E-04  0.5285E-07  0.9946E-03  0.4029E-03  0.3235E+01
   -0.399988   30.22053  0.2338E-13  0.1363E-04  0.5064E-07  0.1097E-02  0.3733E-03  0.2895E+01
   -0.449988   30.22148  0.2338E-13  0.1396E-04  0.4886E-07  0.1193E-02  0.3473E-03  0.2705E+01
   -0.499988   30.22233  0.2338E-13  0.1425E-04  0.4738E-07  0.1280E-02  0.3242E-03  0.2645E+01
   -0.549989   30.22311  0.2338E-13  0.1450E-04  0.4615E-07  0.1361E-02  0.3036E-03  0.2596E+01
   -0.599990   30.22383  0.2338E-13  0.1471E-04  0.4512E-07  0.1434E-02  0.2849E-03  0.2613E+01
   -0.649991   30.22450  0.2338E-13  0.1490E-04  0.4426E-07  0.1499E-02  0.2679E-03  0.2630E+01
   -0.699992   30.22514  0.2338E-13  0.1506E-04  0.4353E-07  0.1557E-02  0.2523E-03  0.2708E+01
   -0.749993   30.22574  0.2338E-13  0.1519E-04  0.4292E-07  0.1608E-02  0.2379E-03  0.2779E+01
   -0.799995   30.22632  0.2338E-13  0.1530E-04  0.4243E-07  0.1651E-02  0.2244E-03  0.2918E+01
   -0.849996   30.22688  0.2338E-13  0.1539E-04  0.4203E-07  0.1687E-02  0.2119E-03  0.3047E+01
   -0.899998   30.22742  0.2338E-13  0.1546E-04  0.4173E-07  0.1714E-02  0.2002E-03  0.3257E+01
   -0.950000   30.22795  0.2338E-13  0.1551E-04  0.4153E-07  0.1734E-02  0.1891E-03  0.3462E+01
   -1.000001   30.22847  0.2338E-13  0.1553E-04  0.4142E-07  0.1745E-02  0.1786E-03  0.3770E+01
   -1.050003   30.22898  0.2338E-13  0.1554E-04  0.4141E-07  0.1747E-02  0.1687E-03  0.4244E+01
   -1.100005   30.22948  0.2338E-13  0.1553E-04  0.4150E-07  0.1828E-02  0.1592E-03  0.1426E+02
   -1.150006   30.22996  0.2338E-13  0.1549E-04  0.4173E-07  0.1673E-02  0.1508E-03  0.3188E+02
   -1.200008   30.23049  0.2338E-13  0.1543E-04  0.4207E-07  0.1694E-02  0.1420E-03  0.6125E+01
   -1.250010   30.23100  0.2338E-13  0.1535E-04  0.4257E-07  0.1665E-02  0.1336E-03  0.6592E+01
   -1.300011   30.23152  0.2338E-13  0.1524E-04  0.4327E-07  0.1617E-02  0.1256E-03  0.7650E+01
   -1.350012   30.23206  0.2338E-13  0.1510E-04  0.4421E-07  0.1560E-02  0.1178E-03  0.9225E+01
   -1.400013   30.23262  0.2338E-13  0.1492E-04  0.4547E-07  0.1486E-02  0.1102E-03  0.1129E+02
   -1.450014   30.23320  0.2338E-13  0.1471E-04  0.4717E-07  0.1410E-02  0.1027E-03  0.1448E+02
   -1.500015   30.23381  0.2338E-13  0.1444E-04  0.4951E-07  0.1301E-02  0.9539E-04  0.1946E+02
   -1.550015   30.23449  0.2338E-13  0.1412E-04  0.5278E-07  0.1218E-02  0.8804E-04  0.2776E+02
   -1.600015   30.23522  0.2338E-13  0.1372E-04  0.5773E-07  0.1074E-02  0.8086E-04  0.5102E+02
   -1.650015   30.23610  0.2338E-13  0.1320E-04  0.6530E-07  0.9960E-03  0.7319E-04  0.1578E+04
   -1.700014   30.23707  0.2338E-13  0.1249E-04  0.7885E-07  0.8125E-03  0.6579E-04  0.2648E+04
   -1.750013   30.23879  0.2338E-13  0.1154E-04  0.1011E-06  0.7378E-03  0.5596E-04  0.2483E+06
   -1.800012   30.24023  0.2338E-13  0.1024E-04  0.1478E-06  0.5148E-03  0.4826E-04  0.3710E+05
   -1.850010   30.24594  0.2338E-13  0.8735E-05  0.2365E-06  0.4710E-03  0.3497E-04  0.1666E+08
   -1.900008   30.24524  0.2338E-13  0.6917E-05  0.4925E-06  0.2138E-03  0.2831E-04 -0.3137E+07
   -1.950006   30.26346  0.2338E-13  0.4805E-05  0.1247E-05  0.1801E-03  0.1538E-04 -0.3685E+06
   -2.000003   30.26636  0.2338E-13  0.0000E+00  0.0000E+00  0.0000E+00  0.2742E-04  0.0000E+00
