 1 - depth, m
 2 - temperature, C
 3 - salinity, kg/kg
 4 - turbulent kinetic energy, m**2/s**2
 5 - dissipation rate, m**2/s**3
 6 - kinematic heat conductance, m**2/s
 7 - modulus of horizontal velocity, m/s
 8 - Richardson number, n/d
   -0.000000   29.42627  0.4675E-13  0.4467E-05  0.2633E-06  0.4806E-04  0.1652E-02  0.5132E+04
   -0.049997   29.45442  0.4675E-13  0.7660E-05  0.1172E-06  0.1736E-03  0.9348E-03  0.2038E+04
   -0.099994   29.46495  0.4675E-13  0.9279E-05  0.8091E-07  0.3872E-03  0.6852E-03  0.1909E+02
   -0.149992   29.46793  0.4675E-13  0.1030E-04  0.6801E-07  0.4692E-03  0.6045E-03  0.9320E+01
   -0.199991   29.47030  0.4675E-13  0.1109E-04  0.6046E-07  0.6242E-03  0.5394E-03  0.6011E+01
   -0.249989   29.47202  0.4675E-13  0.1173E-04  0.5552E-07  0.7464E-03  0.4906E-03  0.4426E+01
   -0.299989   29.47343  0.4675E-13  0.1225E-04  0.5201E-07  0.8674E-03  0.4499E-03  0.3536E+01
   -0.349988   29.47462  0.4675E-13  0.1269E-04  0.4938E-07  0.9773E-03  0.4151E-03  0.3017E+01
   -0.399988   29.47565  0.4675E-13  0.1305E-04  0.4734E-07  0.1078E-02  0.3843E-03  0.2701E+01
   -0.449988   29.47657  0.4675E-13  0.1337E-04  0.4569E-07  0.1172E-02  0.3572E-03  0.2528E+01
   -0.499988   29.47739  0.4675E-13  0.1365E-04  0.4433E-07  0.1258E-02  0.3333E-03  0.2473E+01
   -0.549989   29.47815  0.4675E-13  0.1389E-04  0.4320E-07  0.1337E-02  0.3119E-03  0.2432E+01
   -0.599990   29.47885  0.4675E-13  0.1410E-04  0.4225E-07  0.1408E-02  0.2925E-03  0.2449E+01
   -0.649991   29.47951  0.4675E-13  0.1428E-04  0.4146E-07  0.1473E-02  0.2748E-03  0.2470E+01
   -0.699992   29.48013  0.4675E-13  0.1444E-04  0.4080E-07  0.1530E-02  0.2586E-03  0.2544E+01
   -0.749993   29.48072  0.4675E-13  0.1457E-04  0.4025E-07  0.1580E-02  0.2437E-03  0.2617E+01
   -0.799995   29.48128  0.4675E-13  0.1468E-04  0.3980E-07  0.1622E-02  0.2298E-03  0.2748E+01
   -0.849996   29.48183  0.4675E-13  0.1477E-04  0.3945E-07  0.1657E-02  0.2168E-03  0.2876E+01
   -0.899998   29.48236  0.4675E-13  0.1484E-04  0.3919E-07  0.1684E-02  0.2046E-03  0.3074E+01
   -0.950000   29.48287  0.4675E-13  0.1489E-04  0.3902E-07  0.1703E-02  0.1932E-03  0.3276E+01
   -1.000002   29.48338  0.4675E-13  0.1492E-04  0.3894E-07  0.1715E-02  0.1824E-03  0.3564E+01
   -1.050003   29.48388  0.4675E-13  0.1493E-04  0.3894E-07  0.1717E-02  0.1721E-03  0.4027E+01
   -1.100005   29.48438  0.4675E-13  0.1492E-04  0.3905E-07  0.1795E-02  0.1623E-03  0.1356E+02
   -1.150007   29.48485  0.4675E-13  0.1489E-04  0.3928E-07  0.1648E-02  0.1536E-03  0.2995E+02
   -1.200008   29.48536  0.4675E-13  0.1484E-04  0.3962E-07  0.1666E-02  0.1446E-03  0.5810E+01
   -1.250010   29.48587  0.4675E-13  0.1477E-04  0.4011E-07  0.1636E-02  0.1359E-03  0.6238E+01
   -1.300011   29.48638  0.4675E-13  0.1467E-04  0.4079E-07  0.1590E-02  0.1277E-03  0.7257E+01
   -1.350012   29.48691  0.4675E-13  0.1454E-04  0.4169E-07  0.1534E-02  0.1196E-03  0.8707E+01
   -1.400013   29.48745  0.4675E-13  0.1438E-04  0.4288E-07  0.1462E-02  0.1118E-03  0.1066E+02
   -1.450014   29.48803  0.4675E-13  0.1418E-04  0.4449E-07  0.1387E-02  0.1041E-03  0.1356E+02
   -1.500015   29.48863  0.4675E-13  0.1393E-04  0.4668E-07  0.1280E-02  0.9664E-04  0.1812E+02
   -1.550015   29.48929  0.4675E-13  0.1363E-04  0.4974E-07  0.1197E-02  0.8912E-04  0.2543E+02
   -1.600015   29.49001  0.4675E-13  0.1325E-04  0.5429E-07  0.1055E-02  0.8177E-04  0.4338E+02
   -1.650015   29.49086  0.4675E-13  0.1276E-04  0.6123E-07  0.9793E-03  0.7400E-04  0.1614E+04
   -1.700015   29.49180  0.4675E-13  0.1210E-04  0.7375E-07  0.8015E-03  0.6647E-04 -0.2275E+04
   -1.750014   29.49344  0.4675E-13  0.1119E-04  0.9439E-07  0.7235E-03  0.5662E-04  0.5741E+05
   -1.800013   29.49490  0.4675E-13  0.9917E-05  0.1366E-06  0.5053E-03  0.4861E-04  0.2618E+06
   -1.850011   29.50027  0.4675E-13  0.8420E-05  0.2169E-06  0.4587E-03  0.3504E-04  0.8250E+08
   -1.900009   29.49992  0.4675E-13  0.6656E-05  0.4513E-06  0.2065E-03  0.2827E-04  0.3085E+06
   -1.950006   29.51784  0.4675E-13  0.4627E-05  0.1161E-05  0.1745E-03  0.1526E-04 -0.8186E+06
   -2.000003   29.52084  0.4675E-13  0.0000E+00  0.0000E+00  0.0000E+00  0.2719E-04  0.0000E+00
