 1 - depth, m
 2 - temperature, C
 3 - salinity, kg/kg
 4 - turbulent kinetic energy, m**2/s**2
 5 - dissipation rate, m**2/s**3
 6 - kinematic heat conductance, m**2/s
 7 - modulus of horizontal velocity, m/s
 8 - Richardson number, n/d
   -0.000000   29.81101  0.1370E-12  0.3822E-05  0.2026E-06  0.4421E-04  0.1681E-02  0.1273E+05
   -0.049997   29.83490  0.1370E-12  0.6515E-05  0.9008E-07  0.1571E-03  0.9462E-03  0.1027E+03
   -0.099994   29.84387  0.1370E-12  0.7854E-05  0.6206E-07  0.3609E-03  0.6846E-03  0.1787E+02
   -0.149992   29.84635  0.1370E-12  0.8680E-05  0.5230E-07  0.4368E-03  0.6023E-03  0.8348E+01
   -0.199991   29.84832  0.1370E-12  0.9321E-05  0.4650E-07  0.5753E-03  0.5359E-03  0.5403E+01
   -0.249989   29.84976  0.1370E-12  0.9833E-05  0.4265E-07  0.6878E-03  0.4857E-03  0.3960E+01
   -0.299989   29.85092  0.1370E-12  0.1025E-04  0.3988E-07  0.7970E-03  0.4438E-03  0.3152E+01
   -0.349988   29.85190  0.1370E-12  0.1060E-04  0.3780E-07  0.8970E-03  0.4079E-03  0.2682E+01
   -0.399988   29.85275  0.1370E-12  0.1089E-04  0.3617E-07  0.9888E-03  0.3762E-03  0.2391E+01
   -0.449988   29.85350  0.1370E-12  0.1115E-04  0.3484E-07  0.1074E-02  0.3483E-03  0.2234E+01
   -0.499988   29.85418  0.1370E-12  0.1137E-04  0.3374E-07  0.1154E-02  0.3237E-03  0.2179E+01
   -0.549989   29.85479  0.1370E-12  0.1156E-04  0.3283E-07  0.1226E-02  0.3017E-03  0.2141E+01
   -0.599990   29.85535  0.1370E-12  0.1173E-04  0.3206E-07  0.1293E-02  0.2819E-03  0.2150E+01
   -0.649991   29.85588  0.1370E-12  0.1188E-04  0.3141E-07  0.1353E-02  0.2640E-03  0.2169E+01
   -0.699992   29.85637  0.1370E-12  0.1201E-04  0.3086E-07  0.1407E-02  0.2475E-03  0.2228E+01
   -0.749993   29.85684  0.1370E-12  0.1212E-04  0.3041E-07  0.1454E-02  0.2324E-03  0.2294E+01
   -0.799995   29.85729  0.1370E-12  0.1222E-04  0.3004E-07  0.1495E-02  0.2183E-03  0.2403E+01
   -0.849997   29.85772  0.1370E-12  0.1230E-04  0.2975E-07  0.1530E-02  0.2053E-03  0.2519E+01
   -0.899998   29.85814  0.1370E-12  0.1236E-04  0.2953E-07  0.1558E-02  0.1931E-03  0.2686E+01
   -0.950000   29.85855  0.1370E-12  0.1241E-04  0.2938E-07  0.1579E-02  0.1817E-03  0.2865E+01
   -1.000002   29.85894  0.1370E-12  0.1245E-04  0.2929E-07  0.1593E-02  0.1709E-03  0.3109E+01
   -1.050003   29.85934  0.1370E-12  0.1247E-04  0.2928E-07  0.1600E-02  0.1607E-03  0.3527E+01
   -1.100005   29.85973  0.1370E-12  0.1248E-04  0.2934E-07  0.1651E-02  0.1510E-03  0.1213E+02
   -1.150007   29.86011  0.1370E-12  0.1247E-04  0.2949E-07  0.1575E-02  0.1423E-03  0.2519E+02
   -1.200008   29.86050  0.1370E-12  0.1245E-04  0.2971E-07  0.1570E-02  0.1337E-03  0.5015E+01
   -1.250010   29.86090  0.1370E-12  0.1241E-04  0.3005E-07  0.1547E-02  0.1253E-03  0.5372E+01
   -1.300011   29.86130  0.1370E-12  0.1236E-04  0.3050E-07  0.1512E-02  0.1172E-03  0.6214E+01
   -1.350012   29.86171  0.1370E-12  0.1228E-04  0.3110E-07  0.1466E-02  0.1095E-03  0.7379E+01
   -1.400013   29.86214  0.1370E-12  0.1218E-04  0.3190E-07  0.1409E-02  0.1020E-03  0.8904E+01
   -1.450014   29.86259  0.1370E-12  0.1206E-04  0.3294E-07  0.1343E-02  0.9474E-04  0.1112E+02
   -1.500015   29.86306  0.1370E-12  0.1190E-04  0.3432E-07  0.1259E-02  0.8765E-04  0.1435E+02
   -1.550015   29.86356  0.1370E-12  0.1171E-04  0.3619E-07  0.1176E-02  0.8068E-04  0.1943E+02
   -1.600015   29.86410  0.1370E-12  0.1146E-04  0.3882E-07  0.1056E-02  0.7384E-04  0.2862E+02
   -1.650015   29.86472  0.1370E-12  0.1116E-04  0.4265E-07  0.9695E-03  0.6690E-04  0.4943E+02
   -1.700015   29.86541  0.1370E-12  0.1075E-04  0.4907E-07  0.8116E-03  0.6017E-04  0.1170E+03
   -1.750014   29.86637  0.1370E-12  0.1018E-04  0.5983E-07  0.7269E-03  0.5246E-04  0.3399E+04
   -1.800013   29.86744  0.1370E-12  0.9343E-05  0.8126E-07  0.5276E-03  0.4530E-04  0.1297E+05
   -1.850011   29.87011  0.1370E-12  0.8178E-05  0.1222E-06  0.4581E-03  0.3493E-04  0.3582E+07
   -1.900009   29.87124  0.1370E-12  0.6534E-05  0.2470E-06  0.2060E-03  0.2771E-04  0.1008E+07
   -1.950006   29.88276  0.1370E-12  0.4373E-05  0.6579E-06  0.1345E-03  0.1565E-04 -0.6126E+06
   -2.000003   29.88831  0.1370E-12  0.0000E+00  0.0000E+00  0.0000E+00  0.2393E-04  0.0000E+00
