 1 - depth, m
 2 - temperature, C
 3 - salinity, kg/kg
 4 - turbulent kinetic energy, m**2/s**2
 5 - dissipation rate, m**2/s**3
 6 - kinematic heat conductance, m**2/s
 7 - modulus of horizontal velocity, m/s
 8 - Richardson number, n/d
   -0.000000   29.64325  0.4233E-14  0.4679E-05  0.2842E-06  0.4982E-04  0.1860E-02  0.4942E+04
   -0.049997   29.67250  0.4233E-14  0.7946E-05  0.1266E-06  0.1722E-03  0.1065E-02  0.8197E+03
   -0.099994   29.68396  0.4233E-14  0.9636E-05  0.8679E-07  0.3909E-03  0.7768E-03  0.1363E+02
   -0.149992   29.68712  0.4233E-14  0.1069E-04  0.7279E-07  0.4701E-03  0.6856E-03  0.6627E+01
   -0.199991   29.68964  0.4233E-14  0.1151E-04  0.6458E-07  0.6277E-03  0.6116E-03  0.4253E+01
   -0.249989   29.69148  0.4233E-14  0.1216E-04  0.5920E-07  0.7508E-03  0.5561E-03  0.3134E+01
   -0.299989   29.69297  0.4233E-14  0.1270E-04  0.5537E-07  0.8731E-03  0.5101E-03  0.2491E+01
   -0.349988   29.69423  0.4233E-14  0.1314E-04  0.5250E-07  0.9840E-03  0.4706E-03  0.2130E+01
   -0.399988   29.69531  0.4233E-14  0.1351E-04  0.5026E-07  0.1086E-02  0.4357E-03  0.1897E+01
   -0.449988   29.69627  0.4233E-14  0.1383E-04  0.4844E-07  0.1180E-02  0.4051E-03  0.1782E+01
   -0.499988   29.69714  0.4233E-14  0.1410E-04  0.4693E-07  0.1267E-02  0.3780E-03  0.1734E+01
   -0.549989   29.69793  0.4233E-14  0.1434E-04  0.4567E-07  0.1346E-02  0.3537E-03  0.1712E+01
   -0.599990   29.69867  0.4233E-14  0.1455E-04  0.4461E-07  0.1418E-02  0.3318E-03  0.1713E+01
   -0.649991   29.69935  0.4233E-14  0.1472E-04  0.4370E-07  0.1483E-02  0.3118E-03  0.1736E+01
   -0.699992   29.70000  0.4233E-14  0.1487E-04  0.4294E-07  0.1540E-02  0.2935E-03  0.1775E+01
   -0.749993   29.70061  0.4233E-14  0.1500E-04  0.4230E-07  0.1590E-02  0.2765E-03  0.1834E+01
   -0.799995   29.70120  0.4233E-14  0.1510E-04  0.4176E-07  0.1633E-02  0.2608E-03  0.1911E+01
   -0.849996   29.70176  0.4233E-14  0.1518E-04  0.4133E-07  0.1668E-02  0.2461E-03  0.2010E+01
   -0.899998   29.70231  0.4233E-14  0.1523E-04  0.4099E-07  0.1695E-02  0.2323E-03  0.2130E+01
   -0.950000   29.70284  0.4233E-14  0.1527E-04  0.4074E-07  0.1714E-02  0.2194E-03  0.2280E+01
   -1.000002   29.70336  0.4233E-14  0.1529E-04  0.4059E-07  0.1725E-02  0.2071E-03  0.2460E+01
   -1.050003   29.70387  0.4233E-14  0.1528E-04  0.4053E-07  0.1727E-02  0.1955E-03  0.2788E+01
   -1.100005   29.70438  0.4233E-14  0.1526E-04  0.4057E-07  0.1809E-02  0.1844E-03  0.9272E+01
   -1.150007   29.70486  0.4233E-14  0.1521E-04  0.4074E-07  0.1652E-02  0.1745E-03  0.2080E+02
   -1.200008   29.70538  0.4233E-14  0.1514E-04  0.4103E-07  0.1674E-02  0.1643E-03  0.4014E+01
   -1.250010   29.70589  0.4233E-14  0.1505E-04  0.4147E-07  0.1644E-02  0.1545E-03  0.4273E+01
   -1.300011   29.70641  0.4233E-14  0.1493E-04  0.4210E-07  0.1597E-02  0.1451E-03  0.4992E+01
   -1.350012   29.70694  0.4233E-14  0.1478E-04  0.4296E-07  0.1540E-02  0.1360E-03  0.5959E+01
   -1.400013   29.70749  0.4233E-14  0.1460E-04  0.4414E-07  0.1466E-02  0.1271E-03  0.7335E+01
   -1.450014   29.70806  0.4233E-14  0.1438E-04  0.4574E-07  0.1390E-02  0.1185E-03  0.9307E+01
   -1.500015   29.70867  0.4233E-14  0.1410E-04  0.4796E-07  0.1281E-02  0.1099E-03  0.1254E+02
   -1.550015   29.70933  0.4233E-14  0.1377E-04  0.5109E-07  0.1197E-02  0.1014E-03  0.1767E+02
   -1.600015   29.71004  0.4233E-14  0.1337E-04  0.5582E-07  0.1055E-02  0.9303E-04  0.3117E+02
   -1.650015   29.71089  0.4233E-14  0.1285E-04  0.6311E-07  0.9779E-03  0.8419E-04  0.1612E+03
   -1.700014   29.71184  0.4233E-14  0.1214E-04  0.7637E-07  0.7994E-03  0.7557E-04 -0.8386E+03
   -1.750014   29.71351  0.4233E-14  0.1117E-04  0.9829E-07  0.7186E-03  0.6420E-04  0.2291E+05
   -1.800012   29.71498  0.4233E-14  0.9845E-05  0.1436E-06  0.5006E-03  0.5503E-04 -0.1825E+04
   -1.850011   29.72059  0.4233E-14  0.8323E-05  0.2294E-06  0.4561E-03  0.3951E-04  0.1854E+07
   -1.900009   29.71983  0.4233E-14  0.6551E-05  0.4763E-06  0.2070E-03  0.3185E-04  0.2406E+06
   -1.950006   29.73774  0.4233E-14  0.4562E-05  0.1212E-05  0.1807E-03  0.1702E-04 -0.4993E+06
   -2.000003   29.73973  0.4233E-14  0.0000E+00  0.0000E+00  0.0000E+00  0.3114E-04  0.0000E+00
