 1 - depth, m
 2 - temperature, C
 3 - salinity, kg/kg
 4 - turbulent kinetic energy, m**2/s**2
 5 - dissipation rate, m**2/s**3
 6 - kinematic heat conductance, m**2/s
 7 - modulus of horizontal velocity, m/s
 8 - Richardson number, n/d
   -0.000000   30.58521  0.2574E-14  0.4919E-05  0.3100E-06  0.5057E-04  0.1228E-02  0.4808E+04
   -0.049997   30.61685  0.2574E-14  0.8475E-05  0.1380E-06  0.1807E-03  0.6987E-03  0.6450E+03
   -0.099994   30.62890  0.2574E-14  0.1028E-04  0.9516E-07  0.4045E-03  0.5128E-03  0.3244E+02
   -0.149992   30.63223  0.2574E-14  0.1141E-04  0.7994E-07  0.4855E-03  0.4533E-03  0.1592E+02
   -0.199991   30.63488  0.2574E-14  0.1228E-04  0.7099E-07  0.6489E-03  0.4050E-03  0.1022E+02
   -0.249989   30.63681  0.2574E-14  0.1298E-04  0.6513E-07  0.7748E-03  0.3689E-03  0.7557E+01
   -0.299988   30.63837  0.2574E-14  0.1354E-04  0.6094E-07  0.9009E-03  0.3389E-03  0.6010E+01
   -0.349988   30.63969  0.2574E-14  0.1401E-04  0.5780E-07  0.1015E-02  0.3131E-03  0.5140E+01
   -0.399988   30.64083  0.2574E-14  0.1440E-04  0.5535E-07  0.1119E-02  0.2903E-03  0.4576E+01
   -0.449988   30.64183  0.2574E-14  0.1474E-04  0.5335E-07  0.1215E-02  0.2703E-03  0.4297E+01
   -0.499988   30.64274  0.2574E-14  0.1503E-04  0.5170E-07  0.1304E-02  0.2525E-03  0.4175E+01
   -0.549989   30.64358  0.2574E-14  0.1528E-04  0.5031E-07  0.1385E-02  0.2366E-03  0.4119E+01
   -0.599989   30.64435  0.2574E-14  0.1549E-04  0.4914E-07  0.1458E-02  0.2222E-03  0.4116E+01
   -0.649991   30.64507  0.2574E-14  0.1568E-04  0.4814E-07  0.1524E-02  0.2091E-03  0.4164E+01
   -0.699992   30.64574  0.2574E-14  0.1583E-04  0.4730E-07  0.1582E-02  0.1970E-03  0.4254E+01
   -0.749993   30.64639  0.2574E-14  0.1595E-04  0.4659E-07  0.1632E-02  0.1859E-03  0.4389E+01
   -0.799995   30.64700  0.2574E-14  0.1605E-04  0.4600E-07  0.1674E-02  0.1755E-03  0.4569E+01
   -0.849996   30.64759  0.2574E-14  0.1613E-04  0.4552E-07  0.1709E-02  0.1658E-03  0.4798E+01
   -0.899998   30.64816  0.2574E-14  0.1618E-04  0.4514E-07  0.1735E-02  0.1567E-03  0.5083E+01
   -0.949999   30.64872  0.2574E-14  0.1621E-04  0.4486E-07  0.1753E-02  0.1481E-03  0.5437E+01
   -1.000001   30.64927  0.2574E-14  0.1622E-04  0.4470E-07  0.1762E-02  0.1400E-03  0.5864E+01
   -1.050003   30.64980  0.2574E-14  0.1621E-04  0.4463E-07  0.1762E-02  0.1322E-03  0.6638E+01
   -1.100005   30.65034  0.2574E-14  0.1617E-04  0.4469E-07  0.1856E-02  0.1249E-03  0.2180E+02
   -1.150006   30.65084  0.2574E-14  0.1611E-04  0.4489E-07  0.1666E-02  0.1183E-03  0.5074E+02
   -1.200008   30.65139  0.2574E-14  0.1602E-04  0.4522E-07  0.1698E-02  0.1115E-03  0.9628E+01
   -1.250009   30.65193  0.2574E-14  0.1591E-04  0.4573E-07  0.1667E-02  0.1049E-03  0.1023E+02
   -1.300011   30.65247  0.2574E-14  0.1577E-04  0.4647E-07  0.1615E-02  0.9864E-04  0.1200E+02
   -1.350012   30.65303  0.2574E-14  0.1559E-04  0.4748E-07  0.1553E-02  0.9253E-04  0.1439E+02
   -1.400013   30.65361  0.2574E-14  0.1538E-04  0.4887E-07  0.1474E-02  0.8656E-04  0.1787E+02
   -1.450014   30.65422  0.2574E-14  0.1512E-04  0.5079E-07  0.1394E-02  0.8070E-04  0.2292E+02
   -1.500014   30.65486  0.2574E-14  0.1480E-04  0.5347E-07  0.1281E-02  0.7493E-04  0.3148E+02
   -1.550015   30.65557  0.2574E-14  0.1442E-04  0.5733E-07  0.1195E-02  0.6913E-04  0.4598E+02
   -1.600015   30.65634  0.2574E-14  0.1394E-04  0.6332E-07  0.1053E-02  0.6341E-04  0.1038E+03
   -1.650014   30.65729  0.2574E-14  0.1333E-04  0.7276E-07  0.9717E-03  0.5727E-04  0.2088E+03
   -1.700014   30.65839  0.2574E-14  0.1248E-04  0.8957E-07  0.7932E-03  0.5110E-04 -0.1151E+05
   -1.750013   30.66031  0.2574E-14  0.1137E-04  0.1172E-06  0.7109E-03  0.4300E-04  0.7640E+05
   -1.800012   30.66191  0.2574E-14  0.9899E-05  0.1791E-06  0.4892E-03  0.3671E-04 -0.1525E+05
   -1.850010   30.66880  0.2574E-14  0.8356E-05  0.2903E-06  0.4576E-03  0.2570E-04  0.7968E+08
   -1.900008   30.66678  0.2574E-14  0.6619E-05  0.6144E-06  0.2071E-03  0.2107E-04 -0.2399E+06
   -1.950005   30.68711  0.2574E-14  0.4673E-05  0.1506E-05  0.2002E-03  0.1113E-04 -0.7003E+06
   -2.000002   30.68784  0.2574E-14  0.0000E+00  0.0000E+00  0.0000E+00  0.2150E-04  0.0000E+00
