 1 - depth, m
 2 - temperature, C
 3 - salinity, kg/kg
 4 - turbulent kinetic energy, m**2/s**2
 5 - dissipation rate, m**2/s**3
 6 - kinematic heat conductance, m**2/s
 7 - modulus of horizontal velocity, m/s
 8 - Richardson number, n/d
   -0.000000   30.00536  0.1336E-12  0.4443E-05  0.2503E-06  0.4744E-04  0.2148E-02  0.5051E+04
   -0.049997   30.03330  0.1336E-12  0.7441E-05  0.1113E-06  0.1710E-03  0.1196E-02  0.3256E+03
   -0.099994   30.04322  0.1336E-12  0.8921E-05  0.7706E-07  0.3700E-03  0.8895E-03  0.1141E+02
   -0.149992   30.04623  0.1336E-12  0.9851E-05  0.6465E-07  0.4528E-03  0.7832E-03  0.5484E+01
   -0.199991   30.04857  0.1336E-12  0.1057E-04  0.5730E-07  0.5964E-03  0.6987E-03  0.3532E+01
   -0.249989   30.05028  0.1336E-12  0.1114E-04  0.5243E-07  0.7133E-03  0.6347E-03  0.2592E+01
   -0.299989   30.05167  0.1336E-12  0.1160E-04  0.4893E-07  0.8261E-03  0.5814E-03  0.2056E+01
   -0.349988   30.05283  0.1336E-12  0.1198E-04  0.4627E-07  0.9284E-03  0.5356E-03  0.1768E+01
   -0.399988   30.05383  0.1336E-12  0.1230E-04  0.4417E-07  0.1024E-02  0.4947E-03  0.1602E+01
   -0.449988   30.05472  0.1336E-12  0.1258E-04  0.4243E-07  0.1116E-02  0.4583E-03  0.1526E+01
   -0.499988   30.05551  0.1336E-12  0.1282E-04  0.4097E-07  0.1202E-02  0.4257E-03  0.1495E+01
   -0.549989   30.05623  0.1336E-12  0.1303E-04  0.3974E-07  0.1281E-02  0.3965E-03  0.1477E+01
   -0.599990   30.05689  0.1336E-12  0.1321E-04  0.3869E-07  0.1353E-02  0.3701E-03  0.1472E+01
   -0.649991   30.05750  0.1336E-12  0.1336E-04  0.3779E-07  0.1417E-02  0.3462E-03  0.1477E+01
   -0.699992   30.05807  0.1336E-12  0.1348E-04  0.3702E-07  0.1474E-02  0.3244E-03  0.1493E+01
   -0.749993   30.05861  0.1336E-12  0.1358E-04  0.3637E-07  0.1524E-02  0.3044E-03  0.1519E+01
   -0.799995   30.05913  0.1336E-12  0.1366E-04  0.3583E-07  0.1565E-02  0.2861E-03  0.1559E+01
   -0.849996   30.05962  0.1336E-12  0.1372E-04  0.3537E-07  0.1599E-02  0.2692E-03  0.1615E+01
   -0.899998   30.06010  0.1336E-12  0.1376E-04  0.3500E-07  0.1626E-02  0.2535E-03  0.1693E+01
   -0.950000   30.06056  0.1336E-12  0.1379E-04  0.3471E-07  0.1645E-02  0.2389E-03  0.1798E+01
   -1.000002   30.06101  0.1336E-12  0.1379E-04  0.3450E-07  0.1657E-02  0.2251E-03  0.1930E+01
   -1.050003   30.06145  0.1336E-12  0.1378E-04  0.3437E-07  0.1660E-02  0.2121E-03  0.2180E+01
   -1.100005   30.06188  0.1336E-12  0.1375E-04  0.3433E-07  0.1730E-02  0.1997E-03  0.7312E+01
   -1.150007   30.06229  0.1336E-12  0.1370E-04  0.3439E-07  0.1606E-02  0.1886E-03  0.1592E+02
   -1.200008   30.06273  0.1336E-12  0.1364E-04  0.3454E-07  0.1618E-02  0.1774E-03  0.3089E+01
   -1.250010   30.06317  0.1336E-12  0.1355E-04  0.3482E-07  0.1592E-02  0.1665E-03  0.3263E+01
   -1.300011   30.06360  0.1336E-12  0.1345E-04  0.3525E-07  0.1550E-02  0.1561E-03  0.3781E+01
   -1.350012   30.06405  0.1336E-12  0.1331E-04  0.3585E-07  0.1499E-02  0.1461E-03  0.4471E+01
   -1.400013   30.06450  0.1336E-12  0.1316E-04  0.3670E-07  0.1434E-02  0.1363E-03  0.5431E+01
   -1.450014   30.06498  0.1336E-12  0.1297E-04  0.3786E-07  0.1362E-02  0.1268E-03  0.6798E+01
   -1.500015   30.06547  0.1336E-12  0.1274E-04  0.3947E-07  0.1266E-02  0.1175E-03  0.8933E+01
   -1.550015   30.06601  0.1336E-12  0.1246E-04  0.4174E-07  0.1181E-02  0.1083E-03  0.1232E+02
   -1.600015   30.06658  0.1336E-12  0.1213E-04  0.4511E-07  0.1053E-02  0.9922E-04  0.1947E+02
   -1.650015   30.06724  0.1336E-12  0.1170E-04  0.5031E-07  0.9684E-03  0.8987E-04  0.1324E+03
   -1.700015   30.06799  0.1336E-12  0.1114E-04  0.5958E-07  0.8035E-03  0.8066E-04  0.3100E+03
   -1.750014   30.06917  0.1336E-12  0.1036E-04  0.7520E-07  0.7179E-03  0.6934E-04  0.4557E+04
   -1.800012   30.07042  0.1336E-12  0.9261E-05  0.1069E-06  0.5135E-03  0.5930E-04  0.3247E+05
   -1.850011   30.07395  0.1336E-12  0.7935E-05  0.1658E-06  0.4543E-03  0.4403E-04  0.6049E+06
   -1.900009   30.07416  0.1336E-12  0.6262E-05  0.3407E-06  0.2027E-03  0.3525E-04 -0.3377E+06
   -1.950006   30.08748  0.1336E-12  0.4262E-05  0.8861E-06  0.1591E-03  0.1924E-04 -0.1108E+06
   -2.000003   30.09083  0.1336E-12  0.0000E+00  0.0000E+00  0.0000E+00  0.3295E-04  0.0000E+00
