 1 - depth, m
 2 - temperature, C
 3 - salinity, kg/kg
 4 - turbulent kinetic energy, m**2/s**2
 5 - dissipation rate, m**2/s**3
 6 - kinematic heat conductance, m**2/s
 7 - modulus of horizontal velocity, m/s
 8 - Richardson number, n/d
   -0.000000   30.05403  0.6787E-14  0.4575E-05  0.2765E-06  0.4920E-04  0.1421E-02  0.6808E+04
   -0.049997   30.08265  0.6787E-14  0.7882E-05  0.1232E-06  0.1745E-03  0.8084E-03  0.6275E+03
   -0.099994   30.09365  0.6787E-14  0.9569E-05  0.8487E-07  0.3941E-03  0.5908E-03  0.2308E+02
   -0.149992   30.09668  0.6787E-14  0.1063E-04  0.7133E-07  0.4744E-03  0.5216E-03  0.1126E+02
   -0.199991   30.09910  0.6787E-14  0.1145E-04  0.6340E-07  0.6335E-03  0.4655E-03  0.7245E+01
   -0.249989   30.10086  0.6787E-14  0.1211E-04  0.5821E-07  0.7575E-03  0.4236E-03  0.5344E+01
   -0.299989   30.10230  0.6787E-14  0.1265E-04  0.5452E-07  0.8809E-03  0.3887E-03  0.4261E+01
   -0.349988   30.10350  0.6787E-14  0.1310E-04  0.5176E-07  0.9928E-03  0.3588E-03  0.3641E+01
   -0.399988   30.10455  0.6787E-14  0.1348E-04  0.4962E-07  0.1095E-02  0.3323E-03  0.3251E+01
   -0.449988   30.10548  0.6787E-14  0.1381E-04  0.4788E-07  0.1191E-02  0.3091E-03  0.3047E+01
   -0.499988   30.10632  0.6787E-14  0.1409E-04  0.4645E-07  0.1278E-02  0.2885E-03  0.2969E+01
   -0.549989   30.10709  0.6787E-14  0.1434E-04  0.4526E-07  0.1359E-02  0.2701E-03  0.2924E+01
   -0.599990   30.10780  0.6787E-14  0.1456E-04  0.4426E-07  0.1432E-02  0.2534E-03  0.2933E+01
   -0.649991   30.10846  0.6787E-14  0.1475E-04  0.4342E-07  0.1498E-02  0.2383E-03  0.2963E+01
   -0.699992   30.10909  0.6787E-14  0.1491E-04  0.4272E-07  0.1556E-02  0.2243E-03  0.3039E+01
   -0.749993   30.10968  0.6787E-14  0.1504E-04  0.4214E-07  0.1607E-02  0.2115E-03  0.3133E+01
   -0.799995   30.11025  0.6787E-14  0.1516E-04  0.4167E-07  0.1650E-02  0.1995E-03  0.3274E+01
   -0.849996   30.11080  0.6787E-14  0.1525E-04  0.4129E-07  0.1686E-02  0.1884E-03  0.3435E+01
   -0.899998   30.11134  0.6787E-14  0.1532E-04  0.4101E-07  0.1714E-02  0.1779E-03  0.3653E+01
   -0.950000   30.11186  0.6787E-14  0.1538E-04  0.4083E-07  0.1735E-02  0.1680E-03  0.3902E+01
   -1.000001   30.11237  0.6787E-14  0.1541E-04  0.4073E-07  0.1747E-02  0.1587E-03  0.4224E+01
   -1.050003   30.11287  0.6787E-14  0.1542E-04  0.4073E-07  0.1750E-02  0.1498E-03  0.4780E+01
   -1.100005   30.11337  0.6787E-14  0.1541E-04  0.4084E-07  0.1826E-02  0.1414E-03  0.1608E+02
   -1.150006   30.11385  0.6787E-14  0.1538E-04  0.4107E-07  0.1683E-02  0.1338E-03  0.3520E+02
   -1.200008   30.11437  0.6787E-14  0.1533E-04  0.4141E-07  0.1700E-02  0.1261E-03  0.6857E+01
   -1.250010   30.11487  0.6787E-14  0.1526E-04  0.4192E-07  0.1671E-02  0.1186E-03  0.7342E+01
   -1.300011   30.11539  0.6787E-14  0.1516E-04  0.4261E-07  0.1625E-02  0.1115E-03  0.8546E+01
   -1.350012   30.11592  0.6787E-14  0.1503E-04  0.4354E-07  0.1569E-02  0.1045E-03  0.1022E+02
   -1.400013   30.11647  0.6787E-14  0.1486E-04  0.4478E-07  0.1497E-02  0.9777E-04  0.1253E+02
   -1.450014   30.11704  0.6787E-14  0.1466E-04  0.4644E-07  0.1422E-02  0.9114E-04  0.1591E+02
   -1.500015   30.11765  0.6787E-14  0.1441E-04  0.4871E-07  0.1317E-02  0.8465E-04  0.2130E+02
   -1.550015   30.11832  0.6787E-14  0.1411E-04  0.5189E-07  0.1231E-02  0.7815E-04  0.3009E+02
   -1.600015   30.11903  0.6787E-14  0.1372E-04  0.5665E-07  0.1093E-02  0.7178E-04  0.1365E+04
   -1.650015   30.11989  0.6787E-14  0.1323E-04  0.6393E-07  0.1009E-02  0.6503E-04  0.2812E+03
   -1.700014   30.12086  0.6787E-14  0.1256E-04  0.7676E-07  0.8322E-03  0.5842E-04  0.1850E+04
   -1.750013   30.12247  0.6787E-14  0.1166E-04  0.9798E-07  0.7493E-03  0.4999E-04  0.7336E+05
   -1.800012   30.12402  0.6787E-14  0.1042E-04  0.1417E-06  0.5325E-03  0.4299E-04  0.7081E+05
   -1.850010   30.12917  0.6787E-14  0.9002E-05  0.2232E-06  0.4858E-03  0.3177E-04  0.1552E+08
   -1.900008   30.12868  0.6787E-14  0.7225E-05  0.4599E-06  0.2206E-03  0.2587E-04 -0.8249E+05
   -1.950006   30.14606  0.6787E-14  0.4979E-05  0.1173E-05  0.1733E-03  0.1444E-04 -0.5105E+06
   -2.000003   30.14933  0.6787E-14  0.0000E+00  0.0000E+00  0.0000E+00  0.2444E-04  0.0000E+00
