 1 - depth, m
 2 - temperature, C
 3 - salinity, kg/kg
 4 - turbulent kinetic energy, m**2/s**2
 5 - dissipation rate, m**2/s**3
 6 - kinematic heat conductance, m**2/s
 7 - modulus of horizontal velocity, m/s
 8 - Richardson number, n/d
   -0.000000   30.22094  0.5655E-14  0.4748E-05  0.2894E-06  0.4983E-04  0.1815E-02  0.5882E+04
   -0.049997   30.25041  0.5655E-14  0.8074E-05  0.1288E-06  0.1756E-03  0.1034E-02  0.2410E+03
   -0.099994   30.26165  0.5655E-14  0.9776E-05  0.8857E-07  0.3928E-03  0.7585E-03  0.1669E+02
   -0.149992   30.26481  0.5655E-14  0.1084E-04  0.7429E-07  0.4744E-03  0.6697E-03  0.8156E+01
   -0.199991   30.26732  0.5655E-14  0.1168E-04  0.6593E-07  0.6326E-03  0.5978E-03  0.5240E+01
   -0.249989   30.26915  0.5655E-14  0.1234E-04  0.6045E-07  0.7564E-03  0.5440E-03  0.3850E+01
   -0.299988   30.27064  0.5656E-14  0.1288E-04  0.5655E-07  0.8795E-03  0.4992E-03  0.3070E+01
   -0.349988   30.27188  0.5656E-14  0.1333E-04  0.5362E-07  0.9912E-03  0.4608E-03  0.2612E+01
   -0.399988   30.27297  0.5656E-14  0.1370E-04  0.5135E-07  0.1093E-02  0.4269E-03  0.2336E+01
   -0.449988   30.27392  0.5656E-14  0.1403E-04  0.4950E-07  0.1188E-02  0.3971E-03  0.2181E+01
   -0.499988   30.27479  0.5656E-14  0.1431E-04  0.4797E-07  0.1275E-02  0.3706E-03  0.2133E+01
   -0.549989   30.27558  0.5656E-14  0.1455E-04  0.4669E-07  0.1355E-02  0.3470E-03  0.2092E+01
   -0.599990   30.27631  0.5656E-14  0.1476E-04  0.4561E-07  0.1428E-02  0.3256E-03  0.2105E+01
   -0.649991   30.27700  0.5656E-14  0.1494E-04  0.4470E-07  0.1493E-02  0.3062E-03  0.2117E+01
   -0.699992   30.27764  0.5656E-14  0.1509E-04  0.4393E-07  0.1550E-02  0.2882E-03  0.2177E+01
   -0.749993   30.27825  0.5656E-14  0.1522E-04  0.4328E-07  0.1600E-02  0.2717E-03  0.2232E+01
   -0.799995   30.27884  0.5656E-14  0.1532E-04  0.4275E-07  0.1643E-02  0.2564E-03  0.2341E+01
   -0.849996   30.27940  0.5656E-14  0.1540E-04  0.4232E-07  0.1678E-02  0.2420E-03  0.2441E+01
   -0.899998   30.27995  0.5656E-14  0.1546E-04  0.4199E-07  0.1704E-02  0.2286E-03  0.2609E+01
   -0.950000   30.28048  0.5656E-14  0.1550E-04  0.4175E-07  0.1723E-02  0.2159E-03  0.2766E+01
   -1.000001   30.28100  0.5656E-14  0.1552E-04  0.4161E-07  0.1734E-02  0.2039E-03  0.3013E+01
   -1.050003   30.28152  0.5656E-14  0.1551E-04  0.4157E-07  0.1735E-02  0.1926E-03  0.3380E+01
   -1.100005   30.28203  0.5656E-14  0.1549E-04  0.4163E-07  0.1820E-02  0.1817E-03  0.1131E+02
   -1.150006   30.28251  0.5656E-14  0.1544E-04  0.4183E-07  0.1654E-02  0.1720E-03  0.2569E+02
   -1.200008   30.28304  0.5656E-14  0.1537E-04  0.4214E-07  0.1678E-02  0.1620E-03  0.4887E+01
   -1.250009   30.28355  0.5656E-14  0.1528E-04  0.4263E-07  0.1648E-02  0.1524E-03  0.5254E+01
   -1.300011   30.28408  0.5656E-14  0.1515E-04  0.4331E-07  0.1600E-02  0.1432E-03  0.6100E+01
   -1.350012   30.28461  0.5656E-14  0.1500E-04  0.4423E-07  0.1542E-02  0.1342E-03  0.7357E+01
   -1.400013   30.28517  0.5656E-14  0.1481E-04  0.4550E-07  0.1465E-02  0.1255E-03  0.9039E+01
   -1.450014   30.28575  0.5656E-14  0.1458E-04  0.4721E-07  0.1390E-02  0.1170E-03  0.1158E+02
   -1.500014   30.28637  0.5656E-14  0.1430E-04  0.4960E-07  0.1278E-02  0.1086E-03  0.1569E+02
   -1.550015   30.28704  0.5656E-14  0.1396E-04  0.5297E-07  0.1197E-02  0.1002E-03  0.2241E+02
   -1.600015   30.28777  0.5656E-14  0.1353E-04  0.5817E-07  0.1051E-02  0.9194E-04  0.4418E+02
   -1.650015   30.28867  0.5656E-14  0.1299E-04  0.6618E-07  0.9740E-03  0.8302E-04  0.1417E+04
   -1.700014   30.28965  0.5656E-14  0.1223E-04  0.8056E-07  0.7930E-03  0.7448E-04 -0.6446E+04
   -1.750013   30.29145  0.5656E-14  0.1123E-04  0.1043E-06  0.7165E-03  0.6289E-04  0.9447E+04
   -1.800012   30.29287  0.5656E-14  0.9895E-05  0.1538E-06  0.4997E-03  0.5412E-04  0.1968E+05
   -1.850010   30.29897  0.5656E-14  0.8371E-05  0.2485E-06  0.4571E-03  0.3861E-04  0.9412E+08
   -1.900008   30.29783  0.5656E-14  0.6574E-05  0.5179E-06  0.2047E-03  0.3127E-04 -0.1149E+07
   -1.950006   30.31645  0.5656E-14  0.4588E-05  0.1295E-05  0.1867E-03  0.1662E-04 -0.2621E+06
   -2.000003   30.31828  0.5656E-14  0.0000E+00  0.0000E+00  0.0000E+00  0.3097E-04  0.0000E+00
