 1 - depth, m
 2 - temperature, C
 3 - salinity, kg/kg
 4 - turbulent kinetic energy, m**2/s**2
 5 - dissipation rate, m**2/s**3
 6 - kinematic heat conductance, m**2/s
 7 - modulus of horizontal velocity, m/s
 8 - Richardson number, n/d
   -0.000000   31.65642  0.1098E-14  0.5379E-05  0.3597E-06  0.5333E-04  0.6447E-03  0.1957E+05
   -0.049997   31.69087  0.1098E-14  0.9386E-05  0.1595E-06  0.1902E-03  0.3695E-03  0.6050E+05
   -0.099994   31.70376  0.1098E-14  0.1138E-04  0.1098E-06  0.4335E-03  0.2695E-03  0.1377E+03
   -0.149992   31.70726  0.1098E-14  0.1263E-04  0.9243E-07  0.5087E-03  0.2393E-03  0.6878E+02
   -0.199990   31.71011  0.1098E-14  0.1360E-04  0.8222E-07  0.6849E-03  0.2142E-03  0.4466E+02
   -0.249989   31.71217  0.1098E-14  0.1438E-04  0.7554E-07  0.8161E-03  0.1956E-03  0.3343E+02
   -0.299988   31.71384  0.1098E-14  0.1501E-04  0.7077E-07  0.9489E-03  0.1800E-03  0.2664E+02
   -0.349988   31.71525  0.1098E-14  0.1553E-04  0.6721E-07  0.1068E-02  0.1667E-03  0.2296E+02
   -0.399987   31.71647  0.1098E-14  0.1597E-04  0.6444E-07  0.1177E-02  0.1549E-03  0.2039E+02
   -0.449987   31.71756  0.1098E-14  0.1634E-04  0.6219E-07  0.1278E-02  0.1445E-03  0.1926E+02
   -0.499988   31.71854  0.1098E-14  0.1667E-04  0.6034E-07  0.1370E-02  0.1353E-03  0.1862E+02
   -0.549988   31.71944  0.1098E-14  0.1695E-04  0.5879E-07  0.1454E-02  0.1270E-03  0.1848E+02
   -0.599989   31.72027  0.1098E-14  0.1719E-04  0.5750E-07  0.1530E-02  0.1196E-03  0.1836E+02
   -0.649990   31.72104  0.1098E-14  0.1739E-04  0.5641E-07  0.1598E-02  0.1127E-03  0.1872E+02
   -0.699991   31.72178  0.1098E-14  0.1757E-04  0.5550E-07  0.1657E-02  0.1064E-03  0.1900E+02
   -0.749992   31.72248  0.1098E-14  0.1771E-04  0.5475E-07  0.1708E-02  0.1006E-03  0.1978E+02
   -0.799994   31.72315  0.1098E-14  0.1782E-04  0.5414E-07  0.1750E-02  0.9513E-04  0.2046E+02
   -0.849995   31.72379  0.1098E-14  0.1791E-04  0.5367E-07  0.1784E-02  0.9003E-04  0.2170E+02
   -0.899997   31.72442  0.1098E-14  0.1798E-04  0.5332E-07  0.1808E-02  0.8524E-04  0.2287E+02
   -0.949998   31.72503  0.1098E-14  0.1801E-04  0.5310E-07  0.1824E-02  0.8071E-04  0.2471E+02
   -1.000000   31.72564  0.1098E-14  0.1802E-04  0.5301E-07  0.1831E-02  0.7641E-04  0.2655E+02
   -1.050002   31.72623  0.1098E-14  0.1801E-04  0.5305E-07  0.1826E-02  0.7232E-04  0.3033E+02
   -1.100003   31.72683  0.1098E-14  0.1797E-04  0.5325E-07  0.1942E-02  0.6841E-04  0.9710E+02
   -1.150005   31.72738  0.1098E-14  0.1790E-04  0.5364E-07  0.1694E-02  0.6497E-04  0.2417E+03
   -1.200006   31.72802  0.1098E-14  0.1780E-04  0.5419E-07  0.1743E-02  0.6125E-04  0.4505E+02
   -1.250008   31.72863  0.1098E-14  0.1767E-04  0.5500E-07  0.1708E-02  0.5774E-04  0.4782E+02
   -1.300009   31.72926  0.1098E-14  0.1750E-04  0.5611E-07  0.1648E-02  0.5436E-04  0.5707E+02
   -1.350010   31.72990  0.1098E-14  0.1729E-04  0.5761E-07  0.1581E-02  0.5106E-04  0.6899E+02
   -1.400011   31.73058  0.1098E-14  0.1704E-04  0.5966E-07  0.1489E-02  0.4783E-04  0.8796E+02
   -1.450012   31.73130  0.1098E-14  0.1672E-04  0.6248E-07  0.1407E-02  0.4463E-04  0.1149E+03
   -1.500013   31.73207  0.1098E-14  0.1634E-04  0.6647E-07  0.1281E-02  0.4147E-04  0.1656E+03
   -1.550013   31.73294  0.1098E-14  0.1587E-04  0.7227E-07  0.1203E-02  0.3825E-04  0.3055E+03
   -1.600013   31.73389  0.1098E-14  0.1526E-04  0.8168E-07  0.1046E-02  0.3509E-04  0.9609E+03
   -1.650013   31.73520  0.1098E-14  0.1446E-04  0.9625E-07  0.9682E-03  0.3146E-04  0.6317E+04
   -1.700012   31.73663  0.1098E-14  0.1336E-04  0.1231E-06  0.7728E-03  0.2793E-04  0.5608E+04
   -1.750011   31.73952  0.1098E-14  0.1206E-04  0.1652E-06  0.7059E-03  0.2295E-04  0.1863E+07
   -1.800010   31.74102  0.1098E-14  0.1044E-04  0.2568E-06  0.4782E-03  0.1983E-04  0.1238E+07
   -1.850008   31.75200  0.1098E-14  0.8810E-05  0.4319E-06  0.4599E-03  0.1333E-04  0.4357E+09
   -1.900006   31.74698  0.1098E-14  0.7016E-05  0.9067E-06  0.2111E-03  0.1115E-04 -0.2565E+07
   -1.950003   31.77480  0.1098E-14  0.5079E-05  0.2124E-05  0.2313E-03  0.5799E-05 -0.1903E+07
   -2.000000   31.77341  0.1098E-14  0.0000E+00  0.0000E+00  0.0000E+00  0.1205E-04  0.0000E+00
