 1 - depth, m
 2 - temperature, C
 3 - salinity, kg/kg
 4 - turbulent kinetic energy, m**2/s**2
 5 - dissipation rate, m**2/s**3
 6 - kinematic heat conductance, m**2/s
 7 - modulus of horizontal velocity, m/s
 8 - Richardson number, n/d
   -0.000000   29.63767  0.3700E-13  0.4500E-05  0.2669E-06  0.4871E-04  0.1794E-02  0.3347E+04
   -0.049997   29.66573  0.3700E-13  0.7665E-05  0.1189E-06  0.1701E-03  0.1023E-02  0.3793E+04
   -0.099994   29.67662  0.3700E-13  0.9292E-05  0.8163E-07  0.3861E-03  0.7455E-03  0.1446E+02
   -0.149992   29.67963  0.3700E-13  0.1031E-04  0.6853E-07  0.4653E-03  0.6574E-03  0.7002E+01
   -0.199991   29.68203  0.3700E-13  0.1110E-04  0.6084E-07  0.6200E-03  0.5862E-03  0.4503E+01
   -0.249989   29.68378  0.3700E-13  0.1173E-04  0.5580E-07  0.7416E-03  0.5328E-03  0.3320E+01
   -0.299989   29.68520  0.3700E-13  0.1224E-04  0.5220E-07  0.8621E-03  0.4884E-03  0.2640E+01
   -0.349988   29.68640  0.3700E-13  0.1267E-04  0.4950E-07  0.9716E-03  0.4503E-03  0.2258E+01
   -0.399988   29.68743  0.3700E-13  0.1303E-04  0.4740E-07  0.1072E-02  0.4167E-03  0.2012E+01
   -0.449988   29.68835  0.3700E-13  0.1334E-04  0.4570E-07  0.1165E-02  0.3871E-03  0.1890E+01
   -0.499988   29.68918  0.3700E-13  0.1361E-04  0.4428E-07  0.1251E-02  0.3610E-03  0.1839E+01
   -0.549989   29.68993  0.3700E-13  0.1384E-04  0.4310E-07  0.1330E-02  0.3376E-03  0.1817E+01
   -0.599990   29.69063  0.3700E-13  0.1404E-04  0.4211E-07  0.1401E-02  0.3165E-03  0.1818E+01
   -0.649991   29.69129  0.3700E-13  0.1422E-04  0.4127E-07  0.1466E-02  0.2973E-03  0.1843E+01
   -0.699992   29.69190  0.3700E-13  0.1437E-04  0.4056E-07  0.1523E-02  0.2797E-03  0.1884E+01
   -0.749993   29.69249  0.3700E-13  0.1449E-04  0.3996E-07  0.1573E-02  0.2634E-03  0.1949E+01
   -0.799995   29.69304  0.3700E-13  0.1459E-04  0.3947E-07  0.1616E-02  0.2483E-03  0.2030E+01
   -0.849996   29.69358  0.3700E-13  0.1467E-04  0.3907E-07  0.1651E-02  0.2342E-03  0.2136E+01
   -0.899998   29.69410  0.3700E-13  0.1474E-04  0.3875E-07  0.1679E-02  0.2209E-03  0.2263E+01
   -0.950000   29.69461  0.3700E-13  0.1478E-04  0.3853E-07  0.1699E-02  0.2085E-03  0.2423E+01
   -1.000002   29.69510  0.3700E-13  0.1480E-04  0.3839E-07  0.1712E-02  0.1967E-03  0.2613E+01
   -1.050003   29.69559  0.3700E-13  0.1481E-04  0.3835E-07  0.1715E-02  0.1856E-03  0.2965E+01
   -1.100005   29.69608  0.3700E-13  0.1479E-04  0.3840E-07  0.1789E-02  0.1750E-03  0.9942E+01
   -1.150007   29.69654  0.3700E-13  0.1476E-04  0.3856E-07  0.1654E-02  0.1655E-03  0.2177E+02
   -1.200008   29.69703  0.3700E-13  0.1470E-04  0.3883E-07  0.1669E-02  0.1558E-03  0.4244E+01
   -1.250010   29.69752  0.3700E-13  0.1462E-04  0.3925E-07  0.1641E-02  0.1465E-03  0.4519E+01
   -1.300011   29.69801  0.3700E-13  0.1452E-04  0.3984E-07  0.1596E-02  0.1375E-03  0.5267E+01
   -1.350012   29.69852  0.3700E-13  0.1439E-04  0.4064E-07  0.1542E-02  0.1288E-03  0.6269E+01
   -1.400013   29.69904  0.3700E-13  0.1423E-04  0.4173E-07  0.1472E-02  0.1204E-03  0.7681E+01
   -1.450014   29.69958  0.3700E-13  0.1403E-04  0.4319E-07  0.1399E-02  0.1122E-03  0.9698E+01
   -1.500015   29.70016  0.3700E-13  0.1378E-04  0.4521E-07  0.1296E-02  0.1041E-03  0.1295E+02
   -1.550015   29.70078  0.3700E-13  0.1349E-04  0.4803E-07  0.1213E-02  0.9602E-04  0.1809E+02
   -1.600015   29.70145  0.3700E-13  0.1312E-04  0.5226E-07  0.1075E-02  0.8814E-04  0.3067E+02
   -1.650015   29.70224  0.3700E-13  0.1265E-04  0.5872E-07  0.9973E-03  0.7982E-04  0.2487E+03
   -1.700015   29.70313  0.3700E-13  0.1201E-04  0.7032E-07  0.8184E-03  0.7177E-04  0.1952E+04
   -1.750014   29.70463  0.3700E-13  0.1114E-04  0.8948E-07  0.7401E-03  0.6134E-04 -0.2338E+04
   -1.800012   29.70603  0.3700E-13  0.9961E-05  0.1287E-06  0.5212E-03  0.5280E-04  0.4428E+03
   -1.850011   29.71072  0.3700E-13  0.8572E-05  0.2023E-06  0.4774E-03  0.3891E-04  0.1665E+07
   -1.900009   29.71037  0.3700E-13  0.6842E-05  0.4175E-06  0.2127E-03  0.3168E-04 -0.1291E+06
   -1.950006   29.72631  0.3700E-13  0.4697E-05  0.1068E-05  0.1702E-03  0.1749E-04 -0.2366E+06
   -2.000003   29.72932  0.3700E-13  0.0000E+00  0.0000E+00  0.0000E+00  0.2984E-04  0.0000E+00
