 1 - depth, m
 2 - temperature, C
 3 - salinity, kg/kg
 4 - turbulent kinetic energy, m**2/s**2
 5 - dissipation rate, m**2/s**3
 6 - kinematic heat conductance, m**2/s
 7 - modulus of horizontal velocity, m/s
 8 - Richardson number, n/d
   -0.000000   29.92765  0.2811E-13  0.4866E-05  0.2766E-06  0.4947E-04  0.2588E-02  0.3013E+04
   -0.049997   29.95655  0.2811E-13  0.8095E-05  0.1217E-06  0.1898E-03  0.1398E-02  0.1296E+02
   -0.099994   29.96585  0.2811E-13  0.9635E-05  0.8576E-07  0.3821E-03  0.1071E-02  0.6902E+01
   -0.149992   29.96899  0.2811E-13  0.1064E-04  0.7202E-07  0.4766E-03  0.9452E-03  0.3517E+01
   -0.199991   29.97139  0.2811E-13  0.1142E-04  0.6398E-07  0.6233E-03  0.8471E-03  0.2291E+01
   -0.249989   29.97318  0.2811E-13  0.1205E-04  0.5869E-07  0.7450E-03  0.7722E-03  0.1700E+01
   -0.299989   29.97464  0.2811E-13  0.1257E-04  0.5493E-07  0.8599E-03  0.7098E-03  0.1371E+01
   -0.349988   29.97587  0.2811E-13  0.1301E-04  0.5209E-07  0.9619E-03  0.6560E-03  0.1232E+01
   -0.399988   29.97694  0.2811E-13  0.1338E-04  0.4983E-07  0.1063E-02  0.6072E-03  0.1209E+01
   -0.449988   29.97790  0.2811E-13  0.1373E-04  0.4791E-07  0.1168E-02  0.5623E-03  0.1218E+01
   -0.499988   29.97875  0.2811E-13  0.1403E-04  0.4630E-07  0.1267E-02  0.5214E-03  0.1228E+01
   -0.549989   29.97951  0.2811E-13  0.1430E-04  0.4494E-07  0.1358E-02  0.4844E-03  0.1227E+01
   -0.599990   29.98022  0.2811E-13  0.1453E-04  0.4380E-07  0.1442E-02  0.4509E-03  0.1224E+01
   -0.649991   29.98087  0.2811E-13  0.1472E-04  0.4284E-07  0.1516E-02  0.4206E-03  0.1215E+01
   -0.699992   29.98149  0.2811E-13  0.1488E-04  0.4205E-07  0.1580E-02  0.3931E-03  0.1204E+01
   -0.749993   29.98207  0.2811E-13  0.1502E-04  0.4140E-07  0.1635E-02  0.3682E-03  0.1189E+01
   -0.799995   29.98262  0.2811E-13  0.1512E-04  0.4088E-07  0.1679E-02  0.3456E-03  0.1178E+01
   -0.849996   29.98315  0.2811E-13  0.1520E-04  0.4047E-07  0.1713E-02  0.3251E-03  0.1176E+01
   -0.899998   29.98367  0.2811E-13  0.1525E-04  0.4017E-07  0.1737E-02  0.3064E-03  0.1196E+01
   -0.950000   29.98417  0.2811E-13  0.1529E-04  0.3996E-07  0.1753E-02  0.2892E-03  0.1245E+01
   -1.000002   29.98467  0.2811E-13  0.1530E-04  0.3984E-07  0.1762E-02  0.2731E-03  0.1330E+01
   -1.050003   29.98516  0.2811E-13  0.1529E-04  0.3981E-07  0.1761E-02  0.2579E-03  0.1502E+01
   -1.100005   29.98564  0.2811E-13  0.1527E-04  0.3989E-07  0.1852E-02  0.2435E-03  0.4974E+01
   -1.150007   29.98610  0.2811E-13  0.1522E-04  0.4008E-07  0.1672E-02  0.2307E-03  0.1128E+02
   -1.200008   29.98660  0.2811E-13  0.1515E-04  0.4039E-07  0.1702E-02  0.2173E-03  0.2166E+01
   -1.250010   29.98709  0.2811E-13  0.1506E-04  0.4085E-07  0.1671E-02  0.2045E-03  0.2305E+01
   -1.300011   29.98759  0.2811E-13  0.1494E-04  0.4150E-07  0.1623E-02  0.1921E-03  0.2691E+01
   -1.350012   29.98810  0.2811E-13  0.1479E-04  0.4238E-07  0.1564E-02  0.1802E-03  0.3212E+01
   -1.400013   29.98862  0.2811E-13  0.1461E-04  0.4356E-07  0.1489E-02  0.1686E-03  0.3950E+01
   -1.450014   29.98917  0.2811E-13  0.1439E-04  0.4517E-07  0.1411E-02  0.1571E-03  0.5009E+01
   -1.500015   29.98976  0.2811E-13  0.1412E-04  0.4738E-07  0.1302E-02  0.1459E-03  0.6738E+01
   -1.550015   29.99039  0.2811E-13  0.1380E-04  0.5050E-07  0.1215E-02  0.1347E-03  0.9498E+01
   -1.600015   29.99108  0.2811E-13  0.1339E-04  0.5520E-07  0.1074E-02  0.1237E-03  0.1854E+02
   -1.650015   29.99190  0.2811E-13  0.1288E-04  0.6245E-07  0.9906E-03  0.1120E-03  0.6758E+02
   -1.700014   29.99282  0.2811E-13  0.1218E-04  0.7537E-07  0.8153E-03  0.1005E-03  0.5805E+04
   -1.750014   29.99440  0.2811E-13  0.1124E-04  0.9665E-07  0.7314E-03  0.8574E-04  0.4191E+04
   -1.800012   29.99580  0.2811E-13  0.9956E-05  0.1409E-06  0.5163E-03  0.7358E-04  0.3738E+04
   -1.850011   30.00099  0.2811E-13  0.8459E-05  0.2249E-06  0.4637E-03  0.5345E-04  0.3514E+07
   -1.900009   30.00058  0.2811E-13  0.6664E-05  0.4675E-06  0.2129E-03  0.4290E-04 -0.2350E+05
   -1.950006   30.01749  0.2811E-13  0.4621E-05  0.1181E-05  0.1785E-03  0.2322E-04 -0.9684E+06
   -2.000003   30.01983  0.2811E-13  0.0000E+00  0.0000E+00  0.0000E+00  0.4184E-04  0.0000E+00
