 1 - depth, m
 2 - temperature, C
 3 - salinity, kg/kg
 4 - turbulent kinetic energy, m**2/s**2
 5 - dissipation rate, m**2/s**3
 6 - kinematic heat conductance, m**2/s
 7 - modulus of horizontal velocity, m/s
 8 - Richardson number, n/d
   -0.000000   30.22144  0.5814E-13  0.4698E-05  0.2819E-06  0.4951E-04  0.1849E-02  0.3810E+04
   -0.049997   30.25053  0.5814E-13  0.7976E-05  0.1255E-06  0.1762E-03  0.1041E-02  0.6986E+02
   -0.099994   30.26137  0.5814E-13  0.9638E-05  0.8661E-07  0.3887E-03  0.7692E-03  0.1561E+02
   -0.149992   30.26450  0.5814E-13  0.1069E-04  0.7264E-07  0.4721E-03  0.6784E-03  0.7623E+01
   -0.199991   30.26697  0.5814E-13  0.1150E-04  0.6446E-07  0.6279E-03  0.6056E-03  0.4896E+01
   -0.249989   30.26877  0.5814E-13  0.1215E-04  0.5910E-07  0.7512E-03  0.5509E-03  0.3596E+01
   -0.299989   30.27023  0.5814E-13  0.1268E-04  0.5527E-07  0.8730E-03  0.5054E-03  0.2861E+01
   -0.349988   30.27146  0.5814E-13  0.1312E-04  0.5240E-07  0.9834E-03  0.4664E-03  0.2437E+01
   -0.399988   30.27252  0.5814E-13  0.1349E-04  0.5016E-07  0.1085E-02  0.4319E-03  0.2179E+01
   -0.449988   30.27347  0.5814E-13  0.1381E-04  0.4834E-07  0.1179E-02  0.4015E-03  0.2045E+01
   -0.499988   30.27432  0.5814E-13  0.1409E-04  0.4683E-07  0.1267E-02  0.3744E-03  0.2000E+01
   -0.549989   30.27509  0.5814E-13  0.1433E-04  0.4556E-07  0.1348E-02  0.3502E-03  0.1966E+01
   -0.599990   30.27581  0.5814E-13  0.1454E-04  0.4450E-07  0.1421E-02  0.3283E-03  0.1971E+01
   -0.649991   30.27648  0.5814E-13  0.1472E-04  0.4359E-07  0.1487E-02  0.3084E-03  0.1981E+01
   -0.699992   30.27711  0.5814E-13  0.1487E-04  0.4283E-07  0.1545E-02  0.2901E-03  0.2027E+01
   -0.749993   30.27771  0.5814E-13  0.1500E-04  0.4220E-07  0.1596E-02  0.2733E-03  0.2075E+01
   -0.799995   30.27828  0.5814E-13  0.1510E-04  0.4167E-07  0.1638E-02  0.2577E-03  0.2165E+01
   -0.849996   30.27883  0.5814E-13  0.1518E-04  0.4124E-07  0.1673E-02  0.2432E-03  0.2257E+01
   -0.899998   30.27936  0.5814E-13  0.1524E-04  0.4091E-07  0.1700E-02  0.2296E-03  0.2400E+01
   -0.950000   30.27988  0.5814E-13  0.1528E-04  0.4068E-07  0.1720E-02  0.2168E-03  0.2551E+01
   -1.000001   30.28039  0.5814E-13  0.1530E-04  0.4053E-07  0.1731E-02  0.2047E-03  0.2763E+01
   -1.050003   30.28089  0.5814E-13  0.1530E-04  0.4049E-07  0.1733E-02  0.1933E-03  0.3111E+01
   -1.100005   30.28138  0.5814E-13  0.1528E-04  0.4054E-07  0.1814E-02  0.1823E-03  0.1040E+02
   -1.150006   30.28185  0.5814E-13  0.1524E-04  0.4072E-07  0.1661E-02  0.1726E-03  0.2327E+02
   -1.200008   30.28236  0.5814E-13  0.1517E-04  0.4102E-07  0.1681E-02  0.1625E-03  0.4461E+01
   -1.250010   30.28286  0.5814E-13  0.1508E-04  0.4147E-07  0.1652E-02  0.1529E-03  0.4762E+01
   -1.300011   30.28337  0.5814E-13  0.1497E-04  0.4211E-07  0.1606E-02  0.1436E-03  0.5525E+01
   -1.350012   30.28389  0.5814E-13  0.1483E-04  0.4299E-07  0.1549E-02  0.1346E-03  0.6620E+01
   -1.400013   30.28443  0.5814E-13  0.1465E-04  0.4417E-07  0.1476E-02  0.1259E-03  0.8097E+01
   -1.450014   30.28499  0.5814E-13  0.1443E-04  0.4578E-07  0.1401E-02  0.1173E-03  0.1031E+02
   -1.500015   30.28558  0.5814E-13  0.1417E-04  0.4800E-07  0.1293E-02  0.1089E-03  0.1384E+02
   -1.550015   30.28623  0.5814E-13  0.1385E-04  0.5113E-07  0.1211E-02  0.1005E-03  0.1959E+02
   -1.600015   30.28693  0.5814E-13  0.1345E-04  0.5591E-07  0.1070E-02  0.9227E-04  0.3590E+02
   -1.650015   30.28777  0.5814E-13  0.1294E-04  0.6327E-07  0.9917E-03  0.8349E-04  0.1201E+04
   -1.700014   30.28871  0.5814E-13  0.1223E-04  0.7642E-07  0.8097E-03  0.7496E-04 -0.3736E+04
   -1.750013   30.29036  0.5814E-13  0.1129E-04  0.9795E-07  0.7359E-03  0.6379E-04  0.5122E+06
   -1.800012   30.29174  0.5814E-13  0.1002E-04  0.1420E-06  0.5119E-03  0.5495E-04  0.7981E+05
   -1.850010   30.29715  0.5814E-13  0.8554E-05  0.2268E-06  0.4713E-03  0.3988E-04  0.2536E+07
   -1.900008   30.29641  0.5814E-13  0.6820E-05  0.4643E-06  0.2159E-03  0.3243E-04 -0.5493E+05
   -1.950006   30.31360  0.5814E-13  0.4720E-05  0.1191E-05  0.1773E-03  0.1778E-04 -0.2436E+06
   -2.000003   30.31667  0.5814E-13  0.0000E+00  0.0000E+00  0.0000E+00  0.3122E-04  0.0000E+00
