 1 - depth, m
 2 - temperature, C
 3 - salinity, kg/kg
 4 - turbulent kinetic energy, m**2/s**2
 5 - dissipation rate, m**2/s**3
 6 - kinematic heat conductance, m**2/s
 7 - modulus of horizontal velocity, m/s
 8 - Richardson number, n/d
   -0.000000   29.68540  0.1772E-13  0.4744E-05  0.2707E-06  0.4918E-04  0.2446E-02  0.3510E+04
   -0.049997   29.71369  0.1772E-13  0.7939E-05  0.1194E-06  0.1859E-03  0.1329E-02  0.3231E+02
   -0.099994   29.72304  0.1772E-13  0.9485E-05  0.8374E-07  0.3818E-03  0.1009E-02  0.7624E+01
   -0.149992   29.72610  0.1772E-13  0.1049E-04  0.7030E-07  0.4743E-03  0.8897E-03  0.3847E+01
   -0.199991   29.72846  0.1772E-13  0.1128E-04  0.6245E-07  0.6230E-03  0.7961E-03  0.2497E+01
   -0.249989   29.73021  0.1772E-13  0.1191E-04  0.5730E-07  0.7453E-03  0.7249E-03  0.1850E+01
   -0.299989   29.73164  0.1772E-13  0.1243E-04  0.5365E-07  0.8625E-03  0.6657E-03  0.1485E+01
   -0.349988   29.73284  0.1772E-13  0.1287E-04  0.5091E-07  0.9680E-03  0.6147E-03  0.1308E+01
   -0.399988   29.73389  0.1772E-13  0.1324E-04  0.4875E-07  0.1068E-02  0.5690E-03  0.1230E+01
   -0.449988   29.73483  0.1772E-13  0.1358E-04  0.4697E-07  0.1168E-02  0.5276E-03  0.1214E+01
   -0.499988   29.73566  0.1772E-13  0.1388E-04  0.4547E-07  0.1263E-02  0.4903E-03  0.1214E+01
   -0.549989   29.73642  0.1772E-13  0.1414E-04  0.4423E-07  0.1351E-02  0.4565E-03  0.1212E+01
   -0.599990   29.73713  0.1772E-13  0.1437E-04  0.4318E-07  0.1431E-02  0.4260E-03  0.1209E+01
   -0.649991   29.73778  0.1772E-13  0.1456E-04  0.4232E-07  0.1502E-02  0.3983E-03  0.1206E+01
   -0.699992   29.73839  0.1772E-13  0.1473E-04  0.4160E-07  0.1564E-02  0.3732E-03  0.1203E+01
   -0.749993   29.73897  0.1772E-13  0.1487E-04  0.4102E-07  0.1616E-02  0.3503E-03  0.1206E+01
   -0.799995   29.73953  0.1772E-13  0.1498E-04  0.4056E-07  0.1659E-02  0.3295E-03  0.1219E+01
   -0.849996   29.74007  0.1772E-13  0.1507E-04  0.4021E-07  0.1693E-02  0.3104E-03  0.1247E+01
   -0.899998   29.74059  0.1772E-13  0.1513E-04  0.3995E-07  0.1719E-02  0.2928E-03  0.1297E+01
   -0.950000   29.74110  0.1772E-13  0.1518E-04  0.3978E-07  0.1736E-02  0.2764E-03  0.1374E+01
   -1.000001   29.74160  0.1772E-13  0.1521E-04  0.3971E-07  0.1746E-02  0.2611E-03  0.1481E+01
   -1.050003   29.74209  0.1772E-13  0.1521E-04  0.3973E-07  0.1746E-02  0.2465E-03  0.1682E+01
   -1.100005   29.74259  0.1772E-13  0.1520E-04  0.3985E-07  0.1831E-02  0.2326E-03  0.5601E+01
   -1.150007   29.74305  0.1772E-13  0.1516E-04  0.4009E-07  0.1665E-02  0.2203E-03  0.1261E+02
   -1.200008   29.74357  0.1772E-13  0.1511E-04  0.4045E-07  0.1690E-02  0.2074E-03  0.2439E+01
   -1.250010   29.74407  0.1772E-13  0.1503E-04  0.4096E-07  0.1659E-02  0.1951E-03  0.2606E+01
   -1.300011   29.74458  0.1772E-13  0.1492E-04  0.4167E-07  0.1611E-02  0.1833E-03  0.3052E+01
   -1.350012   29.74511  0.1772E-13  0.1479E-04  0.4261E-07  0.1554E-02  0.1719E-03  0.3652E+01
   -1.400013   29.74565  0.1772E-13  0.1462E-04  0.4386E-07  0.1479E-02  0.1607E-03  0.4506E+01
   -1.450014   29.74622  0.1772E-13  0.1441E-04  0.4553E-07  0.1403E-02  0.1498E-03  0.5726E+01
   -1.500015   29.74683  0.1772E-13  0.1416E-04  0.4782E-07  0.1293E-02  0.1391E-03  0.7734E+01
   -1.550015   29.74749  0.1772E-13  0.1384E-04  0.5102E-07  0.1210E-02  0.1283E-03  0.1091E+02
   -1.600015   29.74821  0.1772E-13  0.1345E-04  0.5585E-07  0.1065E-02  0.1178E-03  0.2010E+02
   -1.650015   29.74908  0.1772E-13  0.1295E-04  0.6318E-07  0.9887E-03  0.1065E-03  0.5734E+02
   -1.700014   29.75003  0.1772E-13  0.1226E-04  0.7627E-07  0.8075E-03  0.9574E-04 -0.4608E+03
   -1.750014   29.75172  0.1772E-13  0.1133E-04  0.9788E-07  0.7298E-03  0.8146E-04  0.3485E+05
   -1.800012   29.75316  0.1772E-13  0.1006E-04  0.1427E-06  0.5101E-03  0.7010E-04  0.2744E+04
   -1.850011   29.75876  0.1772E-13  0.8567E-05  0.2277E-06  0.4646E-03  0.5068E-04  0.1933E+07
   -1.900008   29.75816  0.1772E-13  0.6781E-05  0.4767E-06  0.2100E-03  0.4099E-04  0.3378E+06
   -1.950006   29.77636  0.1772E-13  0.4714E-05  0.1209E-05  0.1778E-03  0.2223E-04 -0.8357E+06
   -2.000003   29.77904  0.1772E-13  0.0000E+00  0.0000E+00  0.0000E+00  0.3949E-04  0.0000E+00
