 1 - depth, m
 2 - temperature, C
 3 - salinity, kg/kg
 4 - turbulent kinetic energy, m**2/s**2
 5 - dissipation rate, m**2/s**3
 6 - kinematic heat conductance, m**2/s
 7 - modulus of horizontal velocity, m/s
 8 - Richardson number, n/d
   -0.000000   31.00811  0.4395E-13  0.5028E-05  0.3206E-06  0.5090E-04  0.6360E-03  0.2520E+05
   -0.049997   31.04124  0.4395E-13  0.8808E-05  0.1423E-06  0.1859E-03  0.3620E-03  0.3277E+03
   -0.099994   31.05316  0.4395E-13  0.1065E-04  0.9837E-07  0.4208E-03  0.2641E-03  0.1303E+03
   -0.149992   31.05649  0.4395E-13  0.1180E-04  0.8296E-07  0.4967E-03  0.2342E-03  0.6432E+02
   -0.199991   31.05918  0.4395E-13  0.1270E-04  0.7383E-07  0.6648E-03  0.2095E-03  0.4192E+02
   -0.249989   31.06113  0.4395E-13  0.1341E-04  0.6780E-07  0.7926E-03  0.1911E-03  0.3115E+02
   -0.299988   31.06272  0.4395E-13  0.1398E-04  0.6349E-07  0.9202E-03  0.1757E-03  0.2486E+02
   -0.349988   31.06405  0.4395E-13  0.1446E-04  0.6023E-07  0.1036E-02  0.1625E-03  0.2125E+02
   -0.399988   31.06521  0.4395E-13  0.1486E-04  0.5769E-07  0.1141E-02  0.1508E-03  0.1893E+02
   -0.449988   31.06623  0.4395E-13  0.1520E-04  0.5562E-07  0.1239E-02  0.1405E-03  0.1774E+02
   -0.499988   31.06715  0.4395E-13  0.1550E-04  0.5389E-07  0.1328E-02  0.1314E-03  0.1723E+02
   -0.549989   31.06800  0.4395E-13  0.1575E-04  0.5244E-07  0.1410E-02  0.1232E-03  0.1695E+02
   -0.599989   31.06878  0.4395E-13  0.1597E-04  0.5122E-07  0.1484E-02  0.1158E-03  0.1693E+02
   -0.649990   31.06951  0.4395E-13  0.1615E-04  0.5018E-07  0.1551E-02  0.1090E-03  0.1708E+02
   -0.699992   31.07019  0.4395E-13  0.1630E-04  0.4929E-07  0.1609E-02  0.1028E-03  0.1743E+02
   -0.749993   31.07084  0.4395E-13  0.1643E-04  0.4855E-07  0.1660E-02  0.9702E-04  0.1793E+02
   -0.799994   31.07146  0.4395E-13  0.1653E-04  0.4792E-07  0.1703E-02  0.9166E-04  0.1864E+02
   -0.849996   31.07206  0.4395E-13  0.1661E-04  0.4742E-07  0.1738E-02  0.8665E-04  0.1952E+02
   -0.899998   31.07264  0.4395E-13  0.1666E-04  0.4702E-07  0.1765E-02  0.8193E-04  0.2065E+02
   -0.949999   31.07320  0.4395E-13  0.1669E-04  0.4673E-07  0.1783E-02  0.7749E-04  0.2202E+02
   -1.000001   31.07375  0.4395E-13  0.1670E-04  0.4655E-07  0.1793E-02  0.7328E-04  0.2371E+02
   -1.050003   31.07430  0.4395E-13  0.1669E-04  0.4648E-07  0.1793E-02  0.6928E-04  0.2674E+02
   -1.100004   31.07483  0.4395E-13  0.1665E-04  0.4653E-07  0.1888E-02  0.6546E-04  0.8772E+02
   -1.150006   31.07534  0.4395E-13  0.1659E-04  0.4673E-07  0.1695E-02  0.6207E-04  0.2036E+03
   -1.200008   31.07590  0.4395E-13  0.1650E-04  0.4707E-07  0.1729E-02  0.5850E-04  0.3853E+02
   -1.250009   31.07644  0.4395E-13  0.1638E-04  0.4759E-07  0.1697E-02  0.5511E-04  0.4088E+02
   -1.300010   31.07699  0.4395E-13  0.1624E-04  0.4835E-07  0.1645E-02  0.5184E-04  0.4776E+02
   -1.350011   31.07756  0.4395E-13  0.1606E-04  0.4939E-07  0.1583E-02  0.4866E-04  0.5721E+02
   -1.400013   31.07814  0.4395E-13  0.1585E-04  0.5082E-07  0.1503E-02  0.4556E-04  0.7078E+02
   -1.450013   31.07876  0.4395E-13  0.1558E-04  0.5279E-07  0.1422E-02  0.4251E-04  0.9070E+02
   -1.500014   31.07941  0.4395E-13  0.1526E-04  0.5555E-07  0.1307E-02  0.3951E-04  0.1243E+03
   -1.550014   31.08012  0.4395E-13  0.1488E-04  0.5948E-07  0.1221E-02  0.3648E-04  0.1800E+03
   -1.600014   31.08090  0.4395E-13  0.1440E-04  0.6560E-07  0.1075E-02  0.3351E-04  0.4261E+03
   -1.650014   31.08186  0.4395E-13  0.1377E-04  0.7521E-07  0.9922E-03  0.3029E-04 -0.1977E+05
   -1.700013   31.08296  0.4395E-13  0.1293E-04  0.9218E-07  0.8126E-03  0.2711E-04 -0.3293E+04
   -1.750013   31.08489  0.4395E-13  0.1183E-04  0.1201E-06  0.7279E-03  0.2291E-04  0.1423E+07
   -1.800011   31.08650  0.4395E-13  0.1036E-04  0.1787E-06  0.5125E-03  0.1962E-04  0.3781E+06
   -1.850010   31.09329  0.4395E-13  0.8772E-05  0.2890E-06  0.4673E-03  0.1395E-04  0.1282E+09
   -1.900007   31.09158  0.4395E-13  0.6920E-05  0.6040E-06  0.2086E-03  0.1138E-04 -0.7677E+06
   -1.950005   31.11230  0.4395E-13  0.4884E-05  0.1491E-05  0.1985E-03  0.6067E-05 -0.2393E+07
   -2.000002   31.11256  0.4395E-13  0.0000E+00  0.0000E+00  0.0000E+00  0.1142E-04  0.0000E+00
