 1 - depth, m
 2 - temperature, C
 3 - salinity, kg/kg
 4 - turbulent kinetic energy, m**2/s**2
 5 - dissipation rate, m**2/s**3
 6 - kinematic heat conductance, m**2/s
 7 - modulus of horizontal velocity, m/s
 8 - Richardson number, n/d
   -0.000000   30.14290  0.5109E-14  0.4668E-05  0.2843E-06  0.4802E-04  0.9428E-03  0.2149E+04
   -0.049997   30.17380  0.5109E-14  0.8142E-05  0.1263E-06  0.1833E-03  0.5257E-03  0.5788E+02
   -0.099994   30.18477  0.5109E-14  0.9854E-05  0.8775E-07  0.4005E-03  0.3882E-03  0.5207E+02
   -0.149992   30.18790  0.5109E-14  0.1093E-04  0.7393E-07  0.4847E-03  0.3431E-03  0.2564E+02
   -0.199991   30.19039  0.5109E-14  0.1177E-04  0.6580E-07  0.6442E-03  0.3067E-03  0.1657E+02
   -0.249989   30.19220  0.5109E-14  0.1244E-04  0.6047E-07  0.7685E-03  0.2793E-03  0.1228E+02
   -0.299989   30.19368  0.5109E-14  0.1299E-04  0.5666E-07  0.8926E-03  0.2565E-03  0.9808E+01
   -0.349988   30.19493  0.5109E-14  0.1344E-04  0.5381E-07  0.1005E-02  0.2370E-03  0.8404E+01
   -0.399988   30.19601  0.5109E-14  0.1382E-04  0.5158E-07  0.1107E-02  0.2197E-03  0.7508E+01
   -0.449988   30.19697  0.5109E-14  0.1415E-04  0.4978E-07  0.1202E-02  0.2044E-03  0.7053E+01
   -0.499988   30.19784  0.5109E-14  0.1444E-04  0.4829E-07  0.1290E-02  0.1909E-03  0.6876E+01
   -0.549989   30.19863  0.5109E-14  0.1468E-04  0.4704E-07  0.1370E-02  0.1788E-03  0.6785E+01
   -0.599990   30.19937  0.5109E-14  0.1490E-04  0.4599E-07  0.1442E-02  0.1679E-03  0.6805E+01
   -0.649991   30.20005  0.5109E-14  0.1508E-04  0.4511E-07  0.1507E-02  0.1579E-03  0.6890E+01
   -0.699992   30.20070  0.5109E-14  0.1524E-04  0.4437E-07  0.1564E-02  0.1487E-03  0.7064E+01
   -0.749993   30.20132  0.5109E-14  0.1537E-04  0.4375E-07  0.1614E-02  0.1403E-03  0.7298E+01
   -0.799995   30.20191  0.5109E-14  0.1547E-04  0.4324E-07  0.1656E-02  0.1324E-03  0.7625E+01
   -0.849996   30.20248  0.5109E-14  0.1556E-04  0.4283E-07  0.1690E-02  0.1250E-03  0.8020E+01
   -0.899998   30.20303  0.5109E-14  0.1562E-04  0.4253E-07  0.1717E-02  0.1181E-03  0.8530E+01
   -0.950000   30.20357  0.5109E-14  0.1566E-04  0.4232E-07  0.1735E-02  0.1116E-03  0.9134E+01
   -1.000001   30.20410  0.5109E-14  0.1568E-04  0.4220E-07  0.1745E-02  0.1054E-03  0.9897E+01
   -1.050003   30.20462  0.5109E-14  0.1568E-04  0.4219E-07  0.1745E-02  0.9956E-04  0.1122E+02
   -1.100005   30.20513  0.5109E-14  0.1565E-04  0.4229E-07  0.1833E-02  0.9398E-04  0.3719E+02
   -1.150006   30.20562  0.5109E-14  0.1561E-04  0.4252E-07  0.1658E-02  0.8901E-04  0.8546E+02
   -1.200008   30.20616  0.5109E-14  0.1554E-04  0.4288E-07  0.1685E-02  0.8382E-04  0.1635E+02
   -1.250010   30.20669  0.5109E-14  0.1544E-04  0.4340E-07  0.1654E-02  0.7887E-04  0.1751E+02
   -1.300011   30.20722  0.5109E-14  0.1532E-04  0.4414E-07  0.1604E-02  0.7412E-04  0.2053E+02
   -1.350012   30.20777  0.5109E-14  0.1517E-04  0.4513E-07  0.1545E-02  0.6949E-04  0.2473E+02
   -1.400013   30.20833  0.5109E-14  0.1497E-04  0.4647E-07  0.1467E-02  0.6500E-04  0.3066E+02
   -1.450014   30.20893  0.5109E-14  0.1474E-04  0.4829E-07  0.1390E-02  0.6057E-04  0.3941E+02
   -1.500015   30.20957  0.5109E-14  0.1446E-04  0.5082E-07  0.1277E-02  0.5623E-04  0.5398E+02
   -1.550015   30.21026  0.5109E-14  0.1411E-04  0.5440E-07  0.1195E-02  0.5186E-04  0.7787E+02
   -1.600015   30.21101  0.5109E-14  0.1367E-04  0.5992E-07  0.1052E-02  0.4759E-04  0.1536E+03
   -1.650015   30.21194  0.5109E-14  0.1310E-04  0.6848E-07  0.9725E-03  0.4297E-04  0.4931E+03
   -1.700014   30.21298  0.5109E-14  0.1232E-04  0.8385E-07  0.7920E-03  0.3848E-04 -0.1200E+05
   -1.750013   30.21490  0.5109E-14  0.1128E-04  0.1090E-06  0.7148E-03  0.3238E-04  0.1472E+07
   -1.800012   30.21643  0.5109E-14  0.9916E-05  0.1633E-06  0.4994E-03  0.2778E-04  0.2295E+06
   -1.850010   30.22298  0.5109E-14  0.8398E-05  0.2648E-06  0.4559E-03  0.1971E-04  0.1527E+09
   -1.900008   30.22149  0.5109E-14  0.6642E-05  0.5621E-06  0.2100E-03  0.1601E-04  0.1830E+07
   -1.950006   30.24105  0.5109E-14  0.4659E-05  0.1389E-05  0.1910E-03  0.8537E-05 -0.6086E+06
   -2.000003   30.24339  0.5109E-14  0.0000E+00  0.0000E+00  0.0000E+00  0.1614E-04  0.0000E+00
