 1 - depth, m
 2 - temperature, C
 3 - salinity, kg/kg
 4 - turbulent kinetic energy, m**2/s**2
 5 - dissipation rate, m**2/s**3
 6 - kinematic heat conductance, m**2/s
 7 - modulus of horizontal velocity, m/s
 8 - Richardson number, n/d
   -0.000000   30.36417  0.3821E-13  0.4423E-05  0.2571E-06  0.4573E-04  0.5010E-03  0.1940E+06
   -0.049997   30.39394  0.3821E-13  0.7881E-05  0.1142E-06  0.1865E-03  0.2753E-03  0.1191E+05
   -0.099994   30.40332  0.3821E-13  0.9489E-05  0.8025E-07  0.4038E-03  0.2039E-03  0.2428E+03
   -0.149992   30.40617  0.3821E-13  0.1051E-04  0.6800E-07  0.4864E-03  0.1804E-03  0.1205E+03
   -0.199991   30.40844  0.3821E-13  0.1131E-04  0.6075E-07  0.6436E-03  0.1614E-03  0.7971E+02
   -0.249989   30.41011  0.3821E-13  0.1195E-04  0.5596E-07  0.7675E-03  0.1471E-03  0.5942E+02
   -0.299989   30.41147  0.3821E-13  0.1247E-04  0.5253E-07  0.8892E-03  0.1351E-03  0.4783E+02
   -0.349988   30.41262  0.3821E-13  0.1291E-04  0.4996E-07  0.9999E-03  0.1248E-03  0.4099E+02
   -0.399988   30.41362  0.3821E-13  0.1328E-04  0.4796E-07  0.1101E-02  0.1157E-03  0.3679E+02
   -0.449988   30.41451  0.3821E-13  0.1360E-04  0.4634E-07  0.1195E-02  0.1077E-03  0.3448E+02
   -0.499988   30.41532  0.3821E-13  0.1388E-04  0.4501E-07  0.1282E-02  0.1005E-03  0.3376E+02
   -0.549989   30.41605  0.3821E-13  0.1413E-04  0.4390E-07  0.1361E-02  0.9416E-04  0.3322E+02
   -0.599990   30.41674  0.3821E-13  0.1434E-04  0.4297E-07  0.1433E-02  0.8838E-04  0.3347E+02
   -0.649991   30.41738  0.3821E-13  0.1453E-04  0.4220E-07  0.1497E-02  0.8313E-04  0.3377E+02
   -0.699992   30.41799  0.3821E-13  0.1469E-04  0.4155E-07  0.1554E-02  0.7828E-04  0.3480E+02
   -0.749993   30.41856  0.3821E-13  0.1483E-04  0.4102E-07  0.1604E-02  0.7382E-04  0.3581E+02
   -0.799995   30.41912  0.3821E-13  0.1494E-04  0.4059E-07  0.1646E-02  0.6965E-04  0.3764E+02
   -0.849996   30.41965  0.3821E-13  0.1503E-04  0.4026E-07  0.1681E-02  0.6577E-04  0.3941E+02
   -0.899998   30.42017  0.3821E-13  0.1511E-04  0.4002E-07  0.1708E-02  0.6212E-04  0.4218E+02
   -0.950000   30.42068  0.3821E-13  0.1516E-04  0.3987E-07  0.1727E-02  0.5869E-04  0.4496E+02
   -1.000001   30.42117  0.3821E-13  0.1519E-04  0.3982E-07  0.1738E-02  0.5543E-04  0.4902E+02
   -1.050003   30.42167  0.3821E-13  0.1521E-04  0.3985E-07  0.1740E-02  0.5235E-04  0.5537E+02
   -1.100005   30.42216  0.3821E-13  0.1520E-04  0.3999E-07  0.1820E-02  0.4941E-04  0.1856E+03
   -1.150006   30.42262  0.3821E-13  0.1518E-04  0.4026E-07  0.1667E-02  0.4677E-04  0.4193E+03
   -1.200008   30.42313  0.3821E-13  0.1513E-04  0.4063E-07  0.1686E-02  0.4406E-04  0.8053E+02
   -1.250009   30.42363  0.3821E-13  0.1506E-04  0.4117E-07  0.1657E-02  0.4146E-04  0.8681E+02
   -1.300011   30.42414  0.3821E-13  0.1496E-04  0.4189E-07  0.1610E-02  0.3896E-04  0.1012E+03
   -1.350012   30.42467  0.3821E-13  0.1483E-04  0.4285E-07  0.1553E-02  0.3653E-04  0.1223E+03
   -1.400013   30.42521  0.3821E-13  0.1467E-04  0.4412E-07  0.1479E-02  0.3417E-04  0.1506E+03
   -1.450014   30.42578  0.3821E-13  0.1447E-04  0.4581E-07  0.1403E-02  0.3185E-04  0.1935E+03
   -1.500015   30.42639  0.3821E-13  0.1422E-04  0.4812E-07  0.1296E-02  0.2959E-04  0.2619E+03
   -1.550015   30.42705  0.3821E-13  0.1392E-04  0.5133E-07  0.1210E-02  0.2731E-04  0.3752E+03
   -1.600015   30.42777  0.3821E-13  0.1353E-04  0.5612E-07  0.1068E-02  0.2508E-04  0.6941E+03
   -1.650015   30.42863  0.3821E-13  0.1304E-04  0.6340E-07  0.9890E-03  0.2273E-04  0.3576E+04
   -1.700014   30.42959  0.3821E-13  0.1237E-04  0.7643E-07  0.8074E-03  0.2045E-04  0.1155E+06
   -1.750013   30.43126  0.3821E-13  0.1144E-04  0.9813E-07  0.7300E-03  0.1750E-04  0.1019E+07
   -1.800012   30.43281  0.3821E-13  0.1017E-04  0.1425E-06  0.5085E-03  0.1505E-04  0.1418E+07
   -1.850010   30.43822  0.3821E-13  0.8686E-05  0.2262E-06  0.4675E-03  0.1105E-04  0.1584E+09
   -1.900008   30.43773  0.3821E-13  0.6921E-05  0.4667E-06  0.2113E-03  0.8923E-05  0.3841E+08
   -1.950006   30.45591  0.3821E-13  0.4801E-05  0.1188E-05  0.1764E-03  0.4914E-05 -0.1681E+08
   -2.000003   30.45873  0.3821E-13  0.0000E+00  0.0000E+00  0.0000E+00  0.8433E-05  0.0000E+00
