 1 - depth, m
 2 - temperature, C
 3 - salinity, kg/kg
 4 - turbulent kinetic energy, m**2/s**2
 5 - dissipation rate, m**2/s**3
 6 - kinematic heat conductance, m**2/s
 7 - modulus of horizontal velocity, m/s
 8 - Richardson number, n/d
   -0.000000   30.64725  0.1899E-13  0.5162E-05  0.3349E-06  0.5173E-04  0.8787E-03  0.2104E+05
   -0.049997   30.68148  0.1899E-13  0.8956E-05  0.1488E-06  0.1855E-03  0.5036E-03  0.3816E+03
   -0.099994   30.69425  0.1899E-13  0.1084E-04  0.1025E-06  0.4183E-03  0.3684E-03  0.9590E+02
   -0.149992   30.69777  0.1899E-13  0.1202E-04  0.8625E-07  0.4956E-03  0.3266E-03  0.4724E+02
   -0.199991   30.70061  0.1899E-13  0.1293E-04  0.7663E-07  0.6637E-03  0.2921E-03  0.3081E+02
   -0.249989   30.70267  0.1899E-13  0.1365E-04  0.7029E-07  0.7913E-03  0.2664E-03  0.2273E+02
   -0.299988   30.70435  0.1899E-13  0.1423E-04  0.6574E-07  0.9193E-03  0.2450E-03  0.1820E+02
   -0.349988   30.70575  0.1899E-13  0.1471E-04  0.6230E-07  0.1035E-02  0.2266E-03  0.1542E+02
   -0.399988   30.70696  0.1899E-13  0.1511E-04  0.5962E-07  0.1140E-02  0.2103E-03  0.1383E+02
   -0.449988   30.70803  0.1899E-13  0.1545E-04  0.5742E-07  0.1238E-02  0.1960E-03  0.1283E+02
   -0.499988   30.70900  0.1899E-13  0.1574E-04  0.5558E-07  0.1327E-02  0.1833E-03  0.1258E+02
   -0.549988   30.70988  0.1899E-13  0.1598E-04  0.5403E-07  0.1409E-02  0.1719E-03  0.1225E+02
   -0.599989   30.71070  0.1899E-13  0.1619E-04  0.5271E-07  0.1482E-02  0.1616E-03  0.1235E+02
   -0.649990   30.71146  0.1899E-13  0.1637E-04  0.5158E-07  0.1548E-02  0.1522E-03  0.1232E+02
   -0.699991   30.71218  0.1899E-13  0.1651E-04  0.5061E-07  0.1606E-02  0.1435E-03  0.1270E+02
   -0.749993   30.71285  0.1899E-13  0.1663E-04  0.4979E-07  0.1657E-02  0.1355E-03  0.1291E+02
   -0.799994   30.71350  0.1899E-13  0.1671E-04  0.4908E-07  0.1699E-02  0.1280E-03  0.1356E+02
   -0.849996   30.71412  0.1899E-13  0.1677E-04  0.4850E-07  0.1733E-02  0.1210E-03  0.1402E+02
   -0.899997   30.71472  0.1899E-13  0.1681E-04  0.4802E-07  0.1759E-02  0.1145E-03  0.1499E+02
   -0.949999   30.71531  0.1899E-13  0.1682E-04  0.4765E-07  0.1776E-02  0.1083E-03  0.1578E+02
   -1.000001   30.71587  0.1899E-13  0.1681E-04  0.4739E-07  0.1785E-02  0.1024E-03  0.1719E+02
   -1.050003   30.71643  0.1899E-13  0.1678E-04  0.4725E-07  0.1783E-02  0.9684E-04  0.1912E+02
   -1.100004   30.71699  0.1899E-13  0.1672E-04  0.4723E-07  0.1886E-02  0.9151E-04  0.6279E+02
   -1.150006   30.71750  0.1899E-13  0.1663E-04  0.4736E-07  0.1673E-02  0.8679E-04  0.1506E+03
   -1.200007   30.71808  0.1899E-13  0.1653E-04  0.4764E-07  0.1713E-02  0.8179E-04  0.2773E+02
   -1.250009   30.71863  0.1899E-13  0.1639E-04  0.4811E-07  0.1682E-02  0.7704E-04  0.2962E+02
   -1.300010   30.71919  0.1899E-13  0.1622E-04  0.4881E-07  0.1627E-02  0.7248E-04  0.3434E+02
   -1.350011   30.71976  0.1899E-13  0.1601E-04  0.4981E-07  0.1564E-02  0.6803E-04  0.4160E+02
   -1.400012   30.72035  0.1899E-13  0.1576E-04  0.5123E-07  0.1481E-02  0.6370E-04  0.5137E+02
   -1.450013   30.72096  0.1899E-13  0.1547E-04  0.5321E-07  0.1401E-02  0.5942E-04  0.6660E+02
   -1.500014   30.72162  0.1899E-13  0.1511E-04  0.5605E-07  0.1283E-02  0.5521E-04  0.9204E+02
   -1.550014   30.72233  0.1899E-13  0.1469E-04  0.6018E-07  0.1202E-02  0.5095E-04  0.1361E+03
   -1.600014   30.72311  0.1899E-13  0.1416E-04  0.6681E-07  0.1055E-02  0.4678E-04  0.3766E+03
   -1.650014   30.72409  0.1899E-13  0.1347E-04  0.7741E-07  0.9745E-03  0.4217E-04  0.2498E+04
   -1.700013   30.72523  0.1899E-13  0.1253E-04  0.9613E-07  0.7915E-03  0.3756E-04 -0.4851E+05
   -1.750012   30.72725  0.1899E-13  0.1135E-04  0.1263E-06  0.7118E-03  0.3141E-04  0.2257E+06
   -1.800011   30.72865  0.1899E-13  0.9852E-05  0.1916E-06  0.4879E-03  0.2701E-04  0.2107E+07
   -1.850009   30.73588  0.1899E-13  0.8291E-05  0.3159E-06  0.4581E-03  0.1870E-04  0.2872E+09
   -1.900007   30.73344  0.1899E-13  0.6540E-05  0.6621E-06  0.2111E-03  0.1544E-04  0.4679E+06
   -1.950005   30.75353  0.1899E-13  0.4630E-05  0.1609E-05  0.2088E-03  0.8102E-05 -0.1723E+07
   -2.000002   30.75396  0.1899E-13  0.0000E+00  0.0000E+00  0.0000E+00  0.1607E-04  0.0000E+00
