 1 - depth, m
 2 - temperature, C
 3 - salinity, kg/kg
 4 - turbulent kinetic energy, m**2/s**2
 5 - dissipation rate, m**2/s**3
 6 - kinematic heat conductance, m**2/s
 7 - modulus of horizontal velocity, m/s
 8 - Richardson number, n/d
   -0.000000   30.28969  0.4995E-13  0.4680E-05  0.2852E-06  0.4915E-04  0.1357E-02  0.5641E+04
   -0.049997   30.31958  0.4995E-13  0.8064E-05  0.1271E-06  0.1778E-03  0.7697E-03  0.1030E+04
   -0.099994   30.33074  0.4995E-13  0.9773E-05  0.8777E-07  0.3957E-03  0.5647E-03  0.2710E+02
   -0.149992   30.33388  0.4995E-13  0.1085E-04  0.7375E-07  0.4777E-03  0.4986E-03  0.1328E+02
   -0.199991   30.33637  0.4995E-13  0.1168E-04  0.6552E-07  0.6370E-03  0.4452E-03  0.8541E+01
   -0.249989   30.33818  0.4995E-13  0.1235E-04  0.6013E-07  0.7612E-03  0.4052E-03  0.6293E+01
   -0.299988   30.33965  0.4995E-13  0.1289E-04  0.5628E-07  0.8850E-03  0.3719E-03  0.5016E+01
   -0.349988   30.34089  0.4995E-13  0.1334E-04  0.5340E-07  0.9971E-03  0.3434E-03  0.4275E+01
   -0.399988   30.34196  0.4995E-13  0.1372E-04  0.5115E-07  0.1100E-02  0.3181E-03  0.3818E+01
   -0.449988   30.34292  0.4995E-13  0.1404E-04  0.4933E-07  0.1195E-02  0.2960E-03  0.3570E+01
   -0.499988   30.34377  0.4995E-13  0.1433E-04  0.4782E-07  0.1283E-02  0.2763E-03  0.3482E+01
   -0.549989   30.34456  0.4995E-13  0.1457E-04  0.4655E-07  0.1363E-02  0.2587E-03  0.3421E+01
   -0.599990   30.34528  0.4995E-13  0.1478E-04  0.4549E-07  0.1436E-02  0.2428E-03  0.3432E+01
   -0.649991   30.34596  0.4995E-13  0.1497E-04  0.4459E-07  0.1501E-02  0.2283E-03  0.3458E+01
   -0.699992   30.34660  0.4995E-13  0.1512E-04  0.4384E-07  0.1560E-02  0.2150E-03  0.3547E+01
   -0.749993   30.34721  0.4995E-13  0.1525E-04  0.4320E-07  0.1610E-02  0.2027E-03  0.3644E+01
   -0.799995   30.34779  0.4995E-13  0.1536E-04  0.4268E-07  0.1653E-02  0.1913E-03  0.3810E+01
   -0.849996   30.34835  0.4995E-13  0.1544E-04  0.4225E-07  0.1689E-02  0.1806E-03  0.3982E+01
   -0.899998   30.34889  0.4995E-13  0.1551E-04  0.4193E-07  0.1716E-02  0.1706E-03  0.4238E+01
   -0.950000   30.34941  0.4995E-13  0.1555E-04  0.4170E-07  0.1736E-02  0.1611E-03  0.4507E+01
   -1.000001   30.34993  0.4995E-13  0.1557E-04  0.4156E-07  0.1748E-02  0.1522E-03  0.4884E+01
   -1.050003   30.35044  0.4995E-13  0.1557E-04  0.4153E-07  0.1750E-02  0.1437E-03  0.5500E+01
   -1.100005   30.35094  0.4995E-13  0.1555E-04  0.4159E-07  0.1831E-02  0.1357E-03  0.1843E+02
   -1.150006   30.35142  0.4995E-13  0.1551E-04  0.4179E-07  0.1676E-02  0.1284E-03  0.4084E+02
   -1.200008   30.35194  0.4995E-13  0.1545E-04  0.4210E-07  0.1697E-02  0.1210E-03  0.7874E+01
   -1.250009   30.35245  0.4995E-13  0.1536E-04  0.4258E-07  0.1667E-02  0.1139E-03  0.8429E+01
   -1.300011   30.35297  0.4995E-13  0.1525E-04  0.4325E-07  0.1620E-02  0.1070E-03  0.9770E+01
   -1.350012   30.35350  0.4995E-13  0.1510E-04  0.4416E-07  0.1563E-02  0.1003E-03  0.1172E+02
   -1.400013   30.35405  0.4995E-13  0.1492E-04  0.4539E-07  0.1489E-02  0.9385E-04  0.1429E+02
   -1.450014   30.35462  0.4995E-13  0.1471E-04  0.4705E-07  0.1413E-02  0.8749E-04  0.1821E+02
   -1.500014   30.35523  0.4995E-13  0.1444E-04  0.4934E-07  0.1305E-02  0.8127E-04  0.2430E+02
   -1.550015   30.35589  0.4995E-13  0.1412E-04  0.5256E-07  0.1218E-02  0.7502E-04  0.3444E+02
   -1.600015   30.35660  0.4995E-13  0.1371E-04  0.5740E-07  0.1078E-02  0.6889E-04  0.6107E+02
   -1.650015   30.35745  0.4995E-13  0.1320E-04  0.6482E-07  0.9944E-03  0.6241E-04  0.3255E+03
   -1.700014   30.35842  0.4995E-13  0.1249E-04  0.7806E-07  0.8184E-03  0.5607E-04 -0.1152E+03
   -1.750013   30.36004  0.4995E-13  0.1155E-04  0.9996E-07  0.7353E-03  0.4788E-04  0.5392E+05
   -1.800012   30.36153  0.4995E-13  0.1025E-04  0.1453E-06  0.5215E-03  0.4112E-04  0.1250E+07
   -1.850010   30.36686  0.4995E-13  0.8731E-05  0.2312E-06  0.4684E-03  0.3004E-04  0.9281E+08
   -1.900008   30.36650  0.4995E-13  0.6893E-05  0.4813E-06  0.2121E-03  0.2413E-04  0.7952E+06
   -1.950006   30.38409  0.4995E-13  0.4792E-05  0.1214E-05  0.1790E-03  0.1315E-04 -0.8637E+06
   -2.000002   30.38681  0.4995E-13  0.0000E+00  0.0000E+00  0.0000E+00  0.2328E-04  0.0000E+00
