 1 - depth, m
 2 - temperature, C
 3 - salinity, kg/kg
 4 - turbulent kinetic energy, m**2/s**2
 5 - dissipation rate, m**2/s**3
 6 - kinematic heat conductance, m**2/s
 7 - modulus of horizontal velocity, m/s
 8 - Richardson number, n/d
   -0.000000   30.22033  0.7276E-13  0.4647E-05  0.2830E-06  0.4889E-04  0.1095E-02  0.9618E+04
   -0.049997   30.25046  0.7276E-13  0.8054E-05  0.1259E-06  0.1779E-03  0.6172E-03  0.6277E+02
   -0.099994   30.26170  0.7276E-13  0.9762E-05  0.8713E-07  0.3978E-03  0.4530E-03  0.4009E+02
   -0.149992   30.26483  0.7276E-13  0.1083E-04  0.7331E-07  0.4790E-03  0.4000E-03  0.1959E+02
   -0.199991   30.26731  0.7276E-13  0.1166E-04  0.6519E-07  0.6382E-03  0.3573E-03  0.1262E+02
   -0.249989   30.26913  0.7276E-13  0.1232E-04  0.5985E-07  0.7623E-03  0.3252E-03  0.9346E+01
   -0.299988   30.27060  0.7276E-13  0.1286E-04  0.5604E-07  0.8858E-03  0.2984E-03  0.7440E+01
   -0.349988   30.27184  0.7276E-13  0.1331E-04  0.5318E-07  0.9976E-03  0.2755E-03  0.6375E+01
   -0.399988   30.27291  0.7276E-13  0.1369E-04  0.5095E-07  0.1100E-02  0.2553E-03  0.5676E+01
   -0.449988   30.27386  0.7276E-13  0.1401E-04  0.4913E-07  0.1195E-02  0.2374E-03  0.5337E+01
   -0.499988   30.27472  0.7276E-13  0.1429E-04  0.4764E-07  0.1282E-02  0.2217E-03  0.5184E+01
   -0.549989   30.27550  0.7276E-13  0.1454E-04  0.4638E-07  0.1362E-02  0.2075E-03  0.5124E+01
   -0.599990   30.27623  0.7276E-13  0.1475E-04  0.4532E-07  0.1435E-02  0.1948E-03  0.5117E+01
   -0.649991   30.27691  0.7276E-13  0.1493E-04  0.4443E-07  0.1500E-02  0.1831E-03  0.5191E+01
   -0.699992   30.27755  0.7276E-13  0.1508E-04  0.4368E-07  0.1558E-02  0.1724E-03  0.5298E+01
   -0.749993   30.27815  0.7276E-13  0.1521E-04  0.4305E-07  0.1608E-02  0.1625E-03  0.5484E+01
   -0.799995   30.27874  0.7276E-13  0.1532E-04  0.4253E-07  0.1651E-02  0.1533E-03  0.5700E+01
   -0.849996   30.27929  0.7276E-13  0.1540E-04  0.4211E-07  0.1686E-02  0.1448E-03  0.6008E+01
   -0.899998   30.27984  0.7276E-13  0.1546E-04  0.4179E-07  0.1713E-02  0.1367E-03  0.6352E+01
   -0.950000   30.28036  0.7276E-13  0.1550E-04  0.4156E-07  0.1732E-02  0.1291E-03  0.6817E+01
   -1.000001   30.28088  0.7276E-13  0.1552E-04  0.4143E-07  0.1743E-02  0.1219E-03  0.7335E+01
   -1.050003   30.28139  0.7276E-13  0.1552E-04  0.4139E-07  0.1745E-02  0.1151E-03  0.8335E+01
   -1.100005   30.28189  0.7276E-13  0.1550E-04  0.4147E-07  0.1828E-02  0.1087E-03  0.2764E+02
   -1.150006   30.28237  0.7276E-13  0.1546E-04  0.4167E-07  0.1668E-02  0.1029E-03  0.6200E+02
   -1.200008   30.28289  0.7276E-13  0.1540E-04  0.4199E-07  0.1691E-02  0.9687E-04  0.1200E+02
   -1.250009   30.28341  0.7276E-13  0.1531E-04  0.4247E-07  0.1661E-02  0.9115E-04  0.1275E+02
   -1.300011   30.28392  0.7276E-13  0.1519E-04  0.4314E-07  0.1613E-02  0.8563E-04  0.1494E+02
   -1.350012   30.28446  0.7276E-13  0.1505E-04  0.4406E-07  0.1556E-02  0.8029E-04  0.1779E+02
   -1.400013   30.28500  0.7276E-13  0.1487E-04  0.4530E-07  0.1481E-02  0.7508E-04  0.2196E+02
   -1.450014   30.28558  0.7276E-13  0.1465E-04  0.4698E-07  0.1405E-02  0.6999E-04  0.2781E+02
   -1.500014   30.28619  0.7276E-13  0.1438E-04  0.4929E-07  0.1296E-02  0.6498E-04  0.3759E+02
   -1.550015   30.28686  0.7276E-13  0.1405E-04  0.5254E-07  0.1212E-02  0.5997E-04  0.5290E+02
   -1.600015   30.28757  0.7276E-13  0.1364E-04  0.5746E-07  0.1067E-02  0.5505E-04  0.9492E+02
   -1.650015   30.28843  0.7276E-13  0.1312E-04  0.6502E-07  0.9929E-03  0.4983E-04  0.2398E+03
   -1.700014   30.28939  0.7276E-13  0.1241E-04  0.7865E-07  0.8067E-03  0.4477E-04  0.8823E+04
   -1.750013   30.29108  0.7276E-13  0.1144E-04  0.1011E-06  0.7340E-03  0.3806E-04  0.8448E+05
   -1.800012   30.29255  0.7276E-13  0.1012E-04  0.1493E-06  0.5069E-03  0.3273E-04  0.2032E+06
   -1.850010   30.29820  0.7276E-13  0.8596E-05  0.2383E-06  0.4683E-03  0.2357E-04  0.1120E+08
   -1.900008   30.29741  0.7276E-13  0.6833E-05  0.4930E-06  0.2151E-03  0.1913E-04  0.2509E+05
   -1.950006   30.31543  0.7276E-13  0.4760E-05  0.1258E-05  0.1802E-03  0.1041E-04 -0.7484E+06
   -2.000003   30.31824  0.7276E-13  0.0000E+00  0.0000E+00  0.0000E+00  0.1862E-04  0.0000E+00
