 1 - depth, m
 2 - temperature, C
 3 - salinity, kg/kg
 4 - turbulent kinetic energy, m**2/s**2
 5 - dissipation rate, m**2/s**3
 6 - kinematic heat conductance, m**2/s
 7 - modulus of horizontal velocity, m/s
 8 - Richardson number, n/d
   -0.000000   30.24137  0.4321E-13  0.5892E-05  0.3300E-06  0.5460E-04  0.4096E-02  0.2632E+03
   -0.049997   30.27357  0.4321E-13  0.9299E-05  0.1412E-06  0.2177E-03  0.2186E-02  0.2662E+02
   -0.099994   30.28248  0.4321E-13  0.1081E-04  0.1018E-06  0.3915E-03  0.1765E-02  0.3460E+01
   -0.149992   30.28604  0.4321E-13  0.1183E-04  0.8623E-07  0.4897E-03  0.1584E-02  0.1864E+01
   -0.199991   30.28876  0.4321E-13  0.1266E-04  0.7707E-07  0.6147E-03  0.1442E-02  0.1357E+01
   -0.249989   30.29086  0.4321E-13  0.1337E-04  0.7082E-07  0.7259E-03  0.1327E-02  0.1292E+01
   -0.299988   30.29260  0.4321E-13  0.1402E-04  0.6599E-07  0.8558E-03  0.1221E-02  0.1363E+01
   -0.349988   30.29403  0.4321E-13  0.1464E-04  0.6203E-07  0.1002E-02  0.1117E-02  0.1456E+01
   -0.399988   30.29522  0.4321E-13  0.1521E-04  0.5876E-07  0.1155E-02  0.1016E-02  0.1479E+01
   -0.449988   30.29624  0.4321E-13  0.1572E-04  0.5604E-07  0.1304E-02  0.9224E-03  0.1481E+01
   -0.499988   30.29712  0.4321E-13  0.1616E-04  0.5380E-07  0.1443E-02  0.8386E-03  0.1477E+01
   -0.549989   30.29790  0.4321E-13  0.1654E-04  0.5197E-07  0.1569E-02  0.7641E-03  0.1463E+01
   -0.599989   30.29860  0.4321E-13  0.1685E-04  0.5048E-07  0.1681E-02  0.6977E-03  0.1444E+01
   -0.649990   30.29925  0.4321E-13  0.1710E-04  0.4928E-07  0.1777E-02  0.6385E-03  0.1422E+01
   -0.699992   30.29985  0.4321E-13  0.1730E-04  0.4832E-07  0.1856E-02  0.5858E-03  0.1396E+01
   -0.749993   30.30042  0.4321E-13  0.1744E-04  0.4758E-07  0.1917E-02  0.5388E-03  0.1367E+01
   -0.799994   30.30096  0.4321E-13  0.1754E-04  0.4703E-07  0.1961E-02  0.4969E-03  0.1335E+01
   -0.849996   30.30148  0.4321E-13  0.1759E-04  0.4665E-07  0.1988E-02  0.4594E-03  0.1301E+01
   -0.899998   30.30199  0.4321E-13  0.1761E-04  0.4643E-07  0.2000E-02  0.4260E-03  0.1263E+01
   -0.949999   30.30250  0.4321E-13  0.1760E-04  0.4635E-07  0.1998E-02  0.3962E-03  0.1224E+01
   -1.000001   30.30299  0.4321E-13  0.1755E-04  0.4642E-07  0.1982E-02  0.3696E-03  0.1181E+01
   -1.050003   30.30349  0.4321E-13  0.1749E-04  0.4661E-07  0.1946E-02  0.3458E-03  0.1151E+01
   -1.100005   30.30399  0.4321E-13  0.1740E-04  0.4690E-07  0.2133E-02  0.3248E-03  0.2706E+01
   -1.150006   30.30444  0.4321E-13  0.1729E-04  0.4735E-07  0.1729E-02  0.3097E-03  0.7376E+01
   -1.200008   30.30500  0.4321E-13  0.1716E-04  0.4794E-07  0.1832E-02  0.2921E-03  0.1335E+01
   -1.250009   30.30552  0.4321E-13  0.1700E-04  0.4877E-07  0.1790E-02  0.2757E-03  0.1395E+01
   -1.300011   30.30605  0.4321E-13  0.1680E-04  0.4987E-07  0.1719E-02  0.2600E-03  0.1644E+01
   -1.350012   30.30660  0.4321E-13  0.1657E-04  0.5134E-07  0.1642E-02  0.2447E-03  0.2009E+01
   -1.400013   30.30717  0.4321E-13  0.1629E-04  0.5333E-07  0.1540E-02  0.2297E-03  0.2565E+01
   -1.450014   30.30779  0.4321E-13  0.1596E-04  0.5605E-07  0.1449E-02  0.2147E-03  0.3411E+01
   -1.500014   30.30845  0.4321E-13  0.1556E-04  0.5990E-07  0.1317E-02  0.1999E-03  0.5006E+01
   -1.550014   30.30919  0.4321E-13  0.1508E-04  0.6556E-07  0.1232E-02  0.1847E-03  0.8537E+01
   -1.600015   30.31002  0.4321E-13  0.1446E-04  0.7472E-07  0.1070E-02  0.1694E-03  0.1382E+04
   -1.650014   30.31117  0.4321E-13  0.1365E-04  0.8894E-07  0.9856E-03  0.1519E-03  0.3664E+04
   -1.700014   30.31248  0.4321E-13  0.1254E-04  0.1156E-06  0.7829E-03  0.1344E-03  0.1064E+05
   -1.750013   30.31497  0.4321E-13  0.1128E-04  0.1550E-06  0.7143E-03  0.1104E-03  0.4599E+05
   -1.800012   30.31616  0.4321E-13  0.9732E-05  0.2406E-06  0.4771E-03  0.9580E-04  0.1230E+06
   -1.850010   30.32591  0.4321E-13  0.8176E-05  0.4064E-06  0.4619E-03  0.6392E-04  0.3050E+08
   -1.900008   30.32131  0.4321E-13  0.6481E-05  0.8552E-06  0.2185E-03  0.5365E-04 -0.7662E+05
   -1.950005   30.34543  0.4321E-13  0.4658E-05  0.1998E-05  0.2314E-03  0.2754E-04 -0.3815E+06
   -2.000002   30.34448  0.4321E-13  0.0000E+00  0.0000E+00  0.0000E+00  0.5935E-04  0.0000E+00
