 1 - depth, m
 2 - temperature, C
 3 - salinity, kg/kg
 4 - turbulent kinetic energy, m**2/s**2
 5 - dissipation rate, m**2/s**3
 6 - kinematic heat conductance, m**2/s
 7 - modulus of horizontal velocity, m/s
 8 - Richardson number, n/d
   -0.000000   30.01224  0.2109E-13  0.4734E-05  0.2951E-06  0.5042E-04  0.8751E-03  0.5100E+04
   -0.049997   30.04282  0.2109E-13  0.8243E-05  0.1310E-06  0.1759E-03  0.5011E-03  0.4754E+02
   -0.099994   30.05490  0.2109E-13  0.1001E-04  0.8999E-07  0.4091E-03  0.3627E-03  0.7231E+02
   -0.149992   30.05808  0.2109E-13  0.1110E-04  0.7582E-07  0.4829E-03  0.3210E-03  0.3529E+02
   -0.199991   30.06067  0.2109E-13  0.1195E-04  0.6745E-07  0.6465E-03  0.2866E-03  0.2289E+02
   -0.249989   30.06255  0.2109E-13  0.1262E-04  0.6193E-07  0.7715E-03  0.2609E-03  0.1701E+02
   -0.299989   30.06408  0.2109E-13  0.1317E-04  0.5798E-07  0.8962E-03  0.2395E-03  0.1356E+02
   -0.349988   30.06536  0.2109E-13  0.1362E-04  0.5500E-07  0.1009E-02  0.2212E-03  0.1163E+02
   -0.399988   30.06647  0.2109E-13  0.1400E-04  0.5267E-07  0.1112E-02  0.2050E-03  0.1035E+02
   -0.449988   30.06745  0.2109E-13  0.1433E-04  0.5078E-07  0.1208E-02  0.1907E-03  0.9747E+01
   -0.499988   30.06834  0.2109E-13  0.1461E-04  0.4920E-07  0.1296E-02  0.1781E-03  0.9455E+01
   -0.549989   30.06915  0.2109E-13  0.1486E-04  0.4788E-07  0.1377E-02  0.1668E-03  0.9352E+01
   -0.599990   30.06990  0.2109E-13  0.1507E-04  0.4675E-07  0.1450E-02  0.1565E-03  0.9320E+01
   -0.649991   30.07060  0.2109E-13  0.1524E-04  0.4580E-07  0.1516E-02  0.1472E-03  0.9458E+01
   -0.699992   30.07126  0.2109E-13  0.1539E-04  0.4498E-07  0.1574E-02  0.1386E-03  0.9626E+01
   -0.749993   30.07189  0.2109E-13  0.1552E-04  0.4429E-07  0.1625E-02  0.1307E-03  0.9964E+01
   -0.799995   30.07248  0.2109E-13  0.1562E-04  0.4371E-07  0.1668E-02  0.1233E-03  0.1032E+02
   -0.849996   30.07306  0.2109E-13  0.1569E-04  0.4324E-07  0.1704E-02  0.1164E-03  0.1087E+02
   -0.899998   30.07361  0.2109E-13  0.1575E-04  0.4286E-07  0.1732E-02  0.1100E-03  0.1145E+02
   -0.950000   30.07415  0.2109E-13  0.1578E-04  0.4257E-07  0.1751E-02  0.1039E-03  0.1228E+02
   -1.000001   30.07467  0.2109E-13  0.1579E-04  0.4238E-07  0.1763E-02  0.9815E-04  0.1316E+02
   -1.050003   30.07519  0.2109E-13  0.1579E-04  0.4229E-07  0.1766E-02  0.9268E-04  0.1492E+02
   -1.100005   30.07570  0.2109E-13  0.1576E-04  0.4230E-07  0.1849E-02  0.8748E-04  0.4953E+02
   -1.150006   30.07619  0.2109E-13  0.1570E-04  0.4244E-07  0.1689E-02  0.8283E-04  0.1090E+03
   -1.200008   30.07671  0.2109E-13  0.1563E-04  0.4270E-07  0.1713E-02  0.7803E-04  0.2122E+02
   -1.250010   30.07722  0.2109E-13  0.1553E-04  0.4312E-07  0.1684E-02  0.7344E-04  0.2242E+02
   -1.300011   30.07774  0.2109E-13  0.1540E-04  0.4373E-07  0.1636E-02  0.6901E-04  0.2615E+02
   -1.350012   30.07827  0.2109E-13  0.1525E-04  0.4459E-07  0.1579E-02  0.6473E-04  0.3092E+02
   -1.400013   30.07881  0.2109E-13  0.1506E-04  0.4575E-07  0.1505E-02  0.6055E-04  0.3792E+02
   -1.450014   30.07938  0.2109E-13  0.1483E-04  0.4735E-07  0.1429E-02  0.5647E-04  0.4759E+02
   -1.500015   30.07998  0.2109E-13  0.1455E-04  0.4958E-07  0.1320E-02  0.5245E-04  0.6372E+02
   -1.550015   30.08063  0.2109E-13  0.1421E-04  0.5273E-07  0.1237E-02  0.4844E-04  0.8855E+02
   -1.600015   30.08132  0.2109E-13  0.1380E-04  0.5752E-07  0.1094E-02  0.4450E-04  0.1570E+03
   -1.650015   30.08215  0.2109E-13  0.1327E-04  0.6490E-07  0.1016E-02  0.4032E-04  0.5367E+03
   -1.700014   30.08308  0.2109E-13  0.1255E-04  0.7817E-07  0.8297E-03  0.3622E-04 -0.1929E+03
   -1.750013   30.08469  0.2109E-13  0.1159E-04  0.9994E-07  0.7535E-03  0.3082E-04  0.1279E+06
   -1.800012   30.08605  0.2109E-13  0.1030E-04  0.1452E-06  0.5289E-03  0.2657E-04 -0.1379E+06
   -1.850010   30.09114  0.2109E-13  0.8825E-05  0.2313E-06  0.4850E-03  0.1930E-04  0.3051E+08
   -1.900008   30.09067  0.2109E-13  0.7047E-05  0.4839E-06  0.2256E-03  0.1572E-04  0.8083E+06
   -1.950006   30.10687  0.2109E-13  0.4865E-05  0.1231E-05  0.1773E-03  0.8668E-05 -0.1728E+07
   -2.000003   30.11044  0.2109E-13  0.0000E+00  0.0000E+00  0.0000E+00  0.1526E-04  0.0000E+00
