 1 - depth, m
 2 - temperature, C
 3 - salinity, kg/kg
 4 - turbulent kinetic energy, m**2/s**2
 5 - dissipation rate, m**2/s**3
 6 - kinematic heat conductance, m**2/s
 7 - modulus of horizontal velocity, m/s
 8 - Richardson number, n/d
   -0.000000   29.85726  0.5978E-13  0.4794E-05  0.2690E-06  0.4894E-04  0.2605E-02  0.3553E+04
   -0.049997   29.88584  0.5979E-13  0.7965E-05  0.1184E-06  0.1884E-03  0.1406E-02  0.1326E+02
   -0.099994   29.89497  0.5979E-13  0.9470E-05  0.8351E-07  0.3783E-03  0.1077E-02  0.6869E+01
   -0.149992   29.89807  0.5979E-13  0.1045E-04  0.7016E-07  0.4725E-03  0.9506E-03  0.3491E+01
   -0.199991   29.90044  0.5979E-13  0.1122E-04  0.6232E-07  0.6170E-03  0.8518E-03  0.2275E+01
   -0.249989   29.90221  0.5979E-13  0.1183E-04  0.5717E-07  0.7373E-03  0.7763E-03  0.1689E+01
   -0.299989   29.90365  0.5979E-13  0.1234E-04  0.5349E-07  0.8501E-03  0.7135E-03  0.1363E+01
   -0.349988   29.90486  0.5979E-13  0.1276E-04  0.5072E-07  0.9509E-03  0.6591E-03  0.1233E+01
   -0.399988   29.90592  0.5979E-13  0.1313E-04  0.4849E-07  0.1052E-02  0.6097E-03  0.1215E+01
   -0.449988   29.90686  0.5979E-13  0.1347E-04  0.4661E-07  0.1156E-02  0.5641E-03  0.1224E+01
   -0.499988   29.90770  0.5979E-13  0.1376E-04  0.4502E-07  0.1255E-02  0.5227E-03  0.1233E+01
   -0.549989   29.90846  0.5979E-13  0.1402E-04  0.4368E-07  0.1345E-02  0.4853E-03  0.1231E+01
   -0.599990   29.90915  0.5979E-13  0.1425E-04  0.4256E-07  0.1428E-02  0.4514E-03  0.1227E+01
   -0.649991   29.90979  0.5979E-13  0.1444E-04  0.4161E-07  0.1502E-02  0.4208E-03  0.1218E+01
   -0.699992   29.91039  0.5979E-13  0.1459E-04  0.4083E-07  0.1566E-02  0.3930E-03  0.1206E+01
   -0.749993   29.91096  0.5979E-13  0.1472E-04  0.4019E-07  0.1619E-02  0.3679E-03  0.1193E+01
   -0.799995   29.91151  0.5979E-13  0.1482E-04  0.3967E-07  0.1663E-02  0.3451E-03  0.1183E+01
   -0.849996   29.91203  0.5979E-13  0.1490E-04  0.3927E-07  0.1697E-02  0.3244E-03  0.1182E+01
   -0.899998   29.91253  0.5979E-13  0.1495E-04  0.3897E-07  0.1721E-02  0.3055E-03  0.1202E+01
   -0.950000   29.91303  0.5979E-13  0.1498E-04  0.3876E-07  0.1737E-02  0.2881E-03  0.1247E+01
   -1.000002   29.91351  0.5979E-13  0.1499E-04  0.3864E-07  0.1746E-02  0.2720E-03  0.1329E+01
   -1.050003   29.91399  0.5979E-13  0.1498E-04  0.3861E-07  0.1745E-02  0.2568E-03  0.1497E+01
   -1.100005   29.91446  0.5979E-13  0.1496E-04  0.3867E-07  0.1834E-02  0.2423E-03  0.4958E+01
   -1.150007   29.91491  0.5979E-13  0.1491E-04  0.3886E-07  0.1657E-02  0.2295E-03  0.1137E+02
   -1.200008   29.91540  0.5979E-13  0.1484E-04  0.3915E-07  0.1685E-02  0.2160E-03  0.2170E+01
   -1.250010   29.91588  0.5979E-13  0.1474E-04  0.3960E-07  0.1655E-02  0.2032E-03  0.2315E+01
   -1.300011   29.91637  0.5979E-13  0.1463E-04  0.4023E-07  0.1606E-02  0.1909E-03  0.2706E+01
   -1.350012   29.91687  0.5979E-13  0.1448E-04  0.4108E-07  0.1548E-02  0.1790E-03  0.3243E+01
   -1.400013   29.91738  0.5979E-13  0.1430E-04  0.4223E-07  0.1473E-02  0.1674E-03  0.4001E+01
   -1.450014   29.91792  0.5979E-13  0.1408E-04  0.4380E-07  0.1397E-02  0.1559E-03  0.5099E+01
   -1.500015   29.91849  0.5979E-13  0.1382E-04  0.4596E-07  0.1288E-02  0.1448E-03  0.6917E+01
   -1.550015   29.91912  0.5979E-13  0.1350E-04  0.4902E-07  0.1205E-02  0.1335E-03  0.9823E+01
   -1.600015   29.91979  0.5979E-13  0.1310E-04  0.5370E-07  0.1063E-02  0.1226E-03  0.1925E+02
   -1.650015   29.92061  0.5979E-13  0.1259E-04  0.6092E-07  0.9839E-03  0.1108E-03  0.3848E+02
   -1.700015   29.92151  0.5979E-13  0.1189E-04  0.7384E-07  0.8036E-03  0.9945E-04 -0.1057E+04
   -1.750014   29.92313  0.5979E-13  0.1095E-04  0.9522E-07  0.7233E-03  0.8435E-04  0.5902E+05
   -1.800012   29.92452  0.5979E-13  0.9707E-05  0.1392E-06  0.5161E-03  0.7236E-04  0.4057E+04
   -1.850011   29.92975  0.5979E-13  0.8280E-05  0.2225E-06  0.4628E-03  0.5253E-04  0.2516E+09
   -1.900009   29.92890  0.5979E-13  0.6544E-05  0.4689E-06  0.2074E-03  0.4253E-04  0.2981E+06
   -1.950006   29.94567  0.5979E-13  0.4539E-05  0.1171E-05  0.1792E-03  0.2307E-04 -0.2580E+06
   -2.000003   29.94807  0.5979E-13  0.0000E+00  0.0000E+00  0.0000E+00  0.4151E-04  0.0000E+00
