 1 - depth, m
 2 - temperature, C
 3 - salinity, kg/kg
 4 - turbulent kinetic energy, m**2/s**2
 5 - dissipation rate, m**2/s**3
 6 - kinematic heat conductance, m**2/s
 7 - modulus of horizontal velocity, m/s
 8 - Richardson number, n/d
   -0.000000   31.15240  0.1153E-12  0.5339E-05  0.3515E-06  0.5217E-04  0.1221E-02  0.7827E+04
   -0.049997   31.18752  0.1153E-12  0.9146E-05  0.1563E-06  0.1870E-03  0.6950E-03  0.8483E+02
   -0.099994   31.20069  0.1153E-12  0.1108E-04  0.1077E-06  0.4141E-03  0.5130E-03  0.3474E+02
   -0.149992   31.20435  0.1153E-12  0.1228E-04  0.9027E-07  0.4964E-03  0.4540E-03  0.1709E+02
   -0.199990   31.20726  0.1153E-12  0.1321E-04  0.8003E-07  0.6644E-03  0.4061E-03  0.1093E+02
   -0.249989   31.20937  0.1153E-12  0.1395E-04  0.7332E-07  0.7926E-03  0.3703E-03  0.8079E+01
   -0.299988   31.21108  0.1153E-12  0.1455E-04  0.6852E-07  0.9220E-03  0.3405E-03  0.6412E+01
   -0.349988   31.21250  0.1153E-12  0.1504E-04  0.6491E-07  0.1038E-02  0.3149E-03  0.5479E+01
   -0.399987   31.21374  0.1153E-12  0.1545E-04  0.6209E-07  0.1145E-02  0.2923E-03  0.4868E+01
   -0.449987   31.21483  0.1153E-12  0.1580E-04  0.5979E-07  0.1243E-02  0.2724E-03  0.4567E+01
   -0.499988   31.21581  0.1153E-12  0.1609E-04  0.5787E-07  0.1333E-02  0.2548E-03  0.4428E+01
   -0.549988   31.21671  0.1153E-12  0.1635E-04  0.5626E-07  0.1415E-02  0.2389E-03  0.4366E+01
   -0.599989   31.21754  0.1153E-12  0.1656E-04  0.5490E-07  0.1489E-02  0.2246E-03  0.4353E+01
   -0.649990   31.21831  0.1153E-12  0.1675E-04  0.5374E-07  0.1555E-02  0.2116E-03  0.4406E+01
   -0.699991   31.21904  0.1153E-12  0.1689E-04  0.5275E-07  0.1613E-02  0.1995E-03  0.4491E+01
   -0.749992   31.21973  0.1153E-12  0.1701E-04  0.5191E-07  0.1663E-02  0.1884E-03  0.4639E+01
   -0.799994   31.22039  0.1153E-12  0.1711E-04  0.5121E-07  0.1705E-02  0.1780E-03  0.4820E+01
   -0.849995   31.22102  0.1153E-12  0.1717E-04  0.5064E-07  0.1739E-02  0.1683E-03  0.5072E+01
   -0.899997   31.22163  0.1153E-12  0.1722E-04  0.5019E-07  0.1764E-02  0.1592E-03  0.5366E+01
   -0.949999   31.22223  0.1153E-12  0.1723E-04  0.4986E-07  0.1780E-02  0.1506E-03  0.5753E+01
   -1.000000   31.22281  0.1153E-12  0.1723E-04  0.4964E-07  0.1788E-02  0.1425E-03  0.6204E+01
   -1.050002   31.22338  0.1153E-12  0.1719E-04  0.4956E-07  0.1784E-02  0.1347E-03  0.7037E+01
   -1.100004   31.22395  0.1153E-12  0.1714E-04  0.4961E-07  0.1893E-02  0.1273E-03  0.2270E+02
   -1.150005   31.22448  0.1153E-12  0.1705E-04  0.4983E-07  0.1663E-02  0.1208E-03  0.5600E+02
   -1.200007   31.22508  0.1153E-12  0.1695E-04  0.5021E-07  0.1707E-02  0.1138E-03  0.1039E+02
   -1.250008   31.22566  0.1153E-12  0.1680E-04  0.5080E-07  0.1675E-02  0.1072E-03  0.1103E+02
   -1.300009   31.22625  0.1153E-12  0.1663E-04  0.5166E-07  0.1617E-02  0.1008E-03  0.1306E+02
   -1.350011   31.22685  0.1153E-12  0.1642E-04  0.5287E-07  0.1552E-02  0.9464E-04  0.1579E+02
   -1.400012   31.22747  0.1153E-12  0.1616E-04  0.5455E-07  0.1464E-02  0.8858E-04  0.1993E+02
   -1.450012   31.22814  0.1153E-12  0.1585E-04  0.5689E-07  0.1384E-02  0.8260E-04  0.2596E+02
   -1.500013   31.22884  0.1153E-12  0.1548E-04  0.6024E-07  0.1262E-02  0.7670E-04  0.3683E+02
   -1.550013   31.22962  0.1153E-12  0.1502E-04  0.6514E-07  0.1184E-02  0.7072E-04  0.5649E+02
   -1.600013   31.23047  0.1153E-12  0.1445E-04  0.7308E-07  0.1034E-02  0.6485E-04 -0.2349E+02
   -1.650013   31.23159  0.1153E-12  0.1370E-04  0.8563E-07  0.9569E-03  0.5823E-04  0.6545E+04
   -1.700012   31.23288  0.1153E-12  0.1266E-04  0.1083E-06  0.7681E-03  0.5164E-04  0.9753E+04
   -1.750011   31.23534  0.1153E-12  0.1140E-04  0.1441E-06  0.6972E-03  0.4256E-04  0.2418E+06
   -1.800010   31.23675  0.1153E-12  0.9827E-05  0.2233E-06  0.4685E-03  0.3663E-04  0.1833E+06
   -1.850008   31.24608  0.1153E-12  0.8249E-05  0.3747E-06  0.4529E-03  0.2451E-04  0.3843E+08
   -1.900006   31.24201  0.1153E-12  0.6590E-05  0.7847E-06  0.2123E-03  0.2051E-04 -0.3341E+06
   -1.950004   31.26602  0.1153E-12  0.4729E-05  0.1879E-05  0.2212E-03  0.1065E-04 -0.9704E+06
   -2.000000   31.26613  0.1153E-12  0.0000E+00  0.0000E+00  0.0000E+00  0.2220E-04  0.0000E+00
