 1 - depth, m
 2 - temperature, C
 3 - salinity, kg/kg
 4 - turbulent kinetic energy, m**2/s**2
 5 - dissipation rate, m**2/s**3
 6 - kinematic heat conductance, m**2/s
 7 - modulus of horizontal velocity, m/s
 8 - Richardson number, n/d
   -0.000000   30.31402  0.8200E-14  0.4793E-05  0.2923E-06  0.5017E-04  0.1837E-02  0.6932E+04
   -0.049997   30.34357  0.8200E-14  0.8141E-05  0.1301E-06  0.1779E-03  0.1037E-02  0.5225E+03
   -0.099994   30.35466  0.8200E-14  0.9849E-05  0.8968E-07  0.3929E-03  0.7659E-03  0.1578E+02
   -0.149992   30.35785  0.8200E-14  0.1093E-04  0.7519E-07  0.4763E-03  0.6758E-03  0.7729E+01
   -0.199991   30.36037  0.8200E-14  0.1177E-04  0.6672E-07  0.6347E-03  0.6035E-03  0.4962E+01
   -0.249989   30.36220  0.8200E-14  0.1244E-04  0.6118E-07  0.7593E-03  0.5492E-03  0.3648E+01
   -0.299988   30.36369  0.8200E-14  0.1298E-04  0.5723E-07  0.8828E-03  0.5041E-03  0.2904E+01
   -0.349988   30.36495  0.8200E-14  0.1343E-04  0.5428E-07  0.9947E-03  0.4654E-03  0.2475E+01
   -0.399988   30.36603  0.8200E-14  0.1382E-04  0.5198E-07  0.1097E-02  0.4312E-03  0.2213E+01
   -0.449988   30.36700  0.8200E-14  0.1415E-04  0.5011E-07  0.1193E-02  0.4010E-03  0.2078E+01
   -0.499988   30.36787  0.8200E-14  0.1443E-04  0.4856E-07  0.1281E-02  0.3743E-03  0.2032E+01
   -0.549989   30.36866  0.8200E-14  0.1468E-04  0.4726E-07  0.1363E-02  0.3502E-03  0.1998E+01
   -0.599990   30.36940  0.8200E-14  0.1490E-04  0.4617E-07  0.1437E-02  0.3285E-03  0.2005E+01
   -0.649991   30.37008  0.8200E-14  0.1508E-04  0.4525E-07  0.1503E-02  0.3087E-03  0.2017E+01
   -0.699992   30.37073  0.8200E-14  0.1524E-04  0.4448E-07  0.1562E-02  0.2905E-03  0.2065E+01
   -0.749993   30.37134  0.8200E-14  0.1537E-04  0.4383E-07  0.1612E-02  0.2738E-03  0.2117E+01
   -0.799995   30.37193  0.8200E-14  0.1548E-04  0.4330E-07  0.1655E-02  0.2583E-03  0.2209E+01
   -0.849996   30.37250  0.8200E-14  0.1556E-04  0.4287E-07  0.1690E-02  0.2439E-03  0.2307E+01
   -0.899998   30.37304  0.8200E-14  0.1562E-04  0.4255E-07  0.1717E-02  0.2304E-03  0.2455E+01
   -0.950000   30.37358  0.8200E-14  0.1566E-04  0.4232E-07  0.1736E-02  0.2176E-03  0.2613E+01
   -1.000001   30.37410  0.8200E-14  0.1568E-04  0.4218E-07  0.1747E-02  0.2056E-03  0.2833E+01
   -1.050003   30.37462  0.8200E-14  0.1568E-04  0.4215E-07  0.1748E-02  0.1942E-03  0.3191E+01
   -1.100005   30.37513  0.8200E-14  0.1566E-04  0.4223E-07  0.1833E-02  0.1833E-03  0.1062E+02
   -1.150006   30.37562  0.8200E-14  0.1561E-04  0.4244E-07  0.1668E-02  0.1735E-03  0.2423E+02
   -1.200008   30.37615  0.8200E-14  0.1555E-04  0.4277E-07  0.1691E-02  0.1635E-03  0.4610E+01
   -1.250009   30.37667  0.8200E-14  0.1545E-04  0.4327E-07  0.1662E-02  0.1538E-03  0.4932E+01
   -1.300011   30.37719  0.8200E-14  0.1533E-04  0.4397E-07  0.1613E-02  0.1445E-03  0.5742E+01
   -1.350012   30.37773  0.8200E-14  0.1518E-04  0.4493E-07  0.1556E-02  0.1355E-03  0.6911E+01
   -1.400013   30.37829  0.8200E-14  0.1500E-04  0.4622E-07  0.1479E-02  0.1268E-03  0.8519E+01
   -1.450014   30.37888  0.8200E-14  0.1477E-04  0.4798E-07  0.1405E-02  0.1182E-03  0.1091E+02
   -1.500014   30.37950  0.8200E-14  0.1449E-04  0.5042E-07  0.1292E-02  0.1097E-03  0.1488E+02
   -1.550015   30.38019  0.8200E-14  0.1415E-04  0.5386E-07  0.1214E-02  0.1012E-03  0.2130E+02
   -1.600015   30.38092  0.8200E-14  0.1372E-04  0.5923E-07  0.1066E-02  0.9299E-04  0.4417E+02
   -1.650015   30.38183  0.8200E-14  0.1317E-04  0.6744E-07  0.9931E-03  0.8394E-04  0.5102E+03
   -1.700014   30.38282  0.8200E-14  0.1242E-04  0.8218E-07  0.8069E-03  0.7541E-04  0.2726E+04
   -1.750013   30.38468  0.8200E-14  0.1141E-04  0.1064E-06  0.7337E-03  0.6364E-04  0.7395E+05
   -1.800012   30.38604  0.8200E-14  0.1010E-04  0.1578E-06  0.5125E-03  0.5496E-04  0.1844E+05
   -1.850010   30.39227  0.8200E-14  0.8621E-05  0.2550E-06  0.4706E-03  0.3946E-04  0.6074E+07
   -1.900008   30.39088  0.8200E-14  0.6866E-05  0.5288E-06  0.2183E-03  0.3229E-04 -0.1570E+05
   -1.950006   30.40942  0.8200E-14  0.4781E-05  0.1329E-05  0.1856E-03  0.1758E-04 -0.3561E+06
   -2.000003   30.41235  0.8200E-14  0.0000E+00  0.0000E+00  0.0000E+00  0.3158E-04  0.0000E+00
