 1 - depth, m
 2 - temperature, C
 3 - salinity, kg/kg
 4 - turbulent kinetic energy, m**2/s**2
 5 - dissipation rate, m**2/s**3
 6 - kinematic heat conductance, m**2/s
 7 - modulus of horizontal velocity, m/s
 8 - Richardson number, n/d
   -0.000000   30.00304  0.2197E-13  0.4568E-05  0.2714E-06  0.4908E-04  0.1892E-02  0.5751E+04
   -0.049997   30.03079  0.2197E-13  0.7770E-05  0.1206E-06  0.1735E-03  0.1071E-02  0.2280E+04
   -0.099994   30.04134  0.2197E-13  0.9405E-05  0.8302E-07  0.3881E-03  0.7855E-03  0.1393E+02
   -0.149992   30.04432  0.2197E-13  0.1044E-04  0.6969E-07  0.4699E-03  0.6929E-03  0.6789E+01
   -0.199991   30.04669  0.2197E-13  0.1124E-04  0.6190E-07  0.6256E-03  0.6183E-03  0.4369E+01
   -0.249989   30.04842  0.2197E-13  0.1188E-04  0.5680E-07  0.7485E-03  0.5623E-03  0.3213E+01
   -0.299989   30.04983  0.2197E-13  0.1241E-04  0.5318E-07  0.8702E-03  0.5157E-03  0.2563E+01
   -0.349988   30.05101  0.2197E-13  0.1285E-04  0.5047E-07  0.9808E-03  0.4758E-03  0.2185E+01
   -0.399988   30.05204  0.2197E-13  0.1322E-04  0.4837E-07  0.1082E-02  0.4405E-03  0.1954E+01
   -0.449988   30.05296  0.2197E-13  0.1354E-04  0.4667E-07  0.1176E-02  0.4095E-03  0.1829E+01
   -0.499988   30.05378  0.2197E-13  0.1383E-04  0.4527E-07  0.1263E-02  0.3820E-03  0.1788E+01
   -0.549989   30.05454  0.2197E-13  0.1407E-04  0.4410E-07  0.1343E-02  0.3575E-03  0.1759E+01
   -0.599990   30.05524  0.2197E-13  0.1428E-04  0.4313E-07  0.1415E-02  0.3353E-03  0.1768E+01
   -0.649991   30.05589  0.2197E-13  0.1447E-04  0.4231E-07  0.1480E-02  0.3151E-03  0.1782E+01
   -0.699992   30.05651  0.2197E-13  0.1463E-04  0.4163E-07  0.1538E-02  0.2965E-03  0.1831E+01
   -0.749993   30.05709  0.2197E-13  0.1476E-04  0.4106E-07  0.1588E-02  0.2794E-03  0.1882E+01
   -0.799995   30.05765  0.2197E-13  0.1487E-04  0.4060E-07  0.1631E-02  0.2635E-03  0.1972E+01
   -0.849996   30.05820  0.2197E-13  0.1496E-04  0.4024E-07  0.1666E-02  0.2486E-03  0.2065E+01
   -0.899998   30.05872  0.2197E-13  0.1503E-04  0.3997E-07  0.1694E-02  0.2347E-03  0.2202E+01
   -0.950000   30.05924  0.2197E-13  0.1509E-04  0.3979E-07  0.1713E-02  0.2216E-03  0.2346E+01
   -1.000001   30.05974  0.2197E-13  0.1512E-04  0.3970E-07  0.1725E-02  0.2092E-03  0.2547E+01
   -1.050003   30.06024  0.2197E-13  0.1513E-04  0.3971E-07  0.1728E-02  0.1975E-03  0.2877E+01
   -1.100005   30.06073  0.2197E-13  0.1512E-04  0.3982E-07  0.1805E-02  0.1863E-03  0.9677E+01
   -1.150007   30.06120  0.2197E-13  0.1509E-04  0.4005E-07  0.1659E-02  0.1763E-03  0.2132E+02
   -1.200008   30.06171  0.2197E-13  0.1504E-04  0.4039E-07  0.1677E-02  0.1660E-03  0.4132E+01
   -1.250010   30.06222  0.2197E-13  0.1496E-04  0.4090E-07  0.1648E-02  0.1561E-03  0.4433E+01
   -1.300011   30.06273  0.2197E-13  0.1486E-04  0.4158E-07  0.1602E-02  0.1466E-03  0.5146E+01
   -1.350012   30.06325  0.2197E-13  0.1473E-04  0.4249E-07  0.1546E-02  0.1374E-03  0.6174E+01
   -1.400013   30.06380  0.2197E-13  0.1457E-04  0.4371E-07  0.1473E-02  0.1285E-03  0.7541E+01
   -1.450014   30.06437  0.2197E-13  0.1437E-04  0.4534E-07  0.1399E-02  0.1197E-03  0.9598E+01
   -1.500015   30.06498  0.2197E-13  0.1412E-04  0.4757E-07  0.1292E-02  0.1111E-03  0.1281E+02
   -1.550015   30.06564  0.2197E-13  0.1382E-04  0.5067E-07  0.1210E-02  0.1025E-03  0.1801E+02
   -1.600015   30.06635  0.2197E-13  0.1344E-04  0.5534E-07  0.1066E-02  0.9407E-04  0.3139E+02
   -1.650015   30.06720  0.2197E-13  0.1295E-04  0.6241E-07  0.9915E-03  0.8511E-04  0.4534E+04
   -1.700014   30.06814  0.2197E-13  0.1228E-04  0.7509E-07  0.8085E-03  0.7655E-04 -0.1804E+03
   -1.750013   30.06979  0.2197E-13  0.1136E-04  0.9623E-07  0.7333E-03  0.6522E-04  0.2057E+05
   -1.800012   30.07129  0.2197E-13  0.1009E-04  0.1407E-06  0.5113E-03  0.5602E-04  0.1204E+07
   -1.850011   30.07664  0.2197E-13  0.8615E-05  0.2228E-06  0.4687E-03  0.4070E-04  0.8682E+07
   -1.900008   30.07617  0.2197E-13  0.6847E-05  0.4577E-06  0.2118E-03  0.3293E-04 -0.3007E+06
   -1.950006   30.09390  0.2197E-13  0.4747E-05  0.1173E-05  0.1760E-03  0.1793E-04 -0.3107E+06
   -2.000003   30.09675  0.2197E-13  0.0000E+00  0.0000E+00  0.0000E+00  0.3162E-04  0.0000E+00
