 1 - depth, m
 2 - temperature, C
 3 - salinity, kg/kg
 4 - turbulent kinetic energy, m**2/s**2
 5 - dissipation rate, m**2/s**3
 6 - kinematic heat conductance, m**2/s
 7 - modulus of horizontal velocity, m/s
 8 - Richardson number, n/d
   -0.000000   30.54005  0.1216E-14  0.4802E-05  0.2983E-06  0.4953E-04  0.1033E-02  0.3909E+04
   -0.049997   30.57116  0.1216E-14  0.8335E-05  0.1326E-06  0.1817E-03  0.5840E-03  0.7577E+02
   -0.099994   30.58269  0.1216E-14  0.1010E-04  0.9174E-07  0.4044E-03  0.4297E-03  0.5066E+02
   -0.149992   30.58590  0.1216E-14  0.1121E-04  0.7720E-07  0.4858E-03  0.3800E-03  0.2483E+02
   -0.199991   30.58846  0.1216E-14  0.1207E-04  0.6864E-07  0.6481E-03  0.3396E-03  0.1605E+02
   -0.249989   30.59033  0.1216E-14  0.1275E-04  0.6303E-07  0.7735E-03  0.3095E-03  0.1187E+02
   -0.299988   30.59185  0.1216E-14  0.1331E-04  0.5902E-07  0.8988E-03  0.2843E-03  0.9474E+01
   -0.349988   30.59313  0.1216E-14  0.1377E-04  0.5601E-07  0.1012E-02  0.2627E-03  0.8091E+01
   -0.399988   30.59423  0.1216E-14  0.1416E-04  0.5366E-07  0.1116E-02  0.2436E-03  0.7230E+01
   -0.449988   30.59521  0.1216E-14  0.1449E-04  0.5176E-07  0.1212E-02  0.2268E-03  0.6770E+01
   -0.499988   30.59610  0.1216E-14  0.1478E-04  0.5018E-07  0.1300E-02  0.2119E-03  0.6605E+01
   -0.549989   30.59691  0.1216E-14  0.1503E-04  0.4886E-07  0.1381E-02  0.1986E-03  0.6496E+01
   -0.599990   30.59766  0.1216E-14  0.1524E-04  0.4774E-07  0.1454E-02  0.1865E-03  0.6518E+01
   -0.649991   30.59836  0.1216E-14  0.1543E-04  0.4680E-07  0.1519E-02  0.1755E-03  0.6575E+01
   -0.699992   30.59902  0.1216E-14  0.1558E-04  0.4600E-07  0.1577E-02  0.1653E-03  0.6746E+01
   -0.749993   30.59965  0.1216E-14  0.1571E-04  0.4533E-07  0.1627E-02  0.1560E-03  0.6941E+01
   -0.799995   30.60025  0.1216E-14  0.1581E-04  0.4478E-07  0.1670E-02  0.1473E-03  0.7257E+01
   -0.849996   30.60083  0.1216E-14  0.1589E-04  0.4433E-07  0.1704E-02  0.1391E-03  0.7600E+01
   -0.899998   30.60139  0.1216E-14  0.1595E-04  0.4399E-07  0.1731E-02  0.1315E-03  0.8087E+01
   -0.950000   30.60193  0.1216E-14  0.1599E-04  0.4374E-07  0.1749E-02  0.1243E-03  0.8623E+01
   -1.000001   30.60247  0.1216E-14  0.1600E-04  0.4360E-07  0.1759E-02  0.1175E-03  0.9345E+01
   -1.050003   30.60299  0.1216E-14  0.1599E-04  0.4356E-07  0.1759E-02  0.1110E-03  0.1055E+02
   -1.100005   30.60351  0.1216E-14  0.1597E-04  0.4363E-07  0.1850E-02  0.1048E-03  0.3489E+02
   -1.150006   30.60401  0.1216E-14  0.1591E-04  0.4384E-07  0.1669E-02  0.9931E-04  0.8047E+02
   -1.200008   30.60455  0.1216E-14  0.1584E-04  0.4418E-07  0.1698E-02  0.9357E-04  0.1529E+02
   -1.250009   30.60508  0.1216E-14  0.1573E-04  0.4469E-07  0.1667E-02  0.8808E-04  0.1636E+02
   -1.300011   30.60562  0.1216E-14  0.1560E-04  0.4542E-07  0.1616E-02  0.8281E-04  0.1911E+02
   -1.350012   30.60617  0.1216E-14  0.1544E-04  0.4641E-07  0.1556E-02  0.7768E-04  0.2300E+02
   -1.400013   30.60673  0.1216E-14  0.1524E-04  0.4776E-07  0.1477E-02  0.7269E-04  0.2843E+02
   -1.450014   30.60733  0.1216E-14  0.1499E-04  0.4960E-07  0.1399E-02  0.6777E-04  0.3650E+02
   -1.500014   30.60797  0.1216E-14  0.1469E-04  0.5217E-07  0.1285E-02  0.6296E-04  0.4986E+02
   -1.550015   30.60866  0.1216E-14  0.1433E-04  0.5582E-07  0.1202E-02  0.5809E-04  0.7167E+02
   -1.600015   30.60941  0.1216E-14  0.1388E-04  0.6144E-07  0.1056E-02  0.5335E-04  0.1393E+03
   -1.650015   30.61033  0.1216E-14  0.1329E-04  0.7017E-07  0.9808E-03  0.4821E-04  0.7369E+03
   -1.700014   30.61137  0.1216E-14  0.1249E-04  0.8598E-07  0.7968E-03  0.4323E-04  0.3295E+04
   -1.750013   30.61327  0.1216E-14  0.1142E-04  0.1120E-06  0.7202E-03  0.3642E-04  0.1245E+06
   -1.800012   30.61480  0.1216E-14  0.9988E-05  0.1686E-06  0.4933E-03  0.3124E-04  0.1192E+06
   -1.850010   30.62140  0.1216E-14  0.8438E-05  0.2722E-06  0.4614E-03  0.2207E-04  0.2118E+08
   -1.900008   30.61980  0.1216E-14  0.6689E-05  0.5670E-06  0.2132E-03  0.1806E-04 -0.8537E+07
   -1.950006   30.63955  0.1216E-14  0.4703E-05  0.1408E-05  0.1939E-03  0.9677E-05 -0.2821E+07
   -2.000003   30.64033  0.1216E-14  0.0000E+00  0.0000E+00  0.0000E+00  0.1819E-04  0.0000E+00
