 1 - depth, m
 2 - temperature, C
 3 - salinity, kg/kg
 4 - turbulent kinetic energy, m**2/s**2
 5 - dissipation rate, m**2/s**3
 6 - kinematic heat conductance, m**2/s
 7 - modulus of horizontal velocity, m/s
 8 - Richardson number, n/d
   -0.000000   30.30758  0.8108E-14  0.4819E-05  0.2982E-06  0.5068E-04  0.1845E-02  0.4302E+04
   -0.049997   30.33730  0.8108E-14  0.8179E-05  0.1328E-06  0.1743E-03  0.1058E-02  0.8867E+04
   -0.099994   30.34900  0.8108E-14  0.9921E-05  0.9103E-07  0.3955E-03  0.7725E-03  0.1426E+02
   -0.149992   30.35222  0.8108E-14  0.1101E-04  0.7629E-07  0.4751E-03  0.6821E-03  0.6952E+01
   -0.199991   30.35479  0.8108E-14  0.1186E-04  0.6767E-07  0.6353E-03  0.6087E-03  0.4453E+01
   -0.249989   30.35666  0.8108E-14  0.1253E-04  0.6202E-07  0.7597E-03  0.5539E-03  0.3279E+01
   -0.299988   30.35818  0.8108E-14  0.1308E-04  0.5799E-07  0.8838E-03  0.5083E-03  0.2605E+01
   -0.349988   30.35945  0.8108E-14  0.1353E-04  0.5497E-07  0.9963E-03  0.4692E-03  0.2224E+01
   -0.399988   30.36055  0.8108E-14  0.1391E-04  0.5263E-07  0.1099E-02  0.4347E-03  0.1980E+01
   -0.449988   30.36153  0.8108E-14  0.1424E-04  0.5072E-07  0.1195E-02  0.4043E-03  0.1858E+01
   -0.499988   30.36241  0.8108E-14  0.1452E-04  0.4913E-07  0.1282E-02  0.3775E-03  0.1807E+01
   -0.549989   30.36322  0.8108E-14  0.1477E-04  0.4781E-07  0.1363E-02  0.3534E-03  0.1782E+01
   -0.599990   30.36396  0.8108E-14  0.1498E-04  0.4669E-07  0.1436E-02  0.3317E-03  0.1782E+01
   -0.649991   30.36466  0.8108E-14  0.1516E-04  0.4574E-07  0.1501E-02  0.3119E-03  0.1802E+01
   -0.699992   30.36531  0.8108E-14  0.1531E-04  0.4494E-07  0.1559E-02  0.2937E-03  0.1842E+01
   -0.749993   30.36593  0.8108E-14  0.1544E-04  0.4427E-07  0.1609E-02  0.2769E-03  0.1900E+01
   -0.799995   30.36653  0.8108E-14  0.1554E-04  0.4370E-07  0.1652E-02  0.2612E-03  0.1979E+01
   -0.849996   30.36710  0.8108E-14  0.1562E-04  0.4325E-07  0.1687E-02  0.2467E-03  0.2078E+01
   -0.899998   30.36765  0.8108E-14  0.1567E-04  0.4289E-07  0.1714E-02  0.2330E-03  0.2201E+01
   -0.950000   30.36819  0.8108E-14  0.1571E-04  0.4263E-07  0.1733E-02  0.2201E-03  0.2353E+01
   -1.000001   30.36872  0.8108E-14  0.1572E-04  0.4247E-07  0.1744E-02  0.2079E-03  0.2537E+01
   -1.050003   30.36924  0.8108E-14  0.1572E-04  0.4241E-07  0.1745E-02  0.1963E-03  0.2870E+01
   -1.100005   30.36975  0.8108E-14  0.1569E-04  0.4246E-07  0.1831E-02  0.1853E-03  0.9511E+01
   -1.150006   30.37024  0.8108E-14  0.1564E-04  0.4264E-07  0.1663E-02  0.1754E-03  0.2153E+02
   -1.200008   30.37077  0.8108E-14  0.1556E-04  0.4294E-07  0.1688E-02  0.1652E-03  0.4131E+01
   -1.250009   30.37129  0.8108E-14  0.1546E-04  0.4341E-07  0.1658E-02  0.1555E-03  0.4392E+01
   -1.300011   30.37182  0.8108E-14  0.1534E-04  0.4408E-07  0.1609E-02  0.1461E-03  0.5127E+01
   -1.350012   30.37236  0.8108E-14  0.1518E-04  0.4501E-07  0.1551E-02  0.1370E-03  0.6126E+01
   -1.400013   30.37291  0.8108E-14  0.1498E-04  0.4627E-07  0.1475E-02  0.1281E-03  0.7543E+01
   -1.450014   30.37350  0.8108E-14  0.1475E-04  0.4800E-07  0.1397E-02  0.1194E-03  0.9594E+01
   -1.500014   30.37411  0.8108E-14  0.1446E-04  0.5040E-07  0.1287E-02  0.1109E-03  0.1296E+02
   -1.550015   30.37479  0.8108E-14  0.1411E-04  0.5380E-07  0.1203E-02  0.1023E-03  0.1840E+02
   -1.600015   30.37551  0.8108E-14  0.1368E-04  0.5903E-07  0.1060E-02  0.9387E-04  0.3441E+02
   -1.650015   30.37640  0.8108E-14  0.1312E-04  0.6714E-07  0.9806E-03  0.8485E-04  0.1319E+03
   -1.700014   30.37739  0.8108E-14  0.1236E-04  0.8171E-07  0.8012E-03  0.7606E-04  0.2770E+05
   -1.750013   30.37915  0.8108E-14  0.1134E-04  0.1059E-06  0.7201E-03  0.6439E-04  0.4806E+05
   -1.800012   30.38068  0.8108E-14  0.9960E-05  0.1561E-06  0.5076E-03  0.5508E-04  0.1563E+06
   -1.850010   30.38651  0.8108E-14  0.8426E-05  0.2501E-06  0.4589E-03  0.3936E-04  0.7609E+07
   -1.900008   30.38554  0.8108E-14  0.6641E-05  0.5225E-06  0.2094E-03  0.3185E-04 -0.5830E+06
   -1.950006   30.40419  0.8108E-14  0.4657E-05  0.1308E-05  0.1877E-03  0.1708E-04 -0.1242E+07
   -2.000003   30.40575  0.8108E-14  0.0000E+00  0.0000E+00  0.0000E+00  0.3172E-04  0.0000E+00
