 1 - depth, m
 2 - temperature, C
 3 - salinity, kg/kg
 4 - turbulent kinetic energy, m**2/s**2
 5 - dissipation rate, m**2/s**3
 6 - kinematic heat conductance, m**2/s
 7 - modulus of horizontal velocity, m/s
 8 - Richardson number, n/d
   -0.000000   31.31734  0.1153E-12  0.5046E-05  0.3231E-06  0.5119E-04  0.6522E-03  0.5248E+05
   -0.049997   31.35025  0.1153E-12  0.8822E-05  0.1435E-06  0.1853E-03  0.3720E-03  0.8150E+04
   -0.099994   31.36222  0.1153E-12  0.1068E-04  0.9901E-07  0.4207E-03  0.2708E-03  0.1342E+03
   -0.149992   31.36554  0.1153E-12  0.1183E-04  0.8345E-07  0.4963E-03  0.2401E-03  0.6654E+02
   -0.199990   31.36821  0.1153E-12  0.1273E-04  0.7425E-07  0.6649E-03  0.2147E-03  0.4337E+02
   -0.249989   31.37016  0.1153E-12  0.1344E-04  0.6819E-07  0.7928E-03  0.1958E-03  0.3242E+02
   -0.299988   31.37173  0.1153E-12  0.1403E-04  0.6386E-07  0.9206E-03  0.1800E-03  0.2582E+02
   -0.349988   31.37306  0.1153E-12  0.1451E-04  0.6060E-07  0.1036E-02  0.1665E-03  0.2223E+02
   -0.399987   31.37421  0.1153E-12  0.1491E-04  0.5806E-07  0.1142E-02  0.1545E-03  0.1974E+02
   -0.449987   31.37523  0.1153E-12  0.1526E-04  0.5599E-07  0.1239E-02  0.1439E-03  0.1864E+02
   -0.499988   31.37614  0.1153E-12  0.1555E-04  0.5428E-07  0.1329E-02  0.1346E-03  0.1802E+02
   -0.549988   31.37698  0.1153E-12  0.1581E-04  0.5285E-07  0.1411E-02  0.1262E-03  0.1788E+02
   -0.599989   31.37776  0.1153E-12  0.1603E-04  0.5164E-07  0.1485E-02  0.1186E-03  0.1776E+02
   -0.649990   31.37848  0.1153E-12  0.1622E-04  0.5063E-07  0.1551E-02  0.1117E-03  0.1811E+02
   -0.699991   31.37916  0.1153E-12  0.1638E-04  0.4977E-07  0.1610E-02  0.1053E-03  0.1838E+02
   -0.749992   31.37981  0.1153E-12  0.1651E-04  0.4905E-07  0.1660E-02  0.9939E-04  0.1913E+02
   -0.799994   31.38043  0.1153E-12  0.1662E-04  0.4847E-07  0.1702E-02  0.9391E-04  0.1978E+02
   -0.849995   31.38103  0.1153E-12  0.1670E-04  0.4800E-07  0.1737E-02  0.8877E-04  0.2098E+02
   -0.899997   31.38161  0.1153E-12  0.1676E-04  0.4765E-07  0.1763E-02  0.8394E-04  0.2208E+02
   -0.949999   31.38218  0.1153E-12  0.1680E-04  0.4741E-07  0.1780E-02  0.7939E-04  0.2386E+02
   -1.000000   31.38273  0.1153E-12  0.1681E-04  0.4728E-07  0.1789E-02  0.7508E-04  0.2559E+02
   -1.050002   31.38328  0.1153E-12  0.1680E-04  0.4727E-07  0.1788E-02  0.7098E-04  0.2927E+02
   -1.100004   31.38382  0.1153E-12  0.1677E-04  0.4739E-07  0.1887E-02  0.6707E-04  0.9447E+02
   -1.150005   31.38433  0.1153E-12  0.1671E-04  0.4766E-07  0.1683E-02  0.6359E-04  0.2279E+03
   -1.200007   31.38491  0.1153E-12  0.1663E-04  0.4809E-07  0.1719E-02  0.5993E-04  0.4308E+02
   -1.250008   31.38546  0.1153E-12  0.1652E-04  0.4871E-07  0.1687E-02  0.5645E-04  0.4559E+02
   -1.300010   31.38602  0.1153E-12  0.1638E-04  0.4958E-07  0.1633E-02  0.5309E-04  0.5426E+02
   -1.350011   31.38661  0.1153E-12  0.1620E-04  0.5077E-07  0.1570E-02  0.4983E-04  0.6503E+02
   -1.400012   31.38721  0.1153E-12  0.1599E-04  0.5238E-07  0.1486E-02  0.4665E-04  0.8224E+02
   -1.450012   31.38785  0.1153E-12  0.1572E-04  0.5457E-07  0.1407E-02  0.4351E-04  0.1058E+03
   -1.500013   31.38853  0.1153E-12  0.1540E-04  0.5764E-07  0.1288E-02  0.4042E-04  0.1491E+03
   -1.550013   31.38928  0.1153E-12  0.1500E-04  0.6204E-07  0.1207E-02  0.3730E-04  0.2200E+03
   -1.600013   31.39010  0.1153E-12  0.1450E-04  0.6892E-07  0.1058E-02  0.3424E-04  0.5457E+03
   -1.650013   31.39114  0.1153E-12  0.1384E-04  0.7968E-07  0.9787E-03  0.3089E-04  0.3650E+04
   -1.700012   31.39232  0.1153E-12  0.1294E-04  0.9882E-07  0.7950E-03  0.2759E-04 -0.1267E+04
   -1.750012   31.39452  0.1153E-12  0.1178E-04  0.1298E-06  0.7177E-03  0.2311E-04  0.1851E+07
   -1.800010   31.39609  0.1153E-12  0.1029E-04  0.1981E-06  0.4922E-03  0.1986E-04  0.2212E+07
   -1.850008   31.40408  0.1153E-12  0.8713E-05  0.3253E-06  0.4580E-03  0.1390E-04  0.2105E+09
   -1.900006   31.40155  0.1153E-12  0.6945E-05  0.6842E-06  0.2167E-03  0.1141E-04  0.2831E+08
   -1.950004   31.42415  0.1153E-12  0.4940E-05  0.1661E-05  0.2051E-03  0.6125E-05 -0.4929E+07
   -2.000001   31.42528  0.1153E-12  0.0000E+00  0.0000E+00  0.0000E+00  0.1172E-04  0.0000E+00
