 1 - depth, m
 2 - temperature, C
 3 - salinity, kg/kg
 4 - turbulent kinetic energy, m**2/s**2
 5 - dissipation rate, m**2/s**3
 6 - kinematic heat conductance, m**2/s
 7 - modulus of horizontal velocity, m/s
 8 - Richardson number, n/d
   -0.000000   29.90472  0.4330E-14  0.4610E-05  0.2792E-06  0.4931E-04  0.1346E-02  0.5237E+04
   -0.049997   29.93429  0.4330E-14  0.7934E-05  0.1246E-06  0.1737E-03  0.7666E-03  0.2623E+03
   -0.099994   29.94571  0.4330E-14  0.9622E-05  0.8586E-07  0.3927E-03  0.5603E-03  0.2665E+02
   -0.149992   29.94886  0.4330E-14  0.1067E-04  0.7216E-07  0.4720E-03  0.4946E-03  0.1297E+02
   -0.199991   29.95138  0.4330E-14  0.1149E-04  0.6410E-07  0.6293E-03  0.4414E-03  0.8344E+01
   -0.249989   29.95321  0.4330E-14  0.1213E-04  0.5879E-07  0.7521E-03  0.4015E-03  0.6158E+01
   -0.299989   29.95470  0.4330E-14  0.1266E-04  0.5499E-07  0.8739E-03  0.3683E-03  0.4894E+01
   -0.349988   29.95594  0.4330E-14  0.1309E-04  0.5213E-07  0.9845E-03  0.3398E-03  0.4182E+01
   -0.399988   29.95702  0.4330E-14  0.1346E-04  0.4989E-07  0.1086E-02  0.3147E-03  0.3723E+01
   -0.449988   29.95798  0.4330E-14  0.1377E-04  0.4806E-07  0.1179E-02  0.2925E-03  0.3497E+01
   -0.499988   29.95884  0.4330E-14  0.1404E-04  0.4655E-07  0.1266E-02  0.2729E-03  0.3400E+01
   -0.549989   29.95963  0.4330E-14  0.1427E-04  0.4527E-07  0.1345E-02  0.2554E-03  0.3355E+01
   -0.599990   29.96035  0.4330E-14  0.1447E-04  0.4418E-07  0.1416E-02  0.2396E-03  0.3351E+01
   -0.649991   29.96103  0.4330E-14  0.1464E-04  0.4325E-07  0.1481E-02  0.2251E-03  0.3391E+01
   -0.699992   29.96167  0.4330E-14  0.1478E-04  0.4246E-07  0.1538E-02  0.2119E-03  0.3460E+01
   -0.749993   29.96228  0.4330E-14  0.1489E-04  0.4178E-07  0.1588E-02  0.1996E-03  0.3568E+01
   -0.799995   29.96285  0.4330E-14  0.1499E-04  0.4121E-07  0.1631E-02  0.1883E-03  0.3708E+01
   -0.849997   29.96341  0.4330E-14  0.1506E-04  0.4074E-07  0.1666E-02  0.1776E-03  0.3889E+01
   -0.899998   29.96394  0.4330E-14  0.1510E-04  0.4035E-07  0.1693E-02  0.1677E-03  0.4109E+01
   -0.950000   29.96447  0.4330E-14  0.1513E-04  0.4006E-07  0.1713E-02  0.1583E-03  0.4384E+01
   -1.000002   29.96497  0.4330E-14  0.1514E-04  0.3985E-07  0.1724E-02  0.1494E-03  0.4714E+01
   -1.050003   29.96547  0.4330E-14  0.1513E-04  0.3974E-07  0.1727E-02  0.1410E-03  0.5319E+01
   -1.100005   29.96596  0.4330E-14  0.1509E-04  0.3972E-07  0.1807E-02  0.1330E-03  0.1771E+02
   -1.150007   29.96643  0.4330E-14  0.1504E-04  0.3982E-07  0.1655E-02  0.1259E-03  0.3911E+02
   -1.200008   29.96693  0.4330E-14  0.1497E-04  0.4004E-07  0.1676E-02  0.1185E-03  0.7557E+01
   -1.250010   29.96742  0.4330E-14  0.1487E-04  0.4040E-07  0.1648E-02  0.1114E-03  0.7997E+01
   -1.300011   29.96792  0.4330E-14  0.1474E-04  0.4093E-07  0.1602E-02  0.1047E-03  0.9286E+01
   -1.350012   29.96842  0.4330E-14  0.1459E-04  0.4169E-07  0.1546E-02  0.9809E-04  0.1101E+02
   -1.400014   29.96894  0.4330E-14  0.1440E-04  0.4274E-07  0.1474E-02  0.9170E-04  0.1344E+02
   -1.450014   29.96948  0.4330E-14  0.1418E-04  0.4418E-07  0.1398E-02  0.8545E-04  0.1689E+02
   -1.500015   29.97005  0.4330E-14  0.1391E-04  0.4618E-07  0.1293E-02  0.7931E-04  0.2245E+02
   -1.550015   29.97066  0.4330E-14  0.1358E-04  0.4904E-07  0.1207E-02  0.7319E-04  0.3120E+02
   -1.600015   29.97132  0.4330E-14  0.1318E-04  0.5334E-07  0.1069E-02  0.6717E-04  0.5205E+02
   -1.650015   29.97210  0.4330E-14  0.1268E-04  0.5999E-07  0.9874E-03  0.6085E-04  0.9473E+03
   -1.700015   29.97296  0.4330E-14  0.1199E-04  0.7202E-07  0.8128E-03  0.5468E-04 -0.4065E+03
   -1.750014   29.97443  0.4330E-14  0.1107E-04  0.9211E-07  0.7291E-03  0.4669E-04  0.3837E+05
   -1.800013   29.97580  0.4330E-14  0.9776E-05  0.1350E-06  0.5129E-03  0.4002E-04  0.1167E+06
   -1.850011   29.98056  0.4330E-14  0.8297E-05  0.2134E-06  0.4620E-03  0.2903E-04  0.3065E+07
   -1.900009   29.98014  0.4330E-14  0.6532E-05  0.4404E-06  0.2122E-03  0.2341E-04  0.7963E+06
   -1.950006   29.99581  0.4330E-14  0.4502E-05  0.1125E-05  0.1759E-03  0.1262E-04  0.4765E+08
   -2.000003   29.99797  0.4330E-14  0.0000E+00  0.0000E+00  0.0000E+00  0.2275E-04  0.0000E+00
