 1 - depth, m
 2 - temperature, C
 3 - salinity, kg/kg
 4 - turbulent kinetic energy, m**2/s**2
 5 - dissipation rate, m**2/s**3
 6 - kinematic heat conductance, m**2/s
 7 - modulus of horizontal velocity, m/s
 8 - Richardson number, n/d
   -0.000000   30.57976  0.7232E-14  0.5404E-05  0.3103E-06  0.5220E-04  0.3400E-02  0.9355E+03
   -0.049997   30.61007  0.7233E-14  0.8755E-05  0.1341E-06  0.2049E-03  0.1826E-02  0.2728E+03
   -0.099994   30.61924  0.7233E-14  0.1031E-04  0.9517E-07  0.3897E-03  0.1434E-02  0.5856E+01
   -0.149992   30.62253  0.7233E-14  0.1134E-04  0.8022E-07  0.4872E-03  0.1278E-02  0.2373E+01
   -0.199991   30.62506  0.7233E-14  0.1216E-04  0.7150E-07  0.6255E-03  0.1156E-02  0.1594E+01
   -0.249989   30.62697  0.7233E-14  0.1283E-04  0.6579E-07  0.7353E-03  0.1062E-02  0.1293E+01
   -0.299988   30.62856  0.7233E-14  0.1342E-04  0.6157E-07  0.8479E-03  0.9794E-03  0.1259E+01
   -0.349988   30.62990  0.7233E-14  0.1396E-04  0.5819E-07  0.9743E-03  0.9017E-03  0.1325E+01
   -0.399988   30.63105  0.7233E-14  0.1445E-04  0.5539E-07  0.1109E-02  0.8261E-03  0.1350E+01
   -0.449988   30.63204  0.7233E-14  0.1490E-04  0.5305E-07  0.1240E-02  0.7561E-03  0.1358E+01
   -0.499988   30.63290  0.7233E-14  0.1530E-04  0.5111E-07  0.1363E-02  0.6930E-03  0.1362E+01
   -0.549989   30.63367  0.7233E-14  0.1565E-04  0.4953E-07  0.1476E-02  0.6365E-03  0.1356E+01
   -0.599989   30.63438  0.7233E-14  0.1595E-04  0.4823E-07  0.1577E-02  0.5858E-03  0.1346E+01
   -0.649990   30.63503  0.7233E-14  0.1619E-04  0.4718E-07  0.1665E-02  0.5404E-03  0.1331E+01
   -0.699992   30.63563  0.7233E-14  0.1639E-04  0.4634E-07  0.1739E-02  0.4996E-03  0.1313E+01
   -0.749993   30.63621  0.7233E-14  0.1655E-04  0.4570E-07  0.1799E-02  0.4630E-03  0.1290E+01
   -0.799994   30.63675  0.7233E-14  0.1667E-04  0.4521E-07  0.1845E-02  0.4301E-03  0.1266E+01
   -0.849996   30.63728  0.7233E-14  0.1676E-04  0.4488E-07  0.1877E-02  0.4006E-03  0.1238E+01
   -0.899998   30.63780  0.7233E-14  0.1681E-04  0.4469E-07  0.1895E-02  0.3742E-03  0.1208E+01
   -0.949999   30.63830  0.7233E-14  0.1683E-04  0.4462E-07  0.1902E-02  0.3504E-03  0.1177E+01
   -1.000001   30.63880  0.7233E-14  0.1683E-04  0.4466E-07  0.1898E-02  0.3291E-03  0.1156E+01
   -1.050003   30.63930  0.7233E-14  0.1681E-04  0.4483E-07  0.1882E-02  0.3099E-03  0.1183E+01
   -1.100004   30.63980  0.7233E-14  0.1676E-04  0.4509E-07  0.2028E-02  0.2925E-03  0.3428E+01
   -1.150006   30.64026  0.7233E-14  0.1669E-04  0.4551E-07  0.1710E-02  0.2783E-03  0.8800E+01
   -1.200008   30.64080  0.7233E-14  0.1659E-04  0.4606E-07  0.1783E-02  0.2623E-03  0.1609E+01
   -1.250009   30.64132  0.7233E-14  0.1647E-04  0.4681E-07  0.1747E-02  0.2475E-03  0.1718E+01
   -1.300010   30.64185  0.7233E-14  0.1631E-04  0.4782E-07  0.1683E-02  0.2332E-03  0.2038E+01
   -1.350012   30.64240  0.7233E-14  0.1612E-04  0.4915E-07  0.1611E-02  0.2192E-03  0.2481E+01
   -1.400013   30.64298  0.7233E-14  0.1589E-04  0.5093E-07  0.1519E-02  0.2055E-03  0.3135E+01
   -1.450013   30.64359  0.7233E-14  0.1561E-04  0.5334E-07  0.1430E-02  0.1919E-03  0.4113E+01
   -1.500014   30.64424  0.7233E-14  0.1526E-04  0.5668E-07  0.1307E-02  0.1785E-03  0.5812E+01
   -1.550014   30.64497  0.7233E-14  0.1484E-04  0.6150E-07  0.1217E-02  0.1649E-03  0.9160E+01
   -1.600014   30.64578  0.7233E-14  0.1432E-04  0.6904E-07  0.1068E-02  0.1513E-03  0.3295E+03
   -1.650014   30.64683  0.7233E-14  0.1362E-04  0.8092E-07  0.9775E-03  0.1363E-03  0.3845E+03
   -1.700014   30.64810  0.7233E-14  0.1266E-04  0.1016E-06  0.7959E-03  0.1210E-03  0.2958E+04
   -1.750013   30.65027  0.7233E-14  0.1149E-04  0.1343E-06  0.7142E-03  0.1010E-03  0.2689E+05
   -1.800011   30.65182  0.7233E-14  0.9951E-05  0.2085E-06  0.4848E-03  0.8672E-04 -0.1295E+05
   -1.850010   30.66037  0.7233E-14  0.8401E-05  0.3444E-06  0.4585E-03  0.5932E-04  0.1337E+08
   -1.900008   30.65710  0.7233E-14  0.6666E-05  0.7161E-06  0.2122E-03  0.4919E-04 -0.3469E+06
   -1.950005   30.68053  0.7233E-14  0.4769E-05  0.1718E-05  0.2152E-03  0.2573E-04 -0.5402E+06
   -2.000002   30.68014  0.7233E-14  0.0000E+00  0.0000E+00  0.0000E+00  0.5188E-04  0.0000E+00
