 1 - depth, m
 2 - temperature, C
 3 - salinity, kg/kg
 4 - turbulent kinetic energy, m**2/s**2
 5 - dissipation rate, m**2/s**3
 6 - kinematic heat conductance, m**2/s
 7 - modulus of horizontal velocity, m/s
 8 - Richardson number, n/d
   -0.000000   29.99364  0.2230E-13  0.5826E-05  0.3239E-06  0.5549E-04  0.4145E-02  0.4311E+03
   -0.049997   30.02503  0.2230E-13  0.9155E-05  0.1389E-06  0.2113E-03  0.2235E-02  0.8072E+01
   -0.099994   30.03420  0.2230E-13  0.1063E-04  0.1000E-06  0.3866E-03  0.1800E-02  0.3429E+01
   -0.149992   30.03781  0.2230E-13  0.1163E-04  0.8465E-07  0.4820E-03  0.1615E-02  0.1839E+01
   -0.199991   30.04056  0.2230E-13  0.1243E-04  0.7562E-07  0.6034E-03  0.1471E-02  0.1339E+01
   -0.249989   30.04270  0.2230E-13  0.1311E-04  0.6944E-07  0.7111E-03  0.1354E-02  0.1298E+01
   -0.299989   30.04446  0.2230E-13  0.1374E-04  0.6460E-07  0.8395E-03  0.1245E-02  0.1386E+01
   -0.349988   30.04591  0.2230E-13  0.1434E-04  0.6061E-07  0.9841E-03  0.1139E-02  0.1481E+01
   -0.399988   30.04711  0.2230E-13  0.1488E-04  0.5729E-07  0.1134E-02  0.1035E-02  0.1504E+01
   -0.449988   30.04812  0.2230E-13  0.1536E-04  0.5451E-07  0.1281E-02  0.9387E-03  0.1505E+01
   -0.499988   30.04900  0.2230E-13  0.1578E-04  0.5221E-07  0.1417E-02  0.8526E-03  0.1503E+01
   -0.549989   30.04979  0.2230E-13  0.1613E-04  0.5030E-07  0.1541E-02  0.7760E-03  0.1488E+01
   -0.599990   30.05049  0.2230E-13  0.1641E-04  0.4873E-07  0.1651E-02  0.7077E-03  0.1470E+01
   -0.649991   30.05113  0.2230E-13  0.1663E-04  0.4743E-07  0.1745E-02  0.6469E-03  0.1446E+01
   -0.699992   30.05173  0.2230E-13  0.1680E-04  0.4637E-07  0.1823E-02  0.5928E-03  0.1420E+01
   -0.749993   30.05229  0.2230E-13  0.1691E-04  0.4552E-07  0.1883E-02  0.5444E-03  0.1389E+01
   -0.799995   30.05283  0.2230E-13  0.1698E-04  0.4486E-07  0.1926E-02  0.5013E-03  0.1355E+01
   -0.849996   30.05334  0.2230E-13  0.1701E-04  0.4436E-07  0.1953E-02  0.4629E-03  0.1318E+01
   -0.899998   30.05384  0.2230E-13  0.1699E-04  0.4402E-07  0.1964E-02  0.4286E-03  0.1279E+01
   -0.950000   30.05433  0.2230E-13  0.1695E-04  0.4382E-07  0.1961E-02  0.3979E-03  0.1236E+01
   -1.000001   30.05482  0.2230E-13  0.1688E-04  0.4376E-07  0.1945E-02  0.3706E-03  0.1189E+01
   -1.050003   30.05529  0.2230E-13  0.1679E-04  0.4382E-07  0.1906E-02  0.3462E-03  0.1145E+01
   -1.100005   30.05578  0.2230E-13  0.1668E-04  0.4398E-07  0.2092E-02  0.3246E-03  0.2602E+01
   -1.150006   30.05621  0.2230E-13  0.1656E-04  0.4429E-07  0.1688E-02  0.3094E-03  0.7103E+01
   -1.200008   30.05674  0.2230E-13  0.1641E-04  0.4474E-07  0.1794E-02  0.2916E-03  0.1269E+01
   -1.250010   30.05723  0.2230E-13  0.1623E-04  0.4538E-07  0.1753E-02  0.2751E-03  0.1320E+01
   -1.300011   30.05773  0.2230E-13  0.1601E-04  0.4628E-07  0.1682E-02  0.2593E-03  0.1549E+01
   -1.350012   30.05824  0.2230E-13  0.1577E-04  0.4750E-07  0.1604E-02  0.2439E-03  0.1884E+01
   -1.400013   30.05877  0.2230E-13  0.1547E-04  0.4918E-07  0.1502E-02  0.2288E-03  0.2392E+01
   -1.450014   30.05933  0.2230E-13  0.1513E-04  0.5153E-07  0.1409E-02  0.2137E-03  0.3157E+01
   -1.500015   30.05994  0.2230E-13  0.1472E-04  0.5487E-07  0.1278E-02  0.1988E-03  0.4527E+01
   -1.550015   30.06061  0.2230E-13  0.1423E-04  0.5978E-07  0.1191E-02  0.1836E-03  0.7291E+01
   -1.600015   30.06135  0.2230E-13  0.1362E-04  0.6782E-07  0.1039E-02  0.1684E-03 -0.2362E+03
   -1.650015   30.06235  0.2230E-13  0.1281E-04  0.8078E-07  0.9487E-03  0.1510E-03 -0.1448E+04
   -1.700014   30.06356  0.2230E-13  0.1170E-04  0.1038E-06  0.7631E-03  0.1331E-03  0.2345E+04
   -1.750013   30.06575  0.2230E-13  0.1040E-04  0.1394E-06  0.6744E-03  0.1090E-03  0.1820E+06
   -1.800012   30.06700  0.2230E-13  0.8769E-05  0.2189E-06  0.4474E-03  0.9326E-04  0.1081E+05
   -1.850010   30.07564  0.2230E-13  0.7230E-05  0.3682E-06  0.4332E-03  0.6074E-04  0.8543E+07
   -1.900008   30.07135  0.2230E-13  0.5656E-05  0.7796E-06  0.2024E-03  0.5089E-04 -0.3365E+05
   -1.950006   30.09269  0.2230E-13  0.4090E-05  0.1820E-05  0.2353E-03  0.2518E-04 -0.3116E+05
   -2.000003   30.08990  0.2230E-13  0.0000E+00  0.0000E+00  0.0000E+00  0.5830E-04  0.0000E+00
