 1 - depth, m
 2 - temperature, C
 3 - salinity, kg/kg
 4 - turbulent kinetic energy, m**2/s**2
 5 - dissipation rate, m**2/s**3
 6 - kinematic heat conductance, m**2/s
 7 - modulus of horizontal velocity, m/s
 8 - Richardson number, n/d
   -0.000000   29.82560  0.5445E-14  0.4761E-05  0.2671E-06  0.4882E-04  0.2602E-02  0.1716E+04
   -0.049997   29.85383  0.5445E-14  0.7906E-05  0.1175E-06  0.1869E-03  0.1409E-02  0.2992E+02
   -0.099994   29.86306  0.5445E-14  0.9413E-05  0.8262E-07  0.3793E-03  0.1075E-02  0.7201E+01
   -0.149992   29.86612  0.5445E-14  0.1039E-04  0.6945E-07  0.4715E-03  0.9498E-03  0.3628E+01
   -0.199991   29.86847  0.5445E-14  0.1116E-04  0.6172E-07  0.6162E-03  0.8514E-03  0.2363E+01
   -0.249989   29.87021  0.5445E-14  0.1177E-04  0.5665E-07  0.7350E-03  0.7763E-03  0.1760E+01
   -0.299989   29.87164  0.5445E-14  0.1227E-04  0.5303E-07  0.8456E-03  0.7137E-03  0.1436E+01
   -0.349988   29.87285  0.5445E-14  0.1270E-04  0.5026E-07  0.9493E-03  0.6591E-03  0.1337E+01
   -0.399988   29.87391  0.5445E-14  0.1308E-04  0.4803E-07  0.1056E-02  0.6085E-03  0.1296E+01
   -0.449988   29.87483  0.5445E-14  0.1343E-04  0.4616E-07  0.1162E-02  0.5621E-03  0.1285E+01
   -0.499988   29.87566  0.5445E-14  0.1373E-04  0.4459E-07  0.1261E-02  0.5202E-03  0.1282E+01
   -0.549989   29.87641  0.5445E-14  0.1399E-04  0.4327E-07  0.1352E-02  0.4824E-03  0.1279E+01
   -0.599990   29.87709  0.5445E-14  0.1422E-04  0.4217E-07  0.1435E-02  0.4483E-03  0.1273E+01
   -0.649991   29.87773  0.5445E-14  0.1441E-04  0.4124E-07  0.1509E-02  0.4175E-03  0.1271E+01
   -0.699992   29.87832  0.5445E-14  0.1457E-04  0.4048E-07  0.1574E-02  0.3896E-03  0.1266E+01
   -0.749993   29.87889  0.5445E-14  0.1470E-04  0.3985E-07  0.1628E-02  0.3643E-03  0.1266E+01
   -0.799995   29.87942  0.5445E-14  0.1480E-04  0.3934E-07  0.1673E-02  0.3413E-03  0.1265E+01
   -0.849997   29.87994  0.5445E-14  0.1488E-04  0.3894E-07  0.1708E-02  0.3203E-03  0.1273E+01
   -0.899998   29.88044  0.5445E-14  0.1494E-04  0.3864E-07  0.1733E-02  0.3013E-03  0.1286E+01
   -0.950000   29.88093  0.5445E-14  0.1497E-04  0.3844E-07  0.1750E-02  0.2838E-03  0.1325E+01
   -1.000002   29.88141  0.5445E-14  0.1498E-04  0.3832E-07  0.1758E-02  0.2678E-03  0.1391E+01
   -1.050003   29.88188  0.5445E-14  0.1498E-04  0.3830E-07  0.1757E-02  0.2527E-03  0.1557E+01
   -1.100005   29.88235  0.5445E-14  0.1495E-04  0.3836E-07  0.1846E-02  0.2385E-03  0.5152E+01
   -1.150007   29.88279  0.5445E-14  0.1491E-04  0.3854E-07  0.1671E-02  0.2259E-03  0.1157E+02
   -1.200008   29.88327  0.5445E-14  0.1484E-04  0.3883E-07  0.1699E-02  0.2127E-03  0.2233E+01
   -1.250010   29.88375  0.5445E-14  0.1475E-04  0.3927E-07  0.1669E-02  0.2002E-03  0.2369E+01
   -1.300011   29.88423  0.5445E-14  0.1463E-04  0.3988E-07  0.1621E-02  0.1881E-03  0.2767E+01
   -1.350012   29.88472  0.5445E-14  0.1449E-04  0.4070E-07  0.1564E-02  0.1763E-03  0.3286E+01
   -1.400014   29.88523  0.5445E-14  0.1432E-04  0.4182E-07  0.1490E-02  0.1649E-03  0.4038E+01
   -1.450014   29.88576  0.5445E-14  0.1411E-04  0.4332E-07  0.1413E-02  0.1537E-03  0.5084E+01
   -1.500015   29.88632  0.5445E-14  0.1385E-04  0.4539E-07  0.1305E-02  0.1428E-03  0.6811E+01
   -1.550015   29.88692  0.5445E-14  0.1354E-04  0.4830E-07  0.1220E-02  0.1318E-03  0.9489E+01
   -1.600015   29.88758  0.5445E-14  0.1316E-04  0.5266E-07  0.1078E-02  0.1210E-03  0.1631E+02
   -1.650015   29.88836  0.5445E-14  0.1267E-04  0.5933E-07  0.9985E-03  0.1096E-03  0.3517E+03
   -1.700015   29.88923  0.5445E-14  0.1201E-04  0.7130E-07  0.8164E-03  0.9852E-04  0.5193E+04
   -1.750014   29.89071  0.5445E-14  0.1111E-04  0.9111E-07  0.7393E-03  0.8407E-04  0.2122E+07
   -1.800013   29.89206  0.5445E-14  0.9872E-05  0.1322E-06  0.5158E-03  0.7233E-04  0.1748E+04
   -1.850011   29.89685  0.5445E-14  0.8430E-05  0.2093E-06  0.4703E-03  0.5274E-04  0.5106E+06
   -1.900009   29.89647  0.5445E-14  0.6694E-05  0.4327E-06  0.2148E-03  0.4266E-04 -0.4095E+07
   -1.950006   29.91231  0.5445E-14  0.4601E-05  0.1101E-05  0.1731E-03  0.2335E-04 -0.2659E+06
   -2.000003   29.91473  0.5445E-14  0.0000E+00  0.0000E+00  0.0000E+00  0.4097E-04  0.0000E+00
