 1 - depth, m
 2 - temperature, C
 3 - salinity, kg/kg
 4 - turbulent kinetic energy, m**2/s**2
 5 - dissipation rate, m**2/s**3
 6 - kinematic heat conductance, m**2/s
 7 - modulus of horizontal velocity, m/s
 8 - Richardson number, n/d
   -0.000000   29.76903  0.2005E-14  0.5200E-05  0.2970E-06  0.5095E-04  0.3059E-02  0.1145E+04
   -0.049997   29.79985  0.2005E-14  0.8501E-05  0.1297E-06  0.1976E-03  0.1651E-02  0.2889E+02
   -0.099994   29.80944  0.2005E-14  0.1005E-04  0.9174E-07  0.3845E-03  0.1282E-02  0.5422E+01
   -0.149992   29.81281  0.2005E-14  0.1106E-04  0.7716E-07  0.4804E-03  0.1138E-02  0.2791E+01
   -0.199991   29.81539  0.2005E-14  0.1185E-04  0.6860E-07  0.6225E-03  0.1025E-02  0.1838E+01
   -0.249989   29.81732  0.2005E-14  0.1248E-04  0.6299E-07  0.7367E-03  0.9380E-03  0.1395E+01
   -0.299989   29.81891  0.2005E-14  0.1301E-04  0.5894E-07  0.8409E-03  0.8651E-03  0.1230E+01
   -0.349988   29.82026  0.2005E-14  0.1347E-04  0.5572E-07  0.9505E-03  0.7993E-03  0.1273E+01
   -0.399988   29.82143  0.2005E-14  0.1390E-04  0.5304E-07  0.1072E-02  0.7356E-03  0.1297E+01
   -0.449988   29.82243  0.2005E-14  0.1428E-04  0.5076E-07  0.1191E-02  0.6763E-03  0.1310E+01
   -0.499988   29.82332  0.2005E-14  0.1462E-04  0.4884E-07  0.1302E-02  0.6226E-03  0.1318E+01
   -0.549989   29.82412  0.2005E-14  0.1491E-04  0.4722E-07  0.1404E-02  0.5743E-03  0.1316E+01
   -0.599990   29.82484  0.2005E-14  0.1516E-04  0.4586E-07  0.1497E-02  0.5308E-03  0.1310E+01
   -0.649991   29.82551  0.2005E-14  0.1536E-04  0.4472E-07  0.1579E-02  0.4916E-03  0.1299E+01
   -0.699992   29.82614  0.2005E-14  0.1552E-04  0.4376E-07  0.1650E-02  0.4561E-03  0.1283E+01
   -0.749993   29.82672  0.2005E-14  0.1564E-04  0.4297E-07  0.1708E-02  0.4242E-03  0.1264E+01
   -0.799995   29.82728  0.2005E-14  0.1574E-04  0.4233E-07  0.1755E-02  0.3953E-03  0.1241E+01
   -0.849996   29.82781  0.2005E-14  0.1579E-04  0.4182E-07  0.1790E-02  0.3693E-03  0.1215E+01
   -0.899998   29.82833  0.2005E-14  0.1583E-04  0.4144E-07  0.1813E-02  0.3458E-03  0.1185E+01
   -0.950000   29.82883  0.2005E-14  0.1583E-04  0.4117E-07  0.1826E-02  0.3247E-03  0.1159E+01
   -1.000002   29.82932  0.2005E-14  0.1582E-04  0.4100E-07  0.1829E-02  0.3056E-03  0.1146E+01
   -1.050003   29.82980  0.2005E-14  0.1578E-04  0.4094E-07  0.1822E-02  0.2882E-03  0.1201E+01
   -1.100005   29.83028  0.2005E-14  0.1572E-04  0.4098E-07  0.1938E-02  0.2722E-03  0.3767E+01
   -1.150007   29.83072  0.2005E-14  0.1564E-04  0.4114E-07  0.1691E-02  0.2584E-03  0.9074E+01
   -1.200008   29.83123  0.2005E-14  0.1554E-04  0.4141E-07  0.1744E-02  0.2435E-03  0.1685E+01
   -1.250010   29.83171  0.2005E-14  0.1541E-04  0.4185E-07  0.1711E-02  0.2294E-03  0.1778E+01
   -1.300011   29.83220  0.2005E-14  0.1525E-04  0.4248E-07  0.1656E-02  0.2159E-03  0.2077E+01
   -1.350012   29.83269  0.2005E-14  0.1507E-04  0.4336E-07  0.1592E-02  0.2027E-03  0.2482E+01
   -1.400013   29.83321  0.2005E-14  0.1484E-04  0.4458E-07  0.1509E-02  0.1898E-03  0.3067E+01
   -1.450014   29.83374  0.2005E-14  0.1458E-04  0.4626E-07  0.1427E-02  0.1772E-03  0.3913E+01
   -1.500015   29.83431  0.2005E-14  0.1427E-04  0.4862E-07  0.1312E-02  0.1647E-03  0.5341E+01
   -1.550015   29.83492  0.2005E-14  0.1389E-04  0.5202E-07  0.1225E-02  0.1521E-03  0.7719E+01
   -1.600015   29.83559  0.2005E-14  0.1343E-04  0.5732E-07  0.1081E-02  0.1397E-03  0.2930E+02
   -1.650015   29.83641  0.2005E-14  0.1284E-04  0.6574E-07  0.9942E-03  0.1263E-03  0.6696E+03
   -1.700015   29.83736  0.2005E-14  0.1203E-04  0.8046E-07  0.8141E-03  0.1129E-03  0.8311E+03
   -1.750014   29.83898  0.2005E-14  0.1099E-04  0.1042E-06  0.7297E-03  0.9540E-04  0.9690E+04
   -1.800012   29.84023  0.2005E-14  0.9626E-05  0.1563E-06  0.5062E-03  0.8202E-04  0.1141E+06
   -1.850011   29.84591  0.2005E-14  0.8150E-05  0.2533E-06  0.4687E-03  0.5807E-04  0.3129E+07
   -1.900009   29.84444  0.2005E-14  0.6427E-05  0.5283E-06  0.2153E-03  0.4757E-04 -0.5770E+04
   -1.950006   29.86088  0.2005E-14  0.4469E-05  0.1308E-05  0.1921E-03  0.2542E-04 -0.8052E+05
   -2.000003   29.86228  0.2005E-14  0.0000E+00  0.0000E+00  0.0000E+00  0.4823E-04  0.0000E+00
