 1 - depth, m
 2 - temperature, C
 3 - salinity, kg/kg
 4 - turbulent kinetic energy, m**2/s**2
 5 - dissipation rate, m**2/s**3
 6 - kinematic heat conductance, m**2/s
 7 - modulus of horizontal velocity, m/s
 8 - Richardson number, n/d
   -0.000000   30.65109  0.1013E-13  0.5068E-05  0.3219E-06  0.5207E-04  0.1872E-02  0.6434E+04
   -0.049997   30.68232  0.1013E-13  0.8575E-05  0.1434E-06  0.1789E-03  0.1070E-02  0.1059E+03
   -0.099994   30.69450  0.1013E-13  0.1039E-04  0.9834E-07  0.4010E-03  0.7864E-03  0.1468E+02
   -0.149992   30.69790  0.1013E-13  0.1154E-04  0.8229E-07  0.4827E-03  0.6945E-03  0.7214E+01
   -0.199991   30.70061  0.1013E-13  0.1242E-04  0.7290E-07  0.6465E-03  0.6202E-03  0.4605E+01
   -0.249989   30.70257  0.1013E-13  0.1313E-04  0.6677E-07  0.7733E-03  0.5646E-03  0.3393E+01
   -0.299988   30.70416  0.1013E-13  0.1370E-04  0.6240E-07  0.9003E-03  0.5185E-03  0.2690E+01
   -0.349988   30.70549  0.1013E-13  0.1418E-04  0.5912E-07  0.1015E-02  0.4789E-03  0.2298E+01
   -0.399988   30.70665  0.1013E-13  0.1457E-04  0.5657E-07  0.1120E-02  0.4441E-03  0.2042E+01
   -0.449988   30.70767  0.1013E-13  0.1492E-04  0.5449E-07  0.1218E-02  0.4133E-03  0.1919E+01
   -0.499988   30.70859  0.1013E-13  0.1521E-04  0.5277E-07  0.1308E-02  0.3861E-03  0.1863E+01
   -0.549989   30.70943  0.1013E-13  0.1547E-04  0.5132E-07  0.1390E-02  0.3617E-03  0.1839E+01
   -0.599989   30.71021  0.1013E-13  0.1568E-04  0.5009E-07  0.1465E-02  0.3396E-03  0.1834E+01
   -0.649990   30.71093  0.1013E-13  0.1587E-04  0.4905E-07  0.1533E-02  0.3195E-03  0.1855E+01
   -0.699992   30.71161  0.1013E-13  0.1603E-04  0.4817E-07  0.1592E-02  0.3010E-03  0.1888E+01
   -0.749993   30.71226  0.1013E-13  0.1615E-04  0.4743E-07  0.1644E-02  0.2839E-03  0.1948E+01
   -0.799994   30.71288  0.1013E-13  0.1626E-04  0.4680E-07  0.1687E-02  0.2681E-03  0.2018E+01
   -0.849996   30.71347  0.1013E-13  0.1634E-04  0.4629E-07  0.1723E-02  0.2533E-03  0.2121E+01
   -0.899998   30.71405  0.1013E-13  0.1639E-04  0.4589E-07  0.1751E-02  0.2394E-03  0.2236E+01
   -0.949999   30.71461  0.1013E-13  0.1642E-04  0.4559E-07  0.1770E-02  0.2263E-03  0.2395E+01
   -1.000001   30.71515  0.1013E-13  0.1644E-04  0.4539E-07  0.1781E-02  0.2139E-03  0.2569E+01
   -1.050003   30.71569  0.1013E-13  0.1642E-04  0.4531E-07  0.1782E-02  0.2021E-03  0.2910E+01
   -1.100005   30.71622  0.1013E-13  0.1639E-04  0.4534E-07  0.1871E-02  0.1909E-03  0.9565E+01
   -1.150006   30.71673  0.1013E-13  0.1633E-04  0.4551E-07  0.1697E-02  0.1809E-03  0.2190E+02
   -1.200008   30.71728  0.1013E-13  0.1625E-04  0.4582E-07  0.1724E-02  0.1705E-03  0.4181E+01
   -1.250009   30.71781  0.1013E-13  0.1614E-04  0.4630E-07  0.1694E-02  0.1606E-03  0.4419E+01
   -1.300011   30.71835  0.1013E-13  0.1601E-04  0.4700E-07  0.1644E-02  0.1510E-03  0.5174E+01
   -1.350012   30.71891  0.1013E-13  0.1584E-04  0.4797E-07  0.1585E-02  0.1417E-03  0.6165E+01
   -1.400013   30.71948  0.1013E-13  0.1563E-04  0.4931E-07  0.1507E-02  0.1327E-03  0.7628E+01
   -1.450014   30.72008  0.1013E-13  0.1538E-04  0.5114E-07  0.1429E-02  0.1238E-03  0.9710E+01
   -1.500014   30.72071  0.1013E-13  0.1507E-04  0.5372E-07  0.1317E-02  0.1150E-03  0.1325E+02
   -1.550015   30.72140  0.1013E-13  0.1470E-04  0.5740E-07  0.1233E-02  0.1063E-03  0.1912E+02
   -1.600015   30.72215  0.1013E-13  0.1425E-04  0.6308E-07  0.1089E-02  0.9765E-04  0.9776E+03
   -1.650014   30.72306  0.1013E-13  0.1366E-04  0.7199E-07  0.1006E-02  0.8837E-04  0.1339E+03
   -1.700014   30.72412  0.1013E-13  0.1284E-04  0.8776E-07  0.8201E-03  0.7917E-04 -0.3467E+04
   -1.750013   30.72593  0.1013E-13  0.1180E-04  0.1132E-06  0.7430E-03  0.6713E-04  0.1055E+06
   -1.800012   30.72734  0.1013E-13  0.1043E-04  0.1690E-06  0.5133E-03  0.5799E-04  0.3069E+05
   -1.850010   30.73360  0.1013E-13  0.8918E-05  0.2736E-06  0.4821E-03  0.4178E-04  0.1676E+08
   -1.900008   30.73214  0.1013E-13  0.7104E-05  0.5730E-06  0.2179E-03  0.3431E-04  0.2800E+05
   -1.950005   30.75077  0.1013E-13  0.4949E-05  0.1420E-05  0.1915E-03  0.1874E-04 -0.1412E+06
   -2.000002   30.75308  0.1013E-13  0.0000E+00  0.0000E+00  0.0000E+00  0.3362E-04  0.0000E+00
