 1 - depth, m
 2 - temperature, C
 3 - salinity, kg/kg
 4 - turbulent kinetic energy, m**2/s**2
 5 - dissipation rate, m**2/s**3
 6 - kinematic heat conductance, m**2/s
 7 - modulus of horizontal velocity, m/s
 8 - Richardson number, n/d
   -0.000000   30.39012  0.8409E-13  0.5151E-05  0.3065E-06  0.5138E-04  0.2591E-02  0.1988E+04
   -0.049997   30.42099  0.8409E-13  0.8554E-05  0.1350E-06  0.1915E-03  0.1416E-02  0.3469E+03
   -0.099994   30.43122  0.8409E-13  0.1020E-04  0.9462E-07  0.3898E-03  0.1082E-02  0.7321E+01
   -0.149992   30.43459  0.8409E-13  0.1127E-04  0.7930E-07  0.4834E-03  0.9560E-03  0.3710E+01
   -0.199991   30.43718  0.8409E-13  0.1211E-04  0.7033E-07  0.6351E-03  0.8571E-03  0.2401E+01
   -0.249989   30.43909  0.8409E-13  0.1277E-04  0.6445E-07  0.7586E-03  0.7819E-03  0.1779E+01
   -0.299988   30.44065  0.8409E-13  0.1332E-04  0.6026E-07  0.8761E-03  0.7193E-03  0.1439E+01
   -0.349988   30.44197  0.8409E-13  0.1378E-04  0.5708E-07  0.9840E-03  0.6650E-03  0.1295E+01
   -0.399988   30.44311  0.8409E-13  0.1418E-04  0.5455E-07  0.1090E-02  0.6155E-03  0.1236E+01
   -0.449988   30.44411  0.8409E-13  0.1453E-04  0.5243E-07  0.1195E-02  0.5703E-03  0.1226E+01
   -0.499988   30.44501  0.8409E-13  0.1485E-04  0.5064E-07  0.1295E-02  0.5294E-03  0.1229E+01
   -0.549989   30.44583  0.8409E-13  0.1512E-04  0.4914E-07  0.1387E-02  0.4925E-03  0.1226E+01
   -0.599989   30.44657  0.8409E-13  0.1536E-04  0.4787E-07  0.1472E-02  0.4590E-03  0.1223E+01
   -0.649990   30.44726  0.8409E-13  0.1556E-04  0.4681E-07  0.1547E-02  0.4286E-03  0.1216E+01
   -0.699992   30.44791  0.8409E-13  0.1572E-04  0.4593E-07  0.1612E-02  0.4010E-03  0.1210E+01
   -0.749993   30.44852  0.8409E-13  0.1585E-04  0.4520E-07  0.1667E-02  0.3760E-03  0.1204E+01
   -0.799994   30.44911  0.8409E-13  0.1596E-04  0.4461E-07  0.1711E-02  0.3532E-03  0.1204E+01
   -0.849996   30.44967  0.8409E-13  0.1604E-04  0.4414E-07  0.1746E-02  0.3324E-03  0.1211E+01
   -0.899998   30.45021  0.8409E-13  0.1609E-04  0.4379E-07  0.1771E-02  0.3133E-03  0.1237E+01
   -0.949999   30.45074  0.8409E-13  0.1612E-04  0.4355E-07  0.1787E-02  0.2958E-03  0.1285E+01
   -1.000001   30.45126  0.8409E-13  0.1613E-04  0.4341E-07  0.1796E-02  0.2794E-03  0.1364E+01
   -1.050003   30.45177  0.8409E-13  0.1612E-04  0.4337E-07  0.1794E-02  0.2640E-03  0.1526E+01
   -1.100005   30.45228  0.8409E-13  0.1608E-04  0.4344E-07  0.1892E-02  0.2494E-03  0.5022E+01
   -1.150006   30.45276  0.8409E-13  0.1603E-04  0.4365E-07  0.1694E-02  0.2365E-03  0.1151E+02
   -1.200008   30.45329  0.8409E-13  0.1595E-04  0.4398E-07  0.1730E-02  0.2229E-03  0.2195E+01
   -1.250009   30.45381  0.8409E-13  0.1584E-04  0.4449E-07  0.1698E-02  0.2099E-03  0.2334E+01
   -1.300011   30.45433  0.8409E-13  0.1571E-04  0.4520E-07  0.1647E-02  0.1974E-03  0.2725E+01
   -1.350012   30.45486  0.8409E-13  0.1554E-04  0.4618E-07  0.1586E-02  0.1853E-03  0.3256E+01
   -1.400013   30.45542  0.8409E-13  0.1534E-04  0.4750E-07  0.1507E-02  0.1735E-03  0.4012E+01
   -1.450014   30.45600  0.8409E-13  0.1510E-04  0.4931E-07  0.1427E-02  0.1619E-03  0.5101E+01
   -1.500014   30.45661  0.8409E-13  0.1481E-04  0.5181E-07  0.1314E-02  0.1505E-03  0.6902E+01
   -1.550014   30.45729  0.8409E-13  0.1445E-04  0.5537E-07  0.1228E-02  0.1390E-03  0.9840E+01
   -1.600015   30.45801  0.8409E-13  0.1401E-04  0.6080E-07  0.1082E-02  0.1277E-03  0.1982E+02
   -1.650014   30.45890  0.8409E-13  0.1344E-04  0.6924E-07  0.1001E-02  0.1156E-03  0.1048E+03
   -1.700014   30.45991  0.8409E-13  0.1266E-04  0.8417E-07  0.8166E-03  0.1036E-03  0.2843E+03
   -1.750013   30.46164  0.8409E-13  0.1165E-04  0.1086E-06  0.7380E-03  0.8806E-04  0.1686E+05
   -1.800012   30.46312  0.8409E-13  0.1026E-04  0.1596E-06  0.5129E-03  0.7571E-04  0.1476E+07
   -1.850010   30.46899  0.8409E-13  0.8707E-05  0.2566E-06  0.4716E-03  0.5438E-04  0.3529E+07
   -1.900008   30.46813  0.8409E-13  0.6852E-05  0.5387E-06  0.2078E-03  0.4407E-04  0.1001E+06
   -1.950005   30.48710  0.8409E-13  0.4798E-05  0.1347E-05  0.1893E-03  0.2360E-04 -0.5012E+06
   -2.000002   30.48862  0.8409E-13  0.0000E+00  0.0000E+00  0.0000E+00  0.4327E-04  0.0000E+00
