 1 - depth, m
 2 - temperature, C
 3 - salinity, kg/kg
 4 - turbulent kinetic energy, m**2/s**2
 5 - dissipation rate, m**2/s**3
 6 - kinematic heat conductance, m**2/s
 7 - modulus of horizontal velocity, m/s
 8 - Richardson number, n/d
   -0.000000   30.11873  0.3279E-14  0.4360E-05  0.2574E-06  0.4721E-04  0.5563E-03  0.8170E+05
   -0.049997   30.14671  0.3279E-14  0.7749E-05  0.1139E-06  0.1782E-03  0.3110E-03  0.6997E+02
   -0.099994   30.15683  0.3279E-14  0.9390E-05  0.7912E-07  0.4075E-03  0.2261E-03  0.1355E+03
   -0.149992   30.15959  0.3279E-14  0.1041E-04  0.6704E-07  0.4834E-03  0.2002E-03  0.6646E+02
   -0.199991   30.16182  0.3279E-14  0.1122E-04  0.5991E-07  0.6434E-03  0.1790E-03  0.4362E+02
   -0.249989   30.16346  0.3279E-14  0.1186E-04  0.5522E-07  0.7673E-03  0.1630E-03  0.3257E+02
   -0.299989   30.16481  0.3279E-14  0.1240E-04  0.5188E-07  0.8899E-03  0.1497E-03  0.2617E+02
   -0.349988   30.16594  0.3279E-14  0.1284E-04  0.4939E-07  0.1001E-02  0.1382E-03  0.2253E+02
   -0.399988   30.16693  0.3279E-14  0.1322E-04  0.4746E-07  0.1103E-02  0.1281E-03  0.2018E+02
   -0.449988   30.16782  0.3279E-14  0.1355E-04  0.4591E-07  0.1197E-02  0.1192E-03  0.1901E+02
   -0.499988   30.16861  0.3279E-14  0.1384E-04  0.4464E-07  0.1284E-02  0.1113E-03  0.1856E+02
   -0.549989   30.16935  0.3279E-14  0.1409E-04  0.4359E-07  0.1364E-02  0.1042E-03  0.1837E+02
   -0.599990   30.17003  0.3279E-14  0.1432E-04  0.4272E-07  0.1436E-02  0.9782E-04  0.1845E+02
   -0.649991   30.17067  0.3279E-14  0.1451E-04  0.4200E-07  0.1501E-02  0.9198E-04  0.1875E+02
   -0.699992   30.17127  0.3279E-14  0.1468E-04  0.4141E-07  0.1559E-02  0.8662E-04  0.1925E+02
   -0.749993   30.17185  0.3279E-14  0.1483E-04  0.4094E-07  0.1609E-02  0.8165E-04  0.1997E+02
   -0.799995   30.17240  0.3279E-14  0.1496E-04  0.4057E-07  0.1651E-02  0.7704E-04  0.2091E+02
   -0.849996   30.17294  0.3279E-14  0.1506E-04  0.4029E-07  0.1686E-02  0.7273E-04  0.2209E+02
   -0.899998   30.17346  0.3279E-14  0.1515E-04  0.4011E-07  0.1713E-02  0.6869E-04  0.2354E+02
   -0.950000   30.17397  0.3279E-14  0.1521E-04  0.4002E-07  0.1732E-02  0.6488E-04  0.2533E+02
   -1.000001   30.17447  0.3279E-14  0.1526E-04  0.4002E-07  0.1743E-02  0.6128E-04  0.2748E+02
   -1.050003   30.17497  0.3279E-14  0.1528E-04  0.4012E-07  0.1744E-02  0.5786E-04  0.3136E+02
   -1.100005   30.17547  0.3279E-14  0.1529E-04  0.4032E-07  0.1824E-02  0.5460E-04  0.1050E+03
   -1.150006   30.17595  0.3279E-14  0.1527E-04  0.4065E-07  0.1672E-02  0.5168E-04  0.2339E+03
   -1.200008   30.17647  0.3279E-14  0.1524E-04  0.4109E-07  0.1691E-02  0.4868E-04  0.4571E+02
   -1.250010   30.17698  0.3279E-14  0.1517E-04  0.4170E-07  0.1660E-02  0.4579E-04  0.4913E+02
   -1.300011   30.17751  0.3279E-14  0.1509E-04  0.4250E-07  0.1613E-02  0.4302E-04  0.5776E+02
   -1.350012   30.17805  0.3279E-14  0.1497E-04  0.4355E-07  0.1556E-02  0.4033E-04  0.6931E+02
   -1.400013   30.17861  0.3279E-14  0.1482E-04  0.4491E-07  0.1482E-02  0.3771E-04  0.8587E+02
   -1.450014   30.17920  0.3279E-14  0.1463E-04  0.4671E-07  0.1406E-02  0.3514E-04  0.1094E+03
   -1.500015   30.17983  0.3279E-14  0.1439E-04  0.4914E-07  0.1298E-02  0.3263E-04  0.1485E+03
   -1.550015   30.18053  0.3279E-14  0.1409E-04  0.5251E-07  0.1215E-02  0.3010E-04  0.2098E+03
   -1.600015   30.18128  0.3279E-14  0.1371E-04  0.5753E-07  0.1070E-02  0.2763E-04  0.3919E+03
   -1.650015   30.18219  0.3279E-14  0.1322E-04  0.6511E-07  0.9927E-03  0.2500E-04  0.6063E+04
   -1.700014   30.18320  0.3279E-14  0.1255E-04  0.7855E-07  0.8115E-03  0.2246E-04  0.4833E+05
   -1.750013   30.18497  0.3279E-14  0.1163E-04  0.1006E-06  0.7342E-03  0.1914E-04  0.2117E+06
   -1.800012   30.18652  0.3279E-14  0.1038E-04  0.1448E-06  0.5179E-03  0.1646E-04  0.5638E+06
   -1.850010   30.19228  0.3279E-14  0.8892E-05  0.2303E-06  0.4702E-03  0.1202E-04  0.1045E+10
   -1.900008   30.19178  0.3279E-14  0.7067E-05  0.4788E-06  0.2094E-03  0.9717E-05  0.3321E+07
   -1.950006   30.21103  0.3279E-14  0.4916E-05  0.1218E-05  0.1769E-03  0.5312E-05 -0.6542E+07
   -2.000003   30.21423  0.3279E-14  0.0000E+00  0.0000E+00  0.0000E+00  0.9255E-05  0.0000E+00
