 1 - depth, m
 2 - temperature, C
 3 - salinity, kg/kg
 4 - turbulent kinetic energy, m**2/s**2
 5 - dissipation rate, m**2/s**3
 6 - kinematic heat conductance, m**2/s
 7 - modulus of horizontal velocity, m/s
 8 - Richardson number, n/d
   -0.000000   30.35999  0.1180E-14  0.5351E-05  0.3280E-06  0.5274E-04  0.2630E-02  0.2176E+04
   -0.049997   30.39183  0.1180E-14  0.8879E-05  0.1440E-06  0.1949E-03  0.1443E-02  0.6226E+02
   -0.099994   30.40261  0.1180E-14  0.1061E-04  0.1006E-06  0.3983E-03  0.1100E-02  0.7295E+01
   -0.149992   30.40609  0.1180E-14  0.1173E-04  0.8431E-07  0.4917E-03  0.9742E-03  0.3708E+01
   -0.199991   30.40879  0.1180E-14  0.1260E-04  0.7481E-07  0.6473E-03  0.8744E-03  0.2399E+01
   -0.249989   30.41078  0.1180E-14  0.1330E-04  0.6861E-07  0.7718E-03  0.7987E-03  0.1787E+01
   -0.299988   30.41240  0.1180E-14  0.1388E-04  0.6420E-07  0.8905E-03  0.7355E-03  0.1456E+01
   -0.349988   30.41378  0.1180E-14  0.1437E-04  0.6085E-07  0.1001E-02  0.6805E-03  0.1334E+01
   -0.399988   30.41497  0.1180E-14  0.1479E-04  0.5815E-07  0.1112E-02  0.6298E-03  0.1278E+01
   -0.449988   30.41603  0.1180E-14  0.1518E-04  0.5591E-07  0.1221E-02  0.5834E-03  0.1264E+01
   -0.499988   30.41697  0.1180E-14  0.1551E-04  0.5403E-07  0.1324E-02  0.5416E-03  0.1260E+01
   -0.549989   30.41782  0.1180E-14  0.1580E-04  0.5246E-07  0.1418E-02  0.5037E-03  0.1258E+01
   -0.599989   30.41860  0.1180E-14  0.1606E-04  0.5115E-07  0.1504E-02  0.4695E-03  0.1253E+01
   -0.649990   30.41932  0.1180E-14  0.1627E-04  0.5005E-07  0.1580E-02  0.4384E-03  0.1252E+01
   -0.699992   30.42000  0.1180E-14  0.1644E-04  0.4914E-07  0.1646E-02  0.4103E-03  0.1248E+01
   -0.749993   30.42064  0.1180E-14  0.1659E-04  0.4840E-07  0.1701E-02  0.3846E-03  0.1251E+01
   -0.799994   30.42126  0.1180E-14  0.1670E-04  0.4781E-07  0.1745E-02  0.3613E-03  0.1255E+01
   -0.849996   30.42185  0.1180E-14  0.1678E-04  0.4735E-07  0.1779E-02  0.3399E-03  0.1272E+01
   -0.899998   30.42243  0.1180E-14  0.1683E-04  0.4702E-07  0.1803E-02  0.3204E-03  0.1299E+01
   -0.949999   30.42299  0.1180E-14  0.1686E-04  0.4681E-07  0.1818E-02  0.3024E-03  0.1352E+01
   -1.000001   30.42354  0.1180E-14  0.1687E-04  0.4670E-07  0.1824E-02  0.2857E-03  0.1428E+01
   -1.050003   30.42409  0.1180E-14  0.1685E-04  0.4672E-07  0.1819E-02  0.2701E-03  0.1599E+01
   -1.100004   30.42463  0.1180E-14  0.1681E-04  0.4686E-07  0.1931E-02  0.2553E-03  0.5158E+01
   -1.150006   30.42514  0.1180E-14  0.1675E-04  0.4715E-07  0.1695E-02  0.2423E-03  0.1244E+02
   -1.200008   30.42571  0.1180E-14  0.1666E-04  0.4759E-07  0.1741E-02  0.2284E-03  0.2336E+01
   -1.250009   30.42627  0.1180E-14  0.1654E-04  0.4823E-07  0.1708E-02  0.2152E-03  0.2488E+01
   -1.300010   30.42684  0.1180E-14  0.1639E-04  0.4911E-07  0.1651E-02  0.2026E-03  0.2938E+01
   -1.350012   30.42742  0.1180E-14  0.1620E-04  0.5031E-07  0.1587E-02  0.1902E-03  0.3544E+01
   -1.400013   30.42802  0.1180E-14  0.1598E-04  0.5193E-07  0.1500E-02  0.1781E-03  0.4447E+01
   -1.450013   30.42866  0.1180E-14  0.1570E-04  0.5415E-07  0.1419E-02  0.1662E-03  0.5753E+01
   -1.500014   30.42934  0.1180E-14  0.1537E-04  0.5726E-07  0.1299E-02  0.1545E-03  0.8058E+01
   -1.550014   30.43010  0.1180E-14  0.1496E-04  0.6173E-07  0.1217E-02  0.1426E-03  0.1211E+02
   -1.600014   30.43092  0.1180E-14  0.1445E-04  0.6881E-07  0.1066E-02  0.1309E-03 -0.5922E+01
   -1.650014   30.43198  0.1180E-14  0.1377E-04  0.7984E-07  0.9835E-03  0.1180E-03  0.1086E+05
   -1.700014   30.43318  0.1180E-14  0.1285E-04  0.9953E-07  0.7961E-03  0.1052E-03 -0.2800E+04
   -1.750013   30.43541  0.1180E-14  0.1169E-04  0.1309E-06  0.7226E-03  0.8785E-04  0.5924E+05
   -1.800011   30.43691  0.1180E-14  0.1022E-04  0.1998E-06  0.4963E-03  0.7569E-04  0.4985E+04
   -1.850010   30.44499  0.1180E-14  0.8653E-05  0.3296E-06  0.4633E-03  0.5267E-04  0.3229E+08
   -1.900008   30.44220  0.1180E-14  0.6848E-05  0.6933E-06  0.2138E-03  0.4340E-04 -0.1274E+06
   -1.950005   30.46468  0.1180E-14  0.4857E-05  0.1677E-05  0.2080E-03  0.2295E-04 -0.9344E+05
   -2.000002   30.46573  0.1180E-14  0.0000E+00  0.0000E+00  0.0000E+00  0.4506E-04  0.0000E+00
