 1 - depth, m
 2 - temperature, C
 3 - salinity, kg/kg
 4 - turbulent kinetic energy, m**2/s**2
 5 - dissipation rate, m**2/s**3
 6 - kinematic heat conductance, m**2/s
 7 - modulus of horizontal velocity, m/s
 8 - Richardson number, n/d
   -0.000000   30.40520  0.3648E-13  0.5650E-05  0.3177E-06  0.5408E-04  0.3890E-02  0.7547E+03
   -0.049997   30.43600  0.3648E-13  0.8977E-05  0.1366E-06  0.2087E-03  0.2095E-02  0.1311E+03
   -0.099994   30.44505  0.3648E-13  0.1048E-04  0.9781E-07  0.3866E-03  0.1672E-02  0.3697E+01
   -0.149992   30.44851  0.3648E-13  0.1149E-04  0.8264E-07  0.4835E-03  0.1496E-02  0.1956E+01
   -0.199991   30.45115  0.3648E-13  0.1229E-04  0.7379E-07  0.6098E-03  0.1359E-02  0.1368E+01
   -0.249989   30.45319  0.3648E-13  0.1296E-04  0.6783E-07  0.7149E-03  0.1251E-02  0.1256E+01
   -0.299988   30.45487  0.3648E-13  0.1357E-04  0.6324E-07  0.8370E-03  0.1153E-02  0.1334E+01
   -0.349988   30.45628  0.3648E-13  0.1415E-04  0.5946E-07  0.9778E-03  0.1056E-02  0.1425E+01
   -0.399988   30.45745  0.3648E-13  0.1468E-04  0.5632E-07  0.1124E-02  0.9624E-03  0.1450E+01
   -0.449988   30.45844  0.3648E-13  0.1516E-04  0.5369E-07  0.1266E-02  0.8754E-03  0.1455E+01
   -0.499988   30.45930  0.3648E-13  0.1558E-04  0.5152E-07  0.1400E-02  0.7974E-03  0.1454E+01
   -0.549989   30.46007  0.3648E-13  0.1593E-04  0.4973E-07  0.1521E-02  0.7278E-03  0.1443E+01
   -0.599989   30.46076  0.3648E-13  0.1623E-04  0.4826E-07  0.1630E-02  0.6657E-03  0.1428E+01
   -0.649991   30.46140  0.3648E-13  0.1647E-04  0.4705E-07  0.1725E-02  0.6102E-03  0.1408E+01
   -0.699992   30.46199  0.3648E-13  0.1665E-04  0.4607E-07  0.1803E-02  0.5606E-03  0.1384E+01
   -0.749993   30.46254  0.3648E-13  0.1679E-04  0.4530E-07  0.1866E-02  0.5163E-03  0.1357E+01
   -0.799995   30.46307  0.3648E-13  0.1688E-04  0.4471E-07  0.1912E-02  0.4767E-03  0.1327E+01
   -0.849996   30.46358  0.3648E-13  0.1694E-04  0.4427E-07  0.1943E-02  0.4412E-03  0.1294E+01
   -0.899998   30.46408  0.3648E-13  0.1696E-04  0.4399E-07  0.1959E-02  0.4095E-03  0.1259E+01
   -0.949999   30.46456  0.3648E-13  0.1695E-04  0.4383E-07  0.1961E-02  0.3811E-03  0.1220E+01
   -1.000001   30.46504  0.3648E-13  0.1691E-04  0.4381E-07  0.1951E-02  0.3557E-03  0.1177E+01
   -1.050003   30.46551  0.3648E-13  0.1685E-04  0.4391E-07  0.1923E-02  0.3330E-03  0.1141E+01
   -1.100005   30.46599  0.3648E-13  0.1677E-04  0.4411E-07  0.2091E-02  0.3130E-03  0.2779E+01
   -1.150006   30.46642  0.3648E-13  0.1667E-04  0.4445E-07  0.1728E-02  0.2981E-03  0.7251E+01
   -1.200008   30.46695  0.3648E-13  0.1655E-04  0.4492E-07  0.1819E-02  0.2812E-03  0.1316E+01
   -1.250009   30.46743  0.3648E-13  0.1640E-04  0.4558E-07  0.1780E-02  0.2653E-03  0.1378E+01
   -1.300011   30.46793  0.3648E-13  0.1621E-04  0.4648E-07  0.1714E-02  0.2502E-03  0.1622E+01
   -1.350012   30.46844  0.3648E-13  0.1600E-04  0.4770E-07  0.1639E-02  0.2354E-03  0.1965E+01
   -1.400013   30.46898  0.3648E-13  0.1574E-04  0.4934E-07  0.1543E-02  0.2209E-03  0.2477E+01
   -1.450014   30.46954  0.3648E-13  0.1543E-04  0.5159E-07  0.1451E-02  0.2065E-03  0.3233E+01
   -1.500014   30.47014  0.3648E-13  0.1507E-04  0.5475E-07  0.1326E-02  0.1922E-03  0.4569E+01
   -1.550015   30.47081  0.3648E-13  0.1463E-04  0.5934E-07  0.1233E-02  0.1776E-03  0.7149E+01
   -1.600015   30.47155  0.3648E-13  0.1408E-04  0.6665E-07  0.1085E-02  0.1632E-03  0.5682E+02
   -1.650014   30.47251  0.3648E-13  0.1336E-04  0.7822E-07  0.9885E-03  0.1471E-03  0.3890E+05
   -1.700014   30.47365  0.3648E-13  0.1238E-04  0.9794E-07  0.8096E-03  0.1306E-03 -0.4465E+03
   -1.750013   30.47564  0.3648E-13  0.1118E-04  0.1300E-06  0.7156E-03  0.1092E-03  0.2868E+06
   -1.800012   30.47712  0.3648E-13  0.9617E-05  0.2038E-06  0.4868E-03  0.9315E-04  0.4582E+04
   -1.850010   30.48467  0.3648E-13  0.8091E-05  0.3356E-06  0.4590E-03  0.6393E-04  0.1346E+08
   -1.900008   30.48166  0.3648E-13  0.6394E-05  0.7115E-06  0.2118E-03  0.5289E-04  0.4947E+05
   -1.950005   30.50228  0.3648E-13  0.4566E-05  0.1684E-05  0.2181E-03  0.2768E-04 -0.1149E+06
   -2.000002   30.50171  0.3648E-13  0.0000E+00  0.0000E+00  0.0000E+00  0.5677E-04  0.0000E+00
