 1 - depth, m
 2 - temperature, C
 3 - salinity, kg/kg
 4 - turbulent kinetic energy, m**2/s**2
 5 - dissipation rate, m**2/s**3
 6 - kinematic heat conductance, m**2/s
 7 - modulus of horizontal velocity, m/s
 8 - Richardson number, n/d
   -0.000000   30.54155  0.3571E-13  0.5749E-05  0.3138E-06  0.5533E-04  0.4225E-02  0.1985E+03
   -0.049997   30.57123  0.3571E-13  0.8999E-05  0.1342E-06  0.2114E-03  0.2270E-02  0.9990E+02
   -0.099994   30.57979  0.3571E-13  0.1044E-04  0.9679E-07  0.3846E-03  0.1833E-02  0.3254E+01
   -0.149992   30.58320  0.3571E-13  0.1141E-04  0.8203E-07  0.4794E-03  0.1645E-02  0.1757E+01
   -0.199991   30.58581  0.3571E-13  0.1221E-04  0.7335E-07  0.5987E-03  0.1499E-02  0.1312E+01
   -0.249989   30.58784  0.3571E-13  0.1289E-04  0.6738E-07  0.7083E-03  0.1380E-02  0.1306E+01
   -0.299988   30.58951  0.3571E-13  0.1354E-04  0.6271E-07  0.8401E-03  0.1267E-02  0.1402E+01
   -0.349988   30.59088  0.3571E-13  0.1414E-04  0.5887E-07  0.9876E-03  0.1157E-02  0.1500E+01
   -0.399988   30.59202  0.3571E-13  0.1470E-04  0.5570E-07  0.1141E-02  0.1050E-02  0.1522E+01
   -0.449988   30.59298  0.3571E-13  0.1520E-04  0.5307E-07  0.1290E-02  0.9508E-03  0.1520E+01
   -0.499988   30.59382  0.3571E-13  0.1564E-04  0.5091E-07  0.1429E-02  0.8622E-03  0.1512E+01
   -0.549989   30.59456  0.3571E-13  0.1600E-04  0.4915E-07  0.1555E-02  0.7836E-03  0.1495E+01
   -0.599990   30.59523  0.3571E-13  0.1630E-04  0.4772E-07  0.1666E-02  0.7137E-03  0.1473E+01
   -0.649991   30.59584  0.3571E-13  0.1654E-04  0.4656E-07  0.1761E-02  0.6517E-03  0.1448E+01
   -0.699992   30.59641  0.3571E-13  0.1673E-04  0.4564E-07  0.1839E-02  0.5965E-03  0.1419E+01
   -0.749993   30.59695  0.3571E-13  0.1686E-04  0.4493E-07  0.1898E-02  0.5474E-03  0.1387E+01
   -0.799995   30.59746  0.3571E-13  0.1695E-04  0.4441E-07  0.1940E-02  0.5037E-03  0.1353E+01
   -0.849996   30.59795  0.3571E-13  0.1699E-04  0.4405E-07  0.1965E-02  0.4648E-03  0.1316E+01
   -0.899998   30.59844  0.3571E-13  0.1700E-04  0.4384E-07  0.1974E-02  0.4301E-03  0.1277E+01
   -0.949999   30.59891  0.3571E-13  0.1697E-04  0.4378E-07  0.1969E-02  0.3992E-03  0.1235E+01
   -1.000001   30.59939  0.3571E-13  0.1692E-04  0.4384E-07  0.1951E-02  0.3717E-03  0.1189E+01
   -1.050003   30.59986  0.3571E-13  0.1685E-04  0.4403E-07  0.1911E-02  0.3473E-03  0.1145E+01
   -1.100005   30.60033  0.3571E-13  0.1676E-04  0.4431E-07  0.2101E-02  0.3257E-03  0.2597E+01
   -1.150006   30.60076  0.3571E-13  0.1665E-04  0.4473E-07  0.1689E-02  0.3105E-03  0.7222E+01
   -1.200008   30.60129  0.3571E-13  0.1651E-04  0.4530E-07  0.1795E-02  0.2927E-03  0.1292E+01
   -1.250009   30.60179  0.3571E-13  0.1635E-04  0.4608E-07  0.1752E-02  0.2761E-03  0.1353E+01
   -1.300011   30.60229  0.3571E-13  0.1615E-04  0.4713E-07  0.1679E-02  0.2602E-03  0.1603E+01
   -1.350012   30.60282  0.3571E-13  0.1592E-04  0.4852E-07  0.1603E-02  0.2448E-03  0.1965E+01
   -1.400013   30.60336  0.3571E-13  0.1564E-04  0.5040E-07  0.1494E-02  0.2296E-03  0.2529E+01
   -1.450014   30.60395  0.3571E-13  0.1531E-04  0.5299E-07  0.1410E-02  0.2144E-03  0.3355E+01
   -1.500014   30.60458  0.3571E-13  0.1491E-04  0.5666E-07  0.1266E-02  0.1995E-03  0.4943E+01
   -1.550015   30.60530  0.3571E-13  0.1442E-04  0.6195E-07  0.1196E-02  0.1839E-03  0.1107E+02
   -1.600015   30.60607  0.3571E-13  0.1382E-04  0.7078E-07  0.1026E-02  0.1690E-03 -0.9886E+02
   -1.650014   30.60721  0.3571E-13  0.1300E-04  0.8452E-07  0.9528E-03  0.1508E-03  0.9648E+02
   -1.700014   30.60840  0.3571E-13  0.1188E-04  0.1100E-06  0.7457E-03  0.1337E-03  0.7642E+03
   -1.750013   30.61103  0.3571E-13  0.1055E-04  0.1492E-06  0.6826E-03  0.1078E-03  0.3146E+05
   -1.800012   30.61220  0.3571E-13  0.8989E-05  0.2364E-06  0.4545E-03  0.9290E-04  0.3216E+04
   -1.850010   30.62190  0.3571E-13  0.7482E-05  0.3994E-06  0.4418E-03  0.6039E-04  0.7786E+08
   -1.900008   30.61684  0.3571E-13  0.5923E-05  0.8402E-06  0.2088E-03  0.5090E-04 -0.4527E+05
   -1.950005   30.64014  0.3571E-13  0.4293E-05  0.1963E-05  0.2359E-03  0.2549E-04 -0.8740E+05
   -2.000002   30.63931  0.3571E-13  0.0000E+00  0.0000E+00  0.0000E+00  0.5810E-04  0.0000E+00
