 1 - depth, m
 2 - temperature, C
 3 - salinity, kg/kg
 4 - turbulent kinetic energy, m**2/s**2
 5 - dissipation rate, m**2/s**3
 6 - kinematic heat conductance, m**2/s
 7 - modulus of horizontal velocity, m/s
 8 - Richardson number, n/d
   -0.000000   30.23751  0.3060E-14  0.4995E-05  0.3159E-06  0.5161E-04  0.1782E-02  0.5922E+04
   -0.049997   30.26838  0.3060E-14  0.8494E-05  0.1406E-06  0.1794E-03  0.1018E-02  0.5499E+03
   -0.099994   30.28041  0.3060E-14  0.1031E-04  0.9653E-07  0.4028E-03  0.7482E-03  0.1609E+02
   -0.149992   30.28374  0.3060E-14  0.1145E-04  0.8086E-07  0.4848E-03  0.6611E-03  0.7907E+01
   -0.199991   30.28640  0.3060E-14  0.1234E-04  0.7172E-07  0.6496E-03  0.5906E-03  0.5057E+01
   -0.249989   30.28832  0.3060E-14  0.1305E-04  0.6576E-07  0.7768E-03  0.5380E-03  0.3721E+01
   -0.299988   30.28989  0.3060E-14  0.1363E-04  0.6154E-07  0.9045E-03  0.4942E-03  0.2963E+01
   -0.349988   30.29121  0.3060E-14  0.1411E-04  0.5838E-07  0.1020E-02  0.4567E-03  0.2525E+01
   -0.399988   30.29235  0.3060E-14  0.1452E-04  0.5593E-07  0.1125E-02  0.4235E-03  0.2255E+01
   -0.449988   30.29336  0.3060E-14  0.1487E-04  0.5394E-07  0.1224E-02  0.3944E-03  0.2110E+01
   -0.499988   30.29428  0.3060E-14  0.1518E-04  0.5230E-07  0.1314E-02  0.3685E-03  0.2059E+01
   -0.549989   30.29511  0.3060E-14  0.1544E-04  0.5094E-07  0.1397E-02  0.3454E-03  0.2024E+01
   -0.599989   30.29589  0.3060E-14  0.1567E-04  0.4979E-07  0.1473E-02  0.3244E-03  0.2031E+01
   -0.649990   30.29661  0.3060E-14  0.1587E-04  0.4883E-07  0.1540E-02  0.3053E-03  0.2045E+01
   -0.699992   30.29729  0.3060E-14  0.1604E-04  0.4802E-07  0.1600E-02  0.2877E-03  0.2097E+01
   -0.749993   30.29794  0.3060E-14  0.1618E-04  0.4735E-07  0.1652E-02  0.2714E-03  0.2153E+01
   -0.799994   30.29856  0.3060E-14  0.1630E-04  0.4680E-07  0.1696E-02  0.2563E-03  0.2250E+01
   -0.849996   30.29916  0.3060E-14  0.1639E-04  0.4637E-07  0.1732E-02  0.2423E-03  0.2351E+01
   -0.899998   30.29974  0.3060E-14  0.1646E-04  0.4604E-07  0.1760E-02  0.2290E-03  0.2503E+01
   -0.949999   30.30030  0.3060E-14  0.1651E-04  0.4582E-07  0.1779E-02  0.2166E-03  0.2665E+01
   -1.000001   30.30086  0.3060E-14  0.1653E-04  0.4570E-07  0.1790E-02  0.2048E-03  0.2890E+01
   -1.050003   30.30141  0.3060E-14  0.1654E-04  0.4570E-07  0.1791E-02  0.1936E-03  0.3258E+01
   -1.100004   30.30195  0.3060E-14  0.1652E-04  0.4581E-07  0.1880E-02  0.1829E-03  0.1084E+02
   -1.150006   30.30247  0.3060E-14  0.1647E-04  0.4607E-07  0.1705E-02  0.1734E-03  0.2461E+02
   -1.200008   30.30303  0.3060E-14  0.1641E-04  0.4646E-07  0.1732E-02  0.1634E-03  0.4706E+01
   -1.250009   30.30359  0.3060E-14  0.1631E-04  0.4704E-07  0.1701E-02  0.1539E-03  0.5041E+01
   -1.300011   30.30415  0.3060E-14  0.1619E-04  0.4785E-07  0.1651E-02  0.1448E-03  0.5877E+01
   -1.350012   30.30473  0.3060E-14  0.1603E-04  0.4893E-07  0.1591E-02  0.1359E-03  0.7070E+01
   -1.400013   30.30533  0.3060E-14  0.1584E-04  0.5039E-07  0.1513E-02  0.1273E-03  0.8719E+01
   -1.450014   30.30596  0.3060E-14  0.1560E-04  0.5237E-07  0.1434E-02  0.1188E-03  0.1118E+02
   -1.500014   30.30662  0.3060E-14  0.1531E-04  0.5510E-07  0.1322E-02  0.1104E-03  0.1523E+02
   -1.550014   30.30736  0.3060E-14  0.1495E-04  0.5898E-07  0.1236E-02  0.1020E-03  0.2203E+02
   -1.600015   30.30815  0.3060E-14  0.1450E-04  0.6491E-07  0.1093E-02  0.9373E-04  0.3208E+02
   -1.650014   30.30912  0.3060E-14  0.1391E-04  0.7411E-07  0.1008E-02  0.8485E-04  0.2331E+04
   -1.700014   30.31024  0.3060E-14  0.1311E-04  0.9040E-07  0.8262E-03  0.7602E-04 -0.2574E+03
   -1.750013   30.31218  0.3060E-14  0.1207E-04  0.1169E-06  0.7450E-03  0.6452E-04  0.6799E+05
   -1.800012   30.31376  0.3060E-14  0.1069E-04  0.1738E-06  0.5294E-03  0.5551E-04  0.1924E+05
   -1.850010   30.32036  0.3060E-14  0.9159E-05  0.2803E-06  0.4835E-03  0.4015E-04  0.3411E+08
   -1.900008   30.31904  0.3060E-14  0.7329E-05  0.5846E-06  0.2247E-03  0.3280E-04  0.3388E+06
   -1.950005   30.33896  0.3060E-14  0.5126E-05  0.1459E-05  0.1888E-03  0.1808E-04 -0.5691E+06
   -2.000002   30.34223  0.3060E-14  0.0000E+00  0.0000E+00  0.0000E+00  0.3235E-04  0.0000E+00
