 1 - depth, m
 2 - temperature, C
 3 - salinity, kg/kg
 4 - turbulent kinetic energy, m**2/s**2
 5 - dissipation rate, m**2/s**3
 6 - kinematic heat conductance, m**2/s
 7 - modulus of horizontal velocity, m/s
 8 - Richardson number, n/d
   -0.000000   30.18808  0.5084E-13  0.4784E-05  0.2991E-06  0.5081E-04  0.1255E-02  0.8617E+04
   -0.049997   30.21822  0.5084E-13  0.8249E-05  0.1331E-06  0.1759E-03  0.7178E-03  0.1244E+04
   -0.099994   30.23018  0.5084E-13  0.1003E-04  0.9135E-07  0.4041E-03  0.5224E-03  0.3639E+02
   -0.149992   30.23338  0.5084E-13  0.1113E-04  0.7675E-07  0.4815E-03  0.4616E-03  0.1780E+02
   -0.199991   30.23596  0.5084E-13  0.1200E-04  0.6819E-07  0.6453E-03  0.4120E-03  0.1147E+02
   -0.249989   30.23783  0.5084E-13  0.1268E-04  0.6258E-07  0.7711E-03  0.3750E-03  0.8521E+01
   -0.299988   30.23935  0.5084E-13  0.1324E-04  0.5858E-07  0.8970E-03  0.3442E-03  0.6776E+01
   -0.349988   30.24062  0.5084E-13  0.1371E-04  0.5559E-07  0.1011E-02  0.3178E-03  0.5830E+01
   -0.399988   30.24173  0.5084E-13  0.1410E-04  0.5326E-07  0.1115E-02  0.2946E-03  0.5178E+01
   -0.449988   30.24271  0.5084E-13  0.1444E-04  0.5137E-07  0.1212E-02  0.2741E-03  0.4891E+01
   -0.499988   30.24359  0.5084E-13  0.1473E-04  0.4981E-07  0.1301E-02  0.2560E-03  0.4733E+01
   -0.549989   30.24440  0.5084E-13  0.1499E-04  0.4850E-07  0.1383E-02  0.2397E-03  0.4703E+01
   -0.599989   30.24515  0.5084E-13  0.1521E-04  0.4741E-07  0.1457E-02  0.2251E-03  0.4674E+01
   -0.649990   30.24585  0.5084E-13  0.1540E-04  0.4648E-07  0.1524E-02  0.2117E-03  0.4770E+01
   -0.699992   30.24650  0.5084E-13  0.1556E-04  0.4570E-07  0.1583E-02  0.1994E-03  0.4842E+01
   -0.749993   30.24713  0.5084E-13  0.1569E-04  0.4505E-07  0.1634E-02  0.1880E-03  0.5044E+01
   -0.799994   30.24773  0.5084E-13  0.1580E-04  0.4451E-07  0.1678E-02  0.1775E-03  0.5214E+01
   -0.849996   30.24830  0.5084E-13  0.1589E-04  0.4408E-07  0.1714E-02  0.1676E-03  0.5532E+01
   -0.899998   30.24886  0.5084E-13  0.1596E-04  0.4375E-07  0.1742E-02  0.1584E-03  0.5815E+01
   -0.949999   30.24941  0.5084E-13  0.1601E-04  0.4352E-07  0.1762E-02  0.1496E-03  0.6284E+01
   -1.000001   30.24994  0.5084E-13  0.1603E-04  0.4339E-07  0.1774E-02  0.1414E-03  0.6721E+01
   -1.050003   30.25047  0.5084E-13  0.1604E-04  0.4337E-07  0.1776E-02  0.1336E-03  0.7688E+01
   -1.100004   30.25099  0.5084E-13  0.1602E-04  0.4345E-07  0.1859E-02  0.1261E-03  0.2530E+02
   -1.150006   30.25148  0.5084E-13  0.1598E-04  0.4367E-07  0.1700E-02  0.1194E-03  0.5700E+02
   -1.200008   30.25202  0.5084E-13  0.1592E-04  0.4401E-07  0.1722E-02  0.1126E-03  0.1108E+02
   -1.250009   30.25255  0.5084E-13  0.1583E-04  0.4452E-07  0.1693E-02  0.1060E-03  0.1172E+02
   -1.300010   30.25308  0.5084E-13  0.1571E-04  0.4524E-07  0.1645E-02  0.9962E-04  0.1383E+02
   -1.350012   30.25363  0.5084E-13  0.1556E-04  0.4621E-07  0.1587E-02  0.9347E-04  0.1641E+02
   -1.400013   30.25420  0.5084E-13  0.1538E-04  0.4751E-07  0.1512E-02  0.8747E-04  0.2044E+02
   -1.450013   30.25480  0.5084E-13  0.1516E-04  0.4928E-07  0.1436E-02  0.8160E-04  0.2579E+02
   -1.500014   30.25543  0.5084E-13  0.1489E-04  0.5172E-07  0.1325E-02  0.7583E-04  0.3534E+02
   -1.550014   30.25612  0.5084E-13  0.1455E-04  0.5515E-07  0.1244E-02  0.7004E-04  0.4973E+02
   -1.600014   30.25685  0.5084E-13  0.1414E-04  0.6041E-07  0.1097E-02  0.6439E-04  0.1022E+03
   -1.650014   30.25777  0.5084E-13  0.1360E-04  0.6842E-07  0.1020E-02  0.5829E-04  0.2392E+03
   -1.700014   30.25875  0.5084E-13  0.1287E-04  0.8264E-07  0.8329E-03  0.5247E-04 -0.8568E+03
   -1.750013   30.26054  0.5084E-13  0.1190E-04  0.1060E-06  0.7580E-03  0.4469E-04  0.4477E+06
   -1.800011   30.26196  0.5085E-13  0.1061E-04  0.1540E-06  0.5338E-03  0.3868E-04 -0.2384E+05
   -1.850010   30.26775  0.5085E-13  0.9119E-05  0.2459E-06  0.4894E-03  0.2837E-04  0.5337E+07
   -1.900008   30.26691  0.5085E-13  0.7300E-05  0.5091E-06  0.2250E-03  0.2323E-04 -0.7801E+05
   -1.950005   30.28518  0.5085E-13  0.5065E-05  0.1293E-05  0.1807E-03  0.1299E-04 -0.8281E+06
   -2.000002   30.28854  0.5085E-13  0.0000E+00  0.0000E+00  0.0000E+00  0.2210E-04  0.0000E+00
