 1 - depth, m
 2 - temperature, C
 3 - salinity, kg/kg
 4 - turbulent kinetic energy, m**2/s**2
 5 - dissipation rate, m**2/s**3
 6 - kinematic heat conductance, m**2/s
 7 - modulus of horizontal velocity, m/s
 8 - Richardson number, n/d
   -0.000000   29.72310  0.2115E-14  0.4349E-05  0.2558E-06  0.4822E-04  0.1430E-02  0.1157E+05
   -0.049997   29.74999  0.2115E-14  0.7512E-05  0.1138E-06  0.1705E-03  0.8123E-03  0.2808E+04
   -0.099994   29.76042  0.2115E-14  0.9126E-05  0.7838E-07  0.3890E-03  0.5903E-03  0.2147E+02
   -0.149992   29.76327  0.2115E-14  0.1013E-04  0.6597E-07  0.4675E-03  0.5209E-03  0.1043E+02
   -0.199991   29.76555  0.2115E-14  0.1092E-04  0.5869E-07  0.6233E-03  0.4646E-03  0.6739E+01
   -0.249989   29.76722  0.2115E-14  0.1155E-04  0.5393E-07  0.7454E-03  0.4224E-03  0.4983E+01
   -0.299989   29.76858  0.2115E-14  0.1207E-04  0.5054E-07  0.8663E-03  0.3872E-03  0.3975E+01
   -0.349988   29.76972  0.2115E-14  0.1250E-04  0.4801E-07  0.9763E-03  0.3571E-03  0.3407E+01
   -0.399988   29.77071  0.2115E-14  0.1286E-04  0.4604E-07  0.1077E-02  0.3306E-03  0.3042E+01
   -0.449988   29.77160  0.2115E-14  0.1318E-04  0.4445E-07  0.1171E-02  0.3072E-03  0.2861E+01
   -0.499988   29.77240  0.2115E-14  0.1346E-04  0.4315E-07  0.1257E-02  0.2865E-03  0.2787E+01
   -0.549989   29.77313  0.2115E-14  0.1370E-04  0.4206E-07  0.1336E-02  0.2680E-03  0.2755E+01
   -0.599990   29.77381  0.2115E-14  0.1391E-04  0.4115E-07  0.1409E-02  0.2513E-03  0.2760E+01
   -0.649991   29.77444  0.2115E-14  0.1410E-04  0.4039E-07  0.1473E-02  0.2361E-03  0.2800E+01
   -0.699992   29.77504  0.2115E-14  0.1426E-04  0.3975E-07  0.1531E-02  0.2221E-03  0.2868E+01
   -0.749993   29.77561  0.2115E-14  0.1439E-04  0.3922E-07  0.1582E-02  0.2092E-03  0.2968E+01
   -0.799995   29.77615  0.2115E-14  0.1451E-04  0.3879E-07  0.1625E-02  0.1972E-03  0.3096E+01
   -0.849996   29.77668  0.2115E-14  0.1460E-04  0.3846E-07  0.1661E-02  0.1860E-03  0.3260E+01
   -0.899998   29.77719  0.2115E-14  0.1468E-04  0.3821E-07  0.1690E-02  0.1756E-03  0.3460E+01
   -0.950000   29.77768  0.2115E-14  0.1473E-04  0.3804E-07  0.1710E-02  0.1657E-03  0.3707E+01
   -1.000002   29.77817  0.2115E-14  0.1477E-04  0.3797E-07  0.1723E-02  0.1564E-03  0.4004E+01
   -1.050003   29.77865  0.2115E-14  0.1479E-04  0.3797E-07  0.1727E-02  0.1476E-03  0.4547E+01
   -1.100005   29.77913  0.2115E-14  0.1479E-04  0.3808E-07  0.1798E-02  0.1392E-03  0.1537E+02
   -1.150007   29.77959  0.2115E-14  0.1477E-04  0.3829E-07  0.1672E-02  0.1316E-03  0.3282E+02
   -1.200008   29.78008  0.2115E-14  0.1473E-04  0.3861E-07  0.1683E-02  0.1239E-03  0.6485E+01
   -1.250010   29.78057  0.2115E-14  0.1466E-04  0.3907E-07  0.1656E-02  0.1165E-03  0.6922E+01
   -1.300011   29.78106  0.2115E-14  0.1458E-04  0.3970E-07  0.1613E-02  0.1094E-03  0.8056E+01
   -1.350012   29.78157  0.2115E-14  0.1446E-04  0.4054E-07  0.1559E-02  0.1025E-03  0.9561E+01
   -1.400013   29.78209  0.2115E-14  0.1432E-04  0.4165E-07  0.1491E-02  0.9586E-04  0.1166E+02
   -1.450014   29.78263  0.2115E-14  0.1414E-04  0.4313E-07  0.1418E-02  0.8932E-04  0.1462E+02
   -1.500015   29.78321  0.2115E-14  0.1392E-04  0.4512E-07  0.1318E-02  0.8292E-04  0.1930E+02
   -1.550015   29.78383  0.2115E-14  0.1364E-04  0.4788E-07  0.1232E-02  0.7655E-04  0.2658E+02
   -1.600015   29.78451  0.2115E-14  0.1330E-04  0.5194E-07  0.1096E-02  0.7030E-04  0.4401E+02
   -1.650015   29.78529  0.2115E-14  0.1286E-04  0.5805E-07  0.1011E-02  0.6377E-04  0.8866E+02
   -1.700015   29.78617  0.2115E-14  0.1228E-04  0.6868E-07  0.8384E-03  0.5742E-04 -0.3629E+04
   -1.750014   29.78756  0.2115E-14  0.1147E-04  0.8636E-07  0.7533E-03  0.4955E-04  0.7787E+05
   -1.800012   29.78894  0.2115E-14  0.1033E-04  0.1222E-06  0.5433E-03  0.4271E-04  0.6227E+04
   -1.850011   29.79314  0.2115E-14  0.8941E-05  0.1898E-06  0.4809E-03  0.3205E-04  0.1549E+07
   -1.900009   29.79352  0.2115E-14  0.7127E-05  0.3877E-06  0.2206E-03  0.2583E-04  0.1928E+07
   -1.950006   29.80899  0.2115E-14  0.4874E-05  0.1008E-05  0.1619E-03  0.1448E-04 -0.6811E+06
   -2.000003   29.81313  0.2115E-14  0.0000E+00  0.0000E+00  0.0000E+00  0.2383E-04  0.0000E+00
