 1 - depth, m
 2 - temperature, C
 3 - salinity, kg/kg
 4 - turbulent kinetic energy, m**2/s**2
 5 - dissipation rate, m**2/s**3
 6 - kinematic heat conductance, m**2/s
 7 - modulus of horizontal velocity, m/s
 8 - Richardson number, n/d
   -0.000000   30.37348  0.4901E-14  0.5364E-05  0.3297E-06  0.5293E-04  0.2626E-02  0.1339E+04
   -0.049997   30.40529  0.4901E-14  0.8905E-05  0.1447E-06  0.1952E-03  0.1440E-02  0.6288E+03
   -0.099994   30.41610  0.4901E-14  0.1064E-04  0.1010E-06  0.3995E-03  0.1098E-02  0.7274E+01
   -0.149992   30.41957  0.4901E-14  0.1176E-04  0.8463E-07  0.4930E-03  0.9721E-03  0.3699E+01
   -0.199991   30.42226  0.4901E-14  0.1265E-04  0.7508E-07  0.6495E-03  0.8725E-03  0.2391E+01
   -0.249989   30.42425  0.4901E-14  0.1335E-04  0.6885E-07  0.7746E-03  0.7970E-03  0.1781E+01
   -0.299988   30.42588  0.4901E-14  0.1393E-04  0.6442E-07  0.8940E-03  0.7341E-03  0.1450E+01
   -0.349988   30.42725  0.4901E-14  0.1442E-04  0.6105E-07  0.1005E-02  0.6792E-03  0.1328E+01
   -0.399988   30.42844  0.4901E-14  0.1485E-04  0.5835E-07  0.1117E-02  0.6287E-03  0.1274E+01
   -0.449988   30.42949  0.4901E-14  0.1524E-04  0.5609E-07  0.1227E-02  0.5825E-03  0.1260E+01
   -0.499988   30.43043  0.4901E-14  0.1558E-04  0.5420E-07  0.1331E-02  0.5407E-03  0.1257E+01
   -0.549989   30.43127  0.4901E-14  0.1588E-04  0.5262E-07  0.1427E-02  0.5029E-03  0.1255E+01
   -0.599989   30.43205  0.4901E-14  0.1613E-04  0.5129E-07  0.1514E-02  0.4687E-03  0.1250E+01
   -0.649990   30.43277  0.4901E-14  0.1635E-04  0.5019E-07  0.1592E-02  0.4377E-03  0.1250E+01
   -0.699992   30.43345  0.4901E-14  0.1653E-04  0.4927E-07  0.1659E-02  0.4095E-03  0.1245E+01
   -0.749993   30.43409  0.4901E-14  0.1668E-04  0.4852E-07  0.1716E-02  0.3838E-03  0.1248E+01
   -0.799994   30.43470  0.4901E-14  0.1680E-04  0.4792E-07  0.1763E-02  0.3605E-03  0.1249E+01
   -0.849996   30.43529  0.4901E-14  0.1688E-04  0.4745E-07  0.1798E-02  0.3391E-03  0.1263E+01
   -0.899998   30.43586  0.4901E-14  0.1694E-04  0.4710E-07  0.1824E-02  0.3196E-03  0.1285E+01
   -0.949999   30.43642  0.4901E-14  0.1698E-04  0.4688E-07  0.1840E-02  0.3016E-03  0.1333E+01
   -1.000001   30.43696  0.4901E-14  0.1699E-04  0.4676E-07  0.1848E-02  0.2850E-03  0.1401E+01
   -1.050003   30.43750  0.4901E-14  0.1698E-04  0.4676E-07  0.1845E-02  0.2694E-03  0.1561E+01
   -1.100004   30.43804  0.4901E-14  0.1695E-04  0.4688E-07  0.1951E-02  0.2547E-03  0.5067E+01
   -1.150006   30.43854  0.4901E-14  0.1689E-04  0.4715E-07  0.1733E-02  0.2418E-03  0.1174E+02
   -1.200008   30.43911  0.4901E-14  0.1681E-04  0.4756E-07  0.1775E-02  0.2280E-03  0.2241E+01
   -1.250009   30.43966  0.4901E-14  0.1670E-04  0.4815E-07  0.1742E-02  0.2150E-03  0.2377E+01
   -1.300010   30.44021  0.4901E-14  0.1656E-04  0.4898E-07  0.1689E-02  0.2024E-03  0.2792E+01
   -1.350012   30.44078  0.4901E-14  0.1639E-04  0.5010E-07  0.1625E-02  0.1902E-03  0.3334E+01
   -1.400013   30.44137  0.4901E-14  0.1618E-04  0.5161E-07  0.1543E-02  0.1783E-03  0.4138E+01
   -1.450013   30.44199  0.4901E-14  0.1592E-04  0.5367E-07  0.1460E-02  0.1665E-03  0.5278E+01
   -1.500014   30.44265  0.4901E-14  0.1561E-04  0.5651E-07  0.1346E-02  0.1549E-03  0.7217E+01
   -1.550014   30.44338  0.4901E-14  0.1523E-04  0.6057E-07  0.1254E-02  0.1433E-03  0.1051E+02
   -1.600014   30.44417  0.4901E-14  0.1475E-04  0.6675E-07  0.1110E-02  0.1317E-03  0.4036E+02
   -1.650014   30.44513  0.4901E-14  0.1414E-04  0.7641E-07  0.1020E-02  0.1194E-03 -0.1467E+03
   -1.700014   30.44626  0.4901E-14  0.1330E-04  0.9337E-07  0.8378E-03  0.1068E-03  0.3508E+05
   -1.750013   30.44814  0.4901E-14  0.1223E-04  0.1207E-06  0.7547E-03  0.9099E-04  0.9510E+05
   -1.800011   30.44975  0.4901E-14  0.1078E-04  0.1814E-06  0.5286E-03  0.7826E-04  0.5879E+06
   -1.850010   30.45642  0.4901E-14  0.9205E-05  0.2912E-06  0.4853E-03  0.5632E-04  0.1786E+08
   -1.900008   30.45497  0.4901E-14  0.7279E-05  0.5979E-06  0.2189E-03  0.4607E-04  0.1813E+06
   -1.950005   30.47552  0.4901E-14  0.5113E-05  0.1493E-05  0.1963E-03  0.2488E-04 -0.3188E+06
   -2.000002   30.47723  0.4901E-14  0.0000E+00  0.0000E+00  0.0000E+00  0.4552E-04  0.0000E+00
