 1 - depth, m
 2 - temperature, C
 3 - salinity, kg/kg
 4 - turbulent kinetic energy, m**2/s**2
 5 - dissipation rate, m**2/s**3
 6 - kinematic heat conductance, m**2/s
 7 - modulus of horizontal velocity, m/s
 8 - Richardson number, n/d
   -0.000000   29.85042  0.3948E-14  0.5040E-05  0.3002E-06  0.5100E-04  0.2445E-02  0.3259E+04
   -0.049997   29.88087  0.3948E-14  0.8404E-05  0.1323E-06  0.1886E-03  0.1341E-02  0.1017E+03
   -0.099994   29.89139  0.3948E-14  0.1006E-04  0.9227E-07  0.3911E-03  0.1017E-02  0.9199E+01
   -0.149992   29.89470  0.3948E-14  0.1112E-04  0.7743E-07  0.4817E-03  0.8997E-03  0.4602E+01
   -0.199991   29.89728  0.3948E-14  0.1195E-04  0.6874E-07  0.6342E-03  0.8066E-03  0.2971E+01
   -0.249989   29.89918  0.3948E-14  0.1261E-04  0.6305E-07  0.7568E-03  0.7360E-03  0.2209E+01
   -0.299989   29.90073  0.3948E-14  0.1316E-04  0.5901E-07  0.8728E-03  0.6771E-03  0.1779E+01
   -0.349988   29.90204  0.3948E-14  0.1362E-04  0.5593E-07  0.9803E-03  0.6260E-03  0.1612E+01
   -0.399988   29.90318  0.3948E-14  0.1402E-04  0.5346E-07  0.1089E-02  0.5789E-03  0.1519E+01
   -0.449988   29.90419  0.3948E-14  0.1438E-04  0.5140E-07  0.1195E-02  0.5358E-03  0.1486E+01
   -0.499988   29.90508  0.3948E-14  0.1469E-04  0.4967E-07  0.1295E-02  0.4970E-03  0.1469E+01
   -0.549989   29.90590  0.3948E-14  0.1497E-04  0.4823E-07  0.1386E-02  0.4619E-03  0.1465E+01
   -0.599990   29.90664  0.3948E-14  0.1520E-04  0.4701E-07  0.1469E-02  0.4303E-03  0.1458E+01
   -0.649991   29.90734  0.3948E-14  0.1540E-04  0.4599E-07  0.1543E-02  0.4015E-03  0.1465E+01
   -0.699992   29.90799  0.3948E-14  0.1557E-04  0.4514E-07  0.1607E-02  0.3755E-03  0.1466E+01
   -0.749993   29.90860  0.3948E-14  0.1570E-04  0.4444E-07  0.1662E-02  0.3518E-03  0.1484E+01
   -0.799995   29.90919  0.3948E-14  0.1581E-04  0.4387E-07  0.1706E-02  0.3302E-03  0.1495E+01
   -0.849996   29.90975  0.3948E-14  0.1588E-04  0.4342E-07  0.1741E-02  0.3104E-03  0.1530E+01
   -0.899998   29.91030  0.3948E-14  0.1594E-04  0.4308E-07  0.1767E-02  0.2924E-03  0.1565E+01
   -0.950000   29.91083  0.3948E-14  0.1597E-04  0.4285E-07  0.1782E-02  0.2757E-03  0.1638E+01
   -1.000001   29.91136  0.3948E-14  0.1598E-04  0.4272E-07  0.1790E-02  0.2604E-03  0.1727E+01
   -1.050003   29.91187  0.3948E-14  0.1596E-04  0.4269E-07  0.1788E-02  0.2459E-03  0.1942E+01
   -1.100005   29.91238  0.3948E-14  0.1593E-04  0.4276E-07  0.1887E-02  0.2323E-03  0.6348E+01
   -1.150006   29.91287  0.3948E-14  0.1587E-04  0.4298E-07  0.1685E-02  0.2203E-03  0.1466E+02
   -1.200008   29.91340  0.3948E-14  0.1579E-04  0.4331E-07  0.1722E-02  0.2076E-03  0.2800E+01
   -1.250010   29.91392  0.3948E-14  0.1568E-04  0.4381E-07  0.1691E-02  0.1955E-03  0.2962E+01
   -1.300011   29.91445  0.3948E-14  0.1555E-04  0.4452E-07  0.1639E-02  0.1838E-03  0.3478E+01
   -1.350012   29.91499  0.3948E-14  0.1538E-04  0.4550E-07  0.1578E-02  0.1725E-03  0.4140E+01
   -1.400013   29.91554  0.3948E-14  0.1518E-04  0.4681E-07  0.1498E-02  0.1615E-03  0.5135E+01
   -1.450014   29.91613  0.3948E-14  0.1494E-04  0.4861E-07  0.1420E-02  0.1506E-03  0.6511E+01
   -1.500015   29.91675  0.3948E-14  0.1464E-04  0.5111E-07  0.1304E-02  0.1399E-03  0.8893E+01
   -1.550015   29.91742  0.3948E-14  0.1428E-04  0.5466E-07  0.1222E-02  0.1292E-03  0.1270E+02
   -1.600015   29.91815  0.3948E-14  0.1383E-04  0.6015E-07  0.1072E-02  0.1187E-03  0.2438E+02
   -1.650015   29.91906  0.3948E-14  0.1326E-04  0.6857E-07  0.9979E-03  0.1073E-03  0.4901E+03
   -1.700014   29.92005  0.3948E-14  0.1248E-04  0.8374E-07  0.8090E-03  0.9632E-04  0.2998E+03
   -1.750013   29.92188  0.3948E-14  0.1144E-04  0.1086E-06  0.7346E-03  0.8129E-04  0.4085E+05
   -1.800012   29.92326  0.3948E-14  0.1006E-04  0.1627E-06  0.5087E-03  0.7008E-04  0.5274E+04
   -1.850010   29.92957  0.3948E-14  0.8528E-05  0.2630E-06  0.4667E-03  0.4981E-04  0.2284E+07
   -1.900008   29.92818  0.3948E-14  0.6736E-05  0.5416E-06  0.2186E-03  0.4059E-04  0.1162E+05
   -1.950006   29.94693  0.3948E-14  0.4710E-05  0.1357E-05  0.1900E-03  0.2175E-04 -0.4440E+06
   -2.000003   29.94899  0.3948E-14  0.0000E+00  0.0000E+00  0.0000E+00  0.4063E-04  0.0000E+00
