 1 - depth, m
 2 - temperature, C
 3 - salinity, kg/kg
 4 - turbulent kinetic energy, m**2/s**2
 5 - dissipation rate, m**2/s**3
 6 - kinematic heat conductance, m**2/s
 7 - modulus of horizontal velocity, m/s
 8 - Richardson number, n/d
   -0.000000   30.30373  0.6227E-14  0.4945E-05  0.3123E-06  0.5090E-04  0.1415E-02  0.1092E+05
   -0.049997   30.33541  0.6227E-14  0.8479E-05  0.1393E-06  0.1802E-03  0.8067E-03  0.7172E+03
   -0.099994   30.34751  0.6227E-14  0.1029E-04  0.9590E-07  0.4025E-03  0.5920E-03  0.2457E+02
   -0.149992   30.35088  0.6227E-14  0.1142E-04  0.8043E-07  0.4844E-03  0.5230E-03  0.1209E+02
   -0.199991   30.35356  0.6227E-14  0.1231E-04  0.7138E-07  0.6482E-03  0.4671E-03  0.7742E+01
   -0.249989   30.35550  0.6227E-14  0.1301E-04  0.6545E-07  0.7746E-03  0.4254E-03  0.5721E+01
   -0.299988   30.35708  0.6227E-14  0.1358E-04  0.6122E-07  0.9014E-03  0.3906E-03  0.4544E+01
   -0.349988   30.35841  0.6227E-14  0.1405E-04  0.5805E-07  0.1016E-02  0.3609E-03  0.3888E+01
   -0.399988   30.35955  0.6227E-14  0.1445E-04  0.5559E-07  0.1121E-02  0.3346E-03  0.3458E+01
   -0.449988   30.36057  0.6227E-14  0.1479E-04  0.5358E-07  0.1218E-02  0.3115E-03  0.3249E+01
   -0.499988   30.36149  0.6227E-14  0.1508E-04  0.5192E-07  0.1307E-02  0.2910E-03  0.3153E+01
   -0.549989   30.36233  0.6227E-14  0.1533E-04  0.5052E-07  0.1389E-02  0.2727E-03  0.3114E+01
   -0.599989   30.36310  0.6227E-14  0.1555E-04  0.4935E-07  0.1463E-02  0.2561E-03  0.3106E+01
   -0.649991   30.36382  0.6227E-14  0.1574E-04  0.4835E-07  0.1529E-02  0.2409E-03  0.3148E+01
   -0.699992   30.36451  0.6227E-14  0.1589E-04  0.4750E-07  0.1588E-02  0.2270E-03  0.3209E+01
   -0.749993   30.36515  0.6227E-14  0.1602E-04  0.4679E-07  0.1639E-02  0.2142E-03  0.3317E+01
   -0.799995   30.36577  0.6227E-14  0.1613E-04  0.4620E-07  0.1682E-02  0.2022E-03  0.3444E+01
   -0.849996   30.36637  0.6227E-14  0.1621E-04  0.4572E-07  0.1718E-02  0.1910E-03  0.3624E+01
   -0.899998   30.36694  0.6227E-14  0.1627E-04  0.4534E-07  0.1745E-02  0.1806E-03  0.3828E+01
   -0.949999   30.36750  0.6227E-14  0.1630E-04  0.4507E-07  0.1764E-02  0.1707E-03  0.4100E+01
   -1.000001   30.36805  0.6227E-14  0.1631E-04  0.4490E-07  0.1774E-02  0.1613E-03  0.4409E+01
   -1.050003   30.36859  0.6227E-14  0.1630E-04  0.4483E-07  0.1775E-02  0.1524E-03  0.4995E+01
   -1.100005   30.36913  0.6227E-14  0.1627E-04  0.4489E-07  0.1866E-02  0.1439E-03  0.1647E+02
   -1.150006   30.36963  0.6227E-14  0.1622E-04  0.4508E-07  0.1686E-02  0.1364E-03  0.3750E+02
   -1.200008   30.37019  0.6227E-14  0.1614E-04  0.4540E-07  0.1715E-02  0.1285E-03  0.7189E+01
   -1.250009   30.37073  0.6227E-14  0.1603E-04  0.4591E-07  0.1684E-02  0.1210E-03  0.7629E+01
   -1.300011   30.37128  0.6227E-14  0.1589E-04  0.4663E-07  0.1634E-02  0.1138E-03  0.8927E+01
   -1.350012   30.37184  0.6227E-14  0.1573E-04  0.4762E-07  0.1574E-02  0.1068E-03  0.1065E+02
   -1.400013   30.37242  0.6227E-14  0.1552E-04  0.4897E-07  0.1496E-02  0.9991E-04  0.1316E+02
   -1.450014   30.37303  0.6227E-14  0.1527E-04  0.5082E-07  0.1417E-02  0.9319E-04  0.1675E+02
   -1.500014   30.37367  0.6227E-14  0.1497E-04  0.5341E-07  0.1304E-02  0.8657E-04  0.2277E+02
   -1.550015   30.37437  0.6227E-14  0.1460E-04  0.5710E-07  0.1220E-02  0.7993E-04  0.3276E+02
   -1.600015   30.37513  0.6227E-14  0.1414E-04  0.6280E-07  0.1072E-02  0.7340E-04  0.9179E+02
   -1.650014   30.37607  0.6227E-14  0.1355E-04  0.7166E-07  0.9965E-03  0.6635E-04 -0.6800E+02
   -1.700014   30.37712  0.6227E-14  0.1275E-04  0.8751E-07  0.8069E-03  0.5949E-04  0.3112E+05
   -1.750013   30.37898  0.6227E-14  0.1169E-04  0.1135E-06  0.7343E-03  0.5031E-04  0.5412E+05
   -1.800012   30.38051  0.6227E-14  0.1027E-04  0.1693E-06  0.5035E-03  0.4326E-04  0.6298E+04
   -1.850010   30.38699  0.6227E-14  0.8701E-05  0.2729E-06  0.4720E-03  0.3073E-04  0.3693E+08
   -1.900008   30.38550  0.6227E-14  0.6907E-05  0.5687E-06  0.2132E-03  0.2517E-04 -0.6600E+04
   -1.950005   30.40515  0.6227E-14  0.4834E-05  0.1417E-05  0.1935E-03  0.1349E-04 -0.7736E+06
   -2.000002   30.40640  0.6227E-14  0.0000E+00  0.0000E+00  0.0000E+00  0.2507E-04  0.0000E+00
