 1 - depth, m
 2 - temperature, C
 3 - salinity, kg/kg
 4 - turbulent kinetic energy, m**2/s**2
 5 - dissipation rate, m**2/s**3
 6 - kinematic heat conductance, m**2/s
 7 - modulus of horizontal velocity, m/s
 8 - Richardson number, n/d
   -0.000000   30.28136  0.5678E-14  0.4623E-05  0.2861E-06  0.5041E-04  0.9773E-03  0.2473E+04
   -0.049997   30.31047  0.5678E-14  0.8028E-05  0.1269E-06  0.1711E-03  0.5637E-03  0.2322E+02
   -0.099994   30.32248  0.5678E-14  0.9769E-05  0.8690E-07  0.4046E-03  0.4057E-03  0.4958E+02
   -0.149992   30.32556  0.5678E-14  0.1084E-04  0.7322E-07  0.4766E-03  0.3592E-03  0.2398E+02
   -0.199991   30.32807  0.5678E-14  0.1166E-04  0.6514E-07  0.6380E-03  0.3207E-03  0.1551E+02
   -0.249989   30.32989  0.5678E-14  0.1232E-04  0.5982E-07  0.7615E-03  0.2919E-03  0.1149E+02
   -0.299988   30.33138  0.5678E-14  0.1286E-04  0.5601E-07  0.8844E-03  0.2680E-03  0.9159E+01
   -0.349988   30.33262  0.5678E-14  0.1330E-04  0.5315E-07  0.9957E-03  0.2474E-03  0.7845E+01
   -0.399988   30.33370  0.5678E-14  0.1367E-04  0.5091E-07  0.1097E-02  0.2292E-03  0.6995E+01
   -0.449988   30.33465  0.5678E-14  0.1399E-04  0.4909E-07  0.1192E-02  0.2132E-03  0.6575E+01
   -0.499988   30.33552  0.5678E-14  0.1427E-04  0.4758E-07  0.1278E-02  0.1991E-03  0.6398E+01
   -0.549989   30.33631  0.5678E-14  0.1451E-04  0.4631E-07  0.1358E-02  0.1864E-03  0.6319E+01
   -0.599990   30.33704  0.5678E-14  0.1471E-04  0.4523E-07  0.1429E-02  0.1749E-03  0.6322E+01
   -0.649991   30.33772  0.5678E-14  0.1488E-04  0.4432E-07  0.1494E-02  0.1644E-03  0.6405E+01
   -0.699992   30.33836  0.5678E-14  0.1503E-04  0.4355E-07  0.1551E-02  0.1548E-03  0.6548E+01
   -0.749993   30.33897  0.5678E-14  0.1515E-04  0.4289E-07  0.1600E-02  0.1459E-03  0.6768E+01
   -0.799995   30.33955  0.5678E-14  0.1525E-04  0.4235E-07  0.1642E-02  0.1376E-03  0.7046E+01
   -0.849996   30.34011  0.5678E-14  0.1532E-04  0.4190E-07  0.1676E-02  0.1299E-03  0.7413E+01
   -0.899998   30.34065  0.5678E-14  0.1537E-04  0.4155E-07  0.1703E-02  0.1227E-03  0.7852E+01
   -0.950000   30.34118  0.5678E-14  0.1541E-04  0.4129E-07  0.1721E-02  0.1159E-03  0.8409E+01
   -1.000001   30.34170  0.5678E-14  0.1542E-04  0.4113E-07  0.1732E-02  0.1094E-03  0.9068E+01
   -1.050003   30.34221  0.5678E-14  0.1541E-04  0.4106E-07  0.1733E-02  0.1033E-03  0.1028E+02
   -1.100005   30.34271  0.5678E-14  0.1538E-04  0.4110E-07  0.1819E-02  0.9746E-04  0.3399E+02
   -1.150006   30.34318  0.5678E-14  0.1532E-04  0.4126E-07  0.1649E-02  0.9226E-04  0.7739E+02
   -1.200008   30.34370  0.5678E-14  0.1525E-04  0.4154E-07  0.1675E-02  0.8686E-04  0.1485E+02
   -1.250009   30.34421  0.5678E-14  0.1514E-04  0.4199E-07  0.1645E-02  0.8171E-04  0.1579E+02
   -1.300011   30.34472  0.5678E-14  0.1502E-04  0.4262E-07  0.1596E-02  0.7675E-04  0.1848E+02
   -1.350012   30.34525  0.5678E-14  0.1486E-04  0.4351E-07  0.1538E-02  0.7194E-04  0.2208E+02
   -1.400013   30.34579  0.5678E-14  0.1466E-04  0.4471E-07  0.1462E-02  0.6725E-04  0.2730E+02
   -1.450014   30.34636  0.5678E-14  0.1443E-04  0.4636E-07  0.1386E-02  0.6266E-04  0.3472E+02
   -1.500014   30.34696  0.5678E-14  0.1414E-04  0.4865E-07  0.1275E-02  0.5815E-04  0.4719E+02
   -1.550015   30.34761  0.5678E-14  0.1380E-04  0.5191E-07  0.1192E-02  0.5363E-04  0.6698E+02
   -1.600015   30.34831  0.5678E-14  0.1337E-04  0.5694E-07  0.1050E-02  0.4921E-04  0.1312E+03
   -1.650015   30.34917  0.5678E-14  0.1282E-04  0.6472E-07  0.9702E-03  0.4446E-04  0.5640E+04
   -1.700014   30.35012  0.5678E-14  0.1208E-04  0.7874E-07  0.7940E-03  0.3987E-04  0.2114E+04
   -1.750013   30.35183  0.5678E-14  0.1107E-04  0.1022E-06  0.7118E-03  0.3374E-04  0.2096E+06
   -1.800012   30.35330  0.5678E-14  0.9703E-05  0.1520E-06  0.4982E-03  0.2881E-04  0.1701E+06
   -1.850010   30.35896  0.5678E-14  0.8187E-05  0.2437E-06  0.4484E-03  0.2059E-04  0.7817E+08
   -1.900008   30.35796  0.5678E-14  0.6403E-05  0.5126E-06  0.2009E-03  0.1659E-04 -0.1883E+06
   -1.950006   30.37609  0.5678E-14  0.4487E-05  0.1273E-05  0.1886E-03  0.8770E-05 -0.3495E+07
   -2.000003   30.37733  0.5678E-14  0.0000E+00  0.0000E+00  0.0000E+00  0.1650E-04  0.0000E+00
