 1 - depth, m
 2 - temperature, C
 3 - salinity, kg/kg
 4 - turbulent kinetic energy, m**2/s**2
 5 - dissipation rate, m**2/s**3
 6 - kinematic heat conductance, m**2/s
 7 - modulus of horizontal velocity, m/s
 8 - Richardson number, n/d
   -0.000000   30.56273  0.3507E-14  0.4838E-05  0.3001E-06  0.5001E-04  0.1340E-02  0.1036E+05
   -0.049997   30.59366  0.3507E-14  0.8321E-05  0.1340E-06  0.1798E-03  0.7593E-03  0.7117E+02
   -0.099994   30.60526  0.3507E-14  0.1009E-04  0.9264E-07  0.3988E-03  0.5595E-03  0.2630E+02
   -0.149992   30.60853  0.3507E-14  0.1120E-04  0.7776E-07  0.4819E-03  0.4940E-03  0.1293E+02
   -0.199991   30.61112  0.3507E-14  0.1206E-04  0.6905E-07  0.6434E-03  0.4412E-03  0.8291E+01
   -0.249989   30.61301  0.3507E-14  0.1275E-04  0.6334E-07  0.7692E-03  0.4017E-03  0.6121E+01
   -0.299988   30.61454  0.3507E-14  0.1331E-04  0.5927E-07  0.8945E-03  0.3688E-03  0.4867E+01
   -0.349988   30.61582  0.3507E-14  0.1377E-04  0.5622E-07  0.1008E-02  0.3406E-03  0.4163E+01
   -0.399988   30.61693  0.3507E-14  0.1416E-04  0.5384E-07  0.1112E-02  0.3157E-03  0.3707E+01
   -0.449988   30.61792  0.3507E-14  0.1449E-04  0.5191E-07  0.1208E-02  0.2938E-03  0.3481E+01
   -0.499988   30.61881  0.3507E-14  0.1478E-04  0.5031E-07  0.1296E-02  0.2745E-03  0.3384E+01
   -0.549989   30.61962  0.3507E-14  0.1503E-04  0.4897E-07  0.1377E-02  0.2571E-03  0.3340E+01
   -0.599989   30.62038  0.3507E-14  0.1525E-04  0.4784E-07  0.1451E-02  0.2414E-03  0.3338E+01
   -0.649991   30.62108  0.3507E-14  0.1543E-04  0.4688E-07  0.1516E-02  0.2271E-03  0.3382E+01
   -0.699992   30.62174  0.3507E-14  0.1558E-04  0.4607E-07  0.1575E-02  0.2139E-03  0.3455E+01
   -0.749993   30.62237  0.3507E-14  0.1571E-04  0.4540E-07  0.1625E-02  0.2017E-03  0.3570E+01
   -0.799995   30.62297  0.3507E-14  0.1582E-04  0.4483E-07  0.1668E-02  0.1904E-03  0.3716E+01
   -0.849996   30.62355  0.3507E-14  0.1590E-04  0.4438E-07  0.1703E-02  0.1798E-03  0.3910E+01
   -0.899998   30.62411  0.3507E-14  0.1595E-04  0.4402E-07  0.1730E-02  0.1699E-03  0.4141E+01
   -0.949999   30.62466  0.3507E-14  0.1599E-04  0.4377E-07  0.1748E-02  0.1606E-03  0.4439E+01
   -1.000001   30.62519  0.3507E-14  0.1601E-04  0.4362E-07  0.1759E-02  0.1517E-03  0.4786E+01
   -1.050003   30.62572  0.3507E-14  0.1600E-04  0.4357E-07  0.1759E-02  0.1433E-03  0.5431E+01
   -1.100005   30.62624  0.3507E-14  0.1597E-04  0.4364E-07  0.1848E-02  0.1353E-03  0.1790E+02
   -1.150006   30.62673  0.3507E-14  0.1592E-04  0.4384E-07  0.1672E-02  0.1282E-03  0.4118E+02
   -1.200008   30.62727  0.3507E-14  0.1584E-04  0.4417E-07  0.1700E-02  0.1207E-03  0.7871E+01
   -1.250009   30.62780  0.3507E-14  0.1574E-04  0.4468E-07  0.1669E-02  0.1136E-03  0.8380E+01
   -1.300011   30.62834  0.3507E-14  0.1561E-04  0.4539E-07  0.1619E-02  0.1068E-03  0.9836E+01
   -1.350012   30.62889  0.3507E-14  0.1545E-04  0.4638E-07  0.1560E-02  0.1002E-03  0.1179E+02
   -1.400013   30.62946  0.3507E-14  0.1525E-04  0.4772E-07  0.1481E-02  0.9372E-04  0.1464E+02
   -1.450014   30.63005  0.3507E-14  0.1500E-04  0.4954E-07  0.1404E-02  0.8737E-04  0.1874E+02
   -1.500014   30.63069  0.3507E-14  0.1471E-04  0.5210E-07  0.1291E-02  0.8114E-04  0.2574E+02
   -1.550015   30.63138  0.3507E-14  0.1435E-04  0.5572E-07  0.1207E-02  0.7487E-04  0.3701E+02
   -1.600015   30.63213  0.3507E-14  0.1390E-04  0.6133E-07  0.1063E-02  0.6873E-04  0.7485E+02
   -1.650014   30.63306  0.3507E-14  0.1332E-04  0.7004E-07  0.9805E-03  0.6210E-04  0.6925E+03
   -1.700014   30.63409  0.3507E-14  0.1252E-04  0.8561E-07  0.8015E-03  0.5564E-04  0.7863E+04
   -1.750013   30.63599  0.3507E-14  0.1148E-04  0.1113E-06  0.7242E-03  0.4698E-04  0.2537E+06
   -1.800012   30.63749  0.3507E-14  0.1009E-04  0.1676E-06  0.4982E-03  0.4035E-04  0.1750E+06
   -1.850010   30.64405  0.3507E-14  0.8557E-05  0.2709E-06  0.4628E-03  0.2876E-04  0.3988E+08
   -1.900008   30.64242  0.3507E-14  0.6774E-05  0.5673E-06  0.2106E-03  0.2346E-04 -0.1358E+06
   -1.950005   30.66191  0.3507E-14  0.4741E-05  0.1404E-05  0.1930E-03  0.1259E-04 -0.6890E+06
   -2.000002   30.66349  0.3507E-14  0.0000E+00  0.0000E+00  0.0000E+00  0.2332E-04  0.0000E+00
