 1 - depth, m
 2 - temperature, C
 3 - salinity, kg/kg
 4 - turbulent kinetic energy, m**2/s**2
 5 - dissipation rate, m**2/s**3
 6 - kinematic heat conductance, m**2/s
 7 - modulus of horizontal velocity, m/s
 8 - Richardson number, n/d
   -0.000000   30.51647  0.5773E-13  0.4609E-05  0.2852E-06  0.5023E-04  0.8682E-03  0.8170E+04
   -0.049997   30.54533  0.5773E-13  0.8034E-05  0.1264E-06  0.1725E-03  0.4988E-03  0.2816E+02
   -0.099994   30.55706  0.5773E-13  0.9777E-05  0.8665E-07  0.4069E-03  0.3592E-03  0.6063E+02
   -0.149992   30.56007  0.5773E-13  0.1085E-04  0.7306E-07  0.4793E-03  0.3181E-03  0.2941E+02
   -0.199991   30.56253  0.5773E-13  0.1168E-04  0.6504E-07  0.6419E-03  0.2841E-03  0.1904E+02
   -0.249989   30.56431  0.5773E-13  0.1235E-04  0.5977E-07  0.7661E-03  0.2586E-03  0.1412E+02
   -0.299988   30.56577  0.5773E-13  0.1289E-04  0.5601E-07  0.8898E-03  0.2375E-03  0.1127E+02
   -0.349988   30.56699  0.5773E-13  0.1334E-04  0.5319E-07  0.1002E-02  0.2193E-03  0.9663E+01
   -0.399988   30.56805  0.5773E-13  0.1372E-04  0.5100E-07  0.1104E-02  0.2033E-03  0.8623E+01
   -0.449988   30.56899  0.5773E-13  0.1405E-04  0.4922E-07  0.1199E-02  0.1891E-03  0.8104E+01
   -0.499988   30.56984  0.5773E-13  0.1434E-04  0.4775E-07  0.1287E-02  0.1766E-03  0.7888E+01
   -0.549989   30.57061  0.5773E-13  0.1458E-04  0.4653E-07  0.1367E-02  0.1654E-03  0.7790E+01
   -0.599990   30.57133  0.5773E-13  0.1480E-04  0.4550E-07  0.1439E-02  0.1552E-03  0.7800E+01
   -0.649991   30.57201  0.5773E-13  0.1498E-04  0.4464E-07  0.1504E-02  0.1460E-03  0.7907E+01
   -0.699992   30.57264  0.5773E-13  0.1514E-04  0.4391E-07  0.1561E-02  0.1375E-03  0.8095E+01
   -0.749993   30.57324  0.5773E-13  0.1527E-04  0.4331E-07  0.1611E-02  0.1296E-03  0.8373E+01
   -0.799995   30.57382  0.5773E-13  0.1538E-04  0.4282E-07  0.1653E-02  0.1223E-03  0.8737E+01
   -0.849996   30.57438  0.5773E-13  0.1547E-04  0.4243E-07  0.1688E-02  0.1155E-03  0.9203E+01
   -0.899998   30.57492  0.5773E-13  0.1553E-04  0.4215E-07  0.1714E-02  0.1091E-03  0.9775E+01
   -0.949999   30.57545  0.5773E-13  0.1558E-04  0.4195E-07  0.1732E-02  0.1031E-03  0.1048E+02
   -1.000001   30.57596  0.5773E-13  0.1560E-04  0.4186E-07  0.1743E-02  0.9736E-04  0.1134E+02
   -1.050003   30.57648  0.5773E-13  0.1561E-04  0.4187E-07  0.1743E-02  0.9195E-04  0.1289E+02
   -1.100005   30.57698  0.5773E-13  0.1559E-04  0.4198E-07  0.1830E-02  0.8678E-04  0.4274E+02
   -1.150006   30.57746  0.5773E-13  0.1555E-04  0.4223E-07  0.1660E-02  0.8217E-04  0.9761E+02
   -1.200008   30.57799  0.5773E-13  0.1549E-04  0.4260E-07  0.1685E-02  0.7739E-04  0.1875E+02
   -1.250009   30.57851  0.5773E-13  0.1540E-04  0.4315E-07  0.1654E-02  0.7281E-04  0.2007E+02
   -1.300011   30.57904  0.5773E-13  0.1528E-04  0.4390E-07  0.1605E-02  0.6841E-04  0.2354E+02
   -1.350012   30.57958  0.5773E-13  0.1514E-04  0.4490E-07  0.1546E-02  0.6414E-04  0.2832E+02
   -1.400013   30.58014  0.5773E-13  0.1495E-04  0.4625E-07  0.1469E-02  0.5998E-04  0.3510E+02
   -1.450014   30.58073  0.5773E-13  0.1473E-04  0.4807E-07  0.1392E-02  0.5590E-04  0.4501E+02
   -1.500014   30.58136  0.5773E-13  0.1445E-04  0.5058E-07  0.1280E-02  0.5189E-04  0.6143E+02
   -1.550015   30.58205  0.5773E-13  0.1411E-04  0.5412E-07  0.1197E-02  0.4786E-04  0.8824E+02
   -1.600015   30.58280  0.5773E-13  0.1369E-04  0.5953E-07  0.1053E-02  0.4392E-04  0.1867E+03
   -1.650014   30.58371  0.5773E-13  0.1314E-04  0.6789E-07  0.9765E-03  0.3967E-04  0.7530E+03
   -1.700014   30.58474  0.5773E-13  0.1238E-04  0.8287E-07  0.7943E-03  0.3555E-04 -0.1195E+04
   -1.750013   30.58659  0.5773E-13  0.1137E-04  0.1076E-06  0.7163E-03  0.3004E-04  0.5504E+06
   -1.800012   30.58819  0.5773E-13  0.1001E-04  0.1604E-06  0.4986E-03  0.2572E-04  0.1679E+05
   -1.850010   30.59448  0.5773E-13  0.8498E-05  0.2583E-06  0.4608E-03  0.1835E-04  0.1959E+09
   -1.900008   30.59324  0.5773E-13  0.6757E-05  0.5423E-06  0.2112E-03  0.1492E-04 -0.3364E+06
   -1.950005   30.61271  0.5773E-13  0.4739E-05  0.1349E-05  0.1877E-03  0.8035E-05 -0.1857E+07
   -2.000002   30.61477  0.5773E-13  0.0000E+00  0.0000E+00  0.0000E+00  0.1481E-04  0.0000E+00
