 1 - depth, m
 2 - temperature, C
 3 - salinity, kg/kg
 4 - turbulent kinetic energy, m**2/s**2
 5 - dissipation rate, m**2/s**3
 6 - kinematic heat conductance, m**2/s
 7 - modulus of horizontal velocity, m/s
 8 - Richardson number, n/d
   -0.000000   30.51455  0.2484E-14  0.4676E-05  0.2895E-06  0.4989E-04  0.7266E-03  0.1965E+05
   -0.049997   30.54446  0.2484E-14  0.8193E-05  0.1283E-06  0.1770E-03  0.4147E-03  0.5587E+02
   -0.099994   30.55602  0.2484E-14  0.9947E-05  0.8839E-07  0.4108E-03  0.2998E-03  0.9742E+02
   -0.149992   30.55909  0.2484E-14  0.1103E-04  0.7460E-07  0.4846E-03  0.2655E-03  0.4776E+02
   -0.199991   30.56158  0.2484E-14  0.1187E-04  0.6644E-07  0.6481E-03  0.2372E-03  0.3111E+02
   -0.249989   30.56340  0.2484E-14  0.1255E-04  0.6107E-07  0.7732E-03  0.2160E-03  0.2320E+02
   -0.299988   30.56487  0.2484E-14  0.1309E-04  0.5723E-07  0.8977E-03  0.1984E-03  0.1850E+02
   -0.349988   30.56611  0.2484E-14  0.1355E-04  0.5434E-07  0.1011E-02  0.1833E-03  0.1592E+02
   -0.399988   30.56719  0.2484E-14  0.1393E-04  0.5209E-07  0.1114E-02  0.1699E-03  0.1416E+02
   -0.449988   30.56815  0.2484E-14  0.1426E-04  0.5026E-07  0.1209E-02  0.1581E-03  0.1337E+02
   -0.499988   30.56901  0.2484E-14  0.1455E-04  0.4875E-07  0.1297E-02  0.1477E-03  0.1296E+02
   -0.549989   30.56980  0.2484E-14  0.1480E-04  0.4748E-07  0.1378E-02  0.1383E-03  0.1285E+02
   -0.599990   30.57053  0.2484E-14  0.1501E-04  0.4641E-07  0.1450E-02  0.1299E-03  0.1280E+02
   -0.649991   30.57121  0.2484E-14  0.1519E-04  0.4551E-07  0.1516E-02  0.1221E-03  0.1303E+02
   -0.699992   30.57186  0.2484E-14  0.1535E-04  0.4475E-07  0.1574E-02  0.1151E-03  0.1325E+02
   -0.749993   30.57247  0.2484E-14  0.1548E-04  0.4411E-07  0.1624E-02  0.1085E-03  0.1376E+02
   -0.799995   30.57306  0.2484E-14  0.1558E-04  0.4358E-07  0.1667E-02  0.1024E-03  0.1425E+02
   -0.849996   30.57362  0.2484E-14  0.1567E-04  0.4316E-07  0.1702E-02  0.9669E-04  0.1506E+02
   -0.899998   30.57417  0.2484E-14  0.1573E-04  0.4283E-07  0.1728E-02  0.9135E-04  0.1586E+02
   -0.950000   30.57470  0.2484E-14  0.1577E-04  0.4260E-07  0.1747E-02  0.8631E-04  0.1707E+02
   -1.000001   30.57522  0.2484E-14  0.1579E-04  0.4247E-07  0.1758E-02  0.8155E-04  0.1830E+02
   -1.050003   30.57573  0.2484E-14  0.1579E-04  0.4244E-07  0.1759E-02  0.7702E-04  0.2083E+02
   -1.100005   30.57624  0.2484E-14  0.1576E-04  0.4252E-07  0.1845E-02  0.7271E-04  0.6867E+02
   -1.150006   30.57672  0.2484E-14  0.1572E-04  0.4273E-07  0.1677E-02  0.6886E-04  0.1553E+03
   -1.200008   30.57725  0.2484E-14  0.1565E-04  0.4306E-07  0.1702E-02  0.6486E-04  0.2996E+02
   -1.250009   30.57777  0.2484E-14  0.1555E-04  0.4356E-07  0.1672E-02  0.6105E-04  0.3174E+02
   -1.300011   30.57829  0.2484E-14  0.1543E-04  0.4427E-07  0.1623E-02  0.5737E-04  0.3724E+02
   -1.350012   30.57883  0.2484E-14  0.1528E-04  0.4522E-07  0.1564E-02  0.5380E-04  0.4430E+02
   -1.400013   30.57939  0.2484E-14  0.1509E-04  0.4652E-07  0.1488E-02  0.5033E-04  0.5479E+02
   -1.450014   30.57997  0.2484E-14  0.1486E-04  0.4827E-07  0.1410E-02  0.4692E-04  0.6946E+02
   -1.500014   30.58058  0.2484E-14  0.1458E-04  0.5071E-07  0.1300E-02  0.4358E-04  0.9425E+02
   -1.550015   30.58126  0.2484E-14  0.1424E-04  0.5415E-07  0.1216E-02  0.4022E-04  0.1343E+03
   -1.600015   30.58199  0.2484E-14  0.1381E-04  0.5943E-07  0.1073E-02  0.3693E-04  0.2696E+03
   -1.650015   30.58288  0.2484E-14  0.1326E-04  0.6760E-07  0.9910E-03  0.3339E-04  0.6796E+03
   -1.700014   30.58387  0.2484E-14  0.1251E-04  0.8209E-07  0.8111E-03  0.2994E-04 -0.5980E+05
   -1.750013   30.58562  0.2484E-14  0.1152E-04  0.1060E-06  0.7339E-03  0.2541E-04  0.5240E+06
   -1.800012   30.58710  0.2484E-14  0.1017E-04  0.1577E-06  0.5080E-03  0.2184E-04  0.9672E+05
   -1.850010   30.59300  0.2484E-14  0.8664E-05  0.2527E-06  0.4718E-03  0.1570E-04  0.1774E+09
   -1.900008   30.59197  0.2484E-14  0.6880E-05  0.5269E-06  0.2139E-03  0.1280E-04 -0.5286E+06
   -1.950006   30.61045  0.2484E-14  0.4788E-05  0.1321E-05  0.1861E-03  0.6936E-05 -0.3539E+07
   -2.000003   30.61270  0.2484E-14  0.0000E+00  0.0000E+00  0.0000E+00  0.1253E-04  0.0000E+00
