 1 - depth, m
 2 - temperature, C
 3 - salinity, kg/kg
 4 - turbulent kinetic energy, m**2/s**2
 5 - dissipation rate, m**2/s**3
 6 - kinematic heat conductance, m**2/s
 7 - modulus of horizontal velocity, m/s
 8 - Richardson number, n/d
   -0.000000   30.10604  0.9548E-13  0.4780E-05  0.2947E-06  0.5054E-04  0.1882E-02  0.3183E+04
   -0.049997   30.13559  0.9548E-13  0.8096E-05  0.1313E-06  0.1725E-03  0.1081E-02  0.1113E+04
   -0.099994   30.14734  0.9548E-13  0.9824E-05  0.8977E-07  0.3939E-03  0.7876E-03  0.1352E+02
   -0.149992   30.15053  0.9548E-13  0.1090E-04  0.7522E-07  0.4728E-03  0.6954E-03  0.6576E+01
   -0.199991   30.15309  0.9548E-13  0.1174E-04  0.6671E-07  0.6325E-03  0.6204E-03  0.4209E+01
   -0.249989   30.15494  0.9548E-13  0.1241E-04  0.6113E-07  0.7564E-03  0.5643E-03  0.3102E+01
   -0.299988   30.15645  0.9548E-13  0.1295E-04  0.5717E-07  0.8800E-03  0.5177E-03  0.2464E+01
   -0.349988   30.15772  0.9548E-13  0.1340E-04  0.5420E-07  0.9921E-03  0.4778E-03  0.2108E+01
   -0.399988   30.15881  0.9548E-13  0.1378E-04  0.5189E-07  0.1095E-02  0.4425E-03  0.1876E+01
   -0.449988   30.15978  0.9548E-13  0.1411E-04  0.5001E-07  0.1190E-02  0.4115E-03  0.1762E+01
   -0.499988   30.16066  0.9548E-13  0.1439E-04  0.4847E-07  0.1278E-02  0.3841E-03  0.1712E+01
   -0.549989   30.16145  0.9548E-13  0.1464E-04  0.4717E-07  0.1358E-02  0.3596E-03  0.1691E+01
   -0.599989   30.16219  0.9548E-13  0.1485E-04  0.4609E-07  0.1430E-02  0.3374E-03  0.1691E+01
   -0.649991   30.16288  0.9548E-13  0.1503E-04  0.4517E-07  0.1496E-02  0.3172E-03  0.1714E+01
   -0.699992   30.16353  0.9548E-13  0.1519E-04  0.4440E-07  0.1553E-02  0.2986E-03  0.1752E+01
   -0.749993   30.16415  0.9548E-13  0.1532E-04  0.4376E-07  0.1604E-02  0.2815E-03  0.1814E+01
   -0.799995   30.16474  0.9548E-13  0.1542E-04  0.4323E-07  0.1646E-02  0.2656E-03  0.1889E+01
   -0.849996   30.16531  0.9548E-13  0.1551E-04  0.4280E-07  0.1681E-02  0.2507E-03  0.1991E+01
   -0.899998   30.16586  0.9548E-13  0.1557E-04  0.4248E-07  0.1708E-02  0.2367E-03  0.2111E+01
   -0.949999   30.16640  0.9548E-13  0.1561E-04  0.4225E-07  0.1727E-02  0.2236E-03  0.2265E+01
   -1.000001   30.16693  0.9548E-13  0.1563E-04  0.4213E-07  0.1738E-02  0.2112E-03  0.2445E+01
   -1.050003   30.16745  0.9548E-13  0.1563E-04  0.4211E-07  0.1739E-02  0.1994E-03  0.2780E+01
   -1.100005   30.16797  0.9548E-13  0.1561E-04  0.4219E-07  0.1824E-02  0.1881E-03  0.9219E+01
   -1.150006   30.16845  0.9548E-13  0.1557E-04  0.4241E-07  0.1659E-02  0.1781E-03  0.2093E+02
   -1.200008   30.16899  0.9548E-13  0.1550E-04  0.4276E-07  0.1682E-02  0.1677E-03  0.4032E+01
   -1.250009   30.16951  0.9548E-13  0.1541E-04  0.4327E-07  0.1652E-02  0.1578E-03  0.4301E+01
   -1.300011   30.17005  0.9548E-13  0.1529E-04  0.4399E-07  0.1603E-02  0.1482E-03  0.5048E+01
   -1.350012   30.17059  0.9548E-13  0.1514E-04  0.4496E-07  0.1545E-02  0.1390E-03  0.6046E+01
   -1.400013   30.17116  0.9548E-13  0.1496E-04  0.4627E-07  0.1468E-02  0.1299E-03  0.7493E+01
   -1.450014   30.17176  0.9548E-13  0.1473E-04  0.4805E-07  0.1393E-02  0.1211E-03  0.9554E+01
   -1.500014   30.17239  0.9548E-13  0.1445E-04  0.5052E-07  0.1280E-02  0.1124E-03  0.1303E+02
   -1.550015   30.17308  0.9548E-13  0.1411E-04  0.5399E-07  0.1200E-02  0.1036E-03  0.1853E+02
   -1.600015   30.17383  0.9548E-13  0.1369E-04  0.5934E-07  0.1055E-02  0.9512E-04  0.3551E+02
   -1.650014   30.17475  0.9548E-13  0.1314E-04  0.6757E-07  0.9787E-03  0.8589E-04  0.6141E+04
   -1.700014   30.17576  0.9548E-13  0.1238E-04  0.8239E-07  0.7957E-03  0.7702E-04  0.1933E+05
   -1.750013   30.17764  0.9548E-13  0.1136E-04  0.1069E-06  0.7208E-03  0.6492E-04  0.5307E+05
   -1.800012   30.17915  0.9548E-13  0.1001E-04  0.1595E-06  0.5031E-03  0.5569E-04  0.4759E+05
   -1.850010   30.18537  0.9548E-13  0.8507E-05  0.2566E-06  0.4609E-03  0.3973E-04  0.3693E+08
   -1.900008   30.18415  0.9548E-13  0.6732E-05  0.5367E-06  0.2076E-03  0.3233E-04 -0.5775E+05
   -1.950005   30.20362  0.9548E-13  0.4717E-05  0.1344E-05  0.1876E-03  0.1730E-04 -0.1996E+06
   -2.000002   30.20666  0.9548E-13  0.0000E+00  0.0000E+00  0.0000E+00  0.3209E-04  0.0000E+00
