 1 - depth, m
 2 - temperature, C
 3 - salinity, kg/kg
 4 - turbulent kinetic energy, m**2/s**2
 5 - dissipation rate, m**2/s**3
 6 - kinematic heat conductance, m**2/s
 7 - modulus of horizontal velocity, m/s
 8 - Richardson number, n/d
   -0.000000   30.08934  0.1052E-12  0.4326E-05  0.2543E-06  0.4831E-04  0.1325E-02  0.1782E+05
   -0.049997   30.11607  0.1052E-12  0.7473E-05  0.1131E-06  0.1681E-03  0.7553E-03  0.1010E+04
   -0.099994   30.12666  0.1052E-12  0.9079E-05  0.7768E-07  0.3892E-03  0.5464E-03  0.2564E+02
   -0.149992   30.12948  0.1052E-12  0.1007E-04  0.6539E-07  0.4655E-03  0.4823E-03  0.1235E+02
   -0.199991   30.13174  0.1052E-12  0.1085E-04  0.5817E-07  0.6207E-03  0.4301E-03  0.7976E+01
   -0.249989   30.13339  0.1052E-12  0.1147E-04  0.5344E-07  0.7421E-03  0.3909E-03  0.5893E+01
   -0.299988   30.13473  0.1052E-12  0.1198E-04  0.5006E-07  0.8622E-03  0.3584E-03  0.4699E+01
   -0.349988   30.13586  0.1052E-12  0.1240E-04  0.4754E-07  0.9714E-03  0.3305E-03  0.4026E+01
   -0.399988   30.13684  0.1052E-12  0.1276E-04  0.4557E-07  0.1072E-02  0.3058E-03  0.3590E+01
   -0.449988   30.13771  0.1052E-12  0.1308E-04  0.4399E-07  0.1165E-02  0.2841E-03  0.3372E+01
   -0.499988   30.13850  0.1052E-12  0.1335E-04  0.4268E-07  0.1251E-02  0.2649E-03  0.3281E+01
   -0.549989   30.13921  0.1052E-12  0.1359E-04  0.4159E-07  0.1329E-02  0.2477E-03  0.3241E+01
   -0.599990   30.13987  0.1052E-12  0.1379E-04  0.4068E-07  0.1401E-02  0.2323E-03  0.3244E+01
   -0.649991   30.14049  0.1052E-12  0.1398E-04  0.3993E-07  0.1466E-02  0.2181E-03  0.3291E+01
   -0.699992   30.14108  0.1052E-12  0.1413E-04  0.3929E-07  0.1523E-02  0.2052E-03  0.3368E+01
   -0.749993   30.14164  0.1052E-12  0.1427E-04  0.3878E-07  0.1574E-02  0.1932E-03  0.3487E+01
   -0.799995   30.14217  0.1052E-12  0.1438E-04  0.3836E-07  0.1617E-02  0.1821E-03  0.3638E+01
   -0.849996   30.14268  0.1052E-12  0.1448E-04  0.3803E-07  0.1653E-02  0.1718E-03  0.3834E+01
   -0.899998   30.14318  0.1052E-12  0.1456E-04  0.3779E-07  0.1681E-02  0.1621E-03  0.4071E+01
   -0.950000   30.14367  0.1052E-12  0.1461E-04  0.3764E-07  0.1702E-02  0.1529E-03  0.4367E+01
   -1.000001   30.14414  0.1052E-12  0.1465E-04  0.3757E-07  0.1715E-02  0.1443E-03  0.4719E+01
   -1.050003   30.14462  0.1052E-12  0.1468E-04  0.3760E-07  0.1719E-02  0.1361E-03  0.5370E+01
   -1.100005   30.14509  0.1052E-12  0.1468E-04  0.3771E-07  0.1787E-02  0.1284E-03  0.1818E+02
   -1.150006   30.14554  0.1052E-12  0.1467E-04  0.3794E-07  0.1666E-02  0.1214E-03  0.3877E+02
   -1.200008   30.14602  0.1052E-12  0.1463E-04  0.3828E-07  0.1676E-02  0.1143E-03  0.7685E+01
   -1.250009   30.14650  0.1052E-12  0.1457E-04  0.3876E-07  0.1648E-02  0.1074E-03  0.8216E+01
   -1.300011   30.14698  0.1052E-12  0.1449E-04  0.3941E-07  0.1606E-02  0.1008E-03  0.9583E+01
   -1.350012   30.14748  0.1052E-12  0.1438E-04  0.4027E-07  0.1553E-02  0.9448E-04  0.1138E+02
   -1.400013   30.14800  0.1052E-12  0.1425E-04  0.4139E-07  0.1485E-02  0.8830E-04  0.1391E+02
   -1.450014   30.14854  0.1052E-12  0.1408E-04  0.4288E-07  0.1412E-02  0.8226E-04  0.1746E+02
   -1.500014   30.14912  0.1052E-12  0.1386E-04  0.4489E-07  0.1312E-02  0.7635E-04  0.2305E+02
   -1.550015   30.14974  0.1052E-12  0.1360E-04  0.4765E-07  0.1225E-02  0.7046E-04  0.3177E+02
   -1.600015   30.15042  0.1052E-12  0.1327E-04  0.5166E-07  0.1092E-02  0.6468E-04  0.5033E+02
   -1.650015   30.15120  0.1052E-12  0.1284E-04  0.5765E-07  0.1006E-02  0.5868E-04  0.1018E+03
   -1.700014   30.15207  0.1052E-12  0.1227E-04  0.6813E-07  0.8359E-03  0.5284E-04  0.2128E+05
   -1.750013   30.15346  0.1052E-12  0.1148E-04  0.8562E-07  0.7475E-03  0.4561E-04  0.6248E+05
   -1.800012   30.15487  0.1052E-12  0.1034E-04  0.1226E-06  0.5381E-03  0.3928E-04  0.8430E+07
   -1.850010   30.15916  0.1052E-12  0.8953E-05  0.1899E-06  0.4753E-03  0.2946E-04  0.2579E+08
   -1.900008   30.15956  0.1052E-12  0.7143E-05  0.3880E-06  0.2188E-03  0.2367E-04  0.1634E+06
   -1.950006   30.17554  0.1052E-12  0.4898E-05  0.1010E-05  0.1608E-03  0.1324E-04 -0.5771E+06
   -2.000003   30.17997  0.1052E-12  0.0000E+00  0.0000E+00  0.0000E+00  0.2176E-04  0.0000E+00
