 1 - depth, m
 2 - temperature, C
 3 - salinity, kg/kg
 4 - turbulent kinetic energy, m**2/s**2
 5 - dissipation rate, m**2/s**3
 6 - kinematic heat conductance, m**2/s
 7 - modulus of horizontal velocity, m/s
 8 - Richardson number, n/d
   -0.000000   30.90087  0.5150E-13  0.5202E-05  0.3409E-06  0.5218E-04  0.1110E-02  0.4618E+04
   -0.049997   30.93441  0.5150E-13  0.8958E-05  0.1514E-06  0.1851E-03  0.6333E-03  0.1160E+03
   -0.099994   30.94732  0.5150E-13  0.1088E-04  0.1041E-06  0.4160E-03  0.4646E-03  0.4234E+02
   -0.149992   30.95082  0.5150E-13  0.1208E-04  0.8736E-07  0.4964E-03  0.4112E-03  0.2085E+02
   -0.199990   30.95363  0.5150E-13  0.1301E-04  0.7754E-07  0.6660E-03  0.3677E-03  0.1336E+02
   -0.249989   30.95566  0.5150E-13  0.1375E-04  0.7113E-07  0.7946E-03  0.3352E-03  0.9907E+01
   -0.299988   30.95731  0.5150E-13  0.1435E-04  0.6656E-07  0.9248E-03  0.3082E-03  0.7880E+01
   -0.349988   30.95869  0.5150E-13  0.1485E-04  0.6314E-07  0.1042E-02  0.2850E-03  0.6757E+01
   -0.399987   30.95989  0.5150E-13  0.1527E-04  0.6048E-07  0.1149E-02  0.2646E-03  0.6010E+01
   -0.449987   30.96095  0.5150E-13  0.1563E-04  0.5832E-07  0.1248E-02  0.2466E-03  0.5652E+01
   -0.499988   30.96191  0.5150E-13  0.1594E-04  0.5654E-07  0.1339E-02  0.2306E-03  0.5479E+01
   -0.549988   30.96278  0.5150E-13  0.1621E-04  0.5505E-07  0.1422E-02  0.2163E-03  0.5419E+01
   -0.599989   30.96359  0.5150E-13  0.1644E-04  0.5380E-07  0.1497E-02  0.2033E-03  0.5402E+01
   -0.649990   30.96435  0.5150E-13  0.1663E-04  0.5274E-07  0.1564E-02  0.1915E-03  0.5487E+01
   -0.699991   30.96507  0.5150E-13  0.1680E-04  0.5185E-07  0.1624E-02  0.1806E-03  0.5592E+01
   -0.749992   30.96574  0.5150E-13  0.1694E-04  0.5112E-07  0.1675E-02  0.1705E-03  0.5800E+01
   -0.799994   30.96639  0.5150E-13  0.1705E-04  0.5051E-07  0.1718E-02  0.1612E-03  0.6024E+01
   -0.849995   30.96702  0.5150E-13  0.1713E-04  0.5003E-07  0.1752E-02  0.1524E-03  0.6367E+01
   -0.899997   30.96762  0.5150E-13  0.1719E-04  0.4967E-07  0.1778E-02  0.1442E-03  0.6733E+01
   -0.949998   30.96822  0.5150E-13  0.1723E-04  0.4942E-07  0.1795E-02  0.1364E-03  0.7253E+01
   -1.000000   30.96880  0.5150E-13  0.1725E-04  0.4930E-07  0.1805E-02  0.1290E-03  0.7815E+01
   -1.050002   30.96937  0.5150E-13  0.1724E-04  0.4929E-07  0.1802E-02  0.1220E-03  0.8912E+01
   -1.100003   30.96994  0.5150E-13  0.1720E-04  0.4943E-07  0.1906E-02  0.1153E-03  0.2899E+02
   -1.150005   30.97048  0.5150E-13  0.1714E-04  0.4973E-07  0.1693E-02  0.1094E-03  0.6912E+02
   -1.200007   30.97108  0.5150E-13  0.1706E-04  0.5018E-07  0.1731E-02  0.1031E-03  0.1311E+02
   -1.250008   30.97166  0.5150E-13  0.1694E-04  0.5085E-07  0.1699E-02  0.9714E-04  0.1396E+02
   -1.300009   30.97226  0.5150E-13  0.1679E-04  0.5178E-07  0.1643E-02  0.9138E-04  0.1655E+02
   -1.350010   30.97287  0.5150E-13  0.1661E-04  0.5304E-07  0.1579E-02  0.8580E-04  0.1993E+02
   -1.400011   30.97350  0.5150E-13  0.1638E-04  0.5476E-07  0.1495E-02  0.8032E-04  0.2511E+02
   -1.450012   30.97418  0.5150E-13  0.1610E-04  0.5711E-07  0.1413E-02  0.7494E-04  0.3245E+02
   -1.500013   30.97489  0.5150E-13  0.1576E-04  0.6041E-07  0.1295E-02  0.6961E-04  0.4558E+02
   -1.550013   30.97569  0.5150E-13  0.1534E-04  0.6516E-07  0.1210E-02  0.6425E-04  0.6879E+02
   -1.600013   30.97656  0.5150E-13  0.1482E-04  0.7261E-07  0.1065E-02  0.5894E-04  0.1542E+03
   -1.650013   30.97767  0.5150E-13  0.1413E-04  0.8429E-07  0.9788E-03  0.5315E-04  0.2934E+05
   -1.700012   30.97896  0.5150E-13  0.1318E-04  0.1050E-06  0.8009E-03  0.4726E-04  0.2257E+04
   -1.750011   30.98125  0.5150E-13  0.1199E-04  0.1383E-06  0.7164E-03  0.3959E-04  0.3666E+06
   -1.800010   30.98291  0.5150E-13  0.1045E-04  0.2117E-06  0.5020E-03  0.3393E-04  0.1933E+06
   -1.850008   30.99132  0.5150E-13  0.8840E-05  0.3484E-06  0.4614E-03  0.2354E-04  0.1079E+09
   -1.900006   30.98866  0.5150E-13  0.7018E-05  0.7354E-06  0.2172E-03  0.1932E-04 -0.2494E+08
   -1.950003   31.01247  0.5150E-13  0.5018E-05  0.1773E-05  0.2108E-03  0.1025E-04 -0.1212E+07
   -2.000000   31.01338  0.5150E-13  0.0000E+00  0.0000E+00  0.0000E+00  0.2013E-04  0.0000E+00
