 1 - depth, m
 2 - temperature, C
 3 - salinity, kg/kg
 4 - turbulent kinetic energy, m**2/s**2
 5 - dissipation rate, m**2/s**3
 6 - kinematic heat conductance, m**2/s
 7 - modulus of horizontal velocity, m/s
 8 - Richardson number, n/d
   -0.000000   30.28127  0.2633E-13  0.4959E-05  0.3144E-06  0.5184E-04  0.1860E-02  0.2998E+04
   -0.049997   30.31157  0.2633E-13  0.8406E-05  0.1400E-06  0.1754E-03  0.1072E-02  0.1370E+04
   -0.099994   30.32382  0.2633E-13  0.1022E-04  0.9556E-07  0.4023E-03  0.7805E-03  0.1373E+02
   -0.149992   30.32711  0.2633E-13  0.1135E-04  0.8002E-07  0.4811E-03  0.6897E-03  0.6724E+01
   -0.199991   30.32976  0.2633E-13  0.1224E-04  0.7095E-07  0.6460E-03  0.6156E-03  0.4296E+01
   -0.249989   30.33167  0.2633E-13  0.1294E-04  0.6504E-07  0.7725E-03  0.5604E-03  0.3169E+01
   -0.299988   30.33323  0.2633E-13  0.1352E-04  0.6084E-07  0.8997E-03  0.5145E-03  0.2518E+01
   -0.349988   30.33453  0.2633E-13  0.1399E-04  0.5770E-07  0.1015E-02  0.4753E-03  0.2154E+01
   -0.399988   30.33566  0.2633E-13  0.1440E-04  0.5527E-07  0.1120E-02  0.4406E-03  0.1918E+01
   -0.449988   30.33667  0.2633E-13  0.1475E-04  0.5330E-07  0.1218E-02  0.4101E-03  0.1801E+01
   -0.499988   30.33757  0.2633E-13  0.1505E-04  0.5168E-07  0.1308E-02  0.3831E-03  0.1749E+01
   -0.549989   30.33840  0.2633E-13  0.1531E-04  0.5033E-07  0.1390E-02  0.3590E-03  0.1727E+01
   -0.599989   30.33917  0.2633E-13  0.1554E-04  0.4919E-07  0.1465E-02  0.3371E-03  0.1726E+01
   -0.649990   30.33989  0.2633E-13  0.1573E-04  0.4824E-07  0.1532E-02  0.3172E-03  0.1749E+01
   -0.699992   30.34056  0.2633E-13  0.1590E-04  0.4744E-07  0.1592E-02  0.2989E-03  0.1787E+01
   -0.749993   30.34120  0.2633E-13  0.1604E-04  0.4677E-07  0.1643E-02  0.2820E-03  0.1849E+01
   -0.799994   30.34182  0.2633E-13  0.1615E-04  0.4623E-07  0.1687E-02  0.2663E-03  0.1924E+01
   -0.849996   30.34241  0.2633E-13  0.1625E-04  0.4580E-07  0.1723E-02  0.2516E-03  0.2028E+01
   -0.899998   30.34299  0.2633E-13  0.1632E-04  0.4547E-07  0.1751E-02  0.2378E-03  0.2147E+01
   -0.949999   30.34355  0.2633E-13  0.1636E-04  0.4525E-07  0.1770E-02  0.2248E-03  0.2304E+01
   -1.000001   30.34410  0.2633E-13  0.1639E-04  0.4513E-07  0.1781E-02  0.2125E-03  0.2484E+01
   -1.050003   30.34464  0.2633E-13  0.1639E-04  0.4513E-07  0.1783E-02  0.2008E-03  0.2822E+01
   -1.100004   30.34518  0.2633E-13  0.1638E-04  0.4524E-07  0.1870E-02  0.1896E-03  0.9349E+01
   -1.150006   30.34569  0.2633E-13  0.1633E-04  0.4549E-07  0.1699E-02  0.1797E-03  0.2111E+02
   -1.200008   30.34625  0.2633E-13  0.1627E-04  0.4587E-07  0.1725E-02  0.1694E-03  0.4079E+01
   -1.250009   30.34680  0.2633E-13  0.1618E-04  0.4644E-07  0.1694E-02  0.1595E-03  0.4346E+01
   -1.300010   30.34736  0.2633E-13  0.1605E-04  0.4723E-07  0.1645E-02  0.1500E-03  0.5098E+01
   -1.350012   30.34793  0.2633E-13  0.1590E-04  0.4829E-07  0.1585E-02  0.1407E-03  0.6097E+01
   -1.400013   30.34852  0.2633E-13  0.1571E-04  0.4972E-07  0.1508E-02  0.1317E-03  0.7550E+01
   -1.450013   30.34915  0.2633E-13  0.1548E-04  0.5165E-07  0.1429E-02  0.1229E-03  0.9623E+01
   -1.500014   30.34981  0.2633E-13  0.1519E-04  0.5431E-07  0.1317E-02  0.1142E-03  0.1311E+02
   -1.550014   30.35053  0.2633E-13  0.1483E-04  0.5808E-07  0.1232E-02  0.1055E-03  0.1888E+02
   -1.600014   30.35132  0.2633E-13  0.1439E-04  0.6382E-07  0.1086E-02  0.9688E-04  0.4085E+02
   -1.650014   30.35228  0.2633E-13  0.1382E-04  0.7267E-07  0.1006E-02  0.8770E-04  0.1549E+03
   -1.700014   30.35337  0.2633E-13  0.1304E-04  0.8835E-07  0.8195E-03  0.7865E-04  0.1142E+04
   -1.750013   30.35525  0.2633E-13  0.1201E-04  0.1140E-06  0.7429E-03  0.6685E-04  0.1950E+05
   -1.800011   30.35685  0.2633E-13  0.1062E-04  0.1693E-06  0.5141E-03  0.5753E-04  0.4733E+06
   -1.850010   30.36323  0.2633E-13  0.9066E-05  0.2712E-06  0.4772E-03  0.4147E-04  0.1940E+08
   -1.900008   30.36208  0.2633E-13  0.7203E-05  0.5574E-06  0.2137E-03  0.3386E-04  0.1345E+06
   -1.950005   30.38223  0.2633E-13  0.5047E-05  0.1402E-05  0.1895E-03  0.1837E-04 -0.4799E+06
   -2.000002   30.38490  0.2633E-13  0.0000E+00  0.0000E+00  0.0000E+00  0.3286E-04  0.0000E+00
