 1 - depth, m
 2 - temperature, C
 3 - salinity, kg/kg
 4 - turbulent kinetic energy, m**2/s**2
 5 - dissipation rate, m**2/s**3
 6 - kinematic heat conductance, m**2/s
 7 - modulus of horizontal velocity, m/s
 8 - Richardson number, n/d
   -0.000000   31.16004  0.2236E-14  0.5616E-05  0.3824E-06  0.5473E-04  0.1615E-02  0.5709E+04
   -0.049997   31.19575  0.2236E-14  0.9517E-05  0.1707E-06  0.1860E-03  0.9355E-03  0.2301E+04
   -0.099994   31.20995  0.2236E-14  0.1156E-04  0.1168E-06  0.4189E-03  0.6874E-03  0.2020E+02
   -0.149992   31.21382  0.2236E-14  0.1284E-04  0.9763E-07  0.4996E-03  0.6085E-03  0.9996E+01
   -0.199990   31.21691  0.2236E-14  0.1383E-04  0.8642E-07  0.6732E-03  0.5442E-03  0.6351E+01
   -0.249989   31.21914  0.2236E-14  0.1461E-04  0.7911E-07  0.8039E-03  0.4963E-03  0.4687E+01
   -0.299988   31.22094  0.2236E-14  0.1524E-04  0.7390E-07  0.9368E-03  0.4566E-03  0.3714E+01
   -0.349988   31.22245  0.2236E-14  0.1576E-04  0.6999E-07  0.1056E-02  0.4225E-03  0.3173E+01
   -0.399987   31.22376  0.2236E-14  0.1620E-04  0.6695E-07  0.1165E-02  0.3924E-03  0.2817E+01
   -0.449987   31.22491  0.2236E-14  0.1657E-04  0.6447E-07  0.1266E-02  0.3659E-03  0.2644E+01
   -0.499988   31.22595  0.2236E-14  0.1688E-04  0.6241E-07  0.1358E-02  0.3425E-03  0.2562E+01
   -0.549988   31.22690  0.2236E-14  0.1715E-04  0.6068E-07  0.1442E-02  0.3214E-03  0.2529E+01
   -0.599989   31.22778  0.2236E-14  0.1738E-04  0.5922E-07  0.1518E-02  0.3024E-03  0.2519E+01
   -0.649990   31.22860  0.2236E-14  0.1757E-04  0.5797E-07  0.1585E-02  0.2850E-03  0.2552E+01
   -0.699991   31.22937  0.2236E-14  0.1773E-04  0.5691E-07  0.1644E-02  0.2690E-03  0.2598E+01
   -0.749992   31.23010  0.2236E-14  0.1785E-04  0.5601E-07  0.1695E-02  0.2541E-03  0.2687E+01
   -0.799994   31.23080  0.2236E-14  0.1795E-04  0.5526E-07  0.1737E-02  0.2403E-03  0.2788E+01
   -0.849995   31.23147  0.2236E-14  0.1801E-04  0.5464E-07  0.1771E-02  0.2274E-03  0.2936E+01
   -0.899997   31.23212  0.2236E-14  0.1805E-04  0.5415E-07  0.1796E-02  0.2152E-03  0.3103E+01
   -0.949999   31.23276  0.2236E-14  0.1807E-04  0.5379E-07  0.1811E-02  0.2037E-03  0.3329E+01
   -1.000000   31.23338  0.2236E-14  0.1805E-04  0.5356E-07  0.1818E-02  0.1929E-03  0.3588E+01
   -1.050002   31.23399  0.2236E-14  0.1801E-04  0.5347E-07  0.1813E-02  0.1825E-03  0.4070E+01
   -1.100004   31.23459  0.2236E-14  0.1795E-04  0.5353E-07  0.1932E-02  0.1726E-03  0.1300E+02
   -1.150005   31.23515  0.2236E-14  0.1785E-04  0.5378E-07  0.1677E-02  0.1639E-03  0.3295E+02
   -1.200007   31.23580  0.2236E-14  0.1773E-04  0.5420E-07  0.1729E-02  0.1545E-03  0.6041E+01
   -1.250008   31.23641  0.2236E-14  0.1757E-04  0.5486E-07  0.1695E-02  0.1456E-03  0.6413E+01
   -1.300010   31.23704  0.2236E-14  0.1737E-04  0.5582E-07  0.1634E-02  0.1370E-03  0.7612E+01
   -1.350011   31.23768  0.2236E-14  0.1714E-04  0.5717E-07  0.1567E-02  0.1287E-03  0.9248E+01
   -1.400012   31.23834  0.2236E-14  0.1685E-04  0.5907E-07  0.1474E-02  0.1205E-03  0.1176E+02
   -1.450012   31.23905  0.2236E-14  0.1651E-04  0.6173E-07  0.1392E-02  0.1124E-03  0.1547E+02
   -1.500013   31.23980  0.2236E-14  0.1609E-04  0.6557E-07  0.1266E-02  0.1045E-03  0.2236E+02
   -1.550013   31.24065  0.2236E-14  0.1559E-04  0.7121E-07  0.1188E-02  0.9632E-04  0.3656E+02
   -1.600013   31.24157  0.2236E-14  0.1495E-04  0.8052E-07  0.1034E-02  0.8835E-04 -0.2172E+03
   -1.650013   31.24285  0.2236E-14  0.1411E-04  0.9525E-07  0.9542E-03  0.7912E-04  0.2434E+04
   -1.700012   31.24427  0.2236E-14  0.1296E-04  0.1221E-06  0.7636E-03  0.7006E-04  0.4955E+05
   -1.750012   31.24708  0.2236E-14  0.1161E-04  0.1642E-06  0.6946E-03  0.5734E-04  0.4984E+06
   -1.800010   31.24855  0.2236E-14  0.9978E-05  0.2540E-06  0.4675E-03  0.4935E-04  0.7726E+05
   -1.850008   31.25907  0.2236E-14  0.8364E-05  0.4298E-06  0.4493E-03  0.3289E-04  0.1578E+09
   -1.900006   31.25409  0.2236E-14  0.6633E-05  0.9143E-06  0.2102E-03  0.2744E-04 -0.3889E+06
   -1.950004   31.28006  0.2236E-14  0.4791E-05  0.2132E-05  0.2341E-03  0.1402E-04 -0.2326E+06
   -2.000001   31.27846  0.2236E-14  0.0000E+00  0.0000E+00  0.0000E+00  0.3028E-04  0.0000E+00
