 1 - depth, m
 2 - temperature, C
 3 - salinity, kg/kg
 4 - turbulent kinetic energy, m**2/s**2
 5 - dissipation rate, m**2/s**3
 6 - kinematic heat conductance, m**2/s
 7 - modulus of horizontal velocity, m/s
 8 - Richardson number, n/d
   -0.000000   30.36613  0.7083E-14  0.4829E-05  0.2999E-06  0.5096E-04  0.1909E-02  0.1121E+05
   -0.049997   30.39549  0.7084E-14  0.8180E-05  0.1335E-06  0.1732E-03  0.1099E-02  0.2719E+03
   -0.099994   30.40731  0.7084E-14  0.9934E-05  0.9124E-07  0.3967E-03  0.8003E-03  0.1298E+02
   -0.149992   30.41050  0.7084E-14  0.1103E-04  0.7644E-07  0.4754E-03  0.7068E-03  0.6319E+01
   -0.199991   30.41306  0.7084E-14  0.1188E-04  0.6779E-07  0.6367E-03  0.6308E-03  0.4043E+01
   -0.249989   30.41492  0.7084E-14  0.1256E-04  0.6213E-07  0.7615E-03  0.5740E-03  0.2975E+01
   -0.299988   30.41643  0.7084E-14  0.1311E-04  0.5810E-07  0.8863E-03  0.5267E-03  0.2365E+01
   -0.349988   30.41769  0.7084E-14  0.1357E-04  0.5509E-07  0.9994E-03  0.4863E-03  0.2018E+01
   -0.399988   30.41879  0.7084E-14  0.1395E-04  0.5274E-07  0.1103E-02  0.4505E-03  0.1798E+01
   -0.449988   30.41976  0.7084E-14  0.1429E-04  0.5084E-07  0.1199E-02  0.4191E-03  0.1685E+01
   -0.499988   30.42064  0.7084E-14  0.1458E-04  0.4926E-07  0.1288E-02  0.3913E-03  0.1640E+01
   -0.549989   30.42144  0.7084E-14  0.1482E-04  0.4794E-07  0.1369E-02  0.3665E-03  0.1615E+01
   -0.599990   30.42218  0.7084E-14  0.1504E-04  0.4684E-07  0.1443E-02  0.3440E-03  0.1617E+01
   -0.649991   30.42287  0.7084E-14  0.1522E-04  0.4590E-07  0.1509E-02  0.3235E-03  0.1634E+01
   -0.699992   30.42352  0.7084E-14  0.1538E-04  0.4510E-07  0.1567E-02  0.3046E-03  0.1672E+01
   -0.749993   30.42414  0.7084E-14  0.1551E-04  0.4444E-07  0.1619E-02  0.2872E-03  0.1724E+01
   -0.799995   30.42473  0.7084E-14  0.1562E-04  0.4389E-07  0.1662E-02  0.2711E-03  0.1797E+01
   -0.849996   30.42530  0.7084E-14  0.1570E-04  0.4344E-07  0.1698E-02  0.2560E-03  0.1885E+01
   -0.899998   30.42586  0.7084E-14  0.1577E-04  0.4310E-07  0.1726E-02  0.2418E-03  0.2000E+01
   -0.950000   30.42639  0.7084E-14  0.1581E-04  0.4285E-07  0.1746E-02  0.2285E-03  0.2134E+01
   -1.000001   30.42692  0.7084E-14  0.1583E-04  0.4270E-07  0.1757E-02  0.2158E-03  0.2305E+01
   -1.050003   30.42744  0.7084E-14  0.1583E-04  0.4265E-07  0.1760E-02  0.2039E-03  0.2605E+01
   -1.100005   30.42795  0.7084E-14  0.1581E-04  0.4270E-07  0.1842E-02  0.1925E-03  0.8690E+01
   -1.150006   30.42844  0.7084E-14  0.1576E-04  0.4289E-07  0.1684E-02  0.1823E-03  0.1937E+02
   -1.200008   30.42897  0.7084E-14  0.1570E-04  0.4320E-07  0.1706E-02  0.1717E-03  0.3738E+01
   -1.250009   30.42948  0.7084E-14  0.1560E-04  0.4368E-07  0.1677E-02  0.1616E-03  0.3986E+01
   -1.300011   30.43001  0.7084E-14  0.1548E-04  0.4435E-07  0.1629E-02  0.1519E-03  0.4643E+01
   -1.350012   30.43055  0.7084E-14  0.1533E-04  0.4528E-07  0.1571E-02  0.1425E-03  0.5549E+01
   -1.400013   30.43110  0.7084E-14  0.1515E-04  0.4653E-07  0.1497E-02  0.1333E-03  0.6813E+01
   -1.450014   30.43169  0.7084E-14  0.1492E-04  0.4822E-07  0.1420E-02  0.1243E-03  0.8656E+01
   -1.500014   30.43230  0.7084E-14  0.1465E-04  0.5057E-07  0.1312E-02  0.1155E-03  0.1164E+02
   -1.550015   30.43297  0.7084E-14  0.1431E-04  0.5388E-07  0.1224E-02  0.1067E-03  0.1647E+02
   -1.600015   30.43370  0.7084E-14  0.1390E-04  0.5887E-07  0.1084E-02  0.9798E-04  0.3014E+02
   -1.650015   30.43456  0.7084E-14  0.1337E-04  0.6656E-07  0.9984E-03  0.8879E-04  0.1056E+04
   -1.700014   30.43554  0.7084E-14  0.1264E-04  0.8022E-07  0.8224E-03  0.7973E-04 -0.9553E+02
   -1.750013   30.43721  0.7084E-14  0.1167E-04  0.1029E-06  0.7382E-03  0.6808E-04  0.5791E+05
   -1.800012   30.43873  0.7084E-14  0.1034E-04  0.1530E-06  0.5216E-03  0.5842E-04  0.1179E+05
   -1.850010   30.44424  0.7084E-14  0.8833E-05  0.2426E-06  0.4744E-03  0.4267E-04  0.3430E+07
   -1.900008   30.44361  0.7084E-14  0.6968E-05  0.5061E-06  0.2129E-03  0.3450E-04  0.2136E+05
   -1.950006   30.46149  0.7084E-14  0.4839E-05  0.1272E-05  0.1829E-03  0.1873E-04 -0.2222E+06
   -2.000002   30.46420  0.7084E-14  0.0000E+00  0.0000E+00  0.0000E+00  0.3339E-04  0.0000E+00
