 1 - depth, m
 2 - temperature, C
 3 - salinity, kg/kg
 4 - turbulent kinetic energy, m**2/s**2
 5 - dissipation rate, m**2/s**3
 6 - kinematic heat conductance, m**2/s
 7 - modulus of horizontal velocity, m/s
 8 - Richardson number, n/d
   -0.000000   30.44110  0.7812E-13  0.4771E-05  0.2947E-06  0.4978E-04  0.1238E-02  0.4589E+04
   -0.049997   30.47189  0.7812E-13  0.8219E-05  0.1312E-06  0.1774E-03  0.7033E-03  0.7569E+02
   -0.099994   30.48362  0.7812E-13  0.9961E-05  0.9046E-07  0.3993E-03  0.5149E-03  0.3190E+02
   -0.149992   30.48685  0.7812E-13  0.1105E-04  0.7602E-07  0.4793E-03  0.4549E-03  0.1557E+02
   -0.199991   30.48943  0.7812E-13  0.1189E-04  0.6750E-07  0.6395E-03  0.4062E-03  0.1000E+02
   -0.249989   30.49130  0.7812E-13  0.1256E-04  0.6191E-07  0.7639E-03  0.3698E-03  0.7380E+01
   -0.299988   30.49282  0.7812E-13  0.1310E-04  0.5790E-07  0.8879E-03  0.3394E-03  0.5864E+01
   -0.349988   30.49409  0.7812E-13  0.1355E-04  0.5488E-07  0.1000E-02  0.3134E-03  0.5008E+01
   -0.399988   30.49519  0.7812E-13  0.1392E-04  0.5253E-07  0.1103E-02  0.2904E-03  0.4454E+01
   -0.449988   30.49617  0.7812E-13  0.1425E-04  0.5060E-07  0.1198E-02  0.2701E-03  0.4177E+01
   -0.499988   30.49704  0.7812E-13  0.1453E-04  0.4900E-07  0.1286E-02  0.2522E-03  0.4055E+01
   -0.549989   30.49785  0.7812E-13  0.1476E-04  0.4766E-07  0.1366E-02  0.2362E-03  0.3996E+01
   -0.599990   30.49859  0.7812E-13  0.1497E-04  0.4652E-07  0.1439E-02  0.2217E-03  0.3987E+01
   -0.649991   30.49928  0.7812E-13  0.1514E-04  0.4555E-07  0.1504E-02  0.2084E-03  0.4030E+01
   -0.699992   30.49993  0.7812E-13  0.1529E-04  0.4472E-07  0.1563E-02  0.1963E-03  0.4108E+01
   -0.749993   30.50054  0.7812E-13  0.1541E-04  0.4402E-07  0.1613E-02  0.1850E-03  0.4234E+01
   -0.799995   30.50113  0.7812E-13  0.1551E-04  0.4344E-07  0.1656E-02  0.1746E-03  0.4396E+01
   -0.849996   30.50169  0.7812E-13  0.1558E-04  0.4295E-07  0.1692E-02  0.1648E-03  0.4610E+01
   -0.899998   30.50224  0.7812E-13  0.1564E-04  0.4257E-07  0.1719E-02  0.1557E-03  0.4869E+01
   -0.950000   30.50277  0.7812E-13  0.1567E-04  0.4227E-07  0.1739E-02  0.1471E-03  0.5195E+01
   -1.000001   30.50329  0.7812E-13  0.1568E-04  0.4208E-07  0.1750E-02  0.1389E-03  0.5583E+01
   -1.050003   30.50380  0.7812E-13  0.1567E-04  0.4199E-07  0.1753E-02  0.1312E-03  0.6301E+01
   -1.100005   30.50430  0.7812E-13  0.1564E-04  0.4200E-07  0.1835E-02  0.1238E-03  0.2096E+02
   -1.150006   30.50478  0.7812E-13  0.1559E-04  0.4214E-07  0.1676E-02  0.1172E-03  0.4644E+02
   -1.200008   30.50529  0.7812E-13  0.1551E-04  0.4239E-07  0.1700E-02  0.1104E-03  0.8956E+01
   -1.250009   30.50580  0.7812E-13  0.1541E-04  0.4281E-07  0.1670E-02  0.1039E-03  0.9498E+01
   -1.300011   30.50631  0.7812E-13  0.1529E-04  0.4342E-07  0.1623E-02  0.9766E-04  0.1103E+02
   -1.350012   30.50683  0.7812E-13  0.1513E-04  0.4428E-07  0.1566E-02  0.9158E-04  0.1311E+02
   -1.400013   30.50737  0.7812E-13  0.1494E-04  0.4544E-07  0.1492E-02  0.8568E-04  0.1602E+02
   -1.450014   30.50793  0.7812E-13  0.1471E-04  0.4704E-07  0.1415E-02  0.7988E-04  0.2023E+02
   -1.500014   30.50852  0.7812E-13  0.1443E-04  0.4927E-07  0.1308E-02  0.7420E-04  0.2698E+02
   -1.550015   30.50916  0.7812E-13  0.1410E-04  0.5243E-07  0.1221E-02  0.6850E-04  0.3788E+02
   -1.600015   30.50985  0.7812E-13  0.1368E-04  0.5723E-07  0.1083E-02  0.6291E-04  0.6800E+02
   -1.650015   30.51067  0.7812E-13  0.1315E-04  0.6469E-07  0.9975E-03  0.5700E-04  0.2756E+05
   -1.700014   30.51162  0.7812E-13  0.1243E-04  0.7793E-07  0.8223E-03  0.5114E-04  0.9288E+04
   -1.750013   30.51317  0.7812E-13  0.1147E-04  0.9977E-07  0.7367E-03  0.4368E-04  0.7734E+05
   -1.800012   30.51461  0.7812E-13  0.1015E-04  0.1460E-06  0.5197E-03  0.3749E-04  0.9775E+06
   -1.850010   30.51968  0.7812E-13  0.8655E-05  0.2319E-06  0.4717E-03  0.2729E-04  0.4633E+07
   -1.900008   30.51919  0.7812E-13  0.6809E-05  0.4857E-06  0.2105E-03  0.2210E-04 -0.3668E+07
   -1.950006   30.53616  0.7812E-13  0.4739E-05  0.1228E-05  0.1818E-03  0.1194E-04 -0.9629E+06
   -2.000003   30.53851  0.7812E-13  0.0000E+00  0.0000E+00  0.0000E+00  0.2138E-04  0.0000E+00
