 1 - depth, m
 2 - temperature, C
 3 - salinity, kg/kg
 4 - turbulent kinetic energy, m**2/s**2
 5 - dissipation rate, m**2/s**3
 6 - kinematic heat conductance, m**2/s
 7 - modulus of horizontal velocity, m/s
 8 - Richardson number, n/d
   -0.000000   31.09912  0.9249E-14  0.5102E-05  0.3230E-06  0.5017E-04  0.6284E-03  0.6514E+05
   -0.049997   31.13401  0.9249E-14  0.8928E-05  0.1442E-06  0.1892E-03  0.3575E-03  0.1837E+05
   -0.099994   31.14579  0.9249E-14  0.1075E-04  0.1004E-06  0.4150E-03  0.2628E-03  0.2074E+03
   -0.149992   31.14929  0.9249E-14  0.1190E-04  0.8479E-07  0.4942E-03  0.2331E-03  0.1047E+03
   -0.199991   31.15209  0.9249E-14  0.1279E-04  0.7554E-07  0.6572E-03  0.2087E-03  0.6886E+02
   -0.249989   31.15414  0.9249E-14  0.1349E-04  0.6942E-07  0.7826E-03  0.1904E-03  0.5188E+02
   -0.299988   31.15581  0.9249E-14  0.1405E-04  0.6503E-07  0.9059E-03  0.1751E-03  0.4141E+02
   -0.349988   31.15721  0.9249E-14  0.1452E-04  0.6173E-07  0.1017E-02  0.1619E-03  0.3593E+02
   -0.399988   31.15843  0.9249E-14  0.1490E-04  0.5914E-07  0.1118E-02  0.1503E-03  0.3194E+02
   -0.449988   31.15951  0.9249E-14  0.1522E-04  0.5703E-07  0.1210E-02  0.1400E-03  0.3048E+02
   -0.499988   31.16049  0.9249E-14  0.1550E-04  0.5527E-07  0.1294E-02  0.1308E-03  0.2952E+02
   -0.549988   31.16138  0.9249E-14  0.1573E-04  0.5380E-07  0.1370E-02  0.1226E-03  0.2965E+02
   -0.599989   31.16221  0.9249E-14  0.1592E-04  0.5255E-07  0.1437E-02  0.1152E-03  0.2949E+02
   -0.649990   31.16299  0.9249E-14  0.1608E-04  0.5150E-07  0.1496E-02  0.1084E-03  0.3044E+02
   -0.699991   31.16373  0.9249E-14  0.1620E-04  0.5060E-07  0.1546E-02  0.1022E-03  0.3093E+02
   -0.749993   31.16443  0.9249E-14  0.1630E-04  0.4986E-07  0.1588E-02  0.9641E-04  0.3264E+02
   -0.799994   31.16510  0.9249E-14  0.1636E-04  0.4924E-07  0.1622E-02  0.9103E-04  0.3381E+02
   -0.849996   31.16574  0.9249E-14  0.1640E-04  0.4875E-07  0.1646E-02  0.8597E-04  0.3641E+02
   -0.899997   31.16637  0.9249E-14  0.1641E-04  0.4838E-07  0.1662E-02  0.8124E-04  0.3843E+02
   -0.949999   31.16699  0.9249E-14  0.1639E-04  0.4813E-07  0.1668E-02  0.7674E-04  0.4226E+02
   -1.000001   31.16759  0.9249E-14  0.1635E-04  0.4801E-07  0.1665E-02  0.7250E-04  0.4560E+02
   -1.050002   31.16819  0.9249E-14  0.1628E-04  0.4803E-07  0.1649E-02  0.6844E-04  0.5310E+02
   -1.100004   31.16879  0.9249E-14  0.1618E-04  0.4820E-07  0.1794E-02  0.6457E-04  0.1615E+03
   -1.150006   31.16933  0.9249E-14  0.1605E-04  0.4858E-07  0.1458E-02  0.6125E-04  0.4810E+03
   -1.200007   31.17000  0.9249E-14  0.1589E-04  0.4914E-07  0.1529E-02  0.5745E-04  0.8466E+02
   -1.250009   31.17063  0.9249E-14  0.1569E-04  0.4998E-07  0.1489E-02  0.5395E-04  0.9021E+02
   -1.300010   31.17127  0.9249E-14  0.1545E-04  0.5117E-07  0.1413E-02  0.5058E-04  0.1121E+03
   -1.350011   31.17194  0.9249E-14  0.1517E-04  0.5284E-07  0.1344E-02  0.4728E-04  0.1393E+03
   -1.400012   31.17264  0.9249E-14  0.1482E-04  0.5520E-07  0.1223E-02  0.4405E-04  0.1893E+03
   -1.450013   31.17342  0.9249E-14  0.1441E-04  0.5856E-07  0.1166E-02  0.4079E-04  0.2574E+03
   -1.500014   31.17425  0.9249E-14  0.1390E-04  0.6358E-07  0.9939E-03  0.3763E-04  0.4132E+03
   -1.550014   31.17528  0.9249E-14  0.1328E-04  0.7098E-07  0.9868E-03  0.3421E-04  0.6730E+03
   -1.600014   31.17632  0.9249E-14  0.1250E-04  0.8447E-07  0.7866E-03  0.3116E-04  0.2223E+04
   -1.650014   31.17807  0.9249E-14  0.1137E-04  0.1046E-06  0.7657E-03  0.2691E-04 -0.1239E+03
   -1.700013   31.17977  0.9249E-14  0.9833E-05  0.1421E-06  0.5245E-03  0.2333E-04  0.4802E+04
   -1.750012   31.18505  0.9249E-14  0.8093E-05  0.2035E-06  0.5305E-03  0.1615E-04  0.5768E+06
   -1.800011   31.18529  0.9249E-14  0.6612E-05  0.3331E-06  0.3142E-03  0.1425E-04  0.1184E+05
   -1.850009   31.20536  0.9249E-14  0.5305E-05  0.6052E-06  0.3631E-03  0.6976E-05  0.2182E+09
   -1.900007   31.18953  0.9249E-14  0.4433E-05  0.1298E-05  0.1808E-03  0.6761E-05 -0.7875E+07
   -1.950005   31.22344  0.9249E-14  0.3354E-05  0.2865E-05  0.2854E-03  0.2849E-05 -0.3065E+06
   -2.000002   31.22011  0.9249E-14  0.0000E+00  0.0000E+00  0.0000E+00  0.1005E-04  0.0000E+00
