 1 - depth, m
 2 - temperature, C
 3 - salinity, kg/kg
 4 - turbulent kinetic energy, m**2/s**2
 5 - dissipation rate, m**2/s**3
 6 - kinematic heat conductance, m**2/s
 7 - modulus of horizontal velocity, m/s
 8 - Richardson number, n/d
   -0.000000   30.71906  0.1350E-14  0.5175E-05  0.3357E-06  0.5296E-04  0.1915E-02  0.4293E+04
   -0.049997   30.75085  0.1350E-14  0.8740E-05  0.1496E-06  0.1774E-03  0.1110E-02  0.3151E+03
   -0.099994   30.76373  0.1350E-14  0.1062E-04  0.1020E-06  0.4064E-03  0.8090E-03  0.1338E+02
   -0.149992   30.76720  0.1350E-14  0.1179E-04  0.8530E-07  0.4846E-03  0.7153E-03  0.6557E+01
   -0.199991   30.76999  0.1350E-14  0.1270E-04  0.7555E-07  0.6516E-03  0.6388E-03  0.4181E+01
   -0.249989   30.77200  0.1350E-14  0.1342E-04  0.6919E-07  0.7789E-03  0.5818E-03  0.3081E+01
   -0.299988   30.77364  0.1350E-14  0.1401E-04  0.6467E-07  0.9073E-03  0.5344E-03  0.2444E+01
   -0.349988   30.77501  0.1350E-14  0.1450E-04  0.6128E-07  0.1023E-02  0.4938E-03  0.2087E+01
   -0.399988   30.77619  0.1350E-14  0.1490E-04  0.5864E-07  0.1129E-02  0.4580E-03  0.1856E+01
   -0.449988   30.77724  0.1350E-14  0.1525E-04  0.5650E-07  0.1227E-02  0.4265E-03  0.1742E+01
   -0.499988   30.77819  0.1350E-14  0.1555E-04  0.5473E-07  0.1318E-02  0.3986E-03  0.1690E+01
   -0.549989   30.77905  0.1350E-14  0.1581E-04  0.5324E-07  0.1400E-02  0.3736E-03  0.1667E+01
   -0.599989   30.77985  0.1350E-14  0.1604E-04  0.5199E-07  0.1475E-02  0.3510E-03  0.1664E+01
   -0.649990   30.78060  0.1350E-14  0.1622E-04  0.5093E-07  0.1541E-02  0.3304E-03  0.1684E+01
   -0.699992   30.78130  0.1350E-14  0.1638E-04  0.5003E-07  0.1600E-02  0.3115E-03  0.1720E+01
   -0.749993   30.78197  0.1350E-14  0.1651E-04  0.4928E-07  0.1651E-02  0.2939E-03  0.1776E+01
   -0.799994   30.78261  0.1350E-14  0.1662E-04  0.4865E-07  0.1695E-02  0.2776E-03  0.1847E+01
   -0.849996   30.78322  0.1350E-14  0.1670E-04  0.4815E-07  0.1729E-02  0.2624E-03  0.1942E+01
   -0.899997   30.78382  0.1350E-14  0.1675E-04  0.4775E-07  0.1756E-02  0.2481E-03  0.2057E+01
   -0.949999   30.78440  0.1350E-14  0.1678E-04  0.4747E-07  0.1774E-02  0.2346E-03  0.2202E+01
   -1.000001   30.78496  0.1350E-14  0.1679E-04  0.4730E-07  0.1784E-02  0.2218E-03  0.2375E+01
   -1.050003   30.78552  0.1350E-14  0.1678E-04  0.4724E-07  0.1783E-02  0.2097E-03  0.2691E+01
   -1.100004   30.78608  0.1350E-14  0.1674E-04  0.4731E-07  0.1881E-02  0.1981E-03  0.8820E+01
   -1.150006   30.78660  0.1350E-14  0.1668E-04  0.4754E-07  0.1682E-02  0.1878E-03  0.2067E+02
   -1.200007   30.78718  0.1350E-14  0.1659E-04  0.4790E-07  0.1717E-02  0.1770E-03  0.3919E+01
   -1.250009   30.78774  0.1350E-14  0.1647E-04  0.4847E-07  0.1685E-02  0.1667E-03  0.4170E+01
   -1.300010   30.78831  0.1350E-14  0.1633E-04  0.4927E-07  0.1632E-02  0.1567E-03  0.4904E+01
   -1.350011   30.78890  0.1350E-14  0.1614E-04  0.5038E-07  0.1570E-02  0.1471E-03  0.5890E+01
   -1.400012   30.78951  0.1350E-14  0.1592E-04  0.5190E-07  0.1487E-02  0.1377E-03  0.7351E+01
   -1.450013   30.79015  0.1350E-14  0.1565E-04  0.5399E-07  0.1408E-02  0.1284E-03  0.9446E+01
   -1.500014   30.79082  0.1350E-14  0.1532E-04  0.5693E-07  0.1290E-02  0.1193E-03  0.1310E+02
   -1.550014   30.79157  0.1350E-14  0.1492E-04  0.6115E-07  0.1207E-02  0.1101E-03  0.1936E+02
   -1.600014   30.79238  0.1350E-14  0.1441E-04  0.6777E-07  0.1059E-02  0.1010E-03  0.4216E+02
   -1.650014   30.79341  0.1350E-14  0.1376E-04  0.7811E-07  0.9785E-03  0.9112E-04  0.9211E+03
   -1.700013   30.79457  0.1350E-14  0.1287E-04  0.9671E-07  0.7956E-03  0.8140E-04  0.1813E+06
   -1.750012   30.79669  0.1350E-14  0.1172E-04  0.1270E-06  0.7175E-03  0.6827E-04  0.2018E+05
   -1.800011   30.79830  0.1350E-14  0.1022E-04  0.1947E-06  0.4974E-03  0.5851E-04  0.4052E+05
   -1.850009   30.80588  0.1350E-14  0.8620E-05  0.3180E-06  0.4635E-03  0.4094E-04  0.1566E+08
   -1.900007   30.80361  0.1350E-14  0.6790E-05  0.6775E-06  0.2053E-03  0.3350E-04  0.2933E+06
   -1.950005   30.82526  0.1350E-14  0.4823E-05  0.1636E-05  0.2070E-03  0.1757E-04 -0.5126E+06
   -2.000002   30.82627  0.1350E-14  0.0000E+00  0.0000E+00  0.0000E+00  0.3439E-04  0.0000E+00
