 1 - depth, m
 2 - temperature, C
 3 - salinity, kg/kg
 4 - turbulent kinetic energy, m**2/s**2
 5 - dissipation rate, m**2/s**3
 6 - kinematic heat conductance, m**2/s
 7 - modulus of horizontal velocity, m/s
 8 - Richardson number, n/d
   -0.000000   31.06738  0.7340E-14  0.5543E-05  0.3734E-06  0.5487E-04  0.1947E-02  0.2976E+04
   -0.049997   31.10147  0.7340E-14  0.9332E-05  0.1662E-06  0.1844E-03  0.1123E-02  0.2066E+03
   -0.099994   31.11505  0.7340E-14  0.1133E-04  0.1135E-06  0.4153E-03  0.8264E-03  0.1353E+02
   -0.149992   31.11878  0.7340E-14  0.1259E-04  0.9476E-07  0.4967E-03  0.7311E-03  0.6690E+01
   -0.199990   31.12176  0.7340E-14  0.1357E-04  0.8386E-07  0.6694E-03  0.6536E-03  0.4249E+01
   -0.249989   31.12391  0.7340E-14  0.1434E-04  0.7677E-07  0.8001E-03  0.5960E-03  0.3132E+01
   -0.299988   31.12566  0.7340E-14  0.1498E-04  0.7174E-07  0.9328E-03  0.5481E-03  0.2483E+01
   -0.349987   31.12712  0.7340E-14  0.1550E-04  0.6799E-07  0.1052E-02  0.5071E-03  0.2120E+01
   -0.399987   31.12838  0.7340E-14  0.1594E-04  0.6507E-07  0.1161E-02  0.4709E-03  0.1884E+01
   -0.449987   31.12950  0.7340E-14  0.1631E-04  0.6271E-07  0.1263E-02  0.4390E-03  0.1767E+01
   -0.499987   31.13051  0.7340E-14  0.1664E-04  0.6076E-07  0.1355E-02  0.4108E-03  0.1714E+01
   -0.549988   31.13143  0.7340E-14  0.1692E-04  0.5914E-07  0.1440E-02  0.3855E-03  0.1692E+01
   -0.599989   31.13229  0.7340E-14  0.1716E-04  0.5777E-07  0.1517E-02  0.3626E-03  0.1688E+01
   -0.649990   31.13308  0.7340E-14  0.1736E-04  0.5662E-07  0.1585E-02  0.3417E-03  0.1708E+01
   -0.699991   31.13383  0.7340E-14  0.1753E-04  0.5565E-07  0.1646E-02  0.3224E-03  0.1741E+01
   -0.749992   31.13455  0.7340E-14  0.1767E-04  0.5485E-07  0.1697E-02  0.3046E-03  0.1799E+01
   -0.799994   31.13523  0.7340E-14  0.1779E-04  0.5419E-07  0.1740E-02  0.2881E-03  0.1870E+01
   -0.849995   31.13589  0.7340E-14  0.1787E-04  0.5366E-07  0.1775E-02  0.2725E-03  0.1971E+01
   -0.899997   31.13653  0.7340E-14  0.1793E-04  0.5327E-07  0.1801E-02  0.2580E-03  0.2086E+01
   -0.949998   31.13715  0.7340E-14  0.1797E-04  0.5300E-07  0.1818E-02  0.2442E-03  0.2241E+01
   -1.000000   31.13776  0.7340E-14  0.1798E-04  0.5286E-07  0.1827E-02  0.2312E-03  0.2418E+01
   -1.050002   31.13837  0.7340E-14  0.1796E-04  0.5286E-07  0.1823E-02  0.2188E-03  0.2749E+01
   -1.100003   31.13897  0.7340E-14  0.1792E-04  0.5300E-07  0.1934E-02  0.2069E-03  0.8876E+01
   -1.150005   31.13953  0.7340E-14  0.1785E-04  0.5333E-07  0.1701E-02  0.1964E-03  0.2181E+02
   -1.200006   31.14017  0.7340E-14  0.1775E-04  0.5383E-07  0.1745E-02  0.1852E-03  0.4065E+01
   -1.250008   31.14079  0.7340E-14  0.1762E-04  0.5456E-07  0.1712E-02  0.1746E-03  0.4326E+01
   -1.300009   31.14141  0.7340E-14  0.1745E-04  0.5559E-07  0.1653E-02  0.1644E-03  0.5134E+01
   -1.350010   31.14206  0.7340E-14  0.1725E-04  0.5699E-07  0.1587E-02  0.1544E-03  0.6213E+01
   -1.400011   31.14273  0.7340E-14  0.1700E-04  0.5891E-07  0.1498E-02  0.1446E-03  0.7874E+01
   -1.450012   31.14344  0.7340E-14  0.1669E-04  0.6155E-07  0.1416E-02  0.1350E-03  0.1027E+02
   -1.500012   31.14420  0.7340E-14  0.1631E-04  0.6530E-07  0.1295E-02  0.1255E-03  0.1465E+02
   -1.550013   31.14505  0.7340E-14  0.1585E-04  0.7075E-07  0.1213E-02  0.1158E-03  0.2302E+02
   -1.600013   31.14598  0.7340E-14  0.1527E-04  0.7949E-07  0.1062E-02  0.1063E-03 -0.6302E+01
   -1.650012   31.14722  0.7340E-14  0.1450E-04  0.9328E-07  0.9797E-03  0.9555E-04  0.1858E+05
   -1.700012   31.14867  0.7340E-14  0.1343E-04  0.1175E-06  0.7925E-03  0.8477E-04  0.2866E+05
   -1.750011   31.15127  0.7340E-14  0.1216E-04  0.1561E-06  0.7185E-03  0.7043E-04  0.1243E+06
   -1.800010   31.15293  0.7340E-14  0.1055E-04  0.2453E-06  0.4848E-03  0.6066E-04  0.8589E+04
   -1.850008   31.16302  0.7340E-14  0.8938E-05  0.4080E-06  0.4707E-03  0.4126E-04  0.1440E+08
   -1.900006   31.15879  0.7340E-14  0.7177E-05  0.8481E-06  0.2241E-03  0.3448E-04 -0.1429E+06
   -1.950003   31.18484  0.7340E-14  0.5151E-05  0.2031E-05  0.2227E-03  0.1827E-04 -0.7806E+05
   -2.000000   31.18519  0.7340E-14  0.0000E+00  0.0000E+00  0.0000E+00  0.3670E-04  0.0000E+00
