 1 - depth, m
 2 - temperature, C
 3 - salinity, kg/kg
 4 - turbulent kinetic energy, m**2/s**2
 5 - dissipation rate, m**2/s**3
 6 - kinematic heat conductance, m**2/s
 7 - modulus of horizontal velocity, m/s
 8 - Richardson number, n/d
   -0.000000   30.64703  0.3476E-13  0.4837E-05  0.3021E-06  0.4995E-04  0.1118E-02  0.5421E+04
   -0.049997   30.67814  0.3476E-13  0.8362E-05  0.1344E-06  0.1805E-03  0.6326E-03  0.4125E+02
   -0.099994   30.68991  0.3476E-13  0.1014E-04  0.9275E-07  0.4038E-03  0.4645E-03  0.4135E+02
   -0.149992   30.69316  0.3476E-13  0.1125E-04  0.7797E-07  0.4848E-03  0.4104E-03  0.2027E+02
   -0.199991   30.69574  0.3476E-13  0.1212E-04  0.6928E-07  0.6475E-03  0.3666E-03  0.1305E+02
   -0.249989   30.69762  0.3476E-13  0.1280E-04  0.6358E-07  0.7730E-03  0.3338E-03  0.9673E+01
   -0.299988   30.69915  0.3476E-13  0.1336E-04  0.5951E-07  0.8987E-03  0.3065E-03  0.7698E+01
   -0.349988   30.70043  0.3476E-13  0.1383E-04  0.5646E-07  0.1012E-02  0.2831E-03  0.6603E+01
   -0.399988   30.70154  0.3476E-13  0.1421E-04  0.5408E-07  0.1116E-02  0.2625E-03  0.5877E+01
   -0.449988   30.70253  0.3476E-13  0.1455E-04  0.5214E-07  0.1212E-02  0.2442E-03  0.5532E+01
   -0.499988   30.70342  0.3476E-13  0.1484E-04  0.5054E-07  0.1301E-02  0.2282E-03  0.5368E+01
   -0.549989   30.70423  0.3476E-13  0.1509E-04  0.4920E-07  0.1382E-02  0.2137E-03  0.5312E+01
   -0.599989   30.70498  0.3476E-13  0.1530E-04  0.4807E-07  0.1455E-02  0.2007E-03  0.5299E+01
   -0.649991   30.70568  0.3476E-13  0.1549E-04  0.4711E-07  0.1521E-02  0.1887E-03  0.5384E+01
   -0.699992   30.70634  0.3476E-13  0.1564E-04  0.4630E-07  0.1579E-02  0.1778E-03  0.5487E+01
   -0.749993   30.70697  0.3476E-13  0.1577E-04  0.4562E-07  0.1630E-02  0.1677E-03  0.5690E+01
   -0.799995   30.70757  0.3476E-13  0.1588E-04  0.4506E-07  0.1673E-02  0.1583E-03  0.5907E+01
   -0.849996   30.70815  0.3476E-13  0.1596E-04  0.4461E-07  0.1708E-02  0.1495E-03  0.6239E+01
   -0.899998   30.70871  0.3476E-13  0.1602E-04  0.4425E-07  0.1735E-02  0.1413E-03  0.6590E+01
   -0.949999   30.70926  0.3476E-13  0.1606E-04  0.4400E-07  0.1753E-02  0.1335E-03  0.7089E+01
   -1.000001   30.70979  0.3476E-13  0.1607E-04  0.4386E-07  0.1764E-02  0.1261E-03  0.7621E+01
   -1.050003   30.71032  0.3476E-13  0.1607E-04  0.4381E-07  0.1764E-02  0.1191E-03  0.8679E+01
   -1.100005   30.71084  0.3476E-13  0.1604E-04  0.4388E-07  0.1854E-02  0.1125E-03  0.2858E+02
   -1.150006   30.71133  0.3476E-13  0.1599E-04  0.4409E-07  0.1677E-02  0.1065E-03  0.6520E+02
   -1.200008   30.71187  0.3476E-13  0.1591E-04  0.4443E-07  0.1705E-02  0.1004E-03  0.1256E+02
   -1.250009   30.71240  0.3476E-13  0.1581E-04  0.4495E-07  0.1674E-02  0.9447E-04  0.1335E+02
   -1.300011   30.71294  0.3476E-13  0.1568E-04  0.4567E-07  0.1624E-02  0.8878E-04  0.1570E+02
   -1.350012   30.71349  0.3476E-13  0.1552E-04  0.4666E-07  0.1564E-02  0.8328E-04  0.1874E+02
   -1.400013   30.71406  0.3476E-13  0.1532E-04  0.4801E-07  0.1486E-02  0.7790E-04  0.2329E+02
   -1.450014   30.71466  0.3476E-13  0.1508E-04  0.4985E-07  0.1408E-02  0.7264E-04  0.2960E+02
   -1.500014   30.71529  0.3476E-13  0.1479E-04  0.5241E-07  0.1296E-02  0.6745E-04  0.4052E+02
   -1.550015   30.71598  0.3476E-13  0.1443E-04  0.5603E-07  0.1212E-02  0.6225E-04  0.5773E+02
   -1.600015   30.71673  0.3476E-13  0.1399E-04  0.6161E-07  0.1065E-02  0.5715E-04  0.1119E+03
   -1.650014   30.71765  0.3476E-13  0.1341E-04  0.7025E-07  0.9878E-03  0.5167E-04  0.2706E+03
   -1.700014   30.71868  0.3476E-13  0.1263E-04  0.8568E-07  0.8034E-03  0.4627E-04 -0.3480E+03
   -1.750013   30.72051  0.3476E-13  0.1159E-04  0.1111E-06  0.7263E-03  0.3917E-04  0.3028E+06
   -1.800012   30.72203  0.3476E-13  0.1020E-04  0.1651E-06  0.5050E-03  0.3365E-04  0.2621E+05
   -1.850010   30.72830  0.3476E-13  0.8636E-05  0.2659E-06  0.4642E-03  0.2403E-04  0.4822E+08
   -1.900008   30.72706  0.3476E-13  0.6821E-05  0.5570E-06  0.2105E-03  0.1952E-04 -0.2221E+06
   -1.950005   30.74639  0.3476E-13  0.4789E-05  0.1388E-05  0.1915E-03  0.1045E-04 -0.4634E+06
   -2.000002   30.74815  0.3476E-13  0.0000E+00  0.0000E+00  0.0000E+00  0.1935E-04  0.0000E+00
