 1 - depth, m
 2 - temperature, C
 3 - salinity, kg/kg
 4 - turbulent kinetic energy, m**2/s**2
 5 - dissipation rate, m**2/s**3
 6 - kinematic heat conductance, m**2/s
 7 - modulus of horizontal velocity, m/s
 8 - Richardson number, n/d
   -0.000000   30.89140  0.3088E-14  0.5179E-05  0.3360E-06  0.5224E-04  0.1597E-02  0.6120E+04
   -0.049997   30.92399  0.3088E-14  0.8818E-05  0.1498E-06  0.1817E-03  0.9182E-03  0.3439E+03
   -0.099994   30.93668  0.3088E-14  0.1071E-04  0.1028E-06  0.4077E-03  0.6738E-03  0.2083E+02
   -0.149992   30.94017  0.3088E-14  0.1189E-04  0.8606E-07  0.4894E-03  0.5959E-03  0.1025E+02
   -0.199991   30.94296  0.3088E-14  0.1281E-04  0.7628E-07  0.6566E-03  0.5325E-03  0.6544E+01
   -0.249989   30.94497  0.3088E-14  0.1354E-04  0.6990E-07  0.7845E-03  0.4853E-03  0.4812E+01
   -0.299988   30.94661  0.3088E-14  0.1413E-04  0.6535E-07  0.9136E-03  0.4460E-03  0.3826E+01
   -0.349988   30.94798  0.3088E-14  0.1462E-04  0.6195E-07  0.1030E-02  0.4123E-03  0.3256E+01
   -0.399988   30.94917  0.3088E-14  0.1503E-04  0.5930E-07  0.1136E-02  0.3826E-03  0.2904E+01
   -0.449988   30.95022  0.3088E-14  0.1539E-04  0.5714E-07  0.1235E-02  0.3565E-03  0.2711E+01
   -0.499988   30.95117  0.3088E-14  0.1569E-04  0.5536E-07  0.1326E-02  0.3333E-03  0.2642E+01
   -0.549989   30.95204  0.3088E-14  0.1595E-04  0.5387E-07  0.1408E-02  0.3125E-03  0.2591E+01
   -0.599989   30.95284  0.3088E-14  0.1618E-04  0.5261E-07  0.1483E-02  0.2937E-03  0.2597E+01
   -0.649990   30.95359  0.3088E-14  0.1637E-04  0.5154E-07  0.1550E-02  0.2766E-03  0.2613E+01
   -0.699992   30.95429  0.3088E-14  0.1653E-04  0.5064E-07  0.1609E-02  0.2608E-03  0.2679E+01
   -0.749993   30.95496  0.3088E-14  0.1666E-04  0.4988E-07  0.1660E-02  0.2462E-03  0.2750E+01
   -0.799994   30.95560  0.3088E-14  0.1676E-04  0.4925E-07  0.1704E-02  0.2326E-03  0.2873E+01
   -0.849996   30.95622  0.3088E-14  0.1684E-04  0.4874E-07  0.1739E-02  0.2200E-03  0.3001E+01
   -0.899998   30.95681  0.3088E-14  0.1690E-04  0.4834E-07  0.1765E-02  0.2080E-03  0.3192E+01
   -0.949999   30.95739  0.3088E-14  0.1693E-04  0.4806E-07  0.1783E-02  0.1968E-03  0.3396E+01
   -1.000001   30.95796  0.3088E-14  0.1694E-04  0.4789E-07  0.1793E-02  0.1861E-03  0.3680E+01
   -1.050003   30.95852  0.3088E-14  0.1693E-04  0.4783E-07  0.1792E-02  0.1760E-03  0.4142E+01
   -1.100004   30.95908  0.3088E-14  0.1689E-04  0.4791E-07  0.1891E-02  0.1663E-03  0.1362E+02
   -1.150006   30.95960  0.3088E-14  0.1682E-04  0.4814E-07  0.1689E-02  0.1578E-03  0.3210E+02
   -1.200008   30.96018  0.3088E-14  0.1674E-04  0.4851E-07  0.1724E-02  0.1487E-03  0.6028E+01
   -1.250009   30.96075  0.3088E-14  0.1662E-04  0.4909E-07  0.1693E-02  0.1401E-03  0.6440E+01
   -1.300010   30.96132  0.3088E-14  0.1647E-04  0.4990E-07  0.1639E-02  0.1318E-03  0.7531E+01
   -1.350011   30.96191  0.3088E-14  0.1628E-04  0.5103E-07  0.1576E-02  0.1237E-03  0.9097E+01
   -1.400012   30.96252  0.3088E-14  0.1605E-04  0.5257E-07  0.1493E-02  0.1158E-03  0.1131E+02
   -1.450013   30.96316  0.3088E-14  0.1578E-04  0.5470E-07  0.1413E-02  0.1081E-03  0.1463E+02
   -1.500014   30.96384  0.3088E-14  0.1545E-04  0.5769E-07  0.1296E-02  0.1004E-03  0.2027E+02
   -1.550014   30.96459  0.3088E-14  0.1504E-04  0.6198E-07  0.1212E-02  0.9269E-04  0.2995E+02
   -1.600014   30.96541  0.3088E-14  0.1453E-04  0.6876E-07  0.1065E-02  0.8514E-04  0.1530E+03
   -1.650014   30.96645  0.3088E-14  0.1386E-04  0.7942E-07  0.9781E-03  0.7676E-04  0.1379E+04
   -1.700013   30.96764  0.3088E-14  0.1296E-04  0.9829E-07  0.7992E-03  0.6850E-04  0.8783E+03
   -1.750013   30.96978  0.3088E-14  0.1181E-04  0.1288E-06  0.7163E-03  0.5753E-04  0.5839E+06
   -1.800011   30.97134  0.3088E-14  0.1033E-04  0.1945E-06  0.4998E-03  0.4937E-04  0.1489E+05
   -1.850010   30.97889  0.3088E-14  0.8728E-05  0.3195E-06  0.4570E-03  0.3481E-04  0.2263E+08
   -1.900007   30.97671  0.3088E-14  0.6856E-05  0.6787E-06  0.2089E-03  0.2829E-04 -0.1390E+06
   -1.950005   30.99824  0.3088E-14  0.4863E-05  0.1637E-05  0.2058E-03  0.1492E-04 -0.1592E+07
   -2.000002   30.99963  0.3088E-14  0.0000E+00  0.0000E+00  0.0000E+00  0.2903E-04  0.0000E+00
