 1 - depth, m
 2 - temperature, C
 3 - salinity, kg/kg
 4 - turbulent kinetic energy, m**2/s**2
 5 - dissipation rate, m**2/s**3
 6 - kinematic heat conductance, m**2/s
 7 - modulus of horizontal velocity, m/s
 8 - Richardson number, n/d
   -0.000000   30.01548  0.5296E-14  0.5850E-05  0.3275E-06  0.5593E-04  0.4134E-02  0.2294E+03
   -0.049997   30.04692  0.5296E-14  0.9209E-05  0.1403E-06  0.2121E-03  0.2229E-02  0.2993E+02
   -0.099994   30.05607  0.5296E-14  0.1070E-04  0.1009E-06  0.3883E-03  0.1795E-02  0.3428E+01
   -0.149992   30.05968  0.5296E-14  0.1171E-04  0.8540E-07  0.4838E-03  0.1611E-02  0.1838E+01
   -0.199991   30.06244  0.5296E-14  0.1252E-04  0.7629E-07  0.6064E-03  0.1466E-02  0.1336E+01
   -0.249989   30.06458  0.5296E-14  0.1320E-04  0.7006E-07  0.7145E-03  0.1351E-02  0.1293E+01
   -0.299989   30.06634  0.5296E-14  0.1384E-04  0.6519E-07  0.8437E-03  0.1242E-02  0.1380E+01
   -0.349988   30.06779  0.5296E-14  0.1444E-04  0.6116E-07  0.9895E-03  0.1136E-02  0.1474E+01
   -0.399988   30.06900  0.5296E-14  0.1500E-04  0.5782E-07  0.1141E-02  0.1033E-02  0.1498E+01
   -0.449988   30.07002  0.5296E-14  0.1549E-04  0.5502E-07  0.1289E-02  0.9370E-03  0.1500E+01
   -0.499988   30.07090  0.5296E-14  0.1591E-04  0.5270E-07  0.1427E-02  0.8513E-03  0.1498E+01
   -0.549989   30.07168  0.5296E-14  0.1627E-04  0.5078E-07  0.1553E-02  0.7750E-03  0.1484E+01
   -0.599990   30.07238  0.5296E-14  0.1656E-04  0.4919E-07  0.1665E-02  0.7070E-03  0.1467E+01
   -0.649991   30.07303  0.5296E-14  0.1680E-04  0.4788E-07  0.1762E-02  0.6464E-03  0.1444E+01
   -0.699992   30.07362  0.5296E-14  0.1697E-04  0.4681E-07  0.1842E-02  0.5923E-03  0.1418E+01
   -0.749993   30.07419  0.5296E-14  0.1709E-04  0.4596E-07  0.1905E-02  0.5441E-03  0.1388E+01
   -0.799995   30.07472  0.5296E-14  0.1717E-04  0.4528E-07  0.1950E-02  0.5010E-03  0.1355E+01
   -0.849996   30.07523  0.5296E-14  0.1720E-04  0.4478E-07  0.1979E-02  0.4626E-03  0.1319E+01
   -0.899998   30.07573  0.5296E-14  0.1720E-04  0.4443E-07  0.1993E-02  0.4282E-03  0.1280E+01
   -0.950000   30.07622  0.5296E-14  0.1716E-04  0.4423E-07  0.1992E-02  0.3975E-03  0.1239E+01
   -1.000001   30.07670  0.5296E-14  0.1710E-04  0.4415E-07  0.1977E-02  0.3701E-03  0.1193E+01
   -1.050003   30.07717  0.5296E-14  0.1701E-04  0.4421E-07  0.1940E-02  0.3456E-03  0.1149E+01
   -1.100005   30.07765  0.5296E-14  0.1691E-04  0.4437E-07  0.2122E-02  0.3240E-03  0.2569E+01
   -1.150006   30.07808  0.5296E-14  0.1679E-04  0.4467E-07  0.1731E-02  0.3088E-03  0.6780E+01
   -1.200008   30.07860  0.5296E-14  0.1665E-04  0.4510E-07  0.1834E-02  0.2913E-03  0.1235E+01
   -1.250010   30.07909  0.5296E-14  0.1647E-04  0.4574E-07  0.1792E-02  0.2748E-03  0.1275E+01
   -1.300011   30.07958  0.5296E-14  0.1627E-04  0.4661E-07  0.1724E-02  0.2592E-03  0.1482E+01
   -1.350012   30.08008  0.5296E-14  0.1603E-04  0.4779E-07  0.1647E-02  0.2439E-03  0.1790E+01
   -1.400013   30.08061  0.5296E-14  0.1575E-04  0.4942E-07  0.1550E-02  0.2290E-03  0.2250E+01
   -1.450014   30.08116  0.5296E-14  0.1542E-04  0.5169E-07  0.1454E-02  0.2141E-03  0.2948E+01
   -1.500015   30.08175  0.5296E-14  0.1503E-04  0.5489E-07  0.1331E-02  0.1993E-03  0.4156E+01
   -1.550015   30.08240  0.5296E-14  0.1456E-04  0.5963E-07  0.1234E-02  0.1844E-03  0.6887E+01
   -1.600015   30.08312  0.5296E-14  0.1398E-04  0.6722E-07  0.1089E-02  0.1693E-03 -0.2481E+02
   -1.650015   30.08406  0.5296E-14  0.1321E-04  0.7943E-07  0.9847E-03  0.1525E-03  0.4055E+03
   -1.700014   30.08525  0.5296E-14  0.1217E-04  0.1005E-06  0.8122E-03  0.1347E-03  0.6323E+04
   -1.750013   30.08713  0.5296E-14  0.1096E-04  0.1335E-06  0.7118E-03  0.1125E-03  0.2494E+05
   -1.800012   30.08848  0.5296E-14  0.9384E-05  0.2109E-06  0.4859E-03  0.9625E-04 -0.2638E+04
   -1.850010   30.09596  0.5296E-14  0.7869E-05  0.3481E-06  0.4611E-03  0.6541E-04  0.2217E+07
   -1.900008   30.09271  0.5296E-14  0.6167E-05  0.7318E-06  0.2078E-03  0.5448E-04 -0.2864E+05
   -1.950006   30.11235  0.5296E-14  0.4408E-05  0.1725E-05  0.2250E-03  0.2795E-04 -0.1151E+06
   -2.000003   30.11120  0.5296E-14  0.0000E+00  0.0000E+00  0.0000E+00  0.5953E-04  0.0000E+00
