 1 - depth, m
 2 - temperature, C
 3 - salinity, kg/kg
 4 - turbulent kinetic energy, m**2/s**2
 5 - dissipation rate, m**2/s**3
 6 - kinematic heat conductance, m**2/s
 7 - modulus of horizontal velocity, m/s
 8 - Richardson number, n/d
   -0.000000   29.46961  0.1243E-14  0.4279E-05  0.2506E-06  0.4800E-04  0.1323E-02  0.9735E+04
   -0.049997   29.49602  0.1243E-14  0.7426E-05  0.1114E-06  0.1698E-03  0.7516E-03  0.6929E+04
   -0.099994   29.50637  0.1243E-14  0.9032E-05  0.7667E-07  0.3906E-03  0.5449E-03  0.2486E+02
   -0.149992   29.50915  0.1243E-14  0.1003E-04  0.6462E-07  0.4681E-03  0.4811E-03  0.1207E+02
   -0.199991   29.51139  0.1243E-14  0.1082E-04  0.5755E-07  0.6242E-03  0.4292E-03  0.7816E+01
   -0.249989   29.51303  0.1243E-14  0.1144E-04  0.5294E-07  0.7462E-03  0.3903E-03  0.5784E+01
   -0.299989   29.51437  0.1243E-14  0.1196E-04  0.4966E-07  0.8671E-03  0.3579E-03  0.4627E+01
   -0.349988   29.51549  0.1243E-14  0.1239E-04  0.4721E-07  0.9770E-03  0.3301E-03  0.3967E+01
   -0.399988   29.51648  0.1243E-14  0.1276E-04  0.4532E-07  0.1078E-02  0.3056E-03  0.3551E+01
   -0.449988   29.51735  0.1243E-14  0.1308E-04  0.4380E-07  0.1171E-02  0.2840E-03  0.3336E+01
   -0.499988   29.51814  0.1243E-14  0.1336E-04  0.4254E-07  0.1258E-02  0.2649E-03  0.3258E+01
   -0.549989   29.51887  0.1243E-14  0.1361E-04  0.4151E-07  0.1337E-02  0.2479E-03  0.3218E+01
   -0.599990   29.51954  0.1243E-14  0.1383E-04  0.4065E-07  0.1409E-02  0.2324E-03  0.3234E+01
   -0.649991   29.52017  0.1243E-14  0.1402E-04  0.3994E-07  0.1474E-02  0.2184E-03  0.3278E+01
   -0.699992   29.52077  0.1243E-14  0.1418E-04  0.3935E-07  0.1531E-02  0.2055E-03  0.3369E+01
   -0.749993   29.52133  0.1243E-14  0.1432E-04  0.3886E-07  0.1582E-02  0.1936E-03  0.3484E+01
   -0.799995   29.52188  0.1243E-14  0.1445E-04  0.3848E-07  0.1625E-02  0.1825E-03  0.3649E+01
   -0.849996   29.52240  0.1243E-14  0.1455E-04  0.3819E-07  0.1660E-02  0.1722E-03  0.3841E+01
   -0.899998   29.52291  0.1243E-14  0.1463E-04  0.3798E-07  0.1688E-02  0.1625E-03  0.4093E+01
   -0.950000   29.52341  0.1243E-14  0.1469E-04  0.3786E-07  0.1709E-02  0.1534E-03  0.4384E+01
   -1.000002   29.52390  0.1243E-14  0.1474E-04  0.3782E-07  0.1721E-02  0.1448E-03  0.4756E+01
   -1.050003   29.52439  0.1243E-14  0.1476E-04  0.3788E-07  0.1725E-02  0.1366E-03  0.5402E+01
   -1.100005   29.52487  0.1243E-14  0.1477E-04  0.3802E-07  0.1796E-02  0.1288E-03  0.1831E+02
   -1.150007   29.52534  0.1243E-14  0.1475E-04  0.3828E-07  0.1668E-02  0.1218E-03  0.3928E+02
   -1.200008   29.52584  0.1243E-14  0.1472E-04  0.3865E-07  0.1680E-02  0.1147E-03  0.7753E+01
   -1.250010   29.52633  0.1243E-14  0.1466E-04  0.3916E-07  0.1652E-02  0.1079E-03  0.8326E+01
   -1.300011   29.52683  0.1243E-14  0.1458E-04  0.3985E-07  0.1608E-02  0.1013E-03  0.9696E+01
   -1.350012   29.52735  0.1243E-14  0.1447E-04  0.4074E-07  0.1554E-02  0.9493E-04  0.1157E+02
   -1.400013   29.52789  0.1243E-14  0.1434E-04  0.4192E-07  0.1485E-02  0.8874E-04  0.1413E+02
   -1.450014   29.52845  0.1243E-14  0.1416E-04  0.4347E-07  0.1411E-02  0.8268E-04  0.1782E+02
   -1.500015   29.52904  0.1243E-14  0.1394E-04  0.4555E-07  0.1309E-02  0.7674E-04  0.2359E+02
   -1.550015   29.52969  0.1243E-14  0.1367E-04  0.4842E-07  0.1225E-02  0.7082E-04  0.3265E+02
   -1.600015   29.53039  0.1243E-14  0.1333E-04  0.5262E-07  0.1086E-02  0.6502E-04  0.5307E+02
   -1.650015   29.53121  0.1243E-14  0.1290E-04  0.5888E-07  0.1007E-02  0.5895E-04  0.2010E+03
   -1.700015   29.53212  0.1243E-14  0.1230E-04  0.6998E-07  0.8271E-03  0.5310E-04 -0.2193E+04
   -1.750014   29.53362  0.1243E-14  0.1149E-04  0.8828E-07  0.7494E-03  0.4563E-04  0.3928E+04
   -1.800012   29.53503  0.1243E-14  0.1033E-04  0.1253E-06  0.5291E-03  0.3941E-04  0.4583E+04
   -1.850011   29.53968  0.1243E-14  0.8917E-05  0.1960E-06  0.4829E-03  0.2927E-04  0.1017E+08
   -1.900009   29.53992  0.1243E-14  0.7146E-05  0.4023E-06  0.2168E-03  0.2364E-04 -0.4159E+06
   -1.950006   29.55631  0.1243E-14  0.4901E-05  0.1049E-05  0.1630E-03  0.1322E-04 -0.5605E+06
   -2.000003   29.56062  0.1243E-14  0.0000E+00  0.0000E+00  0.0000E+00  0.2182E-04  0.0000E+00
