 1 - depth, m
 2 - temperature, C
 3 - salinity, kg/kg
 4 - turbulent kinetic energy, m**2/s**2
 5 - dissipation rate, m**2/s**3
 6 - kinematic heat conductance, m**2/s
 7 - modulus of horizontal velocity, m/s
 8 - Richardson number, n/d
   -0.000000   30.61050  0.2478E-14  0.5033E-05  0.3132E-06  0.5156E-04  0.2054E-02  0.5634E+04
   -0.049997   30.64126  0.2478E-14  0.8482E-05  0.1393E-06  0.1809E-03  0.1159E-02  0.1122E+03
   -0.099994   30.65280  0.2478E-14  0.1024E-04  0.9599E-07  0.3963E-03  0.8609E-03  0.1212E+02
   -0.149992   30.65616  0.2478E-14  0.1136E-04  0.8036E-07  0.4808E-03  0.7600E-03  0.5968E+01
   -0.199991   30.65881  0.2478E-14  0.1223E-04  0.7123E-07  0.6408E-03  0.6791E-03  0.3822E+01
   -0.249989   30.66074  0.2478E-14  0.1292E-04  0.6525E-07  0.7665E-03  0.6184E-03  0.2815E+01
   -0.299988   30.66230  0.2478E-14  0.1348E-04  0.6100E-07  0.8911E-03  0.5680E-03  0.2236E+01
   -0.349988   30.66362  0.2478E-14  0.1394E-04  0.5781E-07  0.1003E-02  0.5247E-03  0.1913E+01
   -0.399988   30.66475  0.2478E-14  0.1433E-04  0.5532E-07  0.1106E-02  0.4864E-03  0.1716E+01
   -0.449988   30.66576  0.2478E-14  0.1467E-04  0.5329E-07  0.1204E-02  0.4524E-03  0.1624E+01
   -0.499988   30.66667  0.2478E-14  0.1497E-04  0.5160E-07  0.1294E-02  0.4222E-03  0.1589E+01
   -0.549989   30.66750  0.2478E-14  0.1522E-04  0.5019E-07  0.1377E-02  0.3950E-03  0.1571E+01
   -0.599990   30.66827  0.2478E-14  0.1544E-04  0.4899E-07  0.1453E-02  0.3704E-03  0.1570E+01
   -0.649991   30.66898  0.2478E-14  0.1562E-04  0.4798E-07  0.1520E-02  0.3480E-03  0.1581E+01
   -0.699992   30.66966  0.2478E-14  0.1578E-04  0.4713E-07  0.1579E-02  0.3275E-03  0.1608E+01
   -0.749993   30.67029  0.2478E-14  0.1591E-04  0.4642E-07  0.1630E-02  0.3086E-03  0.1648E+01
   -0.799995   30.67090  0.2478E-14  0.1601E-04  0.4583E-07  0.1672E-02  0.2912E-03  0.1707E+01
   -0.849996   30.67149  0.2478E-14  0.1608E-04  0.4535E-07  0.1706E-02  0.2750E-03  0.1785E+01
   -0.899998   30.67206  0.2478E-14  0.1614E-04  0.4498E-07  0.1732E-02  0.2598E-03  0.1889E+01
   -0.949999   30.67261  0.2478E-14  0.1617E-04  0.4472E-07  0.1749E-02  0.2455E-03  0.2017E+01
   -1.000001   30.67315  0.2478E-14  0.1618E-04  0.4456E-07  0.1759E-02  0.2320E-03  0.2179E+01
   -1.050003   30.67369  0.2478E-14  0.1616E-04  0.4451E-07  0.1758E-02  0.2192E-03  0.2465E+01
   -1.100005   30.67422  0.2478E-14  0.1613E-04  0.4457E-07  0.1853E-02  0.2070E-03  0.8092E+01
   -1.150006   30.67472  0.2478E-14  0.1607E-04  0.4478E-07  0.1661E-02  0.1962E-03  0.1900E+02
   -1.200008   30.67527  0.2478E-14  0.1598E-04  0.4513E-07  0.1693E-02  0.1848E-03  0.3587E+01
   -1.250009   30.67581  0.2478E-14  0.1587E-04  0.4566E-07  0.1662E-02  0.1739E-03  0.3819E+01
   -1.300011   30.67635  0.2478E-14  0.1573E-04  0.4641E-07  0.1610E-02  0.1635E-03  0.4475E+01
   -1.350012   30.67691  0.2478E-14  0.1556E-04  0.4744E-07  0.1548E-02  0.1533E-03  0.5389E+01
   -1.400013   30.67749  0.2478E-14  0.1534E-04  0.4886E-07  0.1469E-02  0.1434E-03  0.6686E+01
   -1.450014   30.67810  0.2478E-14  0.1508E-04  0.5080E-07  0.1389E-02  0.1337E-03  0.8624E+01
   -1.500014   30.67875  0.2478E-14  0.1477E-04  0.5353E-07  0.1276E-02  0.1241E-03  0.1184E+02
   -1.550015   30.67946  0.2478E-14  0.1439E-04  0.5746E-07  0.1192E-02  0.1145E-03  0.1743E+02
   -1.600015   30.68024  0.2478E-14  0.1391E-04  0.6357E-07  0.1051E-02  0.1050E-03  0.3592E+02
   -1.650014   30.68119  0.2478E-14  0.1328E-04  0.7331E-07  0.9698E-03  0.9476E-04  0.6907E+02
   -1.700014   30.68234  0.2478E-14  0.1242E-04  0.9053E-07  0.7893E-03  0.8439E-04 -0.5179E+03
   -1.750013   30.68431  0.2478E-14  0.1132E-04  0.1182E-06  0.7091E-03  0.7080E-04  0.8370E+05
   -1.800012   30.68584  0.2478E-14  0.9872E-05  0.1779E-06  0.4869E-03  0.6070E-04  0.2663E+05
   -1.850010   30.69302  0.2478E-14  0.8343E-05  0.2913E-06  0.4564E-03  0.4232E-04  0.9368E+07
   -1.900008   30.69085  0.2478E-14  0.6637E-05  0.6101E-06  0.2105E-03  0.3479E-04 -0.2115E+07
   -1.950005   30.71139  0.2478E-14  0.4680E-05  0.1504E-05  0.1983E-03  0.1850E-04 -0.1973E+06
   -2.000002   30.71252  0.2478E-14  0.0000E+00  0.0000E+00  0.0000E+00  0.3565E-04  0.0000E+00
