 1 - depth, m
 2 - temperature, C
 3 - salinity, kg/kg
 4 - turbulent kinetic energy, m**2/s**2
 5 - dissipation rate, m**2/s**3
 6 - kinematic heat conductance, m**2/s
 7 - modulus of horizontal velocity, m/s
 8 - Richardson number, n/d
   -0.000000   30.47957  0.1007E-13  0.5311E-05  0.3253E-06  0.5258E-04  0.2594E-02  0.1432E+04
   -0.049997   30.51130  0.1007E-13  0.8810E-05  0.1428E-06  0.1929E-03  0.1426E-02  0.4470E+03
   -0.099994   30.52222  0.1007E-13  0.1053E-04  0.9953E-07  0.3972E-03  0.1087E-02  0.8491E+01
   -0.149992   30.52568  0.1007E-13  0.1164E-04  0.8345E-07  0.4883E-03  0.9629E-03  0.4265E+01
   -0.199991   30.52837  0.1007E-13  0.1250E-04  0.7405E-07  0.6429E-03  0.8647E-03  0.2752E+01
   -0.249989   30.53036  0.1007E-13  0.1319E-04  0.6791E-07  0.7653E-03  0.7902E-03  0.2054E+01
   -0.299988   30.53199  0.1007E-13  0.1376E-04  0.6352E-07  0.8817E-03  0.7279E-03  0.1681E+01
   -0.349988   30.53336  0.1007E-13  0.1424E-04  0.6015E-07  0.9932E-03  0.6731E-03  0.1553E+01
   -0.399988   30.53455  0.1007E-13  0.1467E-04  0.5742E-07  0.1107E-02  0.6220E-03  0.1474E+01
   -0.449988   30.53559  0.1007E-13  0.1505E-04  0.5515E-07  0.1218E-02  0.5751E-03  0.1446E+01
   -0.499988   30.53652  0.1007E-13  0.1538E-04  0.5324E-07  0.1322E-02  0.5328E-03  0.1431E+01
   -0.549989   30.53736  0.1007E-13  0.1567E-04  0.5164E-07  0.1417E-02  0.4947E-03  0.1428E+01
   -0.599989   30.53813  0.1007E-13  0.1592E-04  0.5030E-07  0.1503E-02  0.4603E-03  0.1419E+01
   -0.649990   30.53884  0.1007E-13  0.1612E-04  0.4917E-07  0.1580E-02  0.4291E-03  0.1424E+01
   -0.699992   30.53951  0.1007E-13  0.1629E-04  0.4823E-07  0.1646E-02  0.4008E-03  0.1421E+01
   -0.749993   30.54014  0.1007E-13  0.1643E-04  0.4746E-07  0.1702E-02  0.3750E-03  0.1435E+01
   -0.799995   30.54074  0.1007E-13  0.1653E-04  0.4683E-07  0.1747E-02  0.3517E-03  0.1441E+01
   -0.849996   30.54132  0.1007E-13  0.1661E-04  0.4633E-07  0.1782E-02  0.3303E-03  0.1468E+01
   -0.899998   30.54188  0.1007E-13  0.1665E-04  0.4596E-07  0.1807E-02  0.3108E-03  0.1491E+01
   -0.949999   30.54243  0.1007E-13  0.1668E-04  0.4570E-07  0.1821E-02  0.2929E-03  0.1546E+01
   -1.000001   30.54296  0.1007E-13  0.1667E-04  0.4556E-07  0.1828E-02  0.2765E-03  0.1611E+01
   -1.050003   30.54349  0.1007E-13  0.1665E-04  0.4553E-07  0.1823E-02  0.2612E-03  0.1794E+01
   -1.100005   30.54402  0.1007E-13  0.1661E-04  0.4561E-07  0.1934E-02  0.2469E-03  0.5765E+01
   -1.150006   30.54451  0.1007E-13  0.1654E-04  0.4584E-07  0.1702E-02  0.2343E-03  0.1367E+02
   -1.200008   30.54506  0.1007E-13  0.1644E-04  0.4621E-07  0.1748E-02  0.2209E-03  0.2585E+01
   -1.250009   30.54559  0.1007E-13  0.1632E-04  0.4676E-07  0.1716E-02  0.2082E-03  0.2725E+01
   -1.300011   30.54613  0.1007E-13  0.1617E-04  0.4754E-07  0.1661E-02  0.1959E-03  0.3216E+01
   -1.350012   30.54668  0.1007E-13  0.1598E-04  0.4861E-07  0.1596E-02  0.1840E-03  0.3831E+01
   -1.400013   30.54726  0.1007E-13  0.1576E-04  0.5008E-07  0.1513E-02  0.1724E-03  0.4792E+01
   -1.450014   30.54786  0.1007E-13  0.1548E-04  0.5210E-07  0.1431E-02  0.1609E-03  0.6108E+01
   -1.500014   30.54850  0.1007E-13  0.1516E-04  0.5493E-07  0.1314E-02  0.1496E-03  0.8457E+01
   -1.550015   30.54920  0.1007E-13  0.1476E-04  0.5900E-07  0.1229E-02  0.1381E-03  0.1230E+02
   -1.600015   30.54996  0.1007E-13  0.1427E-04  0.6537E-07  0.1081E-02  0.1269E-03  0.3265E+02
   -1.650014   30.55092  0.1007E-13  0.1363E-04  0.7544E-07  0.9990E-03  0.1146E-03 -0.2388E+03
   -1.700014   30.55204  0.1007E-13  0.1275E-04  0.9297E-07  0.8141E-03  0.1023E-03  0.3316E+04
   -1.750013   30.55397  0.1007E-13  0.1165E-04  0.1212E-06  0.7332E-03  0.8613E-04  0.8949E+05
   -1.800012   30.55538  0.1007E-13  0.1020E-04  0.1826E-06  0.5060E-03  0.7418E-04  0.7907E+05
   -1.850010   30.56241  0.1007E-13  0.8653E-05  0.2987E-06  0.4737E-03  0.5220E-04  0.3412E+08
   -1.900008   30.56026  0.1007E-13  0.6870E-05  0.6198E-06  0.2196E-03  0.4294E-04 -0.5358E+05
   -1.950005   30.58021  0.1007E-13  0.4825E-05  0.1530E-05  0.2002E-03  0.2291E-04 -0.2645E+06
   -2.000002   30.58128  0.1007E-13  0.0000E+00  0.0000E+00  0.0000E+00  0.4374E-04  0.0000E+00
