 1 - depth, m
 2 - temperature, C
 3 - salinity, kg/kg
 4 - turbulent kinetic energy, m**2/s**2
 5 - dissipation rate, m**2/s**3
 6 - kinematic heat conductance, m**2/s
 7 - modulus of horizontal velocity, m/s
 8 - Richardson number, n/d
   -0.000000   30.55396  0.4447E-14  0.4832E-05  0.3002E-06  0.5013E-04  0.1339E-02  0.6741E+04
   -0.049997   30.58475  0.4447E-14  0.8312E-05  0.1340E-06  0.1791E-03  0.7604E-03  0.1250E+03
   -0.099994   30.59640  0.4447E-14  0.1008E-04  0.9252E-07  0.3993E-03  0.5592E-03  0.2628E+02
   -0.149992   30.59967  0.4447E-14  0.1119E-04  0.7766E-07  0.4817E-03  0.4938E-03  0.1291E+02
   -0.199991   30.60225  0.4447E-14  0.1205E-04  0.6896E-07  0.6435E-03  0.4410E-03  0.8276E+01
   -0.249989   30.60413  0.4447E-14  0.1274E-04  0.6326E-07  0.7692E-03  0.4015E-03  0.6108E+01
   -0.299988   30.60566  0.4447E-14  0.1330E-04  0.5919E-07  0.8946E-03  0.3686E-03  0.4858E+01
   -0.349988   30.60694  0.4447E-14  0.1376E-04  0.5614E-07  0.1008E-02  0.3405E-03  0.4154E+01
   -0.399988   30.60805  0.4447E-14  0.1415E-04  0.5377E-07  0.1112E-02  0.3156E-03  0.3698E+01
   -0.449988   30.60903  0.4447E-14  0.1448E-04  0.5184E-07  0.1208E-02  0.2937E-03  0.3472E+01
   -0.499988   30.60992  0.4447E-14  0.1477E-04  0.5024E-07  0.1297E-02  0.2743E-03  0.3374E+01
   -0.549989   30.61073  0.4447E-14  0.1502E-04  0.4890E-07  0.1378E-02  0.2570E-03  0.3329E+01
   -0.599989   30.61148  0.4447E-14  0.1524E-04  0.4777E-07  0.1451E-02  0.2413E-03  0.3326E+01
   -0.649991   30.61218  0.4447E-14  0.1542E-04  0.4682E-07  0.1517E-02  0.2270E-03  0.3368E+01
   -0.699992   30.61284  0.4447E-14  0.1558E-04  0.4601E-07  0.1576E-02  0.2138E-03  0.3440E+01
   -0.749993   30.61347  0.4447E-14  0.1571E-04  0.4533E-07  0.1626E-02  0.2016E-03  0.3553E+01
   -0.799995   30.61407  0.4447E-14  0.1581E-04  0.4477E-07  0.1669E-02  0.1903E-03  0.3697E+01
   -0.849996   30.61464  0.4447E-14  0.1589E-04  0.4431E-07  0.1705E-02  0.1798E-03  0.3888E+01
   -0.899998   30.61520  0.4447E-14  0.1595E-04  0.4396E-07  0.1732E-02  0.1699E-03  0.4116E+01
   -0.949999   30.61575  0.4447E-14  0.1599E-04  0.4371E-07  0.1751E-02  0.1605E-03  0.4408E+01
   -1.000001   30.61628  0.4447E-14  0.1601E-04  0.4355E-07  0.1762E-02  0.1517E-03  0.4751E+01
   -1.050003   30.61680  0.4447E-14  0.1600E-04  0.4350E-07  0.1763E-02  0.1433E-03  0.5384E+01
   -1.100005   30.61732  0.4447E-14  0.1598E-04  0.4357E-07  0.1850E-02  0.1353E-03  0.1781E+02
   -1.150006   30.61781  0.4447E-14  0.1593E-04  0.4377E-07  0.1679E-02  0.1281E-03  0.4047E+02
   -1.200008   30.61835  0.4447E-14  0.1585E-04  0.4409E-07  0.1705E-02  0.1207E-03  0.7771E+01
   -1.250009   30.61888  0.4447E-14  0.1575E-04  0.4459E-07  0.1675E-02  0.1136E-03  0.8270E+01
   -1.300011   30.61941  0.4447E-14  0.1563E-04  0.4530E-07  0.1625E-02  0.1068E-03  0.9689E+01
   -1.350012   30.61996  0.4447E-14  0.1547E-04  0.4626E-07  0.1566E-02  0.1002E-03  0.1158E+02
   -1.400013   30.62052  0.4447E-14  0.1527E-04  0.4758E-07  0.1489E-02  0.9374E-04  0.1434E+02
   -1.450014   30.62112  0.4447E-14  0.1503E-04  0.4937E-07  0.1412E-02  0.8741E-04  0.1825E+02
   -1.500014   30.62174  0.4447E-14  0.1474E-04  0.5187E-07  0.1301E-02  0.8119E-04  0.2488E+02
   -1.550015   30.62243  0.4447E-14  0.1439E-04  0.5540E-07  0.1216E-02  0.7494E-04  0.3542E+02
   -1.600015   30.62317  0.4447E-14  0.1395E-04  0.6082E-07  0.1074E-02  0.6882E-04  0.6774E+02
   -1.650014   30.62407  0.4447E-14  0.1338E-04  0.6924E-07  0.9919E-03  0.6227E-04  0.8169E+04
   -1.700014   30.62509  0.4447E-14  0.1261E-04  0.8433E-07  0.8139E-03  0.5581E-04  0.1372E+05
   -1.750013   30.62691  0.4447E-14  0.1157E-04  0.1092E-06  0.7296E-03  0.4730E-04  0.6823E+05
   -1.800012   30.62844  0.4447E-14  0.1019E-04  0.1628E-06  0.5157E-03  0.4055E-04  0.2830E+05
   -1.850010   30.63459  0.4447E-14  0.8662E-05  0.2616E-06  0.4659E-03  0.2911E-04  0.1530E+08
   -1.900008   30.63335  0.4447E-14  0.6868E-05  0.5464E-06  0.2168E-03  0.2365E-04 -0.4546E+05
   -1.950005   30.65233  0.4447E-14  0.4804E-05  0.1365E-05  0.1882E-03  0.1282E-04 -0.1263E+07
   -2.000002   30.65443  0.4447E-14  0.0000E+00  0.0000E+00  0.0000E+00  0.2345E-04  0.0000E+00
