 1 - depth, m
 2 - temperature, C
 3 - salinity, kg/kg
 4 - turbulent kinetic energy, m**2/s**2
 5 - dissipation rate, m**2/s**3
 6 - kinematic heat conductance, m**2/s
 7 - modulus of horizontal velocity, m/s
 8 - Richardson number, n/d
   -0.000000   30.51839  0.3470E-13  0.4763E-05  0.2952E-06  0.4969E-04  0.1034E-02  0.9163E+04
   -0.049997   30.54908  0.3470E-13  0.8264E-05  0.1313E-06  0.1793E-03  0.5862E-03  0.5475E+02
   -0.099994   30.56066  0.3470E-13  0.1002E-04  0.9064E-07  0.4038E-03  0.4303E-03  0.5056E+02
   -0.149992   30.56385  0.3470E-13  0.1112E-04  0.7627E-07  0.4834E-03  0.3805E-03  0.2469E+02
   -0.199991   30.56640  0.3470E-13  0.1197E-04  0.6781E-07  0.6455E-03  0.3400E-03  0.1596E+02
   -0.249989   30.56825  0.3470E-13  0.1265E-04  0.6225E-07  0.7706E-03  0.3097E-03  0.1179E+02
   -0.299988   30.56976  0.3470E-13  0.1320E-04  0.5828E-07  0.8955E-03  0.2844E-03  0.9408E+01
   -0.349988   30.57103  0.3470E-13  0.1366E-04  0.5530E-07  0.1009E-02  0.2628E-03  0.8030E+01
   -0.399988   30.57212  0.3470E-13  0.1404E-04  0.5297E-07  0.1112E-02  0.2436E-03  0.7170E+01
   -0.449988   30.57310  0.3470E-13  0.1437E-04  0.5108E-07  0.1208E-02  0.2268E-03  0.6709E+01
   -0.499988   30.57397  0.3470E-13  0.1466E-04  0.4951E-07  0.1296E-02  0.2118E-03  0.6540E+01
   -0.549989   30.57478  0.3470E-13  0.1490E-04  0.4819E-07  0.1377E-02  0.1985E-03  0.6427E+01
   -0.599990   30.57552  0.3470E-13  0.1512E-04  0.4708E-07  0.1450E-02  0.1864E-03  0.6443E+01
   -0.649991   30.57621  0.3470E-13  0.1530E-04  0.4614E-07  0.1515E-02  0.1753E-03  0.6494E+01
   -0.699992   30.57687  0.3470E-13  0.1545E-04  0.4535E-07  0.1573E-02  0.1652E-03  0.6656E+01
   -0.749993   30.57749  0.3470E-13  0.1558E-04  0.4468E-07  0.1624E-02  0.1558E-03  0.6841E+01
   -0.799995   30.57808  0.3470E-13  0.1568E-04  0.4412E-07  0.1667E-02  0.1471E-03  0.7144E+01
   -0.849996   30.57865  0.3470E-13  0.1576E-04  0.4367E-07  0.1702E-02  0.1389E-03  0.7473E+01
   -0.899998   30.57920  0.3470E-13  0.1582E-04  0.4332E-07  0.1729E-02  0.1313E-03  0.7941E+01
   -0.950000   30.57974  0.3470E-13  0.1586E-04  0.4307E-07  0.1748E-02  0.1241E-03  0.8454E+01
   -1.000001   30.58026  0.3470E-13  0.1588E-04  0.4291E-07  0.1759E-02  0.1172E-03  0.9146E+01
   -1.050003   30.58078  0.3470E-13  0.1587E-04  0.4286E-07  0.1760E-02  0.1108E-03  0.1031E+02
   -1.100005   30.58130  0.3470E-13  0.1584E-04  0.4291E-07  0.1847E-02  0.1046E-03  0.3434E+02
   -1.150006   30.58178  0.3470E-13  0.1579E-04  0.4310E-07  0.1678E-02  0.9906E-04  0.7704E+02
   -1.200008   30.58231  0.3470E-13  0.1572E-04  0.4342E-07  0.1704E-02  0.9333E-04  0.1479E+02
   -1.250009   30.58283  0.3470E-13  0.1562E-04  0.4390E-07  0.1674E-02  0.8784E-04  0.1578E+02
   -1.300011   30.58336  0.3470E-13  0.1550E-04  0.4459E-07  0.1625E-02  0.8258E-04  0.1836E+02
   -1.350012   30.58389  0.3470E-13  0.1534E-04  0.4553E-07  0.1566E-02  0.7746E-04  0.2197E+02
   -1.400013   30.58445  0.3470E-13  0.1515E-04  0.4680E-07  0.1490E-02  0.7249E-04  0.2695E+02
   -1.450014   30.58503  0.3470E-13  0.1492E-04  0.4854E-07  0.1413E-02  0.6759E-04  0.3429E+02
   -1.500014   30.58565  0.3470E-13  0.1463E-04  0.5096E-07  0.1303E-02  0.6279E-04  0.4615E+02
   -1.550015   30.58632  0.3470E-13  0.1429E-04  0.5439E-07  0.1217E-02  0.5796E-04  0.6543E+02
   -1.600015   30.58704  0.3470E-13  0.1385E-04  0.5964E-07  0.1076E-02  0.5323E-04  0.1242E+03
   -1.650015   30.58793  0.3470E-13  0.1330E-04  0.6777E-07  0.9937E-03  0.4815E-04  0.3298E+03
   -1.700014   30.58891  0.3470E-13  0.1255E-04  0.8229E-07  0.8143E-03  0.4320E-04  0.4392E+05
   -1.750013   30.59064  0.3470E-13  0.1153E-04  0.1065E-06  0.7330E-03  0.3663E-04  0.6394E+05
   -1.800012   30.59218  0.3470E-13  0.1016E-04  0.1601E-06  0.5099E-03  0.3136E-04  0.2735E+06
   -1.850010   30.59798  0.3470E-13  0.8652E-05  0.2551E-06  0.4694E-03  0.2249E-04  0.1243E+09
   -1.900008   30.59692  0.3470E-13  0.6876E-05  0.5325E-06  0.2158E-03  0.1834E-04 -0.1333E+06
   -1.950006   30.61525  0.3470E-13  0.4797E-05  0.1331E-05  0.1875E-03  0.9892E-05 -0.1707E+07
   -2.000003   30.61733  0.3470E-13  0.0000E+00  0.0000E+00  0.0000E+00  0.1812E-04  0.0000E+00
