 1 - depth, m
 2 - temperature, C
 3 - salinity, kg/kg
 4 - turbulent kinetic energy, m**2/s**2
 5 - dissipation rate, m**2/s**3
 6 - kinematic heat conductance, m**2/s
 7 - modulus of horizontal velocity, m/s
 8 - Richardson number, n/d
   -0.000000   29.48605  0.1746E-13  0.4527E-05  0.2703E-06  0.4873E-04  0.1643E-02  0.3686E+04
   -0.049997   29.51431  0.1746E-13  0.7764E-05  0.1202E-06  0.1738E-03  0.9336E-03  0.2635E+04
   -0.099994   29.52512  0.1746E-13  0.9418E-05  0.8277E-07  0.3912E-03  0.6823E-03  0.1920E+02
   -0.149992   29.52812  0.1746E-13  0.1046E-04  0.6957E-07  0.4721E-03  0.6023E-03  0.9379E+01
   -0.199991   29.53051  0.1746E-13  0.1127E-04  0.6184E-07  0.6294E-03  0.5376E-03  0.6045E+01
   -0.249989   29.53226  0.1746E-13  0.1192E-04  0.5679E-07  0.7525E-03  0.4891E-03  0.4454E+01
   -0.299989   29.53369  0.1746E-13  0.1245E-04  0.5320E-07  0.8749E-03  0.4487E-03  0.3559E+01
   -0.349988   29.53489  0.1746E-13  0.1289E-04  0.5052E-07  0.9859E-03  0.4141E-03  0.3036E+01
   -0.399988   29.53593  0.1746E-13  0.1327E-04  0.4844E-07  0.1088E-02  0.3835E-03  0.2719E+01
   -0.449988   29.53686  0.1746E-13  0.1359E-04  0.4676E-07  0.1182E-02  0.3566E-03  0.2544E+01
   -0.499988   29.53769  0.1746E-13  0.1388E-04  0.4538E-07  0.1269E-02  0.3328E-03  0.2489E+01
   -0.549989   29.53846  0.1746E-13  0.1412E-04  0.4423E-07  0.1349E-02  0.3115E-03  0.2447E+01
   -0.599990   29.53917  0.1746E-13  0.1434E-04  0.4327E-07  0.1422E-02  0.2922E-03  0.2463E+01
   -0.649991   29.53984  0.1746E-13  0.1453E-04  0.4246E-07  0.1487E-02  0.2747E-03  0.2483E+01
   -0.699992   29.54046  0.1746E-13  0.1469E-04  0.4179E-07  0.1544E-02  0.2586E-03  0.2555E+01
   -0.749993   29.54106  0.1746E-13  0.1482E-04  0.4123E-07  0.1595E-02  0.2437E-03  0.2627E+01
   -0.799995   29.54163  0.1746E-13  0.1494E-04  0.4078E-07  0.1638E-02  0.2299E-03  0.2757E+01
   -0.849996   29.54219  0.1746E-13  0.1503E-04  0.4042E-07  0.1673E-02  0.2170E-03  0.2884E+01
   -0.899998   29.54272  0.1746E-13  0.1510E-04  0.4016E-07  0.1701E-02  0.2049E-03  0.3080E+01
   -0.950000   29.54325  0.1746E-13  0.1515E-04  0.3999E-07  0.1720E-02  0.1935E-03  0.3279E+01
   -1.000002   29.54376  0.1746E-13  0.1519E-04  0.3991E-07  0.1732E-02  0.1827E-03  0.3564E+01
   -1.050003   29.54427  0.1746E-13  0.1520E-04  0.3992E-07  0.1735E-02  0.1725E-03  0.4021E+01
   -1.100005   29.54477  0.1746E-13  0.1519E-04  0.4003E-07  0.1813E-02  0.1627E-03  0.1357E+02
   -1.150007   29.54525  0.1746E-13  0.1516E-04  0.4027E-07  0.1665E-02  0.1540E-03  0.2972E+02
   -1.200008   29.54577  0.1746E-13  0.1511E-04  0.4062E-07  0.1684E-02  0.1450E-03  0.5773E+01
   -1.250010   29.54628  0.1746E-13  0.1504E-04  0.4112E-07  0.1654E-02  0.1364E-03  0.6204E+01
   -1.300011   29.54680  0.1746E-13  0.1494E-04  0.4181E-07  0.1608E-02  0.1282E-03  0.7198E+01
   -1.350012   29.54734  0.1746E-13  0.1481E-04  0.4273E-07  0.1552E-02  0.1201E-03  0.8634E+01
   -1.400013   29.54789  0.1746E-13  0.1464E-04  0.4396E-07  0.1479E-02  0.1123E-03  0.1054E+02
   -1.450014   29.54847  0.1746E-13  0.1444E-04  0.4559E-07  0.1404E-02  0.1047E-03  0.1340E+02
   -1.500015   29.54909  0.1746E-13  0.1419E-04  0.4783E-07  0.1297E-02  0.9721E-04  0.1782E+02
   -1.550015   29.54976  0.1746E-13  0.1389E-04  0.5095E-07  0.1212E-02  0.8969E-04  0.2502E+02
   -1.600015   29.55048  0.1746E-13  0.1350E-04  0.5561E-07  0.1071E-02  0.8235E-04  0.4268E+02
   -1.650015   29.55134  0.1746E-13  0.1301E-04  0.6270E-07  0.9909E-03  0.7455E-04  0.3600E+03
   -1.700015   29.55231  0.1746E-13  0.1235E-04  0.7529E-07  0.8133E-03  0.6701E-04 -0.7395E+03
   -1.750014   29.55393  0.1746E-13  0.1143E-04  0.9620E-07  0.7326E-03  0.5722E-04  0.2446E+05
   -1.800012   29.55546  0.1746E-13  0.1016E-04  0.1400E-06  0.5162E-03  0.4916E-04 -0.7357E+04
   -1.850011   29.56079  0.1746E-13  0.8670E-05  0.2214E-06  0.4673E-03  0.3577E-04  0.1081E+09
   -1.900009   29.56046  0.1746E-13  0.6863E-05  0.4605E-06  0.2082E-03  0.2891E-04  0.3488E+06
   -1.950006   29.57863  0.1746E-13  0.4759E-05  0.1177E-05  0.1761E-03  0.1570E-04 -0.4625E+06
   -2.000003   29.58136  0.1746E-13  0.0000E+00  0.0000E+00  0.0000E+00  0.2762E-04  0.0000E+00
