 1 - depth, m
 2 - temperature, C
 3 - salinity, kg/kg
 4 - turbulent kinetic energy, m**2/s**2
 5 - dissipation rate, m**2/s**3
 6 - kinematic heat conductance, m**2/s
 7 - modulus of horizontal velocity, m/s
 8 - Richardson number, n/d
   -0.000000   31.45171  0.1155E-12  0.4993E-05  0.3114E-06  0.4922E-04  0.5000E-03  0.2158E+06
   -0.049997   31.48544  0.1155E-12  0.8803E-05  0.1386E-06  0.1918E-03  0.2794E-03  0.1537E+06
   -0.099994   31.49628  0.1155E-12  0.1059E-04  0.9671E-07  0.4189E-03  0.2065E-03  0.2024E+03
   -0.149992   31.49956  0.1155E-12  0.1173E-04  0.8165E-07  0.4993E-03  0.1831E-03  0.1005E+03
   -0.199990   31.50216  0.1155E-12  0.1261E-04  0.7272E-07  0.6651E-03  0.1639E-03  0.6581E+02
   -0.249989   31.50407  0.1155E-12  0.1330E-04  0.6681E-07  0.7930E-03  0.1495E-03  0.4886E+02
   -0.299988   31.50561  0.1155E-12  0.1387E-04  0.6256E-07  0.9197E-03  0.1375E-03  0.3908E+02
   -0.349988   31.50691  0.1155E-12  0.1434E-04  0.5936E-07  0.1035E-02  0.1272E-03  0.3334E+02
   -0.399987   31.50803  0.1155E-12  0.1474E-04  0.5686E-07  0.1140E-02  0.1181E-03  0.2975E+02
   -0.449987   31.50903  0.1155E-12  0.1508E-04  0.5482E-07  0.1237E-02  0.1100E-03  0.2778E+02
   -0.499988   31.50993  0.1155E-12  0.1537E-04  0.5312E-07  0.1326E-02  0.1029E-03  0.2704E+02
   -0.549988   31.51075  0.1155E-12  0.1562E-04  0.5170E-07  0.1408E-02  0.9646E-04  0.2651E+02
   -0.599989   31.51150  0.1155E-12  0.1583E-04  0.5050E-07  0.1482E-02  0.9066E-04  0.2653E+02
   -0.649990   31.51221  0.1155E-12  0.1602E-04  0.4948E-07  0.1548E-02  0.8536E-04  0.2668E+02
   -0.699991   31.51288  0.1155E-12  0.1617E-04  0.4861E-07  0.1607E-02  0.8048E-04  0.2731E+02
   -0.749992   31.51351  0.1155E-12  0.1630E-04  0.4789E-07  0.1658E-02  0.7598E-04  0.2800E+02
   -0.799994   31.51411  0.1155E-12  0.1641E-04  0.4729E-07  0.1701E-02  0.7177E-04  0.2921E+02
   -0.849995   31.51469  0.1155E-12  0.1649E-04  0.4680E-07  0.1736E-02  0.6785E-04  0.3049E+02
   -0.899997   31.51526  0.1155E-12  0.1655E-04  0.4643E-07  0.1763E-02  0.6415E-04  0.3237E+02
   -0.949999   31.51580  0.1155E-12  0.1658E-04  0.4616E-07  0.1782E-02  0.6068E-04  0.3440E+02
   -1.000000   31.51634  0.1155E-12  0.1660E-04  0.4599E-07  0.1792E-02  0.5738E-04  0.3721E+02
   -1.050002   31.51687  0.1155E-12  0.1659E-04  0.4595E-07  0.1793E-02  0.5425E-04  0.4183E+02
   -1.100004   31.51739  0.1155E-12  0.1656E-04  0.4602E-07  0.1885E-02  0.5125E-04  0.1386E+03
   -1.150005   31.51789  0.1155E-12  0.1650E-04  0.4624E-07  0.1702E-02  0.4859E-04  0.3165E+03
   -1.200007   31.51843  0.1155E-12  0.1643E-04  0.4659E-07  0.1731E-02  0.4581E-04  0.6020E+02
   -1.250008   31.51897  0.1155E-12  0.1632E-04  0.4714E-07  0.1701E-02  0.4315E-04  0.6421E+02
   -1.300010   31.51951  0.1155E-12  0.1619E-04  0.4790E-07  0.1650E-02  0.4059E-04  0.7477E+02
   -1.350011   31.52006  0.1155E-12  0.1602E-04  0.4896E-07  0.1589E-02  0.3810E-04  0.8976E+02
   -1.400012   31.52063  0.1155E-12  0.1582E-04  0.5039E-07  0.1510E-02  0.3568E-04  0.1106E+03
   -1.450012   31.52124  0.1155E-12  0.1557E-04  0.5234E-07  0.1432E-02  0.3329E-04  0.1417E+03
   -1.500013   31.52188  0.1155E-12  0.1527E-04  0.5506E-07  0.1318E-02  0.3094E-04  0.1930E+03
   -1.550013   31.52258  0.1155E-12  0.1490E-04  0.5894E-07  0.1234E-02  0.2857E-04  0.2800E+03
   -1.600013   31.52334  0.1155E-12  0.1444E-04  0.6490E-07  0.1089E-02  0.2626E-04  0.5691E+03
   -1.650013   31.52427  0.1155E-12  0.1384E-04  0.7420E-07  0.1006E-02  0.2375E-04  0.2953E+04
   -1.700013   31.52535  0.1155E-12  0.1302E-04  0.9065E-07  0.8209E-03  0.2127E-04 -0.9180E+05
   -1.750012   31.52725  0.1155E-12  0.1196E-04  0.1173E-06  0.7443E-03  0.1798E-04  0.9005E+06
   -1.800010   31.52871  0.1155E-12  0.1057E-04  0.1771E-06  0.5156E-03  0.1551E-04  0.6652E+06
   -1.850009   31.53535  0.1155E-12  0.9042E-05  0.2862E-06  0.4811E-03  0.1110E-04  0.2953E+09
   -1.900006   31.53375  0.1155E-12  0.7220E-05  0.5925E-06  0.2189E-03  0.9107E-05 -0.6123E+06
   -1.950004   31.55344  0.1155E-12  0.5056E-05  0.1471E-05  0.1927E-03  0.4959E-05 -0.2050E+08
   -2.000001   31.55619  0.1155E-12  0.0000E+00  0.0000E+00  0.0000E+00  0.9011E-05  0.0000E+00
