 1 - depth, m
 2 - temperature, C
 3 - salinity, kg/kg
 4 - turbulent kinetic energy, m**2/s**2
 5 - dissipation rate, m**2/s**3
 6 - kinematic heat conductance, m**2/s
 7 - modulus of horizontal velocity, m/s
 8 - Richardson number, n/d
   -0.000000   30.61564  0.6407E-14  0.5037E-05  0.3139E-06  0.5167E-04  0.2053E-02  0.7314E+04
   -0.049997   30.64634  0.6407E-14  0.8488E-05  0.1395E-06  0.1807E-03  0.1160E-02  0.5960E+03
   -0.099994   30.65794  0.6408E-14  0.1025E-04  0.9607E-07  0.3971E-03  0.8603E-03  0.1211E+02
   -0.149992   30.66129  0.6408E-14  0.1137E-04  0.8043E-07  0.4811E-03  0.7597E-03  0.5960E+01
   -0.199991   30.66394  0.6408E-14  0.1224E-04  0.7129E-07  0.6415E-03  0.6788E-03  0.3817E+01
   -0.249989   30.66586  0.6408E-14  0.1293E-04  0.6531E-07  0.7673E-03  0.6182E-03  0.2811E+01
   -0.299988   30.66743  0.6408E-14  0.1349E-04  0.6105E-07  0.8921E-03  0.5677E-03  0.2233E+01
   -0.349988   30.66874  0.6408E-14  0.1396E-04  0.5786E-07  0.1004E-02  0.5245E-03  0.1910E+01
   -0.399988   30.66988  0.6408E-14  0.1435E-04  0.5537E-07  0.1108E-02  0.4862E-03  0.1715E+01
   -0.449988   30.67089  0.6408E-14  0.1469E-04  0.5333E-07  0.1205E-02  0.4523E-03  0.1624E+01
   -0.499988   30.67180  0.6408E-14  0.1498E-04  0.5164E-07  0.1296E-02  0.4220E-03  0.1589E+01
   -0.549989   30.67263  0.6408E-14  0.1524E-04  0.5022E-07  0.1379E-02  0.3949E-03  0.1570E+01
   -0.599989   30.67339  0.6408E-14  0.1546E-04  0.4902E-07  0.1455E-02  0.3703E-03  0.1568E+01
   -0.649991   30.67410  0.6408E-14  0.1564E-04  0.4801E-07  0.1523E-02  0.3478E-03  0.1581E+01
   -0.699992   30.67478  0.6408E-14  0.1580E-04  0.4716E-07  0.1582E-02  0.3273E-03  0.1607E+01
   -0.749993   30.67541  0.6408E-14  0.1593E-04  0.4644E-07  0.1633E-02  0.3084E-03  0.1647E+01
   -0.799995   30.67602  0.6408E-14  0.1603E-04  0.4585E-07  0.1676E-02  0.2910E-03  0.1704E+01
   -0.849996   30.67661  0.6408E-14  0.1611E-04  0.4537E-07  0.1710E-02  0.2748E-03  0.1780E+01
   -0.899998   30.67717  0.6408E-14  0.1616E-04  0.4500E-07  0.1736E-02  0.2596E-03  0.1880E+01
   -0.949999   30.67773  0.6408E-14  0.1619E-04  0.4473E-07  0.1754E-02  0.2454E-03  0.2009E+01
   -1.000001   30.67827  0.6408E-14  0.1620E-04  0.4457E-07  0.1764E-02  0.2319E-03  0.2167E+01
   -1.050003   30.67880  0.6408E-14  0.1619E-04  0.4451E-07  0.1763E-02  0.2191E-03  0.2452E+01
   -1.100005   30.67933  0.6408E-14  0.1616E-04  0.4457E-07  0.1857E-02  0.2069E-03  0.8055E+01
   -1.150006   30.67983  0.6408E-14  0.1610E-04  0.4478E-07  0.1669E-02  0.1961E-03  0.1878E+02
   -1.200008   30.68038  0.6408E-14  0.1602E-04  0.4511E-07  0.1700E-02  0.1847E-03  0.3556E+01
   -1.250009   30.68091  0.6408E-14  0.1591E-04  0.4563E-07  0.1669E-02  0.1739E-03  0.3783E+01
   -1.300011   30.68146  0.6408E-14  0.1577E-04  0.4637E-07  0.1618E-02  0.1635E-03  0.4429E+01
   -1.350012   30.68201  0.6408E-14  0.1559E-04  0.4738E-07  0.1557E-02  0.1533E-03  0.5322E+01
   -1.400013   30.68259  0.6408E-14  0.1538E-04  0.4878E-07  0.1477E-02  0.1435E-03  0.6597E+01
   -1.450014   30.68320  0.6408E-14  0.1513E-04  0.5068E-07  0.1398E-02  0.1338E-03  0.8474E+01
   -1.500014   30.68384  0.6408E-14  0.1482E-04  0.5336E-07  0.1284E-02  0.1242E-03  0.1163E+02
   -1.550015   30.68455  0.6408E-14  0.1444E-04  0.5719E-07  0.1201E-02  0.1146E-03  0.1695E+02
   -1.600015   30.68531  0.6408E-14  0.1397E-04  0.6314E-07  0.1054E-02  0.1052E-03  0.4516E+02
   -1.650014   30.68626  0.6408E-14  0.1336E-04  0.7250E-07  0.9754E-03  0.9494E-04  0.3114E+03
   -1.700014   30.68736  0.6408E-14  0.1253E-04  0.8908E-07  0.7891E-03  0.8481E-04  0.3642E+05
   -1.750013   30.68928  0.6408E-14  0.1145E-04  0.1161E-06  0.7167E-03  0.7146E-04  0.5271E+05
   -1.800012   30.69082  0.6408E-14  0.1002E-04  0.1735E-06  0.4887E-03  0.6133E-04  0.1933E+05
   -1.850010   30.69756  0.6408E-14  0.8460E-05  0.2826E-06  0.4600E-03  0.4315E-04  0.3790E+07
   -1.900008   30.69587  0.6408E-14  0.6682E-05  0.5962E-06  0.2037E-03  0.3527E-04  0.4724E+06
   -1.950005   30.71611  0.6408E-14  0.4704E-05  0.1462E-05  0.1984E-03  0.1862E-04 -0.4098E+06
   -2.000002   30.71671  0.6408E-14  0.0000E+00  0.0000E+00  0.0000E+00  0.3550E-04  0.0000E+00
