 1 - depth, m
 2 - temperature, C
 3 - salinity, kg/kg
 4 - turbulent kinetic energy, m**2/s**2
 5 - dissipation rate, m**2/s**3
 6 - kinematic heat conductance, m**2/s
 7 - modulus of horizontal velocity, m/s
 8 - Richardson number, n/d
   -0.000000   30.31081  0.1041E-13  0.4791E-05  0.2922E-06  0.5022E-04  0.1836E-02  0.6355E+04
   -0.049997   30.34029  0.1041E-13  0.8138E-05  0.1300E-06  0.1776E-03  0.1037E-02  0.9542E+03
   -0.099994   30.35142  0.1041E-13  0.9846E-05  0.8960E-07  0.3932E-03  0.7655E-03  0.1576E+02
   -0.149992   30.35460  0.1041E-13  0.1092E-04  0.7513E-07  0.4764E-03  0.6755E-03  0.7718E+01
   -0.199991   30.35712  0.1041E-13  0.1176E-04  0.6667E-07  0.6349E-03  0.6032E-03  0.4952E+01
   -0.249989   30.35895  0.1041E-13  0.1243E-04  0.6113E-07  0.7595E-03  0.5489E-03  0.3640E+01
   -0.299988   30.36044  0.1041E-13  0.1298E-04  0.5718E-07  0.8832E-03  0.5038E-03  0.2897E+01
   -0.349988   30.36169  0.1041E-13  0.1343E-04  0.5423E-07  0.9952E-03  0.4651E-03  0.2468E+01
   -0.399988   30.36278  0.1041E-13  0.1381E-04  0.5193E-07  0.1098E-02  0.4309E-03  0.2207E+01
   -0.449988   30.36374  0.1041E-13  0.1415E-04  0.5006E-07  0.1193E-02  0.4008E-03  0.2069E+01
   -0.499988   30.36461  0.1041E-13  0.1443E-04  0.4851E-07  0.1282E-02  0.3740E-03  0.2024E+01
   -0.549989   30.36540  0.1041E-13  0.1468E-04  0.4722E-07  0.1364E-02  0.3500E-03  0.1989E+01
   -0.599990   30.36613  0.1041E-13  0.1490E-04  0.4613E-07  0.1438E-02  0.3283E-03  0.1995E+01
   -0.649991   30.36682  0.1041E-13  0.1508E-04  0.4521E-07  0.1504E-02  0.3086E-03  0.2005E+01
   -0.699992   30.36746  0.1041E-13  0.1524E-04  0.4444E-07  0.1563E-02  0.2904E-03  0.2053E+01
   -0.749993   30.36808  0.1041E-13  0.1537E-04  0.4379E-07  0.1614E-02  0.2737E-03  0.2103E+01
   -0.799995   30.36866  0.1041E-13  0.1548E-04  0.4326E-07  0.1657E-02  0.2582E-03  0.2196E+01
   -0.849996   30.36923  0.1041E-13  0.1556E-04  0.4283E-07  0.1692E-02  0.2438E-03  0.2291E+01
   -0.899998   30.36977  0.1041E-13  0.1562E-04  0.4250E-07  0.1719E-02  0.2303E-03  0.2436E+01
   -0.950000   30.37031  0.1041E-13  0.1567E-04  0.4227E-07  0.1738E-02  0.2176E-03  0.2590E+01
   -1.000001   30.37083  0.1041E-13  0.1569E-04  0.4213E-07  0.1750E-02  0.2055E-03  0.2805E+01
   -1.050003   30.37134  0.1041E-13  0.1569E-04  0.4210E-07  0.1752E-02  0.1941E-03  0.3158E+01
   -1.100005   30.37185  0.1041E-13  0.1567E-04  0.4217E-07  0.1835E-02  0.1832E-03  0.1054E+02
   -1.150006   30.37234  0.1041E-13  0.1562E-04  0.4237E-07  0.1674E-02  0.1735E-03  0.2366E+02
   -1.200008   30.37287  0.1041E-13  0.1556E-04  0.4270E-07  0.1697E-02  0.1634E-03  0.4534E+01
   -1.250009   30.37338  0.1041E-13  0.1547E-04  0.4319E-07  0.1667E-02  0.1538E-03  0.4841E+01
   -1.300011   30.37391  0.1041E-13  0.1535E-04  0.4388E-07  0.1619E-02  0.1445E-03  0.5625E+01
   -1.350012   30.37444  0.1041E-13  0.1520E-04  0.4482E-07  0.1561E-02  0.1355E-03  0.6738E+01
   -1.400013   30.37500  0.1041E-13  0.1502E-04  0.4608E-07  0.1487E-02  0.1268E-03  0.8259E+01
   -1.450014   30.37558  0.1041E-13  0.1479E-04  0.4780E-07  0.1410E-02  0.1182E-03  0.1052E+02
   -1.500014   30.37620  0.1041E-13  0.1452E-04  0.5018E-07  0.1301E-02  0.1098E-03  0.1415E+02
   -1.550015   30.37687  0.1041E-13  0.1418E-04  0.5354E-07  0.1217E-02  0.1013E-03  0.2013E+02
   -1.600015   30.37759  0.1041E-13  0.1377E-04  0.5862E-07  0.1075E-02  0.9303E-04  0.3605E+02
   -1.650015   30.37846  0.1041E-13  0.1323E-04  0.6651E-07  0.9952E-03  0.8422E-04  0.4867E+03
   -1.700014   30.37946  0.1041E-13  0.1250E-04  0.8061E-07  0.8125E-03  0.7553E-04 -0.5698E+04
   -1.750013   30.38115  0.1041E-13  0.1153E-04  0.1034E-06  0.7348E-03  0.6423E-04  0.1386E+06
   -1.800012   30.38258  0.1041E-13  0.1022E-04  0.1518E-06  0.5114E-03  0.5538E-04  0.9588E+05
   -1.850010   30.38828  0.1041E-13  0.8710E-05  0.2438E-06  0.4713E-03  0.4003E-04  0.7248E+07
   -1.900008   30.38752  0.1041E-13  0.6901E-05  0.5127E-06  0.2123E-03  0.3253E-04 -0.4251E+05
   -1.950006   30.40568  0.1041E-13  0.4799E-05  0.1284E-05  0.1841E-03  0.1767E-04 -0.6291E+06
   -2.000003   30.40779  0.1041E-13  0.0000E+00  0.0000E+00  0.0000E+00  0.3154E-04  0.0000E+00
