 1 - depth, m
 2 - temperature, C
 3 - salinity, kg/kg
 4 - turbulent kinetic energy, m**2/s**2
 5 - dissipation rate, m**2/s**3
 6 - kinematic heat conductance, m**2/s
 7 - modulus of horizontal velocity, m/s
 8 - Richardson number, n/d
   -0.000000   30.10758  0.1395E-14  0.5695E-05  0.3402E-06  0.5254E-04  0.3206E-02  0.1281E+04
   -0.049997   30.14168  0.1395E-14  0.9302E-05  0.1476E-06  0.2131E-03  0.1716E-02  0.5507E+02
   -0.099994   30.15176  0.1395E-14  0.1098E-04  0.1047E-06  0.4004E-03  0.1345E-02  0.5025E+01
   -0.149992   30.15537  0.1395E-14  0.1209E-04  0.8810E-07  0.5024E-03  0.1197E-02  0.2617E+01
   -0.199990   30.15813  0.1395E-14  0.1296E-04  0.7842E-07  0.6494E-03  0.1082E-02  0.1729E+01
   -0.249989   30.16020  0.1395E-14  0.1367E-04  0.7210E-07  0.7652E-03  0.9926E-03  0.1338E+01
   -0.299988   30.16192  0.1395E-14  0.1426E-04  0.6753E-07  0.8760E-03  0.9172E-03  0.1226E+01
   -0.349988   30.16338  0.1395E-14  0.1480E-04  0.6391E-07  0.9963E-03  0.8477E-03  0.1273E+01
   -0.399987   30.16463  0.1395E-14  0.1530E-04  0.6090E-07  0.1127E-02  0.7805E-03  0.1297E+01
   -0.449987   30.16572  0.1395E-14  0.1575E-04  0.5838E-07  0.1255E-02  0.7180E-03  0.1309E+01
   -0.499988   30.16668  0.1395E-14  0.1614E-04  0.5628E-07  0.1375E-02  0.6614E-03  0.1316E+01
   -0.549988   30.16754  0.1395E-14  0.1649E-04  0.5455E-07  0.1485E-02  0.6104E-03  0.1313E+01
   -0.599989   30.16832  0.1395E-14  0.1679E-04  0.5312E-07  0.1583E-02  0.5645E-03  0.1306E+01
   -0.649990   30.16904  0.1395E-14  0.1703E-04  0.5195E-07  0.1670E-02  0.5231E-03  0.1294E+01
   -0.699991   30.16971  0.1395E-14  0.1724E-04  0.5101E-07  0.1744E-02  0.4858E-03  0.1279E+01
   -0.749992   30.17035  0.1395E-14  0.1740E-04  0.5026E-07  0.1804E-02  0.4521E-03  0.1260E+01
   -0.799994   30.17096  0.1395E-14  0.1752E-04  0.4970E-07  0.1850E-02  0.4218E-03  0.1238E+01
   -0.849995   30.17154  0.1395E-14  0.1760E-04  0.4930E-07  0.1883E-02  0.3944E-03  0.1212E+01
   -0.899997   30.17211  0.1395E-14  0.1766E-04  0.4905E-07  0.1903E-02  0.3698E-03  0.1185E+01
   -0.949999   30.17267  0.1395E-14  0.1768E-04  0.4893E-07  0.1911E-02  0.3476E-03  0.1161E+01
   -1.000000   30.17323  0.1395E-14  0.1768E-04  0.4894E-07  0.1911E-02  0.3276E-03  0.1160E+01
   -1.050002   30.17378  0.1395E-14  0.1765E-04  0.4908E-07  0.1896E-02  0.3093E-03  0.1222E+01
   -1.100004   30.17433  0.1395E-14  0.1760E-04  0.4934E-07  0.2043E-02  0.2925E-03  0.3687E+01
   -1.150005   30.17483  0.1395E-14  0.1752E-04  0.4977E-07  0.1723E-02  0.2783E-03  0.9609E+01
   -1.200007   30.17543  0.1395E-14  0.1741E-04  0.5036E-07  0.1795E-02  0.2625E-03  0.1745E+01
   -1.250008   30.17601  0.1395E-14  0.1728E-04  0.5117E-07  0.1760E-02  0.2477E-03  0.1863E+01
   -1.300009   30.17659  0.1395E-14  0.1711E-04  0.5227E-07  0.1694E-02  0.2335E-03  0.2216E+01
   -1.350011   30.17719  0.1395E-14  0.1690E-04  0.5373E-07  0.1623E-02  0.2196E-03  0.2702E+01
   -1.400012   30.17783  0.1395E-14  0.1665E-04  0.5571E-07  0.1527E-02  0.2059E-03  0.3435E+01
   -1.450012   30.17850  0.1395E-14  0.1634E-04  0.5840E-07  0.1441E-02  0.1924E-03  0.4523E+01
   -1.500013   30.17922  0.1395E-14  0.1597E-04  0.6218E-07  0.1315E-02  0.1789E-03  0.6497E+01
   -1.550013   30.18003  0.1395E-14  0.1551E-04  0.6767E-07  0.1231E-02  0.1653E-03  0.1132E+02
   -1.600013   30.18093  0.1395E-14  0.1493E-04  0.7647E-07  0.1076E-02  0.1517E-03  0.4727E+01
   -1.650013   30.18214  0.1395E-14  0.1416E-04  0.9015E-07  0.9881E-03  0.1363E-03  0.1245E+05
   -1.700012   30.18354  0.1395E-14  0.1312E-04  0.1144E-06  0.8035E-03  0.1209E-03 -0.6849E+03
   -1.750011   30.18609  0.1395E-14  0.1188E-04  0.1524E-06  0.7205E-03  0.1002E-03  0.2298E+07
   -1.800010   30.18762  0.1395E-14  0.1030E-04  0.2362E-06  0.4911E-03  0.8646E-04  0.3274E+05
   -1.850008   30.19743  0.1395E-14  0.8743E-05  0.3946E-06  0.4697E-03  0.5890E-04  0.2567E+08
   -1.900006   30.19341  0.1395E-14  0.6970E-05  0.8326E-06  0.2174E-03  0.4909E-04  0.5179E+05
   -1.950004   30.21920  0.1395E-14  0.5019E-05  0.1957E-05  0.2250E-03  0.2592E-04 -0.1879E+06
   -2.000000   30.21855  0.1395E-14  0.0000E+00  0.0000E+00  0.0000E+00  0.5248E-04  0.0000E+00
