 1 - depth, m
 2 - temperature, C
 3 - salinity, kg/kg
 4 - turbulent kinetic energy, m**2/s**2
 5 - dissipation rate, m**2/s**3
 6 - kinematic heat conductance, m**2/s
 7 - modulus of horizontal velocity, m/s
 8 - Richardson number, n/d
   -0.000000   29.83281  0.1653E-13  0.5130E-05  0.2912E-06  0.5100E-04  0.3094E-02  0.2102E+04
   -0.049997   29.86235  0.1653E-13  0.8390E-05  0.1266E-06  0.1980E-03  0.1664E-02  0.2336E+03
   -0.099994   29.87155  0.1653E-13  0.9919E-05  0.8953E-07  0.3852E-03  0.1293E-02  0.5261E+01
   -0.149992   29.87476  0.1653E-13  0.1092E-04  0.7538E-07  0.4812E-03  0.1149E-02  0.2710E+01
   -0.199991   29.87723  0.1653E-13  0.1172E-04  0.6712E-07  0.6226E-03  0.1036E-02  0.1792E+01
   -0.249989   29.87909  0.1653E-13  0.1236E-04  0.6172E-07  0.7351E-03  0.9485E-03  0.1384E+01
   -0.299989   29.88062  0.1653E-13  0.1291E-04  0.5780E-07  0.8437E-03  0.8747E-03  0.1259E+01
   -0.349988   29.88193  0.1653E-13  0.1340E-04  0.5471E-07  0.9593E-03  0.8068E-03  0.1282E+01
   -0.399988   29.88305  0.1653E-13  0.1384E-04  0.5217E-07  0.1082E-02  0.7415E-03  0.1301E+01
   -0.449988   29.88402  0.1653E-13  0.1425E-04  0.5004E-07  0.1204E-02  0.6810E-03  0.1310E+01
   -0.499988   29.88488  0.1653E-13  0.1461E-04  0.4826E-07  0.1318E-02  0.6264E-03  0.1317E+01
   -0.549989   29.88566  0.1653E-13  0.1493E-04  0.4679E-07  0.1422E-02  0.5773E-03  0.1313E+01
   -0.599990   29.88636  0.1653E-13  0.1520E-04  0.4557E-07  0.1517E-02  0.5331E-03  0.1305E+01
   -0.649991   29.88701  0.1653E-13  0.1542E-04  0.4458E-07  0.1599E-02  0.4934E-03  0.1293E+01
   -0.699992   29.88762  0.1653E-13  0.1561E-04  0.4377E-07  0.1670E-02  0.4577E-03  0.1277E+01
   -0.749993   29.88819  0.1653E-13  0.1576E-04  0.4314E-07  0.1729E-02  0.4256E-03  0.1257E+01
   -0.799995   29.88874  0.1653E-13  0.1587E-04  0.4265E-07  0.1774E-02  0.3966E-03  0.1236E+01
   -0.849996   29.88927  0.1653E-13  0.1596E-04  0.4229E-07  0.1808E-02  0.3705E-03  0.1211E+01
   -0.899998   29.88979  0.1653E-13  0.1601E-04  0.4205E-07  0.1829E-02  0.3471E-03  0.1191E+01
   -0.950000   29.89029  0.1653E-13  0.1604E-04  0.4193E-07  0.1840E-02  0.3259E-03  0.1177E+01
   -1.000001   29.89079  0.1653E-13  0.1604E-04  0.4191E-07  0.1841E-02  0.3067E-03  0.1183E+01
   -1.050003   29.89128  0.1653E-13  0.1603E-04  0.4199E-07  0.1832E-02  0.2893E-03  0.1253E+01
   -1.100005   29.89177  0.1653E-13  0.1599E-04  0.4218E-07  0.1954E-02  0.2732E-03  0.3884E+01
   -1.150006   29.89223  0.1653E-13  0.1593E-04  0.4250E-07  0.1691E-02  0.2595E-03  0.9574E+01
   -1.200008   29.89276  0.1653E-13  0.1584E-04  0.4294E-07  0.1747E-02  0.2445E-03  0.1776E+01
   -1.250009   29.89326  0.1653E-13  0.1573E-04  0.4357E-07  0.1712E-02  0.2305E-03  0.1899E+01
   -1.300011   29.89378  0.1653E-13  0.1559E-04  0.4441E-07  0.1654E-02  0.2169E-03  0.2238E+01
   -1.350012   29.89431  0.1653E-13  0.1542E-04  0.4554E-07  0.1588E-02  0.2037E-03  0.2710E+01
   -1.400013   29.89487  0.1653E-13  0.1521E-04  0.4704E-07  0.1501E-02  0.1908E-03  0.3392E+01
   -1.450014   29.89545  0.1653E-13  0.1495E-04  0.4907E-07  0.1419E-02  0.1780E-03  0.4399E+01
   -1.500015   29.89608  0.1653E-13  0.1464E-04  0.5189E-07  0.1297E-02  0.1655E-03  0.6135E+01
   -1.550015   29.89677  0.1653E-13  0.1427E-04  0.5590E-07  0.1215E-02  0.1527E-03  0.9132E+01
   -1.600015   29.89752  0.1653E-13  0.1380E-04  0.6218E-07  0.1061E-02  0.1403E-03  0.2576E+02
   -1.650015   29.89850  0.1653E-13  0.1318E-04  0.7191E-07  0.9838E-03  0.1264E-03  0.7549E+02
   -1.700014   29.89958  0.1653E-13  0.1233E-04  0.8906E-07  0.7952E-03  0.1130E-03  0.8743E+02
   -1.750013   29.90162  0.1653E-13  0.1124E-04  0.1169E-06  0.7188E-03  0.9462E-04  0.4802E+06
   -1.800012   29.90302  0.1653E-13  0.9817E-05  0.1778E-06  0.4901E-03  0.8142E-04  0.1029E+06
   -1.850010   29.91043  0.1653E-13  0.8303E-05  0.2915E-06  0.4608E-03  0.5668E-04  0.5895E+07
   -1.900008   29.90804  0.1653E-13  0.6588E-05  0.6103E-06  0.2088E-03  0.4673E-04 -0.1118E+06
   -1.950006   29.92884  0.1653E-13  0.4653E-05  0.1494E-05  0.2005E-03  0.2481E-04 -0.1288E+06
   -2.000003   29.93025  0.1653E-13  0.0000E+00  0.0000E+00  0.0000E+00  0.4774E-04  0.0000E+00
