 1 - depth, m
 2 - temperature, C
 3 - salinity, kg/kg
 4 - turbulent kinetic energy, m**2/s**2
 5 - dissipation rate, m**2/s**3
 6 - kinematic heat conductance, m**2/s
 7 - modulus of horizontal velocity, m/s
 8 - Richardson number, n/d
   -0.000000   30.47751  0.1629E-13  0.5301E-05  0.3237E-06  0.5255E-04  0.2597E-02  0.2335E+04
   -0.049997   30.50920  0.1629E-13  0.8790E-05  0.1422E-06  0.1925E-03  0.1428E-02  0.4733E+02
   -0.099994   30.52010  0.1629E-13  0.1050E-04  0.9917E-07  0.3961E-03  0.1089E-02  0.8507E+01
   -0.149992   30.52357  0.1629E-13  0.1160E-04  0.8317E-07  0.4871E-03  0.9648E-03  0.4275E+01
   -0.199991   30.52627  0.1629E-13  0.1246E-04  0.7381E-07  0.6410E-03  0.8665E-03  0.2759E+01
   -0.249989   30.52826  0.1629E-13  0.1315E-04  0.6769E-07  0.7630E-03  0.7917E-03  0.2058E+01
   -0.299988   30.52988  0.1629E-13  0.1371E-04  0.6331E-07  0.8787E-03  0.7293E-03  0.1684E+01
   -0.349988   30.53126  0.1629E-13  0.1419E-04  0.5996E-07  0.9895E-03  0.6744E-03  0.1557E+01
   -0.399988   30.53245  0.1629E-13  0.1461E-04  0.5724E-07  0.1103E-02  0.6231E-03  0.1478E+01
   -0.449988   30.53349  0.1629E-13  0.1499E-04  0.5497E-07  0.1213E-02  0.5761E-03  0.1451E+01
   -0.499988   30.53442  0.1629E-13  0.1532E-04  0.5307E-07  0.1315E-02  0.5337E-03  0.1436E+01
   -0.549989   30.53527  0.1629E-13  0.1560E-04  0.5148E-07  0.1409E-02  0.4955E-03  0.1432E+01
   -0.599989   30.53604  0.1629E-13  0.1584E-04  0.5014E-07  0.1494E-02  0.4610E-03  0.1424E+01
   -0.649990   30.53675  0.1629E-13  0.1605E-04  0.4902E-07  0.1570E-02  0.4297E-03  0.1428E+01
   -0.699992   30.53742  0.1629E-13  0.1621E-04  0.4808E-07  0.1635E-02  0.4014E-03  0.1426E+01
   -0.749993   30.53806  0.1629E-13  0.1634E-04  0.4731E-07  0.1689E-02  0.3756E-03  0.1439E+01
   -0.799995   30.53866  0.1629E-13  0.1644E-04  0.4669E-07  0.1733E-02  0.3522E-03  0.1445E+01
   -0.849996   30.53925  0.1629E-13  0.1651E-04  0.4620E-07  0.1767E-02  0.3308E-03  0.1471E+01
   -0.899998   30.53981  0.1629E-13  0.1655E-04  0.4584E-07  0.1790E-02  0.3113E-03  0.1494E+01
   -0.949999   30.54036  0.1629E-13  0.1657E-04  0.4559E-07  0.1803E-02  0.2935E-03  0.1547E+01
   -1.000001   30.54090  0.1629E-13  0.1657E-04  0.4545E-07  0.1808E-02  0.2771E-03  0.1621E+01
   -1.050003   30.54143  0.1629E-13  0.1654E-04  0.4543E-07  0.1802E-02  0.2618E-03  0.1815E+01
   -1.100005   30.54196  0.1629E-13  0.1649E-04  0.4552E-07  0.1917E-02  0.2474E-03  0.5819E+01
   -1.150006   30.54245  0.1629E-13  0.1641E-04  0.4577E-07  0.1672E-02  0.2348E-03  0.1416E+02
   -1.200008   30.54302  0.1629E-13  0.1631E-04  0.4616E-07  0.1722E-02  0.2212E-03  0.2644E+01
   -1.250009   30.54356  0.1629E-13  0.1618E-04  0.4674E-07  0.1688E-02  0.2084E-03  0.2801E+01
   -1.300011   30.54410  0.1629E-13  0.1602E-04  0.4755E-07  0.1631E-02  0.1961E-03  0.3310E+01
   -1.350012   30.54466  0.1629E-13  0.1582E-04  0.4868E-07  0.1565E-02  0.1840E-03  0.3981E+01
   -1.400013   30.54525  0.1629E-13  0.1558E-04  0.5023E-07  0.1478E-02  0.1723E-03  0.5003E+01
   -1.450014   30.54587  0.1629E-13  0.1530E-04  0.5236E-07  0.1397E-02  0.1607E-03  0.6462E+01
   -1.500014   30.54652  0.1629E-13  0.1495E-04  0.5539E-07  0.1275E-02  0.1492E-03  0.9077E+01
   -1.550015   30.54725  0.1629E-13  0.1453E-04  0.5975E-07  0.1196E-02  0.1376E-03  0.1356E+02
   -1.600015   30.54804  0.1629E-13  0.1401E-04  0.6676E-07  0.1046E-02  0.1263E-03  0.8404E+02
   -1.650014   30.54907  0.1629E-13  0.1332E-04  0.7774E-07  0.9663E-03  0.1135E-03  0.5391E+03
   -1.700014   30.55024  0.1629E-13  0.1238E-04  0.9707E-07  0.7806E-03  0.1009E-03  0.9375E+04
   -1.750013   30.55248  0.1629E-13  0.1120E-04  0.1284E-06  0.7048E-03  0.8346E-04  0.6503E+04
   -1.800012   30.55382  0.1629E-13  0.9734E-05  0.1960E-06  0.4853E-03  0.7191E-04 -0.4452E+04
   -1.850010   30.56199  0.1629E-13  0.8209E-05  0.3260E-06  0.4547E-03  0.4915E-04  0.1435E+08
   -1.900008   30.55874  0.1629E-13  0.6501E-05  0.6835E-06  0.2077E-03  0.4078E-04  0.3933E+05
   -1.950005   30.58014  0.1629E-13  0.4615E-05  0.1643E-05  0.2109E-03  0.2130E-04 -0.1210E+07
   -2.000002   30.58034  0.1629E-13  0.0000E+00  0.0000E+00  0.0000E+00  0.4316E-04  0.0000E+00
