 1 - depth, m
 2 - temperature, C
 3 - salinity, kg/kg
 4 - turbulent kinetic energy, m**2/s**2
 5 - dissipation rate, m**2/s**3
 6 - kinematic heat conductance, m**2/s
 7 - modulus of horizontal velocity, m/s
 8 - Richardson number, n/d
   -0.000000   30.45490  0.1331E-13  0.4866E-05  0.3035E-06  0.5017E-04  0.1427E-02  0.7269E+04
   -0.049997   30.48592  0.1331E-13  0.8357E-05  0.1353E-06  0.1803E-03  0.8106E-03  0.3396E+03
   -0.099994   30.49757  0.1331E-13  0.1013E-04  0.9339E-07  0.4002E-03  0.5963E-03  0.2370E+02
   -0.149992   30.50085  0.1331E-13  0.1125E-04  0.7837E-07  0.4833E-03  0.5267E-03  0.1165E+02
   -0.199991   30.50345  0.1331E-13  0.1212E-04  0.6958E-07  0.6457E-03  0.4705E-03  0.7470E+01
   -0.249989   30.50534  0.1331E-13  0.1281E-04  0.6383E-07  0.7717E-03  0.4285E-03  0.5506E+01
   -0.299988   30.50687  0.1331E-13  0.1338E-04  0.5974E-07  0.8977E-03  0.3935E-03  0.4382E+01
   -0.349988   30.50816  0.1331E-13  0.1385E-04  0.5667E-07  0.1012E-02  0.3635E-03  0.3738E+01
   -0.399988   30.50928  0.1331E-13  0.1424E-04  0.5428E-07  0.1116E-02  0.3370E-03  0.3334E+01
   -0.449988   30.51027  0.1331E-13  0.1458E-04  0.5234E-07  0.1213E-02  0.3137E-03  0.3122E+01
   -0.499988   30.51116  0.1331E-13  0.1487E-04  0.5074E-07  0.1302E-02  0.2931E-03  0.3040E+01
   -0.549989   30.51198  0.1331E-13  0.1513E-04  0.4940E-07  0.1383E-02  0.2746E-03  0.2991E+01
   -0.599989   30.51274  0.1331E-13  0.1535E-04  0.4827E-07  0.1457E-02  0.2579E-03  0.2995E+01
   -0.649991   30.51344  0.1331E-13  0.1553E-04  0.4732E-07  0.1523E-02  0.2426E-03  0.3023E+01
   -0.699992   30.51411  0.1331E-13  0.1569E-04  0.4651E-07  0.1582E-02  0.2286E-03  0.3095E+01
   -0.749993   30.51474  0.1331E-13  0.1583E-04  0.4584E-07  0.1633E-02  0.2156E-03  0.3186E+01
   -0.799995   30.51535  0.1331E-13  0.1593E-04  0.4529E-07  0.1676E-02  0.2036E-03  0.3324E+01
   -0.849996   30.51593  0.1331E-13  0.1602E-04  0.4484E-07  0.1711E-02  0.1923E-03  0.3483E+01
   -0.899998   30.51650  0.1331E-13  0.1608E-04  0.4450E-07  0.1738E-02  0.1818E-03  0.3698E+01
   -0.949999   30.51705  0.1331E-13  0.1612E-04  0.4425E-07  0.1757E-02  0.1718E-03  0.3945E+01
   -1.000001   30.51758  0.1331E-13  0.1614E-04  0.4412E-07  0.1768E-02  0.1624E-03  0.4265E+01
   -1.050003   30.51812  0.1331E-13  0.1614E-04  0.4408E-07  0.1769E-02  0.1534E-03  0.4816E+01
   -1.100005   30.51864  0.1331E-13  0.1611E-04  0.4416E-07  0.1857E-02  0.1449E-03  0.1599E+02
   -1.150006   30.51914  0.1331E-13  0.1606E-04  0.4438E-07  0.1683E-02  0.1373E-03  0.3627E+02
   -1.200008   30.51969  0.1331E-13  0.1599E-04  0.4473E-07  0.1710E-02  0.1293E-03  0.6948E+01
   -1.250009   30.52022  0.1331E-13  0.1589E-04  0.4526E-07  0.1679E-02  0.1218E-03  0.7406E+01
   -1.300011   30.52076  0.1331E-13  0.1577E-04  0.4600E-07  0.1630E-02  0.1145E-03  0.8649E+01
   -1.350012   30.52132  0.1331E-13  0.1561E-04  0.4701E-07  0.1570E-02  0.1074E-03  0.1036E+02
   -1.400013   30.52189  0.1331E-13  0.1541E-04  0.4838E-07  0.1493E-02  0.1005E-03  0.1278E+02
   -1.450014   30.52250  0.1331E-13  0.1517E-04  0.5025E-07  0.1414E-02  0.9373E-04  0.1632E+02
   -1.500014   30.52314  0.1331E-13  0.1488E-04  0.5284E-07  0.1303E-02  0.8707E-04  0.2216E+02
   -1.550015   30.52384  0.1331E-13  0.1452E-04  0.5651E-07  0.1218E-02  0.8037E-04  0.3182E+02
   -1.600015   30.52460  0.1331E-13  0.1408E-04  0.6215E-07  0.1076E-02  0.7381E-04  0.6298E+02
   -1.650014   30.52552  0.1331E-13  0.1350E-04  0.7096E-07  0.9924E-03  0.6675E-04  0.1531E+04
   -1.700014   30.52659  0.1331E-13  0.1271E-04  0.8655E-07  0.8133E-03  0.5974E-04  0.2886E+03
   -1.750013   30.52843  0.1331E-13  0.1168E-04  0.1119E-06  0.7316E-03  0.5061E-04  0.4594E+06
   -1.800012   30.52994  0.1331E-13  0.1030E-04  0.1668E-06  0.5105E-03  0.4349E-04  0.5392E+05
   -1.850010   30.53625  0.1331E-13  0.8780E-05  0.2688E-06  0.4691E-03  0.3116E-04  0.1527E+08
   -1.900008   30.53500  0.1331E-13  0.6978E-05  0.5626E-06  0.2153E-03  0.2541E-04 -0.4377E+06
   -1.950005   30.55423  0.1331E-13  0.4879E-05  0.1398E-05  0.1895E-03  0.1374E-04 -0.4843E+06
   -2.000002   30.55675  0.1331E-13  0.0000E+00  0.0000E+00  0.0000E+00  0.2514E-04  0.0000E+00
