 1 - depth, m
 2 - temperature, C
 3 - salinity, kg/kg
 4 - turbulent kinetic energy, m**2/s**2
 5 - dissipation rate, m**2/s**3
 6 - kinematic heat conductance, m**2/s
 7 - modulus of horizontal velocity, m/s
 8 - Richardson number, n/d
   -0.000000   31.59143  0.2438E-13  0.5330E-05  0.3555E-06  0.5336E-04  0.6436E-03  0.6245E+04
   -0.049997   31.62537  0.2438E-13  0.9304E-05  0.1575E-06  0.1887E-03  0.3699E-03  0.1494E+04
   -0.099994   31.63825  0.2438E-13  0.1129E-04  0.1083E-06  0.4334E-03  0.2687E-03  0.1367E+03
   -0.149992   31.64170  0.2438E-13  0.1253E-04  0.9117E-07  0.5074E-03  0.2386E-03  0.6822E+02
   -0.199990   31.64452  0.2438E-13  0.1350E-04  0.8108E-07  0.6839E-03  0.2135E-03  0.4430E+02
   -0.249989   31.64655  0.2438E-13  0.1426E-04  0.7448E-07  0.8151E-03  0.1949E-03  0.3315E+02
   -0.299988   31.64821  0.2438E-13  0.1489E-04  0.6978E-07  0.9480E-03  0.1794E-03  0.2641E+02
   -0.349988   31.64960  0.2438E-13  0.1541E-04  0.6625E-07  0.1068E-02  0.1660E-03  0.2275E+02
   -0.399987   31.65080  0.2438E-13  0.1584E-04  0.6351E-07  0.1177E-02  0.1543E-03  0.2020E+02
   -0.449987   31.65187  0.2438E-13  0.1622E-04  0.6129E-07  0.1278E-02  0.1439E-03  0.1907E+02
   -0.499988   31.65284  0.2438E-13  0.1655E-04  0.5945E-07  0.1371E-02  0.1347E-03  0.1842E+02
   -0.549988   31.65372  0.2438E-13  0.1683E-04  0.5792E-07  0.1456E-02  0.1265E-03  0.1829E+02
   -0.599989   31.65454  0.2438E-13  0.1707E-04  0.5663E-07  0.1532E-02  0.1190E-03  0.1815E+02
   -0.649990   31.65530  0.2438E-13  0.1728E-04  0.5555E-07  0.1601E-02  0.1122E-03  0.1852E+02
   -0.699991   31.65603  0.2438E-13  0.1745E-04  0.5465E-07  0.1661E-02  0.1059E-03  0.1876E+02
   -0.749992   31.65671  0.2438E-13  0.1760E-04  0.5390E-07  0.1713E-02  0.1001E-03  0.1955E+02
   -0.799994   31.65737  0.2438E-13  0.1772E-04  0.5328E-07  0.1757E-02  0.9467E-04  0.2017E+02
   -0.849995   31.65800  0.2438E-13  0.1781E-04  0.5280E-07  0.1792E-02  0.8959E-04  0.2143E+02
   -0.899997   31.65862  0.2438E-13  0.1788E-04  0.5244E-07  0.1819E-02  0.8482E-04  0.2249E+02
   -0.949998   31.65922  0.2438E-13  0.1792E-04  0.5221E-07  0.1836E-02  0.8031E-04  0.2434E+02
   -1.000000   31.65981  0.2438E-13  0.1794E-04  0.5210E-07  0.1846E-02  0.7604E-04  0.2603E+02
   -1.050002   31.66039  0.2438E-13  0.1793E-04  0.5212E-07  0.1843E-02  0.7197E-04  0.2979E+02
   -1.100003   31.66097  0.2438E-13  0.1790E-04  0.5228E-07  0.1950E-02  0.6809E-04  0.9571E+02
   -1.150005   31.66151  0.2438E-13  0.1784E-04  0.5262E-07  0.1730E-02  0.6464E-04  0.2325E+03
   -1.200007   31.66213  0.2438E-13  0.1775E-04  0.5312E-07  0.1770E-02  0.6098E-04  0.4379E+02
   -1.250008   31.66272  0.2438E-13  0.1764E-04  0.5385E-07  0.1738E-02  0.5751E-04  0.4629E+02
   -1.300009   31.66333  0.2438E-13  0.1749E-04  0.5486E-07  0.1681E-02  0.5415E-04  0.5514E+02
   -1.350010   31.66395  0.2438E-13  0.1730E-04  0.5623E-07  0.1616E-02  0.5089E-04  0.6615E+02
   -1.400011   31.66460  0.2438E-13  0.1706E-04  0.5808E-07  0.1529E-02  0.4770E-04  0.8399E+02
   -1.450012   31.66529  0.2438E-13  0.1678E-04  0.6062E-07  0.1449E-02  0.4455E-04  0.1085E+03
   -1.500013   31.66602  0.2438E-13  0.1643E-04  0.6418E-07  0.1328E-02  0.4144E-04  0.1550E+03
   -1.550013   31.66684  0.2438E-13  0.1599E-04  0.6933E-07  0.1246E-02  0.3829E-04  0.2408E+03
   -1.600013   31.66773  0.2438E-13  0.1545E-04  0.7751E-07  0.1090E-02  0.3519E-04 -0.2450E+05
   -1.650013   31.66892  0.2438E-13  0.1473E-04  0.9009E-07  0.1011E-02  0.3171E-04  0.1006E+05
   -1.700012   31.67021  0.2438E-13  0.1376E-04  0.1122E-06  0.8190E-03  0.2834E-04 -0.4087E+05
   -1.750011   31.67265  0.2438E-13  0.1256E-04  0.1482E-06  0.7446E-03  0.2379E-04  0.5158E+06
   -1.800010   31.67424  0.2438E-13  0.1103E-04  0.2267E-06  0.5126E-03  0.2059E-04  0.1903E+07
   -1.850008   31.68315  0.2438E-13  0.9421E-05  0.3735E-06  0.4862E-03  0.1452E-04  0.1435E+10
   -1.900006   31.67991  0.2438E-13  0.7548E-05  0.7754E-06  0.2226E-03  0.1206E-04  0.5868E+07
   -1.950003   31.70419  0.2438E-13  0.5367E-05  0.1868E-05  0.2139E-03  0.6546E-05 -0.4625E+07
   -2.000000   31.70527  0.2438E-13  0.0000E+00  0.0000E+00  0.0000E+00  0.1222E-04  0.0000E+00
