 1 - depth, m
 2 - temperature, C
 3 - salinity, kg/kg
 4 - turbulent kinetic energy, m**2/s**2
 5 - dissipation rate, m**2/s**3
 6 - kinematic heat conductance, m**2/s
 7 - modulus of horizontal velocity, m/s
 8 - Richardson number, n/d
   -0.000000   31.30105  0.6668E-13  0.5175E-05  0.3310E-06  0.5052E-04  0.4883E-03  0.6189E+05
   -0.049997   31.33596  0.6668E-13  0.9112E-05  0.1473E-06  0.1941E-03  0.2742E-03  0.1713E+05
   -0.099994   31.34742  0.6668E-13  0.1098E-04  0.1025E-06  0.4259E-03  0.2025E-03  0.2100E+03
   -0.149992   31.35084  0.6668E-13  0.1216E-04  0.8651E-07  0.5052E-03  0.1796E-03  0.1047E+03
   -0.199990   31.35358  0.6668E-13  0.1308E-04  0.7705E-07  0.6749E-03  0.1609E-03  0.6850E+02
   -0.249989   31.35557  0.6668E-13  0.1381E-04  0.7080E-07  0.8044E-03  0.1469E-03  0.5098E+02
   -0.299988   31.35719  0.6668E-13  0.1440E-04  0.6632E-07  0.9332E-03  0.1351E-03  0.4079E+02
   -0.349988   31.35855  0.6668E-13  0.1489E-04  0.6296E-07  0.1050E-02  0.1251E-03  0.3488E+02
   -0.399987   31.35973  0.6668E-13  0.1530E-04  0.6032E-07  0.1156E-02  0.1162E-03  0.3113E+02
   -0.449987   31.36078  0.6668E-13  0.1565E-04  0.5818E-07  0.1254E-02  0.1083E-03  0.2915E+02
   -0.499988   31.36173  0.6668E-13  0.1595E-04  0.5640E-07  0.1345E-02  0.1014E-03  0.2837E+02
   -0.549988   31.36259  0.6668E-13  0.1621E-04  0.5491E-07  0.1427E-02  0.9510E-04  0.2790E+02
   -0.599989   31.36339  0.6668E-13  0.1644E-04  0.5366E-07  0.1501E-02  0.8944E-04  0.2792E+02
   -0.649990   31.36414  0.6668E-13  0.1663E-04  0.5260E-07  0.1567E-02  0.8426E-04  0.2817E+02
   -0.699991   31.36484  0.6668E-13  0.1678E-04  0.5170E-07  0.1626E-02  0.7949E-04  0.2883E+02
   -0.749992   31.36551  0.6668E-13  0.1691E-04  0.5095E-07  0.1676E-02  0.7508E-04  0.2967E+02
   -0.799994   31.36615  0.6668E-13  0.1702E-04  0.5033E-07  0.1718E-02  0.7097E-04  0.3095E+02
   -0.849995   31.36677  0.6668E-13  0.1710E-04  0.4983E-07  0.1752E-02  0.6713E-04  0.3244E+02
   -0.899997   31.36737  0.6668E-13  0.1715E-04  0.4945E-07  0.1777E-02  0.6351E-04  0.3445E+02
   -0.949999   31.36795  0.6668E-13  0.1718E-04  0.4919E-07  0.1793E-02  0.6010E-04  0.3680E+02
   -1.000000   31.36852  0.6668E-13  0.1719E-04  0.4904E-07  0.1801E-02  0.5686E-04  0.3982E+02
   -1.050002   31.36909  0.6668E-13  0.1717E-04  0.4902E-07  0.1798E-02  0.5378E-04  0.4500E+02
   -1.100004   31.36965  0.6668E-13  0.1713E-04  0.4913E-07  0.1905E-02  0.5084E-04  0.1462E+03
   -1.150005   31.37017  0.6668E-13  0.1706E-04  0.4941E-07  0.1682E-02  0.4824E-04  0.3552E+03
   -1.200007   31.37076  0.6668E-13  0.1696E-04  0.4984E-07  0.1724E-02  0.4547E-04  0.6613E+02
   -1.250008   31.37134  0.6668E-13  0.1684E-04  0.5048E-07  0.1690E-02  0.4284E-04  0.7052E+02
   -1.300009   31.37192  0.6668E-13  0.1668E-04  0.5139E-07  0.1634E-02  0.4031E-04  0.8301E+02
   -1.350011   31.37252  0.6668E-13  0.1648E-04  0.5263E-07  0.1569E-02  0.3784E-04  0.1005E+03
   -1.400011   31.37314  0.6668E-13  0.1625E-04  0.5434E-07  0.1484E-02  0.3543E-04  0.1259E+03
   -1.450012   31.37380  0.6668E-13  0.1596E-04  0.5668E-07  0.1400E-02  0.3306E-04  0.1641E+03
   -1.500013   31.37450  0.6668E-13  0.1561E-04  0.5999E-07  0.1283E-02  0.3071E-04  0.2295E+03
   -1.550013   31.37528  0.6668E-13  0.1518E-04  0.6478E-07  0.1196E-02  0.2834E-04  0.3509E+03
   -1.600013   31.37613  0.6668E-13  0.1464E-04  0.7233E-07  0.1051E-02  0.2599E-04  0.9006E+03
   -1.650013   31.37723  0.6668E-13  0.1393E-04  0.8435E-07  0.9666E-03  0.2342E-04  0.1345E+06
   -1.700012   31.37853  0.6668E-13  0.1295E-04  0.1054E-06  0.7878E-03  0.2080E-04  0.5757E+04
   -1.750011   31.38078  0.6668E-13  0.1175E-04  0.1393E-06  0.7077E-03  0.1738E-04  0.1408E+07
   -1.800010   31.38245  0.6668E-13  0.1018E-04  0.2141E-06  0.4830E-03  0.1488E-04  0.1732E+07
   -1.850008   31.39102  0.6668E-13  0.8572E-05  0.3539E-06  0.4587E-03  0.1022E-04  0.6227E+09
   -1.900006   31.38800  0.6668E-13  0.6797E-05  0.7452E-06  0.2076E-03  0.8434E-05 -0.1844E+07
   -1.950003   31.41189  0.6668E-13  0.4861E-05  0.1797E-05  0.2153E-03  0.4408E-05 -0.3579E+07
   -2.000000   31.41210  0.6668E-13  0.0000E+00  0.0000E+00  0.0000E+00  0.8819E-05  0.0000E+00
