 1 - depth, m
 2 - temperature, C
 3 - salinity, kg/kg
 4 - turbulent kinetic energy, m**2/s**2
 5 - dissipation rate, m**2/s**3
 6 - kinematic heat conductance, m**2/s
 7 - modulus of horizontal velocity, m/s
 8 - Richardson number, n/d
   -0.000000   30.41909  0.1539E-14  0.4740E-05  0.2948E-06  0.5051E-04  0.1176E-02  0.6820E+04
   -0.049997   30.44903  0.1539E-14  0.8188E-05  0.1311E-06  0.1748E-03  0.6737E-03  0.8852E+04
   -0.099994   30.46093  0.1539E-14  0.9947E-05  0.9002E-07  0.4030E-03  0.4894E-03  0.3847E+02
   -0.149992   30.46410  0.1539E-14  0.1104E-04  0.7570E-07  0.4791E-03  0.4326E-03  0.1874E+02
   -0.199991   30.46666  0.1539E-14  0.1188E-04  0.6727E-07  0.6412E-03  0.3862E-03  0.1209E+02
   -0.249989   30.46852  0.1539E-14  0.1255E-04  0.6173E-07  0.7659E-03  0.3515E-03  0.8963E+01
   -0.299989   30.47003  0.1539E-14  0.1310E-04  0.5776E-07  0.8902E-03  0.3226E-03  0.7126E+01
   -0.349988   30.47130  0.1539E-14  0.1355E-04  0.5478E-07  0.1003E-02  0.2978E-03  0.6112E+01
   -0.399988   30.47239  0.1539E-14  0.1393E-04  0.5246E-07  0.1106E-02  0.2760E-03  0.5433E+01
   -0.449988   30.47337  0.1539E-14  0.1426E-04  0.5056E-07  0.1201E-02  0.2567E-03  0.5117E+01
   -0.499988   30.47424  0.1539E-14  0.1454E-04  0.4899E-07  0.1289E-02  0.2397E-03  0.4960E+01
   -0.549989   30.47504  0.1539E-14  0.1478E-04  0.4767E-07  0.1370E-02  0.2244E-03  0.4910E+01
   -0.599990   30.47579  0.1539E-14  0.1499E-04  0.4655E-07  0.1442E-02  0.2106E-03  0.4890E+01
   -0.649991   30.47648  0.1539E-14  0.1517E-04  0.4560E-07  0.1508E-02  0.1980E-03  0.4966E+01
   -0.699992   30.47713  0.1539E-14  0.1532E-04  0.4479E-07  0.1566E-02  0.1865E-03  0.5051E+01
   -0.749993   30.47775  0.1539E-14  0.1544E-04  0.4410E-07  0.1617E-02  0.1758E-03  0.5233E+01
   -0.799995   30.47834  0.1539E-14  0.1554E-04  0.4353E-07  0.1660E-02  0.1659E-03  0.5418E+01
   -0.849996   30.47890  0.1539E-14  0.1562E-04  0.4306E-07  0.1695E-02  0.1566E-03  0.5712E+01
   -0.899998   30.47945  0.1539E-14  0.1567E-04  0.4269E-07  0.1722E-02  0.1479E-03  0.6015E+01
   -0.950000   30.47998  0.1539E-14  0.1571E-04  0.4241E-07  0.1742E-02  0.1397E-03  0.6454E+01
   -1.000001   30.48051  0.1539E-14  0.1572E-04  0.4223E-07  0.1753E-02  0.1319E-03  0.6915E+01
   -1.050003   30.48102  0.1539E-14  0.1571E-04  0.4214E-07  0.1755E-02  0.1246E-03  0.7848E+01
   -1.100005   30.48153  0.1539E-14  0.1568E-04  0.4217E-07  0.1839E-02  0.1176E-03  0.2594E+02
   -1.150006   30.48200  0.1539E-14  0.1563E-04  0.4232E-07  0.1676E-02  0.1113E-03  0.5806E+02
   -1.200008   30.48253  0.1539E-14  0.1555E-04  0.4259E-07  0.1700E-02  0.1049E-03  0.1122E+02
   -1.250010   30.48304  0.1539E-14  0.1545E-04  0.4302E-07  0.1671E-02  0.9867E-04  0.1186E+02
   -1.300011   30.48355  0.1539E-14  0.1532E-04  0.4365E-07  0.1623E-02  0.9271E-04  0.1386E+02
   -1.350012   30.48408  0.1539E-14  0.1517E-04  0.4452E-07  0.1565E-02  0.8694E-04  0.1644E+02
   -1.400013   30.48462  0.1539E-14  0.1497E-04  0.4571E-07  0.1491E-02  0.8131E-04  0.2026E+02
   -1.450014   30.48519  0.1539E-14  0.1474E-04  0.4735E-07  0.1414E-02  0.7581E-04  0.2558E+02
   -1.500015   30.48578  0.1539E-14  0.1446E-04  0.4963E-07  0.1306E-02  0.7039E-04  0.3450E+02
   -1.550015   30.48643  0.1539E-14  0.1412E-04  0.5286E-07  0.1220E-02  0.6498E-04  0.4863E+02
   -1.600015   30.48713  0.1539E-14  0.1369E-04  0.5780E-07  0.1081E-02  0.5966E-04  0.9186E+02
   -1.650015   30.48797  0.1539E-14  0.1315E-04  0.6552E-07  0.9967E-03  0.5401E-04  0.6037E+03
   -1.700014   30.48893  0.1539E-14  0.1241E-04  0.7919E-07  0.8198E-03  0.4841E-04  0.4653E+04
   -1.750013   30.49055  0.1539E-14  0.1144E-04  0.1016E-06  0.7359E-03  0.4121E-04  0.1709E+06
   -1.800012   30.49194  0.1539E-14  0.1012E-04  0.1489E-06  0.5184E-03  0.3543E-04  0.3840E+06
   -1.850010   30.49735  0.1539E-14  0.8637E-05  0.2383E-06  0.4722E-03  0.2563E-04  0.3707E+08
   -1.900008   30.49654  0.1539E-14  0.6826E-05  0.4957E-06  0.2131E-03  0.2081E-04  0.4763E+06
   -1.950006   30.51362  0.1539E-14  0.4736E-05  0.1247E-05  0.1832E-03  0.1124E-04 -0.5518E+06
   -2.000003   30.51585  0.1539E-14  0.0000E+00  0.0000E+00  0.0000E+00  0.2031E-04  0.0000E+00
