 1 - depth, m
 2 - temperature, C
 3 - salinity, kg/kg
 4 - turbulent kinetic energy, m**2/s**2
 5 - dissipation rate, m**2/s**3
 6 - kinematic heat conductance, m**2/s
 7 - modulus of horizontal velocity, m/s
 8 - Richardson number, n/d
   -0.000000   30.73198  0.8024E-14  0.4874E-05  0.2998E-06  0.4826E-04  0.3729E-03  0.2230E+06
   -0.049997   30.76499  0.8024E-14  0.8683E-05  0.1332E-06  0.1950E-03  0.2068E-03  0.3791E+06
   -0.099994   30.77529  0.8024E-14  0.1045E-04  0.9342E-07  0.4224E-03  0.1528E-03  0.4229E+03
   -0.149992   30.77844  0.8024E-14  0.1158E-04  0.7907E-07  0.5043E-03  0.1355E-03  0.2125E+03
   -0.199991   30.78095  0.8024E-14  0.1247E-04  0.7058E-07  0.6712E-03  0.1214E-03  0.1403E+03
   -0.249989   30.78279  0.8024E-14  0.1317E-04  0.6499E-07  0.8002E-03  0.1108E-03  0.1043E+03
   -0.299988   30.78429  0.8024E-14  0.1375E-04  0.6099E-07  0.9280E-03  0.1019E-03  0.8393E+02
   -0.349988   30.78556  0.8024E-14  0.1423E-04  0.5800E-07  0.1044E-02  0.9433E-04  0.7153E+02
   -0.399988   30.78666  0.8024E-14  0.1464E-04  0.5567E-07  0.1150E-02  0.8758E-04  0.6420E+02
   -0.449988   30.78764  0.8024E-14  0.1500E-04  0.5378E-07  0.1248E-02  0.8165E-04  0.5979E+02
   -0.499988   30.78853  0.8024E-14  0.1530E-04  0.5223E-07  0.1338E-02  0.7637E-04  0.5852E+02
   -0.549989   30.78934  0.8024E-14  0.1557E-04  0.5094E-07  0.1421E-02  0.7165E-04  0.5717E+02
   -0.599989   30.79009  0.8024E-14  0.1580E-04  0.4986E-07  0.1496E-02  0.6736E-04  0.5759E+02
   -0.649990   30.79080  0.8024E-14  0.1601E-04  0.4896E-07  0.1563E-02  0.6345E-04  0.5767E+02
   -0.699992   30.79147  0.8024E-14  0.1618E-04  0.4821E-07  0.1622E-02  0.5984E-04  0.5943E+02
   -0.749993   30.79210  0.8024E-14  0.1633E-04  0.4759E-07  0.1673E-02  0.5652E-04  0.6069E+02
   -0.799994   30.79271  0.8024E-14  0.1645E-04  0.4710E-07  0.1717E-02  0.5341E-04  0.6374E+02
   -0.849996   30.79329  0.8024E-14  0.1655E-04  0.4672E-07  0.1752E-02  0.5051E-04  0.6625E+02
   -0.899997   30.79386  0.8024E-14  0.1663E-04  0.4644E-07  0.1780E-02  0.4777E-04  0.7083E+02
   -0.949999   30.79442  0.8024E-14  0.1668E-04  0.4627E-07  0.1798E-02  0.4520E-04  0.7494E+02
   -1.000001   30.79497  0.8024E-14  0.1671E-04  0.4621E-07  0.1809E-02  0.4276E-04  0.8158E+02
   -1.050003   30.79551  0.8024E-14  0.1672E-04  0.4626E-07  0.1809E-02  0.4044E-04  0.9136E+02
   -1.100004   30.79605  0.8024E-14  0.1671E-04  0.4644E-07  0.1901E-02  0.3822E-04  0.3059E+03
   -1.150006   30.79656  0.8024E-14  0.1668E-04  0.4676E-07  0.1719E-02  0.3625E-04  0.6859E+03
   -1.200007   30.79713  0.8024E-14  0.1662E-04  0.4722E-07  0.1747E-02  0.3418E-04  0.1312E+03
   -1.250009   30.79768  0.8024E-14  0.1653E-04  0.4787E-07  0.1716E-02  0.3221E-04  0.1410E+03
   -1.300010   30.79824  0.8024E-14  0.1641E-04  0.4875E-07  0.1665E-02  0.3031E-04  0.1632E+03
   -1.350011   30.79882  0.8024E-14  0.1626E-04  0.4992E-07  0.1604E-02  0.2846E-04  0.1967E+03
   -1.400012   30.79943  0.8024E-14  0.1607E-04  0.5147E-07  0.1525E-02  0.2666E-04  0.2403E+03
   -1.450013   30.80006  0.8024E-14  0.1584E-04  0.5356E-07  0.1444E-02  0.2489E-04  0.3083E+03
   -1.500014   30.80074  0.8024E-14  0.1555E-04  0.5643E-07  0.1332E-02  0.2314E-04  0.4138E+03
   -1.550014   30.80148  0.8024E-14  0.1520E-04  0.6047E-07  0.1244E-02  0.2138E-04  0.5975E+03
   -1.600014   30.80229  0.8024E-14  0.1475E-04  0.6658E-07  0.1099E-02  0.1965E-04  0.1042E+04
   -1.650014   30.80328  0.8024E-14  0.1417E-04  0.7603E-07  0.1013E-02  0.1779E-04  0.1456E+06
   -1.700013   30.80443  0.8024E-14  0.1337E-04  0.9250E-07  0.8307E-03  0.1594E-04 -0.1081E+06
   -1.750012   30.80635  0.8024E-14  0.1233E-04  0.1194E-06  0.7505E-03  0.1355E-04  0.4635E+06
   -1.800011   30.80799  0.8024E-14  0.1092E-04  0.1789E-06  0.5246E-03  0.1167E-04  0.4424E+07
   -1.850010   30.81470  0.8024E-14  0.9347E-05  0.2872E-06  0.4813E-03  0.8424E-05  0.1084E+09
   -1.900007   30.81359  0.8024E-14  0.7432E-05  0.5932E-06  0.2199E-03  0.6864E-05 -0.8738E+07
   -1.950005   30.83451  0.8024E-14  0.5220E-05  0.1475E-05  0.1919E-03  0.3751E-05 -0.3361E+08
   -2.000002   30.83721  0.8024E-14  0.0000E+00  0.0000E+00  0.0000E+00  0.6754E-05  0.0000E+00
