 1 - depth, m
 2 - temperature, C
 3 - salinity, kg/kg
 4 - turbulent kinetic energy, m**2/s**2
 5 - dissipation rate, m**2/s**3
 6 - kinematic heat conductance, m**2/s
 7 - modulus of horizontal velocity, m/s
 8 - Richardson number, n/d
   -0.000000   30.47525  0.2992E-13  0.4945E-05  0.3106E-06  0.5137E-04  0.1916E-02  0.4433E+04
   -0.049997   30.50585  0.2992E-13  0.8360E-05  0.1384E-06  0.1747E-03  0.1104E-02  0.2236E+03
   -0.099994   30.51800  0.2992E-13  0.1014E-04  0.9464E-07  0.3975E-03  0.8054E-03  0.1332E+02
   -0.149992   30.52133  0.2992E-13  0.1125E-04  0.7922E-07  0.4765E-03  0.7113E-03  0.6496E+01
   -0.199991   30.52399  0.2992E-13  0.1211E-04  0.7018E-07  0.6382E-03  0.6347E-03  0.4150E+01
   -0.249989   30.52592  0.2992E-13  0.1279E-04  0.6426E-07  0.7633E-03  0.5776E-03  0.3055E+01
   -0.299988   30.52749  0.2992E-13  0.1335E-04  0.6003E-07  0.8883E-03  0.5300E-03  0.2422E+01
   -0.349988   30.52879  0.2992E-13  0.1381E-04  0.5686E-07  0.1002E-02  0.4893E-03  0.2067E+01
   -0.399988   30.52992  0.2992E-13  0.1419E-04  0.5438E-07  0.1105E-02  0.4534E-03  0.1836E+01
   -0.449988   30.53092  0.2992E-13  0.1452E-04  0.5236E-07  0.1201E-02  0.4218E-03  0.1723E+01
   -0.499988   30.53183  0.2992E-13  0.1480E-04  0.5068E-07  0.1290E-02  0.3938E-03  0.1672E+01
   -0.549989   30.53265  0.2992E-13  0.1504E-04  0.4927E-07  0.1371E-02  0.3688E-03  0.1648E+01
   -0.599990   30.53341  0.2992E-13  0.1525E-04  0.4807E-07  0.1445E-02  0.3461E-03  0.1644E+01
   -0.649991   30.53412  0.2992E-13  0.1543E-04  0.4705E-07  0.1511E-02  0.3255E-03  0.1663E+01
   -0.699992   30.53479  0.2992E-13  0.1558E-04  0.4618E-07  0.1569E-02  0.3065E-03  0.1695E+01
   -0.749993   30.53542  0.2992E-13  0.1570E-04  0.4544E-07  0.1620E-02  0.2890E-03  0.1748E+01
   -0.799995   30.53602  0.2992E-13  0.1579E-04  0.4482E-07  0.1664E-02  0.2728E-03  0.1814E+01
   -0.849996   30.53660  0.2992E-13  0.1587E-04  0.4430E-07  0.1699E-02  0.2576E-03  0.1904E+01
   -0.899998   30.53716  0.2992E-13  0.1592E-04  0.4388E-07  0.1727E-02  0.2433E-03  0.2010E+01
   -0.949999   30.53770  0.2992E-13  0.1595E-04  0.4357E-07  0.1747E-02  0.2299E-03  0.2146E+01
   -1.000001   30.53823  0.2992E-13  0.1595E-04  0.4335E-07  0.1759E-02  0.2172E-03  0.2306E+01
   -1.050003   30.53875  0.2992E-13  0.1594E-04  0.4324E-07  0.1761E-02  0.2051E-03  0.2605E+01
   -1.100005   30.53927  0.2992E-13  0.1591E-04  0.4323E-07  0.1846E-02  0.1936E-03  0.8633E+01
   -1.150006   30.53976  0.2992E-13  0.1585E-04  0.4336E-07  0.1681E-02  0.1834E-03  0.1930E+02
   -1.200008   30.54029  0.2992E-13  0.1577E-04  0.4361E-07  0.1706E-02  0.1727E-03  0.3714E+01
   -1.250009   30.54080  0.2992E-13  0.1566E-04  0.4402E-07  0.1677E-02  0.1626E-03  0.3932E+01
   -1.300011   30.54132  0.2992E-13  0.1553E-04  0.4463E-07  0.1629E-02  0.1528E-03  0.4579E+01
   -1.350012   30.54185  0.2992E-13  0.1536E-04  0.4550E-07  0.1571E-02  0.1433E-03  0.5441E+01
   -1.400013   30.54240  0.2992E-13  0.1516E-04  0.4669E-07  0.1495E-02  0.1341E-03  0.6678E+01
   -1.450014   30.54297  0.2992E-13  0.1492E-04  0.4833E-07  0.1419E-02  0.1251E-03  0.8435E+01
   -1.500014   30.54358  0.2992E-13  0.1463E-04  0.5063E-07  0.1308E-02  0.1162E-03  0.1135E+02
   -1.550015   30.54423  0.2992E-13  0.1428E-04  0.5390E-07  0.1225E-02  0.1073E-03  0.1595E+02
   -1.600015   30.54494  0.2992E-13  0.1384E-04  0.5893E-07  0.1080E-02  0.9856E-04  0.3011E+02
   -1.650015   30.54579  0.2992E-13  0.1329E-04  0.6670E-07  0.1001E-02  0.8921E-04  0.1674E+04
   -1.700014   30.54673  0.2992E-13  0.1254E-04  0.8063E-07  0.8175E-03  0.8018E-04 -0.2131E+03
   -1.750013   30.54839  0.2992E-13  0.1154E-04  0.1039E-06  0.7388E-03  0.6817E-04  0.3444E+05
   -1.800012   30.54983  0.2992E-13  0.1019E-04  0.1536E-06  0.5159E-03  0.5856E-04  0.1770E+06
   -1.850010   30.55523  0.2992E-13  0.8663E-05  0.2446E-06  0.4698E-03  0.4234E-04  0.4380E+08
   -1.900008   30.55441  0.2992E-13  0.6825E-05  0.5118E-06  0.2141E-03  0.3443E-04  0.3579E+05
   -1.950005   30.57178  0.2992E-13  0.4748E-05  0.1289E-05  0.1862E-03  0.1851E-04 -0.1982E+06
   -2.000002   30.57379  0.2992E-13  0.0000E+00  0.0000E+00  0.0000E+00  0.3363E-04  0.0000E+00
