 1 - depth, m
 2 - temperature, C
 3 - salinity, kg/kg
 4 - turbulent kinetic energy, m**2/s**2
 5 - dissipation rate, m**2/s**3
 6 - kinematic heat conductance, m**2/s
 7 - modulus of horizontal velocity, m/s
 8 - Richardson number, n/d
   -0.000000   30.23044  0.3104E-14  0.5149E-05  0.2903E-06  0.5045E-04  0.3147E-02  0.2019E+04
   -0.049997   30.25953  0.3104E-14  0.8398E-05  0.1260E-06  0.2009E-03  0.1680E-02  0.2357E+03
   -0.099994   30.26853  0.3104E-14  0.9928E-05  0.8919E-07  0.3880E-03  0.1315E-02  0.2605E+02
   -0.149992   30.27163  0.3104E-14  0.1094E-04  0.7521E-07  0.4829E-03  0.1172E-02  0.3019E+01
   -0.199991   30.27403  0.3104E-14  0.1174E-04  0.6706E-07  0.6225E-03  0.1059E-02  0.2009E+01
   -0.249989   30.27584  0.3104E-14  0.1241E-04  0.6170E-07  0.7358E-03  0.9710E-03  0.1599E+01
   -0.299988   30.27734  0.3104E-14  0.1299E-04  0.5777E-07  0.8542E-03  0.8941E-03  0.1468E+01
   -0.349988   30.27860  0.3104E-14  0.1351E-04  0.5467E-07  0.9804E-03  0.8220E-03  0.1447E+01
   -0.399988   30.27968  0.3104E-14  0.1399E-04  0.5217E-07  0.1110E-02  0.7528E-03  0.1422E+01
   -0.449988   30.28062  0.3104E-14  0.1443E-04  0.5010E-07  0.1236E-02  0.6892E-03  0.1402E+01
   -0.499988   30.28145  0.3104E-14  0.1481E-04  0.4842E-07  0.1353E-02  0.6322E-03  0.1396E+01
   -0.549989   30.28219  0.3104E-14  0.1515E-04  0.4704E-07  0.1460E-02  0.5813E-03  0.1380E+01
   -0.599989   30.28287  0.3104E-14  0.1544E-04  0.4593E-07  0.1556E-02  0.5357E-03  0.1373E+01
   -0.649991   30.28350  0.3104E-14  0.1568E-04  0.4504E-07  0.1640E-02  0.4949E-03  0.1358E+01
   -0.699992   30.28409  0.3104E-14  0.1589E-04  0.4434E-07  0.1711E-02  0.4582E-03  0.1351E+01
   -0.749993   30.28465  0.3104E-14  0.1606E-04  0.4381E-07  0.1769E-02  0.4254E-03  0.1337E+01
   -0.799995   30.28519  0.3104E-14  0.1619E-04  0.4342E-07  0.1814E-02  0.3958E-03  0.1332E+01
   -0.849996   30.28571  0.3104E-14  0.1629E-04  0.4317E-07  0.1846E-02  0.3692E-03  0.1322E+01
   -0.899998   30.28622  0.3104E-14  0.1636E-04  0.4304E-07  0.1866E-02  0.3453E-03  0.1324E+01
   -0.949999   30.28672  0.3104E-14  0.1640E-04  0.4302E-07  0.1876E-02  0.3237E-03  0.1322E+01
   -1.000001   30.28721  0.3104E-14  0.1642E-04  0.4310E-07  0.1875E-02  0.3041E-03  0.1343E+01
   -1.050003   30.28771  0.3104E-14  0.1642E-04  0.4329E-07  0.1862E-02  0.2864E-03  0.1412E+01
   -1.100005   30.28820  0.3104E-14  0.1640E-04  0.4357E-07  0.1992E-02  0.2702E-03  0.4328E+01
   -1.150006   30.28866  0.3104E-14  0.1635E-04  0.4400E-07  0.1718E-02  0.2569E-03  0.1032E+02
   -1.200008   30.28920  0.3104E-14  0.1628E-04  0.4455E-07  0.1776E-02  0.2422E-03  0.1940E+01
   -1.250009   30.28971  0.3104E-14  0.1618E-04  0.4530E-07  0.1741E-02  0.2284E-03  0.2082E+01
   -1.300011   30.29024  0.3104E-14  0.1605E-04  0.4627E-07  0.1681E-02  0.2152E-03  0.2440E+01
   -1.350012   30.29079  0.3104E-14  0.1589E-04  0.4755E-07  0.1614E-02  0.2022E-03  0.2955E+01
   -1.400013   30.29136  0.3104E-14  0.1570E-04  0.4922E-07  0.1526E-02  0.1895E-03  0.3672E+01
   -1.450014   30.29197  0.3104E-14  0.1545E-04  0.5146E-07  0.1443E-02  0.1770E-03  0.4750E+01
   -1.500014   30.29262  0.3104E-14  0.1515E-04  0.5452E-07  0.1319E-02  0.1646E-03  0.6554E+01
   -1.550015   30.29335  0.3104E-14  0.1479E-04  0.5882E-07  0.1235E-02  0.1520E-03  0.9725E+01
   -1.600015   30.29414  0.3104E-14  0.1432E-04  0.6544E-07  0.1078E-02  0.1397E-03  0.2191E+02
   -1.650014   30.29516  0.3104E-14  0.1371E-04  0.7557E-07  0.1001E-02  0.1261E-03  0.8886E+02
   -1.700014   30.29629  0.3104E-14  0.1288E-04  0.9340E-07  0.8086E-03  0.1129E-03  0.7849E+04
   -1.750013   30.29841  0.3104E-14  0.1180E-04  0.1225E-06  0.7336E-03  0.9487E-04  0.8143E+04
   -1.800012   30.30001  0.3104E-14  0.1038E-04  0.1848E-06  0.5109E-03  0.8150E-04  0.8953E+04
   -1.850010   30.30740  0.3104E-14  0.8816E-05  0.3000E-06  0.4696E-03  0.5756E-04  0.4827E+07
   -1.900008   30.30552  0.3104E-14  0.6985E-05  0.6289E-06  0.2151E-03  0.4699E-04 -0.9753E+04
   -1.950005   30.32782  0.3104E-14  0.4939E-05  0.1546E-05  0.1994E-03  0.2501E-04 -0.1310E+06
   -2.000002   30.32974  0.3104E-14  0.0000E+00  0.0000E+00  0.0000E+00  0.4738E-04  0.0000E+00
