 1 - depth, m
 2 - temperature, C
 3 - salinity, kg/kg
 4 - turbulent kinetic energy, m**2/s**2
 5 - dissipation rate, m**2/s**3
 6 - kinematic heat conductance, m**2/s
 7 - modulus of horizontal velocity, m/s
 8 - Richardson number, n/d
   -0.000000   30.57234  0.2165E-13  0.4581E-05  0.2764E-06  0.4913E-04  0.1591E-02  0.6948E+04
   -0.049997   30.60021  0.2165E-13  0.7854E-05  0.1230E-06  0.1741E-03  0.9046E-03  0.1475E+04
   -0.099994   30.61097  0.2165E-13  0.9537E-05  0.8464E-07  0.3932E-03  0.6602E-03  0.1923E+02
   -0.149992   30.61392  0.2165E-13  0.1059E-04  0.7109E-07  0.4743E-03  0.5827E-03  0.9395E+01
   -0.199991   30.61627  0.2165E-13  0.1142E-04  0.6318E-07  0.6334E-03  0.5200E-03  0.6033E+01
   -0.249989   30.61799  0.2165E-13  0.1208E-04  0.5802E-07  0.7575E-03  0.4731E-03  0.4442E+01
   -0.299988   30.61938  0.2165E-13  0.1263E-04  0.5436E-07  0.8812E-03  0.4341E-03  0.3544E+01
   -0.349988   30.62056  0.2165E-13  0.1308E-04  0.5164E-07  0.9933E-03  0.4007E-03  0.3024E+01
   -0.399988   30.62158  0.2165E-13  0.1346E-04  0.4953E-07  0.1096E-02  0.3711E-03  0.2703E+01
   -0.449988   30.62249  0.2165E-13  0.1380E-04  0.4782E-07  0.1192E-02  0.3452E-03  0.2529E+01
   -0.499988   30.62331  0.2165E-13  0.1409E-04  0.4643E-07  0.1280E-02  0.3222E-03  0.2468E+01
   -0.549989   30.62406  0.2165E-13  0.1435E-04  0.4528E-07  0.1360E-02  0.3017E-03  0.2426E+01
   -0.599989   30.62476  0.2165E-13  0.1457E-04  0.4432E-07  0.1434E-02  0.2831E-03  0.2438E+01
   -0.649990   30.62541  0.2165E-13  0.1477E-04  0.4352E-07  0.1499E-02  0.2662E-03  0.2459E+01
   -0.699992   30.62603  0.2165E-13  0.1494E-04  0.4286E-07  0.1558E-02  0.2506E-03  0.2529E+01
   -0.749993   30.62661  0.2165E-13  0.1508E-04  0.4233E-07  0.1609E-02  0.2362E-03  0.2602E+01
   -0.799995   30.62717  0.2165E-13  0.1521E-04  0.4190E-07  0.1652E-02  0.2229E-03  0.2730E+01
   -0.849996   30.62772  0.2165E-13  0.1531E-04  0.4158E-07  0.1688E-02  0.2104E-03  0.2858E+01
   -0.899998   30.62825  0.2165E-13  0.1539E-04  0.4135E-07  0.1716E-02  0.1987E-03  0.3054E+01
   -0.949999   30.62876  0.2165E-13  0.1545E-04  0.4122E-07  0.1735E-02  0.1877E-03  0.3255E+01
   -1.000001   30.62927  0.2165E-13  0.1550E-04  0.4118E-07  0.1748E-02  0.1773E-03  0.3543E+01
   -1.050003   30.62978  0.2165E-13  0.1552E-04  0.4125E-07  0.1750E-02  0.1674E-03  0.4004E+01
   -1.100005   30.63028  0.2165E-13  0.1552E-04  0.4141E-07  0.1828E-02  0.1580E-03  0.1349E+02
   -1.150006   30.63076  0.2165E-13  0.1550E-04  0.4172E-07  0.1681E-02  0.1496E-03  0.2983E+02
   -1.200008   30.63128  0.2165E-13  0.1546E-04  0.4214E-07  0.1698E-02  0.1409E-03  0.5789E+01
   -1.250009   30.63179  0.2165E-13  0.1540E-04  0.4273E-07  0.1669E-02  0.1326E-03  0.6228E+01
   -1.300011   30.63232  0.2165E-13  0.1530E-04  0.4351E-07  0.1622E-02  0.1246E-03  0.7260E+01
   -1.350012   30.63286  0.2165E-13  0.1518E-04  0.4454E-07  0.1566E-02  0.1168E-03  0.8722E+01
   -1.400013   30.63342  0.2165E-13  0.1503E-04  0.4590E-07  0.1492E-02  0.1093E-03  0.1072E+02
   -1.450014   30.63401  0.2165E-13  0.1483E-04  0.4770E-07  0.1417E-02  0.1019E-03  0.1366E+02
   -1.500014   30.63464  0.2165E-13  0.1459E-04  0.5014E-07  0.1309E-02  0.9460E-04  0.1841E+02
   -1.550015   30.63532  0.2165E-13  0.1428E-04  0.5353E-07  0.1228E-02  0.8731E-04  0.2603E+02
   -1.600015   30.63607  0.2165E-13  0.1390E-04  0.5866E-07  0.1083E-02  0.8020E-04  0.5072E+02
   -1.650014   30.63697  0.2165E-13  0.1340E-04  0.6641E-07  0.1004E-02  0.7255E-04  0.1347E+04
   -1.700014   30.63797  0.2165E-13  0.1272E-04  0.8002E-07  0.8220E-03  0.6523E-04  0.2201E+05
   -1.750013   30.63973  0.2165E-13  0.1180E-04  0.1025E-06  0.7440E-03  0.5562E-04  0.9131E+04
   -1.800012   30.64123  0.2165E-13  0.1055E-04  0.1481E-06  0.5284E-03  0.4795E-04  0.4864E+04
   -1.850010   30.64685  0.2165E-13  0.9083E-05  0.2356E-06  0.4749E-03  0.3523E-04  0.2787E+08
   -1.900008   30.64639  0.2165E-13  0.7242E-05  0.4886E-06  0.2174E-03  0.2856E-04 -0.1457E+06
   -1.950005   30.66511  0.2165E-13  0.5031E-05  0.1241E-05  0.1767E-03  0.1578E-04 -0.3214E+06
   -2.000002   30.66904  0.2165E-13  0.0000E+00  0.0000E+00  0.0000E+00  0.2712E-04  0.0000E+00
