 1 - depth, m
 2 - temperature, C
 3 - salinity, kg/kg
 4 - turbulent kinetic energy, m**2/s**2
 5 - dissipation rate, m**2/s**3
 6 - kinematic heat conductance, m**2/s
 7 - modulus of horizontal velocity, m/s
 8 - Richardson number, n/d
   -0.000000   30.58661  0.8447E-14  0.4915E-05  0.3101E-06  0.5071E-04  0.1228E-02  0.4887E+04
   -0.049997   30.61815  0.8447E-14  0.8466E-05  0.1380E-06  0.1799E-03  0.7004E-03  0.2073E+03
   -0.099994   30.63026  0.8447E-14  0.1027E-04  0.9507E-07  0.4049E-03  0.5131E-03  0.3247E+02
   -0.149992   30.63358  0.8447E-14  0.1140E-04  0.7987E-07  0.4849E-03  0.4537E-03  0.1593E+02
   -0.199991   30.63623  0.8447E-14  0.1227E-04  0.7093E-07  0.6484E-03  0.4054E-03  0.1023E+02
   -0.249989   30.63816  0.8447E-14  0.1297E-04  0.6508E-07  0.7741E-03  0.3692E-03  0.7561E+01
   -0.299988   30.63973  0.8447E-14  0.1353E-04  0.6089E-07  0.9001E-03  0.3391E-03  0.6014E+01
   -0.349988   30.64104  0.8447E-14  0.1400E-04  0.5775E-07  0.1014E-02  0.3134E-03  0.5144E+01
   -0.399988   30.64218  0.8447E-14  0.1439E-04  0.5530E-07  0.1118E-02  0.2906E-03  0.4581E+01
   -0.449988   30.64319  0.8447E-14  0.1473E-04  0.5331E-07  0.1214E-02  0.2705E-03  0.4301E+01
   -0.499988   30.64410  0.8447E-14  0.1502E-04  0.5166E-07  0.1302E-02  0.2527E-03  0.4181E+01
   -0.549989   30.64493  0.8447E-14  0.1526E-04  0.5027E-07  0.1383E-02  0.2368E-03  0.4126E+01
   -0.599989   30.64570  0.8447E-14  0.1548E-04  0.4910E-07  0.1456E-02  0.2224E-03  0.4124E+01
   -0.649991   30.64642  0.8447E-14  0.1566E-04  0.4811E-07  0.1521E-02  0.2092E-03  0.4175E+01
   -0.699992   30.64710  0.8447E-14  0.1581E-04  0.4726E-07  0.1579E-02  0.1972E-03  0.4265E+01
   -0.749993   30.64774  0.8447E-14  0.1593E-04  0.4655E-07  0.1629E-02  0.1860E-03  0.4405E+01
   -0.799995   30.64836  0.8447E-14  0.1603E-04  0.4596E-07  0.1671E-02  0.1756E-03  0.4584E+01
   -0.849996   30.64895  0.8447E-14  0.1611E-04  0.4548E-07  0.1705E-02  0.1659E-03  0.4822E+01
   -0.899998   30.64952  0.8447E-14  0.1616E-04  0.4511E-07  0.1731E-02  0.1568E-03  0.5105E+01
   -0.949999   30.65008  0.8447E-14  0.1619E-04  0.4484E-07  0.1749E-02  0.1482E-03  0.5470E+01
   -1.000001   30.65063  0.8447E-14  0.1619E-04  0.4467E-07  0.1758E-02  0.1400E-03  0.5897E+01
   -1.050003   30.65116  0.8447E-14  0.1618E-04  0.4461E-07  0.1757E-02  0.1323E-03  0.6687E+01
   -1.100005   30.65170  0.8447E-14  0.1614E-04  0.4467E-07  0.1853E-02  0.1249E-03  0.2188E+02
   -1.150006   30.65220  0.8447E-14  0.1608E-04  0.4487E-07  0.1658E-02  0.1184E-03  0.5146E+02
   -1.200008   30.65275  0.8447E-14  0.1599E-04  0.4520E-07  0.1691E-02  0.1115E-03  0.9736E+01
   -1.250009   30.65329  0.8447E-14  0.1588E-04  0.4573E-07  0.1660E-02  0.1049E-03  0.1035E+02
   -1.300011   30.65384  0.8447E-14  0.1573E-04  0.4647E-07  0.1607E-02  0.9864E-04  0.1217E+02
   -1.350012   30.65440  0.8447E-14  0.1555E-04  0.4750E-07  0.1546E-02  0.9251E-04  0.1462E+02
   -1.400013   30.65498  0.8447E-14  0.1534E-04  0.4891E-07  0.1465E-02  0.8654E-04  0.1821E+02
   -1.450014   30.65559  0.8447E-14  0.1507E-04  0.5085E-07  0.1385E-02  0.8066E-04  0.2344E+02
   -1.500014   30.65624  0.8447E-14  0.1475E-04  0.5358E-07  0.1271E-02  0.7489E-04  0.3239E+02
   -1.550015   30.65696  0.8447E-14  0.1436E-04  0.5750E-07  0.1187E-02  0.6906E-04  0.4756E+02
   -1.600015   30.65773  0.8447E-14  0.1388E-04  0.6363E-07  0.1045E-02  0.6334E-04  0.1065E+03
   -1.650014   30.65870  0.8447E-14  0.1325E-04  0.7331E-07  0.9613E-03  0.5714E-04  0.9769E+03
   -1.700014   30.65981  0.8447E-14  0.1238E-04  0.9060E-07  0.7841E-03  0.5093E-04  0.2921E+05
   -1.750013   30.66183  0.8447E-14  0.1126E-04  0.1187E-06  0.7033E-03  0.4268E-04  0.2652E+06
   -1.800012   30.66334  0.8447E-14  0.9785E-05  0.1833E-06  0.4824E-03  0.3653E-04  0.6003E+06
   -1.850010   30.67077  0.8447E-14  0.8230E-05  0.2997E-06  0.4502E-03  0.2534E-04  0.1363E+09
   -1.900008   30.66839  0.8447E-14  0.6500E-05  0.6272E-06  0.2076E-03  0.2075E-04 -0.9724E+05
   -1.950005   30.68896  0.8447E-14  0.4594E-05  0.1531E-05  0.2014E-03  0.1091E-04 -0.5126E+06
   -2.000002   30.69015  0.8447E-14  0.0000E+00  0.0000E+00  0.0000E+00  0.2152E-04  0.0000E+00
