 1 - depth, m
 2 - temperature, C
 3 - salinity, kg/kg
 4 - turbulent kinetic energy, m**2/s**2
 5 - dissipation rate, m**2/s**3
 6 - kinematic heat conductance, m**2/s
 7 - modulus of horizontal velocity, m/s
 8 - Richardson number, n/d
   -0.000000   29.96767  0.6301E-13  0.4421E-05  0.2612E-06  0.4763E-04  0.1048E-02  0.7025E+04
   -0.049997   29.99644  0.6301E-13  0.7689E-05  0.1162E-06  0.1739E-03  0.5910E-03  0.4720E+02
   -0.099994   30.00716  0.6301E-13  0.9312E-05  0.8048E-07  0.3912E-03  0.4326E-03  0.4600E+02
   -0.149992   30.01014  0.6301E-13  0.1032E-04  0.6784E-07  0.4706E-03  0.3820E-03  0.2234E+02
   -0.199991   30.01251  0.6301E-13  0.1111E-04  0.6037E-07  0.6251E-03  0.3410E-03  0.1448E+02
   -0.249989   30.01425  0.6301E-13  0.1173E-04  0.5545E-07  0.7466E-03  0.3102E-03  0.1071E+02
   -0.299989   30.01566  0.6301E-13  0.1224E-04  0.5192E-07  0.8664E-03  0.2845E-03  0.8544E+01
   -0.349988   30.01684  0.6301E-13  0.1266E-04  0.4926E-07  0.9752E-03  0.2625E-03  0.7308E+01
   -0.399988   30.01787  0.6301E-13  0.1302E-04  0.4719E-07  0.1075E-02  0.2430E-03  0.6525E+01
   -0.449988   30.01878  0.6301E-13  0.1332E-04  0.4550E-07  0.1167E-02  0.2259E-03  0.6124E+01
   -0.499988   30.01960  0.6301E-13  0.1358E-04  0.4409E-07  0.1252E-02  0.2107E-03  0.5970E+01
   -0.549989   30.02036  0.6301E-13  0.1381E-04  0.4291E-07  0.1330E-02  0.1971E-03  0.5887E+01
   -0.599990   30.02105  0.6301E-13  0.1401E-04  0.4192E-07  0.1401E-02  0.1848E-03  0.5901E+01
   -0.649991   30.02170  0.6301E-13  0.1418E-04  0.4107E-07  0.1464E-02  0.1737E-03  0.5968E+01
   -0.699992   30.02231  0.6301E-13  0.1432E-04  0.4035E-07  0.1520E-02  0.1634E-03  0.6113E+01
   -0.749993   30.02289  0.6301E-13  0.1443E-04  0.3975E-07  0.1570E-02  0.1539E-03  0.6305E+01
   -0.799995   30.02344  0.6301E-13  0.1453E-04  0.3924E-07  0.1611E-02  0.1451E-03  0.6579E+01
   -0.849996   30.02398  0.6301E-13  0.1460E-04  0.3883E-07  0.1646E-02  0.1368E-03  0.6904E+01
   -0.899998   30.02449  0.6301E-13  0.1466E-04  0.3850E-07  0.1673E-02  0.1291E-03  0.7329E+01
   -0.950000   30.02500  0.6301E-13  0.1469E-04  0.3826E-07  0.1692E-02  0.1219E-03  0.7826E+01
   -1.000002   30.02549  0.6301E-13  0.1471E-04  0.3811E-07  0.1703E-02  0.1150E-03  0.8455E+01
   -1.050003   30.02597  0.6301E-13  0.1470E-04  0.3804E-07  0.1705E-02  0.1085E-03  0.9561E+01
   -1.100005   30.02645  0.6301E-13  0.1468E-04  0.3807E-07  0.1783E-02  0.1023E-03  0.3202E+02
   -1.150007   30.02690  0.6301E-13  0.1464E-04  0.3821E-07  0.1635E-02  0.9675E-04  0.7050E+02
   -1.200008   30.02739  0.6301E-13  0.1457E-04  0.3846E-07  0.1655E-02  0.9105E-04  0.1368E+02
   -1.250010   30.02787  0.6301E-13  0.1448E-04  0.3886E-07  0.1626E-02  0.8559E-04  0.1457E+02
   -1.300011   30.02835  0.6301E-13  0.1437E-04  0.3943E-07  0.1581E-02  0.8035E-04  0.1694E+02
   -1.350012   30.02885  0.6301E-13  0.1423E-04  0.4021E-07  0.1525E-02  0.7526E-04  0.2017E+02
   -1.400013   30.02936  0.6301E-13  0.1406E-04  0.4127E-07  0.1454E-02  0.7032E-04  0.2465E+02
   -1.450014   30.02990  0.6301E-13  0.1385E-04  0.4271E-07  0.1380E-02  0.6548E-04  0.3109E+02
   -1.500015   30.03046  0.6301E-13  0.1359E-04  0.4471E-07  0.1274E-02  0.6075E-04  0.4134E+02
   -1.550015   30.03107  0.6301E-13  0.1328E-04  0.4752E-07  0.1191E-02  0.5601E-04  0.5748E+02
   -1.600015   30.03173  0.6301E-13  0.1290E-04  0.5172E-07  0.1050E-02  0.5137E-04  0.9377E+02
   -1.650015   30.03250  0.6301E-13  0.1242E-04  0.5816E-07  0.9762E-03  0.4649E-04  0.1229E+04
   -1.700015   30.03336  0.6301E-13  0.1176E-04  0.6996E-07  0.7964E-03  0.4177E-04  0.1036E+04
   -1.750014   30.03485  0.6301E-13  0.1086E-04  0.8958E-07  0.7203E-03  0.3553E-04  0.5836E+05
   -1.800012   30.03621  0.6301E-13  0.9595E-05  0.1299E-06  0.4989E-03  0.3045E-04  0.1178E+06
   -1.850011   30.04100  0.6301E-13  0.8130E-05  0.2058E-06  0.4582E-03  0.2188E-04  0.5922E+07
   -1.900009   30.04067  0.6301E-13  0.6413E-05  0.4248E-06  0.2035E-03  0.1766E-04  0.3824E+06
   -1.950006   30.05694  0.6301E-13  0.4436E-05  0.1088E-05  0.1753E-03  0.9451E-05 -0.1833E+06
   -2.000003   30.05878  0.6301E-13  0.0000E+00  0.0000E+00  0.0000E+00  0.1710E-04  0.0000E+00
