 1 - depth, m
 2 - temperature, C
 3 - salinity, kg/kg
 4 - turbulent kinetic energy, m**2/s**2
 5 - dissipation rate, m**2/s**3
 6 - kinematic heat conductance, m**2/s
 7 - modulus of horizontal velocity, m/s
 8 - Richardson number, n/d
   -0.000000   29.65161  0.8143E-13  0.4307E-05  0.2496E-06  0.4766E-04  0.1555E-02  0.6136E+04
   -0.049997   29.67869  0.8143E-13  0.7392E-05  0.1112E-06  0.1679E-03  0.8838E-03  0.4210E+03
   -0.099994   29.68910  0.8143E-13  0.8958E-05  0.7652E-07  0.3823E-03  0.6427E-03  0.1927E+02
   -0.149992   29.69198  0.8143E-13  0.9932E-05  0.6437E-07  0.4603E-03  0.5667E-03  0.9284E+01
   -0.199991   29.69427  0.8143E-13  0.1069E-04  0.5722E-07  0.6119E-03  0.5051E-03  0.5994E+01
   -0.249989   29.69595  0.8143E-13  0.1129E-04  0.5251E-07  0.7317E-03  0.4589E-03  0.4423E+01
   -0.299989   29.69731  0.8143E-13  0.1178E-04  0.4914E-07  0.8496E-03  0.4204E-03  0.3521E+01
   -0.349988   29.69845  0.8143E-13  0.1219E-04  0.4661E-07  0.9571E-03  0.3874E-03  0.3014E+01
   -0.399988   29.69944  0.8143E-13  0.1254E-04  0.4464E-07  0.1055E-02  0.3583E-03  0.2687E+01
   -0.449988   29.70032  0.8143E-13  0.1284E-04  0.4304E-07  0.1147E-02  0.3326E-03  0.2526E+01
   -0.499988   29.70112  0.8143E-13  0.1309E-04  0.4171E-07  0.1231E-02  0.3100E-03  0.2459E+01
   -0.549989   29.70184  0.8143E-13  0.1332E-04  0.4060E-07  0.1308E-02  0.2897E-03  0.2430E+01
   -0.599990   29.70251  0.8143E-13  0.1351E-04  0.3966E-07  0.1379E-02  0.2715E-03  0.2433E+01
   -0.649991   29.70313  0.8143E-13  0.1368E-04  0.3887E-07  0.1442E-02  0.2548E-03  0.2467E+01
   -0.699992   29.70372  0.8143E-13  0.1382E-04  0.3819E-07  0.1498E-02  0.2395E-03  0.2524E+01
   -0.749993   29.70428  0.8143E-13  0.1394E-04  0.3763E-07  0.1548E-02  0.2254E-03  0.2611E+01
   -0.799995   29.70481  0.8143E-13  0.1404E-04  0.3716E-07  0.1590E-02  0.2123E-03  0.2721E+01
   -0.849997   29.70533  0.8143E-13  0.1412E-04  0.3678E-07  0.1625E-02  0.2001E-03  0.2866E+01
   -0.899998   29.70582  0.8143E-13  0.1418E-04  0.3649E-07  0.1652E-02  0.1887E-03  0.3037E+01
   -0.950000   29.70631  0.8143E-13  0.1422E-04  0.3628E-07  0.1673E-02  0.1780E-03  0.3255E+01
   -1.000002   29.70678  0.8143E-13  0.1425E-04  0.3615E-07  0.1685E-02  0.1678E-03  0.3510E+01
   -1.050003   29.70725  0.8143E-13  0.1425E-04  0.3610E-07  0.1689E-02  0.1582E-03  0.3988E+01
   -1.100005   29.70771  0.8143E-13  0.1424E-04  0.3614E-07  0.1759E-02  0.1491E-03  0.1342E+02
   -1.150007   29.70815  0.8143E-13  0.1421E-04  0.3629E-07  0.1633E-02  0.1409E-03  0.2904E+02
   -1.200008   29.70862  0.8143E-13  0.1415E-04  0.3654E-07  0.1645E-02  0.1326E-03  0.5699E+01
   -1.250010   29.70908  0.8143E-13  0.1408E-04  0.3692E-07  0.1618E-02  0.1245E-03  0.6065E+01
   -1.300011   29.70955  0.8143E-13  0.1399E-04  0.3746E-07  0.1576E-02  0.1168E-03  0.7068E+01
   -1.350013   29.71003  0.8143E-13  0.1386E-04  0.3820E-07  0.1523E-02  0.1094E-03  0.8391E+01
   -1.400014   29.71053  0.8143E-13  0.1371E-04  0.3920E-07  0.1456E-02  0.1021E-03  0.1026E+02
   -1.450014   29.71105  0.8143E-13  0.1353E-04  0.4054E-07  0.1383E-02  0.9509E-04  0.1289E+02
   -1.500015   29.71159  0.8143E-13  0.1330E-04  0.4237E-07  0.1284E-02  0.8818E-04  0.1709E+02
   -1.550015   29.71218  0.8143E-13  0.1302E-04  0.4493E-07  0.1201E-02  0.8130E-04  0.2363E+02
   -1.600016   29.71282  0.8143E-13  0.1268E-04  0.4872E-07  0.1067E-02  0.7457E-04  0.3906E+02
   -1.650015   29.71356  0.8143E-13  0.1225E-04  0.5447E-07  0.9871E-03  0.6755E-04  0.8151E+02
   -1.700015   29.71438  0.8143E-13  0.1166E-04  0.6470E-07  0.8156E-03  0.6073E-04 -0.2576E+04
   -1.750014   29.71572  0.8143E-13  0.1085E-04  0.8187E-07  0.7341E-03  0.5219E-04  0.3621E+04
   -1.800013   29.71707  0.8143E-13  0.9715E-05  0.1168E-06  0.5247E-03  0.4475E-04  0.3584E+05
   -1.850011   29.72110  0.8143E-13  0.8341E-05  0.1818E-06  0.4682E-03  0.3316E-04  0.3135E+07
   -1.900009   29.72131  0.8143E-13  0.6648E-05  0.3749E-06  0.2168E-03  0.2664E-04  0.3460E+05
   -1.950006   29.73587  0.8143E-13  0.4542E-05  0.9816E-06  0.1603E-03  0.1475E-04 -0.2958E+07
   -2.000003   29.74029  0.8143E-13  0.0000E+00  0.0000E+00  0.0000E+00  0.2499E-04  0.0000E+00
