 1 - depth, m
 2 - temperature, C
 3 - salinity, kg/kg
 4 - turbulent kinetic energy, m**2/s**2
 5 - dissipation rate, m**2/s**3
 6 - kinematic heat conductance, m**2/s
 7 - modulus of horizontal velocity, m/s
 8 - Richardson number, n/d
   -0.000000   30.08323  0.7353E-14  0.5641E-05  0.3419E-06  0.5375E-04  0.3195E-02  0.2146E+04
   -0.049997   30.11643  0.7353E-14  0.9212E-05  0.1482E-06  0.2061E-03  0.1731E-02  0.1602E+03
   -0.099994   30.12684  0.7353E-14  0.1090E-04  0.1045E-06  0.3993E-03  0.1348E-02  0.5097E+01
   -0.149992   30.13045  0.7353E-14  0.1201E-04  0.8781E-07  0.4974E-03  0.1199E-02  0.2638E+01
   -0.199990   30.13322  0.7353E-14  0.1289E-04  0.7809E-07  0.6456E-03  0.1083E-02  0.1737E+01
   -0.249989   30.13529  0.7353E-14  0.1359E-04  0.7177E-07  0.7611E-03  0.9931E-03  0.1339E+01
   -0.299988   30.13701  0.7353E-14  0.1419E-04  0.6721E-07  0.8715E-03  0.9174E-03  0.1225E+01
   -0.349988   30.13847  0.7353E-14  0.1473E-04  0.6360E-07  0.9913E-03  0.8479E-03  0.1273E+01
   -0.399987   30.13972  0.7353E-14  0.1522E-04  0.6060E-07  0.1122E-02  0.7805E-03  0.1297E+01
   -0.449987   30.14081  0.7353E-14  0.1567E-04  0.5808E-07  0.1250E-02  0.7179E-03  0.1309E+01
   -0.499988   30.14176  0.7353E-14  0.1607E-04  0.5599E-07  0.1369E-02  0.6612E-03  0.1316E+01
   -0.549988   30.14262  0.7353E-14  0.1642E-04  0.5426E-07  0.1479E-02  0.6102E-03  0.1313E+01
   -0.599989   30.14340  0.7353E-14  0.1671E-04  0.5283E-07  0.1578E-02  0.5642E-03  0.1306E+01
   -0.649990   30.14411  0.7353E-14  0.1696E-04  0.5167E-07  0.1664E-02  0.5227E-03  0.1295E+01
   -0.699991   30.14479  0.7353E-14  0.1716E-04  0.5073E-07  0.1738E-02  0.4854E-03  0.1279E+01
   -0.749992   30.14542  0.7353E-14  0.1732E-04  0.4999E-07  0.1798E-02  0.4517E-03  0.1260E+01
   -0.799994   30.14603  0.7353E-14  0.1744E-04  0.4943E-07  0.1844E-02  0.4213E-03  0.1238E+01
   -0.849995   30.14661  0.7353E-14  0.1753E-04  0.4903E-07  0.1877E-02  0.3940E-03  0.1212E+01
   -0.899997   30.14718  0.7353E-14  0.1758E-04  0.4877E-07  0.1898E-02  0.3693E-03  0.1185E+01
   -0.949999   30.14774  0.7353E-14  0.1761E-04  0.4865E-07  0.1906E-02  0.3471E-03  0.1161E+01
   -1.000000   30.14829  0.7353E-14  0.1760E-04  0.4866E-07  0.1906E-02  0.3271E-03  0.1157E+01
   -1.050002   30.14884  0.7353E-14  0.1758E-04  0.4880E-07  0.1892E-02  0.3088E-03  0.1217E+01
   -1.100004   30.14939  0.7353E-14  0.1752E-04  0.4905E-07  0.2036E-02  0.2921E-03  0.3685E+01
   -1.150005   30.14989  0.7353E-14  0.1745E-04  0.4949E-07  0.1721E-02  0.2779E-03  0.9592E+01
   -1.200007   30.15049  0.7353E-14  0.1734E-04  0.5007E-07  0.1792E-02  0.2621E-03  0.1743E+01
   -1.250008   30.15106  0.7353E-14  0.1721E-04  0.5088E-07  0.1756E-02  0.2473E-03  0.1863E+01
   -1.300009   30.15164  0.7353E-14  0.1704E-04  0.5198E-07  0.1691E-02  0.2331E-03  0.2216E+01
   -1.350011   30.15224  0.7353E-14  0.1684E-04  0.5344E-07  0.1620E-02  0.2191E-03  0.2706E+01
   -1.400012   30.15287  0.7353E-14  0.1658E-04  0.5541E-07  0.1525E-02  0.2055E-03  0.3444E+01
   -1.450012   30.15355  0.7353E-14  0.1628E-04  0.5809E-07  0.1439E-02  0.1919E-03  0.4550E+01
   -1.500013   30.15427  0.7353E-14  0.1591E-04  0.6186E-07  0.1314E-02  0.1785E-03  0.6554E+01
   -1.550013   30.15508  0.7353E-14  0.1546E-04  0.6733E-07  0.1229E-02  0.1649E-03  0.1124E+02
   -1.600013   30.15597  0.7353E-14  0.1488E-04  0.7607E-07  0.1076E-02  0.1513E-03  0.3537E+03
   -1.650013   30.15718  0.7353E-14  0.1412E-04  0.8968E-07  0.9875E-03  0.1360E-03  0.1534E+03
   -1.700012   30.15860  0.7353E-14  0.1308E-04  0.1131E-06  0.8021E-03  0.1206E-03  0.1807E+05
   -1.750011   30.16113  0.7353E-14  0.1186E-04  0.1507E-06  0.7206E-03  0.1001E-03  0.4784E+05
   -1.800010   30.16266  0.7353E-14  0.1032E-04  0.2371E-06  0.4940E-03  0.8633E-04  0.7730E+04
   -1.850008   30.17250  0.7353E-14  0.8762E-05  0.3947E-06  0.4717E-03  0.5919E-04  0.5604E+08
   -1.900006   30.16823  0.7353E-14  0.6994E-05  0.8343E-06  0.2194E-03  0.4940E-04 -0.1740E+06
   -1.950004   30.19362  0.7353E-14  0.5010E-05  0.1982E-05  0.2215E-03  0.2609E-04 -0.1539E+06
   -2.000001   30.19469  0.7353E-14  0.0000E+00  0.0000E+00  0.0000E+00  0.5276E-04  0.0000E+00
