 1 - depth, m
 2 - temperature, C
 3 - salinity, kg/kg
 4 - turbulent kinetic energy, m**2/s**2
 5 - dissipation rate, m**2/s**3
 6 - kinematic heat conductance, m**2/s
 7 - modulus of horizontal velocity, m/s
 8 - Richardson number, n/d
   -0.000000   30.69478  0.1165E-13  0.5080E-05  0.3119E-06  0.5153E-04  0.2214E-02  0.2965E+04
   -0.049997   30.72533  0.1165E-13  0.8535E-05  0.1381E-06  0.1857E-03  0.1232E-02  0.1414E+04
   -0.099994   30.73629  0.1165E-13  0.1027E-04  0.9581E-07  0.3961E-03  0.9257E-03  0.1041E+02
   -0.149992   30.73961  0.1165E-13  0.1138E-04  0.8025E-07  0.4845E-03  0.8175E-03  0.5177E+01
   -0.199991   30.74221  0.1165E-13  0.1224E-04  0.7116E-07  0.6429E-03  0.7314E-03  0.3326E+01
   -0.249989   30.74411  0.1165E-13  0.1293E-04  0.6522E-07  0.7691E-03  0.6666E-03  0.2448E+01
   -0.299988   30.74565  0.1165E-13  0.1349E-04  0.6100E-07  0.8932E-03  0.6126E-03  0.1952E+01
   -0.349988   30.74695  0.1165E-13  0.1396E-04  0.5783E-07  0.1004E-02  0.5663E-03  0.1676E+01
   -0.399988   30.74808  0.1165E-13  0.1436E-04  0.5536E-07  0.1107E-02  0.5251E-03  0.1529E+01
   -0.449988   30.74908  0.1165E-13  0.1471E-04  0.5332E-07  0.1207E-02  0.4883E-03  0.1466E+01
   -0.499988   30.74998  0.1165E-13  0.1502E-04  0.5163E-07  0.1301E-02  0.4551E-03  0.1450E+01
   -0.549989   30.75080  0.1165E-13  0.1528E-04  0.5020E-07  0.1388E-02  0.4252E-03  0.1433E+01
   -0.599989   30.75156  0.1165E-13  0.1551E-04  0.4901E-07  0.1467E-02  0.3981E-03  0.1435E+01
   -0.649990   30.75226  0.1165E-13  0.1571E-04  0.4800E-07  0.1537E-02  0.3734E-03  0.1435E+01
   -0.699992   30.75293  0.1165E-13  0.1588E-04  0.4716E-07  0.1599E-02  0.3509E-03  0.1453E+01
   -0.749993   30.75356  0.1165E-13  0.1601E-04  0.4647E-07  0.1651E-02  0.3303E-03  0.1469E+01
   -0.799994   30.75416  0.1165E-13  0.1612E-04  0.4591E-07  0.1694E-02  0.3114E-03  0.1512E+01
   -0.849996   30.75473  0.1165E-13  0.1621E-04  0.4546E-07  0.1729E-02  0.2940E-03  0.1560E+01
   -0.899998   30.75530  0.1165E-13  0.1627E-04  0.4513E-07  0.1755E-02  0.2777E-03  0.1647E+01
   -0.949999   30.75584  0.1165E-13  0.1631E-04  0.4490E-07  0.1773E-02  0.2625E-03  0.1744E+01
   -1.000001   30.75638  0.1165E-13  0.1633E-04  0.4477E-07  0.1783E-02  0.2482E-03  0.1889E+01
   -1.050003   30.75691  0.1165E-13  0.1632E-04  0.4475E-07  0.1782E-02  0.2346E-03  0.2129E+01
   -1.100004   30.75744  0.1165E-13  0.1630E-04  0.4486E-07  0.1875E-02  0.2216E-03  0.7059E+01
   -1.150006   30.75793  0.1165E-13  0.1625E-04  0.4510E-07  0.1690E-02  0.2101E-03  0.1627E+02
   -1.200008   30.75848  0.1165E-13  0.1617E-04  0.4548E-07  0.1720E-02  0.1980E-03  0.3089E+01
   -1.250009   30.75902  0.1165E-13  0.1607E-04  0.4604E-07  0.1689E-02  0.1865E-03  0.3304E+01
   -1.300010   30.75956  0.1165E-13  0.1594E-04  0.4682E-07  0.1638E-02  0.1754E-03  0.3855E+01
   -1.350011   30.76012  0.1165E-13  0.1578E-04  0.4789E-07  0.1578E-02  0.1646E-03  0.4646E+01
   -1.400012   30.76070  0.1165E-13  0.1558E-04  0.4933E-07  0.1498E-02  0.1540E-03  0.5739E+01
   -1.450013   30.76131  0.1165E-13  0.1534E-04  0.5129E-07  0.1421E-02  0.1437E-03  0.7387E+01
   -1.500014   30.76196  0.1165E-13  0.1504E-04  0.5402E-07  0.1308E-02  0.1335E-03  0.1011E+02
   -1.550014   30.76268  0.1165E-13  0.1467E-04  0.5791E-07  0.1225E-02  0.1232E-03  0.1478E+02
   -1.600014   30.76345  0.1165E-13  0.1422E-04  0.6397E-07  0.1080E-02  0.1132E-03  0.6761E+02
   -1.650014   30.76441  0.1165E-13  0.1362E-04  0.7338E-07  0.9976E-03  0.1022E-03  0.1413E+05
   -1.700013   30.76551  0.1165E-13  0.1280E-04  0.8982E-07  0.8147E-03  0.9143E-04  0.1893E+03
   -1.750013   30.76745  0.1165E-13  0.1176E-04  0.1165E-06  0.7390E-03  0.7714E-04  0.4872E+05
   -1.800011   30.76887  0.1165E-13  0.1039E-04  0.1743E-06  0.5118E-03  0.6665E-04  0.2396E+05
   -1.850010   30.77566  0.1165E-13  0.8888E-05  0.2837E-06  0.4800E-03  0.4755E-04  0.6910E+07
   -1.900007   30.77395  0.1165E-13  0.7111E-05  0.5934E-06  0.2219E-03  0.3909E-04  0.1159E+06
   -1.950005   30.79369  0.1165E-13  0.4970E-05  0.1469E-05  0.1926E-03  0.2130E-04 -0.2511E+06
   -2.000002   30.79640  0.1165E-13  0.0000E+00  0.0000E+00  0.0000E+00  0.3892E-04  0.0000E+00
