 1 - depth, m
 2 - temperature, C
 3 - salinity, kg/kg
 4 - turbulent kinetic energy, m**2/s**2
 5 - dissipation rate, m**2/s**3
 6 - kinematic heat conductance, m**2/s
 7 - modulus of horizontal velocity, m/s
 8 - Richardson number, n/d
   -0.000000   30.22230  0.4459E-14  0.4749E-05  0.2898E-06  0.4988E-04  0.1814E-02  0.4997E+04
   -0.049997   30.25174  0.4459E-14  0.8076E-05  0.1289E-06  0.1756E-03  0.1035E-02  0.2578E+03
   -0.099994   30.26299  0.4459E-14  0.9780E-05  0.8861E-07  0.3933E-03  0.7584E-03  0.1669E+02
   -0.149992   30.26615  0.4459E-14  0.1085E-04  0.7433E-07  0.4745E-03  0.6697E-03  0.8146E+01
   -0.199991   30.26866  0.4459E-14  0.1168E-04  0.6596E-07  0.6329E-03  0.5978E-03  0.5237E+01
   -0.249989   30.27049  0.4459E-14  0.1234E-04  0.6048E-07  0.7567E-03  0.5440E-03  0.3848E+01
   -0.299988   30.27197  0.4459E-14  0.1288E-04  0.5658E-07  0.8799E-03  0.4992E-03  0.3068E+01
   -0.349988   30.27322  0.4459E-14  0.1333E-04  0.5365E-07  0.9916E-03  0.4608E-03  0.2611E+01
   -0.399988   30.27430  0.4459E-14  0.1371E-04  0.5137E-07  0.1094E-02  0.4269E-03  0.2334E+01
   -0.449988   30.27526  0.4459E-14  0.1404E-04  0.4952E-07  0.1189E-02  0.3970E-03  0.2179E+01
   -0.499988   30.27613  0.4459E-14  0.1432E-04  0.4799E-07  0.1276E-02  0.3706E-03  0.2131E+01
   -0.549989   30.27692  0.4459E-14  0.1456E-04  0.4671E-07  0.1356E-02  0.3470E-03  0.2089E+01
   -0.599990   30.27765  0.4459E-14  0.1477E-04  0.4564E-07  0.1428E-02  0.3256E-03  0.2103E+01
   -0.649991   30.27834  0.4459E-14  0.1495E-04  0.4472E-07  0.1493E-02  0.3062E-03  0.2114E+01
   -0.699992   30.27898  0.4459E-14  0.1510E-04  0.4395E-07  0.1551E-02  0.2883E-03  0.2175E+01
   -0.749993   30.27960  0.4459E-14  0.1523E-04  0.4331E-07  0.1601E-02  0.2718E-03  0.2231E+01
   -0.799995   30.28018  0.4459E-14  0.1533E-04  0.4277E-07  0.1644E-02  0.2564E-03  0.2339E+01
   -0.849996   30.28075  0.4459E-14  0.1541E-04  0.4234E-07  0.1678E-02  0.2421E-03  0.2442E+01
   -0.899998   30.28129  0.4459E-14  0.1547E-04  0.4201E-07  0.1705E-02  0.2286E-03  0.2605E+01
   -0.950000   30.28183  0.4459E-14  0.1551E-04  0.4177E-07  0.1724E-02  0.2159E-03  0.2768E+01
   -1.000001   30.28235  0.4459E-14  0.1553E-04  0.4163E-07  0.1735E-02  0.2039E-03  0.3008E+01
   -1.050003   30.28286  0.4459E-14  0.1552E-04  0.4159E-07  0.1736E-02  0.1926E-03  0.3384E+01
   -1.100005   30.28337  0.4459E-14  0.1550E-04  0.4165E-07  0.1821E-02  0.1817E-03  0.1131E+02
   -1.150006   30.28385  0.4459E-14  0.1545E-04  0.4185E-07  0.1655E-02  0.1720E-03  0.2557E+02
   -1.200008   30.28438  0.4459E-14  0.1538E-04  0.4216E-07  0.1680E-02  0.1620E-03  0.4882E+01
   -1.250009   30.28490  0.4459E-14  0.1529E-04  0.4264E-07  0.1650E-02  0.1524E-03  0.5234E+01
   -1.300011   30.28542  0.4459E-14  0.1516E-04  0.4332E-07  0.1601E-02  0.1432E-03  0.6081E+01
   -1.350012   30.28595  0.4459E-14  0.1501E-04  0.4425E-07  0.1543E-02  0.1342E-03  0.7324E+01
   -1.400013   30.28651  0.4459E-14  0.1482E-04  0.4551E-07  0.1467E-02  0.1255E-03  0.8991E+01
   -1.450014   30.28709  0.4459E-14  0.1459E-04  0.4723E-07  0.1390E-02  0.1170E-03  0.1152E+02
   -1.500014   30.28771  0.4459E-14  0.1431E-04  0.4961E-07  0.1280E-02  0.1086E-03  0.1557E+02
   -1.550015   30.28838  0.4459E-14  0.1397E-04  0.5298E-07  0.1197E-02  0.1001E-03  0.2229E+02
   -1.600015   30.28911  0.4459E-14  0.1355E-04  0.5815E-07  0.1054E-02  0.9191E-04  0.4322E+02
   -1.650015   30.28999  0.4459E-14  0.1300E-04  0.6617E-07  0.9758E-03  0.8303E-04  0.3315E+04
   -1.700014   30.29099  0.4459E-14  0.1225E-04  0.8055E-07  0.7973E-03  0.7442E-04 -0.2967E+04
   -1.750013   30.29275  0.4459E-14  0.1124E-04  0.1044E-06  0.7170E-03  0.6295E-04  0.1239E+06
   -1.800012   30.29428  0.4459E-14  0.9895E-05  0.1543E-06  0.5012E-03  0.5390E-04  0.2157E+05
   -1.850010   30.30015  0.4459E-14  0.8375E-05  0.2480E-06  0.4567E-03  0.3845E-04  0.2635E+08
   -1.900008   30.29922  0.4459E-14  0.6622E-05  0.5177E-06  0.2084E-03  0.3105E-04 -0.3432E+04
   -1.950006   30.31777  0.4459E-14  0.4624E-05  0.1288E-05  0.1863E-03  0.1663E-04 -0.3128E+06
   -2.000003   30.31959  0.4459E-14  0.0000E+00  0.0000E+00  0.0000E+00  0.3090E-04  0.0000E+00
