 1 - depth, m
 2 - temperature, C
 3 - salinity, kg/kg
 4 - turbulent kinetic energy, m**2/s**2
 5 - dissipation rate, m**2/s**3
 6 - kinematic heat conductance, m**2/s
 7 - modulus of horizontal velocity, m/s
 8 - Richardson number, n/d
   -0.000000   30.25062  0.1043E-13  0.4603E-05  0.2803E-06  0.4919E-04  0.1122E-02  0.3214E+04
   -0.049997   30.27974  0.1043E-13  0.7986E-05  0.1247E-06  0.1762E-03  0.6351E-03  0.5362E+02
   -0.099994   30.29094  0.1043E-13  0.9698E-05  0.8612E-07  0.3991E-03  0.4642E-03  0.3662E+02
   -0.149992   30.29399  0.1043E-13  0.1077E-04  0.7249E-07  0.4788E-03  0.4101E-03  0.1790E+02
   -0.199991   30.29643  0.1043E-13  0.1160E-04  0.6450E-07  0.6391E-03  0.3662E-03  0.1155E+02
   -0.249989   30.29821  0.1043E-13  0.1227E-04  0.5926E-07  0.7635E-03  0.3333E-03  0.8558E+01
   -0.299988   30.29965  0.1043E-13  0.1281E-04  0.5554E-07  0.8873E-03  0.3060E-03  0.6826E+01
   -0.349988   30.30087  0.1043E-13  0.1327E-04  0.5275E-07  0.9994E-03  0.2825E-03  0.5858E+01
   -0.399988   30.30193  0.1043E-13  0.1365E-04  0.5058E-07  0.1102E-02  0.2618E-03  0.5225E+01
   -0.449988   30.30287  0.1043E-13  0.1398E-04  0.4883E-07  0.1197E-02  0.2435E-03  0.4919E+01
   -0.499988   30.30372  0.1043E-13  0.1427E-04  0.4738E-07  0.1285E-02  0.2274E-03  0.4786E+01
   -0.549989   30.30450  0.1043E-13  0.1452E-04  0.4618E-07  0.1365E-02  0.2129E-03  0.4736E+01
   -0.599990   30.30522  0.1043E-13  0.1474E-04  0.4517E-07  0.1438E-02  0.1998E-03  0.4739E+01
   -0.649991   30.30589  0.1043E-13  0.1493E-04  0.4433E-07  0.1503E-02  0.1879E-03  0.4813E+01
   -0.699992   30.30653  0.1043E-13  0.1509E-04  0.4362E-07  0.1560E-02  0.1769E-03  0.4924E+01
   -0.749993   30.30713  0.1043E-13  0.1522E-04  0.4303E-07  0.1611E-02  0.1668E-03  0.5104E+01
   -0.799995   30.30771  0.1043E-13  0.1533E-04  0.4256E-07  0.1653E-02  0.1574E-03  0.5320E+01
   -0.849996   30.30827  0.1043E-13  0.1542E-04  0.4218E-07  0.1688E-02  0.1486E-03  0.5616E+01
   -0.899998   30.30881  0.1043E-13  0.1549E-04  0.4191E-07  0.1715E-02  0.1403E-03  0.5957E+01
   -0.950000   30.30934  0.1043E-13  0.1554E-04  0.4172E-07  0.1733E-02  0.1326E-03  0.6403E+01
   -1.000001   30.30986  0.1043E-13  0.1557E-04  0.4164E-07  0.1744E-02  0.1252E-03  0.6916E+01
   -1.050003   30.31038  0.1043E-13  0.1558E-04  0.4165E-07  0.1745E-02  0.1182E-03  0.7875E+01
   -1.100005   30.31089  0.1043E-13  0.1556E-04  0.4178E-07  0.1830E-02  0.1116E-03  0.2614E+02
   -1.150006   30.31137  0.1043E-13  0.1553E-04  0.4203E-07  0.1665E-02  0.1057E-03  0.5911E+02
   -1.200008   30.31190  0.1043E-13  0.1547E-04  0.4240E-07  0.1689E-02  0.9950E-04  0.1144E+02
   -1.250009   30.31242  0.1043E-13  0.1538E-04  0.4295E-07  0.1658E-02  0.9362E-04  0.1222E+02
   -1.300011   30.31295  0.1043E-13  0.1527E-04  0.4369E-07  0.1609E-02  0.8795E-04  0.1436E+02
   -1.350012   30.31350  0.1043E-13  0.1513E-04  0.4469E-07  0.1551E-02  0.8246E-04  0.1721E+02
   -1.400013   30.31406  0.1043E-13  0.1495E-04  0.4602E-07  0.1475E-02  0.7711E-04  0.2134E+02
   -1.450014   30.31466  0.1043E-13  0.1473E-04  0.4781E-07  0.1398E-02  0.7186E-04  0.2723E+02
   -1.500014   30.31529  0.1043E-13  0.1446E-04  0.5027E-07  0.1289E-02  0.6670E-04  0.3706E+02
   -1.550015   30.31598  0.1043E-13  0.1413E-04  0.5373E-07  0.1203E-02  0.6154E-04  0.5292E+02
   -1.600015   30.31673  0.1043E-13  0.1372E-04  0.5898E-07  0.1062E-02  0.5646E-04  0.1008E+03
   -1.650015   30.31764  0.1043E-13  0.1318E-04  0.6707E-07  0.9771E-03  0.5105E-04  0.9971E+03
   -1.700014   30.31868  0.1043E-13  0.1245E-04  0.8139E-07  0.8034E-03  0.4572E-04 -0.3714E+03
   -1.750013   30.32046  0.1043E-13  0.1146E-04  0.1050E-06  0.7190E-03  0.3883E-04  0.8297E+05
   -1.800012   30.32203  0.1043E-13  0.1013E-04  0.1539E-06  0.5099E-03  0.3327E-04  0.5245E+06
   -1.850010   30.32806  0.1043E-13  0.8611E-05  0.2471E-06  0.4590E-03  0.2400E-04  0.2735E+08
   -1.900008   30.32726  0.1043E-13  0.6783E-05  0.5176E-06  0.2088E-03  0.1931E-04 -0.6008E+05
   -1.950006   30.34662  0.1043E-13  0.4738E-05  0.1290E-05  0.1846E-03  0.1038E-04 -0.1151E+07
   -2.000003   30.34831  0.1043E-13  0.0000E+00  0.0000E+00  0.0000E+00  0.1895E-04  0.0000E+00
