 1 - depth, m
 2 - temperature, C
 3 - salinity, kg/kg
 4 - turbulent kinetic energy, m**2/s**2
 5 - dissipation rate, m**2/s**3
 6 - kinematic heat conductance, m**2/s
 7 - modulus of horizontal velocity, m/s
 8 - Richardson number, n/d
   -0.000000   29.76341  0.1712E-13  0.5183E-05  0.2952E-06  0.5070E-04  0.3064E-02  0.1106E+04
   -0.049997   29.79426  0.1712E-13  0.8468E-05  0.1290E-06  0.1970E-03  0.1654E-02  0.5278E+03
   -0.099994   29.80384  0.1712E-13  0.1001E-04  0.9131E-07  0.3829E-03  0.1285E-02  0.5436E+01
   -0.149992   29.80721  0.1712E-13  0.1101E-04  0.7680E-07  0.4789E-03  0.1140E-02  0.2797E+01
   -0.199991   29.80979  0.1712E-13  0.1180E-04  0.6828E-07  0.6201E-03  0.1027E-02  0.1842E+01
   -0.249989   29.81172  0.1712E-13  0.1243E-04  0.6268E-07  0.7339E-03  0.9399E-03  0.1398E+01
   -0.299989   29.81331  0.1712E-13  0.1295E-04  0.5865E-07  0.8376E-03  0.8667E-03  0.1232E+01
   -0.349988   29.81466  0.1712E-13  0.1341E-04  0.5545E-07  0.9466E-03  0.8007E-03  0.1276E+01
   -0.399988   29.81583  0.1712E-13  0.1383E-04  0.5277E-07  0.1067E-02  0.7367E-03  0.1300E+01
   -0.449988   29.81683  0.1712E-13  0.1421E-04  0.5050E-07  0.1185E-02  0.6773E-03  0.1313E+01
   -0.499988   29.81772  0.1712E-13  0.1454E-04  0.4858E-07  0.1295E-02  0.6235E-03  0.1320E+01
   -0.549989   29.81852  0.1712E-13  0.1483E-04  0.4697E-07  0.1396E-02  0.5750E-03  0.1318E+01
   -0.599990   29.81924  0.1712E-13  0.1507E-04  0.4561E-07  0.1488E-02  0.5314E-03  0.1311E+01
   -0.649991   29.81991  0.1712E-13  0.1527E-04  0.4448E-07  0.1569E-02  0.4921E-03  0.1300E+01
   -0.699992   29.82053  0.1712E-13  0.1542E-04  0.4352E-07  0.1638E-02  0.4566E-03  0.1284E+01
   -0.749993   29.82112  0.1712E-13  0.1554E-04  0.4274E-07  0.1696E-02  0.4246E-03  0.1264E+01
   -0.799995   29.82168  0.1712E-13  0.1563E-04  0.4210E-07  0.1741E-02  0.3957E-03  0.1240E+01
   -0.849996   29.82221  0.1712E-13  0.1569E-04  0.4160E-07  0.1775E-02  0.3697E-03  0.1214E+01
   -0.899998   29.82273  0.1712E-13  0.1571E-04  0.4122E-07  0.1797E-02  0.3463E-03  0.1183E+01
   -0.950000   29.82323  0.1712E-13  0.1571E-04  0.4095E-07  0.1808E-02  0.3251E-03  0.1156E+01
   -1.000002   29.82372  0.1712E-13  0.1569E-04  0.4079E-07  0.1810E-02  0.3060E-03  0.1149E+01
   -1.050003   29.82421  0.1712E-13  0.1565E-04  0.4073E-07  0.1802E-02  0.2887E-03  0.1216E+01
   -1.100005   29.82469  0.1712E-13  0.1559E-04  0.4077E-07  0.1922E-02  0.2726E-03  0.3803E+01
   -1.150007   29.82513  0.1712E-13  0.1550E-04  0.4094E-07  0.1664E-02  0.2588E-03  0.9371E+01
   -1.200008   29.82564  0.1712E-13  0.1539E-04  0.4123E-07  0.1720E-02  0.2437E-03  0.1726E+01
   -1.250010   29.82613  0.1712E-13  0.1526E-04  0.4168E-07  0.1686E-02  0.2296E-03  0.1825E+01
   -1.300011   29.82662  0.1712E-13  0.1510E-04  0.4233E-07  0.1630E-02  0.2159E-03  0.2138E+01
   -1.350012   29.82712  0.1712E-13  0.1490E-04  0.4324E-07  0.1564E-02  0.2027E-03  0.2569E+01
   -1.400013   29.82763  0.1712E-13  0.1467E-04  0.4450E-07  0.1479E-02  0.1897E-03  0.3189E+01
   -1.450014   29.82818  0.1712E-13  0.1440E-04  0.4624E-07  0.1396E-02  0.1770E-03  0.4102E+01
   -1.500015   29.82875  0.1712E-13  0.1407E-04  0.4871E-07  0.1278E-02  0.1644E-03  0.5645E+01
   -1.550015   29.82938  0.1712E-13  0.1368E-04  0.5226E-07  0.1193E-02  0.1517E-03  0.8218E+01
   -1.600015   29.83006  0.1712E-13  0.1320E-04  0.5786E-07  0.1047E-02  0.1392E-03  0.1982E+02
   -1.650015   29.83090  0.1712E-13  0.1258E-04  0.6679E-07  0.9669E-03  0.1256E-03  0.3148E+03
   -1.700015   29.83188  0.1712E-13  0.1172E-04  0.8276E-07  0.7815E-03  0.1120E-03  0.2837E+03
   -1.750014   29.83365  0.1712E-13  0.1062E-04  0.1086E-06  0.7019E-03  0.9359E-04  0.6844E+05
   -1.800012   29.83498  0.1712E-13  0.9176E-05  0.1670E-06  0.4743E-03  0.8007E-04  0.2056E+05
   -1.850011   29.84132  0.1712E-13  0.7677E-05  0.2725E-06  0.4519E-03  0.5511E-04  0.1011E+08
   -1.900009   29.83922  0.1712E-13  0.6034E-05  0.5778E-06  0.2012E-03  0.4549E-04  0.3756E+05
   -1.950006   29.85702  0.1712E-13  0.4241E-05  0.1404E-05  0.2032E-03  0.2351E-04 -0.1086E+06
   -2.000003   29.85707  0.1712E-13  0.0000E+00  0.0000E+00  0.0000E+00  0.4755E-04  0.0000E+00
