 1 - depth, m
 2 - temperature, C
 3 - salinity, kg/kg
 4 - turbulent kinetic energy, m**2/s**2
 5 - dissipation rate, m**2/s**3
 6 - kinematic heat conductance, m**2/s
 7 - modulus of horizontal velocity, m/s
 8 - Richardson number, n/d
   -0.000000   30.10666  0.7245E-13  0.6106E-05  0.3214E-06  0.5845E-04  0.5014E-02  0.5415E+00
   -0.049997   30.13569  0.7245E-13  0.9260E-05  0.1356E-06  0.2178E-03  0.2698E-02  0.5056E+01
   -0.099994   30.14357  0.7245E-13  0.1061E-04  0.9915E-07  0.3824E-03  0.2228E-02  0.2503E+01
   -0.149992   30.14705  0.7245E-13  0.1157E-04  0.8435E-07  0.4715E-03  0.2012E-02  0.1469E+01
   -0.199991   30.14974  0.7245E-13  0.1239E-04  0.7542E-07  0.5878E-03  0.1840E-02  0.1319E+01
   -0.249989   30.15183  0.7245E-13  0.1315E-04  0.6902E-07  0.7146E-03  0.1690E-02  0.1435E+01
   -0.299988   30.15351  0.7245E-13  0.1388E-04  0.6395E-07  0.8655E-03  0.1543E-02  0.1555E+01
   -0.349988   30.15486  0.7245E-13  0.1458E-04  0.5982E-07  0.1032E-02  0.1400E-02  0.1668E+01
   -0.399988   30.15597  0.7245E-13  0.1522E-04  0.5643E-07  0.1203E-02  0.1260E-02  0.1681E+01
   -0.449988   30.15690  0.7245E-13  0.1579E-04  0.5365E-07  0.1350E-02  0.1132E-02  0.1657E+01
   -0.499988   30.15771  0.7245E-13  0.1627E-04  0.5139E-07  0.1481E-02  0.1018E-02  0.1629E+01
   -0.549989   30.15843  0.7245E-13  0.1668E-04  0.4958E-07  0.1606E-02  0.9172E-03  0.1594E+01
   -0.599990   30.15909  0.7245E-13  0.1701E-04  0.4812E-07  0.1726E-02  0.8287E-03  0.1560E+01
   -0.649991   30.15969  0.7245E-13  0.1727E-04  0.4697E-07  0.1839E-02  0.7506E-03  0.1525E+01
   -0.699992   30.16025  0.7245E-13  0.1746E-04  0.4609E-07  0.1942E-02  0.6817E-03  0.1488E+01
   -0.749993   30.16076  0.7245E-13  0.1759E-04  0.4543E-07  0.2023E-02  0.6208E-03  0.1451E+01
   -0.799995   30.16126  0.7245E-13  0.1767E-04  0.4497E-07  0.2076E-02  0.5670E-03  0.1410E+01
   -0.849996   30.16173  0.7245E-13  0.1771E-04  0.4469E-07  0.2101E-02  0.5195E-03  0.1367E+01
   -0.899998   30.16219  0.7245E-13  0.1770E-04  0.4457E-07  0.2104E-02  0.4774E-03  0.1321E+01
   -0.949999   30.16265  0.7245E-13  0.1766E-04  0.4461E-07  0.2090E-02  0.4401E-03  0.1275E+01
   -1.000001   30.16311  0.7245E-13  0.1759E-04  0.4479E-07  0.2061E-02  0.4071E-03  0.1225E+01
   -1.050003   30.16357  0.7245E-13  0.1750E-04  0.4510E-07  0.1994E-02  0.3778E-03  0.1167E+01
   -1.100005   30.16404  0.7245E-13  0.1739E-04  0.4548E-07  0.2213E-02  0.3520E-03  0.2151E+01
   -1.150006   30.16446  0.7245E-13  0.1728E-04  0.4598E-07  0.1753E-02  0.3362E-03  0.6010E+01
   -1.200008   30.16499  0.7245E-13  0.1714E-04  0.4665E-07  0.1878E-02  0.3174E-03  0.1159E+01
   -1.250009   30.16548  0.7245E-13  0.1696E-04  0.4756E-07  0.1821E-02  0.2990E-03  0.1181E+01
   -1.300011   30.16599  0.7245E-13  0.1675E-04  0.4874E-07  0.1742E-02  0.2817E-03  0.1347E+01
   -1.350012   30.16651  0.7245E-13  0.1651E-04  0.5027E-07  0.1665E-02  0.2651E-03  0.1627E+01
   -1.400013   30.16706  0.7245E-13  0.1623E-04  0.5232E-07  0.1555E-02  0.2490E-03  0.2092E+01
   -1.450014   30.16766  0.7245E-13  0.1589E-04  0.5511E-07  0.1464E-02  0.2330E-03  0.2788E+01
   -1.500014   30.16829  0.7245E-13  0.1548E-04  0.5904E-07  0.1321E-02  0.2170E-03  0.4108E+01
   -1.550015   30.16902  0.7245E-13  0.1499E-04  0.6471E-07  0.1241E-02  0.2005E-03  0.6752E+01
   -1.600015   30.16981  0.7245E-13  0.1436E-04  0.7408E-07  0.1073E-02  0.1844E-03  0.2277E+03
   -1.650014   30.17098  0.7245E-13  0.1353E-04  0.8868E-07  0.9839E-03  0.1649E-03  0.1555E+03
   -1.700014   30.17226  0.7245E-13  0.1242E-04  0.1140E-06  0.7915E-03  0.1460E-03  0.2607E+04
   -1.750013   30.17480  0.7245E-13  0.1110E-04  0.1542E-06  0.7048E-03  0.1194E-03  0.1113E+06
   -1.800012   30.17620  0.7245E-13  0.9522E-05  0.2433E-06  0.4859E-03  0.1027E-03  0.3989E+05
   -1.850010   30.18592  0.7245E-13  0.8000E-05  0.4078E-06  0.4598E-03  0.6848E-04  0.7178E+08
   -1.900008   30.18101  0.7245E-13  0.6338E-05  0.8561E-06  0.2180E-03  0.5742E-04 -0.6104E+05
   -1.950005   30.20529  0.7245E-13  0.4594E-05  0.1998E-05  0.2359E-03  0.2944E-04 -0.2698E+05
   -2.000002   30.20425  0.7245E-13  0.0000E+00  0.0000E+00  0.0000E+00  0.6455E-04  0.0000E+00
