 1 - depth, m
 2 - temperature, C
 3 - salinity, kg/kg
 4 - turbulent kinetic energy, m**2/s**2
 5 - dissipation rate, m**2/s**3
 6 - kinematic heat conductance, m**2/s
 7 - modulus of horizontal velocity, m/s
 8 - Richardson number, n/d
   -0.000000   30.12030  0.1993E-14  0.4398E-05  0.2594E-06  0.4845E-04  0.1658E-02  0.3913E+04
   -0.049997   30.14676  0.1993E-14  0.7545E-05  0.1154E-06  0.1704E-03  0.9420E-03  0.2841E+03
   -0.099994   30.15708  0.1993E-14  0.9168E-05  0.7935E-07  0.3883E-03  0.6852E-03  0.1622E+02
   -0.149992   30.15989  0.1993E-14  0.1018E-04  0.6671E-07  0.4679E-03  0.6044E-03  0.7897E+01
   -0.199991   30.16215  0.1993E-14  0.1098E-04  0.5933E-07  0.6242E-03  0.5390E-03  0.5088E+01
   -0.249989   30.16380  0.1993E-14  0.1162E-04  0.5453E-07  0.7467E-03  0.4901E-03  0.3763E+01
   -0.299989   30.16514  0.1993E-14  0.1215E-04  0.5112E-07  0.8682E-03  0.4493E-03  0.3004E+01
   -0.349988   30.16627  0.1993E-14  0.1259E-04  0.4859E-07  0.9786E-03  0.4145E-03  0.2579E+01
   -0.399988   30.16726  0.1993E-14  0.1296E-04  0.4663E-07  0.1080E-02  0.3837E-03  0.2303E+01
   -0.449988   30.16814  0.1993E-14  0.1329E-04  0.4505E-07  0.1174E-02  0.3566E-03  0.2169E+01
   -0.499988   30.16893  0.1993E-14  0.1357E-04  0.4376E-07  0.1260E-02  0.3326E-03  0.2113E+01
   -0.549989   30.16966  0.1993E-14  0.1382E-04  0.4270E-07  0.1340E-02  0.3112E-03  0.2093E+01
   -0.599990   30.17033  0.1993E-14  0.1404E-04  0.4182E-07  0.1412E-02  0.2919E-03  0.2099E+01
   -0.649991   30.17096  0.1993E-14  0.1424E-04  0.4109E-07  0.1477E-02  0.2742E-03  0.2136E+01
   -0.699992   30.17156  0.1993E-14  0.1440E-04  0.4049E-07  0.1534E-02  0.2580E-03  0.2190E+01
   -0.749993   30.17213  0.1993E-14  0.1455E-04  0.4001E-07  0.1584E-02  0.2431E-03  0.2275E+01
   -0.799995   30.17267  0.1993E-14  0.1467E-04  0.3963E-07  0.1627E-02  0.2292E-03  0.2378E+01
   -0.849996   30.17320  0.1993E-14  0.1478E-04  0.3934E-07  0.1662E-02  0.2163E-03  0.2515E+01
   -0.899998   30.17372  0.1993E-14  0.1486E-04  0.3915E-07  0.1690E-02  0.2041E-03  0.2676E+01
   -0.950000   30.17422  0.1993E-14  0.1492E-04  0.3905E-07  0.1709E-02  0.1927E-03  0.2882E+01
   -1.000001   30.17472  0.1993E-14  0.1497E-04  0.3903E-07  0.1721E-02  0.1819E-03  0.3123E+01
   -1.050003   30.17521  0.1993E-14  0.1500E-04  0.3912E-07  0.1723E-02  0.1716E-03  0.3566E+01
   -1.100005   30.17570  0.1993E-14  0.1500E-04  0.3930E-07  0.1799E-02  0.1619E-03  0.1197E+02
   -1.150007   30.17617  0.1993E-14  0.1499E-04  0.3960E-07  0.1657E-02  0.1531E-03  0.2642E+02
   -1.200008   30.17668  0.1993E-14  0.1495E-04  0.4002E-07  0.1673E-02  0.1442E-03  0.5180E+01
   -1.250010   30.17719  0.1993E-14  0.1489E-04  0.4060E-07  0.1643E-02  0.1356E-03  0.5564E+01
   -1.300011   30.17770  0.1993E-14  0.1481E-04  0.4136E-07  0.1597E-02  0.1273E-03  0.6530E+01
   -1.350012   30.17823  0.1993E-14  0.1469E-04  0.4236E-07  0.1541E-02  0.1193E-03  0.7827E+01
   -1.400013   30.17879  0.1993E-14  0.1455E-04  0.4366E-07  0.1469E-02  0.1115E-03  0.9663E+01
   -1.450014   30.17937  0.1993E-14  0.1436E-04  0.4538E-07  0.1394E-02  0.1038E-03  0.1229E+02
   -1.500015   30.17999  0.1993E-14  0.1413E-04  0.4770E-07  0.1290E-02  0.9634E-04  0.1655E+02
   -1.550015   30.18066  0.1993E-14  0.1384E-04  0.5091E-07  0.1204E-02  0.8885E-04  0.2330E+02
   -1.600015   30.18140  0.1993E-14  0.1348E-04  0.5569E-07  0.1067E-02  0.8150E-04  0.4089E+02
   -1.650015   30.18228  0.1993E-14  0.1300E-04  0.6293E-07  0.9825E-03  0.7376E-04  0.8361E+02
   -1.700014   30.18327  0.1993E-14  0.1235E-04  0.7565E-07  0.8136E-03  0.6618E-04  0.2359E+03
   -1.750013   30.18493  0.1993E-14  0.1146E-04  0.9678E-07  0.7232E-03  0.5660E-04  0.3366E+05
   -1.800012   30.18654  0.1993E-14  0.1021E-04  0.1397E-06  0.5184E-03  0.4842E-04  0.4195E+04
   -1.850010   30.19187  0.1993E-14  0.8762E-05  0.2207E-06  0.4624E-03  0.3557E-04  0.4899E+07
   -1.900008   30.19168  0.1993E-14  0.6963E-05  0.4608E-06  0.2129E-03  0.2858E-04  0.2617E+06
   -1.950006   30.21024  0.1993E-14  0.4829E-05  0.1173E-05  0.1736E-03  0.1561E-04 -0.6466E+06
   -2.000003   30.21373  0.1993E-14  0.0000E+00  0.0000E+00  0.0000E+00  0.2727E-04  0.0000E+00
