 1 - depth, m
 2 - temperature, C
 3 - salinity, kg/kg
 4 - turbulent kinetic energy, m**2/s**2
 5 - dissipation rate, m**2/s**3
 6 - kinematic heat conductance, m**2/s
 7 - modulus of horizontal velocity, m/s
 8 - Richardson number, n/d
   -0.000000   30.64813  0.3803E-13  0.4788E-05  0.2961E-06  0.5031E-04  0.1552E-02  0.8833E+04
   -0.049997   30.67800  0.3803E-13  0.8192E-05  0.1321E-06  0.1762E-03  0.8868E-03  0.1697E+04
   -0.099994   30.68952  0.3803E-13  0.9940E-05  0.9087E-07  0.3967E-03  0.6496E-03  0.1993E+02
   -0.149992   30.69272  0.3803E-13  0.1103E-04  0.7624E-07  0.4773E-03  0.5736E-03  0.9735E+01
   -0.199991   30.69526  0.3803E-13  0.1189E-04  0.6767E-07  0.6382E-03  0.5121E-03  0.6243E+01
   -0.249989   30.69711  0.3803E-13  0.1256E-04  0.6206E-07  0.7631E-03  0.4662E-03  0.4598E+01
   -0.299988   30.69861  0.3803E-13  0.1312E-04  0.5807E-07  0.8877E-03  0.4279E-03  0.3659E+01
   -0.349988   30.69987  0.3803E-13  0.1357E-04  0.5508E-07  0.1000E-02  0.3951E-03  0.3123E+01
   -0.399988   30.70096  0.3803E-13  0.1396E-04  0.5275E-07  0.1104E-02  0.3661E-03  0.2785E+01
   -0.449988   30.70193  0.3803E-13  0.1429E-04  0.5086E-07  0.1199E-02  0.3407E-03  0.2609E+01
   -0.499988   30.70280  0.3803E-13  0.1458E-04  0.4930E-07  0.1287E-02  0.3181E-03  0.2541E+01
   -0.549989   30.70360  0.3803E-13  0.1483E-04  0.4800E-07  0.1368E-02  0.2979E-03  0.2502E+01
   -0.599989   30.70434  0.3803E-13  0.1504E-04  0.4690E-07  0.1441E-02  0.2797E-03  0.2507E+01
   -0.649991   30.70502  0.3803E-13  0.1522E-04  0.4597E-07  0.1506E-02  0.2631E-03  0.2533E+01
   -0.699992   30.70567  0.3803E-13  0.1538E-04  0.4519E-07  0.1564E-02  0.2478E-03  0.2596E+01
   -0.749993   30.70629  0.3803E-13  0.1551E-04  0.4454E-07  0.1615E-02  0.2336E-03  0.2676E+01
   -0.799995   30.70688  0.3803E-13  0.1562E-04  0.4400E-07  0.1657E-02  0.2205E-03  0.2796E+01
   -0.849996   30.70745  0.3803E-13  0.1570E-04  0.4357E-07  0.1692E-02  0.2082E-03  0.2934E+01
   -0.899998   30.70800  0.3803E-13  0.1576E-04  0.4324E-07  0.1719E-02  0.1967E-03  0.3120E+01
   -0.949999   30.70854  0.3803E-13  0.1580E-04  0.4301E-07  0.1738E-02  0.1859E-03  0.3335E+01
   -1.000001   30.70906  0.3803E-13  0.1582E-04  0.4289E-07  0.1748E-02  0.1756E-03  0.3611E+01
   -1.050003   30.70958  0.3803E-13  0.1582E-04  0.4286E-07  0.1749E-02  0.1658E-03  0.4089E+01
   -1.100005   30.71010  0.3803E-13  0.1580E-04  0.4295E-07  0.1836E-02  0.1565E-03  0.1355E+02
   -1.150006   30.71059  0.3803E-13  0.1575E-04  0.4317E-07  0.1664E-02  0.1483E-03  0.3111E+02
   -1.200008   30.71112  0.3803E-13  0.1568E-04  0.4352E-07  0.1690E-02  0.1396E-03  0.5944E+01
   -1.250009   30.71165  0.3803E-13  0.1558E-04  0.4404E-07  0.1660E-02  0.1314E-03  0.6356E+01
   -1.300011   30.71218  0.3803E-13  0.1546E-04  0.4477E-07  0.1610E-02  0.1235E-03  0.7450E+01
   -1.350012   30.71272  0.3803E-13  0.1530E-04  0.4577E-07  0.1551E-02  0.1158E-03  0.8963E+01
   -1.400013   30.71329  0.3803E-13  0.1511E-04  0.4712E-07  0.1473E-02  0.1083E-03  0.1112E+02
   -1.450014   30.71388  0.3803E-13  0.1488E-04  0.4895E-07  0.1396E-02  0.1010E-03  0.1428E+02
   -1.500014   30.71451  0.3803E-13  0.1459E-04  0.5149E-07  0.1284E-02  0.9375E-04  0.1958E+02
   -1.550015   30.71521  0.3803E-13  0.1424E-04  0.5509E-07  0.1202E-02  0.8648E-04  0.2821E+02
   -1.600015   30.71596  0.3803E-13  0.1380E-04  0.6065E-07  0.1056E-02  0.7938E-04  0.5620E+02
   -1.650014   30.71688  0.3803E-13  0.1323E-04  0.6924E-07  0.9802E-03  0.7169E-04  0.3952E+04
   -1.700014   30.71792  0.3803E-13  0.1245E-04  0.8468E-07  0.7954E-03  0.6425E-04 -0.4287E+04
   -1.750013   30.71982  0.3803E-13  0.1141E-04  0.1100E-06  0.7225E-03  0.5418E-04  0.1990E+06
   -1.800012   30.72131  0.3803E-13  0.1004E-04  0.1658E-06  0.4948E-03  0.4659E-04  0.5040E+04
   -1.850010   30.72801  0.3803E-13  0.8507E-05  0.2685E-06  0.4631E-03  0.3302E-04  0.1417E+08
   -1.900008   30.72628  0.3803E-13  0.6764E-05  0.5603E-06  0.2103E-03  0.2703E-04 -0.4160E+06
   -1.950005   30.74599  0.3803E-13  0.4736E-05  0.1398E-05  0.1902E-03  0.1449E-04 -0.4301E+06
   -2.000002   30.74816  0.3803E-13  0.0000E+00  0.0000E+00  0.0000E+00  0.2687E-04  0.0000E+00
