 1 - depth, m
 2 - temperature, C
 3 - salinity, kg/kg
 4 - turbulent kinetic energy, m**2/s**2
 5 - dissipation rate, m**2/s**3
 6 - kinematic heat conductance, m**2/s
 7 - modulus of horizontal velocity, m/s
 8 - Richardson number, n/d
   -0.000000   31.10895  0.3999E-13  0.5271E-05  0.3448E-06  0.5168E-04  0.9796E-03  0.2014E+05
   -0.049997   31.14359  0.3999E-13  0.9126E-05  0.1532E-06  0.1904E-03  0.5561E-03  0.3550E+03
   -0.099994   31.15607  0.3999E-13  0.1105E-04  0.1059E-06  0.4194E-03  0.4106E-03  0.7523E+02
   -0.149992   31.15960  0.3999E-13  0.1226E-04  0.8895E-07  0.5017E-03  0.3637E-03  0.3722E+02
   -0.199990   31.16242  0.3999E-13  0.1320E-04  0.7901E-07  0.6718E-03  0.3255E-03  0.2413E+02
   -0.249989   31.16447  0.3999E-13  0.1394E-04  0.7250E-07  0.8011E-03  0.2971E-03  0.1777E+02
   -0.299988   31.16613  0.3999E-13  0.1455E-04  0.6786E-07  0.9317E-03  0.2733E-03  0.1423E+02
   -0.349988   31.16752  0.3999E-13  0.1505E-04  0.6438E-07  0.1049E-02  0.2529E-03  0.1205E+02
   -0.399987   31.16873  0.3999E-13  0.1547E-04  0.6167E-07  0.1157E-02  0.2349E-03  0.1081E+02
   -0.449987   31.16980  0.3999E-13  0.1583E-04  0.5947E-07  0.1256E-02  0.2191E-03  0.1001E+02
   -0.499988   31.17077  0.3999E-13  0.1615E-04  0.5765E-07  0.1347E-02  0.2050E-03  0.9813E+01
   -0.549988   31.17166  0.4000E-13  0.1641E-04  0.5612E-07  0.1430E-02  0.1924E-03  0.9536E+01
   -0.599989   31.17247  0.4000E-13  0.1664E-04  0.5484E-07  0.1505E-02  0.1809E-03  0.9626E+01
   -0.649990   31.17324  0.4000E-13  0.1684E-04  0.5376E-07  0.1572E-02  0.1705E-03  0.9588E+01
   -0.699991   31.17396  0.4000E-13  0.1700E-04  0.5285E-07  0.1631E-02  0.1609E-03  0.9906E+01
   -0.749992   31.17464  0.4000E-13  0.1714E-04  0.5209E-07  0.1682E-02  0.1520E-03  0.1006E+02
   -0.799994   31.17530  0.4000E-13  0.1725E-04  0.5146E-07  0.1725E-02  0.1437E-03  0.1060E+02
   -0.849995   31.17593  0.4000E-13  0.1733E-04  0.5096E-07  0.1759E-02  0.1359E-03  0.1096E+02
   -0.899997   31.17654  0.4000E-13  0.1739E-04  0.5059E-07  0.1785E-02  0.1286E-03  0.1177E+02
   -0.949998   31.17714  0.4000E-13  0.1742E-04  0.5033E-07  0.1801E-02  0.1218E-03  0.1239E+02
   -1.000000   31.17772  0.4000E-13  0.1743E-04  0.5019E-07  0.1810E-02  0.1152E-03  0.1356E+02
   -1.050002   31.17830  0.4000E-13  0.1741E-04  0.5018E-07  0.1807E-02  0.1090E-03  0.1511E+02
   -1.100003   31.17888  0.4000E-13  0.1737E-04  0.5031E-07  0.1913E-02  0.1031E-03  0.4967E+02
   -1.150005   31.17942  0.4000E-13  0.1730E-04  0.5062E-07  0.1691E-02  0.9783E-04  0.1213E+03
   -1.200007   31.18002  0.4000E-13  0.1721E-04  0.5108E-07  0.1732E-02  0.9222E-04  0.2217E+02
   -1.250008   31.18061  0.4000E-13  0.1709E-04  0.5176E-07  0.1699E-02  0.8690E-04  0.2393E+02
   -1.300009   31.18121  0.4000E-13  0.1693E-04  0.5272E-07  0.1642E-02  0.8179E-04  0.2783E+02
   -1.350010   31.18183  0.4000E-13  0.1673E-04  0.5403E-07  0.1577E-02  0.7680E-04  0.3417E+02
   -1.400011   31.18247  0.4000E-13  0.1649E-04  0.5583E-07  0.1491E-02  0.7193E-04  0.4250E+02
   -1.450012   31.18315  0.4000E-13  0.1620E-04  0.5831E-07  0.1410E-02  0.6710E-04  0.5621E+02
   -1.500013   31.18388  0.4000E-13  0.1584E-04  0.6182E-07  0.1292E-02  0.6236E-04  0.7907E+02
   -1.550013   31.18469  0.4000E-13  0.1540E-04  0.6691E-07  0.1210E-02  0.5753E-04  0.1261E+03
   -1.600013   31.18557  0.4000E-13  0.1485E-04  0.7507E-07  0.1063E-02  0.5278E-04  0.2522E+04
   -1.650013   31.18676  0.4000E-13  0.1411E-04  0.8787E-07  0.9782E-03  0.4746E-04  0.1763E+04
   -1.700012   31.18811  0.4000E-13  0.1311E-04  0.1102E-06  0.7963E-03  0.4213E-04 -0.1424E+05
   -1.750011   31.19062  0.4000E-13  0.1190E-04  0.1462E-06  0.7165E-03  0.3498E-04  0.5966E+06
   -1.800010   31.19210  0.4000E-13  0.1040E-04  0.2248E-06  0.4936E-03  0.3015E-04  0.3609E+06
   -1.850008   31.20150  0.4000E-13  0.8863E-05  0.3755E-06  0.4698E-03  0.2083E-04  0.3664E+09
   -1.900006   31.19757  0.4000E-13  0.7121E-05  0.7912E-06  0.2239E-03  0.1732E-04  0.6997E+07
   -1.950003   31.22175  0.4000E-13  0.5064E-05  0.1891E-05  0.2141E-03  0.9275E-05  0.8518E+06
   -2.000000   31.22340  0.4000E-13  0.0000E+00  0.0000E+00  0.0000E+00  0.1816E-04  0.0000E+00
