 1 - depth, m
 2 - temperature, C
 3 - salinity, kg/kg
 4 - turbulent kinetic energy, m**2/s**2
 5 - dissipation rate, m**2/s**3
 6 - kinematic heat conductance, m**2/s
 7 - modulus of horizontal velocity, m/s
 8 - Richardson number, n/d
   -0.000000   30.22608  0.2070E-13  0.4972E-05  0.3138E-06  0.5159E-04  0.1784E-02  0.5293E+04
   -0.049997   30.25681  0.2070E-13  0.8453E-05  0.1397E-06  0.1783E-03  0.1021E-02  0.2236E+04
   -0.099994   30.26885  0.2070E-13  0.1026E-04  0.9586E-07  0.4018E-03  0.7494E-03  0.1609E+02
   -0.149992   30.27217  0.2070E-13  0.1139E-04  0.8030E-07  0.4832E-03  0.6622E-03  0.7901E+01
   -0.199991   30.27482  0.2070E-13  0.1228E-04  0.7123E-07  0.6474E-03  0.5915E-03  0.5055E+01
   -0.249989   30.27675  0.2071E-13  0.1298E-04  0.6531E-07  0.7742E-03  0.5387E-03  0.3719E+01
   -0.299988   30.27831  0.2071E-13  0.1356E-04  0.6111E-07  0.9013E-03  0.4948E-03  0.2961E+01
   -0.349988   30.27962  0.2071E-13  0.1404E-04  0.5796E-07  0.1016E-02  0.4572E-03  0.2523E+01
   -0.399988   30.28076  0.2071E-13  0.1444E-04  0.5553E-07  0.1121E-02  0.4240E-03  0.2253E+01
   -0.449988   30.28177  0.2071E-13  0.1479E-04  0.5355E-07  0.1219E-02  0.3947E-03  0.2108E+01
   -0.499988   30.28269  0.2071E-13  0.1509E-04  0.5192E-07  0.1309E-02  0.3688E-03  0.2059E+01
   -0.549989   30.28352  0.2071E-13  0.1536E-04  0.5056E-07  0.1392E-02  0.3456E-03  0.2023E+01
   -0.599989   30.28429  0.2071E-13  0.1558E-04  0.4942E-07  0.1467E-02  0.3246E-03  0.2031E+01
   -0.649990   30.28501  0.2071E-13  0.1578E-04  0.4846E-07  0.1534E-02  0.3054E-03  0.2046E+01
   -0.699992   30.28570  0.2071E-13  0.1594E-04  0.4766E-07  0.1593E-02  0.2878E-03  0.2098E+01
   -0.749993   30.28634  0.2071E-13  0.1608E-04  0.4699E-07  0.1644E-02  0.2715E-03  0.2155E+01
   -0.799994   30.28696  0.2071E-13  0.1620E-04  0.4644E-07  0.1688E-02  0.2564E-03  0.2253E+01
   -0.849996   30.28756  0.2071E-13  0.1629E-04  0.4601E-07  0.1723E-02  0.2423E-03  0.2358E+01
   -0.899998   30.28814  0.2071E-13  0.1636E-04  0.4568E-07  0.1751E-02  0.2290E-03  0.2511E+01
   -0.949999   30.28870  0.2071E-13  0.1640E-04  0.4546E-07  0.1769E-02  0.2166E-03  0.2676E+01
   -1.000001   30.28926  0.2071E-13  0.1642E-04  0.4534E-07  0.1780E-02  0.2047E-03  0.2903E+01
   -1.050003   30.28980  0.2071E-13  0.1643E-04  0.4534E-07  0.1781E-02  0.1935E-03  0.3275E+01
   -1.100005   30.29035  0.2071E-13  0.1640E-04  0.4545E-07  0.1871E-02  0.1828E-03  0.1088E+02
   -1.150006   30.29086  0.2071E-13  0.1636E-04  0.4571E-07  0.1693E-02  0.1733E-03  0.2485E+02
   -1.200008   30.29143  0.2071E-13  0.1629E-04  0.4610E-07  0.1721E-02  0.1633E-03  0.4746E+01
   -1.250009   30.29198  0.2071E-13  0.1619E-04  0.4668E-07  0.1690E-02  0.1538E-03  0.5087E+01
   -1.300011   30.29254  0.2071E-13  0.1607E-04  0.4747E-07  0.1639E-02  0.1446E-03  0.5937E+01
   -1.350012   30.29312  0.2071E-13  0.1591E-04  0.4855E-07  0.1578E-02  0.1357E-03  0.7156E+01
   -1.400013   30.29372  0.2071E-13  0.1571E-04  0.5001E-07  0.1500E-02  0.1271E-03  0.8835E+01
   -1.450014   30.29435  0.2071E-13  0.1547E-04  0.5198E-07  0.1420E-02  0.1185E-03  0.1136E+02
   -1.500014   30.29502  0.2071E-13  0.1518E-04  0.5470E-07  0.1307E-02  0.1102E-03  0.1548E+02
   -1.550014   30.29575  0.2071E-13  0.1481E-04  0.5857E-07  0.1222E-02  0.1017E-03  0.2249E+02
   -1.600015   30.29655  0.2071E-13  0.1436E-04  0.6449E-07  0.1075E-02  0.9345E-04  0.8450E+02
   -1.650014   30.29753  0.2071E-13  0.1377E-04  0.7370E-07  0.9954E-03  0.8450E-04  0.4177E+05
   -1.700014   30.29866  0.2071E-13  0.1297E-04  0.9001E-07  0.8096E-03  0.7573E-04 -0.3722E+03
   -1.750013   30.30060  0.2071E-13  0.1191E-04  0.1166E-06  0.7341E-03  0.6412E-04  0.8803E+05
   -1.800012   30.30227  0.2071E-13  0.1050E-04  0.1729E-06  0.5098E-03  0.5512E-04 -0.5014E+05
   -1.850010   30.30902  0.2071E-13  0.8916E-05  0.2789E-06  0.4693E-03  0.3944E-04  0.6885E+07
   -1.900008   30.30765  0.2071E-13  0.7065E-05  0.5780E-06  0.2184E-03  0.3208E-04 -0.8828E+04
   -1.950005   30.32855  0.2071E-13  0.4963E-05  0.1444E-05  0.1919E-03  0.1729E-04 -0.6098E+05
   -2.000002   30.33022  0.2071E-13  0.0000E+00  0.0000E+00  0.0000E+00  0.3189E-04  0.0000E+00
