 1 - depth, m
 2 - temperature, C
 3 - salinity, kg/kg
 4 - turbulent kinetic energy, m**2/s**2
 5 - dissipation rate, m**2/s**3
 6 - kinematic heat conductance, m**2/s
 7 - modulus of horizontal velocity, m/s
 8 - Richardson number, n/d
   -0.000000   30.48662  0.4930E-14  0.5318E-05  0.3252E-06  0.5259E-04  0.2592E-02  0.3061E+04
   -0.049997   30.51834  0.4930E-14  0.8816E-05  0.1430E-06  0.1928E-03  0.1426E-02  0.8006E+03
   -0.099994   30.52931  0.4930E-14  0.1054E-04  0.9969E-07  0.3971E-03  0.1087E-02  0.8497E+01
   -0.149992   30.53278  0.4930E-14  0.1164E-04  0.8359E-07  0.4883E-03  0.9632E-03  0.4271E+01
   -0.199991   30.53548  0.4930E-14  0.1251E-04  0.7417E-07  0.6427E-03  0.8650E-03  0.2755E+01
   -0.249989   30.53747  0.4930E-14  0.1320E-04  0.6802E-07  0.7651E-03  0.7904E-03  0.2055E+01
   -0.299988   30.53910  0.4930E-14  0.1377E-04  0.6363E-07  0.8814E-03  0.7281E-03  0.1682E+01
   -0.349988   30.54048  0.4930E-14  0.1425E-04  0.6025E-07  0.9928E-03  0.6734E-03  0.1552E+01
   -0.399988   30.54167  0.4930E-14  0.1468E-04  0.5752E-07  0.1107E-02  0.6222E-03  0.1474E+01
   -0.449988   30.54271  0.4930E-14  0.1506E-04  0.5524E-07  0.1217E-02  0.5753E-03  0.1445E+01
   -0.499988   30.54364  0.4930E-14  0.1539E-04  0.5334E-07  0.1320E-02  0.5331E-03  0.1429E+01
   -0.549989   30.54448  0.4930E-14  0.1568E-04  0.5174E-07  0.1415E-02  0.4949E-03  0.1425E+01
   -0.599989   30.54525  0.4930E-14  0.1592E-04  0.5039E-07  0.1501E-02  0.4605E-03  0.1416E+01
   -0.649990   30.54597  0.4930E-14  0.1613E-04  0.4927E-07  0.1577E-02  0.4293E-03  0.1420E+01
   -0.699992   30.54664  0.4930E-14  0.1629E-04  0.4833E-07  0.1643E-02  0.4011E-03  0.1417E+01
   -0.749993   30.54727  0.4930E-14  0.1643E-04  0.4756E-07  0.1699E-02  0.3754E-03  0.1430E+01
   -0.799994   30.54788  0.4930E-14  0.1653E-04  0.4693E-07  0.1743E-02  0.3520E-03  0.1436E+01
   -0.849996   30.54846  0.4930E-14  0.1660E-04  0.4644E-07  0.1778E-02  0.3307E-03  0.1463E+01
   -0.899998   30.54902  0.4930E-14  0.1665E-04  0.4607E-07  0.1802E-02  0.3112E-03  0.1487E+01
   -0.949999   30.54957  0.4930E-14  0.1667E-04  0.4581E-07  0.1816E-02  0.2933E-03  0.1544E+01
   -1.000001   30.55011  0.4930E-14  0.1667E-04  0.4567E-07  0.1822E-02  0.2769E-03  0.1611E+01
   -1.050003   30.55064  0.4930E-14  0.1664E-04  0.4564E-07  0.1816E-02  0.2615E-03  0.1797E+01
   -1.100005   30.55116  0.4930E-14  0.1660E-04  0.4573E-07  0.1929E-02  0.2472E-03  0.5771E+01
   -1.150006   30.55165  0.4930E-14  0.1652E-04  0.4597E-07  0.1693E-02  0.2346E-03  0.1372E+02
   -1.200008   30.55221  0.4930E-14  0.1643E-04  0.4635E-07  0.1740E-02  0.2211E-03  0.2589E+01
   -1.250009   30.55275  0.4930E-14  0.1630E-04  0.4692E-07  0.1707E-02  0.2084E-03  0.2734E+01
   -1.300011   30.55329  0.4930E-14  0.1615E-04  0.4772E-07  0.1651E-02  0.1961E-03  0.3224E+01
   -1.350012   30.55385  0.4930E-14  0.1596E-04  0.4882E-07  0.1587E-02  0.1841E-03  0.3854E+01
   -1.400013   30.55443  0.4930E-14  0.1573E-04  0.5033E-07  0.1501E-02  0.1724E-03  0.4821E+01
   -1.450014   30.55504  0.4930E-14  0.1545E-04  0.5240E-07  0.1421E-02  0.1609E-03  0.6172E+01
   -1.500014   30.55568  0.4930E-14  0.1512E-04  0.5533E-07  0.1301E-02  0.1495E-03  0.8586E+01
   -1.550015   30.55640  0.4930E-14  0.1471E-04  0.5953E-07  0.1220E-02  0.1380E-03  0.1273E+02
   -1.600015   30.55717  0.4930E-14  0.1420E-04  0.6623E-07  0.1070E-02  0.1268E-03  0.4764E+02
   -1.650014   30.55817  0.4930E-14  0.1354E-04  0.7668E-07  0.9888E-03  0.1142E-03  0.3021E+04
   -1.700014   30.55930  0.4930E-14  0.1264E-04  0.9509E-07  0.8041E-03  0.1019E-03 -0.6347E+02
   -1.750013   30.56137  0.4930E-14  0.1151E-04  0.1248E-06  0.7264E-03  0.8514E-04  0.4890E+06
   -1.800012   30.56276  0.4930E-14  0.1004E-04  0.1914E-06  0.4969E-03  0.7337E-04  0.1475E+05
   -1.850010   30.57036  0.4930E-14  0.8500E-05  0.3146E-06  0.4681E-03  0.5082E-04  0.2029E+08
   -1.900008   30.56770  0.4930E-14  0.6737E-05  0.6614E-06  0.2156E-03  0.4208E-04 -0.5786E+05
   -1.950005   30.58846  0.4930E-14  0.4762E-05  0.1611E-05  0.2056E-03  0.2227E-04 -0.2220E+06
   -2.000002   30.58943  0.4930E-14  0.0000E+00  0.0000E+00  0.0000E+00  0.4360E-04  0.0000E+00
