 1 - depth, m
 2 - temperature, C
 3 - salinity, kg/kg
 4 - turbulent kinetic energy, m**2/s**2
 5 - dissipation rate, m**2/s**3
 6 - kinematic heat conductance, m**2/s
 7 - modulus of horizontal velocity, m/s
 8 - Richardson number, n/d
   -0.000000   31.71859  0.9306E-14  0.5452E-05  0.3670E-06  0.5372E-04  0.5860E-03  0.1699E+04
   -0.049997   31.75360  0.9306E-14  0.9523E-05  0.1626E-06  0.1914E-03  0.3361E-03  0.2406E+03
   -0.099994   31.76664  0.9306E-14  0.1154E-04  0.1119E-06  0.4378E-03  0.2454E-03  0.1386E+03
   -0.149992   31.77019  0.9306E-14  0.1280E-04  0.9424E-07  0.5116E-03  0.2181E-03  0.6885E+02
   -0.199990   31.77307  0.9306E-14  0.1379E-04  0.8382E-07  0.6897E-03  0.1953E-03  0.4465E+02
   -0.249989   31.77516  0.9306E-14  0.1457E-04  0.7699E-07  0.8217E-03  0.1784E-03  0.3320E+02
   -0.299988   31.77685  0.9306E-14  0.1520E-04  0.7212E-07  0.9555E-03  0.1643E-03  0.2653E+02
   -0.349987   31.77828  0.9306E-14  0.1573E-04  0.6846E-07  0.1076E-02  0.1522E-03  0.2268E+02
   -0.399987   31.77951  0.9306E-14  0.1617E-04  0.6562E-07  0.1186E-02  0.1415E-03  0.2024E+02
   -0.449987   31.78061  0.9306E-14  0.1655E-04  0.6330E-07  0.1287E-02  0.1321E-03  0.1893E+02
   -0.499987   31.78160  0.9306E-14  0.1688E-04  0.6139E-07  0.1381E-02  0.1237E-03  0.1842E+02
   -0.549988   31.78251  0.9306E-14  0.1716E-04  0.5980E-07  0.1465E-02  0.1162E-03  0.1810E+02
   -0.599989   31.78334  0.9306E-14  0.1740E-04  0.5846E-07  0.1542E-02  0.1094E-03  0.1811E+02
   -0.649990   31.78413  0.9306E-14  0.1761E-04  0.5733E-07  0.1611E-02  0.1031E-03  0.1826E+02
   -0.699991   31.78487  0.9306E-14  0.1778E-04  0.5638E-07  0.1671E-02  0.9740E-04  0.1868E+02
   -0.749992   31.78557  0.9306E-14  0.1792E-04  0.5559E-07  0.1722E-02  0.9209E-04  0.1923E+02
   -0.799994   31.78624  0.9306E-14  0.1804E-04  0.5494E-07  0.1766E-02  0.8713E-04  0.2005E+02
   -0.849995   31.78689  0.9306E-14  0.1813E-04  0.5443E-07  0.1800E-02  0.8250E-04  0.2102E+02
   -0.899997   31.78752  0.9306E-14  0.1819E-04  0.5404E-07  0.1826E-02  0.7813E-04  0.2233E+02
   -0.949998   31.78813  0.9306E-14  0.1822E-04  0.5379E-07  0.1843E-02  0.7400E-04  0.2385E+02
   -1.000000   31.78873  0.9306E-14  0.1824E-04  0.5366E-07  0.1851E-02  0.7009E-04  0.2583E+02
   -1.050002   31.78933  0.9306E-14  0.1822E-04  0.5367E-07  0.1848E-02  0.6637E-04  0.2917E+02
   -1.100003   31.78992  0.9306E-14  0.1818E-04  0.5382E-07  0.1961E-02  0.6280E-04  0.9472E+02
   -1.150005   31.79047  0.9306E-14  0.1811E-04  0.5417E-07  0.1723E-02  0.5965E-04  0.2310E+03
   -1.200006   31.79110  0.9306E-14  0.1801E-04  0.5468E-07  0.1769E-02  0.5627E-04  0.4295E+02
   -1.250008   31.79171  0.9306E-14  0.1788E-04  0.5543E-07  0.1736E-02  0.5308E-04  0.4592E+02
   -1.300009   31.79233  0.9306E-14  0.1772E-04  0.5647E-07  0.1677E-02  0.5000E-04  0.5412E+02
   -1.350010   31.79296  0.9306E-14  0.1751E-04  0.5790E-07  0.1610E-02  0.4699E-04  0.6571E+02
   -1.400011   31.79363  0.9306E-14  0.1726E-04  0.5984E-07  0.1521E-02  0.4405E-04  0.8262E+02
   -1.450012   31.79433  0.9306E-14  0.1696E-04  0.6252E-07  0.1438E-02  0.4114E-04  0.1080E+03
   -1.500012   31.79508  0.9306E-14  0.1658E-04  0.6630E-07  0.1315E-02  0.3827E-04  0.1528E+03
   -1.550013   31.79592  0.9306E-14  0.1612E-04  0.7178E-07  0.1232E-02  0.3535E-04  0.2440E+03
   -1.600013   31.79684  0.9306E-14  0.1554E-04  0.8055E-07  0.1080E-02  0.3247E-04  0.5876E+03
   -1.650012   31.79806  0.9306E-14  0.1478E-04  0.9427E-07  0.9944E-03  0.2922E-04  0.7540E+05
   -1.700012   31.79946  0.9306E-14  0.1373E-04  0.1180E-06  0.8099E-03  0.2598E-04  0.7551E+04
   -1.750011   31.80200  0.9306E-14  0.1247E-04  0.1561E-06  0.7333E-03  0.2168E-04  0.2778E+07
   -1.800010   31.80356  0.9306E-14  0.1087E-04  0.2396E-06  0.4999E-03  0.1874E-04  0.3107E+06
   -1.850008   31.81331  0.9306E-14  0.9230E-05  0.3993E-06  0.4762E-03  0.1291E-04  0.1752E+10
   -1.900006   31.80954  0.9306E-14  0.7370E-05  0.8264E-06  0.2205E-03  0.1074E-04 -0.3572E+07
   -1.950003   31.83523  0.9306E-14  0.5282E-05  0.1985E-05  0.2204E-03  0.5715E-05 -0.3547E+07
   -2.000000   31.83495  0.9306E-14  0.0000E+00  0.0000E+00  0.0000E+00  0.1125E-04  0.0000E+00
