 1 - depth, m
 2 - temperature, C
 3 - salinity, kg/kg
 4 - turbulent kinetic energy, m**2/s**2
 5 - dissipation rate, m**2/s**3
 6 - kinematic heat conductance, m**2/s
 7 - modulus of horizontal velocity, m/s
 8 - Richardson number, n/d
   -0.000000   29.60036  0.1398E-13  0.4369E-05  0.2566E-06  0.4791E-04  0.1319E-02  0.6225E+04
   -0.049997   29.62803  0.1398E-13  0.7562E-05  0.1143E-06  0.1719E-03  0.7459E-03  0.1503E+04
   -0.099994   29.63855  0.1398E-13  0.9175E-05  0.7898E-07  0.3886E-03  0.5442E-03  0.2593E+02
   -0.149992   29.64146  0.1398E-13  0.1018E-04  0.6650E-07  0.4683E-03  0.4801E-03  0.1262E+02
   -0.199991   29.64379  0.1398E-13  0.1097E-04  0.5917E-07  0.6234E-03  0.4283E-03  0.8150E+01
   -0.249989   29.64549  0.1398E-13  0.1160E-04  0.5436E-07  0.7453E-03  0.3894E-03  0.6028E+01
   -0.299989   29.64687  0.1398E-13  0.1211E-04  0.5094E-07  0.8658E-03  0.3571E-03  0.4808E+01
   -0.349988   29.64803  0.1398E-13  0.1254E-04  0.4837E-07  0.9754E-03  0.3293E-03  0.4122E+01
   -0.399988   29.64904  0.1398E-13  0.1291E-04  0.4638E-07  0.1076E-02  0.3048E-03  0.3679E+01
   -0.449988   29.64994  0.1398E-13  0.1322E-04  0.4476E-07  0.1169E-02  0.2832E-03  0.3461E+01
   -0.499988   29.65075  0.1398E-13  0.1349E-04  0.4343E-07  0.1255E-02  0.2642E-03  0.3371E+01
   -0.549989   29.65149  0.1398E-13  0.1373E-04  0.4232E-07  0.1333E-02  0.2471E-03  0.3333E+01
   -0.599990   29.65218  0.1398E-13  0.1394E-04  0.4139E-07  0.1405E-02  0.2317E-03  0.3339E+01
   -0.649991   29.65282  0.1398E-13  0.1412E-04  0.4061E-07  0.1469E-02  0.2177E-03  0.3388E+01
   -0.699992   29.65343  0.1398E-13  0.1427E-04  0.3995E-07  0.1526E-02  0.2048E-03  0.3470E+01
   -0.749993   29.65400  0.1398E-13  0.1440E-04  0.3940E-07  0.1576E-02  0.1929E-03  0.3592E+01
   -0.799995   29.65455  0.1398E-13  0.1451E-04  0.3896E-07  0.1619E-02  0.1818E-03  0.3746E+01
   -0.849996   29.65509  0.1398E-13  0.1460E-04  0.3860E-07  0.1654E-02  0.1715E-03  0.3947E+01
   -0.899998   29.65560  0.1398E-13  0.1467E-04  0.3834E-07  0.1682E-02  0.1618E-03  0.4189E+01
   -0.950000   29.65610  0.1398E-13  0.1472E-04  0.3816E-07  0.1702E-02  0.1527E-03  0.4491E+01
   -1.000002   29.65660  0.1398E-13  0.1475E-04  0.3806E-07  0.1714E-02  0.1441E-03  0.4851E+01
   -1.050003   29.65708  0.1398E-13  0.1476E-04  0.3806E-07  0.1717E-02  0.1360E-03  0.5510E+01
   -1.100005   29.65757  0.1398E-13  0.1475E-04  0.3815E-07  0.1791E-02  0.1282E-03  0.1852E+02
   -1.150007   29.65803  0.1398E-13  0.1472E-04  0.3835E-07  0.1654E-02  0.1213E-03  0.4030E+02
   -1.200008   29.65853  0.1398E-13  0.1468E-04  0.3866E-07  0.1669E-02  0.1142E-03  0.7897E+01
   -1.250010   29.65901  0.1398E-13  0.1460E-04  0.3912E-07  0.1641E-02  0.1073E-03  0.8435E+01
   -1.300011   29.65951  0.1398E-13  0.1451E-04  0.3974E-07  0.1597E-02  0.1008E-03  0.9832E+01
   -1.350012   29.66002  0.1398E-13  0.1438E-04  0.4058E-07  0.1542E-02  0.9441E-04  0.1171E+02
   -1.400013   29.66055  0.1398E-13  0.1423E-04  0.4170E-07  0.1472E-02  0.8823E-04  0.1433E+02
   -1.450014   29.66110  0.1398E-13  0.1404E-04  0.4320E-07  0.1397E-02  0.8219E-04  0.1805E+02
   -1.500015   29.66168  0.1398E-13  0.1380E-04  0.4524E-07  0.1294E-02  0.7627E-04  0.2398E+02
   -1.550015   29.66231  0.1398E-13  0.1351E-04  0.4807E-07  0.1208E-02  0.7037E-04  0.3324E+02
   -1.600015   29.66299  0.1398E-13  0.1315E-04  0.5225E-07  0.1070E-02  0.6457E-04  0.5378E+02
   -1.650015   29.66379  0.1398E-13  0.1269E-04  0.5858E-07  0.9887E-03  0.5852E-04  0.1230E+03
   -1.700015   29.66469  0.1398E-13  0.1207E-04  0.6991E-07  0.8140E-03  0.5263E-04 -0.1153E+04
   -1.750014   29.66617  0.1398E-13  0.1121E-04  0.8877E-07  0.7314E-03  0.4512E-04  0.2010E+05
   -1.800012   29.66760  0.1398E-13  0.1000E-04  0.1275E-06  0.5200E-03  0.3875E-04  0.6202E+04
   -1.850011   29.67231  0.1398E-13  0.8554E-05  0.2001E-06  0.4629E-03  0.2854E-04  0.3434E+07
   -1.900009   29.67238  0.1398E-13  0.6734E-05  0.4157E-06  0.2071E-03  0.2290E-04  0.1319E+07
   -1.950006   29.68910  0.1398E-13  0.4643E-05  0.1061E-05  0.1707E-03  0.1246E-04 -0.1653E+07
   -2.000003   29.69120  0.1398E-13  0.0000E+00  0.0000E+00  0.0000E+00  0.2161E-04  0.0000E+00
