 1 - depth, m
 2 - temperature, C
 3 - salinity, kg/kg
 4 - turbulent kinetic energy, m**2/s**2
 5 - dissipation rate, m**2/s**3
 6 - kinematic heat conductance, m**2/s
 7 - modulus of horizontal velocity, m/s
 8 - Richardson number, n/d
   -0.000000   30.47241  0.1860E-13  0.4761E-05  0.2986E-06  0.5057E-04  0.8366E-03  0.1333E+05
   -0.049997   30.50262  0.1860E-13  0.8308E-05  0.1324E-06  0.1775E-03  0.4785E-03  0.5042E+02
   -0.099994   30.51454  0.1860E-13  0.1010E-04  0.9104E-07  0.4120E-03  0.3469E-03  0.7423E+02
   -0.149992   30.51767  0.1860E-13  0.1121E-04  0.7675E-07  0.4864E-03  0.3072E-03  0.3634E+02
   -0.199991   30.52021  0.1860E-13  0.1207E-04  0.6833E-07  0.6517E-03  0.2745E-03  0.2358E+02
   -0.249989   30.52206  0.1860E-13  0.1276E-04  0.6281E-07  0.7775E-03  0.2501E-03  0.1754E+02
   -0.299988   30.52356  0.1860E-13  0.1333E-04  0.5888E-07  0.9033E-03  0.2297E-03  0.1403E+02
   -0.349988   30.52483  0.1860E-13  0.1379E-04  0.5593E-07  0.1017E-02  0.2123E-03  0.1205E+02
   -0.399988   30.52593  0.1860E-13  0.1419E-04  0.5364E-07  0.1121E-02  0.1968E-03  0.1077E+02
   -0.449988   30.52691  0.1860E-13  0.1453E-04  0.5179E-07  0.1217E-02  0.1832E-03  0.1014E+02
   -0.499988   30.52779  0.1860E-13  0.1482E-04  0.5026E-07  0.1306E-02  0.1712E-03  0.9868E+01
   -0.549989   30.52860  0.1860E-13  0.1508E-04  0.4899E-07  0.1386E-02  0.1604E-03  0.9764E+01
   -0.599989   30.52935  0.1860E-13  0.1530E-04  0.4792E-07  0.1459E-02  0.1507E-03  0.9780E+01
   -0.649990   30.53005  0.1860E-13  0.1549E-04  0.4702E-07  0.1525E-02  0.1418E-03  0.9935E+01
   -0.699992   30.53072  0.1860E-13  0.1566E-04  0.4628E-07  0.1582E-02  0.1336E-03  0.1018E+02
   -0.749993   30.53135  0.1860E-13  0.1579E-04  0.4566E-07  0.1632E-02  0.1260E-03  0.1055E+02
   -0.799994   30.53195  0.1860E-13  0.1590E-04  0.4516E-07  0.1674E-02  0.1190E-03  0.1102E+02
   -0.849996   30.53253  0.1860E-13  0.1599E-04  0.4477E-07  0.1708E-02  0.1124E-03  0.1164E+02
   -0.899998   30.53310  0.1860E-13  0.1606E-04  0.4448E-07  0.1734E-02  0.1062E-03  0.1238E+02
   -0.949999   30.53365  0.1860E-13  0.1610E-04  0.4429E-07  0.1751E-02  0.1004E-03  0.1333E+02
   -1.000001   30.53419  0.1860E-13  0.1613E-04  0.4421E-07  0.1761E-02  0.9486E-04  0.1443E+02
   -1.050003   30.53473  0.1860E-13  0.1613E-04  0.4424E-07  0.1760E-02  0.8961E-04  0.1646E+02
   -1.100004   30.53527  0.1860E-13  0.1610E-04  0.4438E-07  0.1854E-02  0.8462E-04  0.5413E+02
   -1.150006   30.53577  0.1860E-13  0.1606E-04  0.4467E-07  0.1663E-02  0.8018E-04  0.1270E+03
   -1.200008   30.53633  0.1860E-13  0.1599E-04  0.4510E-07  0.1694E-02  0.7551E-04  0.2426E+02
   -1.250009   30.53688  0.1860E-13  0.1589E-04  0.4571E-07  0.1662E-02  0.7108E-04  0.2601E+02
   -1.300010   30.53744  0.1860E-13  0.1576E-04  0.4654E-07  0.1610E-02  0.6680E-04  0.3076E+02
   -1.350012   30.53801  0.1860E-13  0.1560E-04  0.4767E-07  0.1548E-02  0.6265E-04  0.3715E+02
   -1.400013   30.53861  0.1860E-13  0.1540E-04  0.4917E-07  0.1467E-02  0.5859E-04  0.4658E+02
   -1.450013   30.53924  0.1860E-13  0.1516E-04  0.5122E-07  0.1389E-02  0.5461E-04  0.6019E+02
   -1.500014   30.53991  0.1860E-13  0.1486E-04  0.5405E-07  0.1272E-02  0.5070E-04  0.8365E+02
   -1.550014   30.54065  0.1860E-13  0.1449E-04  0.5806E-07  0.1190E-02  0.4675E-04  0.1222E+03
   -1.600014   30.54145  0.1860E-13  0.1402E-04  0.6432E-07  0.1042E-02  0.4289E-04  0.2706E+03
   -1.650014   30.54248  0.1860E-13  0.1341E-04  0.7403E-07  0.9653E-03  0.3864E-04  0.6850E+02
   -1.700014   30.54361  0.1860E-13  0.1257E-04  0.9147E-07  0.7826E-03  0.3456E-04  0.1613E+06
   -1.750013   30.54573  0.1860E-13  0.1146E-04  0.1202E-06  0.7051E-03  0.2895E-04  0.6845E+06
   -1.800011   30.54744  0.1860E-13  0.1001E-04  0.1814E-06  0.4862E-03  0.2474E-04  0.2105E+07
   -1.850010   30.55488  0.1860E-13  0.8431E-05  0.2955E-06  0.4505E-03  0.1733E-04  0.8246E+08
   -1.900008   30.55287  0.1860E-13  0.6652E-05  0.6309E-06  0.2030E-03  0.1409E-04  0.2826E+06
   -1.950005   30.57502  0.1860E-13  0.4727E-05  0.1536E-05  0.2005E-03  0.7386E-05 -0.8775E+06
   -2.000002   30.57591  0.1860E-13  0.0000E+00  0.0000E+00  0.0000E+00  0.1441E-04  0.0000E+00
