 1 - depth, m
 2 - temperature, C
 3 - salinity, kg/kg
 4 - turbulent kinetic energy, m**2/s**2
 5 - dissipation rate, m**2/s**3
 6 - kinematic heat conductance, m**2/s
 7 - modulus of horizontal velocity, m/s
 8 - Richardson number, n/d
   -0.000000   30.48373  0.1064E-13  0.4471E-05  0.2657E-06  0.4716E-04  0.4684E-03  0.9891E+05
   -0.049997   30.51278  0.1064E-13  0.7964E-05  0.1176E-06  0.1830E-03  0.2601E-03  0.1170E+03
   -0.099994   30.52278  0.1064E-13  0.9627E-05  0.8198E-07  0.4118E-03  0.1903E-03  0.1972E+03
   -0.149992   30.52560  0.1064E-13  0.1067E-04  0.6948E-07  0.4892E-03  0.1686E-03  0.9736E+02
   -0.199991   30.52788  0.1064E-13  0.1149E-04  0.6209E-07  0.6506E-03  0.1508E-03  0.6410E+02
   -0.249989   30.52954  0.1064E-13  0.1215E-04  0.5722E-07  0.7757E-03  0.1374E-03  0.4795E+02
   -0.299988   30.53091  0.1064E-13  0.1269E-04  0.5375E-07  0.8993E-03  0.1262E-03  0.3856E+02
   -0.349988   30.53206  0.1064E-13  0.1314E-04  0.5116E-07  0.1012E-02  0.1166E-03  0.3322E+02
   -0.399988   30.53307  0.1064E-13  0.1352E-04  0.4914E-07  0.1114E-02  0.1081E-03  0.2976E+02
   -0.449988   30.53397  0.1064E-13  0.1386E-04  0.4752E-07  0.1210E-02  0.1006E-03  0.2803E+02
   -0.499988   30.53478  0.1064E-13  0.1415E-04  0.4619E-07  0.1297E-02  0.9400E-04  0.2734E+02
   -0.549989   30.53552  0.1064E-13  0.1441E-04  0.4508E-07  0.1378E-02  0.8805E-04  0.2706E+02
   -0.599989   30.53622  0.1064E-13  0.1463E-04  0.4417E-07  0.1450E-02  0.8268E-04  0.2716E+02
   -0.649991   30.53686  0.1064E-13  0.1483E-04  0.4341E-07  0.1516E-02  0.7777E-04  0.2759E+02
   -0.699992   30.53747  0.1064E-13  0.1500E-04  0.4279E-07  0.1574E-02  0.7325E-04  0.2832E+02
   -0.749993   30.53806  0.1064E-13  0.1515E-04  0.4228E-07  0.1624E-02  0.6908E-04  0.2936E+02
   -0.799995   30.53862  0.1064E-13  0.1527E-04  0.4188E-07  0.1667E-02  0.6520E-04  0.3073E+02
   -0.849996   30.53916  0.1064E-13  0.1538E-04  0.4158E-07  0.1702E-02  0.6157E-04  0.3244E+02
   -0.899998   30.53969  0.1064E-13  0.1546E-04  0.4137E-07  0.1729E-02  0.5817E-04  0.3456E+02
   -0.949999   30.54021  0.1064E-13  0.1552E-04  0.4126E-07  0.1748E-02  0.5496E-04  0.3715E+02
   -1.000001   30.54071  0.1064E-13  0.1556E-04  0.4125E-07  0.1760E-02  0.5193E-04  0.4029E+02
   -1.050003   30.54122  0.1064E-13  0.1559E-04  0.4133E-07  0.1761E-02  0.4904E-04  0.4594E+02
   -1.100005   30.54172  0.1064E-13  0.1559E-04  0.4152E-07  0.1842E-02  0.4630E-04  0.1542E+03
   -1.150006   30.54220  0.1064E-13  0.1557E-04  0.4184E-07  0.1687E-02  0.4384E-04  0.3403E+03
   -1.200008   30.54272  0.1064E-13  0.1553E-04  0.4228E-07  0.1706E-02  0.4130E-04  0.6669E+02
   -1.250009   30.54324  0.1064E-13  0.1546E-04  0.4289E-07  0.1676E-02  0.3887E-04  0.7168E+02
   -1.300011   30.54377  0.1064E-13  0.1537E-04  0.4370E-07  0.1629E-02  0.3653E-04  0.8411E+02
   -1.350012   30.54431  0.1064E-13  0.1525E-04  0.4475E-07  0.1571E-02  0.3426E-04  0.1008E+03
   -1.400013   30.54487  0.1064E-13  0.1509E-04  0.4614E-07  0.1496E-02  0.3205E-04  0.1245E+03
   -1.450014   30.54547  0.1064E-13  0.1489E-04  0.4797E-07  0.1421E-02  0.2988E-04  0.1583E+03
   -1.500014   30.54610  0.1064E-13  0.1464E-04  0.5046E-07  0.1310E-02  0.2775E-04  0.2139E+03
   -1.550015   30.54679  0.1064E-13  0.1434E-04  0.5391E-07  0.1228E-02  0.2561E-04  0.3011E+03
   -1.600015   30.54754  0.1064E-13  0.1395E-04  0.5911E-07  0.1082E-02  0.2353E-04  0.5477E+03
   -1.650014   30.54846  0.1064E-13  0.1345E-04  0.6694E-07  0.1005E-02  0.2128E-04  0.5595E+04
   -1.700014   30.54946  0.1064E-13  0.1275E-04  0.8089E-07  0.8173E-03  0.1914E-04 -0.7823E+05
   -1.750013   30.55127  0.1064E-13  0.1181E-04  0.1039E-06  0.7430E-03  0.1625E-04  0.2319E+06
   -1.800012   30.55281  0.1064E-13  0.1054E-04  0.1511E-06  0.5225E-03  0.1400E-04  0.2962E+07
   -1.850010   30.55858  0.1064E-13  0.9063E-05  0.2408E-06  0.4774E-03  0.1020E-04  0.2976E+08
   -1.900008   30.55800  0.1064E-13  0.7238E-05  0.5045E-06  0.2162E-03  0.8284E-05  0.8011E+07
   -1.950005   30.57698  0.1064E-13  0.5039E-05  0.1270E-05  0.1799E-03  0.4558E-05 -0.5459E+07
   -2.000002   30.58069  0.1064E-13  0.0000E+00  0.0000E+00  0.0000E+00  0.7946E-05  0.0000E+00
