 1 - depth, m
 2 - temperature, C
 3 - salinity, kg/kg
 4 - turbulent kinetic energy, m**2/s**2
 5 - dissipation rate, m**2/s**3
 6 - kinematic heat conductance, m**2/s
 7 - modulus of horizontal velocity, m/s
 8 - Richardson number, n/d
   -0.000000   30.22767  0.2741E-13  0.4575E-05  0.2777E-06  0.4902E-04  0.1124E-02  0.5629E+04
   -0.049997   30.25666  0.2742E-13  0.7939E-05  0.1235E-06  0.1757E-03  0.6360E-03  0.9620E+02
   -0.099994   30.26780  0.2742E-13  0.9639E-05  0.8529E-07  0.3980E-03  0.4648E-03  0.3653E+02
   -0.149992   30.27083  0.2742E-13  0.1070E-04  0.7180E-07  0.4776E-03  0.4105E-03  0.1784E+02
   -0.199991   30.27326  0.2742E-13  0.1153E-04  0.6388E-07  0.6372E-03  0.3666E-03  0.1151E+02
   -0.249989   30.27502  0.2742E-13  0.1219E-04  0.5870E-07  0.7612E-03  0.3336E-03  0.8528E+01
   -0.299988   30.27646  0.2742E-13  0.1273E-04  0.5500E-07  0.8846E-03  0.3062E-03  0.6802E+01
   -0.349988   30.27768  0.2742E-13  0.1318E-04  0.5223E-07  0.9963E-03  0.2827E-03  0.5837E+01
   -0.399988   30.27873  0.2742E-13  0.1356E-04  0.5009E-07  0.1099E-02  0.2619E-03  0.5206E+01
   -0.449988   30.27966  0.2742E-13  0.1389E-04  0.4834E-07  0.1194E-02  0.2436E-03  0.4901E+01
   -0.499988   30.28051  0.2742E-13  0.1417E-04  0.4691E-07  0.1281E-02  0.2274E-03  0.4768E+01
   -0.549989   30.28128  0.2742E-13  0.1442E-04  0.4571E-07  0.1361E-02  0.2129E-03  0.4718E+01
   -0.599990   30.28200  0.2742E-13  0.1464E-04  0.4471E-07  0.1433E-02  0.1998E-03  0.4721E+01
   -0.649991   30.28267  0.2742E-13  0.1482E-04  0.4387E-07  0.1498E-02  0.1878E-03  0.4796E+01
   -0.699992   30.28330  0.2742E-13  0.1498E-04  0.4317E-07  0.1556E-02  0.1769E-03  0.4905E+01
   -0.749993   30.28390  0.2742E-13  0.1512E-04  0.4258E-07  0.1606E-02  0.1667E-03  0.5085E+01
   -0.799995   30.28447  0.2742E-13  0.1523E-04  0.4211E-07  0.1648E-02  0.1573E-03  0.5299E+01
   -0.849996   30.28503  0.2742E-13  0.1532E-04  0.4174E-07  0.1683E-02  0.1485E-03  0.5595E+01
   -0.899998   30.28557  0.2742E-13  0.1539E-04  0.4146E-07  0.1710E-02  0.1402E-03  0.5933E+01
   -0.950000   30.28610  0.2742E-13  0.1544E-04  0.4128E-07  0.1729E-02  0.1324E-03  0.6378E+01
   -1.000001   30.28661  0.2742E-13  0.1546E-04  0.4119E-07  0.1740E-02  0.1251E-03  0.6887E+01
   -1.050003   30.28712  0.2742E-13  0.1547E-04  0.4120E-07  0.1741E-02  0.1181E-03  0.7842E+01
   -1.100005   30.28763  0.2742E-13  0.1546E-04  0.4131E-07  0.1824E-02  0.1114E-03  0.2606E+02
   -1.150006   30.28811  0.2742E-13  0.1542E-04  0.4156E-07  0.1662E-02  0.1055E-03  0.5865E+02
   -1.200008   30.28864  0.2742E-13  0.1536E-04  0.4193E-07  0.1685E-02  0.9932E-04  0.1137E+02
   -1.250009   30.28915  0.2742E-13  0.1528E-04  0.4246E-07  0.1655E-02  0.9344E-04  0.1214E+02
   -1.300011   30.28968  0.2742E-13  0.1517E-04  0.4319E-07  0.1607E-02  0.8777E-04  0.1426E+02
   -1.350012   30.29022  0.2742E-13  0.1503E-04  0.4416E-07  0.1549E-02  0.8229E-04  0.1705E+02
   -1.400013   30.29077  0.2742E-13  0.1486E-04  0.4546E-07  0.1473E-02  0.7694E-04  0.2113E+02
   -1.450014   30.29136  0.2742E-13  0.1464E-04  0.4721E-07  0.1397E-02  0.7170E-04  0.2683E+02
   -1.500014   30.29199  0.2742E-13  0.1437E-04  0.4962E-07  0.1286E-02  0.6655E-04  0.3642E+02
   -1.550015   30.29267  0.2742E-13  0.1405E-04  0.5299E-07  0.1203E-02  0.6139E-04  0.5142E+02
   -1.600015   30.29341  0.2742E-13  0.1364E-04  0.5809E-07  0.1058E-02  0.5634E-04  0.9482E+02
   -1.650015   30.29430  0.2742E-13  0.1311E-04  0.6589E-07  0.9803E-03  0.5094E-04  0.1272E+03
   -1.700014   30.29529  0.2742E-13  0.1239E-04  0.7992E-07  0.7997E-03  0.4573E-04  0.7350E+04
   -1.750013   30.29705  0.2742E-13  0.1142E-04  0.1031E-06  0.7210E-03  0.3881E-04 -0.2391E+05
   -1.800012   30.29861  0.2742E-13  0.1008E-04  0.1517E-06  0.5019E-03  0.3327E-04  0.2894E+05
   -1.850010   30.30448  0.2742E-13  0.8548E-05  0.2424E-06  0.4587E-03  0.2389E-04  0.7427E+08
   -1.900008   30.30369  0.2742E-13  0.6753E-05  0.5040E-06  0.2052E-03  0.1931E-04  0.2963E+06
   -1.950006   30.32282  0.2742E-13  0.4718E-05  0.1273E-05  0.1831E-03  0.1036E-04 -0.7581E+06
   -2.000003   30.32495  0.2742E-13  0.0000E+00  0.0000E+00  0.0000E+00  0.1883E-04  0.0000E+00
