 1 - depth, m
 2 - temperature, C
 3 - salinity, kg/kg
 4 - turbulent kinetic energy, m**2/s**2
 5 - dissipation rate, m**2/s**3
 6 - kinematic heat conductance, m**2/s
 7 - modulus of horizontal velocity, m/s
 8 - Richardson number, n/d
   -0.000000   29.63681  0.1054E-12  0.4431E-05  0.2542E-06  0.4788E-04  0.2075E-02  0.3037E+04
   -0.049997   29.66411  0.1054E-12  0.7488E-05  0.1129E-06  0.1717E-03  0.1164E-02  0.4486E+03
   -0.099994   29.67404  0.1054E-12  0.9024E-05  0.7793E-07  0.3778E-03  0.8582E-03  0.1090E+02
   -0.149992   29.67696  0.1054E-12  0.9994E-05  0.6540E-07  0.4606E-03  0.7558E-03  0.5288E+01
   -0.199991   29.67926  0.1054E-12  0.1075E-04  0.5805E-07  0.6102E-03  0.6740E-03  0.3408E+01
   -0.249989   29.68095  0.1054E-12  0.1135E-04  0.5322E-07  0.7304E-03  0.6123E-03  0.2507E+01
   -0.299989   29.68231  0.1054E-12  0.1185E-04  0.4978E-07  0.8482E-03  0.5611E-03  0.1995E+01
   -0.349988   29.68346  0.1054E-12  0.1226E-04  0.4719E-07  0.9557E-03  0.5171E-03  0.1703E+01
   -0.399988   29.68446  0.1054E-12  0.1261E-04  0.4518E-07  0.1054E-02  0.4782E-03  0.1521E+01
   -0.449988   29.68535  0.1054E-12  0.1291E-04  0.4354E-07  0.1145E-02  0.4440E-03  0.1432E+01
   -0.499988   29.68614  0.1054E-12  0.1317E-04  0.4219E-07  0.1231E-02  0.4137E-03  0.1403E+01
   -0.549989   29.68687  0.1054E-12  0.1340E-04  0.4106E-07  0.1309E-02  0.3866E-03  0.1386E+01
   -0.599990   29.68754  0.1054E-12  0.1360E-04  0.4010E-07  0.1381E-02  0.3620E-03  0.1389E+01
   -0.649991   29.68817  0.1054E-12  0.1377E-04  0.3930E-07  0.1446E-02  0.3396E-03  0.1399E+01
   -0.699992   29.68876  0.1054E-12  0.1392E-04  0.3863E-07  0.1503E-02  0.3192E-03  0.1428E+01
   -0.749993   29.68932  0.1054E-12  0.1404E-04  0.3807E-07  0.1552E-02  0.3004E-03  0.1469E+01
   -0.799995   29.68985  0.1054E-12  0.1415E-04  0.3761E-07  0.1595E-02  0.2830E-03  0.1533E+01
   -0.849996   29.69037  0.1054E-12  0.1423E-04  0.3724E-07  0.1630E-02  0.2668E-03  0.1608E+01
   -0.899998   29.69087  0.1054E-12  0.1429E-04  0.3696E-07  0.1658E-02  0.2516E-03  0.1710E+01
   -0.950000   29.69136  0.1054E-12  0.1434E-04  0.3677E-07  0.1678E-02  0.2373E-03  0.1827E+01
   -1.000002   29.69184  0.1054E-12  0.1437E-04  0.3666E-07  0.1690E-02  0.2238E-03  0.1978E+01
   -1.050003   29.69231  0.1054E-12  0.1438E-04  0.3663E-07  0.1694E-02  0.2111E-03  0.2241E+01
   -1.100005   29.69277  0.1054E-12  0.1437E-04  0.3670E-07  0.1764E-02  0.1989E-03  0.7579E+01
   -1.150007   29.69322  0.1054E-12  0.1435E-04  0.3688E-07  0.1639E-02  0.1880E-03  0.1634E+02
   -1.200008   29.69370  0.1054E-12  0.1430E-04  0.3716E-07  0.1651E-02  0.1769E-03  0.3204E+01
   -1.250010   29.69417  0.1054E-12  0.1423E-04  0.3758E-07  0.1623E-02  0.1662E-03  0.3427E+01
   -1.300011   29.69465  0.1054E-12  0.1414E-04  0.3816E-07  0.1580E-02  0.1560E-03  0.3980E+01
   -1.350012   29.69514  0.1054E-12  0.1402E-04  0.3894E-07  0.1527E-02  0.1461E-03  0.4744E+01
   -1.400013   29.69565  0.1054E-12  0.1388E-04  0.3999E-07  0.1460E-02  0.1364E-03  0.5778E+01
   -1.450014   29.69618  0.1054E-12  0.1370E-04  0.4139E-07  0.1387E-02  0.1270E-03  0.7280E+01
   -1.500015   29.69674  0.1054E-12  0.1347E-04  0.4329E-07  0.1287E-02  0.1178E-03  0.9602E+01
   -1.550015   29.69735  0.1054E-12  0.1320E-04  0.4592E-07  0.1202E-02  0.1086E-03  0.1327E+02
   -1.600015   29.69800  0.1054E-12  0.1286E-04  0.4980E-07  0.1067E-02  0.9967E-04  0.2130E+02
   -1.650015   29.69877  0.1054E-12  0.1243E-04  0.5563E-07  0.9842E-03  0.9030E-04  0.3744E+02
   -1.700015   29.69961  0.1054E-12  0.1185E-04  0.6598E-07  0.8156E-03  0.8125E-04 -0.7018E+04
   -1.750014   29.70099  0.1054E-12  0.1104E-04  0.8334E-07  0.7291E-03  0.6988E-04  0.8592E+05
   -1.800012   29.70237  0.1054E-12  0.9892E-05  0.1178E-06  0.5230E-03  0.6001E-04  0.3056E+05
   -1.850011   29.70661  0.1054E-12  0.8482E-05  0.1838E-06  0.4605E-03  0.4451E-04  0.1496E+07
   -1.900009   29.70697  0.1054E-12  0.6714E-05  0.3778E-06  0.2094E-03  0.3558E-04 -0.1796E+08
   -1.950006   29.72258  0.1054E-12  0.4604E-05  0.9845E-06  0.1622E-03  0.1960E-04 -0.4410E+06
   -2.000003   29.72620  0.1054E-12  0.0000E+00  0.0000E+00  0.0000E+00  0.3316E-04  0.0000E+00
