 1 - depth, m
 2 - temperature, C
 3 - salinity, kg/kg
 4 - turbulent kinetic energy, m**2/s**2
 5 - dissipation rate, m**2/s**3
 6 - kinematic heat conductance, m**2/s
 7 - modulus of horizontal velocity, m/s
 8 - Richardson number, n/d
   -0.000000   29.55640  0.1075E-12  0.4216E-05  0.2409E-06  0.4716E-04  0.1565E-02  0.7686E+04
   -0.049997   29.58295  0.1075E-12  0.7231E-05  0.1073E-06  0.1654E-03  0.8897E-03  0.1014E+05
   -0.099994   29.59321  0.1075E-12  0.8758E-05  0.7377E-07  0.3791E-03  0.6452E-03  0.1909E+02
   -0.149992   29.59602  0.1075E-12  0.9704E-05  0.6209E-07  0.4559E-03  0.5688E-03  0.9142E+01
   -0.199991   29.59827  0.1075E-12  0.1044E-04  0.5519E-07  0.6052E-03  0.5069E-03  0.5909E+01
   -0.249990   29.59992  0.1075E-12  0.1102E-04  0.5064E-07  0.7236E-03  0.4602E-03  0.4358E+01
   -0.299989   29.60125  0.1075E-12  0.1150E-04  0.4738E-07  0.8398E-03  0.4215E-03  0.3469E+01
   -0.349988   29.60237  0.1075E-12  0.1190E-04  0.4493E-07  0.9458E-03  0.3882E-03  0.2968E+01
   -0.399988   29.60334  0.1075E-12  0.1223E-04  0.4302E-07  0.1043E-02  0.3588E-03  0.2645E+01
   -0.449988   29.60420  0.1075E-12  0.1252E-04  0.4146E-07  0.1133E-02  0.3329E-03  0.2486E+01
   -0.499988   29.60498  0.1075E-12  0.1277E-04  0.4016E-07  0.1216E-02  0.3101E-03  0.2419E+01
   -0.549989   29.60568  0.1075E-12  0.1298E-04  0.3908E-07  0.1293E-02  0.2897E-03  0.2391E+01
   -0.599990   29.60634  0.1075E-12  0.1317E-04  0.3816E-07  0.1362E-02  0.2713E-03  0.2393E+01
   -0.649991   29.60695  0.1075E-12  0.1333E-04  0.3739E-07  0.1425E-02  0.2545E-03  0.2426E+01
   -0.699992   29.60752  0.1075E-12  0.1347E-04  0.3673E-07  0.1481E-02  0.2391E-03  0.2481E+01
   -0.749994   29.60806  0.1075E-12  0.1358E-04  0.3617E-07  0.1530E-02  0.2249E-03  0.2567E+01
   -0.799995   29.60858  0.1075E-12  0.1368E-04  0.3571E-07  0.1572E-02  0.2118E-03  0.2673E+01
   -0.849997   29.60908  0.1075E-12  0.1376E-04  0.3534E-07  0.1607E-02  0.1995E-03  0.2814E+01
   -0.899998   29.60957  0.1075E-12  0.1382E-04  0.3504E-07  0.1635E-02  0.1880E-03  0.2981E+01
   -0.950000   29.61004  0.1075E-12  0.1386E-04  0.3482E-07  0.1655E-02  0.1772E-03  0.3192E+01
   -1.000002   29.61050  0.1075E-12  0.1388E-04  0.3468E-07  0.1668E-02  0.1671E-03  0.3441E+01
   -1.050004   29.61095  0.1075E-12  0.1388E-04  0.3463E-07  0.1672E-02  0.1574E-03  0.3906E+01
   -1.100005   29.61140  0.1075E-12  0.1387E-04  0.3465E-07  0.1738E-02  0.1483E-03  0.1320E+02
   -1.150007   29.61182  0.1075E-12  0.1384E-04  0.3478E-07  0.1623E-02  0.1400E-03  0.2820E+02
   -1.200009   29.61228  0.1075E-12  0.1379E-04  0.3500E-07  0.1632E-02  0.1317E-03  0.5554E+01
   -1.250010   29.61273  0.1075E-12  0.1372E-04  0.3535E-07  0.1606E-02  0.1237E-03  0.5908E+01
   -1.300011   29.61318  0.1075E-12  0.1363E-04  0.3585E-07  0.1565E-02  0.1160E-03  0.6865E+01
   -1.350013   29.61365  0.1075E-12  0.1352E-04  0.3653E-07  0.1514E-02  0.1085E-03  0.8129E+01
   -1.400014   29.61413  0.1075E-12  0.1337E-04  0.3745E-07  0.1449E-02  0.1013E-03  0.9891E+01
   -1.450015   29.61463  0.1075E-12  0.1320E-04  0.3869E-07  0.1378E-02  0.9426E-04  0.1237E+02
   -1.500015   29.61515  0.1075E-12  0.1298E-04  0.4037E-07  0.1282E-02  0.8737E-04  0.1623E+02
   -1.550016   29.61571  0.1075E-12  0.1272E-04  0.4272E-07  0.1197E-02  0.8054E-04  0.2224E+02
   -1.600016   29.61632  0.1075E-12  0.1240E-04  0.4615E-07  0.1067E-02  0.7384E-04  0.3482E+02
   -1.650015   29.61702  0.1075E-12  0.1199E-04  0.5135E-07  0.9828E-03  0.6693E-04  0.7505E+02
   -1.700015   29.61780  0.1075E-12  0.1145E-04  0.6049E-07  0.8176E-03  0.6016E-04  0.4649E+04
   -1.750014   29.61901  0.1075E-12  0.1070E-04  0.7581E-07  0.7305E-03  0.5192E-04  0.2783E+05
   -1.800013   29.62028  0.1075E-12  0.9626E-05  0.1066E-06  0.5321E-03  0.4456E-04  0.1141E+05
   -1.850011   29.62381  0.1075E-12  0.8299E-05  0.1646E-06  0.4673E-03  0.3341E-04  0.1163E+08
   -1.900009   29.62439  0.1075E-12  0.6559E-05  0.3378E-06  0.2089E-03  0.2668E-04  0.9124E+06
   -1.950007   29.63803  0.1075E-12  0.4465E-05  0.8820E-06  0.1559E-03  0.1472E-04 -0.1593E+07
   -2.000004   29.64206  0.1075E-12  0.0000E+00  0.0000E+00  0.0000E+00  0.2452E-04  0.0000E+00
