 1 - depth, m
 2 - temperature, C
 3 - salinity, kg/kg
 4 - turbulent kinetic energy, m**2/s**2
 5 - dissipation rate, m**2/s**3
 6 - kinematic heat conductance, m**2/s
 7 - modulus of horizontal velocity, m/s
 8 - Richardson number, n/d
   -0.000000   31.15091  0.2441E-13  0.5315E-05  0.3495E-06  0.5183E-04  0.9782E-03  0.1635E+05
   -0.049997   31.18584  0.2441E-13  0.9202E-05  0.1552E-06  0.1917E-03  0.5546E-03  0.9468E+03
   -0.099994   31.19837  0.2441E-13  0.1114E-04  0.1072E-06  0.4212E-03  0.4098E-03  0.7548E+02
   -0.149992   31.20192  0.2441E-13  0.1236E-04  0.9009E-07  0.5038E-03  0.3631E-03  0.3731E+02
   -0.199990   31.20476  0.2441E-13  0.1331E-04  0.8001E-07  0.6749E-03  0.3250E-03  0.2422E+02
   -0.249989   31.20682  0.2441E-13  0.1406E-04  0.7342E-07  0.8047E-03  0.2966E-03  0.1785E+02
   -0.299988   31.20849  0.2441E-13  0.1468E-04  0.6873E-07  0.9360E-03  0.2729E-03  0.1430E+02
   -0.349988   31.20990  0.2441E-13  0.1519E-04  0.6520E-07  0.1054E-02  0.2526E-03  0.1210E+02
   -0.399987   31.21111  0.2441E-13  0.1561E-04  0.6246E-07  0.1162E-02  0.2347E-03  0.1086E+02
   -0.449987   31.21219  0.2441E-13  0.1598E-04  0.6024E-07  0.1262E-02  0.2189E-03  0.1006E+02
   -0.499988   31.21317  0.2441E-13  0.1629E-04  0.5839E-07  0.1354E-02  0.2048E-03  0.9863E+01
   -0.549988   31.21405  0.2441E-13  0.1656E-04  0.5685E-07  0.1437E-02  0.1923E-03  0.9581E+01
   -0.599989   31.21488  0.2441E-13  0.1680E-04  0.5556E-07  0.1513E-02  0.1809E-03  0.9678E+01
   -0.649990   31.21565  0.2441E-13  0.1699E-04  0.5447E-07  0.1580E-02  0.1705E-03  0.9637E+01
   -0.699991   31.21637  0.2441E-13  0.1716E-04  0.5354E-07  0.1640E-02  0.1609E-03  0.9963E+01
   -0.749992   31.21706  0.2441E-13  0.1730E-04  0.5278E-07  0.1691E-02  0.1520E-03  0.1012E+02
   -0.799994   31.21772  0.2441E-13  0.1741E-04  0.5214E-07  0.1734E-02  0.1438E-03  0.1067E+02
   -0.849995   31.21836  0.2441E-13  0.1749E-04  0.5164E-07  0.1768E-02  0.1360E-03  0.1103E+02
   -0.899997   31.21897  0.2441E-13  0.1755E-04  0.5126E-07  0.1794E-02  0.1288E-03  0.1184E+02
   -0.949998   31.21957  0.2441E-13  0.1758E-04  0.5100E-07  0.1811E-02  0.1219E-03  0.1247E+02
   -1.000000   31.22016  0.2441E-13  0.1759E-04  0.5086E-07  0.1820E-02  0.1154E-03  0.1365E+02
   -1.050002   31.22074  0.2441E-13  0.1758E-04  0.5085E-07  0.1817E-02  0.1092E-03  0.1521E+02
   -1.100003   31.22132  0.2441E-13  0.1754E-04  0.5097E-07  0.1925E-02  0.1033E-03  0.4991E+02
   -1.150005   31.22186  0.2441E-13  0.1747E-04  0.5128E-07  0.1700E-02  0.9803E-04  0.1217E+03
   -1.200006   31.22248  0.2441E-13  0.1738E-04  0.5173E-07  0.1742E-02  0.9245E-04  0.2231E+02
   -1.250008   31.22307  0.2441E-13  0.1726E-04  0.5242E-07  0.1709E-02  0.8714E-04  0.2405E+02
   -1.300009   31.22367  0.2441E-13  0.1710E-04  0.5337E-07  0.1652E-02  0.8205E-04  0.2796E+02
   -1.350010   31.22429  0.2441E-13  0.1690E-04  0.5468E-07  0.1587E-02  0.7707E-04  0.3424E+02
   -1.400011   31.22493  0.2441E-13  0.1666E-04  0.5645E-07  0.1500E-02  0.7222E-04  0.4246E+02
   -1.450012   31.22561  0.2441E-13  0.1637E-04  0.5890E-07  0.1417E-02  0.6741E-04  0.5590E+02
   -1.500013   31.22634  0.2441E-13  0.1601E-04  0.6234E-07  0.1297E-02  0.6269E-04  0.7758E+02
   -1.550013   31.22714  0.2441E-13  0.1558E-04  0.6730E-07  0.1213E-02  0.5787E-04  0.1190E+03
   -1.600013   31.22802  0.2441E-13  0.1502E-04  0.7520E-07  0.1062E-02  0.5318E-04  0.6054E+03
   -1.650013   31.22917  0.2441E-13  0.1430E-04  0.8762E-07  0.9776E-03  0.4786E-04  0.4118E+03
   -1.700012   31.23049  0.2441E-13  0.1331E-04  0.1095E-06  0.7947E-03  0.4269E-04  0.2824E+05
   -1.750011   31.23286  0.2441E-13  0.1209E-04  0.1447E-06  0.7152E-03  0.3567E-04  0.4452E+06
   -1.800010   31.23449  0.2441E-13  0.1050E-04  0.2246E-06  0.4910E-03  0.3073E-04  0.1776E+06
   -1.850008   31.24342  0.2441E-13  0.8866E-05  0.3712E-06  0.4607E-03  0.2129E-04  0.7419E+08
   -1.900006   31.24034  0.2441E-13  0.7011E-05  0.7818E-06  0.2109E-03  0.1747E-04 -0.8380E+06
   -1.950003   31.26473  0.2441E-13  0.5027E-05  0.1862E-05  0.2181E-03  0.9189E-05 -0.2042E+07
   -2.000000   31.26504  0.2441E-13  0.0000E+00  0.0000E+00  0.0000E+00  0.1820E-04  0.0000E+00
