 1 - depth, m
 2 - temperature, C
 3 - salinity, kg/kg
 4 - turbulent kinetic energy, m**2/s**2
 5 - dissipation rate, m**2/s**3
 6 - kinematic heat conductance, m**2/s
 7 - modulus of horizontal velocity, m/s
 8 - Richardson number, n/d
   -0.000000   29.68208  0.2123E-14  0.4361E-05  0.2521E-06  0.4595E-04  0.9800E-03  0.1117E+05
   -0.049997   29.71129  0.2123E-14  0.7626E-05  0.1124E-06  0.1791E-03  0.5414E-03  0.6545E+02
   -0.099994   29.72129  0.2123E-14  0.9205E-05  0.7863E-07  0.3873E-03  0.4019E-03  0.5301E+02
   -0.149992   29.72426  0.2123E-14  0.1020E-04  0.6634E-07  0.4724E-03  0.3545E-03  0.2593E+02
   -0.199991   29.72658  0.2123E-14  0.1098E-04  0.5908E-07  0.6247E-03  0.3167E-03  0.1687E+02
   -0.249989   29.72829  0.2123E-14  0.1160E-04  0.5430E-07  0.7459E-03  0.2881E-03  0.1247E+02
   -0.299989   29.72969  0.2123E-14  0.1210E-04  0.5087E-07  0.8653E-03  0.2643E-03  0.9969E+01
   -0.349988   29.73086  0.2123E-14  0.1252E-04  0.4829E-07  0.9737E-03  0.2438E-03  0.8510E+01
   -0.399988   29.73187  0.2123E-14  0.1288E-04  0.4628E-07  0.1073E-02  0.2257E-03  0.7620E+01
   -0.449988   29.73278  0.2123E-14  0.1318E-04  0.4464E-07  0.1165E-02  0.2098E-03  0.7134E+01
   -0.499988   29.73359  0.2123E-14  0.1344E-04  0.4328E-07  0.1250E-02  0.1957E-03  0.6982E+01
   -0.549989   29.73434  0.2123E-14  0.1367E-04  0.4213E-07  0.1327E-02  0.1831E-03  0.6861E+01
   -0.599990   29.73503  0.2123E-14  0.1387E-04  0.4117E-07  0.1398E-02  0.1717E-03  0.6907E+01
   -0.649991   29.73567  0.2123E-14  0.1403E-04  0.4035E-07  0.1461E-02  0.1613E-03  0.6955E+01
   -0.699992   29.73628  0.2123E-14  0.1417E-04  0.3965E-07  0.1517E-02  0.1517E-03  0.7159E+01
   -0.749993   29.73686  0.2123E-14  0.1429E-04  0.3906E-07  0.1566E-02  0.1429E-03  0.7345E+01
   -0.799995   29.73741  0.2123E-14  0.1439E-04  0.3857E-07  0.1608E-02  0.1347E-03  0.7704E+01
   -0.849997   29.73794  0.2123E-14  0.1446E-04  0.3817E-07  0.1642E-02  0.1271E-03  0.8039E+01
   -0.899998   29.73845  0.2123E-14  0.1452E-04  0.3785E-07  0.1669E-02  0.1199E-03  0.8580E+01
   -0.950000   29.73895  0.2123E-14  0.1455E-04  0.3762E-07  0.1688E-02  0.1132E-03  0.9109E+01
   -1.000002   29.73944  0.2123E-14  0.1457E-04  0.3747E-07  0.1700E-02  0.1068E-03  0.9892E+01
   -1.050003   29.73992  0.2123E-14  0.1457E-04  0.3740E-07  0.1702E-02  0.1007E-03  0.1112E+02
   -1.100005   29.74040  0.2123E-14  0.1454E-04  0.3743E-07  0.1779E-02  0.9498E-04  0.3742E+02
   -1.150007   29.74085  0.2123E-14  0.1450E-04  0.3757E-07  0.1634E-02  0.8983E-04  0.8254E+02
   -1.200008   29.74134  0.2123E-14  0.1444E-04  0.3781E-07  0.1653E-02  0.8454E-04  0.1591E+02
   -1.250010   29.74181  0.2123E-14  0.1435E-04  0.3819E-07  0.1624E-02  0.7947E-04  0.1702E+02
   -1.300011   29.74230  0.2123E-14  0.1424E-04  0.3874E-07  0.1579E-02  0.7460E-04  0.1969E+02
   -1.350013   29.74279  0.2123E-14  0.1410E-04  0.3950E-07  0.1524E-02  0.6987E-04  0.2355E+02
   -1.400014   29.74330  0.2123E-14  0.1393E-04  0.4053E-07  0.1454E-02  0.6529E-04  0.2865E+02
   -1.450014   29.74383  0.2123E-14  0.1372E-04  0.4193E-07  0.1379E-02  0.6080E-04  0.3632E+02
   -1.500015   29.74439  0.2123E-14  0.1347E-04  0.4386E-07  0.1275E-02  0.5641E-04  0.4813E+02
   -1.550015   29.74499  0.2123E-14  0.1317E-04  0.4658E-07  0.1190E-02  0.5201E-04  0.6730E+02
   -1.600016   29.74564  0.2123E-14  0.1280E-04  0.5063E-07  0.1052E-02  0.4771E-04  0.1101E+03
   -1.650015   29.74640  0.2123E-14  0.1232E-04  0.5682E-07  0.9742E-03  0.4320E-04  0.3204E+03
   -1.700015   29.74725  0.2123E-14  0.1168E-04  0.6807E-07  0.7976E-03  0.3883E-04 -0.1262E+03
   -1.750014   29.74869  0.2123E-14  0.1080E-04  0.8680E-07  0.7198E-03  0.3317E-04  0.3252E+06
   -1.800013   29.75004  0.2123E-14  0.9563E-05  0.1254E-06  0.5013E-03  0.2846E-04  0.3564E+06
   -1.850011   29.75468  0.2123E-14  0.8097E-05  0.1983E-06  0.4569E-03  0.2062E-04  0.1451E+08
   -1.900009   29.75444  0.2123E-14  0.6350E-05  0.4121E-06  0.2004E-03  0.1657E-04 -0.7383E+05
   -1.950006   29.77031  0.2123E-14  0.4378E-05  0.1054E-05  0.1731E-03  0.8852E-05 -0.1474E+07
   -2.000003   29.77185  0.2123E-14  0.0000E+00  0.0000E+00  0.0000E+00  0.1587E-04  0.0000E+00
