 1 - depth, m
 2 - temperature, C
 3 - salinity, kg/kg
 4 - turbulent kinetic energy, m**2/s**2
 5 - dissipation rate, m**2/s**3
 6 - kinematic heat conductance, m**2/s
 7 - modulus of horizontal velocity, m/s
 8 - Richardson number, n/d
   -0.000000   30.74666  0.6514E-14  0.4923E-05  0.3113E-06  0.5037E-04  0.1049E-02  0.2740E+04
   -0.049997   30.77841  0.6514E-14  0.8526E-05  0.1382E-06  0.1825E-03  0.5934E-03  0.5013E+04
   -0.099994   30.79036  0.6514E-14  0.1034E-04  0.9533E-07  0.4093E-03  0.4353E-03  0.5026E+02
   -0.149992   30.79364  0.6514E-14  0.1147E-04  0.8016E-07  0.4896E-03  0.3850E-03  0.2470E+02
   -0.199991   30.79627  0.6514E-14  0.1235E-04  0.7124E-07  0.6545E-03  0.3440E-03  0.1592E+02
   -0.249989   30.79817  0.6514E-14  0.1305E-04  0.6539E-07  0.7810E-03  0.3134E-03  0.1184E+02
   -0.299988   30.79972  0.6514E-14  0.1363E-04  0.6121E-07  0.9081E-03  0.2879E-03  0.9415E+01
   -0.349988   30.80103  0.6514E-14  0.1410E-04  0.5808E-07  0.1023E-02  0.2660E-03  0.8091E+01
   -0.399988   30.80215  0.6514E-14  0.1450E-04  0.5564E-07  0.1128E-02  0.2467E-03  0.7188E+01
   -0.449988   30.80316  0.6514E-14  0.1484E-04  0.5365E-07  0.1225E-02  0.2297E-03  0.6777E+01
   -0.499988   30.80406  0.6514E-14  0.1513E-04  0.5201E-07  0.1314E-02  0.2146E-03  0.6561E+01
   -0.549989   30.80488  0.6514E-14  0.1539E-04  0.5063E-07  0.1396E-02  0.2011E-03  0.6503E+01
   -0.599989   30.80565  0.6514E-14  0.1561E-04  0.4947E-07  0.1470E-02  0.1889E-03  0.6468E+01
   -0.649990   30.80636  0.6514E-14  0.1580E-04  0.4849E-07  0.1537E-02  0.1777E-03  0.6582E+01
   -0.699992   30.80703  0.6514E-14  0.1596E-04  0.4766E-07  0.1596E-02  0.1675E-03  0.6686E+01
   -0.749993   30.80767  0.6514E-14  0.1609E-04  0.4697E-07  0.1647E-02  0.1580E-03  0.6945E+01
   -0.799994   30.80828  0.6514E-14  0.1620E-04  0.4640E-07  0.1690E-02  0.1492E-03  0.7183E+01
   -0.849996   30.80887  0.6514E-14  0.1628E-04  0.4593E-07  0.1725E-02  0.1410E-03  0.7598E+01
   -0.899998   30.80944  0.6514E-14  0.1634E-04  0.4557E-07  0.1752E-02  0.1333E-03  0.7992E+01
   -0.949999   30.81000  0.6514E-14  0.1638E-04  0.4532E-07  0.1771E-02  0.1259E-03  0.8608E+01
   -1.000001   30.81054  0.6514E-14  0.1640E-04  0.4517E-07  0.1782E-02  0.1191E-03  0.9216E+01
   -1.050003   30.81108  0.6514E-14  0.1639E-04  0.4513E-07  0.1782E-02  0.1125E-03  0.1050E+02
   -1.100004   30.81161  0.6514E-14  0.1636E-04  0.4521E-07  0.1873E-02  0.1063E-03  0.3453E+02
   -1.150006   30.81211  0.6514E-14  0.1631E-04  0.4543E-07  0.1693E-02  0.1007E-03  0.7822E+02
   -1.200008   30.81266  0.6514E-14  0.1624E-04  0.4578E-07  0.1722E-02  0.9487E-04  0.1512E+02
   -1.250009   30.81320  0.6514E-14  0.1614E-04  0.4632E-07  0.1691E-02  0.8934E-04  0.1599E+02
   -1.300010   30.81374  0.6514E-14  0.1600E-04  0.4707E-07  0.1641E-02  0.8399E-04  0.1883E+02
   -1.350012   30.81430  0.6514E-14  0.1584E-04  0.4810E-07  0.1581E-02  0.7882E-04  0.2235E+02
   -1.400013   30.81488  0.6514E-14  0.1564E-04  0.4951E-07  0.1503E-02  0.7375E-04  0.2779E+02
   -1.450013   30.81549  0.6514E-14  0.1539E-04  0.5142E-07  0.1424E-02  0.6880E-04  0.3517E+02
   -1.500014   30.81614  0.6514E-14  0.1509E-04  0.5408E-07  0.1312E-02  0.6391E-04  0.4808E+02
   -1.550014   30.81684  0.6514E-14  0.1473E-04  0.5786E-07  0.1226E-02  0.5901E-04  0.6850E+02
   -1.600014   30.81761  0.6514E-14  0.1427E-04  0.6370E-07  0.1083E-02  0.5418E-04  0.1465E+03
   -1.650014   30.81855  0.6514E-14  0.1368E-04  0.7282E-07  0.9983E-03  0.4898E-04  0.1194E+04
   -1.700014   30.81963  0.6514E-14  0.1287E-04  0.8897E-07  0.8204E-03  0.4381E-04  0.5833E+04
   -1.750013   30.82148  0.6514E-14  0.1182E-04  0.1153E-06  0.7351E-03  0.3710E-04  0.1800E+06
   -1.800011   30.82301  0.6514E-14  0.1041E-04  0.1726E-06  0.5164E-03  0.3187E-04  0.1586E+06
   -1.850010   30.82948  0.6514E-14  0.8868E-05  0.2787E-06  0.4728E-03  0.2279E-04  0.1903E+08
   -1.900008   30.82812  0.6514E-14  0.7032E-05  0.5828E-06  0.2158E-03  0.1855E-04  0.4359E+06
   -1.950005   30.84765  0.6514E-14  0.4934E-05  0.1444E-05  0.1923E-03  0.1000E-04 -0.1399E+07
   -2.000002   30.84980  0.6514E-14  0.0000E+00  0.0000E+00  0.0000E+00  0.1850E-04  0.0000E+00
