 1 - depth, m
 2 - temperature, C
 3 - salinity, kg/kg
 4 - turbulent kinetic energy, m**2/s**2
 5 - dissipation rate, m**2/s**3
 6 - kinematic heat conductance, m**2/s
 7 - modulus of horizontal velocity, m/s
 8 - Richardson number, n/d
   -0.000000   30.43292  0.5578E-14  0.4732E-05  0.2906E-06  0.5002E-04  0.1676E-02  0.6243E+04
   -0.049997   30.46201  0.5579E-14  0.8080E-05  0.1294E-06  0.1752E-03  0.9582E-03  0.1950E+03
   -0.099994   30.47334  0.5579E-14  0.9809E-05  0.8889E-07  0.3957E-03  0.7001E-03  0.1832E+02
   -0.149992   30.47645  0.5579E-14  0.1089E-04  0.7459E-07  0.4764E-03  0.6183E-03  0.8960E+01
   -0.199991   30.47894  0.5579E-14  0.1174E-04  0.6622E-07  0.6368E-03  0.5519E-03  0.5749E+01
   -0.249989   30.48075  0.5579E-14  0.1241E-04  0.6077E-07  0.7614E-03  0.5023E-03  0.4230E+01
   -0.299988   30.48222  0.5579E-14  0.1296E-04  0.5688E-07  0.8859E-03  0.4610E-03  0.3373E+01
   -0.349988   30.48345  0.5579E-14  0.1342E-04  0.5399E-07  0.9985E-03  0.4256E-03  0.2875E+01
   -0.399988   30.48453  0.5579E-14  0.1381E-04  0.5174E-07  0.1102E-02  0.3944E-03  0.2571E+01
   -0.449988   30.48548  0.5579E-14  0.1414E-04  0.4991E-07  0.1197E-02  0.3669E-03  0.2404E+01
   -0.499988   30.48634  0.5579E-14  0.1443E-04  0.4841E-07  0.1286E-02  0.3426E-03  0.2348E+01
   -0.549989   30.48713  0.5579E-14  0.1469E-04  0.4717E-07  0.1366E-02  0.3208E-03  0.2307E+01
   -0.599989   30.48786  0.5579E-14  0.1491E-04  0.4612E-07  0.1439E-02  0.3011E-03  0.2319E+01
   -0.649991   30.48854  0.5579E-14  0.1509E-04  0.4524E-07  0.1505E-02  0.2832E-03  0.2337E+01
   -0.699992   30.48918  0.5579E-14  0.1526E-04  0.4451E-07  0.1563E-02  0.2667E-03  0.2404E+01
   -0.749993   30.48979  0.5579E-14  0.1539E-04  0.4390E-07  0.1614E-02  0.2515E-03  0.2471E+01
   -0.799995   30.49038  0.5579E-14  0.1550E-04  0.4340E-07  0.1656E-02  0.2373E-03  0.2591E+01
   -0.849996   30.49095  0.5579E-14  0.1559E-04  0.4301E-07  0.1691E-02  0.2241E-03  0.2711E+01
   -0.899998   30.49149  0.5579E-14  0.1566E-04  0.4272E-07  0.1719E-02  0.2117E-03  0.2894E+01
   -0.949999   30.49203  0.5579E-14  0.1571E-04  0.4252E-07  0.1737E-02  0.2000E-03  0.3084E+01
   -1.000001   30.49256  0.5579E-14  0.1574E-04  0.4243E-07  0.1748E-02  0.1890E-03  0.3351E+01
   -1.050003   30.49307  0.5579E-14  0.1574E-04  0.4243E-07  0.1750E-02  0.1785E-03  0.3784E+01
   -1.100005   30.49359  0.5579E-14  0.1573E-04  0.4255E-07  0.1835E-02  0.1685E-03  0.1264E+02
   -1.150006   30.49408  0.5579E-14  0.1569E-04  0.4280E-07  0.1668E-02  0.1595E-03  0.2856E+02
   -1.200008   30.49461  0.5579E-14  0.1563E-04  0.4318E-07  0.1692E-02  0.1503E-03  0.5485E+01
   -1.250009   30.49514  0.5579E-14  0.1554E-04  0.4373E-07  0.1662E-02  0.1414E-03  0.5886E+01
   -1.300011   30.49567  0.5579E-14  0.1543E-04  0.4448E-07  0.1613E-02  0.1329E-03  0.6869E+01
   -1.350012   30.49622  0.5579E-14  0.1528E-04  0.4549E-07  0.1554E-02  0.1246E-03  0.8266E+01
   -1.400013   30.49679  0.5579E-14  0.1510E-04  0.4684E-07  0.1478E-02  0.1166E-03  0.1019E+02
   -1.450014   30.49739  0.5579E-14  0.1488E-04  0.4867E-07  0.1401E-02  0.1087E-03  0.1304E+02
   -1.500014   30.49802  0.5579E-14  0.1460E-04  0.5119E-07  0.1289E-02  0.1009E-03  0.1771E+02
   -1.550015   30.49872  0.5579E-14  0.1426E-04  0.5472E-07  0.1206E-02  0.9308E-04  0.2526E+02
   -1.600015   30.49947  0.5579E-14  0.1384E-04  0.6012E-07  0.1062E-02  0.8545E-04  0.4987E+02
   -1.650014   30.50039  0.5579E-14  0.1329E-04  0.6840E-07  0.9825E-03  0.7724E-04  0.1654E+04
   -1.700014   30.50142  0.5579E-14  0.1254E-04  0.8318E-07  0.8036E-03  0.6929E-04 -0.6619E+04
   -1.750013   30.50326  0.5579E-14  0.1153E-04  0.1077E-06  0.7235E-03  0.5872E-04  0.1683E+06
   -1.800012   30.50482  0.5579E-14  0.1016E-04  0.1620E-06  0.5067E-03  0.5033E-04  0.2536E+06
   -1.850010   30.51103  0.5579E-14  0.8625E-05  0.2597E-06  0.4615E-03  0.3606E-04  0.6141E+07
   -1.900008   30.51001  0.5579E-14  0.6822E-05  0.5456E-06  0.2120E-03  0.2916E-04  0.3546E+06
   -1.950005   30.52939  0.5579E-14  0.4778E-05  0.1368E-05  0.1867E-03  0.1565E-04 -0.1154E+07
   -2.000002   30.53227  0.5579E-14  0.0000E+00  0.0000E+00  0.0000E+00  0.2887E-04  0.0000E+00
