 1 - depth, m
 2 - temperature, C
 3 - salinity, kg/kg
 4 - turbulent kinetic energy, m**2/s**2
 5 - dissipation rate, m**2/s**3
 6 - kinematic heat conductance, m**2/s
 7 - modulus of horizontal velocity, m/s
 8 - Richardson number, n/d
   -0.000000   30.57442  0.2792E-14  0.5012E-05  0.3158E-06  0.4960E-04  0.1253E-02  0.5876E+04
   -0.049997   30.60775  0.2792E-14  0.8628E-05  0.1405E-06  0.1865E-03  0.7040E-03  0.4897E+02
   -0.099994   30.61963  0.2792E-14  0.1043E-04  0.9745E-07  0.4029E-03  0.5224E-03  0.3164E+02
   -0.149992   30.62307  0.2792E-14  0.1157E-04  0.8180E-07  0.4894E-03  0.4616E-03  0.1562E+02
   -0.199991   30.62578  0.2792E-14  0.1245E-04  0.7261E-07  0.6514E-03  0.4127E-03  0.1001E+02
   -0.249989   30.62775  0.2792E-14  0.1315E-04  0.6656E-07  0.7775E-03  0.3761E-03  0.7387E+01
   -0.299988   30.62935  0.2792E-14  0.1371E-04  0.6224E-07  0.9039E-03  0.3455E-03  0.5873E+01
   -0.349988   30.63069  0.2792E-14  0.1418E-04  0.5899E-07  0.1018E-02  0.3193E-03  0.5013E+01
   -0.399988   30.63185  0.2792E-14  0.1457E-04  0.5645E-07  0.1122E-02  0.2961E-03  0.4464E+01
   -0.449988   30.63288  0.2792E-14  0.1491E-04  0.5437E-07  0.1219E-02  0.2757E-03  0.4183E+01
   -0.499988   30.63380  0.2792E-14  0.1519E-04  0.5265E-07  0.1308E-02  0.2577E-03  0.4068E+01
   -0.549989   30.63465  0.2792E-14  0.1544E-04  0.5120E-07  0.1389E-02  0.2415E-03  0.4003E+01
   -0.599989   30.63543  0.2792E-14  0.1565E-04  0.4996E-07  0.1462E-02  0.2268E-03  0.4002E+01
   -0.649990   30.63616  0.2792E-14  0.1582E-04  0.4891E-07  0.1528E-02  0.2135E-03  0.4039E+01
   -0.699992   30.63685  0.2792E-14  0.1597E-04  0.4801E-07  0.1586E-02  0.2012E-03  0.4126E+01
   -0.749993   30.63750  0.2792E-14  0.1609E-04  0.4724E-07  0.1637E-02  0.1898E-03  0.4247E+01
   -0.799994   30.63812  0.2792E-14  0.1618E-04  0.4660E-07  0.1679E-02  0.1792E-03  0.4418E+01
   -0.849996   30.63872  0.2792E-14  0.1625E-04  0.4606E-07  0.1714E-02  0.1693E-03  0.4628E+01
   -0.899998   30.63930  0.2792E-14  0.1630E-04  0.4564E-07  0.1741E-02  0.1600E-03  0.4899E+01
   -0.949999   30.63986  0.2792E-14  0.1632E-04  0.4531E-07  0.1759E-02  0.1513E-03  0.5223E+01
   -1.000001   30.64040  0.2792E-14  0.1632E-04  0.4509E-07  0.1769E-02  0.1430E-03  0.5630E+01
   -1.050003   30.64094  0.2792E-14  0.1630E-04  0.4497E-07  0.1769E-02  0.1351E-03  0.6346E+01
   -1.100004   30.64147  0.2792E-14  0.1626E-04  0.4498E-07  0.1863E-02  0.1276E-03  0.2090E+02
   -1.150006   30.64197  0.2792E-14  0.1619E-04  0.4512E-07  0.1674E-02  0.1210E-03  0.4807E+02
   -1.200008   30.64252  0.2792E-14  0.1610E-04  0.4539E-07  0.1707E-02  0.1140E-03  0.9131E+01
   -1.250009   30.64306  0.2792E-14  0.1598E-04  0.4585E-07  0.1676E-02  0.1073E-03  0.9697E+01
   -1.300010   30.64360  0.2792E-14  0.1583E-04  0.4651E-07  0.1625E-02  0.1009E-03  0.1131E+02
   -1.350012   30.64415  0.2792E-14  0.1565E-04  0.4746E-07  0.1564E-02  0.9466E-04  0.1354E+02
   -1.400013   30.64472  0.2792E-14  0.1543E-04  0.4876E-07  0.1485E-02  0.8859E-04  0.1671E+02
   -1.450014   30.64532  0.2792E-14  0.1516E-04  0.5057E-07  0.1405E-02  0.8262E-04  0.2134E+02
   -1.500014   30.64595  0.2792E-14  0.1484E-04  0.5312E-07  0.1292E-02  0.7675E-04  0.2903E+02
   -1.550014   30.64664  0.2792E-14  0.1446E-04  0.5679E-07  0.1204E-02  0.7084E-04  0.4179E+02
   -1.600015   30.64738  0.2792E-14  0.1398E-04  0.6247E-07  0.1064E-02  0.6503E-04  0.8234E+02
   -1.650014   30.64828  0.2792E-14  0.1337E-04  0.7145E-07  0.9771E-03  0.5881E-04  0.3340E+03
   -1.700014   30.64934  0.2792E-14  0.1253E-04  0.8748E-07  0.8030E-03  0.5256E-04  0.2666E+04
   -1.750013   30.65114  0.2792E-14  0.1144E-04  0.1138E-06  0.7161E-03  0.4443E-04  0.2012E+05
   -1.800012   30.65273  0.2792E-14  0.9973E-05  0.1711E-06  0.4988E-03  0.3793E-04  0.2169E+06
   -1.850010   30.65896  0.2792E-14  0.8396E-05  0.2764E-06  0.4528E-03  0.2687E-04  0.1168E+09
   -1.900008   30.65761  0.2792E-14  0.6556E-05  0.5879E-06  0.2046E-03  0.2173E-04  0.5210E+06
   -1.950005   30.67683  0.2792E-14  0.4632E-05  0.1438E-05  0.1978E-03  0.1141E-04 -0.5620E+06
   -2.000002   30.67732  0.2792E-14  0.0000E+00  0.0000E+00  0.0000E+00  0.2206E-04  0.0000E+00
