 1 - depth, m
 2 - temperature, C
 3 - salinity, kg/kg
 4 - turbulent kinetic energy, m**2/s**2
 5 - dissipation rate, m**2/s**3
 6 - kinematic heat conductance, m**2/s
 7 - modulus of horizontal velocity, m/s
 8 - Richardson number, n/d
   -0.000000   30.95972  0.4544E-14  0.4965E-05  0.3151E-06  0.5161E-04  0.1641E-02  0.1373E+05
   -0.049997   30.99016  0.4544E-14  0.8470E-05  0.1405E-06  0.1780E-03  0.9420E-03  0.4310E+04
   -0.099994   31.00213  0.4544E-14  0.1029E-04  0.9636E-07  0.4030E-03  0.6889E-03  0.1761E+02
   -0.149992   31.00541  0.4544E-14  0.1144E-04  0.8074E-07  0.4832E-03  0.6087E-03  0.8642E+01
   -0.199991   31.00803  0.4544E-14  0.1233E-04  0.7162E-07  0.6484E-03  0.5435E-03  0.5526E+01
   -0.249989   31.00993  0.4544E-14  0.1303E-04  0.6567E-07  0.7753E-03  0.4949E-03  0.4077E+01
   -0.299988   31.01148  0.4544E-14  0.1361E-04  0.6145E-07  0.9027E-03  0.4545E-03  0.3241E+01
   -0.349988   31.01277  0.4544E-14  0.1409E-04  0.5829E-07  0.1018E-02  0.4199E-03  0.2771E+01
   -0.399988   31.01389  0.4544E-14  0.1449E-04  0.5583E-07  0.1123E-02  0.3894E-03  0.2467E+01
   -0.449988   31.01489  0.4544E-14  0.1484E-04  0.5384E-07  0.1221E-02  0.3625E-03  0.2315E+01
   -0.499988   31.01579  0.4544E-14  0.1514E-04  0.5220E-07  0.1311E-02  0.3387E-03  0.2249E+01
   -0.549989   31.01661  0.4544E-14  0.1541E-04  0.5083E-07  0.1393E-02  0.3174E-03  0.2219E+01
   -0.599989   31.01737  0.4544E-14  0.1563E-04  0.4968E-07  0.1468E-02  0.2981E-03  0.2218E+01
   -0.649990   31.01808  0.4544E-14  0.1582E-04  0.4871E-07  0.1535E-02  0.2806E-03  0.2246E+01
   -0.699992   31.01875  0.4544E-14  0.1599E-04  0.4790E-07  0.1594E-02  0.2644E-03  0.2295E+01
   -0.749993   31.01939  0.4544E-14  0.1613E-04  0.4722E-07  0.1645E-02  0.2495E-03  0.2372E+01
   -0.799994   31.02000  0.4544E-14  0.1624E-04  0.4666E-07  0.1688E-02  0.2356E-03  0.2469E+01
   -0.849996   31.02059  0.4544E-14  0.1633E-04  0.4622E-07  0.1724E-02  0.2226E-03  0.2599E+01
   -0.899998   31.02116  0.4544E-14  0.1639E-04  0.4588E-07  0.1751E-02  0.2104E-03  0.2753E+01
   -0.949999   31.02171  0.4544E-14  0.1644E-04  0.4565E-07  0.1770E-02  0.1989E-03  0.2951E+01
   -1.000001   31.02226  0.4544E-14  0.1646E-04  0.4553E-07  0.1781E-02  0.1881E-03  0.3183E+01
   -1.050003   31.02279  0.4544E-14  0.1646E-04  0.4551E-07  0.1781E-02  0.1777E-03  0.3611E+01
   -1.100004   31.02333  0.4544E-14  0.1643E-04  0.4562E-07  0.1872E-02  0.1679E-03  0.1192E+02
   -1.150006   31.02383  0.4544E-14  0.1639E-04  0.4587E-07  0.1691E-02  0.1591E-03  0.2729E+02
   -1.200007   31.02439  0.4544E-14  0.1631E-04  0.4626E-07  0.1720E-02  0.1499E-03  0.5231E+01
   -1.250009   31.02493  0.4544E-14  0.1622E-04  0.4683E-07  0.1689E-02  0.1412E-03  0.5579E+01
   -1.300010   31.02548  0.4544E-14  0.1609E-04  0.4763E-07  0.1638E-02  0.1328E-03  0.6543E+01
   -1.350011   31.02605  0.4544E-14  0.1592E-04  0.4871E-07  0.1577E-02  0.1246E-03  0.7846E+01
   -1.400012   31.02663  0.4544E-14  0.1572E-04  0.5016E-07  0.1498E-02  0.1166E-03  0.9730E+01
   -1.450013   31.02725  0.4544E-14  0.1548E-04  0.5215E-07  0.1419E-02  0.1088E-03  0.1245E+02
   -1.500014   31.02790  0.4544E-14  0.1518E-04  0.5490E-07  0.1305E-02  0.1011E-03  0.1703E+02
   -1.550014   31.02862  0.4544E-14  0.1481E-04  0.5880E-07  0.1219E-02  0.9334E-04  0.2471E+02
   -1.600014   31.02941  0.4544E-14  0.1435E-04  0.6481E-07  0.1075E-02  0.8571E-04  0.5304E+02
   -1.650014   31.03037  0.4544E-14  0.1375E-04  0.7412E-07  0.9919E-03  0.7750E-04  0.3790E+03
   -1.700013   31.03147  0.4544E-14  0.1293E-04  0.9067E-07  0.8117E-03  0.6940E-04  0.6850E+04
   -1.750013   31.03339  0.4544E-14  0.1186E-04  0.1177E-06  0.7315E-03  0.5873E-04  0.3116E+06
   -1.800011   31.03500  0.4544E-14  0.1043E-04  0.1753E-06  0.5049E-03  0.5044E-04 -0.9625E+05
   -1.850010   31.04169  0.4544E-14  0.8859E-05  0.2832E-06  0.4716E-03  0.3595E-04  0.1363E+08
   -1.900007   31.04028  0.4544E-14  0.7038E-05  0.5907E-06  0.2151E-03  0.2932E-04 -0.9230E+05
   -1.950005   31.06076  0.4544E-14  0.4944E-05  0.1467E-05  0.1942E-03  0.1581E-04 -0.3224E+06
   -2.000002   31.06225  0.4544E-14  0.0000E+00  0.0000E+00  0.0000E+00  0.2917E-04  0.0000E+00
