 1 - depth, m
 2 - temperature, C
 3 - salinity, kg/kg
 4 - turbulent kinetic energy, m**2/s**2
 5 - dissipation rate, m**2/s**3
 6 - kinematic heat conductance, m**2/s
 7 - modulus of horizontal velocity, m/s
 8 - Richardson number, n/d
   -0.000000   31.20460  0.6750E-14  0.5098E-05  0.3207E-06  0.5218E-04  0.1991E-02  0.4021E+04
   -0.049997   31.23503  0.6750E-14  0.8610E-05  0.1423E-06  0.1826E-03  0.1123E-02  0.2255E+04
   -0.099994   31.24658  0.6750E-14  0.1041E-04  0.9798E-07  0.4021E-03  0.8332E-03  0.1459E+02
   -0.149992   31.24988  0.6750E-14  0.1155E-04  0.8206E-07  0.4860E-03  0.7361E-03  0.7214E+01
   -0.199991   31.25250  0.6750E-14  0.1243E-04  0.7277E-07  0.6488E-03  0.6580E-03  0.4623E+01
   -0.249989   31.25440  0.6750E-14  0.1314E-04  0.6671E-07  0.7758E-03  0.5995E-03  0.3429E+01
   -0.299988   31.25595  0.6750E-14  0.1372E-04  0.6241E-07  0.9019E-03  0.5508E-03  0.2725E+01
   -0.349988   31.25725  0.6750E-14  0.1420E-04  0.5919E-07  0.1015E-02  0.5091E-03  0.2352E+01
   -0.399988   31.25838  0.6750E-14  0.1461E-04  0.5669E-07  0.1121E-02  0.4720E-03  0.2107E+01
   -0.449988   31.25938  0.6750E-14  0.1496E-04  0.5464E-07  0.1220E-02  0.4391E-03  0.2007E+01
   -0.499988   31.26028  0.6750E-14  0.1527E-04  0.5295E-07  0.1313E-02  0.4097E-03  0.1952E+01
   -0.549989   31.26111  0.6750E-14  0.1554E-04  0.5154E-07  0.1398E-02  0.3832E-03  0.1944E+01
   -0.599989   31.26187  0.6750E-14  0.1577E-04  0.5036E-07  0.1475E-02  0.3593E-03  0.1932E+01
   -0.649990   31.26258  0.6750E-14  0.1597E-04  0.4938E-07  0.1544E-02  0.3375E-03  0.1966E+01
   -0.699992   31.26325  0.6750E-14  0.1614E-04  0.4855E-07  0.1604E-02  0.3176E-03  0.1988E+01
   -0.749993   31.26388  0.6750E-14  0.1628E-04  0.4788E-07  0.1656E-02  0.2993E-03  0.2061E+01
   -0.799994   31.26449  0.6750E-14  0.1640E-04  0.4733E-07  0.1699E-02  0.2824E-03  0.2120E+01
   -0.849996   31.26508  0.6750E-14  0.1649E-04  0.4690E-07  0.1733E-02  0.2667E-03  0.2244E+01
   -0.899997   31.26565  0.6750E-14  0.1656E-04  0.4658E-07  0.1759E-02  0.2521E-03  0.2355E+01
   -0.949999   31.26620  0.6750E-14  0.1660E-04  0.4637E-07  0.1777E-02  0.2383E-03  0.2549E+01
   -1.000001   31.26675  0.6750E-14  0.1662E-04  0.4627E-07  0.1786E-02  0.2253E-03  0.2731E+01
   -1.050003   31.26729  0.6750E-14  0.1662E-04  0.4629E-07  0.1785E-02  0.2130E-03  0.3136E+01
   -1.100004   31.26783  0.6750E-14  0.1659E-04  0.4643E-07  0.1882E-02  0.2012E-03  0.1019E+02
   -1.150006   31.26834  0.6750E-14  0.1655E-04  0.4672E-07  0.1687E-02  0.1908E-03  0.2406E+02
   -1.200007   31.26890  0.6750E-14  0.1647E-04  0.4716E-07  0.1719E-02  0.1798E-03  0.4610E+01
   -1.250009   31.26945  0.6750E-14  0.1637E-04  0.4779E-07  0.1688E-02  0.1693E-03  0.4884E+01
   -1.300010   31.27001  0.6750E-14  0.1624E-04  0.4866E-07  0.1634E-02  0.1592E-03  0.5822E+01
   -1.350011   31.27059  0.6750E-14  0.1607E-04  0.4983E-07  0.1573E-02  0.1494E-03  0.6959E+01
   -1.400012   31.27119  0.6750E-14  0.1587E-04  0.5140E-07  0.1491E-02  0.1398E-03  0.8797E+01
   -1.450013   31.27182  0.6750E-14  0.1562E-04  0.5354E-07  0.1412E-02  0.1304E-03  0.1127E+02
   -1.500014   31.27250  0.6750E-14  0.1531E-04  0.5652E-07  0.1295E-02  0.1211E-03  0.1581E+02
   -1.550014   31.27324  0.6750E-14  0.1492E-04  0.6075E-07  0.1214E-02  0.1118E-03  0.2318E+02
   -1.600014   31.27405  0.6750E-14  0.1444E-04  0.6737E-07  0.1063E-02  0.1026E-03  0.5875E+02
   -1.650014   31.27509  0.6750E-14  0.1382E-04  0.7763E-07  0.9858E-03  0.9253E-04  0.2724E+03
   -1.700013   31.27625  0.6750E-14  0.1296E-04  0.9570E-07  0.7972E-03  0.8273E-04 -0.1478E+05
   -1.750012   31.27838  0.6750E-14  0.1185E-04  0.1253E-06  0.7256E-03  0.6948E-04  0.5125E+05
   -1.800011   31.27994  0.6750E-14  0.1041E-04  0.1915E-06  0.4974E-03  0.5981E-04  0.2836E+05
   -1.850009   31.28768  0.6750E-14  0.8831E-05  0.3127E-06  0.4663E-03  0.4214E-04  0.2415E+08
   -1.900007   31.28538  0.6750E-14  0.7002E-05  0.6499E-06  0.2101E-03  0.3455E-04 -0.3725E+05
   -1.950005   31.30757  0.6750E-14  0.4954E-05  0.1583E-05  0.2018E-03  0.1846E-04 -0.6919E+06
   -2.000002   31.30873  0.6750E-14  0.0000E+00  0.0000E+00  0.0000E+00  0.3487E-04  0.0000E+00
