 1 - depth, m
 2 - temperature, C
 3 - salinity, kg/kg
 4 - turbulent kinetic energy, m**2/s**2
 5 - dissipation rate, m**2/s**3
 6 - kinematic heat conductance, m**2/s
 7 - modulus of horizontal velocity, m/s
 8 - Richardson number, n/d
   -0.000000   29.72841  0.4804E-13  0.4864E-05  0.2605E-06  0.4938E-04  0.3170E-02  0.1097E+04
   -0.049997   29.75569  0.4805E-13  0.7885E-05  0.1134E-06  0.1923E-03  0.1696E-02  0.6267E+03
   -0.099994   29.76404  0.4805E-13  0.9288E-05  0.8067E-07  0.3732E-03  0.1328E-02  0.5642E+01
   -0.149992   29.76704  0.4805E-13  0.1022E-04  0.6804E-07  0.4662E-03  0.1181E-02  0.2890E+01
   -0.199991   29.76933  0.4805E-13  0.1096E-04  0.6063E-07  0.5995E-03  0.1065E-02  0.1951E+01
   -0.249989   29.77107  0.4805E-13  0.1157E-04  0.5567E-07  0.7133E-03  0.9745E-03  0.1572E+01
   -0.299989   29.77249  0.4805E-13  0.1210E-04  0.5202E-07  0.8298E-03  0.8943E-03  0.1415E+01
   -0.349988   29.77368  0.4805E-13  0.1258E-04  0.4914E-07  0.9487E-03  0.8199E-03  0.1383E+01
   -0.399988   29.77470  0.4805E-13  0.1300E-04  0.4681E-07  0.1070E-02  0.7492E-03  0.1358E+01
   -0.449988   29.77559  0.4805E-13  0.1339E-04  0.4488E-07  0.1188E-02  0.6844E-03  0.1350E+01
   -0.499988   29.77637  0.4805E-13  0.1372E-04  0.4328E-07  0.1299E-02  0.6265E-03  0.1344E+01
   -0.549989   29.77708  0.4805E-13  0.1402E-04  0.4196E-07  0.1400E-02  0.5748E-03  0.1336E+01
   -0.599990   29.77772  0.4805E-13  0.1426E-04  0.4087E-07  0.1492E-02  0.5287E-03  0.1322E+01
   -0.649991   29.77831  0.4805E-13  0.1447E-04  0.3998E-07  0.1573E-02  0.4874E-03  0.1311E+01
   -0.699992   29.77887  0.4805E-13  0.1464E-04  0.3926E-07  0.1642E-02  0.4505E-03  0.1294E+01
   -0.749993   29.77940  0.4805E-13  0.1478E-04  0.3869E-07  0.1698E-02  0.4174E-03  0.1283E+01
   -0.799995   29.77990  0.4805E-13  0.1488E-04  0.3824E-07  0.1742E-02  0.3877E-03  0.1270E+01
   -0.849996   29.78038  0.4805E-13  0.1496E-04  0.3792E-07  0.1774E-02  0.3610E-03  0.1269E+01
   -0.899998   29.78086  0.4805E-13  0.1501E-04  0.3770E-07  0.1795E-02  0.3369E-03  0.1269E+01
   -0.950000   29.78132  0.4805E-13  0.1504E-04  0.3759E-07  0.1806E-02  0.3151E-03  0.1288E+01
   -1.000002   29.78177  0.4805E-13  0.1504E-04  0.3756E-07  0.1807E-02  0.2954E-03  0.1318E+01
   -1.050003   29.78222  0.4805E-13  0.1503E-04  0.3763E-07  0.1795E-02  0.2773E-03  0.1415E+01
   -1.100005   29.78267  0.4805E-13  0.1500E-04  0.3779E-07  0.1908E-02  0.2608E-03  0.4271E+01
   -1.150007   29.78310  0.4805E-13  0.1494E-04  0.3806E-07  0.1678E-02  0.2474E-03  0.9871E+01
   -1.200008   29.78357  0.4805E-13  0.1487E-04  0.3843E-07  0.1724E-02  0.2330E-03  0.1901E+01
   -1.250010   29.78403  0.4805E-13  0.1478E-04  0.3896E-07  0.1690E-02  0.2194E-03  0.2012E+01
   -1.300011   29.78450  0.4805E-13  0.1466E-04  0.3967E-07  0.1637E-02  0.2062E-03  0.2357E+01
   -1.350012   29.78499  0.4805E-13  0.1451E-04  0.4062E-07  0.1575E-02  0.1935E-03  0.2814E+01
   -1.400013   29.78549  0.4805E-13  0.1433E-04  0.4187E-07  0.1494E-02  0.1811E-03  0.3486E+01
   -1.450014   29.78602  0.4805E-13  0.1411E-04  0.4356E-07  0.1415E-02  0.1689E-03  0.4427E+01
   -1.500015   29.78658  0.4805E-13  0.1384E-04  0.4587E-07  0.1301E-02  0.1569E-03  0.6006E+01
   -1.550015   29.78719  0.4805E-13  0.1352E-04  0.4912E-07  0.1217E-02  0.1449E-03  0.8535E+01
   -1.600015   29.78786  0.4805E-13  0.1312E-04  0.5406E-07  0.1069E-02  0.1330E-03  0.1705E+02
   -1.650015   29.78868  0.4805E-13  0.1260E-04  0.6168E-07  0.9914E-03  0.1202E-03  0.1450E+04
   -1.700015   29.78960  0.4805E-13  0.1188E-04  0.7515E-07  0.8050E-03  0.1077E-03  0.9080E+02
   -1.750014   29.79123  0.4805E-13  0.1094E-04  0.9707E-07  0.7299E-03  0.9108E-04  0.3842E+04
   -1.800013   29.79254  0.4805E-13  0.9674E-05  0.1430E-06  0.5065E-03  0.7841E-04  0.8395E+05
   -1.850011   29.79805  0.4805E-13  0.8228E-05  0.2299E-06  0.4654E-03  0.5598E-04  0.1197E+07
   -1.900009   29.79710  0.4805E-13  0.6518E-05  0.4787E-06  0.2106E-03  0.4561E-04 -0.1181E+06
   -1.950006   29.81437  0.4805E-13  0.4529E-05  0.1209E-05  0.1811E-03  0.2449E-04 -0.5812E+05
   -2.000003   29.81704  0.4805E-13  0.0000E+00  0.0000E+00  0.0000E+00  0.4495E-04  0.0000E+00
