 1 - depth, m
 2 - temperature, C
 3 - salinity, kg/kg
 4 - turbulent kinetic energy, m**2/s**2
 5 - dissipation rate, m**2/s**3
 6 - kinematic heat conductance, m**2/s
 7 - modulus of horizontal velocity, m/s
 8 - Richardson number, n/d
   -0.000000   30.63046  0.3931E-13  0.5023E-05  0.3057E-06  0.5120E-04  0.2222E-02  0.3888E+04
   -0.049997   30.66068  0.3931E-13  0.8435E-05  0.1354E-06  0.1847E-03  0.1236E-02  0.6248E+03
   -0.099994   30.67150  0.3931E-13  0.1014E-04  0.9394E-07  0.3939E-03  0.9280E-03  0.1034E+02
   -0.149992   30.67479  0.3931E-13  0.1123E-04  0.7870E-07  0.4821E-03  0.8194E-03  0.5129E+01
   -0.199991   30.67735  0.3931E-13  0.1209E-04  0.6979E-07  0.6392E-03  0.7331E-03  0.3296E+01
   -0.249989   30.67923  0.3931E-13  0.1276E-04  0.6396E-07  0.7647E-03  0.6680E-03  0.2426E+01
   -0.299988   30.68076  0.3931E-13  0.1332E-04  0.5981E-07  0.8877E-03  0.6138E-03  0.1934E+01
   -0.349988   30.68204  0.3931E-13  0.1378E-04  0.5670E-07  0.9980E-03  0.5673E-03  0.1662E+01
   -0.399988   30.68315  0.3931E-13  0.1417E-04  0.5426E-07  0.1100E-02  0.5258E-03  0.1521E+01
   -0.449988   30.68414  0.3931E-13  0.1452E-04  0.5226E-07  0.1200E-02  0.4887E-03  0.1459E+01
   -0.499988   30.68503  0.3931E-13  0.1482E-04  0.5058E-07  0.1294E-02  0.4553E-03  0.1444E+01
   -0.549989   30.68584  0.3931E-13  0.1509E-04  0.4917E-07  0.1381E-02  0.4252E-03  0.1427E+01
   -0.599989   30.68658  0.3931E-13  0.1531E-04  0.4799E-07  0.1460E-02  0.3979E-03  0.1429E+01
   -0.649990   30.68728  0.3931E-13  0.1551E-04  0.4700E-07  0.1531E-02  0.3731E-03  0.1428E+01
   -0.699992   30.68793  0.3931E-13  0.1567E-04  0.4616E-07  0.1592E-02  0.3504E-03  0.1445E+01
   -0.749993   30.68854  0.3931E-13  0.1581E-04  0.4548E-07  0.1645E-02  0.3297E-03  0.1461E+01
   -0.799994   30.68913  0.3931E-13  0.1592E-04  0.4492E-07  0.1689E-02  0.3107E-03  0.1503E+01
   -0.849996   30.68970  0.3931E-13  0.1600E-04  0.4447E-07  0.1724E-02  0.2931E-03  0.1547E+01
   -0.899998   30.69025  0.3931E-13  0.1606E-04  0.4413E-07  0.1750E-02  0.2768E-03  0.1628E+01
   -0.949999   30.69079  0.3931E-13  0.1610E-04  0.4390E-07  0.1768E-02  0.2616E-03  0.1721E+01
   -1.000001   30.69132  0.3931E-13  0.1612E-04  0.4377E-07  0.1779E-02  0.2473E-03  0.1861E+01
   -1.050003   30.69183  0.3931E-13  0.1612E-04  0.4374E-07  0.1779E-02  0.2337E-03  0.2094E+01
   -1.100004   30.69235  0.3931E-13  0.1609E-04  0.4383E-07  0.1868E-02  0.2207E-03  0.6968E+01
   -1.150006   30.69284  0.3931E-13  0.1605E-04  0.4406E-07  0.1691E-02  0.2092E-03  0.1585E+02
   -1.200008   30.69337  0.3931E-13  0.1597E-04  0.4441E-07  0.1719E-02  0.1972E-03  0.3018E+01
   -1.250009   30.69390  0.3931E-13  0.1588E-04  0.4494E-07  0.1689E-02  0.1856E-03  0.3232E+01
   -1.300010   30.69443  0.3931E-13  0.1575E-04  0.4568E-07  0.1639E-02  0.1746E-03  0.3756E+01
   -1.350012   30.69497  0.3931E-13  0.1560E-04  0.4669E-07  0.1579E-02  0.1638E-03  0.4524E+01
   -1.400013   30.69554  0.3931E-13  0.1540E-04  0.4805E-07  0.1502E-02  0.1534E-03  0.5559E+01
   -1.450013   30.69613  0.3931E-13  0.1517E-04  0.4991E-07  0.1424E-02  0.1430E-03  0.7133E+01
   -1.500014   30.69676  0.3931E-13  0.1488E-04  0.5248E-07  0.1312E-02  0.1329E-03  0.9662E+01
   -1.550014   30.69745  0.3931E-13  0.1453E-04  0.5612E-07  0.1228E-02  0.1227E-03  0.1397E+02
   -1.600014   30.69819  0.3931E-13  0.1409E-04  0.6174E-07  0.1083E-02  0.1128E-03  0.2941E+02
   -1.650014   30.69911  0.3931E-13  0.1352E-04  0.7044E-07  0.1002E-02  0.1020E-03  0.2771E+02
   -1.700014   30.70015  0.3931E-13  0.1275E-04  0.8571E-07  0.8174E-03  0.9141E-04 -0.1766E+03
   -1.750013   30.70197  0.3931E-13  0.1174E-04  0.1107E-06  0.7392E-03  0.7751E-04  0.4358E+06
   -1.800011   30.70343  0.3931E-13  0.1040E-04  0.1629E-06  0.5153E-03  0.6685E-04  0.1496E+05
   -1.850010   30.70960  0.3931E-13  0.8896E-05  0.2628E-06  0.4757E-03  0.4831E-04  0.1337E+08
   -1.900008   30.70837  0.3931E-13  0.7089E-05  0.5458E-06  0.2168E-03  0.3948E-04  0.7141E+05
   -1.950005   30.72725  0.3931E-13  0.4938E-05  0.1361E-05  0.1864E-03  0.2155E-04 -0.4503E+06
   -2.000002   30.72982  0.3931E-13  0.0000E+00  0.0000E+00  0.0000E+00  0.3865E-04  0.0000E+00
