 1 - depth, m
 2 - temperature, C
 3 - salinity, kg/kg
 4 - turbulent kinetic energy, m**2/s**2
 5 - dissipation rate, m**2/s**3
 6 - kinematic heat conductance, m**2/s
 7 - modulus of horizontal velocity, m/s
 8 - Richardson number, n/d
   -0.000000   29.88584  0.1035E-12  0.4119E-05  0.2323E-06  0.4506E-04  0.5658E-03  0.1333E+06
   -0.049997   29.91299  0.1035E-12  0.7332E-05  0.1030E-06  0.1757E-03  0.3124E-03  0.7590E+02
   -0.099994   29.92224  0.1035E-12  0.8854E-05  0.7194E-07  0.3953E-03  0.2281E-03  0.1313E+03
   -0.149992   29.92487  0.1035E-12  0.9806E-05  0.6102E-07  0.4730E-03  0.2017E-03  0.6401E+02
   -0.199991   29.92698  0.1035E-12  0.1055E-04  0.5455E-07  0.6257E-03  0.1802E-03  0.4214E+02
   -0.249989   29.92853  0.1035E-12  0.1115E-04  0.5027E-07  0.7463E-03  0.1639E-03  0.3143E+02
   -0.299989   29.92980  0.1035E-12  0.1164E-04  0.4721E-07  0.8644E-03  0.1504E-03  0.2524E+02
   -0.349988   29.93088  0.1035E-12  0.1206E-04  0.4492E-07  0.9720E-03  0.1387E-03  0.2171E+02
   -0.399988   29.93181  0.1035E-12  0.1241E-04  0.4314E-07  0.1070E-02  0.1284E-03  0.1944E+02
   -0.449988   29.93264  0.1035E-12  0.1271E-04  0.4170E-07  0.1162E-02  0.1193E-03  0.1830E+02
   -0.499988   29.93340  0.1035E-12  0.1298E-04  0.4052E-07  0.1246E-02  0.1112E-03  0.1786E+02
   -0.549989   29.93408  0.1035E-12  0.1321E-04  0.3955E-07  0.1324E-02  0.1040E-03  0.1768E+02
   -0.599990   29.93472  0.1035E-12  0.1342E-04  0.3873E-07  0.1394E-02  0.9754E-04  0.1775E+02
   -0.649991   29.93532  0.1035E-12  0.1360E-04  0.3806E-07  0.1457E-02  0.9160E-04  0.1803E+02
   -0.699992   29.93589  0.1035E-12  0.1376E-04  0.3751E-07  0.1513E-02  0.8616E-04  0.1851E+02
   -0.749993   29.93642  0.1035E-12  0.1389E-04  0.3706E-07  0.1562E-02  0.8113E-04  0.1920E+02
   -0.799995   29.93694  0.1035E-12  0.1401E-04  0.3670E-07  0.1604E-02  0.7645E-04  0.2009E+02
   -0.849996   29.93744  0.1035E-12  0.1411E-04  0.3643E-07  0.1639E-02  0.7209E-04  0.2122E+02
   -0.899998   29.93793  0.1035E-12  0.1419E-04  0.3625E-07  0.1666E-02  0.6801E-04  0.2260E+02
   -0.950000   29.93840  0.1035E-12  0.1425E-04  0.3615E-07  0.1685E-02  0.6416E-04  0.2430E+02
   -1.000002   29.93887  0.1035E-12  0.1429E-04  0.3613E-07  0.1697E-02  0.6053E-04  0.2636E+02
   -1.050003   29.93934  0.1035E-12  0.1432E-04  0.3620E-07  0.1700E-02  0.5708E-04  0.3008E+02
   -1.100005   29.93980  0.1035E-12  0.1433E-04  0.3636E-07  0.1771E-02  0.5380E-04  0.1016E+03
   -1.150007   29.94024  0.1035E-12  0.1432E-04  0.3663E-07  0.1643E-02  0.5086E-04  0.2205E+03
   -1.200008   29.94072  0.1035E-12  0.1429E-04  0.3701E-07  0.1654E-02  0.4786E-04  0.4351E+02
   -1.250010   29.94119  0.1035E-12  0.1423E-04  0.3752E-07  0.1626E-02  0.4498E-04  0.4673E+02
   -1.300011   29.94168  0.1035E-12  0.1416E-04  0.3821E-07  0.1582E-02  0.4221E-04  0.5470E+02
   -1.350012   29.94218  0.1035E-12  0.1406E-04  0.3910E-07  0.1528E-02  0.3952E-04  0.6535E+02
   -1.400013   29.94269  0.1035E-12  0.1393E-04  0.4026E-07  0.1460E-02  0.3692E-04  0.8028E+02
   -1.450014   29.94324  0.1035E-12  0.1376E-04  0.4179E-07  0.1387E-02  0.3437E-04  0.1014E+03
   -1.500015   29.94382  0.1035E-12  0.1355E-04  0.4385E-07  0.1286E-02  0.3187E-04  0.1351E+03
   -1.550015   29.94444  0.1035E-12  0.1329E-04  0.4667E-07  0.1203E-02  0.2939E-04  0.1876E+03
   -1.600015   29.94513  0.1035E-12  0.1296E-04  0.5079E-07  0.1066E-02  0.2695E-04  0.3070E+03
   -1.650015   29.94593  0.1035E-12  0.1254E-04  0.5695E-07  0.9870E-03  0.2440E-04  0.1280E+04
   -1.700014   29.94682  0.1035E-12  0.1196E-04  0.6785E-07  0.8134E-03  0.2194E-04  0.2670E+04
   -1.750014   29.94829  0.1035E-12  0.1115E-04  0.8591E-07  0.7333E-03  0.1882E-04  0.5903E+05
   -1.800012   29.94973  0.1035E-12  0.1001E-04  0.1223E-06  0.5224E-03  0.1618E-04  0.1743E+05
   -1.850011   29.95434  0.1035E-12  0.8621E-05  0.1917E-06  0.4697E-03  0.1196E-04  0.6548E+08
   -1.900009   29.95459  0.1035E-12  0.6884E-05  0.4012E-06  0.2120E-03  0.9610E-05 -0.1865E+06
   -1.950006   29.97115  0.1035E-12  0.4739E-05  0.1040E-05  0.1627E-03  0.5316E-05 -0.7995E+07
   -2.000003   29.97595  0.1035E-12  0.0000E+00  0.0000E+00  0.0000E+00  0.8954E-05  0.0000E+00
