 1 - depth, m
 2 - temperature, C
 3 - salinity, kg/kg
 4 - turbulent kinetic energy, m**2/s**2
 5 - dissipation rate, m**2/s**3
 6 - kinematic heat conductance, m**2/s
 7 - modulus of horizontal velocity, m/s
 8 - Richardson number, n/d
   -0.000000   30.14973  0.1307E-13  0.4788E-05  0.2951E-06  0.4928E-04  0.1113E-02  0.1061E+05
   -0.049997   30.18124  0.1307E-13  0.8295E-05  0.1315E-06  0.1813E-03  0.6291E-03  0.2114E+03
   -0.099994   30.19273  0.1307E-13  0.1004E-04  0.9114E-07  0.4010E-03  0.4643E-03  0.5008E+02
   -0.149992   30.19601  0.1307E-13  0.1114E-04  0.7667E-07  0.4831E-03  0.4103E-03  0.2452E+02
   -0.199991   30.19860  0.1307E-13  0.1199E-04  0.6815E-07  0.6437E-03  0.3667E-03  0.1589E+02
   -0.249989   30.20050  0.1307E-13  0.1266E-04  0.6255E-07  0.7686E-03  0.3340E-03  0.1172E+02
   -0.299989   30.20203  0.1307E-13  0.1321E-04  0.5854E-07  0.8929E-03  0.3067E-03  0.9361E+01
   -0.349988   30.20332  0.1307E-13  0.1367E-04  0.5553E-07  0.1005E-02  0.2834E-03  0.7966E+01
   -0.399988   30.20444  0.1307E-13  0.1405E-04  0.5318E-07  0.1108E-02  0.2627E-03  0.7126E+01
   -0.449988   30.20543  0.1307E-13  0.1437E-04  0.5127E-07  0.1203E-02  0.2445E-03  0.6649E+01
   -0.499988   30.20633  0.1307E-13  0.1466E-04  0.4968E-07  0.1291E-02  0.2284E-03  0.6500E+01
   -0.549989   30.20715  0.1307E-13  0.1490E-04  0.4834E-07  0.1371E-02  0.2140E-03  0.6366E+01
   -0.599990   30.20791  0.1307E-13  0.1511E-04  0.4721E-07  0.1443E-02  0.2009E-03  0.6401E+01
   -0.649991   30.20861  0.1307E-13  0.1528E-04  0.4625E-07  0.1508E-02  0.1890E-03  0.6427E+01
   -0.699992   30.20928  0.1307E-13  0.1543E-04  0.4544E-07  0.1566E-02  0.1780E-03  0.6607E+01
   -0.749993   30.20991  0.1307E-13  0.1555E-04  0.4475E-07  0.1615E-02  0.1679E-03  0.6762E+01
   -0.799995   30.21052  0.1307E-13  0.1565E-04  0.4417E-07  0.1657E-02  0.1585E-03  0.7082E+01
   -0.849996   30.21110  0.1307E-13  0.1572E-04  0.4370E-07  0.1692E-02  0.1497E-03  0.7376E+01
   -0.899998   30.21166  0.1307E-13  0.1577E-04  0.4333E-07  0.1718E-02  0.1414E-03  0.7860E+01
   -0.950000   30.21221  0.1307E-13  0.1580E-04  0.4306E-07  0.1736E-02  0.1337E-03  0.8332E+01
   -1.000001   30.21274  0.1307E-13  0.1581E-04  0.4288E-07  0.1746E-02  0.1263E-03  0.9040E+01
   -1.050003   30.21327  0.1307E-13  0.1580E-04  0.4281E-07  0.1746E-02  0.1193E-03  0.1014E+02
   -1.100005   30.21379  0.1307E-13  0.1576E-04  0.4284E-07  0.1837E-02  0.1126E-03  0.3367E+02
   -1.150006   30.21428  0.1307E-13  0.1570E-04  0.4302E-07  0.1655E-02  0.1067E-03  0.7704E+02
   -1.200008   30.21482  0.1307E-13  0.1562E-04  0.4331E-07  0.1685E-02  0.1005E-03  0.1459E+02
   -1.250009   30.21535  0.1307E-13  0.1551E-04  0.4378E-07  0.1654E-02  0.9453E-04  0.1559E+02
   -1.300011   30.21588  0.1307E-13  0.1537E-04  0.4446E-07  0.1604E-02  0.8885E-04  0.1808E+02
   -1.350012   30.21643  0.1307E-13  0.1520E-04  0.4539E-07  0.1544E-02  0.8331E-04  0.2176E+02
   -1.400013   30.21699  0.1307E-13  0.1500E-04  0.4668E-07  0.1465E-02  0.7793E-04  0.2668E+02
   -1.450014   30.21758  0.1307E-13  0.1475E-04  0.4844E-07  0.1389E-02  0.7262E-04  0.3420E+02
   -1.500015   30.21821  0.1307E-13  0.1445E-04  0.5091E-07  0.1273E-02  0.6743E-04  0.4629E+02
   -1.550015   30.21889  0.1307E-13  0.1408E-04  0.5443E-07  0.1194E-02  0.6218E-04  0.6625E+02
   -1.600015   30.21963  0.1307E-13  0.1363E-04  0.5992E-07  0.1043E-02  0.5708E-04  0.1318E+03
   -1.650015   30.22054  0.1307E-13  0.1304E-04  0.6842E-07  0.9741E-03  0.5150E-04  0.4022E+03
   -1.700014   30.22154  0.1307E-13  0.1225E-04  0.8388E-07  0.7841E-03  0.4618E-04  0.1950E+01
   -1.750013   30.22343  0.1307E-13  0.1118E-04  0.1093E-06  0.7162E-03  0.3877E-04  0.2104E+06
   -1.800012   30.22486  0.1307E-13  0.9777E-05  0.1640E-06  0.4900E-03  0.3328E-04  0.1709E+05
   -1.850010   30.23137  0.1307E-13  0.8212E-05  0.2663E-06  0.4555E-03  0.2329E-04  0.9644E+08
   -1.900008   30.22974  0.1307E-13  0.6460E-05  0.5619E-06  0.2048E-03  0.1900E-04  0.1195E+07
   -1.950006   30.24897  0.1307E-13  0.4542E-05  0.1395E-05  0.1942E-03  0.9962E-05 -0.9170E+06
   -2.000003   30.25031  0.1307E-13  0.0000E+00  0.0000E+00  0.0000E+00  0.1931E-04  0.0000E+00
