 1 - depth, m
 2 - temperature, C
 3 - salinity, kg/kg
 4 - turbulent kinetic energy, m**2/s**2
 5 - dissipation rate, m**2/s**3
 6 - kinematic heat conductance, m**2/s
 7 - modulus of horizontal velocity, m/s
 8 - Richardson number, n/d
   -0.000000   30.38573  0.4503E-14  0.4922E-05  0.2955E-06  0.5072E-04  0.2285E-02  0.1245E+04
   -0.049997   30.41504  0.4503E-14  0.8266E-05  0.1307E-06  0.1837E-03  0.1266E-02  0.3804E+02
   -0.099994   30.42544  0.4503E-14  0.9936E-05  0.9082E-07  0.3907E-03  0.9495E-03  0.8949E+01
   -0.149992   30.42863  0.4503E-14  0.1101E-04  0.7609E-07  0.4798E-03  0.8373E-03  0.4471E+01
   -0.199991   30.43112  0.4503E-14  0.1185E-04  0.6749E-07  0.6357E-03  0.7484E-03  0.2878E+01
   -0.249989   30.43295  0.4503E-14  0.1252E-04  0.6187E-07  0.7610E-03  0.6813E-03  0.2127E+01
   -0.299988   30.43444  0.4503E-14  0.1306E-04  0.5788E-07  0.8841E-03  0.6256E-03  0.1694E+01
   -0.349988   30.43569  0.4503E-14  0.1352E-04  0.5489E-07  0.9949E-03  0.5777E-03  0.1455E+01
   -0.399988   30.43678  0.4503E-14  0.1391E-04  0.5257E-07  0.1096E-02  0.5354E-03  0.1319E+01
   -0.449988   30.43774  0.4503E-14  0.1425E-04  0.5066E-07  0.1193E-02  0.4978E-03  0.1275E+01
   -0.499988   30.43861  0.4503E-14  0.1455E-04  0.4908E-07  0.1286E-02  0.4640E-03  0.1261E+01
   -0.549989   30.43941  0.4503E-14  0.1481E-04  0.4775E-07  0.1371E-02  0.4336E-03  0.1255E+01
   -0.599990   30.44014  0.4503E-14  0.1503E-04  0.4663E-07  0.1449E-02  0.4060E-03  0.1252E+01
   -0.649991   30.44082  0.4503E-14  0.1523E-04  0.4569E-07  0.1518E-02  0.3808E-03  0.1258E+01
   -0.699992   30.44146  0.4503E-14  0.1539E-04  0.4491E-07  0.1579E-02  0.3579E-03  0.1267E+01
   -0.749993   30.44207  0.4503E-14  0.1553E-04  0.4427E-07  0.1631E-02  0.3369E-03  0.1289E+01
   -0.799995   30.44266  0.4503E-14  0.1564E-04  0.4375E-07  0.1675E-02  0.3177E-03  0.1321E+01
   -0.849996   30.44322  0.4503E-14  0.1573E-04  0.4334E-07  0.1709E-02  0.2998E-03  0.1376E+01
   -0.899998   30.44376  0.4503E-14  0.1580E-04  0.4303E-07  0.1736E-02  0.2832E-03  0.1450E+01
   -0.949999   30.44430  0.4503E-14  0.1584E-04  0.4282E-07  0.1755E-02  0.2676E-03  0.1552E+01
   -1.000001   30.44482  0.4503E-14  0.1587E-04  0.4271E-07  0.1766E-02  0.2528E-03  0.1674E+01
   -1.050003   30.44533  0.4503E-14  0.1587E-04  0.4270E-07  0.1767E-02  0.2388E-03  0.1903E+01
   -1.100005   30.44585  0.4503E-14  0.1585E-04  0.4280E-07  0.1852E-02  0.2255E-03  0.6321E+01
   -1.150006   30.44633  0.4503E-14  0.1581E-04  0.4303E-07  0.1687E-02  0.2136E-03  0.1421E+02
   -1.200008   30.44686  0.4503E-14  0.1575E-04  0.4339E-07  0.1711E-02  0.2012E-03  0.2748E+01
   -1.250009   30.44739  0.4503E-14  0.1566E-04  0.4392E-07  0.1681E-02  0.1894E-03  0.2929E+01
   -1.300011   30.44791  0.4503E-14  0.1555E-04  0.4465E-07  0.1632E-02  0.1780E-03  0.3432E+01
   -1.350012   30.44846  0.4503E-14  0.1540E-04  0.4563E-07  0.1574E-02  0.1670E-03  0.4101E+01
   -1.400013   30.44902  0.4503E-14  0.1522E-04  0.4696E-07  0.1498E-02  0.1562E-03  0.5068E+01
   -1.450014   30.44961  0.4503E-14  0.1500E-04  0.4874E-07  0.1421E-02  0.1457E-03  0.6444E+01
   -1.500014   30.45024  0.4503E-14  0.1472E-04  0.5120E-07  0.1310E-02  0.1353E-03  0.8743E+01
   -1.550015   30.45092  0.4503E-14  0.1439E-04  0.5466E-07  0.1225E-02  0.1249E-03  0.1244E+02
   -1.600015   30.45166  0.4503E-14  0.1397E-04  0.5993E-07  0.1081E-02  0.1148E-03  0.2384E+02
   -1.650014   30.45257  0.4503E-14  0.1343E-04  0.6801E-07  0.9977E-03  0.1038E-03  0.5546E+04
   -1.700014   30.45358  0.4503E-14  0.1270E-04  0.8225E-07  0.8175E-03  0.9319E-04 -0.2228E+03
   -1.750013   30.45533  0.4503E-14  0.1173E-04  0.1058E-06  0.7380E-03  0.7934E-04  0.1381E+05
   -1.800012   30.45685  0.4503E-14  0.1041E-04  0.1549E-06  0.5220E-03  0.6827E-04  0.4830E+05
   -1.850010   30.46261  0.4503E-14  0.8890E-05  0.2479E-06  0.4703E-03  0.4966E-04  0.3087E+08
   -1.900008   30.46188  0.4503E-14  0.7031E-05  0.5207E-06  0.2166E-03  0.4013E-04 -0.3497E+05
   -1.950005   30.48050  0.4503E-14  0.4902E-05  0.1301E-05  0.1831E-03  0.2186E-04 -0.2129E+06
   -2.000002   30.48310  0.4503E-14  0.0000E+00  0.0000E+00  0.0000E+00  0.3898E-04  0.0000E+00
