 1 - depth, m
 2 - temperature, C
 3 - salinity, kg/kg
 4 - turbulent kinetic energy, m**2/s**2
 5 - dissipation rate, m**2/s**3
 6 - kinematic heat conductance, m**2/s
 7 - modulus of horizontal velocity, m/s
 8 - Richardson number, n/d
   -0.000000   30.12528  0.5027E-14  0.4672E-05  0.2906E-06  0.5018E-04  0.7232E-03  0.3584E+05
   -0.049997   30.15511  0.5027E-14  0.8192E-05  0.1287E-06  0.1765E-03  0.4136E-03  0.4375E+02
   -0.099994   30.16688  0.5027E-14  0.9960E-05  0.8854E-07  0.4127E-03  0.2985E-03  0.9123E+02
   -0.149992   30.16994  0.5027E-14  0.1105E-04  0.7473E-07  0.4857E-03  0.2645E-03  0.4466E+02
   -0.199991   30.17245  0.5027E-14  0.1190E-04  0.6658E-07  0.6506E-03  0.2364E-03  0.2904E+02
   -0.249989   30.17427  0.5027E-14  0.1258E-04  0.6123E-07  0.7760E-03  0.2153E-03  0.2162E+02
   -0.299988   30.17576  0.5027E-14  0.1314E-04  0.5741E-07  0.9013E-03  0.1978E-03  0.1728E+02
   -0.349988   30.17701  0.5027E-14  0.1360E-04  0.5455E-07  0.1015E-02  0.1828E-03  0.1484E+02
   -0.399988   30.17810  0.5027E-14  0.1399E-04  0.5233E-07  0.1118E-02  0.1695E-03  0.1324E+02
   -0.449988   30.17906  0.5027E-14  0.1433E-04  0.5052E-07  0.1214E-02  0.1577E-03  0.1247E+02
   -0.499988   30.17993  0.5027E-14  0.1462E-04  0.4903E-07  0.1303E-02  0.1474E-03  0.1213E+02
   -0.549989   30.18073  0.5027E-14  0.1488E-04  0.4779E-07  0.1383E-02  0.1381E-03  0.1200E+02
   -0.599990   30.18147  0.5027E-14  0.1510E-04  0.4675E-07  0.1457E-02  0.1296E-03  0.1200E+02
   -0.649991   30.18217  0.5027E-14  0.1529E-04  0.4588E-07  0.1522E-02  0.1220E-03  0.1218E+02
   -0.699992   30.18282  0.5027E-14  0.1545E-04  0.4514E-07  0.1580E-02  0.1149E-03  0.1244E+02
   -0.749993   30.18344  0.5027E-14  0.1558E-04  0.4453E-07  0.1630E-02  0.1084E-03  0.1290E+02
   -0.799995   30.18404  0.5027E-14  0.1570E-04  0.4404E-07  0.1673E-02  0.1023E-03  0.1342E+02
   -0.849996   30.18461  0.5027E-14  0.1579E-04  0.4365E-07  0.1708E-02  0.9664E-04  0.1416E+02
   -0.899998   30.18517  0.5027E-14  0.1585E-04  0.4335E-07  0.1735E-02  0.9132E-04  0.1499E+02
   -0.950000   30.18571  0.5027E-14  0.1590E-04  0.4316E-07  0.1753E-02  0.8629E-04  0.1610E+02
   -1.000001   30.18625  0.5027E-14  0.1592E-04  0.4307E-07  0.1763E-02  0.8155E-04  0.1736E+02
   -1.050003   30.18678  0.5027E-14  0.1593E-04  0.4308E-07  0.1764E-02  0.7703E-04  0.1973E+02
   -1.100005   30.18730  0.5027E-14  0.1591E-04  0.4319E-07  0.1852E-02  0.7273E-04  0.6530E+02
   -1.150006   30.18780  0.5027E-14  0.1587E-04  0.4345E-07  0.1678E-02  0.6890E-04  0.1483E+03
   -1.200008   30.18834  0.5027E-14  0.1580E-04  0.4384E-07  0.1704E-02  0.6491E-04  0.2858E+02
   -1.250009   30.18888  0.5027E-14  0.1571E-04  0.4440E-07  0.1674E-02  0.6110E-04  0.3047E+02
   -1.300011   30.18942  0.5027E-14  0.1559E-04  0.4516E-07  0.1623E-02  0.5742E-04  0.3576E+02
   -1.350012   30.18998  0.5027E-14  0.1544E-04  0.4620E-07  0.1564E-02  0.5386E-04  0.4280E+02
   -1.400013   30.19056  0.5027E-14  0.1526E-04  0.4758E-07  0.1486E-02  0.5038E-04  0.5307E+02
   -1.450014   30.19117  0.5027E-14  0.1503E-04  0.4946E-07  0.1410E-02  0.4697E-04  0.6763E+02
   -1.500014   30.19181  0.5027E-14  0.1474E-04  0.5205E-07  0.1294E-02  0.4362E-04  0.9248E+02
   -1.550015   30.19252  0.5027E-14  0.1440E-04  0.5569E-07  0.1216E-02  0.4025E-04  0.1319E+03
   -1.600015   30.19328  0.5027E-14  0.1396E-04  0.6134E-07  0.1063E-02  0.3696E-04  0.2939E+03
   -1.650015   30.19424  0.5027E-14  0.1340E-04  0.6997E-07  0.9927E-03  0.3336E-04  0.1321E+04
   -1.700014   30.19528  0.5027E-14  0.1263E-04  0.8546E-07  0.7994E-03  0.2996E-04  0.1315E+05
   -1.750013   30.19724  0.5027E-14  0.1160E-04  0.1108E-06  0.7343E-03  0.2523E-04  0.1630E+06
   -1.800012   30.19866  0.5027E-14  0.1025E-04  0.1636E-06  0.5047E-03  0.2179E-04  0.4882E+05
   -1.850010   30.20534  0.5027E-14  0.8710E-05  0.2655E-06  0.4693E-03  0.1548E-04  0.5680E+09
   -1.900008   30.20392  0.5027E-14  0.6908E-05  0.5484E-06  0.2121E-03  0.1265E-04 -0.1939E+07
   -1.950006   30.22377  0.5027E-14  0.4827E-05  0.1385E-05  0.1875E-03  0.6781E-05 -0.4676E+07
   -2.000003   30.22655  0.5027E-14  0.0000E+00  0.0000E+00  0.0000E+00  0.1246E-04  0.0000E+00
