 1 - depth, m
 2 - temperature, C
 3 - salinity, kg/kg
 4 - turbulent kinetic energy, m**2/s**2
 5 - dissipation rate, m**2/s**3
 6 - kinematic heat conductance, m**2/s
 7 - modulus of horizontal velocity, m/s
 8 - Richardson number, n/d
   -0.000000   31.63634  0.9314E-14  0.5218E-05  0.3468E-06  0.5355E-04  0.7587E-03  0.5530E+03
   -0.049997   31.66881  0.9314E-14  0.9076E-05  0.1536E-06  0.1829E-03  0.4393E-03  0.1447E+03
   -0.099994   31.68190  0.9314E-14  0.1104E-04  0.1051E-06  0.4293E-03  0.3176E-03  0.8303E+02
   -0.149992   31.68526  0.9314E-14  0.1226E-04  0.8844E-07  0.5009E-03  0.2820E-03  0.4085E+02
   -0.199990   31.68803  0.9314E-14  0.1321E-04  0.7864E-07  0.6758E-03  0.2523E-03  0.2638E+02
   -0.249989   31.69002  0.9314E-14  0.1396E-04  0.7223E-07  0.8058E-03  0.2302E-03  0.1959E+02
   -0.299988   31.69164  0.9314E-14  0.1457E-04  0.6766E-07  0.9373E-03  0.2118E-03  0.1563E+02
   -0.349988   31.69300  0.9314E-14  0.1508E-04  0.6424E-07  0.1056E-02  0.1960E-03  0.1337E+02
   -0.399987   31.69418  0.9314E-14  0.1551E-04  0.6158E-07  0.1164E-02  0.1821E-03  0.1192E+02
   -0.449987   31.69523  0.9314E-14  0.1588E-04  0.5942E-07  0.1264E-02  0.1698E-03  0.1117E+02
   -0.499988   31.69617  0.9314E-14  0.1620E-04  0.5764E-07  0.1356E-02  0.1589E-03  0.1086E+02
   -0.549988   31.69704  0.9314E-14  0.1647E-04  0.5616E-07  0.1440E-02  0.1491E-03  0.1069E+02
   -0.599989   31.69784  0.9314E-14  0.1671E-04  0.5492E-07  0.1516E-02  0.1403E-03  0.1069E+02
   -0.649990   31.69859  0.9314E-14  0.1692E-04  0.5387E-07  0.1583E-02  0.1322E-03  0.1080E+02
   -0.699991   31.69930  0.9314E-14  0.1709E-04  0.5300E-07  0.1643E-02  0.1248E-03  0.1105E+02
   -0.749992   31.69997  0.9314E-14  0.1723E-04  0.5227E-07  0.1695E-02  0.1179E-03  0.1139E+02
   -0.799994   31.70061  0.9314E-14  0.1735E-04  0.5168E-07  0.1738E-02  0.1114E-03  0.1188E+02
   -0.849995   31.70123  0.9314E-14  0.1744E-04  0.5122E-07  0.1773E-02  0.1054E-03  0.1248E+02
   -0.899997   31.70184  0.9314E-14  0.1751E-04  0.5088E-07  0.1799E-02  0.9979E-04  0.1325E+02
   -0.949998   31.70242  0.9314E-14  0.1755E-04  0.5065E-07  0.1816E-02  0.9446E-04  0.1417E+02
   -1.000000   31.70300  0.9314E-14  0.1757E-04  0.5055E-07  0.1825E-02  0.8941E-04  0.1534E+02
   -1.050002   31.70357  0.9314E-14  0.1756E-04  0.5058E-07  0.1823E-02  0.8460E-04  0.1736E+02
   -1.100003   31.70414  0.9314E-14  0.1753E-04  0.5074E-07  0.1928E-02  0.8000E-04  0.5671E+02
   -1.150005   31.70468  0.9314E-14  0.1747E-04  0.5108E-07  0.1710E-02  0.7594E-04  0.1357E+03
   -1.200007   31.70528  0.9314E-14  0.1739E-04  0.5157E-07  0.1750E-02  0.7160E-04  0.2546E+02
   -1.250008   31.70586  0.9314E-14  0.1727E-04  0.5229E-07  0.1717E-02  0.6750E-04  0.2727E+02
   -1.300009   31.70646  0.9314E-14  0.1713E-04  0.5327E-07  0.1660E-02  0.6354E-04  0.3207E+02
   -1.350010   31.70707  0.9314E-14  0.1694E-04  0.5460E-07  0.1595E-02  0.5968E-04  0.3889E+02
   -1.400011   31.70771  0.9314E-14  0.1671E-04  0.5640E-07  0.1510E-02  0.5592E-04  0.4870E+02
   -1.450012   31.70839  0.9314E-14  0.1643E-04  0.5886E-07  0.1427E-02  0.5219E-04  0.6341E+02
   -1.500013   31.70911  0.9314E-14  0.1608E-04  0.6231E-07  0.1308E-02  0.4853E-04  0.8880E+02
   -1.550013   31.70991  0.9314E-14  0.1566E-04  0.6725E-07  0.1222E-02  0.4481E-04  0.1349E+03
   -1.600013   31.71078  0.9314E-14  0.1512E-04  0.7505E-07  0.1075E-02  0.4116E-04  0.5938E+03
   -1.650013   31.71192  0.9314E-14  0.1442E-04  0.8727E-07  0.9882E-03  0.3710E-04  0.1175E+04
   -1.700012   31.71323  0.9314E-14  0.1345E-04  0.1085E-06  0.8085E-03  0.3306E-04  0.6978E+05
   -1.750011   31.71556  0.9314E-14  0.1225E-04  0.1433E-06  0.7232E-03  0.2773E-04  0.3565E+06
   -1.800010   31.71732  0.9314E-14  0.1068E-04  0.2217E-06  0.4998E-03  0.2378E-04  0.7537E+06
   -1.850008   31.72605  0.9314E-14  0.9074E-05  0.3634E-06  0.4683E-03  0.1663E-04  0.9175E+08
   -1.900006   31.72302  0.9314E-14  0.7221E-05  0.7576E-06  0.2118E-03  0.1370E-04 -0.5370E+06
   -1.950003   31.74757  0.9314E-14  0.5166E-05  0.1810E-05  0.2154E-03  0.7323E-05 -0.1075E+07
   -2.000000   31.74698  0.9314E-14  0.0000E+00  0.0000E+00  0.0000E+00  0.1412E-04  0.0000E+00
