 1 - depth, m
 2 - temperature, C
 3 - salinity, kg/kg
 4 - turbulent kinetic energy, m**2/s**2
 5 - dissipation rate, m**2/s**3
 6 - kinematic heat conductance, m**2/s
 7 - modulus of horizontal velocity, m/s
 8 - Richardson number, n/d
   -0.000000   30.58813  0.1336E-13  0.4596E-05  0.2778E-06  0.4914E-04  0.1590E-02  0.4574E+04
   -0.049997   30.61614  0.1336E-13  0.7881E-05  0.1236E-06  0.1746E-03  0.9040E-03  0.4030E+04
   -0.099994   30.62690  0.1336E-13  0.9569E-05  0.8512E-07  0.3935E-03  0.6603E-03  0.1928E+02
   -0.149992   30.62987  0.1336E-13  0.1063E-04  0.7149E-07  0.4749E-03  0.5828E-03  0.9416E+01
   -0.199991   30.63223  0.1336E-13  0.1146E-04  0.6353E-07  0.6342E-03  0.5202E-03  0.6048E+01
   -0.249989   30.63395  0.1336E-13  0.1212E-04  0.5834E-07  0.7583E-03  0.4733E-03  0.4454E+01
   -0.299988   30.63535  0.1336E-13  0.1267E-04  0.5467E-07  0.8822E-03  0.4343E-03  0.3554E+01
   -0.349988   30.63653  0.1336E-13  0.1312E-04  0.5193E-07  0.9943E-03  0.4009E-03  0.3033E+01
   -0.399988   30.63756  0.1336E-13  0.1351E-04  0.4981E-07  0.1097E-02  0.3714E-03  0.2711E+01
   -0.449988   30.63847  0.1336E-13  0.1385E-04  0.4810E-07  0.1193E-02  0.3454E-03  0.2537E+01
   -0.499988   30.63930  0.1336E-13  0.1414E-04  0.4670E-07  0.1281E-02  0.3224E-03  0.2476E+01
   -0.549989   30.64005  0.1336E-13  0.1439E-04  0.4554E-07  0.1361E-02  0.3019E-03  0.2434E+01
   -0.599989   30.64075  0.1336E-13  0.1462E-04  0.4458E-07  0.1435E-02  0.2833E-03  0.2447E+01
   -0.649990   30.64141  0.1336E-13  0.1482E-04  0.4378E-07  0.1500E-02  0.2664E-03  0.2469E+01
   -0.699992   30.64202  0.1336E-13  0.1499E-04  0.4312E-07  0.1558E-02  0.2508E-03  0.2539E+01
   -0.749993   30.64261  0.1336E-13  0.1513E-04  0.4258E-07  0.1609E-02  0.2365E-03  0.2615E+01
   -0.799994   30.64318  0.1336E-13  0.1525E-04  0.4216E-07  0.1652E-02  0.2231E-03  0.2741E+01
   -0.849996   30.64373  0.1336E-13  0.1536E-04  0.4183E-07  0.1688E-02  0.2107E-03  0.2875E+01
   -0.899998   30.64426  0.1336E-13  0.1544E-04  0.4161E-07  0.1715E-02  0.1990E-03  0.3068E+01
   -0.949999   30.64478  0.1336E-13  0.1550E-04  0.4148E-07  0.1735E-02  0.1879E-03  0.3275E+01
   -1.000001   30.64529  0.1336E-13  0.1554E-04  0.4144E-07  0.1746E-02  0.1775E-03  0.3561E+01
   -1.050003   30.64580  0.1336E-13  0.1556E-04  0.4151E-07  0.1748E-02  0.1676E-03  0.4030E+01
   -1.100005   30.64630  0.1336E-13  0.1556E-04  0.4169E-07  0.1828E-02  0.1582E-03  0.1355E+02
   -1.150006   30.64678  0.1336E-13  0.1554E-04  0.4200E-07  0.1675E-02  0.1498E-03  0.3009E+02
   -1.200008   30.64731  0.1336E-13  0.1550E-04  0.4243E-07  0.1694E-02  0.1411E-03  0.5836E+01
   -1.250009   30.64783  0.1336E-13  0.1543E-04  0.4303E-07  0.1664E-02  0.1327E-03  0.6277E+01
   -1.300011   30.64836  0.1336E-13  0.1534E-04  0.4384E-07  0.1616E-02  0.1247E-03  0.7326E+01
   -1.350012   30.64890  0.1336E-13  0.1521E-04  0.4489E-07  0.1559E-02  0.1169E-03  0.8808E+01
   -1.400013   30.64947  0.1336E-13  0.1505E-04  0.4628E-07  0.1484E-02  0.1094E-03  0.1084E+02
   -1.450014   30.65007  0.1336E-13  0.1485E-04  0.4813E-07  0.1409E-02  0.1019E-03  0.1385E+02
   -1.500014   30.65070  0.1336E-13  0.1460E-04  0.5065E-07  0.1300E-02  0.9464E-04  0.1870E+02
   -1.550015   30.65140  0.1336E-13  0.1429E-04  0.5415E-07  0.1217E-02  0.8731E-04  0.2657E+02
   -1.600015   30.65216  0.1336E-13  0.1389E-04  0.5943E-07  0.1074E-02  0.8016E-04  0.5123E+02
   -1.650014   30.65308  0.1336E-13  0.1338E-04  0.6749E-07  0.9942E-03  0.7248E-04  0.1902E+03
   -1.700014   30.65412  0.1336E-13  0.1268E-04  0.8169E-07  0.8137E-03  0.6504E-04 -0.1152E+04
   -1.750013   30.65592  0.1336E-13  0.1173E-04  0.1051E-06  0.7362E-03  0.5530E-04  0.5273E+05
   -1.800012   30.65748  0.1336E-13  0.1044E-04  0.1544E-06  0.5196E-03  0.4756E-04  0.1365E+05
   -1.850010   30.66338  0.1336E-13  0.8949E-05  0.2464E-06  0.4729E-03  0.3456E-04  0.9036E+07
   -1.900008   30.66275  0.1336E-13  0.7145E-05  0.5116E-06  0.2168E-03  0.2799E-04 -0.4100E+07
   -1.950005   30.68203  0.1336E-13  0.4977E-05  0.1294E-05  0.1798E-03  0.1535E-04 -0.6007E+06
   -2.000002   30.68580  0.1336E-13  0.0000E+00  0.0000E+00  0.0000E+00  0.2701E-04  0.0000E+00
