 1 - depth, m
 2 - temperature, C
 3 - salinity, kg/kg
 4 - turbulent kinetic energy, m**2/s**2
 5 - dissipation rate, m**2/s**3
 6 - kinematic heat conductance, m**2/s
 7 - modulus of horizontal velocity, m/s
 8 - Richardson number, n/d
   -0.000000   31.73695  0.2236E-14  0.5461E-05  0.3676E-06  0.5370E-04  0.5865E-03  0.1018E+05
   -0.049997   31.77211  0.2236E-14  0.9539E-05  0.1630E-06  0.1915E-03  0.3364E-03  0.3904E+03
   -0.099994   31.78516  0.2236E-14  0.1156E-04  0.1122E-06  0.4375E-03  0.2458E-03  0.1391E+03
   -0.149992   31.78871  0.2236E-14  0.1282E-04  0.9448E-07  0.5115E-03  0.2185E-03  0.6908E+02
   -0.199990   31.79161  0.2236E-14  0.1380E-04  0.8405E-07  0.6892E-03  0.1957E-03  0.4484E+02
   -0.249989   31.79370  0.2236E-14  0.1458E-04  0.7721E-07  0.8210E-03  0.1788E-03  0.3336E+02
   -0.299988   31.79541  0.2236E-14  0.1522E-04  0.7233E-07  0.9544E-03  0.1646E-03  0.2667E+02
   -0.349987   31.79684  0.2236E-14  0.1574E-04  0.6867E-07  0.1074E-02  0.1525E-03  0.2281E+02
   -0.399987   31.79808  0.2236E-14  0.1618E-04  0.6582E-07  0.1184E-02  0.1418E-03  0.2037E+02
   -0.449987   31.79919  0.2236E-14  0.1656E-04  0.6351E-07  0.1285E-02  0.1323E-03  0.1907E+02
   -0.499987   31.80018  0.2236E-14  0.1689E-04  0.6160E-07  0.1377E-02  0.1239E-03  0.1856E+02
   -0.549988   31.80109  0.2236E-14  0.1717E-04  0.6000E-07  0.1462E-02  0.1164E-03  0.1826E+02
   -0.599989   31.80194  0.2236E-14  0.1741E-04  0.5866E-07  0.1538E-02  0.1096E-03  0.1829E+02
   -0.649990   31.80272  0.2236E-14  0.1761E-04  0.5753E-07  0.1605E-02  0.1034E-03  0.1846E+02
   -0.699991   31.80347  0.2236E-14  0.1778E-04  0.5659E-07  0.1665E-02  0.9760E-04  0.1891E+02
   -0.749992   31.80418  0.2236E-14  0.1792E-04  0.5580E-07  0.1716E-02  0.9228E-04  0.1949E+02
   -0.799994   31.80485  0.2236E-14  0.1803E-04  0.5516E-07  0.1758E-02  0.8731E-04  0.2036E+02
   -0.849995   31.80551  0.2236E-14  0.1812E-04  0.5465E-07  0.1791E-02  0.8266E-04  0.2137E+02
   -0.899997   31.80614  0.2236E-14  0.1818E-04  0.5428E-07  0.1816E-02  0.7828E-04  0.2275E+02
   -0.949998   31.80676  0.2236E-14  0.1821E-04  0.5403E-07  0.1832E-02  0.7414E-04  0.2434E+02
   -1.000000   31.80737  0.2236E-14  0.1821E-04  0.5391E-07  0.1839E-02  0.7022E-04  0.2642E+02
   -1.050002   31.80798  0.2236E-14  0.1819E-04  0.5394E-07  0.1833E-02  0.6648E-04  0.2991E+02
   -1.100003   31.80858  0.2236E-14  0.1815E-04  0.5412E-07  0.1952E-02  0.6290E-04  0.9626E+02
   -1.150005   31.80913  0.2236E-14  0.1807E-04  0.5449E-07  0.1698E-02  0.5976E-04  0.2438E+03
   -1.200006   31.80978  0.2236E-14  0.1797E-04  0.5503E-07  0.1748E-02  0.5634E-04  0.4465E+02
   -1.250008   31.81039  0.2236E-14  0.1783E-04  0.5583E-07  0.1714E-02  0.5313E-04  0.4786E+02
   -1.300009   31.81102  0.2236E-14  0.1765E-04  0.5694E-07  0.1653E-02  0.5004E-04  0.5674E+02
   -1.350010   31.81167  0.2236E-14  0.1744E-04  0.5845E-07  0.1585E-02  0.4701E-04  0.6946E+02
   -1.400011   31.81235  0.2236E-14  0.1717E-04  0.6052E-07  0.1493E-02  0.4406E-04  0.8829E+02
   -1.450012   31.81307  0.2236E-14  0.1685E-04  0.6339E-07  0.1411E-02  0.4112E-04  0.1171E+03
   -1.500012   31.81384  0.2236E-14  0.1645E-04  0.6745E-07  0.1286E-02  0.3822E-04  0.1696E+03
   -1.550013   31.81471  0.2236E-14  0.1597E-04  0.7341E-07  0.1208E-02  0.3527E-04  0.2881E+03
   -1.600013   31.81567  0.2236E-14  0.1535E-04  0.8309E-07  0.1051E-02  0.3235E-04 -0.1131E+04
   -1.650012   31.81699  0.2236E-14  0.1453E-04  0.9814E-07  0.9722E-03  0.2900E-04  0.2721E+06
   -1.700012   31.81845  0.2236E-14  0.1341E-04  0.1252E-06  0.7798E-03  0.2572E-04  0.6294E+05
   -1.750011   31.82128  0.2236E-14  0.1210E-04  0.1680E-06  0.7136E-03  0.2118E-04  0.9972E+06
   -1.800010   31.82275  0.2236E-14  0.1049E-04  0.2625E-06  0.4769E-03  0.1834E-04  0.1627E+06
   -1.850008   31.83357  0.2236E-14  0.8868E-05  0.4419E-06  0.4680E-03  0.1237E-04  0.4679E+09
   -1.900006   31.82859  0.2236E-14  0.7085E-05  0.9217E-06  0.2201E-03  0.1037E-04 -0.2532E+07
   -1.950003   31.85562  0.2236E-14  0.5115E-05  0.2175E-05  0.2317E-03  0.5420E-05 -0.6943E+06
   -2.000000   31.85562  0.2236E-14  0.0000E+00  0.0000E+00  0.0000E+00  0.1125E-04  0.0000E+00
