 1 - depth, m
 2 - temperature, C
 3 - salinity, kg/kg
 4 - turbulent kinetic energy, m**2/s**2
 5 - dissipation rate, m**2/s**3
 6 - kinematic heat conductance, m**2/s
 7 - modulus of horizontal velocity, m/s
 8 - Richardson number, n/d
   -0.000000   30.52596  0.2710E-13  0.4767E-05  0.2958E-06  0.4979E-04  0.1034E-02  0.1047E+05
   -0.049997   30.55668  0.2710E-13  0.8269E-05  0.1316E-06  0.1789E-03  0.5876E-03  0.1331E+05
   -0.099994   30.56832  0.2710E-13  0.1003E-04  0.9083E-07  0.4037E-03  0.4310E-03  0.5083E+02
   -0.149992   30.57152  0.2710E-13  0.1112E-04  0.7644E-07  0.4828E-03  0.3812E-03  0.2481E+02
   -0.199991   30.57408  0.2710E-13  0.1198E-04  0.6797E-07  0.6446E-03  0.3407E-03  0.1605E+02
   -0.249989   30.57594  0.2710E-13  0.1265E-04  0.6241E-07  0.7694E-03  0.3103E-03  0.1187E+02
   -0.299988   30.57746  0.2710E-13  0.1320E-04  0.5844E-07  0.8939E-03  0.2850E-03  0.9474E+01
   -0.349988   30.57873  0.2710E-13  0.1366E-04  0.5545E-07  0.1006E-02  0.2633E-03  0.8091E+01
   -0.399988   30.57983  0.2710E-13  0.1404E-04  0.5312E-07  0.1109E-02  0.2441E-03  0.7230E+01
   -0.449988   30.58081  0.2710E-13  0.1437E-04  0.5123E-07  0.1205E-02  0.2273E-03  0.6771E+01
   -0.499988   30.58169  0.2710E-13  0.1466E-04  0.4966E-07  0.1292E-02  0.2123E-03  0.6607E+01
   -0.549989   30.58250  0.2710E-13  0.1490E-04  0.4835E-07  0.1372E-02  0.1989E-03  0.6499E+01
   -0.599990   30.58325  0.2710E-13  0.1511E-04  0.4724E-07  0.1444E-02  0.1868E-03  0.6525E+01
   -0.649991   30.58395  0.2710E-13  0.1529E-04  0.4630E-07  0.1509E-02  0.1757E-03  0.6584E+01
   -0.699992   30.58460  0.2710E-13  0.1544E-04  0.4551E-07  0.1566E-02  0.1655E-03  0.6758E+01
   -0.749993   30.58523  0.2710E-13  0.1557E-04  0.4485E-07  0.1616E-02  0.1561E-03  0.6956E+01
   -0.799995   30.58583  0.2710E-13  0.1567E-04  0.4430E-07  0.1658E-02  0.1474E-03  0.7276E+01
   -0.849996   30.58640  0.2710E-13  0.1575E-04  0.4385E-07  0.1691E-02  0.1392E-03  0.7625E+01
   -0.899998   30.58696  0.2710E-13  0.1580E-04  0.4351E-07  0.1717E-02  0.1315E-03  0.8120E+01
   -0.950000   30.58750  0.2710E-13  0.1584E-04  0.4327E-07  0.1735E-02  0.1243E-03  0.8665E+01
   -1.000001   30.58804  0.2710E-13  0.1585E-04  0.4312E-07  0.1744E-02  0.1174E-03  0.9399E+01
   -1.050003   30.58856  0.2710E-13  0.1584E-04  0.4308E-07  0.1744E-02  0.1110E-03  0.1062E+02
   -1.100005   30.58908  0.2710E-13  0.1581E-04  0.4316E-07  0.1836E-02  0.1047E-03  0.3506E+02
   -1.150006   30.58957  0.2710E-13  0.1575E-04  0.4337E-07  0.1650E-02  0.9924E-04  0.8169E+02
   -1.200008   30.59011  0.2710E-13  0.1567E-04  0.4371E-07  0.1680E-02  0.9345E-04  0.1549E+02
   -1.250009   30.59064  0.2710E-13  0.1556E-04  0.4423E-07  0.1649E-02  0.8794E-04  0.1656E+02
   -1.300011   30.59118  0.2710E-13  0.1543E-04  0.4496E-07  0.1598E-02  0.8265E-04  0.1940E+02
   -1.350012   30.59173  0.2710E-13  0.1526E-04  0.4596E-07  0.1537E-02  0.7750E-04  0.2339E+02
   -1.400013   30.59230  0.2710E-13  0.1506E-04  0.4733E-07  0.1458E-02  0.7249E-04  0.2902E+02
   -1.450014   30.59290  0.2710E-13  0.1481E-04  0.4920E-07  0.1379E-02  0.6754E-04  0.3735E+02
   -1.500014   30.59353  0.2710E-13  0.1450E-04  0.5181E-07  0.1264E-02  0.6270E-04  0.5127E+02
   -1.550015   30.59423  0.2710E-13  0.1413E-04  0.5553E-07  0.1182E-02  0.5781E-04  0.7411E+02
   -1.600015   30.59499  0.2710E-13  0.1367E-04  0.6130E-07  0.1037E-02  0.5303E-04  0.1443E+03
   -1.650015   30.59592  0.2710E-13  0.1308E-04  0.7033E-07  0.9614E-03  0.4784E-04  0.3532E+03
   -1.700014   30.59698  0.2710E-13  0.1226E-04  0.8675E-07  0.7779E-03  0.4279E-04  0.2745E+05
   -1.750013   30.59895  0.2710E-13  0.1116E-04  0.1138E-06  0.7030E-03  0.3584E-04  0.6723E+06
   -1.800012   30.60054  0.2710E-13  0.9728E-05  0.1717E-06  0.4849E-03  0.3059E-04  0.4958E+06
   -1.850010   30.60731  0.2710E-13  0.8170E-05  0.2793E-06  0.4467E-03  0.2134E-04  0.9045E+09
   -1.900008   30.60556  0.2710E-13  0.6442E-05  0.5868E-06  0.2058E-03  0.1735E-04 -0.1149E+07
   -1.950006   30.62582  0.2710E-13  0.4553E-05  0.1449E-05  0.1968E-03  0.9084E-05 -0.4468E+06
   -2.000003   30.62709  0.2710E-13  0.0000E+00  0.0000E+00  0.0000E+00  0.1784E-04  0.0000E+00
