 1 - depth, m
 2 - temperature, C
 3 - salinity, kg/kg
 4 - turbulent kinetic energy, m**2/s**2
 5 - dissipation rate, m**2/s**3
 6 - kinematic heat conductance, m**2/s
 7 - modulus of horizontal velocity, m/s
 8 - Richardson number, n/d
   -0.000000   30.02733  0.1302E-13  0.4745E-05  0.2963E-06  0.5049E-04  0.8746E-03  0.7010E+04
   -0.049997   30.05799  0.1302E-13  0.8263E-05  0.1315E-06  0.1760E-03  0.5010E-03  0.3853E+02
   -0.099994   30.07011  0.1302E-13  0.1004E-04  0.9037E-07  0.4093E-03  0.3626E-03  0.7259E+02
   -0.149992   30.07331  0.1302E-13  0.1113E-04  0.7615E-07  0.4831E-03  0.3210E-03  0.3545E+02
   -0.199991   30.07591  0.1302E-13  0.1198E-04  0.6774E-07  0.6467E-03  0.2866E-03  0.2300E+02
   -0.249989   30.07779  0.1302E-13  0.1265E-04  0.6220E-07  0.7717E-03  0.2610E-03  0.1710E+02
   -0.299989   30.07932  0.1302E-13  0.1320E-04  0.5824E-07  0.8963E-03  0.2396E-03  0.1364E+02
   -0.349988   30.08061  0.1302E-13  0.1366E-04  0.5525E-07  0.1009E-02  0.2213E-03  0.1171E+02
   -0.399988   30.08172  0.1302E-13  0.1404E-04  0.5292E-07  0.1112E-02  0.2051E-03  0.1043E+02
   -0.449988   30.08271  0.1302E-13  0.1437E-04  0.5102E-07  0.1208E-02  0.1908E-03  0.9820E+01
   -0.499988   30.08360  0.1302E-13  0.1465E-04  0.4944E-07  0.1296E-02  0.1782E-03  0.9535E+01
   -0.549989   30.08442  0.1302E-13  0.1489E-04  0.4811E-07  0.1376E-02  0.1669E-03  0.9438E+01
   -0.599990   30.08517  0.1302E-13  0.1510E-04  0.4698E-07  0.1449E-02  0.1566E-03  0.9415E+01
   -0.649991   30.08588  0.1302E-13  0.1528E-04  0.4603E-07  0.1515E-02  0.1473E-03  0.9561E+01
   -0.699992   30.08654  0.1302E-13  0.1543E-04  0.4521E-07  0.1573E-02  0.1387E-03  0.9743E+01
   -0.749993   30.08717  0.1302E-13  0.1555E-04  0.4452E-07  0.1623E-02  0.1308E-03  0.1009E+02
   -0.799995   30.08777  0.1302E-13  0.1565E-04  0.4394E-07  0.1666E-02  0.1234E-03  0.1047E+02
   -0.849996   30.08834  0.1302E-13  0.1572E-04  0.4347E-07  0.1701E-02  0.1165E-03  0.1104E+02
   -0.899998   30.08890  0.1302E-13  0.1578E-04  0.4309E-07  0.1728E-02  0.1101E-03  0.1166E+02
   -0.950000   30.08944  0.1302E-13  0.1581E-04  0.4281E-07  0.1747E-02  0.1040E-03  0.1251E+02
   -1.000001   30.08998  0.1302E-13  0.1582E-04  0.4262E-07  0.1759E-02  0.9825E-04  0.1344E+02
   -1.050003   30.09050  0.1302E-13  0.1581E-04  0.4254E-07  0.1760E-02  0.9278E-04  0.1525E+02
   -1.100005   30.09101  0.1302E-13  0.1578E-04  0.4256E-07  0.1846E-02  0.8758E-04  0.5032E+02
   -1.150006   30.09150  0.1302E-13  0.1572E-04  0.4272E-07  0.1678E-02  0.8293E-04  0.1142E+03
   -1.200008   30.09203  0.1302E-13  0.1564E-04  0.4299E-07  0.1704E-02  0.7812E-04  0.2196E+02
   -1.250009   30.09255  0.1302E-13  0.1554E-04  0.4343E-07  0.1674E-02  0.7353E-04  0.2328E+02
   -1.300011   30.09308  0.1302E-13  0.1541E-04  0.4406E-07  0.1626E-02  0.6909E-04  0.2728E+02
   -1.350012   30.09361  0.1302E-13  0.1525E-04  0.4494E-07  0.1568E-02  0.6481E-04  0.3249E+02
   -1.400013   30.09416  0.1302E-13  0.1505E-04  0.4616E-07  0.1492E-02  0.6062E-04  0.4019E+02
   -1.450014   30.09474  0.1302E-13  0.1482E-04  0.4782E-07  0.1415E-02  0.5653E-04  0.5098E+02
   -1.500015   30.09535  0.1302E-13  0.1453E-04  0.5014E-07  0.1306E-02  0.5250E-04  0.6925E+02
   -1.550015   30.09601  0.1302E-13  0.1418E-04  0.5343E-07  0.1219E-02  0.4848E-04  0.9831E+02
   -1.600015   30.09673  0.1302E-13  0.1375E-04  0.5849E-07  0.1079E-02  0.4453E-04  0.1859E+03
   -1.650015   30.09759  0.1302E-13  0.1320E-04  0.6634E-07  0.9956E-03  0.4032E-04  0.8047E+04
   -1.700014   30.09856  0.1302E-13  0.1245E-04  0.8035E-07  0.8185E-03  0.3620E-04 -0.1749E+04
   -1.750013   30.10023  0.1302E-13  0.1146E-04  0.1036E-06  0.7358E-03  0.3082E-04  0.1462E+06
   -1.800012   30.10169  0.1302E-13  0.1010E-04  0.1545E-06  0.5148E-03  0.2648E-04  0.3913E+06
   -1.850010   30.10734  0.1302E-13  0.8596E-05  0.2465E-06  0.4701E-03  0.1918E-04  0.1615E+08
   -1.900008   30.10632  0.1302E-13  0.6806E-05  0.5105E-06  0.2146E-03  0.1563E-04 -0.1974E+07
   -1.950006   30.12404  0.1302E-13  0.4730E-05  0.1283E-05  0.1851E-03  0.8499E-05 -0.3905E+07
   -2.000003   30.12595  0.1302E-13  0.0000E+00  0.0000E+00  0.0000E+00  0.1528E-04  0.0000E+00
