 1 - depth, m
 2 - temperature, C
 3 - salinity, kg/kg
 4 - turbulent kinetic energy, m**2/s**2
 5 - dissipation rate, m**2/s**3
 6 - kinematic heat conductance, m**2/s
 7 - modulus of horizontal velocity, m/s
 8 - Richardson number, n/d
   -0.000000   30.56645  0.5267E-14  0.4576E-05  0.2791E-06  0.4886E-04  0.5885E-03  0.1057E+06
   -0.049997   30.59554  0.5267E-14  0.8089E-05  0.1235E-06  0.1795E-03  0.3319E-03  0.6218E+02
   -0.099994   30.60638  0.5267E-14  0.9813E-05  0.8543E-07  0.4136E-03  0.2409E-03  0.1250E+03
   -0.149992   30.60929  0.5267E-14  0.1089E-04  0.7224E-07  0.4885E-03  0.2135E-03  0.6136E+02
   -0.199991   30.61165  0.5267E-14  0.1173E-04  0.6446E-07  0.6526E-03  0.1908E-03  0.4009E+02
   -0.249989   30.61337  0.5267E-14  0.1240E-04  0.5935E-07  0.7784E-03  0.1739E-03  0.2990E+02
   -0.299988   30.61478  0.5267E-14  0.1295E-04  0.5572E-07  0.9035E-03  0.1597E-03  0.2397E+02
   -0.349988   30.61597  0.5267E-14  0.1342E-04  0.5300E-07  0.1017E-02  0.1476E-03  0.2062E+02
   -0.399988   30.61700  0.5267E-14  0.1381E-04  0.5089E-07  0.1121E-02  0.1369E-03  0.1843E+02
   -0.449988   30.61792  0.5267E-14  0.1415E-04  0.4919E-07  0.1217E-02  0.1274E-03  0.1735E+02
   -0.499988   30.61876  0.5267E-14  0.1445E-04  0.4779E-07  0.1306E-02  0.1190E-03  0.1689E+02
   -0.549989   30.61952  0.5267E-14  0.1471E-04  0.4663E-07  0.1387E-02  0.1115E-03  0.1671E+02
   -0.599989   30.62023  0.5267E-14  0.1494E-04  0.4567E-07  0.1461E-02  0.1048E-03  0.1674E+02
   -0.649990   30.62089  0.5267E-14  0.1514E-04  0.4487E-07  0.1527E-02  0.9856E-04  0.1700E+02
   -0.699992   30.62151  0.5267E-14  0.1531E-04  0.4421E-07  0.1585E-02  0.9287E-04  0.1741E+02
   -0.749993   30.62211  0.5267E-14  0.1546E-04  0.4368E-07  0.1637E-02  0.8760E-04  0.1805E+02
   -0.799994   30.62268  0.5267E-14  0.1558E-04  0.4325E-07  0.1680E-02  0.8270E-04  0.1884E+02
   -0.849996   30.62323  0.5267E-14  0.1569E-04  0.4293E-07  0.1715E-02  0.7812E-04  0.1989E+02
   -0.899998   30.62377  0.5267E-14  0.1577E-04  0.4271E-07  0.1743E-02  0.7383E-04  0.2113E+02
   -0.949999   30.62430  0.5267E-14  0.1583E-04  0.4258E-07  0.1762E-02  0.6978E-04  0.2271E+02
   -1.000001   30.62482  0.5267E-14  0.1588E-04  0.4256E-07  0.1774E-02  0.6594E-04  0.2458E+02
   -1.050003   30.62533  0.5267E-14  0.1590E-04  0.4263E-07  0.1776E-02  0.6230E-04  0.2800E+02
   -1.100005   30.62584  0.5267E-14  0.1590E-04  0.4282E-07  0.1858E-02  0.5883E-04  0.9357E+02
   -1.150006   30.62633  0.5267E-14  0.1588E-04  0.4314E-07  0.1700E-02  0.5573E-04  0.2084E+03
   -1.200008   30.62686  0.5267E-14  0.1583E-04  0.4359E-07  0.1721E-02  0.5252E-04  0.4064E+02
   -1.250009   30.62739  0.5267E-14  0.1576E-04  0.4420E-07  0.1691E-02  0.4945E-04  0.4357E+02
   -1.300011   30.62792  0.5267E-14  0.1567E-04  0.4503E-07  0.1642E-02  0.4649E-04  0.5116E+02
   -1.350012   30.62848  0.5267E-14  0.1554E-04  0.4611E-07  0.1584E-02  0.4361E-04  0.6130E+02
   -1.400013   30.62905  0.5267E-14  0.1538E-04  0.4753E-07  0.1510E-02  0.4081E-04  0.7585E+02
   -1.450014   30.62966  0.5267E-14  0.1518E-04  0.4943E-07  0.1432E-02  0.3807E-04  0.9665E+02
   -1.500014   30.63030  0.5267E-14  0.1492E-04  0.5200E-07  0.1324E-02  0.3537E-04  0.1311E+03
   -1.550014   30.63100  0.5267E-14  0.1461E-04  0.5558E-07  0.1237E-02  0.3267E-04  0.1872E+03
   -1.600015   30.63177  0.5267E-14  0.1421E-04  0.6096E-07  0.1096E-02  0.3000E-04  0.3588E+03
   -1.650014   30.63270  0.5267E-14  0.1369E-04  0.6919E-07  0.1011E-02  0.2718E-04  0.5759E+04
   -1.700014   30.63376  0.5267E-14  0.1298E-04  0.8351E-07  0.8300E-03  0.2439E-04 -0.3644E+05
   -1.750013   30.63553  0.5267E-14  0.1204E-04  0.1069E-06  0.7489E-03  0.2085E-04  0.4336E+07
   -1.800012   30.63715  0.5267E-14  0.1076E-04  0.1556E-06  0.5336E-03  0.1794E-04  0.1772E+07
   -1.850010   30.64291  0.5267E-14  0.9283E-05  0.2470E-06  0.4838E-03  0.1322E-04  0.1233E+09
   -1.900008   30.64233  0.5267E-14  0.7427E-05  0.5137E-06  0.2207E-03  0.1073E-04  0.1817E+08
   -1.950005   30.66161  0.5267E-14  0.5158E-05  0.1295E-05  0.1802E-03  0.5938E-05 -0.3928E+07
   -2.000002   30.66499  0.5267E-14  0.0000E+00  0.0000E+00  0.0000E+00  0.1024E-04  0.0000E+00
