 1 - depth, m
 2 - temperature, C
 3 - salinity, kg/kg
 4 - turbulent kinetic energy, m**2/s**2
 5 - dissipation rate, m**2/s**3
 6 - kinematic heat conductance, m**2/s
 7 - modulus of horizontal velocity, m/s
 8 - Richardson number, n/d
   -0.000000   30.58289  0.4495E-14  0.5413E-05  0.3103E-06  0.5190E-04  0.3400E-02  0.1559E+04
   -0.049997   30.61341  0.4495E-14  0.8769E-05  0.1342E-06  0.2059E-03  0.1823E-02  0.5091E+04
   -0.099994   30.62255  0.4495E-14  0.1033E-04  0.9529E-07  0.3896E-03  0.1433E-02  0.4566E+01
   -0.149992   30.62584  0.4495E-14  0.1136E-04  0.8033E-07  0.4879E-03  0.1278E-02  0.2376E+01
   -0.199991   30.62837  0.4495E-14  0.1218E-04  0.7160E-07  0.6261E-03  0.1156E-02  0.1596E+01
   -0.249989   30.63028  0.4495E-14  0.1285E-04  0.6588E-07  0.7361E-03  0.1061E-02  0.1296E+01
   -0.299988   30.63187  0.4495E-14  0.1344E-04  0.6165E-07  0.8491E-03  0.9790E-03  0.1260E+01
   -0.349988   30.63321  0.4495E-14  0.1398E-04  0.5826E-07  0.9758E-03  0.9013E-03  0.1325E+01
   -0.399988   30.63436  0.4495E-14  0.1447E-04  0.5545E-07  0.1111E-02  0.8258E-03  0.1350E+01
   -0.449988   30.63534  0.4495E-14  0.1493E-04  0.5311E-07  0.1243E-02  0.7558E-03  0.1358E+01
   -0.499988   30.63621  0.4495E-14  0.1533E-04  0.5117E-07  0.1366E-02  0.6928E-03  0.1362E+01
   -0.549989   30.63698  0.4495E-14  0.1568E-04  0.4958E-07  0.1479E-02  0.6363E-03  0.1355E+01
   -0.599989   30.63768  0.4495E-14  0.1597E-04  0.4828E-07  0.1581E-02  0.5856E-03  0.1345E+01
   -0.649990   30.63833  0.4495E-14  0.1622E-04  0.4723E-07  0.1669E-02  0.5402E-03  0.1330E+01
   -0.699992   30.63893  0.4495E-14  0.1643E-04  0.4639E-07  0.1744E-02  0.4995E-03  0.1312E+01
   -0.749993   30.63950  0.4495E-14  0.1659E-04  0.4574E-07  0.1805E-02  0.4629E-03  0.1290E+01
   -0.799994   30.64005  0.4495E-14  0.1671E-04  0.4526E-07  0.1851E-02  0.4300E-03  0.1266E+01
   -0.849996   30.64058  0.4495E-14  0.1679E-04  0.4492E-07  0.1884E-02  0.4005E-03  0.1239E+01
   -0.899998   30.64109  0.4495E-14  0.1685E-04  0.4472E-07  0.1903E-02  0.3740E-03  0.1212E+01
   -0.949999   30.64159  0.4495E-14  0.1687E-04  0.4465E-07  0.1910E-02  0.3502E-03  0.1184E+01
   -1.000001   30.64209  0.4495E-14  0.1687E-04  0.4470E-07  0.1907E-02  0.3288E-03  0.1165E+01
   -1.050003   30.64259  0.4495E-14  0.1685E-04  0.4486E-07  0.1890E-02  0.3096E-03  0.1187E+01
   -1.100004   30.64308  0.4495E-14  0.1680E-04  0.4512E-07  0.2036E-02  0.2921E-03  0.3420E+01
   -1.150006   30.64354  0.4495E-14  0.1673E-04  0.4554E-07  0.1722E-02  0.2779E-03  0.8726E+01
   -1.200008   30.64409  0.4495E-14  0.1664E-04  0.4608E-07  0.1794E-02  0.2621E-03  0.1597E+01
   -1.250009   30.64460  0.4495E-14  0.1652E-04  0.4684E-07  0.1757E-02  0.2473E-03  0.1705E+01
   -1.300010   30.64513  0.4495E-14  0.1636E-04  0.4784E-07  0.1695E-02  0.2330E-03  0.2017E+01
   -1.350012   30.64568  0.4495E-14  0.1618E-04  0.4916E-07  0.1623E-02  0.2191E-03  0.2455E+01
   -1.400013   30.64625  0.4495E-14  0.1595E-04  0.5093E-07  0.1532E-02  0.2054E-03  0.3091E+01
   -1.450013   30.64685  0.4495E-14  0.1567E-04  0.5332E-07  0.1443E-02  0.1919E-03  0.4055E+01
   -1.500014   30.64751  0.4495E-14  0.1533E-04  0.5663E-07  0.1323E-02  0.1785E-03  0.5703E+01
   -1.550014   30.64823  0.4495E-14  0.1492E-04  0.6142E-07  0.1230E-02  0.1650E-03  0.9102E+01
   -1.600014   30.64903  0.4495E-14  0.1440E-04  0.6892E-07  0.1085E-02  0.1514E-03  0.3062E+02
   -1.650014   30.65007  0.4495E-14  0.1371E-04  0.8073E-07  0.9891E-03  0.1365E-03  0.8686E+03
   -1.700014   30.65133  0.4495E-14  0.1277E-04  0.1006E-06  0.8104E-03  0.1211E-03  0.1055E+06
   -1.750013   30.65341  0.4495E-14  0.1163E-04  0.1327E-06  0.7259E-03  0.1017E-03  0.5685E+05
   -1.800011   30.65495  0.4495E-14  0.1014E-04  0.2107E-06  0.4939E-03  0.8739E-04  0.7912E+04
   -1.850010   30.66317  0.4495E-14  0.8610E-05  0.3457E-06  0.4695E-03  0.6068E-04  0.4639E+08
   -1.900008   30.66013  0.4495E-14  0.6862E-05  0.7283E-06  0.2175E-03  0.5022E-04  0.1976E+06
   -1.950005   30.68258  0.4495E-14  0.4876E-05  0.1742E-05  0.2115E-03  0.2671E-04 -0.2502E+05
   -2.000002   30.68374  0.4495E-14  0.0000E+00  0.0000E+00  0.0000E+00  0.5255E-04  0.0000E+00
