 1 - depth, m
 2 - temperature, C
 3 - salinity, kg/kg
 4 - turbulent kinetic energy, m**2/s**2
 5 - dissipation rate, m**2/s**3
 6 - kinematic heat conductance, m**2/s
 7 - modulus of horizontal velocity, m/s
 8 - Richardson number, n/d
   -0.000000   30.43424  0.5042E-14  0.4753E-05  0.2951E-06  0.5032E-04  0.1176E-02  0.4800E+04
   -0.049997   30.46439  0.5042E-14  0.8212E-05  0.1314E-06  0.1760E-03  0.6701E-03  0.5006E+03
   -0.099994   30.47620  0.5042E-14  0.9970E-05  0.9042E-07  0.4022E-03  0.4890E-03  0.3845E+02
   -0.149992   30.47939  0.5042E-14  0.1106E-04  0.7601E-07  0.4801E-03  0.4320E-03  0.1877E+02
   -0.199991   30.48195  0.5042E-14  0.1191E-04  0.6753E-07  0.6422E-03  0.3857E-03  0.1209E+02
   -0.249989   30.48381  0.5042E-14  0.1259E-04  0.6195E-07  0.7673E-03  0.3510E-03  0.8963E+01
   -0.299989   30.48532  0.5042E-14  0.1314E-04  0.5797E-07  0.8920E-03  0.3222E-03  0.7124E+01
   -0.349988   30.48659  0.5042E-14  0.1359E-04  0.5498E-07  0.1005E-02  0.2974E-03  0.6109E+01
   -0.399988   30.48768  0.5042E-14  0.1397E-04  0.5264E-07  0.1109E-02  0.2756E-03  0.5428E+01
   -0.449988   30.48865  0.5042E-14  0.1430E-04  0.5073E-07  0.1205E-02  0.2564E-03  0.5111E+01
   -0.499988   30.48953  0.5042E-14  0.1459E-04  0.4915E-07  0.1293E-02  0.2394E-03  0.4953E+01
   -0.549989   30.49033  0.5042E-14  0.1483E-04  0.4782E-07  0.1374E-02  0.2241E-03  0.4901E+01
   -0.599990   30.49107  0.5042E-14  0.1504E-04  0.4670E-07  0.1447E-02  0.2104E-03  0.4878E+01
   -0.649991   30.49176  0.5042E-14  0.1522E-04  0.4574E-07  0.1513E-02  0.1978E-03  0.4953E+01
   -0.699992   30.49241  0.5042E-14  0.1537E-04  0.4493E-07  0.1572E-02  0.1863E-03  0.5034E+01
   -0.749993   30.49303  0.5042E-14  0.1550E-04  0.4424E-07  0.1623E-02  0.1756E-03  0.5214E+01
   -0.799995   30.49362  0.5042E-14  0.1560E-04  0.4366E-07  0.1667E-02  0.1657E-03  0.5394E+01
   -0.849996   30.49418  0.5042E-14  0.1568E-04  0.4318E-07  0.1703E-02  0.1565E-03  0.5685E+01
   -0.899998   30.49473  0.5042E-14  0.1573E-04  0.4280E-07  0.1731E-02  0.1478E-03  0.5980E+01
   -0.950000   30.49526  0.5042E-14  0.1577E-04  0.4252E-07  0.1751E-02  0.1396E-03  0.6412E+01
   -1.000001   30.49578  0.5042E-14  0.1578E-04  0.4233E-07  0.1763E-02  0.1319E-03  0.6862E+01
   -1.050003   30.49629  0.5042E-14  0.1578E-04  0.4224E-07  0.1766E-02  0.1246E-03  0.7780E+01
   -1.100005   30.49680  0.5042E-14  0.1575E-04  0.4226E-07  0.1847E-02  0.1176E-03  0.2578E+02
   -1.150006   30.49727  0.5042E-14  0.1570E-04  0.4240E-07  0.1693E-02  0.1113E-03  0.5701E+02
   -1.200008   30.49779  0.5042E-14  0.1563E-04  0.4265E-07  0.1715E-02  0.1049E-03  0.1106E+02
   -1.250010   30.49830  0.5042E-14  0.1553E-04  0.4307E-07  0.1686E-02  0.9873E-04  0.1168E+02
   -1.300011   30.49881  0.5042E-14  0.1541E-04  0.4368E-07  0.1640E-02  0.9278E-04  0.1362E+02
   -1.350012   30.49933  0.5042E-14  0.1526E-04  0.4452E-07  0.1584E-02  0.8703E-04  0.1610E+02
   -1.400013   30.49987  0.5042E-14  0.1507E-04  0.4568E-07  0.1510E-02  0.8143E-04  0.1978E+02
   -1.450014   30.50043  0.5042E-14  0.1485E-04  0.4726E-07  0.1435E-02  0.7595E-04  0.2480E+02
   -1.500015   30.50102  0.5042E-14  0.1457E-04  0.4945E-07  0.1326E-02  0.7057E-04  0.3332E+02
   -1.550015   30.50166  0.5042E-14  0.1424E-04  0.5255E-07  0.1244E-02  0.6518E-04  0.4631E+02
   -1.600015   30.50234  0.5042E-14  0.1384E-04  0.5726E-07  0.1098E-02  0.5992E-04  0.8585E+02
   -1.650015   30.50317  0.5042E-14  0.1332E-04  0.6445E-07  0.1022E-02  0.5428E-04  0.5453E+03
   -1.700014   30.50406  0.5042E-14  0.1262E-04  0.7735E-07  0.8344E-03  0.4892E-04  0.5902E+05
   -1.750013   30.50564  0.5042E-14  0.1168E-04  0.9864E-07  0.7579E-03  0.4173E-04  0.6780E+05
   -1.800012   30.50693  0.5042E-14  0.1041E-04  0.1434E-06  0.5371E-03  0.3611E-04  0.2298E+06
   -1.850010   30.51190  0.5042E-14  0.8928E-05  0.2276E-06  0.4841E-03  0.2652E-04  0.8484E+07
   -1.900008   30.51149  0.5042E-14  0.7085E-05  0.4672E-06  0.2230E-03  0.2154E-04 -0.1574E+08
   -1.950006   30.52751  0.5042E-14  0.4891E-05  0.1194E-05  0.1761E-03  0.1189E-04 -0.6916E+06
   -2.000003   30.53091  0.5042E-14  0.0000E+00  0.0000E+00  0.0000E+00  0.2055E-04  0.0000E+00
