 1 - depth, m
 2 - temperature, C
 3 - salinity, kg/kg
 4 - turbulent kinetic energy, m**2/s**2
 5 - dissipation rate, m**2/s**3
 6 - kinematic heat conductance, m**2/s
 7 - modulus of horizontal velocity, m/s
 8 - Richardson number, n/d
   -0.000000   30.58348  0.4137E-14  0.4916E-05  0.3097E-06  0.5050E-04  0.1229E-02  0.6497E+04
   -0.049997   30.61515  0.4137E-14  0.8469E-05  0.1378E-06  0.1807E-03  0.6994E-03  0.3241E+03
   -0.099994   30.62719  0.4137E-14  0.1027E-04  0.9503E-07  0.4044E-03  0.5132E-03  0.3246E+02
   -0.149992   30.63052  0.4137E-14  0.1140E-04  0.7984E-07  0.4852E-03  0.4538E-03  0.1593E+02
   -0.199991   30.63317  0.4137E-14  0.1227E-04  0.7091E-07  0.6483E-03  0.4055E-03  0.1023E+02
   -0.249989   30.63510  0.4137E-14  0.1296E-04  0.6506E-07  0.7740E-03  0.3694E-03  0.7563E+01
   -0.299988   30.63667  0.4137E-14  0.1353E-04  0.6088E-07  0.8998E-03  0.3393E-03  0.6016E+01
   -0.349988   30.63798  0.4137E-14  0.1400E-04  0.5774E-07  0.1013E-02  0.3135E-03  0.5147E+01
   -0.399988   30.63912  0.4137E-14  0.1439E-04  0.5529E-07  0.1117E-02  0.2907E-03  0.4584E+01
   -0.449988   30.64013  0.4137E-14  0.1472E-04  0.5330E-07  0.1213E-02  0.2706E-03  0.4306E+01
   -0.499988   30.64104  0.4137E-14  0.1501E-04  0.5165E-07  0.1301E-02  0.2528E-03  0.4185E+01
   -0.549989   30.64188  0.4137E-14  0.1526E-04  0.5027E-07  0.1382E-02  0.2369E-03  0.4132E+01
   -0.599989   30.64265  0.4137E-14  0.1547E-04  0.4910E-07  0.1455E-02  0.2225E-03  0.4129E+01
   -0.649991   30.64337  0.4137E-14  0.1565E-04  0.4810E-07  0.1520E-02  0.2093E-03  0.4182E+01
   -0.699992   30.64405  0.4137E-14  0.1580E-04  0.4726E-07  0.1578E-02  0.1972E-03  0.4272E+01
   -0.749993   30.64469  0.4137E-14  0.1593E-04  0.4655E-07  0.1627E-02  0.1860E-03  0.4414E+01
   -0.799995   30.64531  0.4137E-14  0.1602E-04  0.4596E-07  0.1669E-02  0.1757E-03  0.4593E+01
   -0.849996   30.64590  0.4137E-14  0.1610E-04  0.4548E-07  0.1703E-02  0.1659E-03  0.4832E+01
   -0.899998   30.64647  0.4137E-14  0.1615E-04  0.4511E-07  0.1729E-02  0.1568E-03  0.5118E+01
   -0.949999   30.64703  0.4137E-14  0.1618E-04  0.4484E-07  0.1746E-02  0.1482E-03  0.5483E+01
   -1.000001   30.64758  0.4137E-14  0.1618E-04  0.4467E-07  0.1755E-02  0.1401E-03  0.5914E+01
   -1.050003   30.64812  0.4137E-14  0.1617E-04  0.4461E-07  0.1754E-02  0.1323E-03  0.6705E+01
   -1.100005   30.64865  0.4137E-14  0.1613E-04  0.4467E-07  0.1851E-02  0.1249E-03  0.2193E+02
   -1.150006   30.64916  0.4137E-14  0.1606E-04  0.4488E-07  0.1652E-02  0.1184E-03  0.5168E+02
   -1.200008   30.64971  0.4137E-14  0.1598E-04  0.4522E-07  0.1687E-02  0.1115E-03  0.9772E+01
   -1.250009   30.65026  0.4137E-14  0.1586E-04  0.4574E-07  0.1655E-02  0.1049E-03  0.1039E+02
   -1.300011   30.65081  0.4137E-14  0.1571E-04  0.4649E-07  0.1602E-02  0.9862E-04  0.1222E+02
   -1.350012   30.65137  0.4137E-14  0.1553E-04  0.4752E-07  0.1541E-02  0.9249E-04  0.1469E+02
   -1.400013   30.65195  0.4137E-14  0.1531E-04  0.4894E-07  0.1458E-02  0.8651E-04  0.1831E+02
   -1.450014   30.65257  0.4137E-14  0.1505E-04  0.5089E-07  0.1381E-02  0.8063E-04  0.2353E+02
   -1.500014   30.65322  0.4137E-14  0.1473E-04  0.5363E-07  0.1261E-02  0.7485E-04  0.3259E+02
   -1.550015   30.65394  0.4137E-14  0.1434E-04  0.5756E-07  0.1184E-02  0.6900E-04  0.4729E+02
   -1.600015   30.65471  0.4137E-14  0.1385E-04  0.6375E-07  0.1030E-02  0.6331E-04  0.1037E+03
   -1.650014   30.65570  0.4137E-14  0.1322E-04  0.7342E-07  0.9630E-03  0.5701E-04  0.2894E+04
   -1.700014   30.65678  0.4137E-14  0.1234E-04  0.9095E-07  0.7717E-03  0.5097E-04  0.4852E+04
   -1.750013   30.65887  0.4137E-14  0.1120E-04  0.1196E-06  0.7045E-03  0.4246E-04  0.5269E+05
   -1.800012   30.66034  0.4137E-14  0.9710E-05  0.1826E-06  0.4787E-03  0.3644E-04  0.1029E+06
   -1.850010   30.66787  0.4137E-14  0.8109E-05  0.2993E-06  0.4497E-03  0.2497E-04  0.1091E+09
   -1.900008   30.66548  0.4137E-14  0.6391E-05  0.6259E-06  0.2064E-03  0.2048E-04  0.4829E+06
   -1.950005   30.68652  0.4137E-14  0.4529E-05  0.1546E-05  0.2037E-03  0.1058E-04 -0.1112E+07
   -2.000002   30.68721  0.4137E-14  0.0000E+00  0.0000E+00  0.0000E+00  0.2129E-04  0.0000E+00
