 1 - depth, m
 2 - temperature, C
 3 - salinity, kg/kg
 4 - turbulent kinetic energy, m**2/s**2
 5 - dissipation rate, m**2/s**3
 6 - kinematic heat conductance, m**2/s
 7 - modulus of horizontal velocity, m/s
 8 - Richardson number, n/d
   -0.000000   30.37049  0.1089E-12  0.4602E-05  0.2781E-06  0.4928E-04  0.1327E-02  0.2976E+04
   -0.049997   30.39999  0.1089E-12  0.7906E-05  0.1240E-06  0.1718E-03  0.7583E-03  0.7252E+03
   -0.099994   30.41147  0.1089E-12  0.9579E-05  0.8529E-07  0.3919E-03  0.5526E-03  0.2729E+02
   -0.149992   30.41460  0.1089E-12  0.1062E-04  0.7169E-07  0.4693E-03  0.4880E-03  0.1318E+02
   -0.199991   30.41710  0.1089E-12  0.1142E-04  0.6366E-07  0.6253E-03  0.4355E-03  0.8482E+01
   -0.249989   30.41892  0.1089E-12  0.1205E-04  0.5836E-07  0.7471E-03  0.3960E-03  0.6250E+01
   -0.299989   30.42039  0.1089E-12  0.1257E-04  0.5456E-07  0.8676E-03  0.3632E-03  0.4965E+01
   -0.349988   30.42162  0.1089E-12  0.1299E-04  0.5169E-07  0.9770E-03  0.3351E-03  0.4238E+01
   -0.399988   30.42269  0.1089E-12  0.1334E-04  0.4944E-07  0.1077E-02  0.3102E-03  0.3771E+01
   -0.449988   30.42363  0.1089E-12  0.1365E-04  0.4760E-07  0.1170E-02  0.2883E-03  0.3536E+01
   -0.499988   30.42448  0.1089E-12  0.1391E-04  0.4607E-07  0.1255E-02  0.2689E-03  0.3437E+01
   -0.549989   30.42525  0.1089E-12  0.1413E-04  0.4478E-07  0.1333E-02  0.2516E-03  0.3388E+01
   -0.599990   30.42597  0.1089E-12  0.1432E-04  0.4368E-07  0.1404E-02  0.2359E-03  0.3384E+01
   -0.649991   30.42663  0.1089E-12  0.1448E-04  0.4275E-07  0.1468E-02  0.2216E-03  0.3423E+01
   -0.699992   30.42726  0.1089E-12  0.1462E-04  0.4195E-07  0.1524E-02  0.2085E-03  0.3494E+01
   -0.749993   30.42785  0.1089E-12  0.1473E-04  0.4127E-07  0.1573E-02  0.1964E-03  0.3604E+01
   -0.799995   30.42842  0.1089E-12  0.1482E-04  0.4069E-07  0.1615E-02  0.1852E-03  0.3747E+01
   -0.849996   30.42896  0.1089E-12  0.1488E-04  0.4021E-07  0.1650E-02  0.1747E-03  0.3933E+01
   -0.899998   30.42948  0.1089E-12  0.1493E-04  0.3983E-07  0.1677E-02  0.1648E-03  0.4161E+01
   -0.950000   30.42999  0.1089E-12  0.1495E-04  0.3953E-07  0.1695E-02  0.1556E-03  0.4445E+01
   -1.000001   30.43049  0.1089E-12  0.1496E-04  0.3933E-07  0.1707E-02  0.1468E-03  0.4786E+01
   -1.050003   30.43097  0.1089E-12  0.1495E-04  0.3922E-07  0.1709E-02  0.1385E-03  0.5413E+01
   -1.100005   30.43146  0.1089E-12  0.1491E-04  0.3921E-07  0.1789E-02  0.1306E-03  0.1798E+02
   -1.150007   30.43191  0.1089E-12  0.1486E-04  0.3931E-07  0.1635E-02  0.1235E-03  0.4031E+02
   -1.200008   30.43240  0.1089E-12  0.1478E-04  0.3953E-07  0.1656E-02  0.1163E-03  0.7758E+01
   -1.250010   30.43289  0.1089E-12  0.1468E-04  0.3990E-07  0.1627E-02  0.1093E-03  0.8224E+01
   -1.300011   30.43337  0.1089E-12  0.1455E-04  0.4045E-07  0.1581E-02  0.1026E-03  0.9593E+01
   -1.350012   30.43387  0.1089E-12  0.1440E-04  0.4122E-07  0.1525E-02  0.9613E-04  0.1141E+02
   -1.400013   30.43438  0.1089E-12  0.1421E-04  0.4228E-07  0.1452E-02  0.8982E-04  0.1402E+02
   -1.450014   30.43491  0.1089E-12  0.1399E-04  0.4374E-07  0.1377E-02  0.8365E-04  0.1773E+02
   -1.500015   30.43548  0.1089E-12  0.1372E-04  0.4579E-07  0.1270E-02  0.7760E-04  0.2379E+02
   -1.550015   30.43609  0.1089E-12  0.1339E-04  0.4870E-07  0.1186E-02  0.7154E-04  0.3338E+02
   -1.600015   30.43674  0.1089E-12  0.1299E-04  0.5311E-07  0.1047E-02  0.6561E-04  0.5676E+02
   -1.650015   30.43752  0.1089E-12  0.1248E-04  0.5993E-07  0.9698E-03  0.5935E-04  0.2985E+03
   -1.700014   30.43839  0.1089E-12  0.1178E-04  0.7244E-07  0.7951E-03  0.5327E-04  0.1245E+04
   -1.750013   30.43992  0.1089E-12  0.1083E-04  0.9317E-07  0.7118E-03  0.4518E-04  0.6376E+05
   -1.800012   30.44127  0.1089E-12  0.9526E-05  0.1368E-06  0.4943E-03  0.3870E-04  0.9348E+06
   -1.850011   30.44642  0.1089E-12  0.8043E-05  0.2186E-06  0.4510E-03  0.2765E-04  0.3906E+07
   -1.900008   30.44571  0.1089E-12  0.6333E-05  0.4559E-06  0.2074E-03  0.2232E-04 -0.1180E+06
   -1.950006   30.46215  0.1089E-12  0.4399E-05  0.1154E-05  0.1798E-03  0.1193E-04 -0.4226E+06
   -2.000003   30.46402  0.1089E-12  0.0000E+00  0.0000E+00  0.0000E+00  0.2200E-04  0.0000E+00
