 1 - depth, m
 2 - temperature, C
 3 - salinity, kg/kg
 4 - turbulent kinetic energy, m**2/s**2
 5 - dissipation rate, m**2/s**3
 6 - kinematic heat conductance, m**2/s
 7 - modulus of horizontal velocity, m/s
 8 - Richardson number, n/d
   -0.000000   29.83909  0.1299E-13  0.5138E-05  0.2917E-06  0.5081E-04  0.3095E-02  0.9233E+03
   -0.049997   29.86880  0.1299E-13  0.8402E-05  0.1268E-06  0.1987E-03  0.1662E-02  0.1910E+03
   -0.099994   29.87798  0.1299E-13  0.9933E-05  0.8974E-07  0.3851E-03  0.1293E-02  0.5264E+01
   -0.149992   29.88120  0.1299E-13  0.1094E-04  0.7555E-07  0.4816E-03  0.1148E-02  0.2713E+01
   -0.199991   29.88367  0.1299E-13  0.1174E-04  0.6727E-07  0.6231E-03  0.1035E-02  0.1793E+01
   -0.249989   29.88553  0.1299E-13  0.1238E-04  0.6185E-07  0.7357E-03  0.9482E-03  0.1385E+01
   -0.299989   29.88707  0.1299E-13  0.1293E-04  0.5793E-07  0.8444E-03  0.8744E-03  0.1259E+01
   -0.349988   29.88837  0.1299E-13  0.1342E-04  0.5484E-07  0.9600E-03  0.8065E-03  0.1282E+01
   -0.399988   29.88950  0.1299E-13  0.1386E-04  0.5229E-07  0.1083E-02  0.7413E-03  0.1301E+01
   -0.449988   29.89047  0.1299E-13  0.1427E-04  0.5015E-07  0.1205E-02  0.6809E-03  0.1310E+01
   -0.499988   29.89133  0.1299E-13  0.1463E-04  0.4837E-07  0.1319E-02  0.6263E-03  0.1317E+01
   -0.549989   29.89211  0.1299E-13  0.1495E-04  0.4690E-07  0.1423E-02  0.5772E-03  0.1313E+01
   -0.599990   29.89281  0.1299E-13  0.1522E-04  0.4568E-07  0.1517E-02  0.5331E-03  0.1305E+01
   -0.649991   29.89346  0.1299E-13  0.1545E-04  0.4468E-07  0.1600E-02  0.4934E-03  0.1293E+01
   -0.699992   29.89407  0.1299E-13  0.1563E-04  0.4388E-07  0.1671E-02  0.4577E-03  0.1277E+01
   -0.749993   29.89465  0.1299E-13  0.1578E-04  0.4324E-07  0.1729E-02  0.4256E-03  0.1258E+01
   -0.799995   29.89520  0.1299E-13  0.1590E-04  0.4275E-07  0.1775E-02  0.3967E-03  0.1236E+01
   -0.849996   29.89573  0.1299E-13  0.1598E-04  0.4239E-07  0.1808E-02  0.3706E-03  0.1213E+01
   -0.899998   29.89624  0.1299E-13  0.1603E-04  0.4216E-07  0.1830E-02  0.3471E-03  0.1191E+01
   -0.950000   29.89675  0.1299E-13  0.1606E-04  0.4203E-07  0.1841E-02  0.3260E-03  0.1174E+01
   -1.000001   29.89724  0.1299E-13  0.1607E-04  0.4202E-07  0.1842E-02  0.3069E-03  0.1179E+01
   -1.050003   29.89774  0.1299E-13  0.1605E-04  0.4210E-07  0.1832E-02  0.2894E-03  0.1249E+01
   -1.100005   29.89823  0.1299E-13  0.1601E-04  0.4228E-07  0.1955E-02  0.2734E-03  0.3881E+01
   -1.150006   29.89869  0.1299E-13  0.1595E-04  0.4261E-07  0.1693E-02  0.2596E-03  0.9546E+01
   -1.200008   29.89922  0.1299E-13  0.1587E-04  0.4305E-07  0.1748E-02  0.2447E-03  0.1772E+01
   -1.250009   29.89972  0.1299E-13  0.1576E-04  0.4368E-07  0.1714E-02  0.2306E-03  0.1894E+01
   -1.300011   29.90024  0.1299E-13  0.1562E-04  0.4453E-07  0.1656E-02  0.2170E-03  0.2231E+01
   -1.350012   29.90077  0.1299E-13  0.1544E-04  0.4566E-07  0.1589E-02  0.2038E-03  0.2701E+01
   -1.400013   29.90133  0.1299E-13  0.1523E-04  0.4717E-07  0.1503E-02  0.1909E-03  0.3378E+01
   -1.450014   29.90192  0.1299E-13  0.1498E-04  0.4921E-07  0.1420E-02  0.1781E-03  0.4378E+01
   -1.500015   29.90254  0.1299E-13  0.1467E-04  0.5205E-07  0.1301E-02  0.1656E-03  0.6089E+01
   -1.550015   29.90324  0.1299E-13  0.1429E-04  0.5609E-07  0.1215E-02  0.1529E-03  0.9114E+01
   -1.600015   29.90399  0.1299E-13  0.1382E-04  0.6240E-07  0.1067E-02  0.1404E-03 -0.2957E+02
   -1.650015   29.90495  0.1299E-13  0.1320E-04  0.7227E-07  0.9825E-03  0.1266E-03  0.3021E+03
   -1.700014   29.90606  0.1299E-13  0.1235E-04  0.8981E-07  0.7985E-03  0.1130E-03 -0.1191E+03
   -1.750013   29.90808  0.1299E-13  0.1127E-04  0.1179E-06  0.7203E-03  0.9474E-04  0.3652E+05
   -1.800012   29.90958  0.1299E-13  0.9851E-05  0.1814E-06  0.4904E-03  0.8136E-04  0.2152E+06
   -1.850010   29.91696  0.1299E-13  0.8349E-05  0.2963E-06  0.4652E-03  0.5682E-04  0.3467E+09
   -1.900008   29.91448  0.1299E-13  0.6651E-05  0.6199E-06  0.2095E-03  0.4689E-04  0.2438E+06
   -1.950006   29.93541  0.1299E-13  0.4678E-05  0.1518E-05  0.1999E-03  0.2492E-04 -0.1030E+06
   -2.000003   29.93690  0.1299E-13  0.0000E+00  0.0000E+00  0.0000E+00  0.4794E-04  0.0000E+00
