 1 - depth, m
 2 - temperature, C
 3 - salinity, kg/kg
 4 - turbulent kinetic energy, m**2/s**2
 5 - dissipation rate, m**2/s**3
 6 - kinematic heat conductance, m**2/s
 7 - modulus of horizontal velocity, m/s
 8 - Richardson number, n/d
   -0.000000   30.28762  0.2069E-13  0.4849E-05  0.3024E-06  0.4908E-04  0.9986E-03  0.2415E+04
   -0.049997   30.31962  0.2069E-13  0.8428E-05  0.1342E-06  0.1857E-03  0.5587E-03  0.1308E+03
   -0.099994   30.33113  0.2069E-13  0.1021E-04  0.9305E-07  0.4060E-03  0.4130E-03  0.4917E+02
   -0.149992   30.33438  0.2069E-13  0.1133E-04  0.7830E-07  0.4905E-03  0.3652E-03  0.2422E+02
   -0.199991   30.33697  0.2069E-13  0.1220E-04  0.6962E-07  0.6535E-03  0.3266E-03  0.1560E+02
   -0.249989   30.33885  0.2069E-13  0.1289E-04  0.6394E-07  0.7796E-03  0.2976E-03  0.1154E+02
   -0.299988   30.34038  0.2069E-13  0.1346E-04  0.5989E-07  0.9063E-03  0.2735E-03  0.9212E+01
   -0.349988   30.34167  0.2069E-13  0.1393E-04  0.5685E-07  0.1021E-02  0.2528E-03  0.7874E+01
   -0.399988   30.34279  0.2069E-13  0.1433E-04  0.5449E-07  0.1125E-02  0.2344E-03  0.7031E+01
   -0.449988   30.34379  0.2069E-13  0.1467E-04  0.5257E-07  0.1222E-02  0.2183E-03  0.6587E+01
   -0.499988   30.34468  0.2069E-13  0.1497E-04  0.5098E-07  0.1312E-02  0.2040E-03  0.6418E+01
   -0.549989   30.34550  0.2069E-13  0.1522E-04  0.4966E-07  0.1393E-02  0.1912E-03  0.6315E+01
   -0.599990   30.34626  0.2069E-13  0.1544E-04  0.4854E-07  0.1467E-02  0.1797E-03  0.6330E+01
   -0.649991   30.34697  0.2069E-13  0.1563E-04  0.4760E-07  0.1533E-02  0.1691E-03  0.6389E+01
   -0.699992   30.34764  0.2069E-13  0.1580E-04  0.4681E-07  0.1592E-02  0.1594E-03  0.6548E+01
   -0.749993   30.34828  0.2069E-13  0.1593E-04  0.4615E-07  0.1643E-02  0.1504E-03  0.6741E+01
   -0.799995   30.34889  0.2069E-13  0.1604E-04  0.4561E-07  0.1687E-02  0.1420E-03  0.7041E+01
   -0.849996   30.34947  0.2069E-13  0.1613E-04  0.4517E-07  0.1722E-02  0.1342E-03  0.7377E+01
   -0.899998   30.35004  0.2069E-13  0.1619E-04  0.4484E-07  0.1749E-02  0.1269E-03  0.7844E+01
   -0.949999   30.35060  0.2069E-13  0.1624E-04  0.4461E-07  0.1768E-02  0.1200E-03  0.8367E+01
   -1.000001   30.35114  0.2069E-13  0.1626E-04  0.4449E-07  0.1779E-02  0.1134E-03  0.9059E+01
   -1.050003   30.35168  0.2069E-13  0.1626E-04  0.4447E-07  0.1780E-02  0.1072E-03  0.1023E+02
   -1.100005   30.35221  0.2069E-13  0.1624E-04  0.4456E-07  0.1869E-02  0.1012E-03  0.3399E+02
   -1.150006   30.35271  0.2069E-13  0.1619E-04  0.4480E-07  0.1694E-02  0.9594E-04  0.7717E+02
   -1.200008   30.35326  0.2069E-13  0.1612E-04  0.4516E-07  0.1721E-02  0.9043E-04  0.1478E+02
   -1.250009   30.35380  0.2069E-13  0.1602E-04  0.4570E-07  0.1690E-02  0.8515E-04  0.1580E+02
   -1.300011   30.35435  0.2069E-13  0.1590E-04  0.4646E-07  0.1640E-02  0.8009E-04  0.1845E+02
   -1.350012   30.35491  0.2069E-13  0.1574E-04  0.4749E-07  0.1581E-02  0.7515E-04  0.2213E+02
   -1.400013   30.35549  0.2069E-13  0.1555E-04  0.4888E-07  0.1503E-02  0.7036E-04  0.2733E+02
   -1.450014   30.35611  0.2069E-13  0.1531E-04  0.5077E-07  0.1425E-02  0.6563E-04  0.3493E+02
   -1.500014   30.35675  0.2069E-13  0.1502E-04  0.5339E-07  0.1312E-02  0.6100E-04  0.4760E+02
   -1.550015   30.35746  0.2069E-13  0.1466E-04  0.5709E-07  0.1230E-02  0.5632E-04  0.6834E+02
   -1.600015   30.35823  0.2069E-13  0.1422E-04  0.6280E-07  0.1080E-02  0.5176E-04  0.1557E+03
   -1.650014   30.35919  0.2069E-13  0.1364E-04  0.7164E-07  0.1004E-02  0.4678E-04  0.2178E+04
   -1.700014   30.36024  0.2069E-13  0.1286E-04  0.8731E-07  0.8120E-03  0.4198E-04  0.2354E+04
   -1.750013   30.36214  0.2069E-13  0.1183E-04  0.1129E-06  0.7431E-03  0.3552E-04  0.2342E+06
   -1.800012   30.36361  0.2069E-13  0.1047E-04  0.1685E-06  0.5100E-03  0.3070E-04  0.2170E+07
   -1.850010   30.37016  0.2069E-13  0.8933E-05  0.2715E-06  0.4784E-03  0.2199E-04  0.1270E+09
   -1.900008   30.36872  0.2069E-13  0.7137E-05  0.5604E-06  0.2189E-03  0.1806E-04  0.8268E+06
   -1.950005   30.38843  0.2069E-13  0.4975E-05  0.1402E-05  0.1895E-03  0.9845E-05 -0.3246E+07
   -2.000002   30.39066  0.2069E-13  0.0000E+00  0.0000E+00  0.0000E+00  0.1771E-04  0.0000E+00
