 1 - depth, m
 2 - temperature, C
 3 - salinity, kg/kg
 4 - turbulent kinetic energy, m**2/s**2
 5 - dissipation rate, m**2/s**3
 6 - kinematic heat conductance, m**2/s
 7 - modulus of horizontal velocity, m/s
 8 - Richardson number, n/d
   -0.000000   30.18520  0.6607E-14  0.4529E-05  0.2744E-06  0.4879E-04  0.8782E-03  0.8935E+04
   -0.049997   30.21409  0.6607E-14  0.7918E-05  0.1218E-06  0.1758E-03  0.4971E-03  0.4932E+02
   -0.099994   30.22516  0.6607E-14  0.9614E-05  0.8408E-07  0.4021E-03  0.3619E-03  0.6368E+02
   -0.149992   30.22814  0.6607E-14  0.1067E-04  0.7093E-07  0.4792E-03  0.3201E-03  0.3102E+02
   -0.199991   30.23054  0.6607E-14  0.1149E-04  0.6319E-07  0.6393E-03  0.2859E-03  0.2015E+02
   -0.249989   30.23229  0.6607E-14  0.1215E-04  0.5810E-07  0.7631E-03  0.2603E-03  0.1493E+02
   -0.299989   30.23372  0.6607E-14  0.1268E-04  0.5448E-07  0.8861E-03  0.2390E-03  0.1194E+02
   -0.349988   30.23492  0.6607E-14  0.1313E-04  0.5176E-07  0.9976E-03  0.2207E-03  0.1022E+02
   -0.399988   30.23596  0.6607E-14  0.1351E-04  0.4965E-07  0.1100E-02  0.2045E-03  0.9141E+01
   -0.449988   30.23689  0.6607E-14  0.1384E-04  0.4794E-07  0.1194E-02  0.1902E-03  0.8573E+01
   -0.499988   30.23773  0.6607E-14  0.1412E-04  0.4653E-07  0.1281E-02  0.1776E-03  0.8370E+01
   -0.549989   30.23850  0.6607E-14  0.1437E-04  0.4535E-07  0.1361E-02  0.1663E-03  0.8244E+01
   -0.599990   30.23921  0.6607E-14  0.1458E-04  0.4437E-07  0.1433E-02  0.1561E-03  0.8282E+01
   -0.649991   30.23988  0.6607E-14  0.1476E-04  0.4354E-07  0.1497E-02  0.1468E-03  0.8367E+01
   -0.699992   30.24051  0.6607E-14  0.1492E-04  0.4285E-07  0.1555E-02  0.1382E-03  0.8596E+01
   -0.749993   30.24110  0.6607E-14  0.1506E-04  0.4228E-07  0.1604E-02  0.1303E-03  0.8857E+01
   -0.799995   30.24168  0.6607E-14  0.1517E-04  0.4181E-07  0.1646E-02  0.1229E-03  0.9277E+01
   -0.849996   30.24223  0.6607E-14  0.1526E-04  0.4145E-07  0.1681E-02  0.1161E-03  0.9728E+01
   -0.899998   30.24277  0.6607E-14  0.1532E-04  0.4118E-07  0.1708E-02  0.1096E-03  0.1037E+02
   -0.950000   30.24329  0.6607E-14  0.1537E-04  0.4100E-07  0.1726E-02  0.1035E-03  0.1107E+02
   -1.000001   30.24380  0.6607E-14  0.1540E-04  0.4092E-07  0.1737E-02  0.9779E-04  0.1203E+02
   -1.050003   30.24431  0.6607E-14  0.1540E-04  0.4093E-07  0.1737E-02  0.9234E-04  0.1359E+02
   -1.100005   30.24482  0.6607E-14  0.1539E-04  0.4105E-07  0.1822E-02  0.8714E-04  0.4535E+02
   -1.150006   30.24530  0.6607E-14  0.1535E-04  0.4130E-07  0.1657E-02  0.8250E-04  0.1029E+03
   -1.200008   30.24582  0.6607E-14  0.1530E-04  0.4167E-07  0.1680E-02  0.7769E-04  0.1973E+02
   -1.250010   30.24634  0.6607E-14  0.1521E-04  0.4220E-07  0.1650E-02  0.7309E-04  0.2117E+02
   -1.300011   30.24686  0.6607E-14  0.1510E-04  0.4293E-07  0.1602E-02  0.6866E-04  0.2472E+02
   -1.350012   30.24740  0.6607E-14  0.1496E-04  0.4391E-07  0.1543E-02  0.6436E-04  0.2977E+02
   -1.400013   30.24796  0.6607E-14  0.1478E-04  0.4522E-07  0.1468E-02  0.6018E-04  0.3672E+02
   -1.450014   30.24854  0.6607E-14  0.1456E-04  0.4699E-07  0.1390E-02  0.5608E-04  0.4707E+02
   -1.500015   30.24917  0.6607E-14  0.1430E-04  0.4941E-07  0.1281E-02  0.5205E-04  0.6381E+02
   -1.550015   30.24985  0.6607E-14  0.1397E-04  0.5282E-07  0.1196E-02  0.4801E-04  0.9141E+02
   -1.600015   30.25059  0.6607E-14  0.1356E-04  0.5796E-07  0.1056E-02  0.4404E-04  0.1681E+03
   -1.650015   30.25148  0.6607E-14  0.1303E-04  0.6592E-07  0.9757E-03  0.3984E-04  0.4624E+03
   -1.700014   30.25250  0.6607E-14  0.1229E-04  0.8025E-07  0.7978E-03  0.3569E-04  0.9965E+04
   -1.750013   30.25429  0.6607E-14  0.1131E-04  0.1037E-06  0.7197E-03  0.3024E-04  0.3811E+06
   -1.800012   30.25583  0.6607E-14  0.9968E-05  0.1550E-06  0.4959E-03  0.2593E-04  0.5171E+06
   -1.850010   30.26203  0.6608E-14  0.8464E-05  0.2488E-06  0.4605E-03  0.1856E-04  0.3313E+08
   -1.900008   30.26087  0.6608E-14  0.6724E-05  0.5210E-06  0.2125E-03  0.1505E-04 -0.1395E+06
   -1.950006   30.28002  0.6608E-14  0.4694E-05  0.1306E-05  0.1853E-03  0.8107E-05 -0.1833E+07
   -2.000003   30.28201  0.6608E-14  0.0000E+00  0.0000E+00  0.0000E+00  0.1480E-04  0.0000E+00
