 1 - depth, m
 2 - temperature, C
 3 - salinity, kg/kg
 4 - turbulent kinetic energy, m**2/s**2
 5 - dissipation rate, m**2/s**3
 6 - kinematic heat conductance, m**2/s
 7 - modulus of horizontal velocity, m/s
 8 - Richardson number, n/d
   -0.000000   30.33930  0.3324E-14  0.4588E-05  0.2780E-06  0.4914E-04  0.1307E-02  0.1543E+05
   -0.049997   30.36784  0.3324E-14  0.7934E-05  0.1239E-06  0.1766E-03  0.7395E-03  0.1491E+03
   -0.099994   30.37868  0.3324E-14  0.9635E-05  0.8559E-07  0.3960E-03  0.5418E-03  0.2625E+02
   -0.149992   30.38169  0.3324E-14  0.1071E-04  0.7195E-07  0.4780E-03  0.4781E-03  0.1288E+02
   -0.199991   30.38408  0.3324E-14  0.1155E-04  0.6399E-07  0.6385E-03  0.4268E-03  0.8282E+01
   -0.249989   30.38583  0.3324E-14  0.1222E-04  0.5879E-07  0.7636E-03  0.3884E-03  0.6126E+01
   -0.299988   30.38724  0.3324E-14  0.1277E-04  0.5510E-07  0.8882E-03  0.3565E-03  0.4886E+01
   -0.349988   30.38844  0.3324E-14  0.1323E-04  0.5235E-07  0.1001E-02  0.3291E-03  0.4189E+01
   -0.399988   30.38948  0.3324E-14  0.1362E-04  0.5023E-07  0.1105E-02  0.3049E-03  0.3738E+01
   -0.449988   30.39040  0.3324E-14  0.1396E-04  0.4851E-07  0.1201E-02  0.2837E-03  0.3514E+01
   -0.499988   30.39124  0.3324E-14  0.1425E-04  0.4710E-07  0.1290E-02  0.2649E-03  0.3419E+01
   -0.549989   30.39200  0.3324E-14  0.1451E-04  0.4593E-07  0.1371E-02  0.2480E-03  0.3379E+01
   -0.599989   30.39271  0.3324E-14  0.1474E-04  0.4496E-07  0.1445E-02  0.2328E-03  0.3383E+01
   -0.649991   30.39337  0.3324E-14  0.1494E-04  0.4416E-07  0.1511E-02  0.2189E-03  0.3433E+01
   -0.699992   30.39399  0.3324E-14  0.1511E-04  0.4349E-07  0.1570E-02  0.2062E-03  0.3515E+01
   -0.749993   30.39459  0.3324E-14  0.1525E-04  0.4294E-07  0.1621E-02  0.1944E-03  0.3641E+01
   -0.799995   30.39516  0.3324E-14  0.1538E-04  0.4250E-07  0.1665E-02  0.1835E-03  0.3798E+01
   -0.849996   30.39571  0.3324E-14  0.1548E-04  0.4217E-07  0.1701E-02  0.1732E-03  0.4009E+01
   -0.899998   30.39625  0.3324E-14  0.1556E-04  0.4193E-07  0.1729E-02  0.1636E-03  0.4255E+01
   -0.949999   30.39677  0.3324E-14  0.1563E-04  0.4179E-07  0.1749E-02  0.1546E-03  0.4573E+01
   -1.000001   30.39729  0.3324E-14  0.1567E-04  0.4175E-07  0.1761E-02  0.1460E-03  0.4940E+01
   -1.050003   30.39780  0.3324E-14  0.1569E-04  0.4180E-07  0.1764E-02  0.1379E-03  0.5628E+01
   -1.100005   30.39831  0.3324E-14  0.1569E-04  0.4196E-07  0.1842E-02  0.1302E-03  0.1886E+02
   -1.150006   30.39879  0.3324E-14  0.1567E-04  0.4226E-07  0.1695E-02  0.1233E-03  0.4134E+02
   -1.200008   30.39932  0.3324E-14  0.1563E-04  0.4267E-07  0.1713E-02  0.1162E-03  0.8118E+01
   -1.250009   30.39984  0.3324E-14  0.1556E-04  0.4325E-07  0.1683E-02  0.1093E-03  0.8684E+01
   -1.300011   30.40037  0.3324E-14  0.1547E-04  0.4403E-07  0.1636E-02  0.1028E-03  0.1018E+02
   -1.350012   30.40091  0.3324E-14  0.1534E-04  0.4505E-07  0.1580E-02  0.9638E-04  0.1214E+02
   -1.400013   30.40148  0.3324E-14  0.1518E-04  0.4640E-07  0.1506E-02  0.9017E-04  0.1498E+02
   -1.450014   30.40207  0.3324E-14  0.1499E-04  0.4819E-07  0.1431E-02  0.8409E-04  0.1895E+02
   -1.500014   30.40270  0.3324E-14  0.1474E-04  0.5062E-07  0.1321E-02  0.7812E-04  0.2556E+02
   -1.550015   30.40339  0.3324E-14  0.1444E-04  0.5399E-07  0.1240E-02  0.7214E-04  0.3582E+02
   -1.600015   30.40413  0.3324E-14  0.1405E-04  0.5902E-07  0.1091E-02  0.6629E-04  0.6742E+02
   -1.650014   30.40504  0.3324E-14  0.1356E-04  0.6660E-07  0.1019E-02  0.6003E-04  0.7185E+02
   -1.700014   30.40602  0.3324E-14  0.1288E-04  0.8008E-07  0.8283E-03  0.5408E-04 -0.7978E+04
   -1.750013   30.40775  0.3324E-14  0.1196E-04  0.1022E-06  0.7577E-03  0.4618E-04  0.4918E+05
   -1.800012   30.40923  0.3324E-14  0.1070E-04  0.1473E-06  0.5322E-03  0.3994E-04  0.1909E+06
   -1.850010   30.41478  0.3324E-14  0.9212E-05  0.2331E-06  0.4882E-03  0.2928E-04  0.4561E+07
   -1.900008   30.41438  0.3324E-14  0.7375E-05  0.4767E-06  0.2204E-03  0.2385E-04 -0.1308E+07
   -1.950005   30.43284  0.3324E-14  0.5112E-05  0.1236E-05  0.1742E-03  0.1321E-04 -0.1700E+07
   -2.000002   30.43689  0.3324E-14  0.0000E+00  0.0000E+00  0.0000E+00  0.2242E-04  0.0000E+00
