 1 - depth, m
 2 - temperature, C
 3 - salinity, kg/kg
 4 - turbulent kinetic energy, m**2/s**2
 5 - dissipation rate, m**2/s**3
 6 - kinematic heat conductance, m**2/s
 7 - modulus of horizontal velocity, m/s
 8 - Richardson number, n/d
   -0.000000   29.29101  0.4574E-13  0.5077E-05  0.2721E-06  0.4967E-04  0.3553E-02  0.3823E+03
   -0.049997   29.32015  0.4574E-13  0.8132E-05  0.1180E-06  0.1980E-03  0.1904E-02  0.4715E+02
   -0.099994   29.32870  0.4574E-13  0.9525E-05  0.8426E-07  0.3721E-03  0.1504E-02  0.4279E+01
   -0.149992   29.33190  0.4574E-13  0.1045E-04  0.7114E-07  0.4677E-03  0.1340E-02  0.2221E+01
   -0.199991   29.33435  0.4574E-13  0.1118E-04  0.6345E-07  0.5945E-03  0.1213E-02  0.1515E+01
   -0.249990   29.33621  0.4574E-13  0.1178E-04  0.5834E-07  0.6977E-03  0.1113E-02  0.1280E+01
   -0.299989   29.33775  0.4574E-13  0.1232E-04  0.5447E-07  0.8076E-03  0.1025E-02  0.1304E+01
   -0.349988   29.33905  0.4574E-13  0.1281E-04  0.5131E-07  0.9341E-03  0.9403E-03  0.1387E+01
   -0.399988   29.34015  0.4574E-13  0.1327E-04  0.4867E-07  0.1066E-02  0.8577E-03  0.1411E+01
   -0.449988   29.34108  0.4574E-13  0.1368E-04  0.4645E-07  0.1196E-02  0.7814E-03  0.1417E+01
   -0.499988   29.34190  0.4574E-13  0.1404E-04  0.4460E-07  0.1317E-02  0.7128E-03  0.1418E+01
   -0.549989   29.34263  0.4574E-13  0.1434E-04  0.4307E-07  0.1427E-02  0.6517E-03  0.1409E+01
   -0.599990   29.34329  0.4574E-13  0.1460E-04  0.4179E-07  0.1527E-02  0.5970E-03  0.1396E+01
   -0.649991   29.34389  0.4574E-13  0.1481E-04  0.4073E-07  0.1614E-02  0.5482E-03  0.1378E+01
   -0.699992   29.34446  0.4574E-13  0.1497E-04  0.3987E-07  0.1688E-02  0.5045E-03  0.1356E+01
   -0.749994   29.34498  0.4574E-13  0.1509E-04  0.3916E-07  0.1748E-02  0.4654E-03  0.1331E+01
   -0.799995   29.34549  0.4574E-13  0.1518E-04  0.3861E-07  0.1794E-02  0.4304E-03  0.1303E+01
   -0.849997   29.34597  0.4574E-13  0.1524E-04  0.3818E-07  0.1826E-02  0.3990E-03  0.1272E+01
   -0.899998   29.34644  0.4574E-13  0.1526E-04  0.3788E-07  0.1846E-02  0.3709E-03  0.1237E+01
   -0.950000   29.34690  0.4574E-13  0.1526E-04  0.3768E-07  0.1854E-02  0.3457E-03  0.1201E+01
   -1.000002   29.34735  0.4574E-13  0.1523E-04  0.3759E-07  0.1850E-02  0.3231E-03  0.1163E+01
   -1.050004   29.34779  0.4574E-13  0.1519E-04  0.3760E-07  0.1834E-02  0.3029E-03  0.1150E+01
   -1.100005   29.34823  0.4574E-13  0.1512E-04  0.3770E-07  0.1968E-02  0.2849E-03  0.3140E+01
   -1.150007   29.34864  0.4574E-13  0.1504E-04  0.3791E-07  0.1682E-02  0.2707E-03  0.7736E+01
   -1.200009   29.34911  0.4574E-13  0.1494E-04  0.3822E-07  0.1749E-02  0.2550E-03  0.1423E+01
   -1.250010   29.34956  0.4574E-13  0.1481E-04  0.3868E-07  0.1713E-02  0.2403E-03  0.1501E+01
   -1.300011   29.35001  0.4574E-13  0.1466E-04  0.3933E-07  0.1655E-02  0.2262E-03  0.1758E+01
   -1.350013   29.35047  0.4574E-13  0.1448E-04  0.4022E-07  0.1588E-02  0.2124E-03  0.2110E+01
   -1.400014   29.35095  0.4574E-13  0.1426E-04  0.4142E-07  0.1502E-02  0.1990E-03  0.2620E+01
   -1.450015   29.35146  0.4574E-13  0.1401E-04  0.4306E-07  0.1418E-02  0.1857E-03  0.3358E+01
   -1.500015   29.35199  0.4574E-13  0.1370E-04  0.4535E-07  0.1297E-02  0.1726E-03  0.4620E+01
   -1.550016   29.35258  0.4574E-13  0.1334E-04  0.4862E-07  0.1212E-02  0.1594E-03  0.6663E+01
   -1.600016   29.35320  0.4574E-13  0.1289E-04  0.5373E-07  0.1062E-02  0.1464E-03  0.1441E+02
   -1.650015   29.35399  0.4574E-13  0.1232E-04  0.6173E-07  0.9820E-03  0.1323E-03  0.8899E+03
   -1.700015   29.35487  0.4574E-13  0.1153E-04  0.7607E-07  0.7957E-03  0.1184E-03  0.1407E+04
   -1.750014   29.35651  0.4574E-13  0.1050E-04  0.9952E-07  0.7163E-03  0.9948E-04  0.1013E+05
   -1.800013   29.35775  0.4574E-13  0.9148E-05  0.1524E-06  0.4951E-03  0.8523E-04  0.1936E+04
   -1.850011   29.36343  0.4574E-13  0.7677E-05  0.2466E-06  0.4528E-03  0.5984E-04  0.1142E+08
   -1.900009   29.36181  0.4574E-13  0.6004E-05  0.5170E-06  0.2083E-03  0.4875E-04 -0.9285E+06
   -1.950007   29.37808  0.4574E-13  0.4192E-05  0.1277E-05  0.1922E-03  0.2553E-04 -0.2364E+06
   -2.000004   29.37987  0.4574E-13  0.0000E+00  0.0000E+00  0.0000E+00  0.5031E-04  0.0000E+00
