 1 - depth, m
 2 - temperature, C
 3 - salinity, kg/kg
 4 - turbulent kinetic energy, m**2/s**2
 5 - dissipation rate, m**2/s**3
 6 - kinematic heat conductance, m**2/s
 7 - modulus of horizontal velocity, m/s
 8 - Richardson number, n/d
   -0.000000   30.45879  0.4946E-14  0.4763E-05  0.2951E-06  0.4941E-04  0.5476E-03  0.6977E+05
   -0.049997   30.48998  0.4946E-14  0.8406E-05  0.1308E-06  0.1835E-03  0.3088E-03  0.8819E+02
   -0.099994   30.50124  0.4946E-14  0.1017E-04  0.9063E-07  0.4172E-03  0.2254E-03  0.1509E+03
   -0.149992   30.50435  0.4946E-14  0.1128E-04  0.7661E-07  0.4929E-03  0.1999E-03  0.7435E+02
   -0.199991   30.50687  0.4946E-14  0.1214E-04  0.6831E-07  0.6583E-03  0.1788E-03  0.4862E+02
   -0.249989   30.50871  0.4946E-14  0.1283E-04  0.6284E-07  0.7847E-03  0.1630E-03  0.3622E+02
   -0.299988   30.51021  0.4946E-14  0.1339E-04  0.5893E-07  0.9105E-03  0.1499E-03  0.2902E+02
   -0.349988   30.51147  0.4946E-14  0.1385E-04  0.5600E-07  0.1024E-02  0.1386E-03  0.2489E+02
   -0.399988   30.51257  0.4946E-14  0.1425E-04  0.5371E-07  0.1129E-02  0.1286E-03  0.2225E+02
   -0.449988   30.51355  0.4946E-14  0.1458E-04  0.5185E-07  0.1225E-02  0.1197E-03  0.2090E+02
   -0.499988   30.51443  0.4946E-14  0.1488E-04  0.5032E-07  0.1314E-02  0.1119E-03  0.2037E+02
   -0.549989   30.51523  0.4946E-14  0.1513E-04  0.4904E-07  0.1395E-02  0.1049E-03  0.2010E+02
   -0.599989   30.51598  0.4946E-14  0.1535E-04  0.4796E-07  0.1468E-02  0.9856E-04  0.2015E+02
   -0.649991   30.51668  0.4946E-14  0.1554E-04  0.4705E-07  0.1534E-02  0.9276E-04  0.2039E+02
   -0.699992   30.51734  0.4946E-14  0.1570E-04  0.4629E-07  0.1592E-02  0.8743E-04  0.2089E+02
   -0.749993   30.51797  0.4946E-14  0.1584E-04  0.4566E-07  0.1642E-02  0.8250E-04  0.2158E+02
   -0.799995   30.51857  0.4946E-14  0.1595E-04  0.4514E-07  0.1685E-02  0.7791E-04  0.2253E+02
   -0.849996   30.51915  0.4946E-14  0.1604E-04  0.4472E-07  0.1719E-02  0.7362E-04  0.2369E+02
   -0.899998   30.51971  0.4946E-14  0.1610E-04  0.4441E-07  0.1746E-02  0.6959E-04  0.2518E+02
   -0.949999   30.52026  0.4946E-14  0.1614E-04  0.4420E-07  0.1764E-02  0.6579E-04  0.2695E+02
   -1.000001   30.52080  0.4946E-14  0.1616E-04  0.4410E-07  0.1774E-02  0.6219E-04  0.2918E+02
   -1.050003   30.52133  0.4946E-14  0.1616E-04  0.4409E-07  0.1774E-02  0.5877E-04  0.3307E+02
   -1.100005   30.52186  0.4946E-14  0.1614E-04  0.4421E-07  0.1865E-02  0.5551E-04  0.1094E+03
   -1.150006   30.52236  0.4946E-14  0.1609E-04  0.4446E-07  0.1683E-02  0.5260E-04  0.2518E+03
   -1.200008   30.52291  0.4946E-14  0.1602E-04  0.4484E-07  0.1712E-02  0.4957E-04  0.4814E+02
   -1.250009   30.52345  0.4946E-14  0.1593E-04  0.4541E-07  0.1681E-02  0.4667E-04  0.5149E+02
   -1.300011   30.52399  0.4946E-14  0.1580E-04  0.4619E-07  0.1630E-02  0.4388E-04  0.6043E+02
   -1.350012   30.52455  0.4946E-14  0.1564E-04  0.4724E-07  0.1570E-02  0.4117E-04  0.7267E+02
   -1.400013   30.52514  0.4946E-14  0.1545E-04  0.4866E-07  0.1490E-02  0.3853E-04  0.9029E+02
   -1.450014   30.52575  0.4946E-14  0.1521E-04  0.5059E-07  0.1413E-02  0.3593E-04  0.1159E+03
   -1.500014   30.52640  0.4946E-14  0.1491E-04  0.5327E-07  0.1298E-02  0.3338E-04  0.1594E+03
   -1.550015   30.52711  0.4946E-14  0.1456E-04  0.5705E-07  0.1217E-02  0.3081E-04  0.2300E+03
   -1.600015   30.52788  0.4946E-14  0.1411E-04  0.6292E-07  0.1069E-02  0.2830E-04  0.5050E+03
   -1.650014   30.52885  0.4946E-14  0.1352E-04  0.7197E-07  0.9906E-03  0.2556E-04  0.1959E+04
   -1.700014   30.52991  0.4946E-14  0.1272E-04  0.8805E-07  0.8033E-03  0.2291E-04  0.5593E+05
   -1.750013   30.53189  0.4946E-14  0.1167E-04  0.1145E-06  0.7323E-03  0.1932E-04  0.6399E+06
   -1.800012   30.53337  0.4946E-14  0.1029E-04  0.1707E-06  0.5048E-03  0.1665E-04  0.9703E+05
   -1.850010   30.54014  0.4946E-14  0.8741E-05  0.2777E-06  0.4699E-03  0.1187E-04  0.1662E+10
   -1.900008   30.53862  0.4946E-14  0.6950E-05  0.5860E-06  0.2180E-03  0.9657E-05  0.1122E+08
   -1.950005   30.55862  0.4946E-14  0.4861E-05  0.1455E-05  0.1911E-03  0.5209E-05 -0.3590E+07
   -2.000002   30.56110  0.4946E-14  0.0000E+00  0.0000E+00  0.0000E+00  0.9661E-05  0.0000E+00
