 1 - depth, m
 2 - temperature, C
 3 - salinity, kg/kg
 4 - turbulent kinetic energy, m**2/s**2
 5 - dissipation rate, m**2/s**3
 6 - kinematic heat conductance, m**2/s
 7 - modulus of horizontal velocity, m/s
 8 - Richardson number, n/d
   -0.000000   29.49536  0.2593E-14  0.4541E-05  0.2715E-06  0.4881E-04  0.1641E-02  0.6737E+04
   -0.049997   29.52369  0.2593E-14  0.7788E-05  0.1208E-06  0.1740E-03  0.9329E-03  0.1397E+04
   -0.099994   29.53454  0.2593E-14  0.9448E-05  0.8319E-07  0.3918E-03  0.6817E-03  0.1923E+02
   -0.149992   29.53756  0.2593E-14  0.1049E-04  0.6992E-07  0.4728E-03  0.6018E-03  0.9406E+01
   -0.199991   29.53996  0.2593E-14  0.1131E-04  0.6216E-07  0.6304E-03  0.5372E-03  0.6062E+01
   -0.249989   29.54171  0.2593E-14  0.1196E-04  0.5709E-07  0.7537E-03  0.4887E-03  0.4467E+01
   -0.299989   29.54314  0.2593E-14  0.1249E-04  0.5348E-07  0.8763E-03  0.4484E-03  0.3569E+01
   -0.349988   29.54434  0.2593E-14  0.1294E-04  0.5079E-07  0.9875E-03  0.4139E-03  0.3046E+01
   -0.399988   29.54539  0.2593E-14  0.1331E-04  0.4871E-07  0.1090E-02  0.3833E-03  0.2727E+01
   -0.449988   29.54632  0.2593E-14  0.1364E-04  0.4702E-07  0.1184E-02  0.3565E-03  0.2552E+01
   -0.499988   29.54716  0.2593E-14  0.1393E-04  0.4563E-07  0.1271E-02  0.3327E-03  0.2497E+01
   -0.549989   29.54793  0.2593E-14  0.1418E-04  0.4448E-07  0.1351E-02  0.3114E-03  0.2455E+01
   -0.599990   29.54864  0.2593E-14  0.1439E-04  0.4351E-07  0.1424E-02  0.2922E-03  0.2472E+01
   -0.649991   29.54931  0.2593E-14  0.1458E-04  0.4270E-07  0.1489E-02  0.2747E-03  0.2492E+01
   -0.699992   29.54994  0.2593E-14  0.1474E-04  0.4203E-07  0.1547E-02  0.2586E-03  0.2567E+01
   -0.749993   29.55054  0.2593E-14  0.1488E-04  0.4147E-07  0.1597E-02  0.2437E-03  0.2638E+01
   -0.799995   29.55112  0.2593E-14  0.1499E-04  0.4102E-07  0.1640E-02  0.2299E-03  0.2770E+01
   -0.849996   29.55167  0.2593E-14  0.1509E-04  0.4066E-07  0.1675E-02  0.2170E-03  0.2897E+01
   -0.899998   29.55221  0.2593E-14  0.1516E-04  0.4040E-07  0.1703E-02  0.2049E-03  0.3097E+01
   -0.950000   29.55274  0.2593E-14  0.1521E-04  0.4023E-07  0.1723E-02  0.1935E-03  0.3297E+01
   -1.000002   29.55326  0.2593E-14  0.1524E-04  0.4015E-07  0.1734E-02  0.1828E-03  0.3587E+01
   -1.050003   29.55377  0.2593E-14  0.1526E-04  0.4017E-07  0.1737E-02  0.1726E-03  0.4048E+01
   -1.100005   29.55427  0.2593E-14  0.1525E-04  0.4028E-07  0.1816E-02  0.1628E-03  0.1363E+02
   -1.150007   29.55475  0.2593E-14  0.1522E-04  0.4052E-07  0.1666E-02  0.1541E-03  0.3001E+02
   -1.200008   29.55528  0.2593E-14  0.1517E-04  0.4087E-07  0.1685E-02  0.1451E-03  0.5827E+01
   -1.250010   29.55579  0.2593E-14  0.1509E-04  0.4139E-07  0.1656E-02  0.1365E-03  0.6256E+01
   -1.300011   29.55632  0.2593E-14  0.1499E-04  0.4208E-07  0.1609E-02  0.1283E-03  0.7271E+01
   -1.350012   29.55686  0.2593E-14  0.1486E-04  0.4301E-07  0.1553E-02  0.1203E-03  0.8715E+01
   -1.400013   29.55741  0.2593E-14  0.1469E-04  0.4425E-07  0.1479E-02  0.1125E-03  0.1066E+02
   -1.450014   29.55800  0.2593E-14  0.1449E-04  0.4591E-07  0.1404E-02  0.1048E-03  0.1354E+02
   -1.500015   29.55862  0.2593E-14  0.1424E-04  0.4817E-07  0.1297E-02  0.9732E-04  0.1808E+02
   -1.550015   29.55929  0.2593E-14  0.1393E-04  0.5132E-07  0.1213E-02  0.8981E-04  0.2533E+02
   -1.600015   29.56002  0.2593E-14  0.1354E-04  0.5605E-07  0.1070E-02  0.8246E-04  0.4451E+02
   -1.650015   29.56088  0.2593E-14  0.1305E-04  0.6323E-07  0.9927E-03  0.7466E-04  0.1415E+05
   -1.700015   29.56184  0.2593E-14  0.1237E-04  0.7611E-07  0.8116E-03  0.6716E-04  0.9645E+04
   -1.750014   29.56352  0.2593E-14  0.1144E-04  0.9759E-07  0.7337E-03  0.5729E-04  0.4636E+04
   -1.800012   29.56506  0.2593E-14  0.1016E-04  0.1407E-06  0.5173E-03  0.4913E-04  0.1928E+05
   -1.850011   29.57029  0.2593E-14  0.8669E-05  0.2226E-06  0.4670E-03  0.3583E-04  0.5031E+07
   -1.900009   29.57007  0.2593E-14  0.6860E-05  0.4553E-06  0.2120E-03  0.2889E-04 -0.1221E+07
   -1.950006   29.58823  0.2593E-14  0.4763E-05  0.1170E-05  0.1761E-03  0.1569E-04 -0.3766E+06
   -2.000003   29.59110  0.2593E-14  0.0000E+00  0.0000E+00  0.0000E+00  0.2767E-04  0.0000E+00
