 1 - depth, m
 2 - temperature, C
 3 - salinity, kg/kg
 4 - turbulent kinetic energy, m**2/s**2
 5 - dissipation rate, m**2/s**3
 6 - kinematic heat conductance, m**2/s
 7 - modulus of horizontal velocity, m/s
 8 - Richardson number, n/d
   -0.000000   30.60101  0.4972E-13  0.5074E-05  0.3244E-06  0.5224E-04  0.1924E-02  0.4365E+04
   -0.049997   30.63230  0.4972E-13  0.8569E-05  0.1445E-06  0.1760E-03  0.1112E-02  0.4485E+04
   -0.099994   30.64488  0.4972E-13  0.1040E-04  0.9865E-07  0.4023E-03  0.8109E-03  0.1322E+02
   -0.149992   30.64829  0.4972E-13  0.1155E-04  0.8253E-07  0.4810E-03  0.7165E-03  0.6456E+01
   -0.199991   30.65102  0.4972E-13  0.1243E-04  0.7310E-07  0.6456E-03  0.6396E-03  0.4118E+01
   -0.249989   30.65299  0.4972E-13  0.1314E-04  0.6693E-07  0.7721E-03  0.5823E-03  0.3031E+01
   -0.299988   30.65459  0.4972E-13  0.1371E-04  0.6254E-07  0.8991E-03  0.5346E-03  0.2403E+01
   -0.349988   30.65593  0.4972E-13  0.1418E-04  0.5924E-07  0.1014E-02  0.4938E-03  0.2051E+01
   -0.399988   30.65709  0.4972E-13  0.1458E-04  0.5667E-07  0.1119E-02  0.4578E-03  0.1823E+01
   -0.449988   30.65811  0.4972E-13  0.1492E-04  0.5459E-07  0.1217E-02  0.4261E-03  0.1709E+01
   -0.499988   30.65903  0.4972E-13  0.1522E-04  0.5286E-07  0.1306E-02  0.3981E-03  0.1658E+01
   -0.549989   30.65988  0.4972E-13  0.1547E-04  0.5141E-07  0.1388E-02  0.3730E-03  0.1634E+01
   -0.599989   30.66066  0.4972E-13  0.1569E-04  0.5018E-07  0.1463E-02  0.3503E-03  0.1631E+01
   -0.649990   30.66138  0.4972E-13  0.1587E-04  0.4914E-07  0.1530E-02  0.3296E-03  0.1649E+01
   -0.699992   30.66207  0.4972E-13  0.1603E-04  0.4826E-07  0.1589E-02  0.3105E-03  0.1682E+01
   -0.749993   30.66271  0.4972E-13  0.1615E-04  0.4751E-07  0.1640E-02  0.2930E-03  0.1736E+01
   -0.799994   30.66333  0.4972E-13  0.1626E-04  0.4689E-07  0.1684E-02  0.2766E-03  0.1804E+01
   -0.849996   30.66393  0.4972E-13  0.1634E-04  0.4638E-07  0.1719E-02  0.2613E-03  0.1894E+01
   -0.899998   30.66450  0.4972E-13  0.1639E-04  0.4599E-07  0.1747E-02  0.2470E-03  0.2003E+01
   -0.949999   30.66506  0.4972E-13  0.1643E-04  0.4569E-07  0.1766E-02  0.2335E-03  0.2141E+01
   -1.000001   30.66561  0.4972E-13  0.1644E-04  0.4550E-07  0.1777E-02  0.2207E-03  0.2307E+01
   -1.050003   30.66615  0.4972E-13  0.1643E-04  0.4543E-07  0.1778E-02  0.2086E-03  0.2609E+01
   -1.100004   30.66669  0.4972E-13  0.1639E-04  0.4547E-07  0.1868E-02  0.1970E-03  0.8619E+01
   -1.150006   30.66719  0.4972E-13  0.1634E-04  0.4565E-07  0.1691E-02  0.1867E-03  0.1964E+02
   -1.200008   30.66775  0.4972E-13  0.1626E-04  0.4597E-07  0.1719E-02  0.1759E-03  0.3757E+01
   -1.250009   30.66829  0.4972E-13  0.1615E-04  0.4647E-07  0.1689E-02  0.1656E-03  0.3993E+01
   -1.300010   30.66883  0.4972E-13  0.1601E-04  0.4718E-07  0.1639E-02  0.1558E-03  0.4668E+01
   -1.350012   30.66939  0.4972E-13  0.1584E-04  0.4818E-07  0.1579E-02  0.1462E-03  0.5584E+01
   -1.400013   30.66997  0.4972E-13  0.1564E-04  0.4954E-07  0.1501E-02  0.1368E-03  0.6900E+01
   -1.450013   30.67058  0.4972E-13  0.1539E-04  0.5140E-07  0.1423E-02  0.1276E-03  0.8807E+01
   -1.500014   30.67122  0.4972E-13  0.1508E-04  0.5401E-07  0.1310E-02  0.1186E-03  0.1200E+02
   -1.550014   30.67192  0.4972E-13  0.1471E-04  0.5774E-07  0.1226E-02  0.1095E-03  0.1728E+02
   -1.600014   30.67268  0.4972E-13  0.1425E-04  0.6349E-07  0.1080E-02  0.1006E-03  0.3527E+02
   -1.650014   30.67362  0.4972E-13  0.1366E-04  0.7244E-07  0.1000E-02  0.9098E-04  0.6838E+02
   -1.700014   30.67468  0.4972E-13  0.1285E-04  0.8838E-07  0.8172E-03  0.8153E-04  0.5815E+04
   -1.750013   30.67654  0.4972E-13  0.1179E-04  0.1144E-06  0.7366E-03  0.6902E-04  0.7487E+05
   -1.800011   30.67804  0.4972E-13  0.1039E-04  0.1708E-06  0.5143E-03  0.5940E-04  0.8479E+04
   -1.850010   30.68457  0.4972E-13  0.8846E-05  0.2760E-06  0.4716E-03  0.4242E-04  0.2546E+09
   -1.900008   30.68306  0.4972E-13  0.7035E-05  0.5789E-06  0.2154E-03  0.3475E-04 -0.3534E+06
   -1.950005   30.70266  0.4972E-13  0.4932E-05  0.1430E-05  0.1933E-03  0.1885E-04 -0.1748E+06
   -2.000002   30.70429  0.4972E-13  0.0000E+00  0.0000E+00  0.0000E+00  0.3433E-04  0.0000E+00
