 1 - depth, m
 2 - temperature, C
 3 - salinity, kg/kg
 4 - turbulent kinetic energy, m**2/s**2
 5 - dissipation rate, m**2/s**3
 6 - kinematic heat conductance, m**2/s
 7 - modulus of horizontal velocity, m/s
 8 - Richardson number, n/d
   -0.000000   30.38516  0.2220E-14  0.4974E-05  0.3048E-06  0.4794E-04  0.4146E-03  0.2924E+06
   -0.049997   30.42081  0.2220E-14  0.8816E-05  0.1363E-06  0.1965E-03  0.2300E-03  0.9151E+03
   -0.099994   30.43125  0.2220E-14  0.1057E-04  0.9600E-07  0.4147E-03  0.1717E-03  0.3324E+03
   -0.149992   30.43468  0.2220E-14  0.1169E-04  0.8137E-07  0.4978E-03  0.1524E-03  0.1670E+03
   -0.199991   30.43740  0.2220E-14  0.1255E-04  0.7270E-07  0.6576E-03  0.1366E-03  0.1110E+03
   -0.249989   30.43940  0.2220E-14  0.1324E-04  0.6696E-07  0.7824E-03  0.1247E-03  0.8326E+02
   -0.299988   30.44104  0.2220E-14  0.1379E-04  0.6284E-07  0.9038E-03  0.1148E-03  0.6703E+02
   -0.349988   30.44243  0.2220E-14  0.1425E-04  0.5974E-07  0.1013E-02  0.1062E-03  0.5778E+02
   -0.399988   30.44363  0.2220E-14  0.1463E-04  0.5732E-07  0.1112E-02  0.9861E-04  0.5191E+02
   -0.449988   30.44471  0.2220E-14  0.1495E-04  0.5535E-07  0.1203E-02  0.9190E-04  0.4912E+02
   -0.499988   30.44568  0.2220E-14  0.1522E-04  0.5372E-07  0.1285E-02  0.8593E-04  0.4821E+02
   -0.549989   30.44658  0.2220E-14  0.1545E-04  0.5236E-07  0.1359E-02  0.8058E-04  0.4796E+02
   -0.599989   30.44741  0.2220E-14  0.1565E-04  0.5122E-07  0.1424E-02  0.7572E-04  0.4844E+02
   -0.649990   30.44819  0.2220E-14  0.1580E-04  0.5026E-07  0.1481E-02  0.7128E-04  0.4948E+02
   -0.699992   30.44893  0.2220E-14  0.1593E-04  0.4946E-07  0.1529E-02  0.6719E-04  0.5115E+02
   -0.749993   30.44964  0.2220E-14  0.1602E-04  0.4880E-07  0.1569E-02  0.6340E-04  0.5340E+02
   -0.799994   30.45031  0.2220E-14  0.1609E-04  0.4827E-07  0.1600E-02  0.5987E-04  0.5635E+02
   -0.849996   30.45097  0.2220E-14  0.1613E-04  0.4787E-07  0.1622E-02  0.5656E-04  0.6004E+02
   -0.899998   30.45161  0.2220E-14  0.1614E-04  0.4758E-07  0.1635E-02  0.5344E-04  0.6468E+02
   -0.949999   30.45224  0.2220E-14  0.1613E-04  0.4742E-07  0.1638E-02  0.5049E-04  0.7043E+02
   -1.000001   30.45286  0.2220E-14  0.1609E-04  0.4739E-07  0.1632E-02  0.4770E-04  0.7764E+02
   -1.050003   30.45348  0.2220E-14  0.1602E-04  0.4750E-07  0.1612E-02  0.4503E-04  0.8969E+02
   -1.100004   30.45410  0.2220E-14  0.1592E-04  0.4777E-07  0.1767E-02  0.4248E-04  0.2716E+03
   -1.150006   30.45466  0.2220E-14  0.1579E-04  0.4826E-07  0.1402E-02  0.4030E-04  0.8684E+03
   -1.200007   30.45536  0.2220E-14  0.1562E-04  0.4894E-07  0.1481E-02  0.3778E-04  0.1476E+03
   -1.250009   30.45602  0.2220E-14  0.1542E-04  0.4992E-07  0.1438E-02  0.3546E-04  0.1607E+03
   -1.300010   30.45670  0.2220E-14  0.1517E-04  0.5127E-07  0.1357E-02  0.3324E-04  0.1995E+03
   -1.350011   30.45741  0.2220E-14  0.1488E-04  0.5314E-07  0.1287E-02  0.3105E-04  0.2552E+03
   -1.400012   30.45816  0.2220E-14  0.1452E-04  0.5577E-07  0.1156E-02  0.2891E-04  0.3498E+03
   -1.450013   30.45900  0.2220E-14  0.1409E-04  0.5951E-07  0.1106E-02  0.2674E-04  0.4899E+03
   -1.500014   30.45991  0.2220E-14  0.1356E-04  0.6509E-07  0.9187E-03  0.2464E-04  0.8056E+03
   -1.550014   30.46105  0.2220E-14  0.1290E-04  0.7331E-07  0.9298E-03  0.2235E-04  0.1339E+04
   -1.600014   30.46220  0.2220E-14  0.1208E-04  0.8825E-07  0.7169E-03  0.2031E-04  0.4481E+04
   -1.650014   30.46414  0.2220E-14  0.1086E-04  0.1102E-06  0.7141E-03  0.1749E-04 -0.2806E+04
   -1.700013   30.46604  0.2220E-14  0.9201E-05  0.1521E-06  0.4550E-03  0.1511E-04 -0.1045E+05
   -1.750013   30.47240  0.2220E-14  0.7325E-05  0.2209E-06  0.4863E-03  0.1014E-04  0.5033E+06
   -1.800011   30.47241  0.2220E-14  0.5849E-05  0.3645E-06  0.2695E-03  0.8947E-05 -0.1516E+06
   -1.850010   30.49660  0.2220E-14  0.4595E-05  0.6701E-06  0.3360E-03  0.4078E-05  0.3834E+09
   -1.900007   30.47681  0.2220E-14  0.3919E-05  0.1439E-05  0.1704E-03  0.4073E-05 -0.1792E+08
   -1.950005   30.51593  0.2220E-14  0.3052E-05  0.3143E-05  0.3016E-03  0.1622E-05  0.1101E+05
   -2.000002   30.51165  0.2220E-14  0.0000E+00  0.0000E+00  0.0000E+00  0.6397E-05  0.0000E+00
