 1 - depth, m
 2 - temperature, C
 3 - salinity, kg/kg
 4 - turbulent kinetic energy, m**2/s**2
 5 - dissipation rate, m**2/s**3
 6 - kinematic heat conductance, m**2/s
 7 - modulus of horizontal velocity, m/s
 8 - Richardson number, n/d
   -0.000000   30.73411  0.1138E-13  0.4977E-05  0.3146E-06  0.5119E-04  0.1506E-02  0.9578E+04
   -0.049997   30.76567  0.1138E-13  0.8506E-05  0.1406E-06  0.1790E-03  0.8613E-03  0.1569E+03
   -0.099994   30.77780  0.1138E-13  0.1032E-04  0.9673E-07  0.4007E-03  0.6329E-03  0.2148E+02
   -0.149992   30.78119  0.1138E-13  0.1145E-04  0.8107E-07  0.4822E-03  0.5590E-03  0.1053E+02
   -0.199991   30.78388  0.1138E-13  0.1233E-04  0.7190E-07  0.6453E-03  0.4992E-03  0.6739E+01
   -0.249989   30.78583  0.1138E-13  0.1303E-04  0.6589E-07  0.7716E-03  0.4545E-03  0.4968E+01
   -0.299988   30.78742  0.1138E-13  0.1360E-04  0.6160E-07  0.8977E-03  0.4174E-03  0.3944E+01
   -0.349988   30.78874  0.1138E-13  0.1407E-04  0.5838E-07  0.1012E-02  0.3855E-03  0.3369E+01
   -0.399988   30.78989  0.1138E-13  0.1446E-04  0.5587E-07  0.1116E-02  0.3574E-03  0.2996E+01
   -0.449988   30.79090  0.1138E-13  0.1479E-04  0.5382E-07  0.1213E-02  0.3327E-03  0.2812E+01
   -0.499988   30.79182  0.1138E-13  0.1508E-04  0.5212E-07  0.1302E-02  0.3108E-03  0.2730E+01
   -0.549989   30.79265  0.1138E-13  0.1533E-04  0.5070E-07  0.1383E-02  0.2912E-03  0.2693E+01
   -0.599989   30.79343  0.1138E-13  0.1554E-04  0.4949E-07  0.1456E-02  0.2734E-03  0.2689E+01
   -0.649990   30.79415  0.1138E-13  0.1572E-04  0.4846E-07  0.1522E-02  0.2572E-03  0.2721E+01
   -0.699992   30.79483  0.1138E-13  0.1587E-04  0.4759E-07  0.1580E-02  0.2424E-03  0.2776E+01
   -0.749993   30.79547  0.1138E-13  0.1599E-04  0.4685E-07  0.1631E-02  0.2286E-03  0.2867E+01
   -0.799994   30.79609  0.1138E-13  0.1609E-04  0.4623E-07  0.1674E-02  0.2158E-03  0.2979E+01
   -0.849996   30.79668  0.1138E-13  0.1617E-04  0.4572E-07  0.1709E-02  0.2039E-03  0.3133E+01
   -0.899998   30.79725  0.1138E-13  0.1622E-04  0.4532E-07  0.1735E-02  0.1926E-03  0.3312E+01
   -0.949999   30.79781  0.1138E-13  0.1624E-04  0.4502E-07  0.1753E-02  0.1821E-03  0.3547E+01
   -1.000001   30.79835  0.1138E-13  0.1625E-04  0.4483E-07  0.1764E-02  0.1721E-03  0.3817E+01
   -1.050003   30.79888  0.1138E-13  0.1623E-04  0.4474E-07  0.1764E-02  0.1626E-03  0.4325E+01
   -1.100004   30.79941  0.1138E-13  0.1620E-04  0.4477E-07  0.1857E-02  0.1535E-03  0.1420E+02
   -1.150006   30.79991  0.1138E-13  0.1613E-04  0.4494E-07  0.1670E-02  0.1454E-03  0.3289E+02
   -1.200008   30.80046  0.1138E-13  0.1605E-04  0.4524E-07  0.1702E-02  0.1370E-03  0.6258E+01
   -1.250009   30.80100  0.1138E-13  0.1593E-04  0.4573E-07  0.1670E-02  0.1290E-03  0.6643E+01
   -1.300010   30.80153  0.1138E-13  0.1579E-04  0.4643E-07  0.1620E-02  0.1212E-03  0.7794E+01
   -1.350012   30.80209  0.1138E-13  0.1561E-04  0.4741E-07  0.1558E-02  0.1137E-03  0.9333E+01
   -1.400013   30.80266  0.1138E-13  0.1539E-04  0.4875E-07  0.1480E-02  0.1064E-03  0.1159E+02
   -1.450014   30.80326  0.1138E-13  0.1513E-04  0.5061E-07  0.1399E-02  0.9921E-04  0.1485E+02
   -1.500014   30.80389  0.1138E-13  0.1482E-04  0.5322E-07  0.1288E-02  0.9213E-04  0.2033E+02
   -1.550014   30.80459  0.1138E-13  0.1444E-04  0.5697E-07  0.1199E-02  0.8502E-04  0.2948E+02
   -1.600015   30.80534  0.1138E-13  0.1397E-04  0.6271E-07  0.1061E-02  0.7801E-04  0.5745E+02
   -1.650014   30.80625  0.1138E-13  0.1336E-04  0.7189E-07  0.9761E-03  0.7058E-04  0.4919E+03
   -1.700014   30.80735  0.1138E-13  0.1252E-04  0.8831E-07  0.7984E-03  0.6297E-04  0.1734E+05
   -1.750013   30.80919  0.1138E-13  0.1142E-04  0.1150E-06  0.7172E-03  0.5320E-04  0.9782E+06
   -1.800012   30.81083  0.1138E-13  0.9952E-05  0.1744E-06  0.4895E-03  0.4543E-04  0.2217E+05
   -1.850010   30.81744  0.1138E-13  0.8399E-05  0.2812E-06  0.4638E-03  0.3198E-04  0.2998E+08
   -1.900008   30.81560  0.1138E-13  0.6650E-05  0.5873E-06  0.2082E-03  0.2620E-04 -0.2861E+06
   -1.950005   30.83548  0.1138E-13  0.4678E-05  0.1462E-05  0.1975E-03  0.1385E-04 -0.4032E+06
   -2.000002   30.83582  0.1138E-13  0.0000E+00  0.0000E+00  0.0000E+00  0.2648E-04  0.0000E+00
