 1 - depth, m
 2 - temperature, C
 3 - salinity, kg/kg
 4 - turbulent kinetic energy, m**2/s**2
 5 - dissipation rate, m**2/s**3
 6 - kinematic heat conductance, m**2/s
 7 - modulus of horizontal velocity, m/s
 8 - Richardson number, n/d
   -0.000000   31.03323  0.2612E-14  0.4952E-05  0.3045E-06  0.4796E-04  0.3793E-03  0.1884E+06
   -0.049997   31.06732  0.2612E-14  0.8813E-05  0.1357E-06  0.1985E-03  0.2107E-03  0.3524E+06
   -0.099994   31.07748  0.2612E-14  0.1058E-04  0.9545E-07  0.4205E-03  0.1555E-03  0.6114E+03
   -0.149992   31.08071  0.2612E-14  0.1172E-04  0.8075E-07  0.5053E-03  0.1377E-03  0.3103E+03
   -0.199991   31.08327  0.2612E-14  0.1260E-04  0.7204E-07  0.6710E-03  0.1232E-03  0.2054E+03
   -0.249989   31.08514  0.2612E-14  0.1331E-04  0.6629E-07  0.8001E-03  0.1123E-03  0.1541E+03
   -0.299988   31.08667  0.2612E-14  0.1389E-04  0.6218E-07  0.9273E-03  0.1033E-03  0.1238E+03
   -0.349988   31.08796  0.2612E-14  0.1437E-04  0.5908E-07  0.1043E-02  0.9547E-04  0.1066E+03
   -0.399988   31.08908  0.2612E-14  0.1477E-04  0.5667E-07  0.1148E-02  0.8860E-04  0.9527E+02
   -0.449988   31.09008  0.2612E-14  0.1512E-04  0.5471E-07  0.1246E-02  0.8251E-04  0.8971E+02
   -0.499988   31.09098  0.2612E-14  0.1542E-04  0.5309E-07  0.1336E-02  0.7715E-04  0.8726E+02
   -0.549989   31.09180  0.2612E-14  0.1568E-04  0.5173E-07  0.1418E-02  0.7231E-04  0.8629E+02
   -0.599989   31.09256  0.2612E-14  0.1591E-04  0.5059E-07  0.1492E-02  0.6796E-04  0.8630E+02
   -0.649990   31.09328  0.2612E-14  0.1610E-04  0.4964E-07  0.1558E-02  0.6396E-04  0.8758E+02
   -0.699992   31.09395  0.2612E-14  0.1626E-04  0.4883E-07  0.1617E-02  0.6030E-04  0.8954E+02
   -0.749993   31.09459  0.2612E-14  0.1640E-04  0.4816E-07  0.1668E-02  0.5689E-04  0.9274E+02
   -0.799994   31.09520  0.2612E-14  0.1651E-04  0.4762E-07  0.1710E-02  0.5375E-04  0.9662E+02
   -0.849996   31.09579  0.2612E-14  0.1660E-04  0.4719E-07  0.1745E-02  0.5078E-04  0.1019E+03
   -0.899998   31.09637  0.2612E-14  0.1667E-04  0.4686E-07  0.1772E-02  0.4802E-04  0.1081E+03
   -0.949999   31.09693  0.2612E-14  0.1671E-04  0.4665E-07  0.1789E-02  0.4539E-04  0.1161E+03
   -1.000001   31.09748  0.2612E-14  0.1673E-04  0.4654E-07  0.1799E-02  0.4293E-04  0.1254E+03
   -1.050003   31.09802  0.2612E-14  0.1672E-04  0.4655E-07  0.1798E-02  0.4056E-04  0.1426E+03
   -1.100004   31.09856  0.2612E-14  0.1670E-04  0.4668E-07  0.1895E-02  0.3832E-04  0.4699E+03
   -1.150006   31.09907  0.2612E-14  0.1665E-04  0.4696E-07  0.1699E-02  0.3633E-04  0.1086E+04
   -1.200008   31.09963  0.2612E-14  0.1657E-04  0.4738E-07  0.1732E-02  0.3423E-04  0.2081E+03
   -1.250009   31.10019  0.2612E-14  0.1647E-04  0.4800E-07  0.1701E-02  0.3224E-04  0.2224E+03
   -1.300010   31.10075  0.2612E-14  0.1634E-04  0.4885E-07  0.1648E-02  0.3031E-04  0.2619E+03
   -1.350011   31.10132  0.2612E-14  0.1617E-04  0.5000E-07  0.1586E-02  0.2845E-04  0.3148E+03
   -1.400013   31.10192  0.2612E-14  0.1596E-04  0.5156E-07  0.1504E-02  0.2662E-04  0.3924E+03
   -1.450013   31.10255  0.2612E-14  0.1571E-04  0.5367E-07  0.1425E-02  0.2483E-04  0.5043E+03
   -1.500014   31.10322  0.2612E-14  0.1540E-04  0.5660E-07  0.1309E-02  0.2306E-04  0.6954E+03
   -1.550014   31.10397  0.2612E-14  0.1502E-04  0.6078E-07  0.1226E-02  0.2129E-04  0.1021E+04
   -1.600014   31.10477  0.2612E-14  0.1454E-04  0.6731E-07  0.1077E-02  0.1954E-04  0.2087E+04
   -1.650014   31.10579  0.2612E-14  0.1391E-04  0.7746E-07  0.9962E-03  0.1763E-04  0.1564E+06
   -1.700013   31.10694  0.2612E-14  0.1306E-04  0.9518E-07  0.8101E-03  0.1574E-04  0.2076E+06
   -1.750013   31.10900  0.2612E-14  0.1196E-04  0.1241E-06  0.7341E-03  0.1326E-04  0.2088E+07
   -1.800011   31.11058  0.2612E-14  0.1052E-04  0.1873E-06  0.5091E-03  0.1139E-04 -0.1419E+06
   -1.850010   31.11793  0.2612E-14  0.8962E-05  0.3051E-06  0.4732E-03  0.8079E-05  0.7981E+09
   -1.900007   31.11584  0.2612E-14  0.7129E-05  0.6374E-06  0.2173E-03  0.6626E-05 -0.6565E+07
   -1.950005   31.13735  0.2612E-14  0.5030E-05  0.1570E-05  0.1992E-03  0.3562E-05 -0.1581E+08
   -2.000002   31.13870  0.2612E-14  0.0000E+00  0.0000E+00  0.0000E+00  0.6687E-05  0.0000E+00
