 1 - depth, m
 2 - temperature, C
 3 - salinity, kg/kg
 4 - turbulent kinetic energy, m**2/s**2
 5 - dissipation rate, m**2/s**3
 6 - kinematic heat conductance, m**2/s
 7 - modulus of horizontal velocity, m/s
 8 - Richardson number, n/d
   -0.000000   29.48116  0.2643E-14  0.4432E-05  0.2563E-06  0.4815E-04  0.1849E-02  0.5200E+04
   -0.049997   29.50842  0.2643E-14  0.7550E-05  0.1138E-06  0.1732E-03  0.1035E-02  0.1327E+03
   -0.099994   29.51852  0.2643E-14  0.9121E-05  0.7873E-07  0.3832E-03  0.7653E-03  0.1507E+02
   -0.149992   29.52144  0.2643E-14  0.1011E-04  0.6619E-07  0.4655E-03  0.6751E-03  0.7334E+01
   -0.199991   29.52375  0.2643E-14  0.1089E-04  0.5884E-07  0.6174E-03  0.6028E-03  0.4740E+01
   -0.249989   29.52545  0.2643E-14  0.1150E-04  0.5402E-07  0.7383E-03  0.5483E-03  0.3494E+01
   -0.299989   29.52683  0.2643E-14  0.1201E-04  0.5059E-07  0.8568E-03  0.5029E-03  0.2792E+01
   -0.349988   29.52799  0.2643E-14  0.1244E-04  0.4802E-07  0.9644E-03  0.4640E-03  0.2395E+01
   -0.399988   29.52900  0.2643E-14  0.1280E-04  0.4602E-07  0.1064E-02  0.4293E-03  0.2161E+01
   -0.449988   29.52990  0.2643E-14  0.1311E-04  0.4438E-07  0.1158E-02  0.3985E-03  0.2040E+01
   -0.499988   29.53071  0.2643E-14  0.1339E-04  0.4303E-07  0.1246E-02  0.3711E-03  0.2003E+01
   -0.549989   29.53145  0.2643E-14  0.1363E-04  0.4190E-07  0.1326E-02  0.3465E-03  0.1976E+01
   -0.599990   29.53214  0.2643E-14  0.1384E-04  0.4095E-07  0.1400E-02  0.3242E-03  0.1986E+01
   -0.649991   29.53278  0.2643E-14  0.1402E-04  0.4015E-07  0.1465E-02  0.3040E-03  0.2002E+01
   -0.699992   29.53338  0.2643E-14  0.1417E-04  0.3949E-07  0.1523E-02  0.2855E-03  0.2051E+01
   -0.749993   29.53395  0.2643E-14  0.1430E-04  0.3894E-07  0.1574E-02  0.2685E-03  0.2104E+01
   -0.799995   29.53450  0.2643E-14  0.1441E-04  0.3849E-07  0.1616E-02  0.2528E-03  0.2194E+01
   -0.849996   29.53503  0.2643E-14  0.1449E-04  0.3814E-07  0.1651E-02  0.2383E-03  0.2289E+01
   -0.899998   29.53554  0.2643E-14  0.1456E-04  0.3787E-07  0.1678E-02  0.2247E-03  0.2434E+01
   -0.950000   29.53604  0.2643E-14  0.1461E-04  0.3770E-07  0.1697E-02  0.2121E-03  0.2591E+01
   -1.000002   29.53653  0.2643E-14  0.1463E-04  0.3760E-07  0.1708E-02  0.2001E-03  0.2813E+01
   -1.050003   29.53701  0.2643E-14  0.1464E-04  0.3760E-07  0.1711E-02  0.1888E-03  0.3180E+01
   -1.100005   29.53749  0.2643E-14  0.1463E-04  0.3768E-07  0.1787E-02  0.1781E-03  0.1071E+02
   -1.150007   29.53795  0.2643E-14  0.1460E-04  0.3789E-07  0.1645E-02  0.1684E-03  0.2365E+02
   -1.200008   29.53844  0.2643E-14  0.1455E-04  0.3820E-07  0.1661E-02  0.1586E-03  0.4584E+01
   -1.250010   29.53893  0.2643E-14  0.1448E-04  0.3865E-07  0.1633E-02  0.1491E-03  0.4918E+01
   -1.300011   29.53942  0.2643E-14  0.1438E-04  0.3927E-07  0.1588E-02  0.1400E-03  0.5721E+01
   -1.350012   29.53993  0.2643E-14  0.1425E-04  0.4011E-07  0.1533E-02  0.1311E-03  0.6861E+01
   -1.400013   29.54046  0.2643E-14  0.1409E-04  0.4123E-07  0.1462E-02  0.1225E-03  0.8397E+01
   -1.450014   29.54101  0.2643E-14  0.1390E-04  0.4273E-07  0.1388E-02  0.1141E-03  0.1068E+02
   -1.500015   29.54159  0.2643E-14  0.1366E-04  0.4478E-07  0.1284E-02  0.1059E-03  0.1427E+02
   -1.550015   29.54222  0.2643E-14  0.1337E-04  0.4765E-07  0.1201E-02  0.9767E-04  0.2008E+02
   -1.600015   29.54290  0.2643E-14  0.1300E-04  0.5192E-07  0.1064E-02  0.8962E-04  0.3419E+02
   -1.650015   29.54370  0.2643E-14  0.1254E-04  0.5840E-07  0.9835E-03  0.8114E-04  0.7419E+02
   -1.700015   29.54460  0.2643E-14  0.1190E-04  0.7008E-07  0.8105E-03  0.7293E-04  0.1414E+03
   -1.750014   29.54613  0.2643E-14  0.1103E-04  0.8943E-07  0.7251E-03  0.6226E-04  0.3667E+04
   -1.800013   29.54755  0.2643E-14  0.9819E-05  0.1297E-06  0.5160E-03  0.5347E-04  0.4913E+05
   -1.850011   29.55244  0.2643E-14  0.8405E-05  0.2048E-06  0.4631E-03  0.3919E-04  0.1494E+09
   -1.900009   29.55217  0.2643E-14  0.6668E-05  0.4267E-06  0.2096E-03  0.3158E-04 -0.1649E+07
   -1.950006   29.56871  0.2643E-14  0.4601E-05  0.1083E-05  0.1718E-03  0.1728E-04 -0.3632E+06
   -2.000003   29.57144  0.2643E-14  0.0000E+00  0.0000E+00  0.0000E+00  0.3006E-04  0.0000E+00
