 1 - depth, m
 2 - temperature, C
 3 - salinity, kg/kg
 4 - turbulent kinetic energy, m**2/s**2
 5 - dissipation rate, m**2/s**3
 6 - kinematic heat conductance, m**2/s
 7 - modulus of horizontal velocity, m/s
 8 - Richardson number, n/d
   -0.000000   30.51769  0.4942E-13  0.4590E-05  0.2775E-06  0.4814E-04  0.6241E-03  0.3400E+05
   -0.049997   30.54765  0.4942E-13  0.8099E-05  0.1230E-06  0.1815E-03  0.3497E-03  0.7711E+02
   -0.099994   30.55831  0.4942E-13  0.9797E-05  0.8541E-07  0.4092E-03  0.2560E-03  0.1285E+03
   -0.149992   30.56129  0.4942E-13  0.1086E-04  0.7220E-07  0.4868E-03  0.2267E-03  0.6313E+02
   -0.199991   30.56368  0.4942E-13  0.1169E-04  0.6439E-07  0.6483E-03  0.2027E-03  0.4133E+02
   -0.249989   30.56543  0.4942E-13  0.1235E-04  0.5925E-07  0.7731E-03  0.1847E-03  0.3078E+02
   -0.299988   30.56686  0.4942E-13  0.1289E-04  0.5557E-07  0.8969E-03  0.1697E-03  0.2468E+02
   -0.349988   30.56806  0.4942E-13  0.1334E-04  0.5281E-07  0.1009E-02  0.1568E-03  0.2118E+02
   -0.399988   30.56910  0.4942E-13  0.1373E-04  0.5067E-07  0.1112E-02  0.1454E-03  0.1895E+02
   -0.449988   30.57003  0.4942E-13  0.1406E-04  0.4892E-07  0.1207E-02  0.1353E-03  0.1780E+02
   -0.499988   30.57087  0.4942E-13  0.1434E-04  0.4749E-07  0.1295E-02  0.1264E-03  0.1735E+02
   -0.549989   30.57164  0.4942E-13  0.1459E-04  0.4629E-07  0.1375E-02  0.1184E-03  0.1712E+02
   -0.599989   30.57235  0.4942E-13  0.1481E-04  0.4529E-07  0.1447E-02  0.1112E-03  0.1717E+02
   -0.649990   30.57301  0.4942E-13  0.1500E-04  0.4445E-07  0.1513E-02  0.1046E-03  0.1739E+02
   -0.699992   30.57364  0.4942E-13  0.1516E-04  0.4374E-07  0.1570E-02  0.9851E-04  0.1784E+02
   -0.749993   30.57424  0.4942E-13  0.1529E-04  0.4316E-07  0.1621E-02  0.9291E-04  0.1843E+02
   -0.799994   30.57481  0.4942E-13  0.1541E-04  0.4269E-07  0.1663E-02  0.8769E-04  0.1927E+02
   -0.849996   30.57536  0.4942E-13  0.1550E-04  0.4232E-07  0.1698E-02  0.8283E-04  0.2027E+02
   -0.899998   30.57590  0.4942E-13  0.1557E-04  0.4205E-07  0.1725E-02  0.7825E-04  0.2157E+02
   -0.949999   30.57642  0.4942E-13  0.1562E-04  0.4187E-07  0.1744E-02  0.7395E-04  0.2310E+02
   -1.000001   30.57694  0.4942E-13  0.1565E-04  0.4179E-07  0.1755E-02  0.6986E-04  0.2504E+02
   -1.050003   30.57745  0.4942E-13  0.1566E-04  0.4181E-07  0.1756E-02  0.6600E-04  0.2841E+02
   -1.100005   30.57795  0.4942E-13  0.1564E-04  0.4194E-07  0.1840E-02  0.6230E-04  0.9484E+02
   -1.150006   30.57843  0.4942E-13  0.1561E-04  0.4220E-07  0.1677E-02  0.5900E-04  0.2127E+03
   -1.200008   30.57895  0.4942E-13  0.1555E-04  0.4258E-07  0.1700E-02  0.5559E-04  0.4118E+02
   -1.250009   30.57947  0.4942E-13  0.1547E-04  0.4313E-07  0.1670E-02  0.5232E-04  0.4417E+02
   -1.300011   30.57999  0.4942E-13  0.1536E-04  0.4387E-07  0.1622E-02  0.4917E-04  0.5170E+02
   -1.350012   30.58053  0.4942E-13  0.1523E-04  0.4487E-07  0.1564E-02  0.4612E-04  0.6205E+02
   -1.400013   30.58109  0.4942E-13  0.1505E-04  0.4621E-07  0.1488E-02  0.4315E-04  0.7658E+02
   -1.450014   30.58168  0.4942E-13  0.1484E-04  0.4799E-07  0.1412E-02  0.4022E-04  0.9765E+02
   -1.500014   30.58230  0.4942E-13  0.1457E-04  0.5045E-07  0.1302E-02  0.3736E-04  0.1323E+03
   -1.550015   30.58298  0.4942E-13  0.1425E-04  0.5388E-07  0.1217E-02  0.3449E-04  0.1875E+03
   -1.600015   30.58372  0.4942E-13  0.1384E-04  0.5907E-07  0.1075E-02  0.3167E-04  0.3544E+03
   -1.650014   30.58461  0.4942E-13  0.1332E-04  0.6700E-07  0.9926E-03  0.2866E-04  0.1099E+05
   -1.700014   30.58561  0.4942E-13  0.1260E-04  0.8111E-07  0.8167E-03  0.2574E-04 -0.2114E+05
   -1.750013   30.58736  0.4942E-13  0.1163E-04  0.1044E-06  0.7307E-03  0.2191E-04 -0.6134E+06
   -1.800012   30.58890  0.4942E-13  0.1031E-04  0.1529E-06  0.5179E-03  0.1880E-04  0.5068E+07
   -1.850010   30.59464  0.4942E-13  0.8797E-05  0.2443E-06  0.4664E-03  0.1366E-04  0.5364E+08
   -1.900008   30.59408  0.4942E-13  0.6963E-05  0.5128E-06  0.2141E-03  0.1100E-04 -0.3770E+08
   -1.950005   30.61293  0.4942E-13  0.4866E-05  0.1281E-05  0.1832E-03  0.5984E-05 -0.2764E+07
   -2.000002   30.61554  0.4942E-13  0.0000E+00  0.0000E+00  0.0000E+00  0.1071E-04  0.0000E+00
