 1 - depth, m
 2 - temperature, C
 3 - salinity, kg/kg
 4 - turbulent kinetic energy, m**2/s**2
 5 - dissipation rate, m**2/s**3
 6 - kinematic heat conductance, m**2/s
 7 - modulus of horizontal velocity, m/s
 8 - Richardson number, n/d
   -0.000000   30.56378  0.5155E-13  0.5060E-05  0.3231E-06  0.5133E-04  0.1496E-02  0.9366E+04
   -0.049997   30.59619  0.5155E-13  0.8645E-05  0.1441E-06  0.1814E-03  0.8542E-03  0.1988E+03
   -0.099994   30.60854  0.5155E-13  0.1049E-04  0.9914E-07  0.4043E-03  0.6277E-03  0.2283E+02
   -0.149992   30.61198  0.5155E-13  0.1164E-04  0.8308E-07  0.4868E-03  0.5546E-03  0.1125E+02
   -0.199990   30.61471  0.5155E-13  0.1254E-04  0.7369E-07  0.6518E-03  0.4954E-03  0.7192E+01
   -0.249989   30.61669  0.5155E-13  0.1325E-04  0.6755E-07  0.7788E-03  0.4512E-03  0.5317E+01
   -0.299988   30.61830  0.5155E-13  0.1383E-04  0.6318E-07  0.9063E-03  0.4145E-03  0.4223E+01
   -0.349988   30.61964  0.5155E-13  0.1431E-04  0.5991E-07  0.1021E-02  0.3830E-03  0.3617E+01
   -0.399987   30.62081  0.5155E-13  0.1472E-04  0.5737E-07  0.1127E-02  0.3552E-03  0.3216E+01
   -0.449987   30.62184  0.5155E-13  0.1507E-04  0.5530E-07  0.1224E-02  0.3307E-03  0.3024E+01
   -0.499988   30.62278  0.5155E-13  0.1536E-04  0.5360E-07  0.1314E-02  0.3091E-03  0.2933E+01
   -0.549988   30.62363  0.5155E-13  0.1562E-04  0.5217E-07  0.1396E-02  0.2897E-03  0.2899E+01
   -0.599989   30.62441  0.5155E-13  0.1585E-04  0.5097E-07  0.1470E-02  0.2721E-03  0.2892E+01
   -0.649990   30.62515  0.5155E-13  0.1603E-04  0.4996E-07  0.1536E-02  0.2561E-03  0.2937E+01
   -0.699991   30.62584  0.5155E-13  0.1620E-04  0.4912E-07  0.1594E-02  0.2414E-03  0.2995E+01
   -0.749992   30.62650  0.5155E-13  0.1633E-04  0.4841E-07  0.1645E-02  0.2278E-03  0.3104E+01
   -0.799994   30.62713  0.5155E-13  0.1644E-04  0.4783E-07  0.1687E-02  0.2151E-03  0.3227E+01
   -0.849995   30.62774  0.5155E-13  0.1652E-04  0.4736E-07  0.1722E-02  0.2033E-03  0.3407E+01
   -0.899997   30.62833  0.5155E-13  0.1658E-04  0.4701E-07  0.1748E-02  0.1922E-03  0.3606E+01
   -0.949999   30.62890  0.5155E-13  0.1662E-04  0.4677E-07  0.1766E-02  0.1817E-03  0.3877E+01
   -1.000000   30.62946  0.5155E-13  0.1663E-04  0.4664E-07  0.1775E-02  0.1717E-03  0.4183E+01
   -1.050002   30.63002  0.5155E-13  0.1662E-04  0.4663E-07  0.1773E-02  0.1623E-03  0.4762E+01
   -1.100004   30.63057  0.5155E-13  0.1659E-04  0.4675E-07  0.1871E-02  0.1533E-03  0.1558E+02
   -1.150005   30.63109  0.5155E-13  0.1654E-04  0.4702E-07  0.1672E-02  0.1453E-03  0.3686E+02
   -1.200007   30.63167  0.5155E-13  0.1646E-04  0.4744E-07  0.1706E-02  0.1369E-03  0.6990E+01
   -1.250008   30.63224  0.5155E-13  0.1635E-04  0.4805E-07  0.1674E-02  0.1289E-03  0.7452E+01
   -1.300010   30.63281  0.5155E-13  0.1620E-04  0.4891E-07  0.1620E-02  0.1212E-03  0.8807E+01
   -1.350011   30.63340  0.5155E-13  0.1603E-04  0.5008E-07  0.1558E-02  0.1137E-03  0.1061E+02
   -1.400012   30.63402  0.5155E-13  0.1581E-04  0.5167E-07  0.1475E-02  0.1064E-03  0.1331E+02
   -1.450013   30.63467  0.5155E-13  0.1555E-04  0.5385E-07  0.1396E-02  0.9918E-04  0.1720E+02
   -1.500013   30.63536  0.5155E-13  0.1522E-04  0.5690E-07  0.1280E-02  0.9209E-04  0.2400E+02
   -1.550013   30.63612  0.5155E-13  0.1483E-04  0.6127E-07  0.1198E-02  0.8492E-04  0.3579E+02
   -1.600013   30.63695  0.5155E-13  0.1432E-04  0.6819E-07  0.1051E-02  0.7790E-04  0.1021E+03
   -1.650013   30.63803  0.5155E-13  0.1367E-04  0.7907E-07  0.9694E-03  0.7010E-04  0.2998E+04
   -1.700013   30.63926  0.5155E-13  0.1276E-04  0.9824E-07  0.7876E-03  0.6242E-04 -0.1389E+02
   -1.750012   30.64148  0.5155E-13  0.1162E-04  0.1294E-06  0.7111E-03  0.5208E-04  0.3332E+06
   -1.800010   30.64311  0.5155E-13  0.1016E-04  0.1966E-06  0.4877E-03  0.4466E-04  0.3512E+07
   -1.850009   30.65111  0.5155E-13  0.8609E-05  0.3236E-06  0.4629E-03  0.3101E-04  0.1060E+09
   -1.900006   30.64848  0.5155E-13  0.6857E-05  0.6922E-06  0.2114E-03  0.2551E-04 -0.2325E+06
   -1.950004   30.67106  0.5155E-13  0.4867E-05  0.1673E-05  0.2063E-03  0.1349E-04 -0.2862E+06
   -2.000001   30.67275  0.5155E-13  0.0000E+00  0.0000E+00  0.0000E+00  0.2649E-04  0.0000E+00
