 1 - depth, m
 2 - temperature, C
 3 - salinity, kg/kg
 4 - turbulent kinetic energy, m**2/s**2
 5 - dissipation rate, m**2/s**3
 6 - kinematic heat conductance, m**2/s
 7 - modulus of horizontal velocity, m/s
 8 - Richardson number, n/d
   -0.000000   31.61506  0.5139E-13  0.5343E-05  0.3538E-06  0.5276E-04  0.5898E-03  0.9242E+04
   -0.049997   31.64982  0.5139E-13  0.9339E-05  0.1570E-06  0.1904E-03  0.3369E-03  0.1356E+03
   -0.099994   31.66247  0.5139E-13  0.1130E-04  0.1083E-06  0.4321E-03  0.2467E-03  0.1380E+03
   -0.149992   31.66597  0.5139E-13  0.1253E-04  0.9123E-07  0.5070E-03  0.2191E-03  0.6838E+02
   -0.199990   31.66881  0.5139E-13  0.1349E-04  0.8117E-07  0.6813E-03  0.1962E-03  0.4445E+02
   -0.249989   31.67087  0.5139E-13  0.1424E-04  0.7457E-07  0.8117E-03  0.1792E-03  0.3306E+02
   -0.299988   31.67255  0.5139E-13  0.1486E-04  0.6985E-07  0.9429E-03  0.1650E-03  0.2643E+02
   -0.349988   31.67395  0.5139E-13  0.1537E-04  0.6630E-07  0.1061E-02  0.1528E-03  0.2261E+02
   -0.399987   31.67517  0.5139E-13  0.1580E-04  0.6354E-07  0.1169E-02  0.1419E-03  0.2019E+02
   -0.449987   31.67625  0.5139E-13  0.1616E-04  0.6130E-07  0.1268E-02  0.1324E-03  0.1891E+02
   -0.499988   31.67723  0.5139E-13  0.1648E-04  0.5944E-07  0.1359E-02  0.1240E-03  0.1841E+02
   -0.549988   31.67812  0.5139E-13  0.1675E-04  0.5789E-07  0.1442E-02  0.1164E-03  0.1812E+02
   -0.599989   31.67895  0.5139E-13  0.1698E-04  0.5659E-07  0.1517E-02  0.1095E-03  0.1815E+02
   -0.649990   31.67973  0.5139E-13  0.1717E-04  0.5549E-07  0.1584E-02  0.1032E-03  0.1834E+02
   -0.699991   31.68046  0.5139E-13  0.1734E-04  0.5456E-07  0.1642E-02  0.9744E-04  0.1879E+02
   -0.749992   31.68115  0.5139E-13  0.1747E-04  0.5380E-07  0.1692E-02  0.9208E-04  0.1937E+02
   -0.799994   31.68181  0.5139E-13  0.1758E-04  0.5317E-07  0.1733E-02  0.8708E-04  0.2024E+02
   -0.849995   31.68246  0.5139E-13  0.1766E-04  0.5267E-07  0.1766E-02  0.8240E-04  0.2127E+02
   -0.899997   31.68308  0.5139E-13  0.1771E-04  0.5230E-07  0.1791E-02  0.7800E-04  0.2265E+02
   -0.949998   31.68369  0.5139E-13  0.1774E-04  0.5206E-07  0.1805E-02  0.7384E-04  0.2426E+02
   -1.000000   31.68428  0.5139E-13  0.1774E-04  0.5194E-07  0.1812E-02  0.6990E-04  0.2635E+02
   -1.050002   31.68487  0.5139E-13  0.1772E-04  0.5196E-07  0.1806E-02  0.6615E-04  0.2987E+02
   -1.100003   31.68546  0.5139E-13  0.1767E-04  0.5212E-07  0.1924E-02  0.6255E-04  0.9609E+02
   -1.150005   31.68601  0.5139E-13  0.1760E-04  0.5248E-07  0.1673E-02  0.5940E-04  0.2437E+03
   -1.200006   31.68664  0.5139E-13  0.1749E-04  0.5300E-07  0.1722E-02  0.5597E-04  0.4478E+02
   -1.250008   31.68724  0.5139E-13  0.1736E-04  0.5376E-07  0.1688E-02  0.5275E-04  0.4800E+02
   -1.300009   31.68786  0.5139E-13  0.1718E-04  0.5483E-07  0.1627E-02  0.4965E-04  0.5708E+02
   -1.350010   31.68850  0.5139E-13  0.1697E-04  0.5628E-07  0.1560E-02  0.4662E-04  0.6983E+02
   -1.400011   31.68916  0.5139E-13  0.1671E-04  0.5827E-07  0.1467E-02  0.4365E-04  0.8913E+02
   -1.450012   31.68987  0.5139E-13  0.1639E-04  0.6102E-07  0.1387E-02  0.4071E-04  0.1179E+03
   -1.500013   31.69063  0.5139E-13  0.1600E-04  0.6493E-07  0.1260E-02  0.3782E-04  0.1713E+03
   -1.550013   31.69149  0.5139E-13  0.1553E-04  0.7059E-07  0.1184E-02  0.3486E-04  0.2755E+03
   -1.600013   31.69242  0.5139E-13  0.1492E-04  0.7984E-07  0.1031E-02  0.3197E-04  0.5462E+03
   -1.650013   31.69371  0.5139E-13  0.1412E-04  0.9426E-07  0.9515E-03  0.2864E-04  0.5893E+05
   -1.700012   31.69513  0.5139E-13  0.1300E-04  0.1210E-06  0.7613E-03  0.2540E-04  0.9197E+05
   -1.750011   31.69808  0.5139E-13  0.1167E-04  0.1631E-06  0.6924E-03  0.2075E-04  0.1799E+07
   -1.800010   31.69958  0.5139E-13  0.1004E-04  0.2572E-06  0.4666E-03  0.1783E-04  0.2427E+06
   -1.850008   31.71071  0.5139E-13  0.8452E-05  0.4331E-06  0.4482E-03  0.1188E-04  0.1064E+09
   -1.900006   31.70525  0.5139E-13  0.6763E-05  0.9094E-06  0.2180E-03  0.9938E-05 -0.1089E+07
   -1.950003   31.73254  0.5139E-13  0.4897E-05  0.2132E-05  0.2307E-03  0.5152E-05 -0.1880E+07
   -2.000000   31.73156  0.5139E-13  0.0000E+00  0.0000E+00  0.0000E+00  0.1096E-04  0.0000E+00
