 1 - depth, m
 2 - temperature, C
 3 - salinity, kg/kg
 4 - turbulent kinetic energy, m**2/s**2
 5 - dissipation rate, m**2/s**3
 6 - kinematic heat conductance, m**2/s
 7 - modulus of horizontal velocity, m/s
 8 - Richardson number, n/d
   -0.000000   30.58875  0.3025E-13  0.5158E-05  0.3177E-06  0.5186E-04  0.2247E-02  0.5037E+04
   -0.049997   30.61979  0.3025E-13  0.8651E-05  0.1405E-06  0.1879E-03  0.1245E-02  0.2198E+03
   -0.099994   30.63086  0.3025E-13  0.1040E-04  0.9757E-07  0.3981E-03  0.9375E-03  0.1068E+02
   -0.149992   30.63423  0.3025E-13  0.1152E-04  0.8174E-07  0.4875E-03  0.8283E-03  0.5341E+01
   -0.199991   30.63686  0.3025E-13  0.1239E-04  0.7251E-07  0.6462E-03  0.7414E-03  0.3430E+01
   -0.249989   30.63879  0.3025E-13  0.1309E-04  0.6647E-07  0.7726E-03  0.6759E-03  0.2543E+01
   -0.299988   30.64036  0.3025E-13  0.1366E-04  0.6219E-07  0.8965E-03  0.6214E-03  0.2025E+01
   -0.349988   30.64168  0.3025E-13  0.1413E-04  0.5898E-07  0.1006E-02  0.5746E-03  0.1757E+01
   -0.399988   30.64283  0.3025E-13  0.1454E-04  0.5646E-07  0.1110E-02  0.5329E-03  0.1614E+01
   -0.449988   30.64385  0.3025E-13  0.1489E-04  0.5438E-07  0.1212E-02  0.4951E-03  0.1567E+01
   -0.499988   30.64477  0.3025E-13  0.1521E-04  0.5265E-07  0.1308E-02  0.4612E-03  0.1543E+01
   -0.549989   30.64561  0.3025E-13  0.1548E-04  0.5119E-07  0.1396E-02  0.4304E-03  0.1539E+01
   -0.599989   30.64637  0.3025E-13  0.1572E-04  0.4997E-07  0.1477E-02  0.4026E-03  0.1532E+01
   -0.649990   30.64709  0.3025E-13  0.1592E-04  0.4895E-07  0.1548E-02  0.3773E-03  0.1545E+01
   -0.699992   30.64776  0.3025E-13  0.1610E-04  0.4811E-07  0.1610E-02  0.3542E-03  0.1552E+01
   -0.749993   30.64840  0.3025E-13  0.1624E-04  0.4741E-07  0.1663E-02  0.3331E-03  0.1584E+01
   -0.799994   30.64901  0.3025E-13  0.1635E-04  0.4686E-07  0.1707E-02  0.3139E-03  0.1613E+01
   -0.849996   30.64960  0.3025E-13  0.1643E-04  0.4642E-07  0.1741E-02  0.2961E-03  0.1677E+01
   -0.899998   30.65017  0.3025E-13  0.1650E-04  0.4610E-07  0.1766E-02  0.2797E-03  0.1749E+01
   -0.949999   30.65072  0.3025E-13  0.1654E-04  0.4589E-07  0.1783E-02  0.2644E-03  0.1874E+01
   -1.000001   30.65127  0.3025E-13  0.1655E-04  0.4579E-07  0.1791E-02  0.2500E-03  0.2009E+01
   -1.050003   30.65181  0.3025E-13  0.1655E-04  0.4581E-07  0.1789E-02  0.2363E-03  0.2295E+01
   -1.100004   30.65235  0.3025E-13  0.1652E-04  0.4594E-07  0.1888E-02  0.2233E-03  0.7494E+01
   -1.150006   30.65286  0.3025E-13  0.1647E-04  0.4623E-07  0.1685E-02  0.2117E-03  0.1764E+02
   -1.200008   30.65343  0.3025E-13  0.1639E-04  0.4666E-07  0.1720E-02  0.1995E-03  0.3366E+01
   -1.250009   30.65398  0.3025E-13  0.1628E-04  0.4728E-07  0.1688E-02  0.1879E-03  0.3576E+01
   -1.300010   30.65454  0.3025E-13  0.1615E-04  0.4814E-07  0.1635E-02  0.1767E-03  0.4240E+01
   -1.350012   30.65512  0.3025E-13  0.1598E-04  0.4930E-07  0.1572E-02  0.1658E-03  0.5084E+01
   -1.400013   30.65572  0.3025E-13  0.1577E-04  0.5087E-07  0.1491E-02  0.1552E-03  0.6393E+01
   -1.450013   30.65636  0.3025E-13  0.1551E-04  0.5300E-07  0.1410E-02  0.1447E-03  0.8215E+01
   -1.500014   30.65703  0.3025E-13  0.1520E-04  0.5598E-07  0.1295E-02  0.1344E-03  0.1147E+02
   -1.550014   30.65778  0.3025E-13  0.1481E-04  0.6025E-07  0.1212E-02  0.1240E-03  0.1710E+02
   -1.600014   30.65860  0.3025E-13  0.1433E-04  0.6689E-07  0.1063E-02  0.1138E-03  0.3554E+03
   -1.650014   30.65964  0.3025E-13  0.1369E-04  0.7727E-07  0.9852E-03  0.1026E-03  0.1313E+03
   -1.700013   30.66084  0.3025E-13  0.1282E-04  0.9557E-07  0.7979E-03  0.9147E-04  0.1172E+04
   -1.750013   30.66294  0.3025E-13  0.1172E-04  0.1250E-06  0.7265E-03  0.7675E-04  0.1584E+05
   -1.800011   30.66445  0.3025E-13  0.1029E-04  0.1905E-06  0.4949E-03  0.6619E-04  0.1911E+05
   -1.850010   30.67243  0.3025E-13  0.8750E-05  0.3122E-06  0.4724E-03  0.4622E-04  0.3045E+08
   -1.900007   30.66969  0.3025E-13  0.7029E-05  0.6430E-06  0.2208E-03  0.3829E-04  0.7752E+05
   -1.950005   30.69173  0.3025E-13  0.4941E-05  0.1578E-05  0.2004E-03  0.2060E-04 -0.2357E+06
   -2.000002   30.69288  0.3025E-13  0.0000E+00  0.0000E+00  0.0000E+00  0.3892E-04  0.0000E+00
