 1 - depth, m
 2 - temperature, C
 3 - salinity, kg/kg
 4 - turbulent kinetic energy, m**2/s**2
 5 - dissipation rate, m**2/s**3
 6 - kinematic heat conductance, m**2/s
 7 - modulus of horizontal velocity, m/s
 8 - Richardson number, n/d
   -0.000000   30.10383  0.5029E-13  0.4705E-05  0.2748E-06  0.4939E-04  0.2231E-02  0.4427E+04
   -0.049997   30.13226  0.5029E-13  0.7911E-05  0.1218E-06  0.1793E-03  0.1235E-02  0.3041E+03
   -0.099994   30.14226  0.5029E-13  0.9502E-05  0.8472E-07  0.3825E-03  0.9251E-03  0.9559E+01
   -0.149992   30.14536  0.5029E-13  0.1052E-04  0.7103E-07  0.4701E-03  0.8149E-03  0.4731E+01
   -0.199991   30.14776  0.5029E-13  0.1132E-04  0.6303E-07  0.6215E-03  0.7278E-03  0.3051E+01
   -0.249989   30.14953  0.5029E-13  0.1195E-04  0.5777E-07  0.7441E-03  0.6619E-03  0.2252E+01
   -0.299989   30.15097  0.5029E-13  0.1247E-04  0.5403E-07  0.8638E-03  0.6072E-03  0.1793E+01
   -0.349988   30.15218  0.5029E-13  0.1290E-04  0.5123E-07  0.9721E-03  0.5602E-03  0.1539E+01
   -0.399988   30.15323  0.5029E-13  0.1327E-04  0.4905E-07  0.1070E-02  0.5186E-03  0.1387E+01
   -0.449988   30.15416  0.5029E-13  0.1358E-04  0.4726E-07  0.1164E-02  0.4818E-03  0.1338E+01
   -0.499988   30.15500  0.5029E-13  0.1386E-04  0.4577E-07  0.1253E-02  0.4488E-03  0.1323E+01
   -0.549989   30.15577  0.5029E-13  0.1411E-04  0.4451E-07  0.1336E-02  0.4191E-03  0.1316E+01
   -0.599990   30.15648  0.5029E-13  0.1432E-04  0.4346E-07  0.1411E-02  0.3921E-03  0.1314E+01
   -0.649991   30.15714  0.5029E-13  0.1450E-04  0.4257E-07  0.1478E-02  0.3676E-03  0.1321E+01
   -0.699992   30.15776  0.5029E-13  0.1465E-04  0.4183E-07  0.1537E-02  0.3453E-03  0.1331E+01
   -0.749993   30.15834  0.5029E-13  0.1477E-04  0.4121E-07  0.1587E-02  0.3249E-03  0.1357E+01
   -0.799995   30.15891  0.5029E-13  0.1487E-04  0.4071E-07  0.1628E-02  0.3061E-03  0.1396E+01
   -0.849996   30.15945  0.5029E-13  0.1495E-04  0.4031E-07  0.1661E-02  0.2887E-03  0.1463E+01
   -0.899998   30.15997  0.5029E-13  0.1501E-04  0.4001E-07  0.1687E-02  0.2725E-03  0.1547E+01
   -0.950000   30.16049  0.5029E-13  0.1505E-04  0.3979E-07  0.1705E-02  0.2573E-03  0.1662E+01
   -1.000001   30.16099  0.5029E-13  0.1507E-04  0.3967E-07  0.1716E-02  0.2428E-03  0.1793E+01
   -1.050003   30.16148  0.5029E-13  0.1507E-04  0.3964E-07  0.1717E-02  0.2292E-03  0.2041E+01
   -1.100005   30.16198  0.5029E-13  0.1504E-04  0.3971E-07  0.1800E-02  0.2161E-03  0.6769E+01
   -1.150006   30.16244  0.5029E-13  0.1500E-04  0.3991E-07  0.1638E-02  0.2045E-03  0.1533E+02
   -1.200008   30.16295  0.5029E-13  0.1494E-04  0.4022E-07  0.1661E-02  0.1925E-03  0.2958E+01
   -1.250010   30.16345  0.5029E-13  0.1485E-04  0.4070E-07  0.1631E-02  0.1810E-03  0.3151E+01
   -1.300011   30.16396  0.5029E-13  0.1473E-04  0.4135E-07  0.1583E-02  0.1699E-03  0.3698E+01
   -1.350012   30.16448  0.5029E-13  0.1459E-04  0.4225E-07  0.1525E-02  0.1592E-03  0.4420E+01
   -1.400013   30.16501  0.5029E-13  0.1441E-04  0.4346E-07  0.1451E-02  0.1488E-03  0.5466E+01
   -1.450014   30.16558  0.5029E-13  0.1419E-04  0.4509E-07  0.1375E-02  0.1386E-03  0.6950E+01
   -1.500015   30.16618  0.5029E-13  0.1392E-04  0.4735E-07  0.1265E-02  0.1285E-03  0.9415E+01
   -1.550015   30.16683  0.5029E-13  0.1359E-04  0.5054E-07  0.1183E-02  0.1185E-03  0.1332E+02
   -1.600015   30.16754  0.5029E-13  0.1319E-04  0.5540E-07  0.1040E-02  0.1086E-03  0.2412E+02
   -1.650015   30.16839  0.5029E-13  0.1267E-04  0.6288E-07  0.9635E-03  0.9814E-04  0.5835E+03
   -1.700014   30.16934  0.5029E-13  0.1195E-04  0.7644E-07  0.7836E-03  0.8799E-04  0.8931E+05
   -1.750013   30.17105  0.5029E-13  0.1098E-04  0.9890E-07  0.7075E-03  0.7438E-04  0.4922E+05
   -1.800012   30.17253  0.5029E-13  0.9661E-05  0.1460E-06  0.4934E-03  0.6368E-04  0.3080E+05
   -1.850010   30.17825  0.5029E-13  0.8150E-05  0.2348E-06  0.4498E-03  0.4534E-04  0.2830E+07
   -1.900008   30.17742  0.5029E-13  0.6412E-05  0.4922E-06  0.2027E-03  0.3652E-04 -0.5525E+04
   -1.950006   30.19563  0.5029E-13  0.4476E-05  0.1238E-05  0.1833E-03  0.1940E-04 -0.4377E+06
   -2.000003   30.19752  0.5029E-13  0.0000E+00  0.0000E+00  0.0000E+00  0.3626E-04  0.0000E+00
