 1 - depth, m
 2 - temperature, C
 3 - salinity, kg/kg
 4 - turbulent kinetic energy, m**2/s**2
 5 - dissipation rate, m**2/s**3
 6 - kinematic heat conductance, m**2/s
 7 - modulus of horizontal velocity, m/s
 8 - Richardson number, n/d
   -0.000000   31.02164  0.1389E-14  0.5020E-05  0.3208E-06  0.5141E-04  0.1115E-02  0.1285E+05
   -0.049997   31.05359  0.1389E-14  0.8670E-05  0.1429E-06  0.1817E-03  0.6364E-03  0.5978E+03
   -0.099994   31.06584  0.1389E-14  0.1052E-04  0.9839E-07  0.4108E-03  0.4662E-03  0.5284E+02
   -0.149992   31.06920  0.1389E-14  0.1167E-04  0.8268E-07  0.4898E-03  0.4122E-03  0.2611E+02
   -0.199991   31.07189  0.1389E-14  0.1257E-04  0.7344E-07  0.6561E-03  0.3683E-03  0.1687E+02
   -0.249989   31.07384  0.1389E-14  0.1328E-04  0.6739E-07  0.7834E-03  0.3355E-03  0.1259E+02
   -0.299988   31.07542  0.1389E-14  0.1386E-04  0.6306E-07  0.9109E-03  0.3083E-03  0.1001E+02
   -0.349988   31.07675  0.1389E-14  0.1434E-04  0.5982E-07  0.1026E-02  0.2849E-03  0.8628E+01
   -0.399988   31.07790  0.1389E-14  0.1474E-04  0.5729E-07  0.1131E-02  0.2642E-03  0.7650E+01
   -0.449988   31.07892  0.1389E-14  0.1509E-04  0.5523E-07  0.1229E-02  0.2460E-03  0.7245E+01
   -0.499988   31.07984  0.1389E-14  0.1538E-04  0.5353E-07  0.1318E-02  0.2299E-03  0.6995E+01
   -0.549989   31.08068  0.1389E-14  0.1564E-04  0.5210E-07  0.1400E-02  0.2155E-03  0.6968E+01
   -0.599989   31.08146  0.1389E-14  0.1586E-04  0.5089E-07  0.1474E-02  0.2024E-03  0.6908E+01
   -0.649990   31.08219  0.1389E-14  0.1604E-04  0.4987E-07  0.1540E-02  0.1905E-03  0.7067E+01
   -0.699992   31.08287  0.1389E-14  0.1620E-04  0.4900E-07  0.1598E-02  0.1796E-03  0.7153E+01
   -0.749993   31.08353  0.1389E-14  0.1633E-04  0.4827E-07  0.1648E-02  0.1694E-03  0.7470E+01
   -0.799994   31.08415  0.1389E-14  0.1643E-04  0.4767E-07  0.1691E-02  0.1600E-03  0.7698E+01
   -0.849996   31.08475  0.1389E-14  0.1651E-04  0.4718E-07  0.1725E-02  0.1512E-03  0.8187E+01
   -0.899998   31.08533  0.1389E-14  0.1656E-04  0.4680E-07  0.1751E-02  0.1429E-03  0.8586E+01
   -0.949999   31.08589  0.1389E-14  0.1659E-04  0.4652E-07  0.1769E-02  0.1351E-03  0.9297E+01
   -1.000001   31.08644  0.1389E-14  0.1660E-04  0.4636E-07  0.1778E-02  0.1277E-03  0.9936E+01
   -1.050003   31.08699  0.1389E-14  0.1658E-04  0.4631E-07  0.1777E-02  0.1207E-03  0.1137E+02
   -1.100004   31.08753  0.1389E-14  0.1654E-04  0.4638E-07  0.1875E-02  0.1140E-03  0.3666E+02
   -1.150006   31.08804  0.1389E-14  0.1648E-04  0.4660E-07  0.1674E-02  0.1081E-03  0.8802E+02
   -1.200008   31.08860  0.1389E-14  0.1639E-04  0.4696E-07  0.1710E-02  0.1018E-03  0.1665E+02
   -1.250009   31.08915  0.1389E-14  0.1628E-04  0.4751E-07  0.1677E-02  0.9590E-04  0.1758E+02
   -1.300010   31.08971  0.1389E-14  0.1613E-04  0.4829E-07  0.1624E-02  0.9016E-04  0.2087E+02
   -1.350012   31.09028  0.1389E-14  0.1595E-04  0.4938E-07  0.1561E-02  0.8460E-04  0.2499E+02
   -1.400013   31.09087  0.1389E-14  0.1572E-04  0.5086E-07  0.1479E-02  0.7916E-04  0.3145E+02
   -1.450013   31.09149  0.1389E-14  0.1545E-04  0.5289E-07  0.1398E-02  0.7383E-04  0.4049E+02
   -1.500014   31.09215  0.1389E-14  0.1513E-04  0.5575E-07  0.1282E-02  0.6856E-04  0.5648E+02
   -1.550014   31.09288  0.1389E-14  0.1473E-04  0.5984E-07  0.1196E-02  0.6327E-04  0.8325E+02
   -1.600014   31.09367  0.1389E-14  0.1423E-04  0.6620E-07  0.1050E-02  0.5806E-04  0.2013E+03
   -1.650014   31.09466  0.1389E-14  0.1359E-04  0.7627E-07  0.9669E-03  0.5242E-04  0.6623E+04
   -1.700014   31.09581  0.1389E-14  0.1270E-04  0.9408E-07  0.7900E-03  0.4679E-04  0.1753E+05
   -1.750013   31.09783  0.1389E-14  0.1157E-04  0.1230E-06  0.7050E-03  0.3938E-04  0.1427E+06
   -1.800011   31.09940  0.1389E-14  0.1005E-04  0.1864E-06  0.4870E-03  0.3374E-04  0.8322E+05
   -1.850010   31.10689  0.1389E-14  0.8429E-05  0.3051E-06  0.4483E-03  0.2355E-04  0.6123E+08
   -1.900008   31.10475  0.1389E-14  0.6607E-05  0.6413E-06  0.1997E-03  0.1915E-04 -0.1825E+06
   -1.950005   31.12636  0.1389E-14  0.4698E-05  0.1561E-05  0.2049E-03  0.1000E-04 -0.2995E+07
   -2.000002   31.12629  0.1389E-14  0.0000E+00  0.0000E+00  0.0000E+00  0.1953E-04  0.0000E+00
