 1 - depth, m
 2 - temperature, C
 3 - salinity, kg/kg
 4 - turbulent kinetic energy, m**2/s**2
 5 - dissipation rate, m**2/s**3
 6 - kinematic heat conductance, m**2/s
 7 - modulus of horizontal velocity, m/s
 8 - Richardson number, n/d
   -0.000000   30.24699  0.1714E-13  0.5423E-05  0.3140E-06  0.5219E-04  0.3306E-02  0.7012E+03
   -0.049997   30.27876  0.1714E-13  0.8790E-05  0.1365E-06  0.2011E-03  0.1792E-02  0.4248E+03
   -0.099994   30.28852  0.1714E-13  0.1036E-04  0.9669E-07  0.3863E-03  0.1403E-02  0.4960E+01
   -0.149992   30.29201  0.1714E-13  0.1138E-04  0.8136E-07  0.4823E-03  0.1248E-02  0.2558E+01
   -0.199991   30.29469  0.1714E-13  0.1219E-04  0.7237E-07  0.6218E-03  0.1128E-02  0.1698E+01
   -0.249989   30.29670  0.1714E-13  0.1284E-04  0.6646E-07  0.7315E-03  0.1034E-02  0.1329E+01
   -0.299989   30.29836  0.1714E-13  0.1339E-04  0.6212E-07  0.8382E-03  0.9547E-03  0.1253E+01
   -0.349988   30.29977  0.1714E-13  0.1389E-04  0.5861E-07  0.9572E-03  0.8803E-03  0.1317E+01
   -0.399988   30.30097  0.1714E-13  0.1434E-04  0.5567E-07  0.1085E-02  0.8079E-03  0.1342E+01
   -0.449988   30.30200  0.1714E-13  0.1475E-04  0.5318E-07  0.1210E-02  0.7406E-03  0.1352E+01
   -0.499988   30.30291  0.1714E-13  0.1510E-04  0.5109E-07  0.1327E-02  0.6799E-03  0.1359E+01
   -0.549989   30.30372  0.1714E-13  0.1541E-04  0.4934E-07  0.1434E-02  0.6253E-03  0.1354E+01
   -0.599990   30.30445  0.1714E-13  0.1566E-04  0.4787E-07  0.1530E-02  0.5762E-03  0.1347E+01
   -0.649991   30.30513  0.1714E-13  0.1587E-04  0.4664E-07  0.1615E-02  0.5321E-03  0.1332E+01
   -0.699992   30.30575  0.1714E-13  0.1603E-04  0.4562E-07  0.1686E-02  0.4924E-03  0.1315E+01
   -0.749993   30.30634  0.1714E-13  0.1615E-04  0.4478E-07  0.1745E-02  0.4567E-03  0.1293E+01
   -0.799995   30.30691  0.1714E-13  0.1623E-04  0.4410E-07  0.1790E-02  0.4245E-03  0.1268E+01
   -0.849996   30.30744  0.1714E-13  0.1627E-04  0.4357E-07  0.1823E-02  0.3956E-03  0.1238E+01
   -0.899998   30.30797  0.1714E-13  0.1629E-04  0.4317E-07  0.1843E-02  0.3695E-03  0.1206E+01
   -0.950000   30.30847  0.1714E-13  0.1628E-04  0.4291E-07  0.1850E-02  0.3461E-03  0.1170E+01
   -1.000001   30.30897  0.1714E-13  0.1625E-04  0.4275E-07  0.1849E-02  0.3250E-03  0.1145E+01
   -1.050003   30.30946  0.1714E-13  0.1619E-04  0.4271E-07  0.1834E-02  0.3061E-03  0.1171E+01
   -1.100005   30.30995  0.1714E-13  0.1611E-04  0.4278E-07  0.1974E-02  0.2888E-03  0.3443E+01
   -1.150007   30.31039  0.1714E-13  0.1601E-04  0.4299E-07  0.1671E-02  0.2745E-03  0.8813E+01
   -1.200008   30.31092  0.1714E-13  0.1589E-04  0.4332E-07  0.1741E-02  0.2586E-03  0.1595E+01
   -1.250010   30.31141  0.1714E-13  0.1574E-04  0.4383E-07  0.1706E-02  0.2438E-03  0.1685E+01
   -1.300011   30.31191  0.1714E-13  0.1555E-04  0.4457E-07  0.1644E-02  0.2295E-03  0.1982E+01
   -1.350012   30.31242  0.1714E-13  0.1534E-04  0.4559E-07  0.1575E-02  0.2156E-03  0.2393E+01
   -1.400013   30.31295  0.1714E-13  0.1508E-04  0.4701E-07  0.1483E-02  0.2019E-03  0.2999E+01
   -1.450014   30.31351  0.1714E-13  0.1478E-04  0.4898E-07  0.1399E-02  0.1884E-03  0.3888E+01
   -1.500015   30.31410  0.1714E-13  0.1442E-04  0.5179E-07  0.1273E-02  0.1751E-03  0.5458E+01
   -1.550015   30.31475  0.1714E-13  0.1399E-04  0.5586E-07  0.1191E-02  0.1615E-03  0.8173E+01
   -1.600015   30.31546  0.1714E-13  0.1345E-04  0.6246E-07  0.1040E-02  0.1483E-03  0.1916E+02
   -1.650015   30.31638  0.1714E-13  0.1276E-04  0.7295E-07  0.9595E-03  0.1334E-03  0.7575E+02
   -1.700014   30.31743  0.1714E-13  0.1180E-04  0.9168E-07  0.7716E-03  0.1186E-03  0.2892E+03
   -1.750013   30.31944  0.1714E-13  0.1059E-04  0.1221E-06  0.6951E-03  0.9804E-04  0.2298E+05
   -1.800012   30.32080  0.1714E-13  0.9068E-05  0.1927E-06  0.4668E-03  0.8368E-04  0.4196E+05
   -1.850011   30.32810  0.1714E-13  0.7554E-05  0.3171E-06  0.4461E-03  0.5643E-04  0.5035E+07
   -1.900008   30.32503  0.1714E-13  0.5954E-05  0.6709E-06  0.2058E-03  0.4686E-04  0.1983E+05
   -1.950006   30.34436  0.1714E-13  0.4223E-05  0.1602E-05  0.2163E-03  0.2398E-04 -0.1514E+05
   -2.000003   30.34353  0.1714E-13  0.0000E+00  0.0000E+00  0.0000E+00  0.5108E-04  0.0000E+00
