 1 - depth, m
 2 - temperature, C
 3 - salinity, kg/kg
 4 - turbulent kinetic energy, m**2/s**2
 5 - dissipation rate, m**2/s**3
 6 - kinematic heat conductance, m**2/s
 7 - modulus of horizontal velocity, m/s
 8 - Richardson number, n/d
   -0.000000   30.72550  0.3838E-13  0.4747E-05  0.2950E-06  0.5035E-04  0.1138E-02  0.2761E+04
   -0.049997   30.75528  0.3839E-13  0.8211E-05  0.1312E-06  0.1762E-03  0.6495E-03  0.3345E+03
   -0.099994   30.76700  0.3839E-13  0.9975E-05  0.9027E-07  0.4038E-03  0.4731E-03  0.4041E+02
   -0.149992   30.77013  0.3839E-13  0.1107E-04  0.7593E-07  0.4812E-03  0.4182E-03  0.1973E+02
   -0.199991   30.77265  0.3839E-13  0.1193E-04  0.6750E-07  0.6439E-03  0.3735E-03  0.1273E+02
   -0.249989   30.77449  0.3839E-13  0.1261E-04  0.6198E-07  0.7691E-03  0.3400E-03  0.9457E+01
   -0.299988   30.77597  0.3839E-13  0.1316E-04  0.5805E-07  0.8940E-03  0.3122E-03  0.7531E+01
   -0.349988   30.77723  0.3839E-13  0.1362E-04  0.5510E-07  0.1007E-02  0.2883E-03  0.6475E+01
   -0.399988   30.77831  0.3839E-13  0.1401E-04  0.5280E-07  0.1110E-02  0.2672E-03  0.5760E+01
   -0.449988   30.77928  0.3839E-13  0.1434E-04  0.5094E-07  0.1206E-02  0.2486E-03  0.5435E+01
   -0.499988   30.78014  0.3839E-13  0.1463E-04  0.4940E-07  0.1294E-02  0.2322E-03  0.5270E+01
   -0.549989   30.78094  0.3839E-13  0.1488E-04  0.4812E-07  0.1375E-02  0.2174E-03  0.5229E+01
   -0.599989   30.78168  0.3839E-13  0.1510E-04  0.4705E-07  0.1448E-02  0.2042E-03  0.5213E+01
   -0.649990   30.78236  0.3839E-13  0.1529E-04  0.4614E-07  0.1513E-02  0.1920E-03  0.5312E+01
   -0.699992   30.78301  0.3839E-13  0.1544E-04  0.4538E-07  0.1571E-02  0.1809E-03  0.5411E+01
   -0.749993   30.78363  0.3839E-13  0.1558E-04  0.4475E-07  0.1621E-02  0.1705E-03  0.5628E+01
   -0.799994   30.78422  0.3839E-13  0.1569E-04  0.4423E-07  0.1664E-02  0.1610E-03  0.5841E+01
   -0.849996   30.78479  0.3839E-13  0.1577E-04  0.4382E-07  0.1698E-02  0.1520E-03  0.6187E+01
   -0.899998   30.78534  0.3839E-13  0.1584E-04  0.4351E-07  0.1725E-02  0.1436E-03  0.6536E+01
   -0.949999   30.78588  0.3839E-13  0.1588E-04  0.4330E-07  0.1743E-02  0.1357E-03  0.7050E+01
   -1.000001   30.78641  0.3839E-13  0.1590E-04  0.4319E-07  0.1753E-02  0.1282E-03  0.7585E+01
   -1.050003   30.78693  0.3839E-13  0.1590E-04  0.4319E-07  0.1753E-02  0.1210E-03  0.8666E+01
   -1.100004   30.78745  0.3839E-13  0.1588E-04  0.4330E-07  0.1843E-02  0.1143E-03  0.2849E+02
   -1.150006   30.78794  0.3839E-13  0.1584E-04  0.4355E-07  0.1665E-02  0.1082E-03  0.6534E+02
   -1.200008   30.78848  0.3839E-13  0.1577E-04  0.4392E-07  0.1693E-02  0.1019E-03  0.1262E+02
   -1.250009   30.78901  0.3839E-13  0.1567E-04  0.4448E-07  0.1662E-02  0.9594E-04  0.1342E+02
   -1.300010   30.78954  0.3839E-13  0.1555E-04  0.4524E-07  0.1611E-02  0.9014E-04  0.1586E+02
   -1.350012   30.79009  0.3839E-13  0.1540E-04  0.4628E-07  0.1551E-02  0.8454E-04  0.1892E+02
   -1.400013   30.79066  0.3839E-13  0.1520E-04  0.4767E-07  0.1472E-02  0.7906E-04  0.2361E+02
   -1.450013   30.79127  0.3839E-13  0.1497E-04  0.4955E-07  0.1396E-02  0.7369E-04  0.2999E+02
   -1.500014   30.79190  0.3839E-13  0.1468E-04  0.5216E-07  0.1280E-02  0.6842E-04  0.4114E+02
   -1.550014   30.79261  0.3839E-13  0.1433E-04  0.5584E-07  0.1199E-02  0.6311E-04  0.5838E+02
   -1.600014   30.79337  0.3839E-13  0.1388E-04  0.6148E-07  0.1050E-02  0.5792E-04  0.1066E+03
   -1.650014   30.79430  0.3839E-13  0.1331E-04  0.7015E-07  0.9768E-03  0.5230E-04  0.1606E+04
   -1.700014   30.79534  0.3839E-13  0.1253E-04  0.8591E-07  0.7896E-03  0.4688E-04 -0.5840E+05
   -1.750013   30.79727  0.3839E-13  0.1147E-04  0.1117E-06  0.7180E-03  0.3945E-04  0.1709E+06
   -1.800011   30.79878  0.3839E-13  0.1006E-04  0.1668E-06  0.4917E-03  0.3391E-04  0.8623E+05
   -1.850010   30.80547  0.3839E-13  0.8488E-05  0.2702E-06  0.4560E-03  0.2389E-04  0.2052E+08
   -1.900008   30.80410  0.3839E-13  0.6690E-05  0.5646E-06  0.2079E-03  0.1943E-04  0.1354E+07
   -1.950005   30.82448  0.3839E-13  0.4718E-05  0.1404E-05  0.1937E-03  0.1032E-04 -0.9890E+06
   -2.000002   30.82573  0.3839E-13  0.0000E+00  0.0000E+00  0.0000E+00  0.1945E-04  0.0000E+00
