 1 - depth, m
 2 - temperature, C
 3 - salinity, kg/kg
 4 - turbulent kinetic energy, m**2/s**2
 5 - dissipation rate, m**2/s**3
 6 - kinematic heat conductance, m**2/s
 7 - modulus of horizontal velocity, m/s
 8 - Richardson number, n/d
   -0.000000   30.61089  0.1909E-14  0.4890E-05  0.3115E-06  0.5143E-04  0.9665E-03  0.3140E+04
   -0.049997   30.64186  0.1909E-14  0.8480E-05  0.1383E-06  0.1779E-03  0.5537E-03  0.8199E+02
   -0.099994   30.65426  0.1909E-14  0.1031E-04  0.9490E-07  0.4124E-03  0.4024E-03  0.5780E+02
   -0.149992   30.65751  0.1909E-14  0.1145E-04  0.7983E-07  0.4874E-03  0.3561E-03  0.2828E+02
   -0.199991   30.66015  0.1909E-14  0.1233E-04  0.7096E-07  0.6541E-03  0.3181E-03  0.1825E+02
   -0.249989   30.66206  0.1909E-14  0.1303E-04  0.6514E-07  0.7807E-03  0.2898E-03  0.1355E+02
   -0.299988   30.66361  0.1909E-14  0.1360E-04  0.6099E-07  0.9078E-03  0.2662E-03  0.1080E+02
   -0.349988   30.66492  0.1909E-14  0.1407E-04  0.5787E-07  0.1023E-02  0.2459E-03  0.9265E+01
   -0.399988   30.66605  0.1909E-14  0.1447E-04  0.5544E-07  0.1128E-02  0.2281E-03  0.8247E+01
   -0.449988   30.66705  0.1909E-14  0.1481E-04  0.5346E-07  0.1225E-02  0.2123E-03  0.7763E+01
   -0.499988   30.66795  0.1909E-14  0.1511E-04  0.5183E-07  0.1314E-02  0.1984E-03  0.7531E+01
   -0.549989   30.66878  0.1909E-14  0.1536E-04  0.5046E-07  0.1396E-02  0.1859E-03  0.7450E+01
   -0.599989   30.66954  0.1909E-14  0.1558E-04  0.4930E-07  0.1471E-02  0.1746E-03  0.7429E+01
   -0.649990   30.67026  0.1909E-14  0.1577E-04  0.4832E-07  0.1537E-02  0.1643E-03  0.7543E+01
   -0.699992   30.67093  0.1909E-14  0.1593E-04  0.4749E-07  0.1596E-02  0.1548E-03  0.7685E+01
   -0.749993   30.67157  0.1909E-14  0.1606E-04  0.4680E-07  0.1647E-02  0.1460E-03  0.7963E+01
   -0.799994   30.67218  0.1909E-14  0.1617E-04  0.4622E-07  0.1690E-02  0.1379E-03  0.8263E+01
   -0.849996   30.67277  0.1909E-14  0.1625E-04  0.4575E-07  0.1726E-02  0.1303E-03  0.8717E+01
   -0.899998   30.67334  0.1909E-14  0.1631E-04  0.4539E-07  0.1753E-02  0.1231E-03  0.9201E+01
   -0.949999   30.67390  0.1909E-14  0.1635E-04  0.4513E-07  0.1772E-02  0.1164E-03  0.9885E+01
   -1.000001   30.67444  0.1909E-14  0.1637E-04  0.4498E-07  0.1783E-02  0.1100E-03  0.1062E+02
   -1.050003   30.67498  0.1909E-14  0.1636E-04  0.4493E-07  0.1784E-02  0.1039E-03  0.1207E+02
   -1.100004   30.67551  0.1909E-14  0.1633E-04  0.4499E-07  0.1874E-02  0.9817E-04  0.3986E+02
   -1.150006   30.67601  0.1909E-14  0.1628E-04  0.4520E-07  0.1696E-02  0.9302E-04  0.9013E+02
   -1.200008   30.67656  0.1909E-14  0.1620E-04  0.4554E-07  0.1724E-02  0.8765E-04  0.1740E+02
   -1.250009   30.67709  0.1909E-14  0.1610E-04  0.4606E-07  0.1694E-02  0.8254E-04  0.1846E+02
   -1.300010   30.67764  0.1909E-14  0.1597E-04  0.4679E-07  0.1644E-02  0.7759E-04  0.2166E+02
   -1.350012   30.67819  0.1909E-14  0.1581E-04  0.4780E-07  0.1584E-02  0.7282E-04  0.2581E+02
   -1.400013   30.67877  0.1909E-14  0.1560E-04  0.4917E-07  0.1506E-02  0.6814E-04  0.3198E+02
   -1.450014   30.67938  0.1909E-14  0.1536E-04  0.5104E-07  0.1429E-02  0.6356E-04  0.4062E+02
   -1.500014   30.68001  0.1909E-14  0.1506E-04  0.5364E-07  0.1315E-02  0.5905E-04  0.5544E+02
   -1.550014   30.68071  0.1909E-14  0.1470E-04  0.5734E-07  0.1233E-02  0.5452E-04  0.7923E+02
   -1.600015   30.68147  0.1909E-14  0.1425E-04  0.6309E-07  0.1087E-02  0.5008E-04  0.1676E+03
   -1.650014   30.68240  0.1909E-14  0.1366E-04  0.7199E-07  0.1008E-02  0.4526E-04  0.4819E+03
   -1.700014   30.68345  0.1909E-14  0.1286E-04  0.8771E-07  0.8224E-03  0.4053E-04  0.2052E+05
   -1.750013   30.68531  0.1909E-14  0.1182E-04  0.1133E-06  0.7436E-03  0.3424E-04  0.2259E+06
   -1.800012   30.68670  0.1909E-14  0.1045E-04  0.1671E-06  0.5206E-03  0.2954E-04  0.1054E+06
   -1.850010   30.69307  0.1909E-14  0.8924E-05  0.2709E-06  0.4808E-03  0.2108E-04  0.2772E+08
   -1.900008   30.69172  0.1909E-14  0.7101E-05  0.5675E-06  0.2223E-03  0.1724E-04 -0.4771E+05
   -1.950005   30.71066  0.1909E-14  0.4960E-05  0.1417E-05  0.1900E-03  0.9341E-05 -0.3701E+07
   -2.000002   30.71329  0.1909E-14  0.0000E+00  0.0000E+00  0.0000E+00  0.1723E-04  0.0000E+00
