 1 - depth, m
 2 - temperature, C
 3 - salinity, kg/kg
 4 - turbulent kinetic energy, m**2/s**2
 5 - dissipation rate, m**2/s**3
 6 - kinematic heat conductance, m**2/s
 7 - modulus of horizontal velocity, m/s
 8 - Richardson number, n/d
   -0.000000   30.79042  0.5788E-14  0.5303E-05  0.3380E-06  0.5288E-04  0.2121E-02  0.6603E+04
   -0.049997   30.82283  0.5788E-14  0.8914E-05  0.1500E-06  0.1866E-03  0.1195E-02  0.7922E+03
   -0.099994   30.83489  0.5788E-14  0.1075E-04  0.1035E-06  0.4044E-03  0.8922E-03  0.1223E+02
   -0.149992   30.83842  0.5788E-14  0.1192E-04  0.8665E-07  0.4906E-03  0.7891E-03  0.6055E+01
   -0.199990   30.84120  0.5788E-14  0.1283E-04  0.7683E-07  0.6537E-03  0.7063E-03  0.3882E+01
   -0.249989   30.84322  0.5788E-14  0.1356E-04  0.7042E-07  0.7812E-03  0.6442E-03  0.2860E+01
   -0.299988   30.84487  0.5788E-14  0.1415E-04  0.6587E-07  0.9073E-03  0.5924E-03  0.2282E+01
   -0.349988   30.84625  0.5788E-14  0.1464E-04  0.6247E-07  0.1020E-02  0.5480E-03  0.1959E+01
   -0.399987   30.84746  0.5788E-14  0.1505E-04  0.5982E-07  0.1125E-02  0.5085E-03  0.1778E+01
   -0.449987   30.84852  0.5788E-14  0.1541E-04  0.5765E-07  0.1226E-02  0.4732E-03  0.1690E+01
   -0.499988   30.84948  0.5788E-14  0.1573E-04  0.5585E-07  0.1319E-02  0.4416E-03  0.1664E+01
   -0.549988   30.85036  0.5788E-14  0.1600E-04  0.5435E-07  0.1404E-02  0.4132E-03  0.1645E+01
   -0.599989   30.85117  0.5788E-14  0.1624E-04  0.5310E-07  0.1481E-02  0.3874E-03  0.1653E+01
   -0.649990   30.85193  0.5788E-14  0.1643E-04  0.5205E-07  0.1550E-02  0.3639E-03  0.1663E+01
   -0.699991   30.85264  0.5788E-14  0.1660E-04  0.5118E-07  0.1609E-02  0.3425E-03  0.1699E+01
   -0.749992   30.85332  0.5788E-14  0.1674E-04  0.5047E-07  0.1659E-02  0.3228E-03  0.1737E+01
   -0.799994   30.85397  0.5788E-14  0.1684E-04  0.4989E-07  0.1700E-02  0.3046E-03  0.1808E+01
   -0.849995   30.85459  0.5788E-14  0.1692E-04  0.4945E-07  0.1731E-02  0.2877E-03  0.1887E+01
   -0.899997   30.85520  0.5788E-14  0.1698E-04  0.4913E-07  0.1754E-02  0.2720E-03  0.2011E+01
   -0.949999   30.85580  0.5788E-14  0.1700E-04  0.4893E-07  0.1768E-02  0.2573E-03  0.2152E+01
   -1.000000   30.85638  0.5788E-14  0.1701E-04  0.4885E-07  0.1773E-02  0.2434E-03  0.2352E+01
   -1.050002   30.85696  0.5788E-14  0.1699E-04  0.4890E-07  0.1766E-02  0.2302E-03  0.2678E+01
   -1.100004   30.85754  0.5788E-14  0.1694E-04  0.4908E-07  0.1882E-02  0.2175E-03  0.8502E+01
   -1.150005   30.85808  0.5788E-14  0.1687E-04  0.4946E-07  0.1632E-02  0.2064E-03  0.2314E+02
   -1.200007   30.85871  0.5788E-14  0.1677E-04  0.4999E-07  0.1680E-02  0.1944E-03  0.4134E+01
   -1.250008   30.85931  0.5788E-14  0.1664E-04  0.5076E-07  0.1645E-02  0.1831E-03  0.4468E+01
   -1.300009   30.85992  0.5788E-14  0.1647E-04  0.5182E-07  0.1583E-02  0.1722E-03  0.5371E+01
   -1.350011   30.86055  0.5788E-14  0.1626E-04  0.5327E-07  0.1518E-02  0.1615E-03  0.6697E+01
   -1.400012   30.86122  0.5788E-14  0.1601E-04  0.5524E-07  0.1422E-02  0.1512E-03  0.8741E+01
   -1.450012   30.86193  0.5788E-14  0.1570E-04  0.5797E-07  0.1349E-02  0.1408E-03  0.1185E+02
   -1.500013   30.86269  0.5788E-14  0.1532E-04  0.6187E-07  0.1214E-02  0.1307E-03  0.1808E+02
   -1.550013   30.86357  0.5788E-14  0.1485E-04  0.6749E-07  0.1154E-02  0.1203E-03  0.2925E+02
   -1.600013   30.86451  0.5788E-14  0.1425E-04  0.7706E-07  0.9877E-03  0.1103E-03  0.1168E+03
   -1.650013   30.86589  0.5788E-14  0.1343E-04  0.9159E-07  0.9217E-03  0.9846E-04  0.7009E+04
   -1.700012   30.86730  0.5788E-14  0.1232E-04  0.1174E-06  0.7244E-03  0.8735E-04 -0.5307E+03
   -1.750011   30.87054  0.5788E-14  0.1099E-04  0.1598E-06  0.6673E-03  0.7089E-04  0.5230E+05
   -1.800010   30.87174  0.5788E-14  0.9489E-05  0.2498E-06  0.4444E-03  0.6131E-04  0.1651E+04
   -1.850008   30.88387  0.5788E-14  0.7979E-05  0.4285E-06  0.4366E-03  0.4082E-04  0.5969E+07
   -1.900006   30.87720  0.5788E-14  0.6412E-05  0.9019E-06  0.2054E-03  0.3426E-04 -0.2887E+06
   -1.950004   30.90461  0.5788E-14  0.4632E-05  0.2094E-05  0.2322E-03  0.1774E-04 -0.6519E+05
   -2.000000   30.90423  0.5788E-14  0.0000E+00  0.0000E+00  0.0000E+00  0.3723E-04  0.0000E+00
