 1 - depth, m
 2 - temperature, C
 3 - salinity, kg/kg
 4 - turbulent kinetic energy, m**2/s**2
 5 - dissipation rate, m**2/s**3
 6 - kinematic heat conductance, m**2/s
 7 - modulus of horizontal velocity, m/s
 8 - Richardson number, n/d
   -0.000000   30.20031  0.7041E-14  0.4686E-05  0.2858E-06  0.4946E-04  0.1588E-02  0.5362E+04
   -0.049997   30.22958  0.7041E-14  0.8031E-05  0.1273E-06  0.1761E-03  0.9053E-03  0.1900E+03
   -0.099994   30.24076  0.7041E-14  0.9743E-05  0.8771E-07  0.3947E-03  0.6630E-03  0.2064E+02
   -0.149992   30.24387  0.7041E-14  0.1082E-04  0.7365E-07  0.4763E-03  0.5854E-03  0.1011E+02
   -0.199991   30.24634  0.7041E-14  0.1166E-04  0.6542E-07  0.6358E-03  0.5227E-03  0.6503E+01
   -0.249989   30.24815  0.7041E-14  0.1232E-04  0.6004E-07  0.7601E-03  0.4757E-03  0.4790E+01
   -0.299989   30.24962  0.7041E-14  0.1287E-04  0.5622E-07  0.8840E-03  0.4366E-03  0.3824E+01
   -0.349988   30.25085  0.7041E-14  0.1333E-04  0.5336E-07  0.9962E-03  0.4032E-03  0.3261E+01
   -0.399988   30.25192  0.7041E-14  0.1371E-04  0.5114E-07  0.1099E-02  0.3735E-03  0.2919E+01
   -0.449988   30.25287  0.7041E-14  0.1404E-04  0.4934E-07  0.1194E-02  0.3475E-03  0.2730E+01
   -0.499988   30.25373  0.7041E-14  0.1433E-04  0.4786E-07  0.1282E-02  0.3245E-03  0.2670E+01
   -0.549989   30.25452  0.7041E-14  0.1458E-04  0.4662E-07  0.1362E-02  0.3039E-03  0.2624E+01
   -0.599990   30.25525  0.7041E-14  0.1480E-04  0.4559E-07  0.1435E-02  0.2852E-03  0.2642E+01
   -0.649991   30.25593  0.7041E-14  0.1498E-04  0.4471E-07  0.1500E-02  0.2682E-03  0.2662E+01
   -0.699992   30.25657  0.7041E-14  0.1514E-04  0.4398E-07  0.1558E-02  0.2526E-03  0.2742E+01
   -0.749993   30.25718  0.7041E-14  0.1528E-04  0.4338E-07  0.1608E-02  0.2382E-03  0.2818E+01
   -0.799995   30.25777  0.7041E-14  0.1539E-04  0.4288E-07  0.1651E-02  0.2248E-03  0.2961E+01
   -0.849996   30.25833  0.7041E-14  0.1547E-04  0.4249E-07  0.1686E-02  0.2123E-03  0.3096E+01
   -0.899998   30.25888  0.7041E-14  0.1554E-04  0.4219E-07  0.1713E-02  0.2005E-03  0.3313E+01
   -0.950000   30.25941  0.7041E-14  0.1559E-04  0.4200E-07  0.1732E-02  0.1894E-03  0.3526E+01
   -1.000001   30.25994  0.7041E-14  0.1561E-04  0.4189E-07  0.1743E-02  0.1789E-03  0.3846E+01
   -1.050003   30.26045  0.7041E-14  0.1562E-04  0.4189E-07  0.1744E-02  0.1690E-03  0.4335E+01
   -1.100005   30.26097  0.7041E-14  0.1560E-04  0.4200E-07  0.1829E-02  0.1595E-03  0.1449E+02
   -1.150006   30.26145  0.7041E-14  0.1556E-04  0.4224E-07  0.1664E-02  0.1511E-03  0.3316E+02
   -1.200008   30.26199  0.7041E-14  0.1550E-04  0.4260E-07  0.1687E-02  0.1423E-03  0.6316E+01
   -1.250010   30.26251  0.7041E-14  0.1541E-04  0.4313E-07  0.1657E-02  0.1339E-03  0.6810E+01
   -1.300011   30.26304  0.7041E-14  0.1530E-04  0.4386E-07  0.1608E-02  0.1258E-03  0.7937E+01
   -1.350012   30.26359  0.7041E-14  0.1515E-04  0.4485E-07  0.1550E-02  0.1180E-03  0.9620E+01
   -1.400013   30.26416  0.7041E-14  0.1497E-04  0.4618E-07  0.1473E-02  0.1104E-03  0.1188E+02
   -1.450014   30.26475  0.7041E-14  0.1474E-04  0.4797E-07  0.1398E-02  0.1029E-03  0.1533E+02
   -1.500015   30.26538  0.7041E-14  0.1447E-04  0.5044E-07  0.1286E-02  0.9552E-04  0.2096E+02
   -1.550015   30.26607  0.7041E-14  0.1413E-04  0.5392E-07  0.1206E-02  0.8812E-04  0.3026E+02
   -1.600015   30.26682  0.7041E-14  0.1371E-04  0.5930E-07  0.1059E-02  0.8093E-04  0.6391E+02
   -1.650015   30.26775  0.7041E-14  0.1317E-04  0.6751E-07  0.9860E-03  0.7309E-04  0.4736E+03
   -1.700014   30.26875  0.7041E-14  0.1242E-04  0.8224E-07  0.7997E-03  0.6568E-04  0.3229E+04
   -1.750013   30.27062  0.7041E-14  0.1141E-04  0.1068E-06  0.7281E-03  0.5554E-04  0.9312E+05
   -1.800012   30.27215  0.7041E-14  0.1008E-04  0.1591E-06  0.5040E-03  0.4772E-04  0.6844E+05
   -1.850010   30.27831  0.7041E-14  0.8562E-05  0.2559E-06  0.4666E-03  0.3423E-04  0.6972E+07
   -1.900008   30.27713  0.7041E-14  0.6804E-05  0.5425E-06  0.2116E-03  0.2784E-04 -0.4586E+05
   -1.950006   30.29637  0.7041E-14  0.4747E-05  0.1355E-05  0.1872E-03  0.1502E-04 -0.7110E+06
   -2.000003   30.29902  0.7041E-14  0.0000E+00  0.0000E+00  0.0000E+00  0.2739E-04  0.0000E+00
