 1 - depth, m
 2 - temperature, C
 3 - salinity, kg/kg
 4 - turbulent kinetic energy, m**2/s**2
 5 - dissipation rate, m**2/s**3
 6 - kinematic heat conductance, m**2/s
 7 - modulus of horizontal velocity, m/s
 8 - Richardson number, n/d
   -0.000000   31.13996  0.7307E-14  0.4978E-05  0.3172E-06  0.5181E-04  0.1659E-02  0.7854E+04
   -0.049997   31.17005  0.7307E-14  0.8491E-05  0.1413E-06  0.1780E-03  0.9533E-03  0.2406E+04
   -0.099994   31.18203  0.7307E-14  0.1033E-04  0.9683E-07  0.4048E-03  0.6965E-03  0.1691E+02
   -0.149992   31.18528  0.7307E-14  0.1148E-04  0.8113E-07  0.4849E-03  0.6155E-03  0.8303E+01
   -0.199991   31.18787  0.7307E-14  0.1238E-04  0.7198E-07  0.6513E-03  0.5497E-03  0.5307E+01
   -0.249989   31.18975  0.7307E-14  0.1309E-04  0.6603E-07  0.7787E-03  0.5007E-03  0.3915E+01
   -0.299988   31.19128  0.7307E-14  0.1368E-04  0.6181E-07  0.9070E-03  0.4599E-03  0.3116E+01
   -0.349988   31.19257  0.7307E-14  0.1417E-04  0.5867E-07  0.1023E-02  0.4250E-03  0.2665E+01
   -0.399987   31.19368  0.7307E-14  0.1458E-04  0.5623E-07  0.1129E-02  0.3942E-03  0.2376E+01
   -0.449988   31.19467  0.7307E-14  0.1494E-04  0.5427E-07  0.1227E-02  0.3670E-03  0.2228E+01
   -0.499988   31.19557  0.7307E-14  0.1525E-04  0.5265E-07  0.1318E-02  0.3430E-03  0.2168E+01
   -0.549988   31.19638  0.7307E-14  0.1552E-04  0.5131E-07  0.1401E-02  0.3216E-03  0.2138E+01
   -0.599989   31.19714  0.7307E-14  0.1575E-04  0.5019E-07  0.1476E-02  0.3021E-03  0.2140E+01
   -0.649990   31.19785  0.7307E-14  0.1595E-04  0.4925E-07  0.1543E-02  0.2844E-03  0.2168E+01
   -0.699991   31.19852  0.7307E-14  0.1613E-04  0.4847E-07  0.1602E-02  0.2681E-03  0.2220E+01
   -0.749993   31.19915  0.7307E-14  0.1627E-04  0.4783E-07  0.1654E-02  0.2530E-03  0.2296E+01
   -0.799994   31.19976  0.7307E-14  0.1639E-04  0.4731E-07  0.1697E-02  0.2390E-03  0.2396E+01
   -0.849996   31.20035  0.7307E-14  0.1649E-04  0.4691E-07  0.1733E-02  0.2259E-03  0.2524E+01
   -0.899997   31.20092  0.7307E-14  0.1657E-04  0.4662E-07  0.1760E-02  0.2135E-03  0.2683E+01
   -0.949999   31.20148  0.7307E-14  0.1662E-04  0.4644E-07  0.1778E-02  0.2019E-03  0.2878E+01
   -1.000001   31.20203  0.7307E-14  0.1665E-04  0.4637E-07  0.1789E-02  0.1909E-03  0.3117E+01
   -1.050002   31.20257  0.7307E-14  0.1666E-04  0.4641E-07  0.1789E-02  0.1805E-03  0.3544E+01
   -1.100004   31.20311  0.7307E-14  0.1664E-04  0.4658E-07  0.1881E-02  0.1705E-03  0.1172E+02
   -1.150006   31.20362  0.7307E-14  0.1660E-04  0.4690E-07  0.1697E-02  0.1617E-03  0.2708E+02
   -1.200007   31.20419  0.7307E-14  0.1654E-04  0.4736E-07  0.1726E-02  0.1524E-03  0.5184E+01
   -1.250009   31.20475  0.7307E-14  0.1645E-04  0.4802E-07  0.1694E-02  0.1435E-03  0.5558E+01
   -1.300010   31.20531  0.7307E-14  0.1632E-04  0.4891E-07  0.1642E-02  0.1350E-03  0.6542E+01
   -1.350011   31.20589  0.7307E-14  0.1617E-04  0.5011E-07  0.1581E-02  0.1267E-03  0.7897E+01
   -1.400012   31.20650  0.7307E-14  0.1597E-04  0.5171E-07  0.1500E-02  0.1186E-03  0.9846E+01
   -1.450013   31.20714  0.7307E-14  0.1573E-04  0.5387E-07  0.1422E-02  0.1106E-03  0.1272E+02
   -1.500014   31.20782  0.7307E-14  0.1543E-04  0.5687E-07  0.1307E-02  0.1028E-03  0.1760E+02
   -1.550014   31.20858  0.7307E-14  0.1506E-04  0.6111E-07  0.1223E-02  0.9491E-04  0.2604E+02
   -1.600014   31.20939  0.7307E-14  0.1459E-04  0.6769E-07  0.1076E-02  0.8719E-04  0.7527E+02
   -1.650014   31.21044  0.7307E-14  0.1398E-04  0.7788E-07  0.9958E-03  0.7868E-04  0.4378E+04
   -1.700013   31.21160  0.7307E-14  0.1314E-04  0.9585E-07  0.8099E-03  0.7044E-04  0.4497E+05
   -1.750012   31.21373  0.7307E-14  0.1205E-04  0.1253E-06  0.7354E-03  0.5934E-04  0.7463E+05
   -1.800011   31.21535  0.7307E-14  0.1062E-04  0.1901E-06  0.5065E-03  0.5110E-04 -0.5122E+04
   -1.850009   31.22293  0.7307E-14  0.9059E-05  0.3092E-06  0.4771E-03  0.3627E-04  0.1786E+08
   -1.900007   31.22085  0.7307E-14  0.7271E-05  0.6502E-06  0.2185E-03  0.2979E-04 -0.4668E+05
   -1.950004   31.24286  0.7307E-14  0.5117E-05  0.1593E-05  0.1973E-03  0.1619E-04 -0.1595E+06
   -2.000001   31.24505  0.7307E-14  0.0000E+00  0.0000E+00  0.0000E+00  0.2985E-04  0.0000E+00
