 1 - depth, m
 2 - temperature, C
 3 - salinity, kg/kg
 4 - turbulent kinetic energy, m**2/s**2
 5 - dissipation rate, m**2/s**3
 6 - kinematic heat conductance, m**2/s
 7 - modulus of horizontal velocity, m/s
 8 - Richardson number, n/d
   -0.000000   29.61694  0.7665E-13  0.4187E-05  0.2417E-06  0.4755E-04  0.1294E-02  0.1183E+05
   -0.049997   29.64291  0.7665E-13  0.7253E-05  0.1074E-06  0.1658E-03  0.7371E-03  0.3535E+03
   -0.099994   29.65326  0.7665E-13  0.8813E-05  0.7379E-07  0.3863E-03  0.5316E-03  0.2641E+02
   -0.149992   29.65599  0.7665E-13  0.9776E-05  0.6222E-07  0.4613E-03  0.4693E-03  0.1269E+02
   -0.199991   29.65820  0.7665E-13  0.1053E-04  0.5541E-07  0.6140E-03  0.4184E-03  0.8222E+01
   -0.249989   29.65981  0.7665E-13  0.1113E-04  0.5093E-07  0.7337E-03  0.3802E-03  0.6084E+01
   -0.299989   29.66112  0.7665E-13  0.1162E-04  0.4774E-07  0.8517E-03  0.3484E-03  0.4857E+01
   -0.349988   29.66223  0.7665E-13  0.1203E-04  0.4535E-07  0.9591E-03  0.3211E-03  0.4167E+01
   -0.399988   29.66319  0.7666E-13  0.1238E-04  0.4349E-07  0.1058E-02  0.2970E-03  0.3721E+01
   -0.449988   29.66405  0.7666E-13  0.1268E-04  0.4198E-07  0.1149E-02  0.2758E-03  0.3502E+01
   -0.499988   29.66482  0.7666E-13  0.1295E-04  0.4075E-07  0.1233E-02  0.2570E-03  0.3413E+01
   -0.549989   29.66552  0.7666E-13  0.1318E-04  0.3971E-07  0.1311E-02  0.2403E-03  0.3377E+01
   -0.599990   29.66617  0.7666E-13  0.1338E-04  0.3885E-07  0.1381E-02  0.2251E-03  0.3385E+01
   -0.649991   29.66678  0.7666E-13  0.1355E-04  0.3813E-07  0.1444E-02  0.2114E-03  0.3439E+01
   -0.699992   29.66736  0.7666E-13  0.1371E-04  0.3753E-07  0.1501E-02  0.1987E-03  0.3525E+01
   -0.749993   29.66791  0.7666E-13  0.1384E-04  0.3703E-07  0.1550E-02  0.1870E-03  0.3654E+01
   -0.799995   29.66843  0.7666E-13  0.1395E-04  0.3663E-07  0.1592E-02  0.1762E-03  0.3816E+01
   -0.849997   29.66894  0.7666E-13  0.1404E-04  0.3632E-07  0.1627E-02  0.1661E-03  0.4028E+01
   -0.899998   29.66943  0.7666E-13  0.1411E-04  0.3608E-07  0.1654E-02  0.1566E-03  0.4280E+01
   -0.950000   29.66991  0.7666E-13  0.1416E-04  0.3593E-07  0.1674E-02  0.1477E-03  0.4597E+01
   -1.000002   29.67038  0.7666E-13  0.1420E-04  0.3587E-07  0.1686E-02  0.1393E-03  0.4973E+01
   -1.050003   29.67085  0.7666E-13  0.1421E-04  0.3588E-07  0.1690E-02  0.1313E-03  0.5664E+01
   -1.100005   29.67131  0.7666E-13  0.1421E-04  0.3599E-07  0.1759E-02  0.1238E-03  0.1912E+02
   -1.150007   29.67176  0.7666E-13  0.1419E-04  0.3620E-07  0.1635E-02  0.1170E-03  0.4139E+02
   -1.200008   29.67223  0.7666E-13  0.1415E-04  0.3652E-07  0.1645E-02  0.1100E-03  0.8147E+01
   -1.250010   29.67270  0.7666E-13  0.1409E-04  0.3697E-07  0.1618E-02  0.1034E-03  0.8720E+01
   -1.300011   29.67318  0.7666E-13  0.1401E-04  0.3758E-07  0.1575E-02  0.9699E-04  0.1018E+02
   -1.350013   29.67367  0.7666E-13  0.1390E-04  0.3840E-07  0.1522E-02  0.9081E-04  0.1214E+02
   -1.400014   29.67418  0.7666E-13  0.1376E-04  0.3948E-07  0.1454E-02  0.8479E-04  0.1487E+02
   -1.450014   29.67472  0.7666E-13  0.1359E-04  0.4090E-07  0.1382E-02  0.7893E-04  0.1875E+02
   -1.500015   29.67528  0.7666E-13  0.1337E-04  0.4283E-07  0.1282E-02  0.7318E-04  0.2489E+02
   -1.550015   29.67589  0.7666E-13  0.1310E-04  0.4551E-07  0.1198E-02  0.6746E-04  0.3449E+02
   -1.600015   29.67656  0.7666E-13  0.1277E-04  0.4942E-07  0.1064E-02  0.6185E-04  0.5570E+02
   -1.650015   29.67733  0.7666E-13  0.1234E-04  0.5535E-07  0.9841E-03  0.5602E-04  0.1668E+03
   -1.700015   29.67820  0.7666E-13  0.1176E-04  0.6587E-07  0.8106E-03  0.5033E-04 -0.6341E+02
   -1.750014   29.67961  0.7666E-13  0.1096E-04  0.8337E-07  0.7315E-03  0.4317E-04  0.1821E+05
   -1.800013   29.68103  0.7666E-13  0.9824E-05  0.1185E-06  0.5193E-03  0.3705E-04  0.3523E+07
   -1.850011   29.68536  0.7666E-13  0.8449E-05  0.1852E-06  0.4654E-03  0.2738E-04  0.1736E+07
   -1.900009   29.68558  0.7666E-13  0.6752E-05  0.3818E-06  0.2165E-03  0.2201E-04  0.4578E+06
   -1.950006   29.70132  0.7666E-13  0.4626E-05  0.9913E-06  0.1615E-03  0.1222E-04 -0.6811E+06
   -2.000003   29.70522  0.7666E-13  0.0000E+00  0.0000E+00  0.0000E+00  0.2059E-04  0.0000E+00
