 1 - depth, m
 2 - temperature, C
 3 - salinity, kg/kg
 4 - turbulent kinetic energy, m**2/s**2
 5 - dissipation rate, m**2/s**3
 6 - kinematic heat conductance, m**2/s
 7 - modulus of horizontal velocity, m/s
 8 - Richardson number, n/d
   -0.000000   31.46319  0.2440E-13  0.5267E-05  0.3439E-06  0.5176E-04  0.5185E-03  0.1577E+05
   -0.049997   31.49783  0.2440E-13  0.9257E-05  0.1527E-06  0.1930E-03  0.2937E-03  0.2317E+05
   -0.099994   31.50987  0.2440E-13  0.1119E-04  0.1058E-06  0.4316E-03  0.2155E-03  0.1973E+03
   -0.149992   31.51331  0.2440E-13  0.1240E-04  0.8923E-07  0.5087E-03  0.1913E-03  0.9879E+02
   -0.199990   31.51608  0.2440E-13  0.1335E-04  0.7946E-07  0.6822E-03  0.1713E-03  0.6448E+02
   -0.249989   31.51809  0.2440E-13  0.1410E-04  0.7304E-07  0.8129E-03  0.1564E-03  0.4823E+02
   -0.299988   31.51973  0.2440E-13  0.1472E-04  0.6846E-07  0.9440E-03  0.1439E-03  0.3855E+02
   -0.349988   31.52111  0.2440E-13  0.1522E-04  0.6502E-07  0.1062E-02  0.1332E-03  0.3316E+02
   -0.399987   31.52231  0.2440E-13  0.1565E-04  0.6235E-07  0.1170E-02  0.1238E-03  0.2953E+02
   -0.449987   31.52337  0.2440E-13  0.1602E-04  0.6017E-07  0.1270E-02  0.1155E-03  0.2782E+02
   -0.499988   31.52433  0.2440E-13  0.1634E-04  0.5838E-07  0.1361E-02  0.1081E-03  0.2697E+02
   -0.549988   31.52521  0.2440E-13  0.1661E-04  0.5688E-07  0.1445E-02  0.1014E-03  0.2671E+02
   -0.599989   31.52602  0.2440E-13  0.1685E-04  0.5563E-07  0.1520E-02  0.9543E-04  0.2661E+02
   -0.649990   31.52679  0.2440E-13  0.1705E-04  0.5457E-07  0.1587E-02  0.8993E-04  0.2706E+02
   -0.699991   31.52750  0.2440E-13  0.1722E-04  0.5369E-07  0.1646E-02  0.8487E-04  0.2756E+02
   -0.749992   31.52819  0.2440E-13  0.1736E-04  0.5295E-07  0.1696E-02  0.8018E-04  0.2861E+02
   -0.799994   31.52884  0.2440E-13  0.1747E-04  0.5236E-07  0.1739E-02  0.7582E-04  0.2970E+02
   -0.849995   31.52948  0.2440E-13  0.1756E-04  0.5189E-07  0.1772E-02  0.7173E-04  0.3142E+02
   -0.899997   31.53009  0.2440E-13  0.1762E-04  0.5155E-07  0.1798E-02  0.6789E-04  0.3320E+02
   -0.949998   31.53069  0.2440E-13  0.1765E-04  0.5133E-07  0.1814E-02  0.6426E-04  0.3580E+02
   -1.000000   31.53128  0.2440E-13  0.1767E-04  0.5123E-07  0.1821E-02  0.6082E-04  0.3856E+02
   -1.050002   31.53186  0.2440E-13  0.1765E-04  0.5127E-07  0.1817E-02  0.5754E-04  0.4400E+02
   -1.100003   31.53244  0.2440E-13  0.1762E-04  0.5144E-07  0.1928E-02  0.5441E-04  0.1419E+03
   -1.150005   31.53298  0.2440E-13  0.1755E-04  0.5180E-07  0.1694E-02  0.5165E-04  0.3476E+03
   -1.200007   31.53360  0.2440E-13  0.1746E-04  0.5232E-07  0.1738E-02  0.4869E-04  0.6519E+02
   -1.250008   31.53420  0.2440E-13  0.1734E-04  0.5308E-07  0.1705E-02  0.4589E-04  0.6933E+02
   -1.300009   31.53481  0.2440E-13  0.1718E-04  0.5412E-07  0.1646E-02  0.4318E-04  0.8253E+02
   -1.350010   31.53544  0.2440E-13  0.1698E-04  0.5553E-07  0.1580E-02  0.4055E-04  0.9968E+02
   -1.400011   31.53609  0.2440E-13  0.1673E-04  0.5745E-07  0.1490E-02  0.3798E-04  0.1265E+03
   -1.450012   31.53679  0.2440E-13  0.1644E-04  0.6008E-07  0.1410E-02  0.3543E-04  0.1648E+03
   -1.500013   31.53753  0.2440E-13  0.1607E-04  0.6380E-07  0.1286E-02  0.3292E-04  0.2352E+03
   -1.550013   31.53837  0.2440E-13  0.1562E-04  0.6916E-07  0.1209E-02  0.3036E-04  0.3641E+03
   -1.600013   31.53927  0.2440E-13  0.1505E-04  0.7785E-07  0.1054E-02  0.2786E-04 -0.1150E+04
   -1.650013   31.54053  0.2440E-13  0.1429E-04  0.9139E-07  0.9750E-03  0.2499E-04  0.1451E+06
   -1.700012   31.54189  0.2440E-13  0.1325E-04  0.1155E-06  0.7851E-03  0.2221E-04  0.8232E+05
   -1.750011   31.54457  0.2440E-13  0.1200E-04  0.1541E-06  0.7139E-03  0.1832E-04  0.3682E+08
   -1.800010   31.54612  0.2440E-13  0.1045E-04  0.2377E-06  0.4879E-03  0.1581E-04  0.7118E+06
   -1.850008   31.55609  0.2440E-13  0.8847E-05  0.3978E-06  0.4635E-03  0.1076E-04  0.1383E+10
   -1.900006   31.55191  0.2440E-13  0.7089E-05  0.8384E-06  0.2225E-03  0.8950E-05 -0.3962E+07
   -1.950003   31.57762  0.2440E-13  0.5082E-05  0.1995E-05  0.2201E-03  0.4737E-05 -0.1153E+08
   -2.000000   31.57810  0.2440E-13  0.0000E+00  0.0000E+00  0.0000E+00  0.9579E-05  0.0000E+00
