 1 - depth, m
 2 - temperature, C
 3 - salinity, kg/kg
 4 - turbulent kinetic energy, m**2/s**2
 5 - dissipation rate, m**2/s**3
 6 - kinematic heat conductance, m**2/s
 7 - modulus of horizontal velocity, m/s
 8 - Richardson number, n/d
   -0.000000   29.62771  0.1084E-12  0.4341E-05  0.2543E-06  0.4831E-04  0.1368E-02  0.6008E+04
   -0.049997   29.65548  0.1084E-12  0.7457E-05  0.1132E-06  0.1649E-03  0.7844E-03  0.1077E+03
   -0.099994   29.66665  0.1084E-12  0.9041E-05  0.7762E-07  0.3849E-03  0.5663E-03  0.2620E+02
   -0.149992   29.66961  0.1084E-12  0.1001E-04  0.6534E-07  0.4587E-03  0.5000E-03  0.1249E+02
   -0.199991   29.67200  0.1084E-12  0.1076E-04  0.5806E-07  0.6099E-03  0.4457E-03  0.8066E+01
   -0.249990   29.67374  0.1084E-12  0.1135E-04  0.5323E-07  0.7287E-03  0.4049E-03  0.5945E+01
   -0.299989   29.67515  0.1084E-12  0.1184E-04  0.4976E-07  0.8454E-03  0.3710E-03  0.4722E+01
   -0.349988   29.67633  0.1084E-12  0.1223E-04  0.4713E-07  0.9517E-03  0.3418E-03  0.4033E+01
   -0.399988   29.67735  0.1084E-12  0.1256E-04  0.4507E-07  0.1049E-02  0.3161E-03  0.3588E+01
   -0.449988   29.67825  0.1084E-12  0.1285E-04  0.4338E-07  0.1139E-02  0.2934E-03  0.3369E+01
   -0.499988   29.67906  0.1084E-12  0.1309E-04  0.4196E-07  0.1222E-02  0.2734E-03  0.3276E+01
   -0.549989   29.67980  0.1084E-12  0.1330E-04  0.4077E-07  0.1298E-02  0.2555E-03  0.3231E+01
   -0.599990   29.68049  0.1084E-12  0.1347E-04  0.3975E-07  0.1368E-02  0.2393E-03  0.3228E+01
   -0.649991   29.68112  0.1084E-12  0.1362E-04  0.3888E-07  0.1430E-02  0.2246E-03  0.3265E+01
   -0.699992   29.68172  0.1084E-12  0.1375E-04  0.3812E-07  0.1485E-02  0.2110E-03  0.3332E+01
   -0.749994   29.68228  0.1084E-12  0.1385E-04  0.3748E-07  0.1534E-02  0.1986E-03  0.3435E+01
   -0.799995   29.68282  0.1084E-12  0.1393E-04  0.3693E-07  0.1576E-02  0.1870E-03  0.3568E+01
   -0.849997   29.68334  0.1084E-12  0.1399E-04  0.3646E-07  0.1610E-02  0.1762E-03  0.3741E+01
   -0.899998   29.68384  0.1084E-12  0.1403E-04  0.3608E-07  0.1637E-02  0.1661E-03  0.3951E+01
   -0.950000   29.68432  0.1084E-12  0.1405E-04  0.3578E-07  0.1657E-02  0.1566E-03  0.4213E+01
   -1.000002   29.68479  0.1084E-12  0.1406E-04  0.3556E-07  0.1669E-02  0.1476E-03  0.4526E+01
   -1.050004   29.68525  0.1084E-12  0.1404E-04  0.3542E-07  0.1673E-02  0.1391E-03  0.5107E+01
   -1.100005   29.68570  0.1084E-12  0.1401E-04  0.3536E-07  0.1744E-02  0.1310E-03  0.1711E+02
   -1.150007   29.68613  0.1084E-12  0.1396E-04  0.3541E-07  0.1615E-02  0.1238E-03  0.3718E+02
   -1.200009   29.68659  0.1084E-12  0.1389E-04  0.3555E-07  0.1629E-02  0.1164E-03  0.7213E+01
   -1.250010   29.68703  0.1084E-12  0.1380E-04  0.3582E-07  0.1603E-02  0.1094E-03  0.7622E+01
   -1.300011   29.68749  0.1084E-12  0.1368E-04  0.3624E-07  0.1561E-02  0.1026E-03  0.8819E+01
   -1.350013   29.68794  0.1084E-12  0.1354E-04  0.3684E-07  0.1508E-02  0.9599E-04  0.1042E+02
   -1.400014   29.68841  0.1084E-12  0.1337E-04  0.3769E-07  0.1442E-02  0.8962E-04  0.1265E+02
   -1.450015   29.68890  0.1084E-12  0.1317E-04  0.3886E-07  0.1369E-02  0.8340E-04  0.1582E+02
   -1.500015   29.68941  0.1084E-12  0.1293E-04  0.4049E-07  0.1271E-02  0.7731E-04  0.2077E+02
   -1.550016   29.68996  0.1084E-12  0.1264E-04  0.4281E-07  0.1186E-02  0.7127E-04  0.2856E+02
   -1.600016   29.69054  0.1084E-12  0.1229E-04  0.4626E-07  0.1055E-02  0.6534E-04  0.4516E+02
   -1.650016   29.69122  0.1084E-12  0.1184E-04  0.5155E-07  0.9731E-03  0.5919E-04  0.1091E+03
   -1.700015   29.69197  0.1084E-12  0.1125E-04  0.6111E-07  0.8067E-03  0.5319E-04 -0.1697E+04
   -1.750014   29.69318  0.1084E-12  0.1044E-04  0.7729E-07  0.7199E-03  0.4567E-04  0.3700E+05
   -1.800013   29.69442  0.1084E-12  0.9285E-05  0.1099E-06  0.5117E-03  0.3908E-04  0.1555E+06
   -1.850011   29.69811  0.1084E-12  0.7905E-05  0.1712E-06  0.4531E-03  0.2874E-04  0.1081E+08
   -1.900009   29.69825  0.1084E-12  0.6204E-05  0.3548E-06  0.2029E-03  0.2301E-04 -0.7694E+06
   -1.950007   29.71176  0.1084E-12  0.4239E-05  0.9151E-06  0.1638E-03  0.1248E-04 -0.1083E+06
   -2.000004   29.71396  0.1084E-12  0.0000E+00  0.0000E+00  0.0000E+00  0.2175E-04  0.0000E+00
