 1 - depth, m
 2 - temperature, C
 3 - salinity, kg/kg
 4 - turbulent kinetic energy, m**2/s**2
 5 - dissipation rate, m**2/s**3
 6 - kinematic heat conductance, m**2/s
 7 - modulus of horizontal velocity, m/s
 8 - Richardson number, n/d
   -0.000000   29.61295  0.1808E-13  0.4420E-05  0.2626E-06  0.4867E-04  0.1371E-02  0.7882E+04
   -0.049997   29.64080  0.1809E-13  0.7626E-05  0.1169E-06  0.1698E-03  0.7815E-03  0.2752E+04
   -0.099994   29.65177  0.1809E-13  0.9260E-05  0.8034E-07  0.3906E-03  0.5671E-03  0.2729E+02
   -0.149992   29.65473  0.1809E-13  0.1027E-04  0.6762E-07  0.4673E-03  0.5005E-03  0.1321E+02
   -0.199991   29.65712  0.1809E-13  0.1106E-04  0.6013E-07  0.6230E-03  0.4464E-03  0.8539E+01
   -0.249989   29.65885  0.1809E-13  0.1169E-04  0.5520E-07  0.7447E-03  0.4058E-03  0.6331E+01
   -0.299989   29.66026  0.1809E-13  0.1220E-04  0.5169E-07  0.8650E-03  0.3721E-03  0.5038E+01
   -0.349988   29.66145  0.1809E-13  0.1263E-04  0.4905E-07  0.9744E-03  0.3431E-03  0.4328E+01
   -0.399988   29.66248  0.1809E-13  0.1299E-04  0.4699E-07  0.1075E-02  0.3175E-03  0.3851E+01
   -0.449988   29.66339  0.1809E-13  0.1330E-04  0.4531E-07  0.1168E-02  0.2950E-03  0.3634E+01
   -0.499988   29.66421  0.1809E-13  0.1356E-04  0.4393E-07  0.1253E-02  0.2751E-03  0.3527E+01
   -0.549989   29.66497  0.1809E-13  0.1380E-04  0.4277E-07  0.1332E-02  0.2573E-03  0.3500E+01
   -0.599990   29.66566  0.1809E-13  0.1400E-04  0.4179E-07  0.1403E-02  0.2412E-03  0.3489E+01
   -0.649991   29.66632  0.1809E-13  0.1417E-04  0.4096E-07  0.1467E-02  0.2266E-03  0.3553E+01
   -0.699992   29.66693  0.1809E-13  0.1432E-04  0.4025E-07  0.1524E-02  0.2131E-03  0.3618E+01
   -0.749993   29.66751  0.1809E-13  0.1444E-04  0.3966E-07  0.1574E-02  0.2007E-03  0.3757E+01
   -0.799995   29.66807  0.1809E-13  0.1454E-04  0.3917E-07  0.1616E-02  0.1892E-03  0.3894E+01
   -0.849997   29.66860  0.1809E-13  0.1462E-04  0.3877E-07  0.1652E-02  0.1784E-03  0.4115E+01
   -0.899998   29.66912  0.1809E-13  0.1468E-04  0.3846E-07  0.1679E-02  0.1684E-03  0.4337E+01
   -0.950000   29.66963  0.1809E-13  0.1472E-04  0.3823E-07  0.1699E-02  0.1589E-03  0.4663E+01
   -1.000002   29.67012  0.1809E-13  0.1474E-04  0.3809E-07  0.1711E-02  0.1499E-03  0.5000E+01
   -1.050003   29.67061  0.1809E-13  0.1474E-04  0.3804E-07  0.1714E-02  0.1414E-03  0.5691E+01
   -1.100005   29.67109  0.1809E-13  0.1473E-04  0.3808E-07  0.1789E-02  0.1333E-03  0.1899E+02
   -1.150007   29.67155  0.1809E-13  0.1469E-04  0.3823E-07  0.1651E-02  0.1261E-03  0.4137E+02
   -1.200008   29.67204  0.1809E-13  0.1463E-04  0.3849E-07  0.1667E-02  0.1187E-03  0.8106E+01
   -1.250010   29.67252  0.1809E-13  0.1455E-04  0.3889E-07  0.1639E-02  0.1116E-03  0.8577E+01
   -1.300011   29.67301  0.1809E-13  0.1444E-04  0.3946E-07  0.1595E-02  0.1047E-03  0.1002E+02
   -1.350013   29.67351  0.1809E-13  0.1431E-04  0.4024E-07  0.1540E-02  0.9811E-04  0.1183E+02
   -1.400014   29.67403  0.1809E-13  0.1414E-04  0.4130E-07  0.1470E-02  0.9167E-04  0.1449E+02
   -1.450014   29.67456  0.1809E-13  0.1394E-04  0.4273E-07  0.1397E-02  0.8539E-04  0.1813E+02
   -1.500015   29.67513  0.1809E-13  0.1370E-04  0.4469E-07  0.1293E-02  0.7923E-04  0.2409E+02
   -1.550015   29.67574  0.1809E-13  0.1340E-04  0.4744E-07  0.1209E-02  0.7309E-04  0.3320E+02
   -1.600015   29.67640  0.1809E-13  0.1304E-04  0.5155E-07  0.1071E-02  0.6707E-04  0.5485E+02
   -1.650015   29.67717  0.1809E-13  0.1257E-04  0.5778E-07  0.9920E-03  0.6075E-04  0.1998E+04
   -1.700015   29.67803  0.1809E-13  0.1194E-04  0.6898E-07  0.8160E-03  0.5465E-04 -0.3207E+04
   -1.750014   29.67947  0.1809E-13  0.1108E-04  0.8763E-07  0.7357E-03  0.4676E-04  0.1069E+05
   -1.800013   29.68081  0.1809E-13  0.9876E-05  0.1251E-06  0.5235E-03  0.4019E-04 -0.1011E+04
   -1.850011   29.68523  0.1809E-13  0.8445E-05  0.1967E-06  0.4665E-03  0.2953E-04  0.5075E+08
   -1.900009   29.68525  0.1809E-13  0.6664E-05  0.4065E-06  0.2122E-03  0.2375E-04  0.3550E+05
   -1.950006   29.70076  0.1809E-13  0.4580E-05  0.1048E-05  0.1680E-03  0.1294E-04 -0.9291E+06
   -2.000003   29.70400  0.1809E-13  0.0000E+00  0.0000E+00  0.0000E+00  0.2251E-04  0.0000E+00
