 1 - depth, m
 2 - temperature, C
 3 - salinity, kg/kg
 4 - turbulent kinetic energy, m**2/s**2
 5 - dissipation rate, m**2/s**3
 6 - kinematic heat conductance, m**2/s
 7 - modulus of horizontal velocity, m/s
 8 - Richardson number, n/d
   -0.000000   30.29660  0.3557E-14  0.5079E-05  0.3192E-06  0.5205E-04  0.2114E-02  0.5410E+04
   -0.049997   30.32761  0.3557E-14  0.8550E-05  0.1418E-06  0.1803E-03  0.1199E-02  0.2966E+03
   -0.099994   30.33947  0.3557E-14  0.1034E-04  0.9747E-07  0.3990E-03  0.8867E-03  0.1091E+02
   -0.149992   30.34286  0.3557E-14  0.1147E-04  0.8155E-07  0.4826E-03  0.7829E-03  0.5383E+01
   -0.199991   30.34555  0.3557E-14  0.1235E-04  0.7226E-07  0.6447E-03  0.6994E-03  0.3443E+01
   -0.249989   30.34751  0.3557E-14  0.1305E-04  0.6619E-07  0.7713E-03  0.6368E-03  0.2538E+01
   -0.299988   30.34909  0.3557E-14  0.1362E-04  0.6187E-07  0.8975E-03  0.5848E-03  0.2015E+01
   -0.349988   30.35043  0.3557E-14  0.1410E-04  0.5864E-07  0.1012E-02  0.5402E-03  0.1723E+01
   -0.399988   30.35158  0.3557E-14  0.1449E-04  0.5613E-07  0.1116E-02  0.5009E-03  0.1537E+01
   -0.449988   30.35260  0.3557E-14  0.1484E-04  0.5408E-07  0.1213E-02  0.4662E-03  0.1453E+01
   -0.499988   30.35353  0.3557E-14  0.1514E-04  0.5239E-07  0.1303E-02  0.4353E-03  0.1419E+01
   -0.549989   30.35437  0.3557E-14  0.1539E-04  0.5097E-07  0.1387E-02  0.4076E-03  0.1404E+01
   -0.599989   30.35515  0.3557E-14  0.1562E-04  0.4977E-07  0.1462E-02  0.3825E-03  0.1403E+01
   -0.649990   30.35587  0.3557E-14  0.1581E-04  0.4876E-07  0.1530E-02  0.3597E-03  0.1416E+01
   -0.699992   30.35656  0.3557E-14  0.1597E-04  0.4790E-07  0.1590E-02  0.3387E-03  0.1440E+01
   -0.749993   30.35721  0.3557E-14  0.1610E-04  0.4719E-07  0.1641E-02  0.3194E-03  0.1480E+01
   -0.799994   30.35783  0.3557E-14  0.1620E-04  0.4660E-07  0.1684E-02  0.3015E-03  0.1534E+01
   -0.849996   30.35843  0.3557E-14  0.1629E-04  0.4613E-07  0.1719E-02  0.2848E-03  0.1608E+01
   -0.899998   30.35901  0.3557E-14  0.1635E-04  0.4576E-07  0.1746E-02  0.2692E-03  0.1701E+01
   -0.949999   30.35957  0.3557E-14  0.1638E-04  0.4550E-07  0.1764E-02  0.2544E-03  0.1821E+01
   -1.000001   30.36012  0.3557E-14  0.1640E-04  0.4534E-07  0.1774E-02  0.2405E-03  0.1964E+01
   -1.050003   30.36067  0.3557E-14  0.1639E-04  0.4529E-07  0.1775E-02  0.2273E-03  0.2225E+01
   -1.100004   30.36121  0.3557E-14  0.1636E-04  0.4536E-07  0.1867E-02  0.2147E-03  0.7330E+01
   -1.150006   30.36172  0.3557E-14  0.1630E-04  0.4558E-07  0.1682E-02  0.2034E-03  0.1687E+02
   -1.200008   30.36228  0.3557E-14  0.1622E-04  0.4593E-07  0.1713E-02  0.1917E-03  0.3220E+01
   -1.250009   30.36283  0.3557E-14  0.1612E-04  0.4647E-07  0.1682E-02  0.1805E-03  0.3427E+01
   -1.300010   30.36338  0.3557E-14  0.1598E-04  0.4722E-07  0.1630E-02  0.1697E-03  0.4016E+01
   -1.350012   30.36395  0.3557E-14  0.1581E-04  0.4826E-07  0.1569E-02  0.1592E-03  0.4814E+01
   -1.400013   30.36455  0.3557E-14  0.1560E-04  0.4967E-07  0.1490E-02  0.1490E-03  0.5965E+01
   -1.450014   30.36517  0.3557E-14  0.1535E-04  0.5160E-07  0.1410E-02  0.1390E-03  0.7636E+01
   -1.500014   30.36582  0.3557E-14  0.1504E-04  0.5429E-07  0.1297E-02  0.1291E-03  0.1044E+02
   -1.550014   30.36655  0.3557E-14  0.1467E-04  0.5813E-07  0.1210E-02  0.1192E-03  0.1505E+02
   -1.600015   30.36733  0.3557E-14  0.1420E-04  0.6401E-07  0.1069E-02  0.1094E-03  0.3049E+02
   -1.650014   30.36828  0.3557E-14  0.1360E-04  0.7325E-07  0.9838E-03  0.9899E-04  0.8941E+04
   -1.700014   30.36939  0.3557E-14  0.1277E-04  0.8970E-07  0.8080E-03  0.8850E-04  0.3914E+04
   -1.750013   30.37133  0.3557E-14  0.1169E-04  0.1166E-06  0.7227E-03  0.7483E-04  0.8709E+05
   -1.800012   30.37299  0.3557E-14  0.1023E-04  0.1744E-06  0.5014E-03  0.6398E-04  0.4112E+04
   -1.850010   30.37975  0.3557E-14  0.8663E-05  0.2812E-06  0.4619E-03  0.4540E-04  0.5680E+07
   -1.900008   30.37814  0.3557E-14  0.6853E-05  0.5875E-06  0.2104E-03  0.3706E-04  0.8230E+06
   -1.950005   30.39885  0.3557E-14  0.4831E-05  0.1456E-05  0.1962E-03  0.1979E-04 -0.2359E+06
   -2.000002   30.39968  0.3557E-14  0.0000E+00  0.0000E+00  0.0000E+00  0.3709E-04  0.0000E+00
