 1 - depth, m
 2 - temperature, C
 3 - salinity, kg/kg
 4 - turbulent kinetic energy, m**2/s**2
 5 - dissipation rate, m**2/s**3
 6 - kinematic heat conductance, m**2/s
 7 - modulus of horizontal velocity, m/s
 8 - Richardson number, n/d
   -0.000000   29.64430  0.3338E-14  0.4683E-05  0.2848E-06  0.4990E-04  0.1859E-02  0.5793E+04
   -0.049997   29.67352  0.3338E-14  0.7955E-05  0.1269E-06  0.1723E-03  0.1064E-02  0.5396E+04
   -0.099994   29.68499  0.3338E-14  0.9649E-05  0.8693E-07  0.3915E-03  0.7760E-03  0.1360E+02
   -0.149992   29.68815  0.3338E-14  0.1071E-04  0.7290E-07  0.4707E-03  0.6848E-03  0.6614E+01
   -0.199991   29.69067  0.3338E-14  0.1153E-04  0.6467E-07  0.6288E-03  0.6109E-03  0.4243E+01
   -0.249989   29.69251  0.3338E-14  0.1218E-04  0.5929E-07  0.7521E-03  0.5555E-03  0.3127E+01
   -0.299989   29.69400  0.3338E-14  0.1272E-04  0.5545E-07  0.8748E-03  0.5095E-03  0.2484E+01
   -0.349988   29.69525  0.3338E-14  0.1316E-04  0.5257E-07  0.9862E-03  0.4701E-03  0.2124E+01
   -0.399988   29.69633  0.3338E-14  0.1353E-04  0.5033E-07  0.1088E-02  0.4353E-03  0.1891E+01
   -0.449988   29.69729  0.3338E-14  0.1385E-04  0.4850E-07  0.1183E-02  0.4046E-03  0.1776E+01
   -0.499988   29.69816  0.3338E-14  0.1413E-04  0.4699E-07  0.1270E-02  0.3776E-03  0.1727E+01
   -0.549989   29.69895  0.3338E-14  0.1437E-04  0.4573E-07  0.1350E-02  0.3534E-03  0.1705E+01
   -0.599990   29.69969  0.3338E-14  0.1458E-04  0.4466E-07  0.1423E-02  0.3315E-03  0.1705E+01
   -0.649991   29.70037  0.3338E-14  0.1476E-04  0.4376E-07  0.1488E-02  0.3115E-03  0.1727E+01
   -0.699992   29.70101  0.3338E-14  0.1491E-04  0.4299E-07  0.1546E-02  0.2932E-03  0.1764E+01
   -0.749993   29.70163  0.3338E-14  0.1503E-04  0.4235E-07  0.1596E-02  0.2763E-03  0.1823E+01
   -0.799995   29.70221  0.3338E-14  0.1514E-04  0.4181E-07  0.1639E-02  0.2606E-03  0.1897E+01
   -0.849996   29.70277  0.3338E-14  0.1522E-04  0.4138E-07  0.1675E-02  0.2459E-03  0.1995E+01
   -0.899998   29.70332  0.3338E-14  0.1528E-04  0.4103E-07  0.1703E-02  0.2322E-03  0.2111E+01
   -0.950000   29.70385  0.3338E-14  0.1532E-04  0.4078E-07  0.1723E-02  0.2192E-03  0.2260E+01
   -1.000002   29.70436  0.3338E-14  0.1533E-04  0.4063E-07  0.1735E-02  0.2070E-03  0.2434E+01
   -1.050003   29.70487  0.3338E-14  0.1533E-04  0.4056E-07  0.1737E-02  0.1954E-03  0.2758E+01
   -1.100005   29.70538  0.3338E-14  0.1531E-04  0.4060E-07  0.1816E-02  0.1843E-03  0.9198E+01
   -1.150007   29.70586  0.3338E-14  0.1527E-04  0.4076E-07  0.1667E-02  0.1744E-03  0.2034E+02
   -1.200008   29.70638  0.3338E-14  0.1520E-04  0.4104E-07  0.1687E-02  0.1643E-03  0.3949E+01
   -1.250010   29.70688  0.3338E-14  0.1511E-04  0.4147E-07  0.1658E-02  0.1545E-03  0.4194E+01
   -1.300011   29.70740  0.3338E-14  0.1500E-04  0.4208E-07  0.1612E-02  0.1451E-03  0.4895E+01
   -1.350012   29.70792  0.3338E-14  0.1485E-04  0.4293E-07  0.1556E-02  0.1361E-03  0.5820E+01
   -1.400013   29.70847  0.3338E-14  0.1468E-04  0.4408E-07  0.1483E-02  0.1272E-03  0.7147E+01
   -1.450014   29.70903  0.3338E-14  0.1446E-04  0.4564E-07  0.1408E-02  0.1186E-03  0.9024E+01
   -1.500015   29.70963  0.3338E-14  0.1420E-04  0.4780E-07  0.1301E-02  0.1101E-03  0.1209E+02
   -1.550015   29.71028  0.3338E-14  0.1387E-04  0.5084E-07  0.1217E-02  0.1016E-03  0.1696E+02
   -1.600015   29.71098  0.3338E-14  0.1348E-04  0.5541E-07  0.1076E-02  0.9326E-04  0.2940E+02
   -1.650015   29.71181  0.3338E-14  0.1297E-04  0.6245E-07  0.9990E-03  0.8449E-04  0.6021E+04
   -1.700014   29.71275  0.3338E-14  0.1229E-04  0.7515E-07  0.8147E-03  0.7593E-04 -0.2304E+04
   -1.750014   29.71433  0.3338E-14  0.1135E-04  0.9605E-07  0.7408E-03  0.6478E-04  0.3451E+05
   -1.800012   29.71576  0.3338E-14  0.1007E-04  0.1406E-06  0.5117E-03  0.5578E-04  0.8065E+05
   -1.850011   29.72106  0.3338E-14  0.8590E-05  0.2230E-06  0.4752E-03  0.4047E-04  0.7811E+07
   -1.900009   29.72040  0.3338E-14  0.6852E-05  0.4634E-06  0.2157E-03  0.3293E-04  0.2122E+06
   -1.950006   29.73753  0.3338E-14  0.4730E-05  0.1185E-05  0.1768E-03  0.1804E-04 -0.6012E+06
   -2.000003   29.73975  0.3338E-14  0.0000E+00  0.0000E+00  0.0000E+00  0.3161E-04  0.0000E+00
