 1 - depth, m
 2 - temperature, C
 3 - salinity, kg/kg
 4 - turbulent kinetic energy, m**2/s**2
 5 - dissipation rate, m**2/s**3
 6 - kinematic heat conductance, m**2/s
 7 - modulus of horizontal velocity, m/s
 8 - Richardson number, n/d
   -0.000000   30.28282  0.4477E-14  0.4629E-05  0.2868E-06  0.5047E-04  0.9760E-03  0.6525E+04
   -0.049997   30.31190  0.4477E-14  0.8040E-05  0.1272E-06  0.1714E-03  0.5628E-03  0.2367E+02
   -0.099994   30.32391  0.4477E-14  0.9785E-05  0.8707E-07  0.4053E-03  0.4050E-03  0.4945E+02
   -0.149992   30.32699  0.4477E-14  0.1085E-04  0.7336E-07  0.4773E-03  0.3586E-03  0.2393E+02
   -0.199991   30.32950  0.4477E-14  0.1169E-04  0.6526E-07  0.6393E-03  0.3201E-03  0.1547E+02
   -0.249989   30.33132  0.4477E-14  0.1235E-04  0.5992E-07  0.7632E-03  0.2914E-03  0.1146E+02
   -0.299988   30.33280  0.4477E-14  0.1288E-04  0.5610E-07  0.8866E-03  0.2675E-03  0.9128E+01
   -0.349988   30.33404  0.4477E-14  0.1333E-04  0.5323E-07  0.9984E-03  0.2469E-03  0.7815E+01
   -0.399988   30.33511  0.4477E-14  0.1370E-04  0.5099E-07  0.1101E-02  0.2288E-03  0.6965E+01
   -0.449988   30.33607  0.4477E-14  0.1402E-04  0.4916E-07  0.1195E-02  0.2128E-03  0.6544E+01
   -0.499988   30.33693  0.4477E-14  0.1430E-04  0.4765E-07  0.1283E-02  0.1987E-03  0.6364E+01
   -0.549989   30.33771  0.4477E-14  0.1454E-04  0.4637E-07  0.1363E-02  0.1860E-03  0.6282E+01
   -0.599990   30.33844  0.4477E-14  0.1475E-04  0.4529E-07  0.1435E-02  0.1746E-03  0.6278E+01
   -0.649991   30.33912  0.4477E-14  0.1492E-04  0.4438E-07  0.1500E-02  0.1641E-03  0.6357E+01
   -0.699992   30.33976  0.4477E-14  0.1507E-04  0.4360E-07  0.1558E-02  0.1546E-03  0.6492E+01
   -0.749993   30.34037  0.4477E-14  0.1520E-04  0.4294E-07  0.1608E-02  0.1457E-03  0.6704E+01
   -0.799995   30.34095  0.4477E-14  0.1530E-04  0.4239E-07  0.1651E-02  0.1374E-03  0.6973E+01
   -0.849996   30.34151  0.4477E-14  0.1537E-04  0.4194E-07  0.1686E-02  0.1298E-03  0.7327E+01
   -0.899998   30.34205  0.4477E-14  0.1543E-04  0.4159E-07  0.1714E-02  0.1225E-03  0.7752E+01
   -0.950000   30.34257  0.4477E-14  0.1546E-04  0.4132E-07  0.1733E-02  0.1157E-03  0.8289E+01
   -1.000001   30.34308  0.4477E-14  0.1548E-04  0.4115E-07  0.1744E-02  0.1093E-03  0.8924E+01
   -1.050003   30.34359  0.4477E-14  0.1547E-04  0.4107E-07  0.1746E-02  0.1032E-03  0.1010E+02
   -1.100005   30.34409  0.4477E-14  0.1544E-04  0.4110E-07  0.1829E-02  0.9739E-04  0.3358E+02
   -1.150006   30.34456  0.4477E-14  0.1539E-04  0.4125E-07  0.1671E-02  0.9219E-04  0.7475E+02
   -1.200008   30.34507  0.4477E-14  0.1532E-04  0.4152E-07  0.1693E-02  0.8683E-04  0.1445E+02
   -1.250009   30.34558  0.4477E-14  0.1523E-04  0.4194E-07  0.1664E-02  0.8170E-04  0.1534E+02
   -1.300011   30.34608  0.4477E-14  0.1511E-04  0.4255E-07  0.1617E-02  0.7676E-04  0.1789E+02
   -1.350012   30.34660  0.4477E-14  0.1495E-04  0.4340E-07  0.1561E-02  0.7197E-04  0.2128E+02
   -1.400013   30.34714  0.4477E-14  0.1477E-04  0.4455E-07  0.1487E-02  0.6731E-04  0.2613E+02
   -1.450014   30.34769  0.4477E-14  0.1454E-04  0.4612E-07  0.1411E-02  0.6275E-04  0.3300E+02
   -1.500014   30.34828  0.4477E-14  0.1427E-04  0.4831E-07  0.1302E-02  0.5828E-04  0.4437E+02
   -1.550015   30.34892  0.4477E-14  0.1394E-04  0.5139E-07  0.1219E-02  0.5379E-04  0.6210E+02
   -1.600015   30.34961  0.4477E-14  0.1353E-04  0.5608E-07  0.1075E-02  0.4941E-04  0.1119E+03
   -1.650015   30.35043  0.4477E-14  0.1302E-04  0.6327E-07  0.9988E-03  0.4474E-04  0.2425E+04
   -1.700014   30.35133  0.4477E-14  0.1231E-04  0.7628E-07  0.8148E-03  0.4025E-04  0.8352E+05
   -1.750013   30.35293  0.4477E-14  0.1135E-04  0.9784E-07  0.7375E-03  0.3427E-04  0.1881E+06
   -1.800012   30.35431  0.4477E-14  0.1005E-04  0.1428E-06  0.5157E-03  0.2949E-04  0.3988E+05
   -1.850010   30.35950  0.4477E-14  0.8553E-05  0.2269E-06  0.4683E-03  0.2143E-04  0.1559E+09
   -1.900008   30.35890  0.4477E-14  0.6754E-05  0.4679E-06  0.2154E-03  0.1734E-04 -0.6650E+05
   -1.950006   30.37554  0.4477E-14  0.4682E-05  0.1189E-05  0.1799E-03  0.9411E-05 -0.2074E+07
   -2.000003   30.37756  0.4477E-14  0.0000E+00  0.0000E+00  0.0000E+00  0.1681E-04  0.0000E+00
