 1 - depth, m
 2 - temperature, C
 3 - salinity, kg/kg
 4 - turbulent kinetic energy, m**2/s**2
 5 - dissipation rate, m**2/s**3
 6 - kinematic heat conductance, m**2/s
 7 - modulus of horizontal velocity, m/s
 8 - Richardson number, n/d
   -0.000000   30.74465  0.7060E-14  0.4987E-05  0.3155E-06  0.5125E-04  0.1505E-02  0.8932E+04
   -0.049997   30.77624  0.7060E-14  0.8521E-05  0.1410E-06  0.1789E-03  0.8609E-03  0.1005E+04
   -0.099994   30.78842  0.7060E-14  0.1034E-04  0.9702E-07  0.4011E-03  0.6326E-03  0.2150E+02
   -0.149992   30.79182  0.7060E-14  0.1147E-04  0.8131E-07  0.4825E-03  0.5587E-03  0.1055E+02
   -0.199991   30.79452  0.7060E-14  0.1236E-04  0.7211E-07  0.6459E-03  0.4990E-03  0.6747E+01
   -0.249989   30.79647  0.7060E-14  0.1306E-04  0.6608E-07  0.7723E-03  0.4543E-03  0.4974E+01
   -0.299988   30.79806  0.7060E-14  0.1362E-04  0.6178E-07  0.8986E-03  0.4172E-03  0.3948E+01
   -0.349988   30.79938  0.7060E-14  0.1409E-04  0.5855E-07  0.1013E-02  0.3854E-03  0.3373E+01
   -0.399988   30.80053  0.7060E-14  0.1449E-04  0.5603E-07  0.1117E-02  0.3573E-03  0.2999E+01
   -0.449988   30.80155  0.7060E-14  0.1482E-04  0.5398E-07  0.1214E-02  0.3326E-03  0.2814E+01
   -0.499988   30.80246  0.7060E-14  0.1511E-04  0.5228E-07  0.1303E-02  0.3107E-03  0.2732E+01
   -0.549989   30.80330  0.7060E-14  0.1536E-04  0.5085E-07  0.1384E-02  0.2911E-03  0.2695E+01
   -0.599989   30.80408  0.7060E-14  0.1557E-04  0.4964E-07  0.1458E-02  0.2734E-03  0.2690E+01
   -0.649990   30.80480  0.7060E-14  0.1575E-04  0.4861E-07  0.1524E-02  0.2572E-03  0.2722E+01
   -0.699992   30.80548  0.7060E-14  0.1591E-04  0.4773E-07  0.1582E-02  0.2423E-03  0.2777E+01
   -0.749993   30.80612  0.7060E-14  0.1603E-04  0.4699E-07  0.1633E-02  0.2286E-03  0.2866E+01
   -0.799994   30.80674  0.7060E-14  0.1613E-04  0.4637E-07  0.1676E-02  0.2158E-03  0.2979E+01
   -0.849996   30.80733  0.7060E-14  0.1620E-04  0.4586E-07  0.1711E-02  0.2039E-03  0.3130E+01
   -0.899998   30.80790  0.7060E-14  0.1625E-04  0.4546E-07  0.1737E-02  0.1927E-03  0.3310E+01
   -0.949999   30.80846  0.7060E-14  0.1628E-04  0.4516E-07  0.1756E-02  0.1821E-03  0.3541E+01
   -1.000001   30.80900  0.7060E-14  0.1629E-04  0.4496E-07  0.1766E-02  0.1721E-03  0.3812E+01
   -1.050003   30.80954  0.7060E-14  0.1627E-04  0.4488E-07  0.1766E-02  0.1626E-03  0.4314E+01
   -1.100004   30.81007  0.7060E-14  0.1623E-04  0.4491E-07  0.1859E-02  0.1536E-03  0.1418E+02
   -1.150006   30.81057  0.7060E-14  0.1617E-04  0.4508E-07  0.1673E-02  0.1455E-03  0.3270E+02
   -1.200008   30.81112  0.7060E-14  0.1608E-04  0.4538E-07  0.1704E-02  0.1371E-03  0.6230E+01
   -1.250009   30.81165  0.7060E-14  0.1597E-04  0.4587E-07  0.1674E-02  0.1291E-03  0.6609E+01
   -1.300010   30.81219  0.7060E-14  0.1583E-04  0.4657E-07  0.1623E-02  0.1213E-03  0.7740E+01
   -1.350012   30.81275  0.7060E-14  0.1565E-04  0.4755E-07  0.1562E-02  0.1138E-03  0.9254E+01
   -1.400013   30.81332  0.7060E-14  0.1544E-04  0.4889E-07  0.1483E-02  0.1065E-03  0.1146E+02
   -1.450014   30.81392  0.7060E-14  0.1518E-04  0.5075E-07  0.1405E-02  0.9930E-04  0.1462E+02
   -1.500014   30.81456  0.7060E-14  0.1486E-04  0.5336E-07  0.1290E-02  0.9223E-04  0.1998E+02
   -1.550014   30.81525  0.7060E-14  0.1448E-04  0.5708E-07  0.1208E-02  0.8511E-04  0.2861E+02
   -1.600015   30.81600  0.7060E-14  0.1401E-04  0.6288E-07  0.1061E-02  0.7814E-04  0.6317E+02
   -1.650014   30.81693  0.7060E-14  0.1341E-04  0.7198E-07  0.9860E-03  0.7059E-04  0.1600E+04
   -1.700014   30.81797  0.7060E-14  0.1257E-04  0.8825E-07  0.8011E-03  0.6318E-04 -0.3609E+04
   -1.750013   30.81984  0.7060E-14  0.1149E-04  0.1149E-06  0.7255E-03  0.5323E-04  0.1777E+06
   -1.800012   30.82131  0.7060E-14  0.1004E-04  0.1730E-06  0.4993E-03  0.4569E-04  0.3535E+05
   -1.850010   30.82790  0.7060E-14  0.8469E-05  0.2806E-06  0.4634E-03  0.3212E-04  0.3779E+07
   -1.900008   30.82625  0.7060E-14  0.6700E-05  0.5868E-06  0.2118E-03  0.2631E-04 -0.1162E+06
   -1.950005   30.84584  0.7060E-14  0.4714E-05  0.1454E-05  0.1969E-03  0.1398E-04 -0.9563E+06
   -2.000002   30.84672  0.7060E-14  0.0000E+00  0.0000E+00  0.0000E+00  0.2658E-04  0.0000E+00
