 1 - depth, m
 2 - temperature, C
 3 - salinity, kg/kg
 4 - turbulent kinetic energy, m**2/s**2
 5 - dissipation rate, m**2/s**3
 6 - kinematic heat conductance, m**2/s
 7 - modulus of horizontal velocity, m/s
 8 - Richardson number, n/d
   -0.000000   30.37827  0.1151E-13  0.4764E-05  0.2933E-06  0.4948E-04  0.1352E-02  0.4960E+04
   -0.049997   30.40871  0.1151E-13  0.8208E-05  0.1307E-06  0.1798E-03  0.7658E-03  0.5413E+03
   -0.099994   30.42002  0.1151E-13  0.9950E-05  0.9038E-07  0.3980E-03  0.5634E-03  0.2739E+02
   -0.149992   30.42322  0.1151E-13  0.1105E-04  0.7592E-07  0.4813E-03  0.4976E-03  0.1347E+02
   -0.199991   30.42575  0.1151E-13  0.1190E-04  0.6745E-07  0.6421E-03  0.4444E-03  0.8656E+01
   -0.249989   30.42759  0.1151E-13  0.1258E-04  0.6190E-07  0.7674E-03  0.4046E-03  0.6381E+01
   -0.299988   30.42910  0.1151E-13  0.1314E-04  0.5795E-07  0.8924E-03  0.3715E-03  0.5087E+01
   -0.349988   30.43036  0.1151E-13  0.1360E-04  0.5499E-07  0.1005E-02  0.3431E-03  0.4339E+01
   -0.399988   30.43145  0.1151E-13  0.1398E-04  0.5269E-07  0.1109E-02  0.3180E-03  0.3876E+01
   -0.449988   30.43242  0.1151E-13  0.1432E-04  0.5082E-07  0.1205E-02  0.2960E-03  0.3628E+01
   -0.499988   30.43329  0.1151E-13  0.1461E-04  0.4928E-07  0.1293E-02  0.2764E-03  0.3539E+01
   -0.549989   30.43410  0.1151E-13  0.1486E-04  0.4799E-07  0.1374E-02  0.2590E-03  0.3479E+01
   -0.599990   30.43484  0.1151E-13  0.1508E-04  0.4691E-07  0.1448E-02  0.2431E-03  0.3491E+01
   -0.649991   30.43553  0.1151E-13  0.1526E-04  0.4600E-07  0.1513E-02  0.2287E-03  0.3521E+01
   -0.699992   30.43618  0.1151E-13  0.1542E-04  0.4523E-07  0.1572E-02  0.2154E-03  0.3613E+01
   -0.749993   30.43680  0.1151E-13  0.1556E-04  0.4459E-07  0.1622E-02  0.2032E-03  0.3716E+01
   -0.799995   30.43740  0.1151E-13  0.1566E-04  0.4406E-07  0.1665E-02  0.1918E-03  0.3888E+01
   -0.849996   30.43797  0.1151E-13  0.1575E-04  0.4363E-07  0.1700E-02  0.1811E-03  0.4069E+01
   -0.899998   30.43852  0.1151E-13  0.1581E-04  0.4331E-07  0.1728E-02  0.1711E-03  0.4333E+01
   -0.949999   30.43906  0.1151E-13  0.1586E-04  0.4309E-07  0.1746E-02  0.1617E-03  0.4617E+01
   -1.000001   30.43959  0.1151E-13  0.1588E-04  0.4296E-07  0.1757E-02  0.1528E-03  0.5008E+01
   -1.050003   30.44012  0.1151E-13  0.1588E-04  0.4294E-07  0.1758E-02  0.1444E-03  0.5651E+01
   -1.100005   30.44063  0.1151E-13  0.1586E-04  0.4303E-07  0.1845E-02  0.1363E-03  0.1881E+02
   -1.150006   30.44112  0.1151E-13  0.1581E-04  0.4325E-07  0.1676E-02  0.1291E-03  0.4273E+02
   -1.200008   30.44166  0.1151E-13  0.1574E-04  0.4360E-07  0.1701E-02  0.1216E-03  0.8172E+01
   -1.250009   30.44219  0.1151E-13  0.1565E-04  0.4412E-07  0.1671E-02  0.1145E-03  0.8749E+01
   -1.300011   30.44272  0.1151E-13  0.1553E-04  0.4485E-07  0.1622E-02  0.1076E-03  0.1021E+02
   -1.350012   30.44327  0.1151E-13  0.1538E-04  0.4583E-07  0.1563E-02  0.1009E-03  0.1227E+02
   -1.400013   30.44384  0.1151E-13  0.1519E-04  0.4717E-07  0.1486E-02  0.9443E-04  0.1513E+02
   -1.450014   30.44443  0.1151E-13  0.1496E-04  0.4897E-07  0.1410E-02  0.8804E-04  0.1937E+02
   -1.500014   30.44506  0.1151E-13  0.1467E-04  0.5147E-07  0.1296E-02  0.8179E-04  0.2635E+02
   -1.550015   30.44576  0.1151E-13  0.1433E-04  0.5501E-07  0.1216E-02  0.7548E-04  0.3773E+02
   -1.600015   30.44650  0.1151E-13  0.1390E-04  0.6042E-07  0.1068E-02  0.6932E-04  0.7174E+02
   -1.650014   30.44741  0.1151E-13  0.1334E-04  0.6874E-07  0.9939E-03  0.6268E-04  0.3628E+03
   -1.700014   30.44842  0.1151E-13  0.1258E-04  0.8376E-07  0.8074E-03  0.5628E-04  0.4955E+04
   -1.750013   30.45028  0.1151E-13  0.1156E-04  0.1083E-06  0.7339E-03  0.4760E-04  0.2151E+06
   -1.800012   30.45173  0.1151E-13  0.1020E-04  0.1611E-06  0.5084E-03  0.4101E-04  0.2993E+05
   -1.850010   30.45807  0.1151E-13  0.8677E-05  0.2593E-06  0.4721E-03  0.2929E-04  0.2723E+08
   -1.900008   30.45670  0.1151E-13  0.6895E-05  0.5381E-06  0.2119E-03  0.2400E-04  0.2844E+07
   -1.950005   30.47593  0.1151E-13  0.4829E-05  0.1355E-05  0.1881E-03  0.1297E-04 -0.5719E+06
   -2.000002   30.47811  0.1151E-13  0.0000E+00  0.0000E+00  0.0000E+00  0.2345E-04  0.0000E+00
