 1 - depth, m
 2 - temperature, C
 3 - salinity, kg/kg
 4 - turbulent kinetic energy, m**2/s**2
 5 - dissipation rate, m**2/s**3
 6 - kinematic heat conductance, m**2/s
 7 - modulus of horizontal velocity, m/s
 8 - Richardson number, n/d
   -0.000000   30.60989  0.6418E-14  0.4717E-05  0.2950E-06  0.5033E-04  0.8650E-03  0.2386E+04
   -0.049997   30.63960  0.6418E-14  0.8226E-05  0.1307E-06  0.1770E-03  0.4939E-03  0.7625E+02
   -0.099994   30.65136  0.6418E-14  0.1000E-04  0.8986E-07  0.4097E-03  0.3580E-03  0.6100E+02
   -0.149992   30.65445  0.6418E-14  0.1111E-04  0.7573E-07  0.4850E-03  0.3170E-03  0.2980E+02
   -0.199991   30.65695  0.6418E-14  0.1196E-04  0.6741E-07  0.6495E-03  0.2832E-03  0.1927E+02
   -0.249989   30.65877  0.6418E-14  0.1265E-04  0.6196E-07  0.7750E-03  0.2580E-03  0.1430E+02
   -0.299988   30.66025  0.6418E-14  0.1321E-04  0.5808E-07  0.9006E-03  0.2370E-03  0.1142E+02
   -0.349988   30.66150  0.6418E-14  0.1368E-04  0.5517E-07  0.1014E-02  0.2190E-03  0.9791E+01
   -0.399988   30.66258  0.6418E-14  0.1407E-04  0.5291E-07  0.1118E-02  0.2031E-03  0.8739E+01
   -0.449988   30.66354  0.6418E-14  0.1441E-04  0.5108E-07  0.1214E-02  0.1890E-03  0.8216E+01
   -0.499988   30.66441  0.6418E-14  0.1470E-04  0.4957E-07  0.1303E-02  0.1766E-03  0.7995E+01
   -0.549989   30.66521  0.6418E-14  0.1496E-04  0.4831E-07  0.1384E-02  0.1655E-03  0.7900E+01
   -0.599989   30.66594  0.6418E-14  0.1518E-04  0.4726E-07  0.1457E-02  0.1554E-03  0.7908E+01
   -0.649990   30.66663  0.6418E-14  0.1537E-04  0.4638E-07  0.1522E-02  0.1462E-03  0.8020E+01
   -0.699992   30.66728  0.6418E-14  0.1553E-04  0.4564E-07  0.1580E-02  0.1378E-03  0.8207E+01
   -0.749993   30.66790  0.6418E-14  0.1567E-04  0.4503E-07  0.1631E-02  0.1299E-03  0.8496E+01
   -0.799994   30.66849  0.6418E-14  0.1578E-04  0.4453E-07  0.1673E-02  0.1227E-03  0.8859E+01
   -0.849996   30.66907  0.6418E-14  0.1588E-04  0.4414E-07  0.1708E-02  0.1159E-03  0.9339E+01
   -0.899998   30.66962  0.6418E-14  0.1594E-04  0.4386E-07  0.1734E-02  0.1095E-03  0.9913E+01
   -0.949999   30.67016  0.6418E-14  0.1599E-04  0.4367E-07  0.1752E-02  0.1035E-03  0.1064E+02
   -1.000001   30.67070  0.6418E-14  0.1602E-04  0.4359E-07  0.1763E-02  0.9782E-04  0.1151E+02
   -1.050003   30.67122  0.6418E-14  0.1602E-04  0.4361E-07  0.1763E-02  0.9241E-04  0.1308E+02
   -1.100005   30.67175  0.6418E-14  0.1600E-04  0.4375E-07  0.1852E-02  0.8726E-04  0.4324E+02
   -1.150006   30.67224  0.6418E-14  0.1596E-04  0.4402E-07  0.1673E-02  0.8267E-04  0.9938E+02
   -1.200008   30.67279  0.6418E-14  0.1590E-04  0.4443E-07  0.1701E-02  0.7788E-04  0.1906E+02
   -1.250009   30.67333  0.6418E-14  0.1580E-04  0.4502E-07  0.1670E-02  0.7331E-04  0.2038E+02
   -1.300011   30.67387  0.6418E-14  0.1568E-04  0.4583E-07  0.1619E-02  0.6890E-04  0.2396E+02
   -1.350012   30.67443  0.6418E-14  0.1553E-04  0.4691E-07  0.1559E-02  0.6463E-04  0.2878E+02
   -1.400013   30.67501  0.6418E-14  0.1534E-04  0.4836E-07  0.1480E-02  0.6046E-04  0.3581E+02
   -1.450014   30.67562  0.6418E-14  0.1511E-04  0.5032E-07  0.1404E-02  0.5636E-04  0.4588E+02
   -1.500014   30.67627  0.6418E-14  0.1482E-04  0.5303E-07  0.1288E-02  0.5234E-04  0.6309E+02
   -1.550015   30.67699  0.6418E-14  0.1446E-04  0.5687E-07  0.1209E-02  0.4828E-04  0.9116E+02
   -1.600015   30.67777  0.6418E-14  0.1402E-04  0.6280E-07  0.1060E-02  0.4431E-04  0.1882E+03
   -1.650014   30.67873  0.6418E-14  0.1343E-04  0.7194E-07  0.9877E-03  0.3999E-04  0.6215E+03
   -1.700014   30.67982  0.6418E-14  0.1263E-04  0.8831E-07  0.7967E-03  0.3581E-04 -0.9409E+04
   -1.750013   30.68181  0.6418E-14  0.1158E-04  0.1148E-06  0.7286E-03  0.3008E-04  0.2231E+06
   -1.800012   30.68326  0.6418E-14  0.1020E-04  0.1725E-06  0.5019E-03  0.2595E-04  0.2768E+06
   -1.850010   30.69027  0.6418E-14  0.8684E-05  0.2808E-06  0.4678E-03  0.1833E-04  0.3429E+08
   -1.900008   30.68849  0.6418E-14  0.6929E-05  0.5838E-06  0.2129E-03  0.1504E-04  0.4658E+07
   -1.950005   30.70893  0.6418E-14  0.4856E-05  0.1445E-05  0.1934E-03  0.8083E-05 -0.2478E+07
   -2.000002   30.71092  0.6418E-14  0.0000E+00  0.0000E+00  0.0000E+00  0.1503E-04  0.0000E+00
