 1 - depth, m
 2 - temperature, C
 3 - salinity, kg/kg
 4 - turbulent kinetic energy, m**2/s**2
 5 - dissipation rate, m**2/s**3
 6 - kinematic heat conductance, m**2/s
 7 - modulus of horizontal velocity, m/s
 8 - Richardson number, n/d
   -0.000000   30.46290  0.1051E-14  0.4704E-05  0.2870E-06  0.4824E-04  0.8777E-03  0.2680E+05
   -0.049997   30.49381  0.1051E-14  0.8228E-05  0.1274E-06  0.1843E-03  0.4885E-03  0.1313E+05
   -0.099994   30.50468  0.1051E-14  0.9950E-05  0.8858E-07  0.4049E-03  0.3603E-03  0.9297E+02
   -0.149992   30.50778  0.1051E-14  0.1104E-04  0.7469E-07  0.4876E-03  0.3183E-03  0.4618E+02
   -0.199991   30.51025  0.1051E-14  0.1188E-04  0.6650E-07  0.6487E-03  0.2844E-03  0.3015E+02
   -0.249989   30.51206  0.1051E-14  0.1255E-04  0.6112E-07  0.7739E-03  0.2589E-03  0.2265E+02
   -0.299988   30.51353  0.1051E-14  0.1311E-04  0.5728E-07  0.8986E-03  0.2378E-03  0.1804E+02
   -0.349988   30.51477  0.1051E-14  0.1356E-04  0.5440E-07  0.1012E-02  0.2196E-03  0.1564E+02
   -0.399988   30.51584  0.1051E-14  0.1395E-04  0.5215E-07  0.1115E-02  0.2035E-03  0.1387E+02
   -0.449988   30.51680  0.1051E-14  0.1428E-04  0.5033E-07  0.1211E-02  0.1893E-03  0.1319E+02
   -0.499988   30.51766  0.1051E-14  0.1457E-04  0.4882E-07  0.1299E-02  0.1768E-03  0.1272E+02
   -0.549989   30.51845  0.1051E-14  0.1482E-04  0.4757E-07  0.1379E-02  0.1656E-03  0.1273E+02
   -0.599990   30.51918  0.1051E-14  0.1504E-04  0.4651E-07  0.1453E-02  0.1555E-03  0.1260E+02
   -0.649991   30.51987  0.1051E-14  0.1522E-04  0.4562E-07  0.1518E-02  0.1462E-03  0.1295E+02
   -0.699992   30.52051  0.1051E-14  0.1538E-04  0.4487E-07  0.1576E-02  0.1377E-03  0.1308E+02
   -0.749993   30.52112  0.1051E-14  0.1552E-04  0.4424E-07  0.1627E-02  0.1298E-03  0.1372E+02
   -0.799995   30.52171  0.1051E-14  0.1562E-04  0.4373E-07  0.1670E-02  0.1225E-03  0.1411E+02
   -0.849996   30.52228  0.1051E-14  0.1571E-04  0.4332E-07  0.1705E-02  0.1157E-03  0.1508E+02
   -0.899998   30.52282  0.1051E-14  0.1578E-04  0.4301E-07  0.1732E-02  0.1093E-03  0.1576E+02
   -0.949999   30.52336  0.1051E-14  0.1582E-04  0.4279E-07  0.1751E-02  0.1032E-03  0.1716E+02
   -1.000001   30.52388  0.1051E-14  0.1584E-04  0.4268E-07  0.1761E-02  0.9755E-04  0.1825E+02
   -1.050003   30.52440  0.1051E-14  0.1584E-04  0.4266E-07  0.1763E-02  0.9211E-04  0.2103E+02
   -1.100005   30.52491  0.1051E-14  0.1582E-04  0.4276E-07  0.1848E-02  0.8696E-04  0.6865E+02
   -1.150006   30.52540  0.1051E-14  0.1578E-04  0.4299E-07  0.1681E-02  0.8235E-04  0.1558E+03
   -1.200008   30.52593  0.1051E-14  0.1572E-04  0.4334E-07  0.1706E-02  0.7757E-04  0.3037E+02
   -1.250009   30.52645  0.1051E-14  0.1563E-04  0.4387E-07  0.1675E-02  0.7300E-04  0.3198E+02
   -1.300011   30.52698  0.1051E-14  0.1551E-04  0.4460E-07  0.1626E-02  0.6859E-04  0.3794E+02
   -1.350012   30.52752  0.1051E-14  0.1536E-04  0.4558E-07  0.1568E-02  0.6433E-04  0.4487E+02
   -1.400013   30.52808  0.1051E-14  0.1517E-04  0.4691E-07  0.1491E-02  0.6017E-04  0.5609E+02
   -1.450014   30.52867  0.1051E-14  0.1495E-04  0.4871E-07  0.1414E-02  0.5610E-04  0.7084E+02
   -1.500014   30.52930  0.1051E-14  0.1467E-04  0.5120E-07  0.1303E-02  0.5209E-04  0.9713E+02
   -1.550015   30.52999  0.1051E-14  0.1433E-04  0.5471E-07  0.1220E-02  0.4807E-04  0.1378E+03
   -1.600015   30.53073  0.1051E-14  0.1390E-04  0.6011E-07  0.1076E-02  0.4414E-04  0.2810E+03
   -1.650014   30.53164  0.1051E-14  0.1335E-04  0.6845E-07  0.9948E-03  0.3989E-04  0.1102E+04
   -1.700014   30.53266  0.1051E-14  0.1259E-04  0.8319E-07  0.8143E-03  0.3576E-04 -0.2498E+05
   -1.750013   30.53447  0.1051E-14  0.1160E-04  0.1074E-06  0.7365E-03  0.3029E-04  0.1170E+07
   -1.800012   30.53593  0.1051E-14  0.1026E-04  0.1611E-06  0.5099E-03  0.2610E-04  0.5116E+06
   -1.850010   30.54224  0.1051E-14  0.8762E-05  0.2589E-06  0.4730E-03  0.1875E-04  0.7406E+08
   -1.900008   30.54089  0.1051E-14  0.6979E-05  0.5380E-06  0.2180E-03  0.1532E-04 -0.2086E+07
   -1.950005   30.55981  0.1051E-14  0.4860E-05  0.1350E-05  0.1859E-03  0.8349E-05 -0.1431E+07
   -2.000002   30.56249  0.1051E-14  0.0000E+00  0.0000E+00  0.0000E+00  0.1500E-04  0.0000E+00
