 1 - depth, m
 2 - temperature, C
 3 - salinity, kg/kg
 4 - turbulent kinetic energy, m**2/s**2
 5 - dissipation rate, m**2/s**3
 6 - kinematic heat conductance, m**2/s
 7 - modulus of horizontal velocity, m/s
 8 - Richardson number, n/d
   -0.000000   30.18453  0.3048E-13  0.4903E-05  0.2875E-06  0.5024E-04  0.2413E-02  0.3120E+04
   -0.049997   30.21394  0.3048E-13  0.8203E-05  0.1271E-06  0.1865E-03  0.1321E-02  0.1087E+03
   -0.099994   30.22378  0.3048E-13  0.9811E-05  0.8895E-07  0.3851E-03  0.1002E-02  0.7984E+01
   -0.149992   30.22700  0.3048E-13  0.1085E-04  0.7454E-07  0.4773E-03  0.8831E-03  0.4023E+01
   -0.199991   30.22947  0.3048E-13  0.1167E-04  0.6612E-07  0.6288E-03  0.7899E-03  0.2601E+01
   -0.249989   30.23129  0.3048E-13  0.1232E-04  0.6060E-07  0.7529E-03  0.7192E-03  0.1921E+01
   -0.299988   30.23278  0.3048E-13  0.1285E-04  0.5667E-07  0.8731E-03  0.6604E-03  0.1533E+01
   -0.349988   30.23403  0.3048E-13  0.1329E-04  0.5373E-07  0.9807E-03  0.6099E-03  0.1323E+01
   -0.399988   30.23511  0.3048E-13  0.1367E-04  0.5142E-07  0.1080E-02  0.5651E-03  0.1223E+01
   -0.449988   30.23608  0.3048E-13  0.1400E-04  0.4951E-07  0.1177E-02  0.5249E-03  0.1202E+01
   -0.499988   30.23694  0.3048E-13  0.1430E-04  0.4791E-07  0.1271E-02  0.4886E-03  0.1203E+01
   -0.549989   30.23773  0.3048E-13  0.1455E-04  0.4656E-07  0.1358E-02  0.4557E-03  0.1200E+01
   -0.599990   30.23846  0.3048E-13  0.1478E-04  0.4542E-07  0.1437E-02  0.4259E-03  0.1199E+01
   -0.649991   30.23913  0.3048E-13  0.1497E-04  0.4447E-07  0.1508E-02  0.3989E-03  0.1195E+01
   -0.699992   30.23977  0.3048E-13  0.1512E-04  0.4367E-07  0.1570E-02  0.3742E-03  0.1194E+01
   -0.749993   30.24037  0.3048E-13  0.1526E-04  0.4302E-07  0.1622E-02  0.3518E-03  0.1196E+01
   -0.799995   30.24094  0.3048E-13  0.1536E-04  0.4248E-07  0.1664E-02  0.3313E-03  0.1211E+01
   -0.849996   30.24149  0.3048E-13  0.1544E-04  0.4206E-07  0.1698E-02  0.3124E-03  0.1245E+01
   -0.899998   30.24203  0.3048E-13  0.1550E-04  0.4174E-07  0.1724E-02  0.2950E-03  0.1305E+01
   -0.950000   30.24255  0.3048E-13  0.1553E-04  0.4151E-07  0.1741E-02  0.2786E-03  0.1390E+01
   -1.000001   30.24307  0.3048E-13  0.1555E-04  0.4138E-07  0.1751E-02  0.2632E-03  0.1501E+01
   -1.050003   30.24357  0.3048E-13  0.1555E-04  0.4134E-07  0.1752E-02  0.2486E-03  0.1701E+01
   -1.100005   30.24407  0.3048E-13  0.1552E-04  0.4141E-07  0.1839E-02  0.2346E-03  0.5640E+01
   -1.150006   30.24455  0.3048E-13  0.1548E-04  0.4161E-07  0.1668E-02  0.2222E-03  0.1281E+02
   -1.200008   30.24507  0.3048E-13  0.1541E-04  0.4193E-07  0.1694E-02  0.2093E-03  0.2459E+01
   -1.250009   30.24558  0.3048E-13  0.1531E-04  0.4241E-07  0.1664E-02  0.1969E-03  0.2621E+01
   -1.300011   30.24609  0.3048E-13  0.1519E-04  0.4309E-07  0.1616E-02  0.1851E-03  0.3065E+01
   -1.350012   30.24662  0.3048E-13  0.1504E-04  0.4401E-07  0.1557E-02  0.1735E-03  0.3669E+01
   -1.400013   30.24717  0.3048E-13  0.1486E-04  0.4526E-07  0.1481E-02  0.1623E-03  0.4528E+01
   -1.450014   30.24774  0.3048E-13  0.1463E-04  0.4695E-07  0.1405E-02  0.1513E-03  0.5768E+01
   -1.500014   30.24835  0.3048E-13  0.1435E-04  0.4930E-07  0.1294E-02  0.1405E-03  0.7825E+01
   -1.550015   30.24901  0.3048E-13  0.1402E-04  0.5261E-07  0.1211E-02  0.1296E-03  0.1112E+02
   -1.600015   30.24973  0.3048E-13  0.1360E-04  0.5766E-07  0.1066E-02  0.1190E-03  0.2138E+02
   -1.650015   30.25060  0.3048E-13  0.1306E-04  0.6543E-07  0.9886E-03  0.1076E-03  0.2007E+04
   -1.700014   30.25156  0.3048E-13  0.1233E-04  0.7939E-07  0.8047E-03  0.9659E-04  0.9838E+03
   -1.750013   30.25329  0.3048E-13  0.1135E-04  0.1024E-06  0.7278E-03  0.8189E-04  0.1041E+05
   -1.800012   30.25472  0.3048E-13  0.1001E-04  0.1523E-06  0.5034E-03  0.7039E-04  0.1039E+06
   -1.850010   30.26060  0.3048E-13  0.8519E-05  0.2437E-06  0.4661E-03  0.5054E-04  0.1748E+07
   -1.900008   30.25949  0.3048E-13  0.6747E-05  0.5024E-06  0.2096E-03  0.4118E-04  0.4393E+06
   -1.950006   30.27786  0.3048E-13  0.4693E-05  0.1267E-05  0.1846E-03  0.2214E-04 -0.3185E+06
   -2.000003   30.28000  0.3048E-13  0.0000E+00  0.0000E+00  0.0000E+00  0.4020E-04  0.0000E+00
