 1 - depth, m
 2 - temperature, C
 3 - salinity, kg/kg
 4 - turbulent kinetic energy, m**2/s**2
 5 - dissipation rate, m**2/s**3
 6 - kinematic heat conductance, m**2/s
 7 - modulus of horizontal velocity, m/s
 8 - Richardson number, n/d
   -0.000000   30.14446  0.1979E-14  0.4826E-05  0.2984E-06  0.4916E-04  0.1276E-02  0.5055E+04
   -0.049997   30.17607  0.1979E-14  0.8328E-05  0.1329E-06  0.1831E-03  0.7175E-03  0.2688E+03
   -0.099994   30.18750  0.1979E-14  0.1008E-04  0.9213E-07  0.3996E-03  0.5303E-03  0.2941E+02
   -0.149992   30.19078  0.1979E-14  0.1119E-04  0.7740E-07  0.4851E-03  0.4683E-03  0.1452E+02
   -0.199991   30.19337  0.1979E-14  0.1206E-04  0.6877E-07  0.6461E-03  0.4184E-03  0.9319E+01
   -0.249989   30.19526  0.1979E-14  0.1274E-04  0.6312E-07  0.7716E-03  0.3811E-03  0.6888E+01
   -0.299988   30.19679  0.1979E-14  0.1330E-04  0.5909E-07  0.8971E-03  0.3500E-03  0.5482E+01
   -0.349988   30.19808  0.1979E-14  0.1377E-04  0.5607E-07  0.1010E-02  0.3233E-03  0.4689E+01
   -0.399988   30.19920  0.1979E-14  0.1416E-04  0.5372E-07  0.1114E-02  0.2997E-03  0.4179E+01
   -0.449988   30.20019  0.1979E-14  0.1449E-04  0.5181E-07  0.1211E-02  0.2789E-03  0.3923E+01
   -0.499988   30.20109  0.1979E-14  0.1478E-04  0.5023E-07  0.1299E-02  0.2606E-03  0.3817E+01
   -0.549989   30.20191  0.1979E-14  0.1503E-04  0.4891E-07  0.1380E-02  0.2441E-03  0.3765E+01
   -0.599990   30.20267  0.1979E-14  0.1525E-04  0.4779E-07  0.1453E-02  0.2292E-03  0.3766E+01
   -0.649991   30.20338  0.1979E-14  0.1544E-04  0.4685E-07  0.1519E-02  0.2157E-03  0.3811E+01
   -0.699992   30.20404  0.1979E-14  0.1559E-04  0.4606E-07  0.1577E-02  0.2032E-03  0.3896E+01
   -0.749993   30.20468  0.1979E-14  0.1572E-04  0.4539E-07  0.1627E-02  0.1916E-03  0.4021E+01
   -0.799995   30.20529  0.1979E-14  0.1583E-04  0.4484E-07  0.1670E-02  0.1809E-03  0.4188E+01
   -0.849996   30.20587  0.1979E-14  0.1591E-04  0.4440E-07  0.1705E-02  0.1709E-03  0.4400E+01
   -0.899998   30.20644  0.1979E-14  0.1597E-04  0.4405E-07  0.1732E-02  0.1615E-03  0.4663E+01
   -0.950000   30.20699  0.1979E-14  0.1601E-04  0.4381E-07  0.1750E-02  0.1526E-03  0.4987E+01
   -1.000001   30.20753  0.1979E-14  0.1603E-04  0.4367E-07  0.1761E-02  0.1442E-03  0.5381E+01
   -1.050003   30.20806  0.1979E-14  0.1602E-04  0.4363E-07  0.1761E-02  0.1362E-03  0.6090E+01
   -1.100005   30.20859  0.1979E-14  0.1599E-04  0.4371E-07  0.1851E-02  0.1286E-03  0.2012E+02
   -1.150006   30.20909  0.1979E-14  0.1594E-04  0.4392E-07  0.1673E-02  0.1219E-03  0.4603E+02
   -1.200008   30.20964  0.1979E-14  0.1587E-04  0.4427E-07  0.1701E-02  0.1148E-03  0.8801E+01
   -1.250009   30.21018  0.1979E-14  0.1577E-04  0.4478E-07  0.1671E-02  0.1081E-03  0.9373E+01
   -1.300011   30.21072  0.1979E-14  0.1564E-04  0.4551E-07  0.1621E-02  0.1016E-03  0.1097E+02
   -1.350012   30.21128  0.1979E-14  0.1548E-04  0.4650E-07  0.1561E-02  0.9527E-04  0.1314E+02
   -1.400013   30.21186  0.1979E-14  0.1528E-04  0.4785E-07  0.1483E-02  0.8913E-04  0.1626E+02
   -1.450014   30.21246  0.1979E-14  0.1504E-04  0.4969E-07  0.1405E-02  0.8310E-04  0.2077E+02
   -1.500014   30.21310  0.1979E-14  0.1474E-04  0.5225E-07  0.1293E-02  0.7718E-04  0.2833E+02
   -1.550015   30.21381  0.1979E-14  0.1438E-04  0.5588E-07  0.1208E-02  0.7122E-04  0.4057E+02
   -1.600015   30.21457  0.1979E-14  0.1393E-04  0.6148E-07  0.1065E-02  0.6539E-04  0.8163E+02
   -1.650015   30.21550  0.1979E-14  0.1336E-04  0.7024E-07  0.9841E-03  0.5909E-04  0.1584E+04
   -1.700014   30.21656  0.1979E-14  0.1257E-04  0.8574E-07  0.8033E-03  0.5291E-04  0.8851E+03
   -1.750013   30.21842  0.1979E-14  0.1152E-04  0.1113E-06  0.7236E-03  0.4479E-04  0.1380E+06
   -1.800012   30.22006  0.1979E-14  0.1012E-04  0.1657E-06  0.5086E-03  0.3830E-04  0.1021E+06
   -1.850010   30.22625  0.1979E-14  0.8580E-05  0.2662E-06  0.4661E-03  0.2738E-04  0.1038E+09
   -1.900008   30.22503  0.1979E-14  0.6788E-05  0.5591E-06  0.2140E-03  0.2227E-04 -0.8413E+04
   -1.950006   30.24459  0.1979E-14  0.4756E-05  0.1399E-05  0.1907E-03  0.1191E-04 -0.1408E+07
   -2.000003   30.24655  0.1979E-14  0.0000E+00  0.0000E+00  0.0000E+00  0.2214E-04  0.0000E+00
