 1 - depth, m
 2 - temperature, C
 3 - salinity, kg/kg
 4 - turbulent kinetic energy, m**2/s**2
 5 - dissipation rate, m**2/s**3
 6 - kinematic heat conductance, m**2/s
 7 - modulus of horizontal velocity, m/s
 8 - Richardson number, n/d
   -0.000000   30.66855  0.1218E-14  0.4861E-05  0.3075E-06  0.5118E-04  0.1112E-02  0.3157E+04
   -0.049997   30.69918  0.1218E-14  0.8400E-05  0.1367E-06  0.1772E-03  0.6365E-03  0.7599E+03
   -0.099994   30.71137  0.1218E-14  0.1021E-04  0.9389E-07  0.4078E-03  0.4636E-03  0.4171E+02
   -0.149992   30.71461  0.1218E-14  0.1134E-04  0.7893E-07  0.4845E-03  0.4100E-03  0.2038E+02
   -0.199991   30.71723  0.1218E-14  0.1221E-04  0.7013E-07  0.6494E-03  0.3662E-03  0.1313E+02
   -0.249989   30.71912  0.1218E-14  0.1291E-04  0.6437E-07  0.7755E-03  0.3335E-03  0.9735E+01
   -0.299988   30.72067  0.1218E-14  0.1347E-04  0.6026E-07  0.9018E-03  0.3063E-03  0.7751E+01
   -0.349988   30.72196  0.1218E-14  0.1394E-04  0.5718E-07  0.1016E-02  0.2829E-03  0.6650E+01
   -0.399988   30.72308  0.1218E-14  0.1434E-04  0.5478E-07  0.1120E-02  0.2623E-03  0.5920E+01
   -0.449988   30.72407  0.1218E-14  0.1467E-04  0.5283E-07  0.1217E-02  0.2442E-03  0.5573E+01
   -0.499988   30.72497  0.1218E-14  0.1497E-04  0.5121E-07  0.1306E-02  0.2281E-03  0.5409E+01
   -0.549989   30.72579  0.1218E-14  0.1522E-04  0.4986E-07  0.1387E-02  0.2137E-03  0.5353E+01
   -0.599989   30.72655  0.1218E-14  0.1544E-04  0.4872E-07  0.1461E-02  0.2007E-03  0.5341E+01
   -0.649990   30.72726  0.1218E-14  0.1562E-04  0.4776E-07  0.1526E-02  0.1888E-03  0.5426E+01
   -0.699992   30.72792  0.1218E-14  0.1578E-04  0.4695E-07  0.1585E-02  0.1779E-03  0.5533E+01
   -0.749993   30.72856  0.1218E-14  0.1591E-04  0.4627E-07  0.1635E-02  0.1678E-03  0.5736E+01
   -0.799995   30.72917  0.1218E-14  0.1602E-04  0.4571E-07  0.1678E-02  0.1584E-03  0.5960E+01
   -0.849996   30.72975  0.1218E-14  0.1610E-04  0.4526E-07  0.1713E-02  0.1496E-03  0.6291E+01
   -0.899998   30.73032  0.1218E-14  0.1616E-04  0.4491E-07  0.1740E-02  0.1414E-03  0.6652E+01
   -0.949999   30.73087  0.1218E-14  0.1620E-04  0.4467E-07  0.1758E-02  0.1336E-03  0.7151E+01
   -1.000001   30.73141  0.1218E-14  0.1621E-04  0.4453E-07  0.1768E-02  0.1263E-03  0.7700E+01
   -1.050003   30.73194  0.1218E-14  0.1621E-04  0.4449E-07  0.1768E-02  0.1193E-03  0.8761E+01
   -1.100005   30.73247  0.1218E-14  0.1618E-04  0.4458E-07  0.1860E-02  0.1127E-03  0.2882E+02
   -1.150006   30.73297  0.1218E-14  0.1613E-04  0.4480E-07  0.1677E-02  0.1068E-03  0.6649E+02
   -1.200008   30.73352  0.1218E-14  0.1605E-04  0.4516E-07  0.1706E-02  0.1006E-03  0.1273E+02
   -1.250009   30.73406  0.1218E-14  0.1595E-04  0.4570E-07  0.1675E-02  0.9466E-04  0.1355E+02
   -1.300011   30.73461  0.1218E-14  0.1581E-04  0.4646E-07  0.1624E-02  0.8897E-04  0.1595E+02
   -1.350012   30.73516  0.1218E-14  0.1565E-04  0.4750E-07  0.1564E-02  0.8346E-04  0.1910E+02
   -1.400013   30.73574  0.1218E-14  0.1544E-04  0.4892E-07  0.1484E-02  0.7808E-04  0.2380E+02
   -1.450014   30.73635  0.1218E-14  0.1520E-04  0.5084E-07  0.1407E-02  0.7279E-04  0.3044E+02
   -1.500014   30.73700  0.1218E-14  0.1489E-04  0.5354E-07  0.1292E-02  0.6760E-04  0.4198E+02
   -1.550015   30.73771  0.1218E-14  0.1452E-04  0.5737E-07  0.1212E-02  0.6236E-04  0.6076E+02
   -1.600015   30.73847  0.1218E-14  0.1406E-04  0.6337E-07  0.1064E-02  0.5725E-04  0.1385E+03
   -1.650014   30.73944  0.1218E-14  0.1346E-04  0.7270E-07  0.9861E-03  0.5164E-04  0.3928E+04
   -1.700014   30.74052  0.1218E-14  0.1264E-04  0.8920E-07  0.8010E-03  0.4617E-04  0.5129E+05
   -1.750013   30.74248  0.1218E-14  0.1157E-04  0.1161E-06  0.7251E-03  0.3882E-04  0.3353E+07
   -1.800012   30.74392  0.1218E-14  0.1019E-04  0.1724E-06  0.5060E-03  0.3340E-04  0.6583E+04
   -1.850010   30.75062  0.1218E-14  0.8663E-05  0.2809E-06  0.4662E-03  0.2366E-04  0.1129E+09
   -1.900008   30.74896  0.1218E-14  0.6869E-05  0.5864E-06  0.2127E-03  0.1934E-04  0.1915E+07
   -1.950005   30.76875  0.1218E-14  0.4823E-05  0.1446E-05  0.1945E-03  0.1034E-04 -0.1577E+07
   -2.000002   30.77081  0.1218E-14  0.0000E+00  0.0000E+00  0.0000E+00  0.1949E-04  0.0000E+00
