 1 - depth, m
 2 - temperature, C
 3 - salinity, kg/kg
 4 - turbulent kinetic energy, m**2/s**2
 5 - dissipation rate, m**2/s**3
 6 - kinematic heat conductance, m**2/s
 7 - modulus of horizontal velocity, m/s
 8 - Richardson number, n/d
   -0.000000   30.50610  0.1220E-14  0.4671E-05  0.2889E-06  0.4985E-04  0.7266E-03  0.3240E+05
   -0.049997   30.53599  0.1220E-14  0.8184E-05  0.1281E-06  0.1769E-03  0.4147E-03  0.5563E+02
   -0.099994   30.54754  0.1220E-14  0.9935E-05  0.8823E-07  0.4106E-03  0.2997E-03  0.9743E+02
   -0.149992   30.55060  0.1220E-14  0.1102E-04  0.7446E-07  0.4844E-03  0.2655E-03  0.4776E+02
   -0.199991   30.55309  0.1220E-14  0.1186E-04  0.6632E-07  0.6478E-03  0.2372E-03  0.3112E+02
   -0.249989   30.55490  0.1220E-14  0.1253E-04  0.6096E-07  0.7728E-03  0.2160E-03  0.2321E+02
   -0.299988   30.55638  0.1220E-14  0.1308E-04  0.5713E-07  0.8972E-03  0.1983E-03  0.1851E+02
   -0.349988   30.55762  0.1220E-14  0.1353E-04  0.5424E-07  0.1010E-02  0.1832E-03  0.1593E+02
   -0.399988   30.55869  0.1220E-14  0.1392E-04  0.5200E-07  0.1113E-02  0.1698E-03  0.1418E+02
   -0.449988   30.55965  0.1220E-14  0.1425E-04  0.5017E-07  0.1208E-02  0.1580E-03  0.1338E+02
   -0.499988   30.56051  0.1220E-14  0.1453E-04  0.4866E-07  0.1296E-02  0.1476E-03  0.1298E+02
   -0.549989   30.56130  0.1220E-14  0.1478E-04  0.4739E-07  0.1377E-02  0.1383E-03  0.1287E+02
   -0.599990   30.56203  0.1220E-14  0.1499E-04  0.4633E-07  0.1449E-02  0.1298E-03  0.1282E+02
   -0.649991   30.56271  0.1220E-14  0.1517E-04  0.4542E-07  0.1515E-02  0.1221E-03  0.1305E+02
   -0.699992   30.56336  0.1220E-14  0.1533E-04  0.4466E-07  0.1573E-02  0.1150E-03  0.1328E+02
   -0.749993   30.56397  0.1220E-14  0.1546E-04  0.4403E-07  0.1623E-02  0.1084E-03  0.1379E+02
   -0.799995   30.56455  0.1220E-14  0.1556E-04  0.4350E-07  0.1666E-02  0.1023E-03  0.1429E+02
   -0.849996   30.56512  0.1220E-14  0.1565E-04  0.4308E-07  0.1700E-02  0.9665E-04  0.1511E+02
   -0.899998   30.56566  0.1220E-14  0.1571E-04  0.4275E-07  0.1727E-02  0.9131E-04  0.1593E+02
   -0.950000   30.56620  0.1220E-14  0.1575E-04  0.4252E-07  0.1746E-02  0.8626E-04  0.1713E+02
   -1.000001   30.56672  0.1220E-14  0.1577E-04  0.4239E-07  0.1757E-02  0.8150E-04  0.1839E+02
   -1.050003   30.56723  0.1220E-14  0.1577E-04  0.4236E-07  0.1758E-02  0.7697E-04  0.2093E+02
   -1.100005   30.56774  0.1220E-14  0.1574E-04  0.4243E-07  0.1844E-02  0.7267E-04  0.6893E+02
   -1.150006   30.56822  0.1220E-14  0.1570E-04  0.4264E-07  0.1676E-02  0.6882E-04  0.1568E+03
   -1.200008   30.56875  0.1220E-14  0.1563E-04  0.4297E-07  0.1701E-02  0.6482E-04  0.3020E+02
   -1.250009   30.56927  0.1220E-14  0.1554E-04  0.4347E-07  0.1671E-02  0.6101E-04  0.3202E+02
   -1.300011   30.56979  0.1220E-14  0.1542E-04  0.4417E-07  0.1622E-02  0.5733E-04  0.3761E+02
   -1.350012   30.57033  0.1220E-14  0.1526E-04  0.4512E-07  0.1564E-02  0.5378E-04  0.4480E+02
   -1.400013   30.57089  0.1220E-14  0.1508E-04  0.4640E-07  0.1487E-02  0.5030E-04  0.5554E+02
   -1.450014   30.57147  0.1220E-14  0.1485E-04  0.4814E-07  0.1410E-02  0.4690E-04  0.7049E+02
   -1.500014   30.57209  0.1220E-14  0.1457E-04  0.5055E-07  0.1299E-02  0.4356E-04  0.9598E+02
   -1.550015   30.57276  0.1220E-14  0.1423E-04  0.5395E-07  0.1214E-02  0.4020E-04  0.1362E+03
   -1.600015   30.57349  0.1220E-14  0.1380E-04  0.5911E-07  0.1071E-02  0.3691E-04  0.2520E+03
   -1.650015   30.57437  0.1220E-14  0.1326E-04  0.6709E-07  0.9898E-03  0.3341E-04  0.6108E+03
   -1.700014   30.57536  0.1220E-14  0.1252E-04  0.8139E-07  0.8112E-03  0.2999E-04  0.1437E+06
   -1.750013   30.57710  0.1220E-14  0.1152E-04  0.1049E-06  0.7278E-03  0.2549E-04  0.2347E+06
   -1.800012   30.57861  0.1220E-14  0.1017E-04  0.1545E-06  0.5119E-03  0.2189E-04  0.6901E+06
   -1.850010   30.58449  0.1220E-14  0.8648E-05  0.2472E-06  0.4657E-03  0.1583E-04  0.6714E+08
   -1.900008   30.58351  0.1220E-14  0.6836E-05  0.5152E-06  0.2086E-03  0.1284E-04 -0.7655E+06
   -1.950006   30.60205  0.1220E-14  0.4779E-05  0.1293E-05  0.1853E-03  0.6967E-05 -0.1689E+07
   -2.000003   30.60397  0.1220E-14  0.0000E+00  0.0000E+00  0.0000E+00  0.1249E-04  0.0000E+00
