 1 - depth, m
 2 - temperature, C
 3 - salinity, kg/kg
 4 - turbulent kinetic energy, m**2/s**2
 5 - dissipation rate, m**2/s**3
 6 - kinematic heat conductance, m**2/s
 7 - modulus of horizontal velocity, m/s
 8 - Richardson number, n/d
   -0.000000   31.30417  0.6669E-13  0.5177E-05  0.3354E-06  0.5156E-04  0.6033E-03  0.2599E+05
   -0.049997   31.33822  0.6669E-13  0.9068E-05  0.1489E-06  0.1890E-03  0.3442E-03  0.3018E+04
   -0.099994   31.35037  0.6669E-13  0.1096E-04  0.1029E-06  0.4263E-03  0.2519E-03  0.1501E+03
   -0.149992   31.35378  0.6669E-13  0.1215E-04  0.8677E-07  0.5024E-03  0.2236E-03  0.7438E+02
   -0.199990   31.35654  0.6669E-13  0.1307E-04  0.7722E-07  0.6733E-03  0.2002E-03  0.4852E+02
   -0.249989   31.35853  0.6669E-13  0.1380E-04  0.7093E-07  0.8025E-03  0.1828E-03  0.3604E+02
   -0.299988   31.36016  0.6669E-13  0.1440E-04  0.6643E-07  0.9318E-03  0.1682E-03  0.2884E+02
   -0.349988   31.36152  0.6669E-13  0.1489E-04  0.6305E-07  0.1049E-02  0.1557E-03  0.2462E+02
   -0.399987   31.36271  0.6669E-13  0.1530E-04  0.6041E-07  0.1155E-02  0.1446E-03  0.2200E+02
   -0.449987   31.36376  0.6669E-13  0.1566E-04  0.5826E-07  0.1254E-02  0.1348E-03  0.2056E+02
   -0.499988   31.36470  0.6669E-13  0.1596E-04  0.5648E-07  0.1344E-02  0.1261E-03  0.2004E+02
   -0.549988   31.36557  0.6669E-13  0.1623E-04  0.5499E-07  0.1427E-02  0.1184E-03  0.1966E+02
   -0.599989   31.36637  0.6669E-13  0.1645E-04  0.5373E-07  0.1502E-02  0.1113E-03  0.1971E+02
   -0.649990   31.36711  0.6669E-13  0.1664E-04  0.5267E-07  0.1568E-02  0.1049E-03  0.1984E+02
   -0.699991   31.36782  0.6669E-13  0.1680E-04  0.5177E-07  0.1627E-02  0.9896E-04  0.2035E+02
   -0.749992   31.36849  0.6669E-13  0.1694E-04  0.5102E-07  0.1677E-02  0.9348E-04  0.2090E+02
   -0.799994   31.36913  0.6669E-13  0.1704E-04  0.5041E-07  0.1720E-02  0.8837E-04  0.2186E+02
   -0.849995   31.36975  0.6669E-13  0.1712E-04  0.4991E-07  0.1754E-02  0.8359E-04  0.2286E+02
   -0.899997   31.37034  0.6669E-13  0.1718E-04  0.4954E-07  0.1780E-02  0.7909E-04  0.2435E+02
   -0.949999   31.37093  0.6669E-13  0.1721E-04  0.4928E-07  0.1796E-02  0.7485E-04  0.2595E+02
   -1.000000   31.37150  0.6669E-13  0.1722E-04  0.4913E-07  0.1805E-02  0.7082E-04  0.2816E+02
   -1.050002   31.37206  0.6669E-13  0.1721E-04  0.4912E-07  0.1802E-02  0.6700E-04  0.3176E+02
   -1.100004   31.37263  0.6669E-13  0.1717E-04  0.4923E-07  0.1908E-02  0.6334E-04  0.1039E+03
   -1.150005   31.37315  0.6669E-13  0.1710E-04  0.4951E-07  0.1689E-02  0.6011E-04  0.2488E+03
   -1.200007   31.37374  0.6669E-13  0.1701E-04  0.4995E-07  0.1729E-02  0.5666E-04  0.4659E+02
   -1.250008   31.37432  0.6669E-13  0.1689E-04  0.5059E-07  0.1696E-02  0.5339E-04  0.4988E+02
   -1.300009   31.37490  0.6669E-13  0.1674E-04  0.5150E-07  0.1641E-02  0.5025E-04  0.5859E+02
   -1.350011   31.37550  0.6669E-13  0.1654E-04  0.5274E-07  0.1576E-02  0.4718E-04  0.7102E+02
   -1.400011   31.37612  0.6669E-13  0.1631E-04  0.5443E-07  0.1491E-02  0.4419E-04  0.8876E+02
   -1.450012   31.37678  0.6669E-13  0.1603E-04  0.5675E-07  0.1408E-02  0.4123E-04  0.1155E+03
   -1.500013   31.37748  0.6669E-13  0.1568E-04  0.6002E-07  0.1290E-02  0.3832E-04  0.1613E+03
   -1.550013   31.37826  0.6669E-13  0.1526E-04  0.6472E-07  0.1204E-02  0.3536E-04  0.2440E+03
   -1.600013   31.37911  0.6669E-13  0.1473E-04  0.7213E-07  0.1059E-02  0.3246E-04  0.1335E+04
   -1.650013   31.38020  0.6669E-13  0.1403E-04  0.8381E-07  0.9750E-03  0.2927E-04  0.1720E+06
   -1.700012   31.38147  0.6669E-13  0.1307E-04  0.1045E-06  0.7945E-03  0.2605E-04 -0.5630E+05
   -1.750011   31.38373  0.6669E-13  0.1187E-04  0.1379E-06  0.7145E-03  0.2179E-04  0.1901E+07
   -1.800010   31.38541  0.6669E-13  0.1029E-04  0.2134E-06  0.4871E-03  0.1867E-04 -0.3908E+06
   -1.850008   31.39398  0.6669E-13  0.8686E-05  0.3506E-06  0.4605E-03  0.1285E-04  0.7670E+08
   -1.900006   31.39086  0.6669E-13  0.6905E-05  0.7335E-06  0.2111E-03  0.1062E-04  0.1192E+07
   -1.950004   31.41476  0.6669E-13  0.4938E-05  0.1772E-05  0.2126E-03  0.5580E-05 -0.6348E+07
   -2.000000   31.41480  0.6669E-13  0.0000E+00  0.0000E+00  0.0000E+00  0.1110E-04  0.0000E+00
