 1 - depth, m
 2 - temperature, C
 3 - salinity, kg/kg
 4 - turbulent kinetic energy, m**2/s**2
 5 - dissipation rate, m**2/s**3
 6 - kinematic heat conductance, m**2/s
 7 - modulus of horizontal velocity, m/s
 8 - Richardson number, n/d
   -0.000000   30.75475  0.8363E-14  0.5581E-05  0.3249E-06  0.5223E-04  0.3326E-02  0.1021E+04
   -0.049997   30.78718  0.8363E-14  0.9040E-05  0.1410E-06  0.2084E-03  0.1782E-02  0.3892E+03
   -0.099994   30.79681  0.8363E-14  0.1064E-04  0.1002E-06  0.3922E-03  0.1406E-02  0.5405E+01
   -0.149992   30.80030  0.8363E-14  0.1170E-04  0.8436E-07  0.4902E-03  0.1253E-02  0.2797E+01
   -0.199991   30.80298  0.8363E-14  0.1253E-04  0.7510E-07  0.6293E-03  0.1134E-02  0.1860E+01
   -0.249989   30.80500  0.8363E-14  0.1321E-04  0.6896E-07  0.7423E-03  0.1041E-02  0.1509E+01
   -0.299988   30.80667  0.8363E-14  0.1380E-04  0.6438E-07  0.8620E-03  0.9592E-03  0.1402E+01
   -0.349988   30.80806  0.8363E-14  0.1434E-04  0.6072E-07  0.9897E-03  0.8822E-03  0.1397E+01
   -0.399988   30.80924  0.8363E-14  0.1482E-04  0.5772E-07  0.1120E-02  0.8084E-03  0.1379E+01
   -0.449988   30.81026  0.8363E-14  0.1525E-04  0.5521E-07  0.1247E-02  0.7403E-03  0.1375E+01
   -0.499988   30.81116  0.8363E-14  0.1563E-04  0.5312E-07  0.1366E-02  0.6792E-03  0.1371E+01
   -0.549989   30.81197  0.8363E-14  0.1595E-04  0.5138E-07  0.1475E-02  0.6243E-03  0.1365E+01
   -0.599989   30.81270  0.8363E-14  0.1622E-04  0.4993E-07  0.1574E-02  0.5752E-03  0.1353E+01
   -0.649990   30.81337  0.8363E-14  0.1644E-04  0.4873E-07  0.1660E-02  0.5310E-03  0.1344E+01
   -0.699992   30.81400  0.8363E-14  0.1662E-04  0.4774E-07  0.1733E-02  0.4914E-03  0.1328E+01
   -0.749993   30.81459  0.8363E-14  0.1675E-04  0.4694E-07  0.1792E-02  0.4557E-03  0.1317E+01
   -0.799994   30.81516  0.8363E-14  0.1685E-04  0.4631E-07  0.1838E-02  0.4235E-03  0.1300E+01
   -0.849996   30.81570  0.8363E-14  0.1691E-04  0.4582E-07  0.1871E-02  0.3946E-03  0.1291E+01
   -0.899998   30.81622  0.8363E-14  0.1694E-04  0.4548E-07  0.1891E-02  0.3685E-03  0.1278E+01
   -0.949999   30.81674  0.8363E-14  0.1694E-04  0.4526E-07  0.1899E-02  0.3449E-03  0.1279E+01
   -1.000001   30.81724  0.8363E-14  0.1692E-04  0.4516E-07  0.1896E-02  0.3235E-03  0.1281E+01
   -1.050003   30.81774  0.8363E-14  0.1687E-04  0.4518E-07  0.1879E-02  0.3041E-03  0.1333E+01
   -1.100005   30.81824  0.8363E-14  0.1680E-04  0.4531E-07  0.2022E-02  0.2866E-03  0.3820E+01
   -1.150006   30.81870  0.8363E-14  0.1671E-04  0.4558E-07  0.1718E-02  0.2725E-03  0.9397E+01
   -1.200008   30.81923  0.8363E-14  0.1660E-04  0.4599E-07  0.1790E-02  0.2570E-03  0.1743E+01
   -1.250009   30.81974  0.8363E-14  0.1646E-04  0.4659E-07  0.1754E-02  0.2425E-03  0.1833E+01
   -1.300011   30.82025  0.8363E-14  0.1629E-04  0.4743E-07  0.1693E-02  0.2284E-03  0.2158E+01
   -1.350012   30.82078  0.8363E-14  0.1608E-04  0.4857E-07  0.1623E-02  0.2148E-03  0.2587E+01
   -1.400013   30.82133  0.8363E-14  0.1584E-04  0.5013E-07  0.1533E-02  0.2014E-03  0.3237E+01
   -1.450014   30.82190  0.8363E-14  0.1554E-04  0.5227E-07  0.1444E-02  0.1882E-03  0.4164E+01
   -1.500014   30.82252  0.8363E-14  0.1519E-04  0.5528E-07  0.1324E-02  0.1751E-03  0.5797E+01
   -1.550015   30.82320  0.8363E-14  0.1477E-04  0.5963E-07  0.1233E-02  0.1618E-03  0.9101E+01
   -1.600015   30.82394  0.8363E-14  0.1424E-04  0.6651E-07  0.1086E-02  0.1487E-03 -0.9319E+03
   -1.650014   30.82488  0.8363E-14  0.1355E-04  0.7743E-07  0.9950E-03  0.1342E-03  0.1138E+03
   -1.700014   30.82600  0.8363E-14  0.1262E-04  0.9704E-07  0.8135E-03  0.1194E-03  0.1553E+04
   -1.750013   30.82792  0.8363E-14  0.1145E-04  0.1280E-06  0.7269E-03  0.1003E-03  0.1434E+05
   -1.800012   30.82943  0.8363E-14  0.9927E-05  0.1965E-06  0.5030E-03  0.8562E-04  0.1395E+04
   -1.850010   30.83635  0.8363E-14  0.8366E-05  0.3205E-06  0.4655E-03  0.5951E-04  0.2538E+08
   -1.900008   30.83408  0.8363E-14  0.6601E-05  0.6730E-06  0.2169E-03  0.4897E-04 -0.4980E+06
   -1.950005   30.85414  0.8363E-14  0.4688E-05  0.1632E-05  0.2101E-03  0.2573E-04 -0.1256E+06
   -2.000002   30.85457  0.8363E-14  0.0000E+00  0.0000E+00  0.0000E+00  0.5152E-04  0.0000E+00
