 1 - depth, m
 2 - temperature, C
 3 - salinity, kg/kg
 4 - turbulent kinetic energy, m**2/s**2
 5 - dissipation rate, m**2/s**3
 6 - kinematic heat conductance, m**2/s
 7 - modulus of horizontal velocity, m/s
 8 - Richardson number, n/d
   -0.000000   30.73187  0.1568E-14  0.4911E-05  0.3099E-06  0.5038E-04  0.1049E-02  0.7009E+04
   -0.049997   30.76354  0.1568E-14  0.8505E-05  0.1377E-06  0.1820E-03  0.5939E-03  0.9665E+03
   -0.099994   30.77547  0.1568E-14  0.1031E-04  0.9502E-07  0.4084E-03  0.4358E-03  0.5039E+02
   -0.149992   30.77875  0.1568E-14  0.1144E-04  0.7991E-07  0.4885E-03  0.3854E-03  0.2476E+02
   -0.199991   30.78137  0.1568E-14  0.1232E-04  0.7102E-07  0.6530E-03  0.3444E-03  0.1598E+02
   -0.249989   30.78328  0.1568E-14  0.1302E-04  0.6519E-07  0.7792E-03  0.3137E-03  0.1189E+02
   -0.299988   30.78483  0.1568E-14  0.1359E-04  0.6103E-07  0.9058E-03  0.2882E-03  0.9463E+01
   -0.349988   30.78614  0.1568E-14  0.1406E-04  0.5791E-07  0.1020E-02  0.2663E-03  0.8136E+01
   -0.399988   30.78726  0.1568E-14  0.1446E-04  0.5548E-07  0.1125E-02  0.2469E-03  0.7235E+01
   -0.449988   30.78827  0.1568E-14  0.1480E-04  0.5350E-07  0.1221E-02  0.2299E-03  0.6825E+01
   -0.499988   30.78917  0.1568E-14  0.1509E-04  0.5187E-07  0.1310E-02  0.2148E-03  0.6616E+01
   -0.549989   30.79000  0.1568E-14  0.1534E-04  0.5050E-07  0.1391E-02  0.2013E-03  0.6562E+01
   -0.599989   30.79076  0.1568E-14  0.1556E-04  0.4934E-07  0.1465E-02  0.1890E-03  0.6537E+01
   -0.649990   30.79148  0.1568E-14  0.1575E-04  0.4837E-07  0.1531E-02  0.1779E-03  0.6656E+01
   -0.699992   30.79215  0.1568E-14  0.1590E-04  0.4754E-07  0.1589E-02  0.1676E-03  0.6775E+01
   -0.749993   30.79279  0.1568E-14  0.1603E-04  0.4685E-07  0.1639E-02  0.1581E-03  0.7041E+01
   -0.799994   30.79340  0.1568E-14  0.1614E-04  0.4628E-07  0.1682E-02  0.1493E-03  0.7300E+01
   -0.849996   30.79399  0.1568E-14  0.1622E-04  0.4582E-07  0.1716E-02  0.1410E-03  0.7726E+01
   -0.899998   30.79456  0.1568E-14  0.1628E-04  0.4547E-07  0.1743E-02  0.1333E-03  0.8153E+01
   -0.949999   30.79512  0.1568E-14  0.1631E-04  0.4522E-07  0.1761E-02  0.1260E-03  0.8788E+01
   -1.000001   30.79567  0.1568E-14  0.1633E-04  0.4508E-07  0.1770E-02  0.1191E-03  0.9446E+01
   -1.050003   30.79620  0.1568E-14  0.1632E-04  0.4505E-07  0.1770E-02  0.1125E-03  0.1077E+02
   -1.100004   30.79674  0.1568E-14  0.1629E-04  0.4513E-07  0.1864E-02  0.1063E-03  0.3514E+02
   -1.150006   30.79724  0.1568E-14  0.1623E-04  0.4536E-07  0.1674E-02  0.1007E-03  0.8281E+02
   -1.200008   30.79780  0.1568E-14  0.1615E-04  0.4573E-07  0.1705E-02  0.9486E-04  0.1574E+02
   -1.250009   30.79834  0.1568E-14  0.1604E-04  0.4628E-07  0.1674E-02  0.8931E-04  0.1671E+02
   -1.300010   30.79889  0.1568E-14  0.1591E-04  0.4706E-07  0.1622E-02  0.8395E-04  0.1975E+02
   -1.350012   30.79946  0.1568E-14  0.1573E-04  0.4813E-07  0.1561E-02  0.7876E-04  0.2369E+02
   -1.400013   30.80004  0.1568E-14  0.1552E-04  0.4958E-07  0.1481E-02  0.7368E-04  0.2965E+02
   -1.450013   30.80066  0.1568E-14  0.1527E-04  0.5156E-07  0.1401E-02  0.6870E-04  0.3811E+02
   -1.500014   30.80131  0.1568E-14  0.1496E-04  0.5434E-07  0.1288E-02  0.6379E-04  0.5282E+02
   -1.550014   30.80203  0.1568E-14  0.1458E-04  0.5831E-07  0.1202E-02  0.5886E-04  0.7739E+02
   -1.600014   30.80282  0.1568E-14  0.1410E-04  0.6448E-07  0.1061E-02  0.5400E-04  0.8715E+03
   -1.650014   30.80379  0.1568E-14  0.1348E-04  0.7423E-07  0.9744E-03  0.4876E-04  0.1518E+04
   -1.700014   30.80493  0.1568E-14  0.1263E-04  0.9129E-07  0.7986E-03  0.4348E-04  0.2101E+05
   -1.750013   30.80689  0.1568E-14  0.1154E-04  0.1192E-06  0.7162E-03  0.3667E-04  0.4611E+06
   -1.800011   30.80846  0.1568E-14  0.1009E-04  0.1824E-06  0.4937E-03  0.3139E-04 -0.2730E+05
   -1.850010   30.81556  0.1568E-14  0.8551E-05  0.2966E-06  0.4612E-03  0.2213E-04  0.3669E+09
   -1.900008   30.81355  0.1568E-14  0.6789E-05  0.6208E-06  0.2090E-03  0.1814E-04 -0.3730E+06
   -1.950005   30.83430  0.1568E-14  0.4782E-05  0.1515E-05  0.2002E-03  0.9678E-05  0.1146E+05
   -2.000002   30.83532  0.1568E-14  0.0000E+00  0.0000E+00  0.0000E+00  0.1841E-04  0.0000E+00
