 1 - depth, m
 2 - temperature, C
 3 - salinity, kg/kg
 4 - turbulent kinetic energy, m**2/s**2
 5 - dissipation rate, m**2/s**3
 6 - kinematic heat conductance, m**2/s
 7 - modulus of horizontal velocity, m/s
 8 - Richardson number, n/d
   -0.000000   29.54943  0.6712E-14  0.5127E-05  0.2952E-06  0.5098E-04  0.2920E-02  0.1566E+04
   -0.049997   29.57994  0.6712E-14  0.8432E-05  0.1291E-06  0.1950E-03  0.1583E-02  0.3291E+02
   -0.099994   29.58961  0.6712E-14  0.9994E-05  0.9108E-07  0.3853E-03  0.1226E-02  0.6078E+01
   -0.149992   29.59296  0.6712E-14  0.1102E-04  0.7657E-07  0.4800E-03  0.1087E-02  0.3103E+01
   -0.199991   29.59552  0.6712E-14  0.1182E-04  0.6808E-07  0.6242E-03  0.9789E-03  0.2035E+01
   -0.249989   29.59744  0.6712E-14  0.1246E-04  0.6251E-07  0.7397E-03  0.8957E-03  0.1542E+01
   -0.299989   29.59902  0.6712E-14  0.1300E-04  0.5848E-07  0.8506E-03  0.8255E-03  0.1341E+01
   -0.349988   29.60036  0.6712E-14  0.1347E-04  0.5532E-07  0.9634E-03  0.7619E-03  0.1303E+01
   -0.399988   29.60150  0.6712E-14  0.1389E-04  0.5273E-07  0.1080E-02  0.7016E-03  0.1288E+01
   -0.449988   29.60251  0.6712E-14  0.1427E-04  0.5056E-07  0.1194E-02  0.6460E-03  0.1289E+01
   -0.499988   29.60340  0.6712E-14  0.1460E-04  0.4873E-07  0.1302E-02  0.5958E-03  0.1295E+01
   -0.549989   29.60419  0.6712E-14  0.1489E-04  0.4720E-07  0.1401E-02  0.5506E-03  0.1291E+01
   -0.599990   29.60492  0.6712E-14  0.1514E-04  0.4592E-07  0.1491E-02  0.5098E-03  0.1287E+01
   -0.649991   29.60560  0.6712E-14  0.1534E-04  0.4484E-07  0.1571E-02  0.4730E-03  0.1277E+01
   -0.699992   29.60623  0.6712E-14  0.1550E-04  0.4395E-07  0.1639E-02  0.4398E-03  0.1267E+01
   -0.749993   29.60682  0.6712E-14  0.1563E-04  0.4321E-07  0.1696E-02  0.4098E-03  0.1252E+01
   -0.799995   29.60739  0.6712E-14  0.1573E-04  0.4262E-07  0.1741E-02  0.3826E-03  0.1241E+01
   -0.849996   29.60794  0.6712E-14  0.1580E-04  0.4216E-07  0.1775E-02  0.3580E-03  0.1230E+01
   -0.899998   29.60846  0.6712E-14  0.1584E-04  0.4181E-07  0.1798E-02  0.3358E-03  0.1229E+01
   -0.950000   29.60898  0.6712E-14  0.1585E-04  0.4158E-07  0.1811E-02  0.3155E-03  0.1235E+01
   -1.000002   29.60948  0.6712E-14  0.1584E-04  0.4144E-07  0.1815E-02  0.2970E-03  0.1262E+01
   -1.050003   29.60998  0.6712E-14  0.1581E-04  0.4141E-07  0.1808E-02  0.2801E-03  0.1354E+01
   -1.100005   29.61047  0.6712E-14  0.1576E-04  0.4148E-07  0.1922E-02  0.2644E-03  0.4272E+01
   -1.150007   29.61093  0.6712E-14  0.1569E-04  0.4168E-07  0.1683E-02  0.2509E-03  0.1010E+02
   -1.200008   29.61145  0.6712E-14  0.1560E-04  0.4200E-07  0.1733E-02  0.2364E-03  0.1892E+01
   -1.250010   29.61195  0.6712E-14  0.1548E-04  0.4249E-07  0.1700E-02  0.2228E-03  0.2009E+01
   -1.300011   29.61245  0.6712E-14  0.1533E-04  0.4317E-07  0.1646E-02  0.2096E-03  0.2343E+01
   -1.350012   29.61297  0.6712E-14  0.1515E-04  0.4411E-07  0.1581E-02  0.1968E-03  0.2809E+01
   -1.400013   29.61350  0.6712E-14  0.1493E-04  0.4539E-07  0.1500E-02  0.1843E-03  0.3463E+01
   -1.450014   29.61406  0.6712E-14  0.1468E-04  0.4715E-07  0.1417E-02  0.1719E-03  0.4427E+01
   -1.500015   29.61465  0.6712E-14  0.1437E-04  0.4962E-07  0.1302E-02  0.1598E-03  0.6014E+01
   -1.550015   29.61530  0.6712E-14  0.1399E-04  0.5315E-07  0.1217E-02  0.1476E-03  0.8744E+01
   -1.600015   29.61600  0.6712E-14  0.1353E-04  0.5862E-07  0.1069E-02  0.1355E-03  0.2738E+02
   -1.650015   29.61686  0.6712E-14  0.1294E-04  0.6727E-07  0.9899E-03  0.1225E-03  0.1057E+04
   -1.700015   29.61786  0.6712E-14  0.1213E-04  0.8246E-07  0.8028E-03  0.1094E-03  0.2715E+03
   -1.750014   29.61957  0.6712E-14  0.1108E-04  0.1071E-06  0.7257E-03  0.9238E-04  0.3192E+05
   -1.800012   29.62098  0.6712E-14  0.9682E-05  0.1589E-06  0.4977E-03  0.7909E-04  0.1510E+04
   -1.850011   29.62690  0.6712E-14  0.8158E-05  0.2571E-06  0.4643E-03  0.5569E-04  0.5262E+07
   -1.900009   29.62547  0.6712E-14  0.6438E-05  0.5390E-06  0.2128E-03  0.4556E-04 -0.4080E+05
   -1.950006   29.64339  0.6712E-14  0.4502E-05  0.1348E-05  0.1923E-03  0.2411E-04 -0.1332E+06
   -2.000003   29.64511  0.6712E-14  0.0000E+00  0.0000E+00  0.0000E+00  0.4642E-04  0.0000E+00
