 1 - depth, m
 2 - temperature, C
 3 - salinity, kg/kg
 4 - turbulent kinetic energy, m**2/s**2
 5 - dissipation rate, m**2/s**3
 6 - kinematic heat conductance, m**2/s
 7 - modulus of horizontal velocity, m/s
 8 - Richardson number, n/d
   -0.000000   30.56133  0.5693E-14  0.5001E-05  0.3146E-06  0.4961E-04  0.1253E-02  0.4203E+04
   -0.049997   30.59458  0.5693E-14  0.8608E-05  0.1401E-06  0.1861E-03  0.7049E-03  0.3716E+04
   -0.099994   30.60644  0.5693E-14  0.1041E-04  0.9711E-07  0.4026E-03  0.5229E-03  0.3164E+02
   -0.149992   30.60987  0.5693E-14  0.1154E-04  0.8153E-07  0.4886E-03  0.4621E-03  0.1562E+02
   -0.199991   30.61258  0.5693E-14  0.1242E-04  0.7237E-07  0.6505E-03  0.4131E-03  0.1001E+02
   -0.249989   30.61455  0.5693E-14  0.1312E-04  0.6635E-07  0.7763E-03  0.3764E-03  0.7390E+01
   -0.299988   30.61615  0.5693E-14  0.1368E-04  0.6204E-07  0.9025E-03  0.3458E-03  0.5876E+01
   -0.349988   30.61749  0.5693E-14  0.1415E-04  0.5880E-07  0.1016E-02  0.3195E-03  0.5016E+01
   -0.399988   30.61865  0.5693E-14  0.1454E-04  0.5626E-07  0.1120E-02  0.2963E-03  0.4467E+01
   -0.449988   30.61968  0.5693E-14  0.1487E-04  0.5420E-07  0.1217E-02  0.2759E-03  0.4186E+01
   -0.499988   30.62060  0.5693E-14  0.1516E-04  0.5248E-07  0.1305E-02  0.2578E-03  0.4071E+01
   -0.549989   30.62145  0.5693E-14  0.1540E-04  0.5103E-07  0.1386E-02  0.2416E-03  0.4008E+01
   -0.599989   30.62223  0.5693E-14  0.1561E-04  0.4980E-07  0.1459E-02  0.2269E-03  0.4007E+01
   -0.649990   30.62296  0.5693E-14  0.1578E-04  0.4875E-07  0.1525E-02  0.2135E-03  0.4045E+01
   -0.699992   30.62365  0.5693E-14  0.1593E-04  0.4786E-07  0.1583E-02  0.2012E-03  0.4134E+01
   -0.749993   30.62430  0.5693E-14  0.1605E-04  0.4710E-07  0.1633E-02  0.1898E-03  0.4255E+01
   -0.799994   30.62492  0.5693E-14  0.1614E-04  0.4645E-07  0.1676E-02  0.1793E-03  0.4430E+01
   -0.849996   30.62551  0.5693E-14  0.1621E-04  0.4592E-07  0.1710E-02  0.1694E-03  0.4641E+01
   -0.899998   30.62609  0.5693E-14  0.1626E-04  0.4550E-07  0.1737E-02  0.1601E-03  0.4916E+01
   -0.949999   30.62665  0.5693E-14  0.1628E-04  0.4518E-07  0.1755E-02  0.1513E-03  0.5244E+01
   -1.000001   30.62720  0.5693E-14  0.1628E-04  0.4496E-07  0.1765E-02  0.1430E-03  0.5655E+01
   -1.050003   30.62774  0.5693E-14  0.1626E-04  0.4485E-07  0.1764E-02  0.1351E-03  0.6380E+01
   -1.100004   30.62827  0.5693E-14  0.1621E-04  0.4486E-07  0.1859E-02  0.1276E-03  0.2098E+02
   -1.150006   30.62877  0.5693E-14  0.1614E-04  0.4501E-07  0.1668E-02  0.1209E-03  0.4865E+02
   -1.200008   30.62932  0.5693E-14  0.1605E-04  0.4529E-07  0.1701E-02  0.1139E-03  0.9216E+01
   -1.250009   30.62986  0.5693E-14  0.1593E-04  0.4575E-07  0.1670E-02  0.1072E-03  0.9782E+01
   -1.300010   30.63040  0.5693E-14  0.1578E-04  0.4643E-07  0.1619E-02  0.1008E-03  0.1143E+02
   -1.350012   30.63095  0.5693E-14  0.1559E-04  0.4738E-07  0.1558E-02  0.9458E-04  0.1370E+02
   -1.400013   30.63152  0.5693E-14  0.1537E-04  0.4871E-07  0.1479E-02  0.8849E-04  0.1695E+02
   -1.450014   30.63212  0.5693E-14  0.1511E-04  0.5055E-07  0.1399E-02  0.8251E-04  0.2170E+02
   -1.500014   30.63275  0.5693E-14  0.1479E-04  0.5315E-07  0.1286E-02  0.7662E-04  0.2966E+02
   -1.550014   30.63344  0.5693E-14  0.1440E-04  0.5692E-07  0.1202E-02  0.7070E-04  0.4336E+02
   -1.600015   30.63419  0.5693E-14  0.1392E-04  0.6276E-07  0.1058E-02  0.6487E-04  0.9331E+02
   -1.650014   30.63511  0.5693E-14  0.1330E-04  0.7206E-07  0.9770E-03  0.5860E-04  0.6138E+03
   -1.700014   30.63620  0.5693E-14  0.1244E-04  0.8853E-07  0.7954E-03  0.5223E-04 -0.3567E+05
   -1.750013   30.63804  0.5693E-14  0.1136E-04  0.1150E-06  0.7172E-03  0.4398E-04  0.2300E+06
   -1.800012   30.63945  0.5693E-14  0.9919E-05  0.1722E-06  0.4917E-03  0.3777E-04  0.6340E+06
   -1.850010   30.64618  0.5693E-14  0.8360E-05  0.2817E-06  0.4583E-03  0.2638E-04  0.2060E+08
   -1.900008   30.64435  0.5693E-14  0.6606E-05  0.5891E-06  0.2107E-03  0.2157E-04  0.2682E+06
   -1.950005   30.66355  0.5693E-14  0.4643E-05  0.1461E-05  0.1952E-03  0.1141E-04 -0.9783E+06
   -2.000002   30.66504  0.5693E-14  0.0000E+00  0.0000E+00  0.0000E+00  0.2202E-04  0.0000E+00
