 1 - depth, m
 2 - temperature, C
 3 - salinity, kg/kg
 4 - turbulent kinetic energy, m**2/s**2
 5 - dissipation rate, m**2/s**3
 6 - kinematic heat conductance, m**2/s
 7 - modulus of horizontal velocity, m/s
 8 - Richardson number, n/d
   -0.000000   30.20590  0.3382E-13  0.4951E-05  0.3109E-06  0.5128E-04  0.1788E-02  0.6432E+04
   -0.049997   30.23664  0.3382E-13  0.8417E-05  0.1384E-06  0.1786E-03  0.1021E-02  0.5939E+03
   -0.099994   30.24853  0.3382E-13  0.1021E-04  0.9511E-07  0.4004E-03  0.7506E-03  0.1605E+02
   -0.149992   30.25185  0.3382E-13  0.1134E-04  0.7968E-07  0.4824E-03  0.6631E-03  0.7881E+01
   -0.199991   30.25448  0.3382E-13  0.1222E-04  0.7068E-07  0.6457E-03  0.5923E-03  0.5045E+01
   -0.249989   30.25640  0.3382E-13  0.1292E-04  0.6481E-07  0.7721E-03  0.5394E-03  0.3711E+01
   -0.299988   30.25796  0.3382E-13  0.1349E-04  0.6064E-07  0.8987E-03  0.4954E-03  0.2955E+01
   -0.349988   30.25926  0.3382E-13  0.1396E-04  0.5752E-07  0.1013E-02  0.4577E-03  0.2518E+01
   -0.399988   30.26040  0.3382E-13  0.1436E-04  0.5510E-07  0.1118E-02  0.4244E-03  0.2249E+01
   -0.449988   30.26140  0.3382E-13  0.1471E-04  0.5314E-07  0.1215E-02  0.3951E-03  0.2105E+01
   -0.499988   30.26231  0.3382E-13  0.1501E-04  0.5151E-07  0.1305E-02  0.3691E-03  0.2055E+01
   -0.549989   30.26314  0.3382E-13  0.1527E-04  0.5016E-07  0.1387E-02  0.3459E-03  0.2020E+01
   -0.599989   30.26391  0.3382E-13  0.1549E-04  0.4903E-07  0.1462E-02  0.3248E-03  0.2028E+01
   -0.649990   30.26463  0.3382E-13  0.1569E-04  0.4807E-07  0.1529E-02  0.3055E-03  0.2043E+01
   -0.699992   30.26530  0.3382E-13  0.1585E-04  0.4727E-07  0.1588E-02  0.2879E-03  0.2095E+01
   -0.749993   30.26594  0.3382E-13  0.1599E-04  0.4660E-07  0.1639E-02  0.2716E-03  0.2152E+01
   -0.799994   30.26656  0.3382E-13  0.1610E-04  0.4606E-07  0.1682E-02  0.2564E-03  0.2250E+01
   -0.849996   30.26715  0.3382E-13  0.1619E-04  0.4563E-07  0.1718E-02  0.2423E-03  0.2352E+01
   -0.899998   30.26773  0.3382E-13  0.1626E-04  0.4530E-07  0.1745E-02  0.2290E-03  0.2507E+01
   -0.949999   30.26829  0.3382E-13  0.1630E-04  0.4508E-07  0.1763E-02  0.2165E-03  0.2669E+01
   -1.000001   30.26884  0.3382E-13  0.1632E-04  0.4496E-07  0.1774E-02  0.2047E-03  0.2899E+01
   -1.050003   30.26938  0.3382E-13  0.1632E-04  0.4496E-07  0.1774E-02  0.1934E-03  0.3268E+01
   -1.100005   30.26992  0.3382E-13  0.1630E-04  0.4507E-07  0.1864E-02  0.1827E-03  0.1086E+02
   -1.150006   30.27043  0.3382E-13  0.1626E-04  0.4532E-07  0.1686E-02  0.1732E-03  0.2490E+02
   -1.200008   30.27100  0.3382E-13  0.1619E-04  0.4571E-07  0.1714E-02  0.1632E-03  0.4740E+01
   -1.250009   30.27155  0.3382E-13  0.1609E-04  0.4629E-07  0.1682E-02  0.1536E-03  0.5084E+01
   -1.300011   30.27211  0.3382E-13  0.1596E-04  0.4708E-07  0.1632E-02  0.1445E-03  0.5930E+01
   -1.350012   30.27268  0.3382E-13  0.1580E-04  0.4816E-07  0.1571E-02  0.1356E-03  0.7155E+01
   -1.400013   30.27328  0.3382E-13  0.1561E-04  0.4961E-07  0.1493E-02  0.1269E-03  0.8836E+01
   -1.450014   30.27390  0.3382E-13  0.1537E-04  0.5159E-07  0.1414E-02  0.1184E-03  0.1137E+02
   -1.500014   30.27457  0.3382E-13  0.1507E-04  0.5432E-07  0.1301E-02  0.1100E-03  0.1552E+02
   -1.550015   30.27530  0.3382E-13  0.1471E-04  0.5821E-07  0.1217E-02  0.1015E-03  0.2267E+02
   -1.600015   30.27609  0.3382E-13  0.1425E-04  0.6422E-07  0.1070E-02  0.9323E-04  0.5165E+02
   -1.650014   30.27708  0.3382E-13  0.1366E-04  0.7353E-07  0.9887E-03  0.8420E-04  0.6503E+02
   -1.700014   30.27820  0.3382E-13  0.1284E-04  0.9005E-07  0.8057E-03  0.7540E-04  0.4018E+01
   -1.750013   30.28018  0.3382E-13  0.1179E-04  0.1169E-06  0.7284E-03  0.6369E-04  0.4162E+05
   -1.800012   30.28175  0.3382E-13  0.1039E-04  0.1746E-06  0.5045E-03  0.5483E-04  0.9470E+04
   -1.850010   30.28859  0.3382E-13  0.8833E-05  0.2830E-06  0.4667E-03  0.3905E-04  0.9385E+07
   -1.900008   30.28707  0.3382E-13  0.6991E-05  0.5866E-06  0.2145E-03  0.3184E-04  0.6411E+05
   -1.950005   30.30779  0.3382E-13  0.4911E-05  0.1456E-05  0.1935E-03  0.1704E-04 -0.2493E+06
   -2.000002   30.30990  0.3382E-13  0.0000E+00  0.0000E+00  0.0000E+00  0.3177E-04  0.0000E+00
