 1 - depth, m
 2 - temperature, C
 3 - salinity, kg/kg
 4 - turbulent kinetic energy, m**2/s**2
 5 - dissipation rate, m**2/s**3
 6 - kinematic heat conductance, m**2/s
 7 - modulus of horizontal velocity, m/s
 8 - Richardson number, n/d
   -0.000000   30.40382  0.2761E-14  0.4784E-05  0.2955E-06  0.4963E-04  0.1350E-02  0.8608E+04
   -0.049997   30.43435  0.2761E-14  0.8242E-05  0.1317E-06  0.1801E-03  0.7659E-03  0.2810E+04
   -0.099994   30.44573  0.2761E-14  0.9993E-05  0.9097E-07  0.3992E-03  0.5628E-03  0.2745E+02
   -0.149992   30.44893  0.2761E-14  0.1109E-04  0.7641E-07  0.4822E-03  0.4972E-03  0.1350E+02
   -0.199991   30.45147  0.2761E-14  0.1195E-04  0.6789E-07  0.6435E-03  0.4441E-03  0.8677E+01
   -0.249989   30.45332  0.2761E-14  0.1264E-04  0.6231E-07  0.7689E-03  0.4044E-03  0.6398E+01
   -0.299988   30.45483  0.2761E-14  0.1319E-04  0.5833E-07  0.8941E-03  0.3713E-03  0.5102E+01
   -0.349988   30.45609  0.2761E-14  0.1366E-04  0.5536E-07  0.1007E-02  0.3430E-03  0.4350E+01
   -0.399988   30.45719  0.2761E-14  0.1405E-04  0.5305E-07  0.1111E-02  0.3179E-03  0.3887E+01
   -0.449988   30.45816  0.2761E-14  0.1438E-04  0.5117E-07  0.1207E-02  0.2959E-03  0.3636E+01
   -0.499988   30.45904  0.2761E-14  0.1467E-04  0.4962E-07  0.1296E-02  0.2764E-03  0.3548E+01
   -0.549989   30.45984  0.2761E-14  0.1493E-04  0.4832E-07  0.1377E-02  0.2590E-03  0.3486E+01
   -0.599989   30.46059  0.2761E-14  0.1514E-04  0.4723E-07  0.1450E-02  0.2431E-03  0.3501E+01
   -0.649991   30.46128  0.2761E-14  0.1533E-04  0.4631E-07  0.1516E-02  0.2288E-03  0.3527E+01
   -0.699992   30.46194  0.2761E-14  0.1549E-04  0.4554E-07  0.1574E-02  0.2155E-03  0.3623E+01
   -0.749993   30.46256  0.2761E-14  0.1562E-04  0.4490E-07  0.1625E-02  0.2033E-03  0.3722E+01
   -0.799995   30.46316  0.2761E-14  0.1573E-04  0.4436E-07  0.1668E-02  0.1919E-03  0.3897E+01
   -0.849996   30.46373  0.2761E-14  0.1582E-04  0.4394E-07  0.1703E-02  0.1813E-03  0.4074E+01
   -0.899998   30.46429  0.2761E-14  0.1588E-04  0.4362E-07  0.1730E-02  0.1713E-03  0.4343E+01
   -0.949999   30.46483  0.2761E-14  0.1592E-04  0.4339E-07  0.1749E-02  0.1619E-03  0.4622E+01
   -1.000001   30.46536  0.2761E-14  0.1594E-04  0.4327E-07  0.1760E-02  0.1530E-03  0.5019E+01
   -1.050003   30.46589  0.2761E-14  0.1594E-04  0.4325E-07  0.1761E-02  0.1445E-03  0.5655E+01
   -1.100005   30.46641  0.2761E-14  0.1592E-04  0.4334E-07  0.1848E-02  0.1364E-03  0.1882E+02
   -1.150006   30.46690  0.2761E-14  0.1588E-04  0.4356E-07  0.1676E-02  0.1293E-03  0.4281E+02
   -1.200008   30.46744  0.2761E-14  0.1581E-04  0.4392E-07  0.1702E-02  0.1218E-03  0.8171E+01
   -1.250009   30.46797  0.2761E-14  0.1572E-04  0.4445E-07  0.1672E-02  0.1146E-03  0.8762E+01
   -1.300011   30.46850  0.2761E-14  0.1559E-04  0.4518E-07  0.1622E-02  0.1078E-03  0.1019E+02
   -1.350012   30.46905  0.2761E-14  0.1544E-04  0.4618E-07  0.1563E-02  0.1011E-03  0.1228E+02
   -1.400013   30.46963  0.2761E-14  0.1525E-04  0.4752E-07  0.1486E-02  0.9460E-04  0.1509E+02
   -1.450014   30.47022  0.2761E-14  0.1501E-04  0.4934E-07  0.1408E-02  0.8821E-04  0.1937E+02
   -1.500014   30.47086  0.2761E-14  0.1473E-04  0.5187E-07  0.1296E-02  0.8195E-04  0.2620E+02
   -1.550015   30.47156  0.2761E-14  0.1438E-04  0.5543E-07  0.1212E-02  0.7564E-04  0.3758E+02
   -1.600015   30.47231  0.2761E-14  0.1395E-04  0.6085E-07  0.1067E-02  0.6947E-04  0.7471E+02
   -1.650014   30.47322  0.2761E-14  0.1339E-04  0.6922E-07  0.9898E-03  0.6286E-04  0.2048E+03
   -1.700014   30.47425  0.2761E-14  0.1262E-04  0.8427E-07  0.8066E-03  0.5642E-04  0.8182E+05
   -1.750013   30.47606  0.2761E-14  0.1159E-04  0.1091E-06  0.7280E-03  0.4786E-04  0.1055E+06
   -1.800012   30.47763  0.2761E-14  0.1020E-04  0.1646E-06  0.5086E-03  0.4104E-04  0.3209E+05
   -1.850010   30.48379  0.2761E-14  0.8654E-05  0.2630E-06  0.4685E-03  0.2942E-04  0.1434E+08
   -1.900008   30.48267  0.2761E-14  0.6833E-05  0.5450E-06  0.2091E-03  0.2395E-04 -0.2112E+07
   -1.950005   30.50211  0.2761E-14  0.4791E-05  0.1366E-05  0.1905E-03  0.1284E-04 -0.6257E+06
   -2.000002   30.50406  0.2761E-14  0.0000E+00  0.0000E+00  0.0000E+00  0.2356E-04  0.0000E+00
