 1 - depth, m
 2 - temperature, C
 3 - salinity, kg/kg
 4 - turbulent kinetic energy, m**2/s**2
 5 - dissipation rate, m**2/s**3
 6 - kinematic heat conductance, m**2/s
 7 - modulus of horizontal velocity, m/s
 8 - Richardson number, n/d
   -0.000000   30.62037  0.2517E-14  0.5105E-05  0.3273E-06  0.5228E-04  0.1867E-02  0.6128E+04
   -0.049997   30.65211  0.2517E-14  0.8633E-05  0.1459E-06  0.1775E-03  0.1077E-02  0.2028E+03
   -0.099994   30.66471  0.2517E-14  0.1047E-04  0.9974E-07  0.4027E-03  0.7875E-03  0.1447E+02
   -0.149992   30.66817  0.2517E-14  0.1162E-04  0.8346E-07  0.4821E-03  0.6960E-03  0.7084E+01
   -0.199991   30.67093  0.2517E-14  0.1252E-04  0.7393E-07  0.6467E-03  0.6214E-03  0.4522E+01
   -0.249989   30.67293  0.2517E-14  0.1322E-04  0.6770E-07  0.7732E-03  0.5658E-03  0.3331E+01
   -0.299988   30.67455  0.2517E-14  0.1380E-04  0.6326E-07  0.9000E-03  0.5196E-03  0.2641E+01
   -0.349988   30.67591  0.2517E-14  0.1427E-04  0.5993E-07  0.1015E-02  0.4800E-03  0.2256E+01
   -0.399988   30.67708  0.2517E-14  0.1467E-04  0.5733E-07  0.1119E-02  0.4451E-03  0.2005E+01
   -0.449988   30.67812  0.2517E-14  0.1501E-04  0.5521E-07  0.1217E-02  0.4143E-03  0.1882E+01
   -0.499988   30.67906  0.2517E-14  0.1530E-04  0.5346E-07  0.1306E-02  0.3871E-03  0.1826E+01
   -0.549989   30.67991  0.2517E-14  0.1555E-04  0.5199E-07  0.1387E-02  0.3627E-03  0.1802E+01
   -0.599989   30.68070  0.2517E-14  0.1577E-04  0.5074E-07  0.1461E-02  0.3406E-03  0.1798E+01
   -0.649990   30.68144  0.2517E-14  0.1595E-04  0.4968E-07  0.1527E-02  0.3205E-03  0.1821E+01
   -0.699992   30.68214  0.2517E-14  0.1610E-04  0.4878E-07  0.1586E-02  0.3020E-03  0.1856E+01
   -0.749993   30.68279  0.2517E-14  0.1622E-04  0.4802E-07  0.1636E-02  0.2849E-03  0.1919E+01
   -0.799994   30.68342  0.2517E-14  0.1632E-04  0.4738E-07  0.1679E-02  0.2690E-03  0.1991E+01
   -0.849996   30.68403  0.2517E-14  0.1639E-04  0.4686E-07  0.1713E-02  0.2542E-03  0.2096E+01
   -0.899998   30.68461  0.2517E-14  0.1644E-04  0.4645E-07  0.1740E-02  0.2402E-03  0.2213E+01
   -0.949999   30.68518  0.2517E-14  0.1647E-04  0.4614E-07  0.1758E-02  0.2271E-03  0.2372E+01
   -1.000001   30.68574  0.2517E-14  0.1647E-04  0.4594E-07  0.1767E-02  0.2146E-03  0.2551E+01
   -1.050003   30.68629  0.2517E-14  0.1645E-04  0.4585E-07  0.1767E-02  0.2028E-03  0.2892E+01
   -1.100004   30.68683  0.2517E-14  0.1641E-04  0.4589E-07  0.1863E-02  0.1916E-03  0.9453E+01
   -1.150006   30.68734  0.2517E-14  0.1634E-04  0.4607E-07  0.1667E-02  0.1815E-03  0.2217E+02
   -1.200008   30.68791  0.2517E-14  0.1625E-04  0.4639E-07  0.1701E-02  0.1710E-03  0.4193E+01
   -1.250009   30.68845  0.2517E-14  0.1613E-04  0.4690E-07  0.1670E-02  0.1610E-03  0.4448E+01
   -1.300010   30.68901  0.2517E-14  0.1598E-04  0.4764E-07  0.1617E-02  0.1514E-03  0.5223E+01
   -1.350012   30.68958  0.2517E-14  0.1579E-04  0.4867E-07  0.1555E-02  0.1420E-03  0.6263E+01
   -1.400013   30.69017  0.2517E-14  0.1557E-04  0.5009E-07  0.1475E-02  0.1329E-03  0.7795E+01
   -1.450013   30.69078  0.2517E-14  0.1530E-04  0.5206E-07  0.1394E-02  0.1239E-03  0.1000E+02
   -1.500014   30.69144  0.2517E-14  0.1497E-04  0.5484E-07  0.1280E-02  0.1150E-03  0.1380E+02
   -1.550014   30.69216  0.2517E-14  0.1457E-04  0.5885E-07  0.1196E-02  0.1061E-03  0.2025E+02
   -1.600014   30.69294  0.2517E-14  0.1407E-04  0.6513E-07  0.1049E-02  0.9735E-04  0.1510E+03
   -1.650014   30.69392  0.2517E-14  0.1343E-04  0.7503E-07  0.9720E-03  0.8782E-04  0.1189E+04
   -1.700014   30.69504  0.2517E-14  0.1255E-04  0.9265E-07  0.7887E-03  0.7836E-04 -0.1724E+04
   -1.750013   30.69705  0.2517E-14  0.1141E-04  0.1215E-06  0.7127E-03  0.6574E-04  0.6051E+05
   -1.800011   30.69863  0.2517E-14  0.9920E-05  0.1847E-06  0.4854E-03  0.5622E-04  0.2842E+05
   -1.850010   30.70592  0.2517E-14  0.8338E-05  0.3015E-06  0.4567E-03  0.3902E-04  0.2078E+08
   -1.900008   30.70364  0.2517E-14  0.6593E-05  0.6288E-06  0.2085E-03  0.3206E-04  0.1453E+06
   -1.950005   30.72450  0.2517E-14  0.4671E-05  0.1542E-05  0.2032E-03  0.1683E-04 -0.3008E+06
   -2.000002   30.72488  0.2517E-14  0.0000E+00  0.0000E+00  0.0000E+00  0.3305E-04  0.0000E+00
