 1 - depth, m
 2 - temperature, C
 3 - salinity, kg/kg
 4 - turbulent kinetic energy, m**2/s**2
 5 - dissipation rate, m**2/s**3
 6 - kinematic heat conductance, m**2/s
 7 - modulus of horizontal velocity, m/s
 8 - Richardson number, n/d
   -0.000000   30.35194  0.1491E-13  0.5004E-05  0.3123E-06  0.4904E-04  0.4081E-03  0.7466E+05
   -0.049997   30.38659  0.1491E-13  0.8875E-05  0.1390E-06  0.1954E-03  0.2270E-03  0.1908E+06
   -0.099994   30.39749  0.1491E-13  0.1068E-04  0.9726E-07  0.4228E-03  0.1678E-03  0.3257E+03
   -0.149992   30.40084  0.1491E-13  0.1183E-04  0.8223E-07  0.5042E-03  0.1488E-03  0.1636E+03
   -0.199991   30.40351  0.1491E-13  0.1272E-04  0.7332E-07  0.6715E-03  0.1333E-03  0.1077E+03
   -0.249989   30.40546  0.1491E-13  0.1343E-04  0.6744E-07  0.8004E-03  0.1216E-03  0.8043E+02
   -0.299988   30.40705  0.1491E-13  0.1401E-04  0.6321E-07  0.9281E-03  0.1119E-03  0.6443E+02
   -0.349988   30.40839  0.1491E-13  0.1449E-04  0.6003E-07  0.1044E-02  0.1035E-03  0.5524E+02
   -0.399988   30.40955  0.1491E-13  0.1490E-04  0.5755E-07  0.1150E-02  0.9610E-04  0.4932E+02
   -0.449988   30.41059  0.1491E-13  0.1524E-04  0.5553E-07  0.1247E-02  0.8957E-04  0.4632E+02
   -0.499988   30.41152  0.1491E-13  0.1554E-04  0.5385E-07  0.1337E-02  0.8378E-04  0.4509E+02
   -0.549989   30.41237  0.1491E-13  0.1580E-04  0.5244E-07  0.1419E-02  0.7859E-04  0.4443E+02
   -0.599989   30.41316  0.1491E-13  0.1602E-04  0.5125E-07  0.1494E-02  0.7388E-04  0.4445E+02
   -0.649990   30.41390  0.1491E-13  0.1621E-04  0.5024E-07  0.1560E-02  0.6959E-04  0.4492E+02
   -0.699992   30.41460  0.1491E-13  0.1637E-04  0.4938E-07  0.1619E-02  0.6563E-04  0.4592E+02
   -0.749993   30.41526  0.1491E-13  0.1650E-04  0.4866E-07  0.1669E-02  0.6197E-04  0.4731E+02
   -0.799994   30.41590  0.1491E-13  0.1660E-04  0.4806E-07  0.1712E-02  0.5856E-04  0.4926E+02
   -0.849996   30.41651  0.1491E-13  0.1668E-04  0.4758E-07  0.1747E-02  0.5537E-04  0.5166E+02
   -0.899998   30.41710  0.1491E-13  0.1674E-04  0.4720E-07  0.1774E-02  0.5237E-04  0.5473E+02
   -0.949999   30.41767  0.1491E-13  0.1677E-04  0.4694E-07  0.1791E-02  0.4954E-04  0.5843E+02
   -1.000001   30.41823  0.1491E-13  0.1678E-04  0.4677E-07  0.1801E-02  0.4686E-04  0.6304E+02
   -1.050003   30.41879  0.1491E-13  0.1677E-04  0.4672E-07  0.1800E-02  0.4432E-04  0.7113E+02
   -1.100004   30.41934  0.1491E-13  0.1673E-04  0.4680E-07  0.1898E-02  0.4189E-04  0.2327E+03
   -1.150006   30.41986  0.1491E-13  0.1667E-04  0.4702E-07  0.1700E-02  0.3972E-04  0.5488E+03
   -1.200008   30.42043  0.1491E-13  0.1658E-04  0.4738E-07  0.1735E-02  0.3745E-04  0.1032E+03
   -1.250009   30.42099  0.1491E-13  0.1647E-04  0.4793E-07  0.1703E-02  0.3529E-04  0.1097E+03
   -1.300010   30.42155  0.1491E-13  0.1633E-04  0.4871E-07  0.1651E-02  0.3320E-04  0.1284E+03
   -1.350011   30.42213  0.1491E-13  0.1615E-04  0.4979E-07  0.1588E-02  0.3118E-04  0.1543E+03
   -1.400012   30.42273  0.1491E-13  0.1593E-04  0.5126E-07  0.1508E-02  0.2920E-04  0.1915E+03
   -1.450013   30.42336  0.1491E-13  0.1566E-04  0.5329E-07  0.1427E-02  0.2726E-04  0.2467E+03
   -1.500014   30.42402  0.1491E-13  0.1534E-04  0.5613E-07  0.1313E-02  0.2534E-04  0.3395E+03
   -1.550014   30.42475  0.1491E-13  0.1495E-04  0.6021E-07  0.1228E-02  0.2341E-04  0.5045E+03
   -1.600014   30.42555  0.1491E-13  0.1446E-04  0.6656E-07  0.1081E-02  0.2151E-04  0.1687E+04
   -1.650014   30.42653  0.1491E-13  0.1383E-04  0.7652E-07  0.1001E-02  0.1945E-04  0.5239E+06
   -1.700013   30.42768  0.1491E-13  0.1296E-04  0.9406E-07  0.8152E-03  0.1740E-04  0.2053E+06
   -1.750013   30.42964  0.1491E-13  0.1186E-04  0.1222E-06  0.7338E-03  0.1472E-04  0.5169E+07
   -1.800011   30.43110  0.1491E-13  0.1041E-04  0.1839E-06  0.5100E-03  0.1272E-04  0.9041E+07
   -1.850010   30.43819  0.1491E-13  0.8855E-05  0.3006E-06  0.4743E-03  0.9053E-05  0.2220E+09
   -1.900007   30.43630  0.1491E-13  0.7049E-05  0.6311E-06  0.2186E-03  0.7437E-05  0.1381E+07
   -1.950005   30.45670  0.1491E-13  0.4964E-05  0.1546E-05  0.1998E-03  0.4037E-05 -0.8238E+07
   -2.000002   30.45838  0.1491E-13  0.0000E+00  0.0000E+00  0.0000E+00  0.7418E-05  0.0000E+00
