 1 - depth, m
 2 - temperature, C
 3 - salinity, kg/kg
 4 - turbulent kinetic energy, m**2/s**2
 5 - dissipation rate, m**2/s**3
 6 - kinematic heat conductance, m**2/s
 7 - modulus of horizontal velocity, m/s
 8 - Richardson number, n/d
   -0.000000   29.76622  0.7778E-13  0.4696E-05  0.2641E-06  0.4858E-04  0.2505E-02  0.4945E+04
   -0.049997   29.79445  0.7778E-13  0.7824E-05  0.1165E-06  0.1842E-03  0.1362E-02  0.4623E+03
   -0.099994   29.80374  0.7778E-13  0.9328E-05  0.8173E-07  0.3773E-03  0.1035E-02  0.7558E+01
   -0.149992   29.80680  0.7778E-13  0.1030E-04  0.6864E-07  0.4686E-03  0.9134E-03  0.3786E+01
   -0.199991   29.80915  0.7778E-13  0.1106E-04  0.6095E-07  0.6138E-03  0.8176E-03  0.2459E+01
   -0.249989   29.81089  0.7778E-13  0.1167E-04  0.5590E-07  0.7337E-03  0.7446E-03  0.1820E+01
   -0.299989   29.81231  0.7778E-13  0.1217E-04  0.5229E-07  0.8471E-03  0.6838E-03  0.1463E+01
   -0.349988   29.81351  0.7778E-13  0.1259E-04  0.4957E-07  0.9493E-03  0.6313E-03  0.1307E+01
   -0.399988   29.81455  0.7778E-13  0.1295E-04  0.4739E-07  0.1050E-02  0.5838E-03  0.1255E+01
   -0.449988   29.81547  0.7778E-13  0.1328E-04  0.4557E-07  0.1151E-02  0.5404E-03  0.1239E+01
   -0.499988   29.81630  0.7778E-13  0.1356E-04  0.4404E-07  0.1247E-02  0.5011E-03  0.1238E+01
   -0.549989   29.81704  0.7778E-13  0.1381E-04  0.4276E-07  0.1334E-02  0.4658E-03  0.1234E+01
   -0.599990   29.81773  0.7778E-13  0.1403E-04  0.4168E-07  0.1414E-02  0.4338E-03  0.1231E+01
   -0.649991   29.81837  0.7778E-13  0.1421E-04  0.4077E-07  0.1486E-02  0.4048E-03  0.1225E+01
   -0.699992   29.81896  0.7778E-13  0.1437E-04  0.4001E-07  0.1548E-02  0.3785E-03  0.1223E+01
   -0.749993   29.81953  0.7778E-13  0.1449E-04  0.3939E-07  0.1601E-02  0.3546E-03  0.1220E+01
   -0.799995   29.82006  0.7778E-13  0.1459E-04  0.3888E-07  0.1644E-02  0.3329E-03  0.1224E+01
   -0.849996   29.82058  0.7778E-13  0.1467E-04  0.3848E-07  0.1679E-02  0.3131E-03  0.1234E+01
   -0.899998   29.82108  0.7778E-13  0.1472E-04  0.3818E-07  0.1704E-02  0.2950E-03  0.1265E+01
   -0.950000   29.82157  0.7778E-13  0.1476E-04  0.3796E-07  0.1721E-02  0.2782E-03  0.1322E+01
   -1.000002   29.82205  0.7778E-13  0.1477E-04  0.3784E-07  0.1730E-02  0.2626E-03  0.1415E+01
   -1.050003   29.82253  0.7778E-13  0.1477E-04  0.3780E-07  0.1731E-02  0.2479E-03  0.1599E+01
   -1.100005   29.82299  0.7778E-13  0.1474E-04  0.3785E-07  0.1814E-02  0.2338E-03  0.5333E+01
   -1.150007   29.82344  0.7778E-13  0.1470E-04  0.3802E-07  0.1653E-02  0.2213E-03  0.1190E+02
   -1.200008   29.82392  0.7778E-13  0.1464E-04  0.3829E-07  0.1677E-02  0.2083E-03  0.2297E+01
   -1.250010   29.82440  0.7778E-13  0.1455E-04  0.3871E-07  0.1647E-02  0.1959E-03  0.2445E+01
   -1.300011   29.82487  0.7778E-13  0.1444E-04  0.3930E-07  0.1601E-02  0.1840E-03  0.2847E+01
   -1.350012   29.82536  0.7778E-13  0.1430E-04  0.4010E-07  0.1545E-02  0.1724E-03  0.3393E+01
   -1.400013   29.82587  0.7778E-13  0.1413E-04  0.4119E-07  0.1473E-02  0.1612E-03  0.4154E+01
   -1.450014   29.82640  0.7778E-13  0.1392E-04  0.4266E-07  0.1397E-02  0.1502E-03  0.5249E+01
   -1.500015   29.82696  0.7778E-13  0.1367E-04  0.4468E-07  0.1292E-02  0.1394E-03  0.6996E+01
   -1.550015   29.82757  0.7778E-13  0.1337E-04  0.4751E-07  0.1205E-02  0.1286E-03  0.9778E+01
   -1.600015   29.82822  0.7778E-13  0.1299E-04  0.5174E-07  0.1068E-02  0.1180E-03  0.1628E+02
   -1.650015   29.82899  0.7778E-13  0.1252E-04  0.5823E-07  0.9860E-03  0.1069E-03  0.4469E+03
   -1.700015   29.82987  0.7778E-13  0.1187E-04  0.6987E-07  0.8121E-03  0.9598E-04  0.2222E+04
   -1.750014   29.83131  0.7778E-13  0.1099E-04  0.8914E-07  0.7278E-03  0.8206E-04  0.1523E+05
   -1.800012   29.83270  0.7778E-13  0.9757E-05  0.1286E-06  0.5161E-03  0.7033E-04  0.2761E+05
   -1.850011   29.83733  0.7778E-13  0.8323E-05  0.2026E-06  0.4621E-03  0.5141E-04  0.2202E+08
   -1.900009   29.83714  0.7778E-13  0.6565E-05  0.4218E-06  0.2080E-03  0.4135E-04 -0.3696E+06
   -1.950006   29.85331  0.7778E-13  0.4532E-05  0.1076E-05  0.1729E-03  0.2244E-04 -0.8269E+06
   -2.000003   29.85557  0.7778E-13  0.0000E+00  0.0000E+00  0.0000E+00  0.3951E-04  0.0000E+00
