 1 - depth, m
 2 - temperature, C
 3 - salinity, kg/kg
 4 - turbulent kinetic energy, m**2/s**2
 5 - dissipation rate, m**2/s**3
 6 - kinematic heat conductance, m**2/s
 7 - modulus of horizontal velocity, m/s
 8 - Richardson number, n/d
   -0.000000   30.21151  0.5843E-13  0.4833E-05  0.2953E-06  0.4755E-04  0.1023E-02  0.1755E+04
   -0.049997   30.24480  0.5843E-13  0.8391E-05  0.1314E-06  0.1891E-03  0.5643E-03  0.9450E+02
   -0.099994   30.25579  0.5843E-13  0.1011E-04  0.9190E-07  0.3982E-03  0.4221E-03  0.4553E+02
   -0.149992   30.25913  0.5843E-13  0.1121E-04  0.7729E-07  0.4878E-03  0.3726E-03  0.2257E+02
   -0.199991   30.26173  0.5843E-13  0.1206E-04  0.6867E-07  0.6462E-03  0.3332E-03  0.1452E+02
   -0.249989   30.26363  0.5843E-13  0.1273E-04  0.6300E-07  0.7711E-03  0.3035E-03  0.1073E+02
   -0.299988   30.26518  0.5843E-13  0.1327E-04  0.5893E-07  0.8956E-03  0.2787E-03  0.8538E+01
   -0.349988   30.26648  0.5843E-13  0.1372E-04  0.5586E-07  0.1008E-02  0.2575E-03  0.7292E+01
   -0.399988   30.26760  0.5843E-13  0.1410E-04  0.5346E-07  0.1111E-02  0.2387E-03  0.6492E+01
   -0.449988   30.26859  0.5843E-13  0.1443E-04  0.5149E-07  0.1207E-02  0.2221E-03  0.6084E+01
   -0.499988   30.26949  0.5843E-13  0.1470E-04  0.4986E-07  0.1295E-02  0.2074E-03  0.5912E+01
   -0.549989   30.27030  0.5843E-13  0.1494E-04  0.4848E-07  0.1375E-02  0.1943E-03  0.5819E+01
   -0.599990   30.27106  0.5843E-13  0.1515E-04  0.4731E-07  0.1448E-02  0.1824E-03  0.5812E+01
   -0.649991   30.27176  0.5843E-13  0.1532E-04  0.4631E-07  0.1514E-02  0.1716E-03  0.5865E+01
   -0.699992   30.27243  0.5843E-13  0.1546E-04  0.4545E-07  0.1572E-02  0.1616E-03  0.5984E+01
   -0.749993   30.27305  0.5843E-13  0.1558E-04  0.4473E-07  0.1623E-02  0.1524E-03  0.6157E+01
   -0.799995   30.27365  0.5843E-13  0.1568E-04  0.4411E-07  0.1666E-02  0.1438E-03  0.6397E+01
   -0.849996   30.27423  0.5843E-13  0.1575E-04  0.4360E-07  0.1702E-02  0.1358E-03  0.6696E+01
   -0.899998   30.27478  0.5843E-13  0.1580E-04  0.4318E-07  0.1730E-02  0.1283E-03  0.7074E+01
   -0.950000   30.27532  0.5843E-13  0.1583E-04  0.4287E-07  0.1749E-02  0.1212E-03  0.7535E+01
   -1.000001   30.27585  0.5843E-13  0.1583E-04  0.4265E-07  0.1761E-02  0.1145E-03  0.8099E+01
   -1.050003   30.27636  0.5843E-13  0.1582E-04  0.4253E-07  0.1763E-02  0.1082E-03  0.9121E+01
   -1.100005   30.27687  0.5843E-13  0.1578E-04  0.4251E-07  0.1847E-02  0.1021E-03  0.3037E+02
   -1.150006   30.27735  0.5843E-13  0.1573E-04  0.4262E-07  0.1686E-02  0.9673E-04  0.6695E+02
   -1.200008   30.27788  0.5843E-13  0.1565E-04  0.4285E-07  0.1710E-02  0.9114E-04  0.1292E+02
   -1.250009   30.27839  0.5843E-13  0.1554E-04  0.4325E-07  0.1681E-02  0.8579E-04  0.1369E+02
   -1.300011   30.27890  0.5843E-13  0.1541E-04  0.4383E-07  0.1634E-02  0.8064E-04  0.1586E+02
   -1.350012   30.27942  0.5843E-13  0.1525E-04  0.4465E-07  0.1577E-02  0.7564E-04  0.1882E+02
   -1.400013   30.27996  0.5843E-13  0.1505E-04  0.4579E-07  0.1503E-02  0.7078E-04  0.2294E+02
   -1.450014   30.28053  0.5843E-13  0.1482E-04  0.4735E-07  0.1426E-02  0.6602E-04  0.2887E+02
   -1.500014   30.28112  0.5843E-13  0.1453E-04  0.4954E-07  0.1319E-02  0.6134E-04  0.3837E+02
   -1.550015   30.28175  0.5843E-13  0.1419E-04  0.5264E-07  0.1232E-02  0.5666E-04  0.5349E+02
   -1.600015   30.28244  0.5843E-13  0.1377E-04  0.5734E-07  0.1091E-02  0.5206E-04  0.9506E+02
   -1.650015   30.28326  0.5843E-13  0.1324E-04  0.6465E-07  0.1009E-02  0.4720E-04  0.1778E+03
   -1.700014   30.28418  0.5843E-13  0.1252E-04  0.7768E-07  0.8299E-03  0.4240E-04  0.7123E+03
   -1.750013   30.28570  0.5843E-13  0.1155E-04  0.9935E-07  0.7476E-03  0.3625E-04  0.1276E+05
   -1.800012   30.28714  0.5843E-13  0.1022E-04  0.1450E-06  0.5269E-03  0.3110E-04  0.4724E+06
   -1.850010   30.29208  0.5843E-13  0.8711E-05  0.2291E-06  0.4761E-03  0.2268E-04  0.1786E+09
   -1.900008   30.29164  0.5843E-13  0.6861E-05  0.4767E-06  0.2131E-03  0.1836E-04 -0.4429E+06
   -1.950006   30.30824  0.5843E-13  0.4760E-05  0.1211E-05  0.1805E-03  0.9946E-05 -0.2346E+07
   -2.000003   30.31020  0.5843E-13  0.0000E+00  0.0000E+00  0.0000E+00  0.1788E-04  0.0000E+00
