 1 - depth, m
 2 - temperature, C
 3 - salinity, kg/kg
 4 - turbulent kinetic energy, m**2/s**2
 5 - dissipation rate, m**2/s**3
 6 - kinematic heat conductance, m**2/s
 7 - modulus of horizontal velocity, m/s
 8 - Richardson number, n/d
   -0.000000   30.64935  0.3430E-14  0.4886E-05  0.3039E-06  0.4996E-04  0.1309E-02  0.7973E+04
   -0.049997   30.68089  0.3430E-14  0.8402E-05  0.1358E-06  0.1811E-03  0.7402E-03  0.1178E+03
   -0.099994   30.69259  0.3430E-14  0.1017E-04  0.9402E-07  0.3987E-03  0.5472E-03  0.2786E+02
   -0.149992   30.69592  0.3430E-14  0.1129E-04  0.7891E-07  0.4830E-03  0.4831E-03  0.1370E+02
   -0.199991   30.69855  0.3430E-14  0.1216E-04  0.7005E-07  0.6443E-03  0.4316E-03  0.8781E+01
   -0.249989   30.70046  0.3430E-14  0.1285E-04  0.6424E-07  0.7701E-03  0.3930E-03  0.6477E+01
   -0.299988   30.70201  0.3430E-14  0.1341E-04  0.6008E-07  0.8954E-03  0.3608E-03  0.5147E+01
   -0.349988   30.70331  0.3430E-14  0.1387E-04  0.5697E-07  0.1009E-02  0.3333E-03  0.4397E+01
   -0.399988   30.70444  0.3430E-14  0.1426E-04  0.5453E-07  0.1113E-02  0.3090E-03  0.3915E+01
   -0.449988   30.70543  0.3430E-14  0.1459E-04  0.5255E-07  0.1209E-02  0.2875E-03  0.3672E+01
   -0.499988   30.70633  0.3430E-14  0.1488E-04  0.5091E-07  0.1297E-02  0.2686E-03  0.3569E+01
   -0.549989   30.70715  0.3430E-14  0.1512E-04  0.4953E-07  0.1378E-02  0.2516E-03  0.3519E+01
   -0.599990   30.70791  0.3430E-14  0.1533E-04  0.4836E-07  0.1451E-02  0.2363E-03  0.3516E+01
   -0.649991   30.70862  0.3430E-14  0.1551E-04  0.4737E-07  0.1517E-02  0.2223E-03  0.3557E+01
   -0.699992   30.70929  0.3430E-14  0.1566E-04  0.4652E-07  0.1575E-02  0.2094E-03  0.3632E+01
   -0.749993   30.70992  0.3430E-14  0.1578E-04  0.4581E-07  0.1625E-02  0.1975E-03  0.3747E+01
   -0.799995   30.71053  0.3430E-14  0.1588E-04  0.4521E-07  0.1668E-02  0.1864E-03  0.3898E+01
   -0.849996   30.71111  0.3430E-14  0.1596E-04  0.4472E-07  0.1703E-02  0.1761E-03  0.4092E+01
   -0.899998   30.71167  0.3430E-14  0.1601E-04  0.4434E-07  0.1729E-02  0.1664E-03  0.4333E+01
   -0.950000   30.71222  0.3430E-14  0.1604E-04  0.4405E-07  0.1748E-02  0.1572E-03  0.4630E+01
   -1.000001   30.71275  0.3430E-14  0.1605E-04  0.4387E-07  0.1758E-02  0.1486E-03  0.4992E+01
   -1.050003   30.71328  0.3430E-14  0.1603E-04  0.4379E-07  0.1759E-02  0.1403E-03  0.5644E+01
   -1.100005   30.71380  0.3430E-14  0.1600E-04  0.4382E-07  0.1849E-02  0.1325E-03  0.1863E+02
   -1.150006   30.71429  0.3430E-14  0.1594E-04  0.4400E-07  0.1669E-02  0.1255E-03  0.4273E+02
   -1.200008   30.71483  0.3430E-14  0.1586E-04  0.4430E-07  0.1698E-02  0.1182E-03  0.8146E+01
   -1.250009   30.71536  0.3430E-14  0.1575E-04  0.4477E-07  0.1668E-02  0.1113E-03  0.8659E+01
   -1.300011   30.71589  0.3430E-14  0.1561E-04  0.4546E-07  0.1618E-02  0.1046E-03  0.1012E+02
   -1.350012   30.71643  0.3430E-14  0.1544E-04  0.4641E-07  0.1557E-02  0.9812E-04  0.1212E+02
   -1.400013   30.71699  0.3430E-14  0.1523E-04  0.4772E-07  0.1480E-02  0.9180E-04  0.1498E+02
   -1.450014   30.71758  0.3430E-14  0.1498E-04  0.4953E-07  0.1400E-02  0.8559E-04  0.1916E+02
   -1.500014   30.71821  0.3430E-14  0.1468E-04  0.5206E-07  0.1291E-02  0.7948E-04  0.2605E+02
   -1.550015   30.71889  0.3430E-14  0.1431E-04  0.5568E-07  0.1203E-02  0.7334E-04  0.3760E+02
   -1.600015   30.71963  0.3430E-14  0.1385E-04  0.6122E-07  0.1066E-02  0.6730E-04  0.8433E+02
   -1.650015   30.72051  0.3430E-14  0.1326E-04  0.7005E-07  0.9794E-03  0.6090E-04  0.6869E+05
   -1.700014   30.72158  0.3430E-14  0.1244E-04  0.8573E-07  0.8050E-03  0.5433E-04 -0.2686E+04
   -1.750013   30.72335  0.3430E-14  0.1139E-04  0.1110E-06  0.7204E-03  0.4596E-04  0.8087E+06
   -1.800012   30.72485  0.3430E-14  0.9968E-05  0.1672E-06  0.4939E-03  0.3938E-04  0.2360E+06
   -1.850010   30.73124  0.3430E-14  0.8454E-05  0.2702E-06  0.4635E-03  0.2780E-04  0.4719E+08
   -1.900008   30.72962  0.3430E-14  0.6708E-05  0.5612E-06  0.2103E-03  0.2281E-04 -0.5360E+07
   -1.950006   30.74866  0.3430E-14  0.4698E-05  0.1396E-05  0.1927E-03  0.1220E-04 -0.2736E+06
   -2.000003   30.74997  0.3430E-14  0.0000E+00  0.0000E+00  0.0000E+00  0.2283E-04  0.0000E+00
