 1 - depth, m
 2 - temperature, C
 3 - salinity, kg/kg
 4 - turbulent kinetic energy, m**2/s**2
 5 - dissipation rate, m**2/s**3
 6 - kinematic heat conductance, m**2/s
 7 - modulus of horizontal velocity, m/s
 8 - Richardson number, n/d
   -0.000000   30.66999  0.8547E-14  0.6016E-05  0.3214E-06  0.5777E-04  0.4756E-02  0.5245E+02
   -0.049997   30.69889  0.8548E-14  0.9239E-05  0.1361E-06  0.2171E-03  0.2554E-02  0.1015E+03
   -0.099994   30.70687  0.8548E-14  0.1063E-04  0.9914E-07  0.3857E-03  0.2096E-02  0.2711E+01
   -0.149992   30.71028  0.8548E-14  0.1160E-04  0.8428E-07  0.4765E-03  0.1890E-02  0.1543E+01
   -0.199991   30.71292  0.8548E-14  0.1242E-04  0.7540E-07  0.5939E-03  0.1727E-02  0.1305E+01
   -0.249989   30.71497  0.8548E-14  0.1316E-04  0.6912E-07  0.7157E-03  0.1588E-02  0.1389E+01
   -0.299988   30.71663  0.8548E-14  0.1388E-04  0.6415E-07  0.8617E-03  0.1453E-02  0.1501E+01
   -0.349988   30.71798  0.8548E-14  0.1455E-04  0.6010E-07  0.1023E-02  0.1321E-02  0.1610E+01
   -0.399988   30.71909  0.8548E-14  0.1518E-04  0.5677E-07  0.1190E-02  0.1192E-02  0.1626E+01
   -0.449988   30.72002  0.8548E-14  0.1573E-04  0.5403E-07  0.1342E-02  0.1073E-02  0.1611E+01
   -0.499988   30.72083  0.8548E-14  0.1621E-04  0.5181E-07  0.1480E-02  0.9675E-03  0.1590E+01
   -0.549989   30.72155  0.8548E-14  0.1661E-04  0.5001E-07  0.1607E-02  0.8743E-03  0.1562E+01
   -0.599989   30.72220  0.8548E-14  0.1694E-04  0.4856E-07  0.1726E-02  0.7920E-03  0.1532E+01
   -0.649990   30.72280  0.8548E-14  0.1720E-04  0.4742E-07  0.1835E-02  0.7192E-03  0.1501E+01
   -0.699992   30.72335  0.8548E-14  0.1740E-04  0.4653E-07  0.1930E-02  0.6548E-03  0.1467E+01
   -0.749993   30.72387  0.8548E-14  0.1754E-04  0.4586E-07  0.2002E-02  0.5978E-03  0.1432E+01
   -0.799994   30.72437  0.8548E-14  0.1762E-04  0.4539E-07  0.2050E-02  0.5474E-03  0.1392E+01
   -0.849996   30.72485  0.8548E-14  0.1766E-04  0.4509E-07  0.2074E-02  0.5026E-03  0.1352E+01
   -0.899998   30.72531  0.8548E-14  0.1767E-04  0.4496E-07  0.2078E-02  0.4630E-03  0.1308E+01
   -0.949999   30.72578  0.8548E-14  0.1763E-04  0.4497E-07  0.2067E-02  0.4278E-03  0.1264E+01
   -1.000001   30.72624  0.8548E-14  0.1757E-04  0.4513E-07  0.2041E-02  0.3966E-03  0.1215E+01
   -1.050003   30.72670  0.8548E-14  0.1748E-04  0.4542E-07  0.1983E-02  0.3688E-03  0.1164E+01
   -1.100005   30.72717  0.8548E-14  0.1739E-04  0.4577E-07  0.2194E-02  0.3444E-03  0.2283E+01
   -1.150006   30.72759  0.8548E-14  0.1727E-04  0.4627E-07  0.1746E-02  0.3288E-03  0.6357E+01
   -1.200008   30.72812  0.8548E-14  0.1713E-04  0.4692E-07  0.1867E-02  0.3103E-03  0.1197E+01
   -1.250009   30.72861  0.8548E-14  0.1696E-04  0.4781E-07  0.1814E-02  0.2925E-03  0.1227E+01
   -1.300011   30.72911  0.8548E-14  0.1676E-04  0.4896E-07  0.1738E-02  0.2757E-03  0.1416E+01
   -1.350012   30.72964  0.8548E-14  0.1652E-04  0.5048E-07  0.1660E-02  0.2596E-03  0.1720E+01
   -1.400013   30.73019  0.8548E-14  0.1624E-04  0.5251E-07  0.1553E-02  0.2438E-03  0.2209E+01
   -1.450014   30.73077  0.8548E-14  0.1590E-04  0.5528E-07  0.1459E-02  0.2280E-03  0.2946E+01
   -1.500014   30.73141  0.8548E-14  0.1550E-04  0.5918E-07  0.1322E-02  0.2124E-03  0.4323E+01
   -1.550014   30.73213  0.8548E-14  0.1500E-04  0.6486E-07  0.1236E-02  0.1963E-03  0.7522E+01
   -1.600015   30.73292  0.8548E-14  0.1438E-04  0.7410E-07  0.1073E-02  0.1803E-03 -0.7070E+03
   -1.650014   30.73406  0.8548E-14  0.1356E-04  0.8855E-07  0.9855E-03  0.1615E-03  0.4796E+03
   -1.700014   30.73535  0.8548E-14  0.1244E-04  0.1147E-06  0.7900E-03  0.1429E-03  0.4287E+04
   -1.750013   30.73780  0.8548E-14  0.1115E-04  0.1547E-06  0.7084E-03  0.1173E-03  0.4115E+05
   -1.800012   30.73909  0.8548E-14  0.9573E-05  0.2419E-06  0.4855E-03  0.1009E-03  0.4048E+04
   -1.850010   30.74863  0.8548E-14  0.8025E-05  0.4067E-06  0.4568E-03  0.6752E-04  0.1372E+09
   -1.900008   30.74407  0.8548E-14  0.6316E-05  0.8613E-06  0.2126E-03  0.5621E-04 -0.7500E+05
   -1.950005   30.76795  0.8548E-14  0.4582E-05  0.1991E-05  0.2372E-03  0.2869E-04 -0.5207E+05
   -2.000002   30.76622  0.8548E-14  0.0000E+00  0.0000E+00  0.0000E+00  0.6275E-04  0.0000E+00
