 1 - depth, m
 2 - temperature, C
 3 - salinity, kg/kg
 4 - turbulent kinetic energy, m**2/s**2
 5 - dissipation rate, m**2/s**3
 6 - kinematic heat conductance, m**2/s
 7 - modulus of horizontal velocity, m/s
 8 - Richardson number, n/d
   -0.000000   30.16673  0.7283E-13  0.4725E-05  0.2887E-06  0.4822E-04  0.1006E-02  0.2136E+04
   -0.049997   30.19818  0.7283E-13  0.8213E-05  0.1283E-06  0.1837E-03  0.5610E-03  0.5465E+02
   -0.099994   30.20932  0.7283E-13  0.9932E-05  0.8915E-07  0.4000E-03  0.4151E-03  0.4856E+02
   -0.149992   30.21252  0.7283E-13  0.1102E-04  0.7504E-07  0.4848E-03  0.3668E-03  0.2386E+02
   -0.199991   30.21504  0.7283E-13  0.1186E-04  0.6674E-07  0.6444E-03  0.3279E-03  0.1539E+02
   -0.249989   30.21688  0.7283E-13  0.1253E-04  0.6128E-07  0.7690E-03  0.2986E-03  0.1138E+02
   -0.299988   30.21839  0.7283E-13  0.1308E-04  0.5738E-07  0.8933E-03  0.2743E-03  0.9079E+01
   -0.349988   30.21964  0.7283E-13  0.1353E-04  0.5446E-07  0.1006E-02  0.2534E-03  0.7757E+01
   -0.399988   30.22074  0.7283E-13  0.1391E-04  0.5218E-07  0.1109E-02  0.2348E-03  0.6925E+01
   -0.449988   30.22171  0.7283E-13  0.1424E-04  0.5032E-07  0.1204E-02  0.2186E-03  0.6488E+01
   -0.499988   30.22258  0.7283E-13  0.1452E-04  0.4879E-07  0.1292E-02  0.2041E-03  0.6322E+01
   -0.549989   30.22338  0.7283E-13  0.1477E-04  0.4750E-07  0.1372E-02  0.1912E-03  0.6221E+01
   -0.599990   30.22412  0.7283E-13  0.1498E-04  0.4642E-07  0.1445E-02  0.1795E-03  0.6237E+01
   -0.649991   30.22481  0.7283E-13  0.1516E-04  0.4550E-07  0.1510E-02  0.1689E-03  0.6296E+01
   -0.699992   30.22546  0.7283E-13  0.1532E-04  0.4473E-07  0.1568E-02  0.1591E-03  0.6454E+01
   -0.749993   30.22608  0.7283E-13  0.1545E-04  0.4408E-07  0.1619E-02  0.1500E-03  0.6645E+01
   -0.799995   30.22667  0.7283E-13  0.1555E-04  0.4355E-07  0.1661E-02  0.1416E-03  0.6941E+01
   -0.849996   30.22724  0.7283E-13  0.1563E-04  0.4312E-07  0.1696E-02  0.1337E-03  0.7274E+01
   -0.899998   30.22779  0.7283E-13  0.1570E-04  0.4279E-07  0.1723E-02  0.1263E-03  0.7736E+01
   -0.950000   30.22833  0.7283E-13  0.1574E-04  0.4255E-07  0.1742E-02  0.1194E-03  0.8251E+01
   -1.000001   30.22886  0.7283E-13  0.1576E-04  0.4241E-07  0.1753E-02  0.1128E-03  0.8938E+01
   -1.050003   30.22938  0.7283E-13  0.1575E-04  0.4238E-07  0.1755E-02  0.1066E-03  0.1009E+02
   -1.100005   30.22989  0.7283E-13  0.1573E-04  0.4246E-07  0.1840E-02  0.1006E-03  0.3360E+02
   -1.150006   30.23038  0.7283E-13  0.1569E-04  0.4266E-07  0.1674E-02  0.9526E-04  0.7609E+02
   -1.200008   30.23091  0.7283E-13  0.1562E-04  0.4299E-07  0.1698E-02  0.8975E-04  0.1458E+02
   -1.250009   30.23143  0.7283E-13  0.1553E-04  0.4349E-07  0.1668E-02  0.8447E-04  0.1560E+02
   -1.300011   30.23196  0.7283E-13  0.1541E-04  0.4419E-07  0.1620E-02  0.7939E-04  0.1820E+02
   -1.350012   30.23251  0.7283E-13  0.1525E-04  0.4515E-07  0.1561E-02  0.7446E-04  0.2186E+02
   -1.400013   30.23307  0.7283E-13  0.1507E-04  0.4644E-07  0.1486E-02  0.6966E-04  0.2693E+02
   -1.450014   30.23366  0.7283E-13  0.1484E-04  0.4819E-07  0.1408E-02  0.6495E-04  0.3448E+02
   -1.500014   30.23428  0.7283E-13  0.1456E-04  0.5061E-07  0.1299E-02  0.6033E-04  0.4672E+02
   -1.550015   30.23496  0.7283E-13  0.1422E-04  0.5404E-07  0.1214E-02  0.5568E-04  0.6694E+02
   -1.600015   30.23570  0.7283E-13  0.1380E-04  0.5925E-07  0.1072E-02  0.5113E-04  0.1293E+03
   -1.650015   30.23659  0.7283E-13  0.1326E-04  0.6737E-07  0.9915E-03  0.4627E-04  0.7000E+03
   -1.700014   30.23762  0.7283E-13  0.1251E-04  0.8182E-07  0.8137E-03  0.4148E-04  0.8005E+05
   -1.750013   30.23937  0.7283E-13  0.1152E-04  0.1054E-06  0.7288E-03  0.3523E-04  0.7776E+05
   -1.800012   30.24088  0.7283E-13  0.1019E-04  0.1544E-06  0.5182E-03  0.3029E-04  0.6255E+05
   -1.850010   30.24684  0.7283E-13  0.8681E-05  0.2480E-06  0.4669E-03  0.2188E-04  0.3031E+08
   -1.900008   30.24582  0.7283E-13  0.6895E-05  0.5165E-06  0.2149E-03  0.1778E-04  0.5064E+07
   -1.950006   30.26452  0.7283E-13  0.4824E-05  0.1293E-05  0.1845E-03  0.9698E-05 -0.1152E+07
   -2.000003   30.26680  0.7283E-13  0.0000E+00  0.0000E+00  0.0000E+00  0.1740E-04  0.0000E+00
