 1 - depth, m
 2 - temperature, C
 3 - salinity, kg/kg
 4 - turbulent kinetic energy, m**2/s**2
 5 - dissipation rate, m**2/s**3
 6 - kinematic heat conductance, m**2/s
 7 - modulus of horizontal velocity, m/s
 8 - Richardson number, n/d
   -0.000000   30.67071  0.2605E-14  0.6021E-05  0.3216E-06  0.5775E-04  0.4755E-02  0.6198E+02
   -0.049997   30.69963  0.2605E-14  0.9246E-05  0.1362E-06  0.2173E-03  0.2554E-02  0.9074E+01
   -0.099994   30.70763  0.2605E-14  0.1064E-04  0.9922E-07  0.3861E-03  0.2095E-02  0.2709E+01
   -0.149992   30.71104  0.2605E-14  0.1161E-04  0.8435E-07  0.4769E-03  0.1890E-02  0.1542E+01
   -0.199991   30.71367  0.2605E-14  0.1243E-04  0.7547E-07  0.5943E-03  0.1727E-02  0.1304E+01
   -0.249989   30.71573  0.2605E-14  0.1317E-04  0.6918E-07  0.7161E-03  0.1587E-02  0.1388E+01
   -0.299988   30.71739  0.2605E-14  0.1389E-04  0.6421E-07  0.8621E-03  0.1452E-02  0.1500E+01
   -0.349988   30.71874  0.2605E-14  0.1456E-04  0.6016E-07  0.1024E-02  0.1320E-02  0.1609E+01
   -0.399988   30.71985  0.2605E-14  0.1519E-04  0.5682E-07  0.1190E-02  0.1191E-02  0.1625E+01
   -0.449988   30.72078  0.2605E-14  0.1574E-04  0.5408E-07  0.1343E-02  0.1073E-02  0.1610E+01
   -0.499988   30.72159  0.2605E-14  0.1622E-04  0.5186E-07  0.1480E-02  0.9673E-03  0.1589E+01
   -0.549989   30.72231  0.2605E-14  0.1663E-04  0.5006E-07  0.1607E-02  0.8742E-03  0.1561E+01
   -0.599989   30.72296  0.2605E-14  0.1695E-04  0.4861E-07  0.1726E-02  0.7919E-03  0.1531E+01
   -0.649990   30.72356  0.2605E-14  0.1721E-04  0.4746E-07  0.1835E-02  0.7191E-03  0.1500E+01
   -0.699992   30.72412  0.2605E-14  0.1741E-04  0.4657E-07  0.1929E-02  0.6548E-03  0.1466E+01
   -0.749993   30.72464  0.2605E-14  0.1755E-04  0.4590E-07  0.2003E-02  0.5978E-03  0.1431E+01
   -0.799994   30.72513  0.2605E-14  0.1764E-04  0.4543E-07  0.2051E-02  0.5474E-03  0.1392E+01
   -0.849996   30.72561  0.2605E-14  0.1768E-04  0.4514E-07  0.2075E-02  0.5027E-03  0.1351E+01
   -0.899998   30.72608  0.2605E-14  0.1768E-04  0.4500E-07  0.2079E-02  0.4630E-03  0.1308E+01
   -0.949999   30.72654  0.2605E-14  0.1765E-04  0.4502E-07  0.2068E-02  0.4278E-03  0.1263E+01
   -1.000001   30.72700  0.2605E-14  0.1759E-04  0.4518E-07  0.2042E-02  0.3966E-03  0.1215E+01
   -1.050003   30.72746  0.2605E-14  0.1750E-04  0.4546E-07  0.1984E-02  0.3689E-03  0.1161E+01
   -1.100005   30.72793  0.2605E-14  0.1740E-04  0.4582E-07  0.2195E-02  0.3445E-03  0.2279E+01
   -1.150006   30.72835  0.2605E-14  0.1729E-04  0.4631E-07  0.1748E-02  0.3288E-03  0.6310E+01
   -1.200008   30.72888  0.2605E-14  0.1715E-04  0.4696E-07  0.1868E-02  0.3104E-03  0.1190E+01
   -1.250009   30.72937  0.2605E-14  0.1698E-04  0.4785E-07  0.1815E-02  0.2926E-03  0.1219E+01
   -1.300011   30.72988  0.2605E-14  0.1678E-04  0.4900E-07  0.1740E-02  0.2758E-03  0.1404E+01
   -1.350012   30.73040  0.2605E-14  0.1654E-04  0.5051E-07  0.1661E-02  0.2597E-03  0.1705E+01
   -1.400013   30.73095  0.2605E-14  0.1626E-04  0.5254E-07  0.1556E-02  0.2439E-03  0.2182E+01
   -1.450014   30.73153  0.2605E-14  0.1592E-04  0.5530E-07  0.1459E-02  0.2281E-03  0.2911E+01
   -1.500014   30.73216  0.2605E-14  0.1552E-04  0.5919E-07  0.1326E-02  0.2125E-03  0.4244E+01
   -1.550014   30.73288  0.2605E-14  0.1503E-04  0.6485E-07  0.1234E-02  0.1964E-03  0.2431E+01
   -1.600015   30.73367  0.2605E-14  0.1440E-04  0.7398E-07  0.1078E-02  0.1803E-03 -0.9081E+02
   -1.650014   30.73479  0.2605E-14  0.1358E-04  0.8833E-07  0.9785E-03  0.1618E-03  0.5739E+04
   -1.700014   30.73608  0.2605E-14  0.1246E-04  0.1151E-06  0.7931E-03  0.1429E-03  0.9818E+03
   -1.750013   30.73850  0.2605E-14  0.1118E-04  0.1549E-06  0.7076E-03  0.1175E-03  0.4435E+07
   -1.800012   30.73986  0.2605E-14  0.9577E-05  0.2436E-06  0.4795E-03  0.1010E-03  0.8540E+04
   -1.850010   30.74932  0.2605E-14  0.8036E-05  0.4076E-06  0.4547E-03  0.6747E-04  0.5139E+07
   -1.900008   30.74483  0.2605E-14  0.6319E-05  0.8637E-06  0.2088E-03  0.5628E-04 -0.2720E+06
   -1.950005   30.76863  0.2605E-14  0.4578E-05  0.1989E-05  0.2374E-03  0.2863E-04 -0.5849E+05
   -2.000002   30.76684  0.2605E-14  0.0000E+00  0.0000E+00  0.0000E+00  0.6296E-04  0.0000E+00
