 1 - depth, m
 2 - temperature, C
 3 - salinity, kg/kg
 4 - turbulent kinetic energy, m**2/s**2
 5 - dissipation rate, m**2/s**3
 6 - kinematic heat conductance, m**2/s
 7 - modulus of horizontal velocity, m/s
 8 - Richardson number, n/d
   -0.000000   30.67575  0.2174E-14  0.5329E-05  0.3249E-06  0.5237E-04  0.2576E-02  0.7874E+03
   -0.049997   30.70749  0.2174E-14  0.8858E-05  0.1431E-06  0.1948E-03  0.1410E-02  0.4763E+02
   -0.099994   30.71808  0.2174E-14  0.1058E-04  0.1002E-06  0.3962E-03  0.1077E-02  0.7303E+01
   -0.149992   30.72156  0.2174E-14  0.1169E-04  0.8395E-07  0.4909E-03  0.9525E-03  0.3728E+01
   -0.199991   30.72423  0.2174E-14  0.1257E-04  0.7445E-07  0.6462E-03  0.8541E-03  0.2411E+01
   -0.249989   30.72621  0.2174E-14  0.1326E-04  0.6823E-07  0.7723E-03  0.7794E-03  0.1786E+01
   -0.299988   30.72781  0.2174E-14  0.1383E-04  0.6381E-07  0.8931E-03  0.7173E-03  0.1434E+01
   -0.349988   30.72917  0.2174E-14  0.1431E-04  0.6048E-07  0.1001E-02  0.6637E-03  0.1274E+01
   -0.399988   30.73035  0.2174E-14  0.1472E-04  0.5784E-07  0.1106E-02  0.6154E-03  0.1220E+01
   -0.449988   30.73139  0.2174E-14  0.1508E-04  0.5563E-07  0.1212E-02  0.5712E-03  0.1213E+01
   -0.499988   30.73233  0.2174E-14  0.1541E-04  0.5377E-07  0.1312E-02  0.5311E-03  0.1218E+01
   -0.549989   30.73318  0.2174E-14  0.1569E-04  0.5220E-07  0.1405E-02  0.4948E-03  0.1217E+01
   -0.599989   30.73395  0.2174E-14  0.1593E-04  0.5088E-07  0.1489E-02  0.4619E-03  0.1215E+01
   -0.649990   30.73467  0.2174E-14  0.1614E-04  0.4978E-07  0.1564E-02  0.4320E-03  0.1209E+01
   -0.699992   30.73535  0.2174E-14  0.1631E-04  0.4886E-07  0.1628E-02  0.4048E-03  0.1202E+01
   -0.749993   30.73599  0.2174E-14  0.1644E-04  0.4811E-07  0.1683E-02  0.3801E-03  0.1195E+01
   -0.799994   30.73660  0.2174E-14  0.1655E-04  0.4750E-07  0.1726E-02  0.3576E-03  0.1195E+01
   -0.849996   30.73719  0.2174E-14  0.1663E-04  0.4703E-07  0.1760E-02  0.3371E-03  0.1208E+01
   -0.899998   30.73776  0.2174E-14  0.1668E-04  0.4668E-07  0.1784E-02  0.3182E-03  0.1241E+01
   -0.949999   30.73832  0.2174E-14  0.1671E-04  0.4643E-07  0.1799E-02  0.3007E-03  0.1299E+01
   -1.000001   30.73887  0.2174E-14  0.1671E-04  0.4630E-07  0.1806E-02  0.2843E-03  0.1387E+01
   -1.050003   30.73941  0.2174E-14  0.1669E-04  0.4628E-07  0.1802E-02  0.2689E-03  0.1567E+01
   -1.100004   30.73994  0.2174E-14  0.1665E-04  0.4638E-07  0.1909E-02  0.2541E-03  0.5099E+01
   -1.150006   30.74045  0.2174E-14  0.1659E-04  0.4664E-07  0.1685E-02  0.2411E-03  0.1226E+02
   -1.200008   30.74101  0.2174E-14  0.1650E-04  0.4704E-07  0.1728E-02  0.2272E-03  0.2300E+01
   -1.250009   30.74156  0.2174E-14  0.1638E-04  0.4763E-07  0.1695E-02  0.2141E-03  0.2449E+01
   -1.300010   30.74212  0.2174E-14  0.1623E-04  0.4846E-07  0.1640E-02  0.2014E-03  0.2886E+01
   -1.350012   30.74269  0.2174E-14  0.1604E-04  0.4960E-07  0.1576E-02  0.1890E-03  0.3480E+01
   -1.400013   30.74328  0.2174E-14  0.1581E-04  0.5114E-07  0.1491E-02  0.1770E-03  0.4353E+01
   -1.450013   30.74391  0.2174E-14  0.1554E-04  0.5327E-07  0.1410E-02  0.1651E-03  0.5632E+01
   -1.500014   30.74457  0.2174E-14  0.1521E-04  0.5625E-07  0.1292E-02  0.1534E-03  0.7845E+01
   -1.550014   30.74531  0.2174E-14  0.1481E-04  0.6054E-07  0.1207E-02  0.1416E-03  0.1170E+02
   -1.600014   30.74611  0.2174E-14  0.1430E-04  0.6726E-07  0.1058E-02  0.1300E-03  0.2871E+02
   -1.650014   30.74713  0.2174E-14  0.1364E-04  0.7782E-07  0.9776E-03  0.1172E-03  0.1681E+04
   -1.700014   30.74831  0.2174E-14  0.1274E-04  0.9654E-07  0.7925E-03  0.1045E-03  0.3524E+04
   -1.750013   30.75042  0.2174E-14  0.1159E-04  0.1268E-06  0.7137E-03  0.8749E-04  0.1356E+06
   -1.800011   30.75196  0.2174E-14  0.1011E-04  0.1921E-06  0.4906E-03  0.7513E-04 -0.2024E+05
   -1.850010   30.75968  0.2174E-14  0.8532E-05  0.3157E-06  0.4592E-03  0.5229E-04  0.3446E+07
   -1.900008   30.75718  0.2174E-14  0.6743E-05  0.6637E-06  0.2113E-03  0.4294E-04 -0.1069E+08
   -1.950005   30.77892  0.2174E-14  0.4782E-05  0.1607E-05  0.2068E-03  0.2261E-04 -0.1096E+06
   -2.000002   30.77904  0.2174E-14  0.0000E+00  0.0000E+00  0.0000E+00  0.4425E-04  0.0000E+00
