 1 - depth, m
 2 - temperature, C
 3 - salinity, kg/kg
 4 - turbulent kinetic energy, m**2/s**2
 5 - dissipation rate, m**2/s**3
 6 - kinematic heat conductance, m**2/s
 7 - modulus of horizontal velocity, m/s
 8 - Richardson number, n/d
   -0.000000   30.43336  0.7722E-13  0.5656E-05  0.3035E-06  0.5449E-04  0.4259E-02  0.6213E+02
   -0.049997   30.46255  0.7722E-13  0.8823E-05  0.1298E-06  0.2094E-03  0.2286E-02  0.2728E+02
   -0.099994   30.47092  0.7722E-13  0.1022E-04  0.9373E-07  0.3804E-03  0.1847E-02  0.3217E+01
   -0.149992   30.47426  0.7722E-13  0.1117E-04  0.7944E-07  0.4745E-03  0.1658E-02  0.1738E+01
   -0.199991   30.47682  0.7722E-13  0.1194E-04  0.7102E-07  0.5918E-03  0.1510E-02  0.1310E+01
   -0.249989   30.47881  0.7722E-13  0.1262E-04  0.6521E-07  0.7012E-03  0.1390E-02  0.1318E+01
   -0.299988   30.48044  0.7722E-13  0.1325E-04  0.6064E-07  0.8331E-03  0.1276E-02  0.1416E+01
   -0.349988   30.48178  0.7722E-13  0.1384E-04  0.5688E-07  0.9802E-03  0.1164E-02  0.1515E+01
   -0.399988   30.48289  0.7722E-13  0.1439E-04  0.5378E-07  0.1133E-02  0.1055E-02  0.1535E+01
   -0.449988   30.48382  0.7722E-13  0.1489E-04  0.5120E-07  0.1283E-02  0.9540E-03  0.1532E+01
   -0.499988   30.48463  0.7722E-13  0.1531E-04  0.4908E-07  0.1422E-02  0.8642E-03  0.1522E+01
   -0.549989   30.48535  0.7722E-13  0.1567E-04  0.4735E-07  0.1547E-02  0.7845E-03  0.1503E+01
   -0.599990   30.48599  0.7722E-13  0.1597E-04  0.4593E-07  0.1659E-02  0.7138E-03  0.1480E+01
   -0.649991   30.48659  0.7722E-13  0.1621E-04  0.4479E-07  0.1756E-02  0.6509E-03  0.1454E+01
   -0.699992   30.48714  0.7722E-13  0.1639E-04  0.4388E-07  0.1836E-02  0.5951E-03  0.1425E+01
   -0.749993   30.48765  0.7722E-13  0.1652E-04  0.4316E-07  0.1898E-02  0.5455E-03  0.1392E+01
   -0.799995   30.48815  0.7722E-13  0.1661E-04  0.4263E-07  0.1941E-02  0.5013E-03  0.1358E+01
   -0.849996   30.48862  0.7722E-13  0.1665E-04  0.4226E-07  0.1969E-02  0.4620E-03  0.1321E+01
   -0.899998   30.48909  0.7722E-13  0.1666E-04  0.4204E-07  0.1980E-02  0.4270E-03  0.1282E+01
   -0.950000   30.48954  0.7722E-13  0.1665E-04  0.4195E-07  0.1978E-02  0.3958E-03  0.1240E+01
   -1.000001   30.48999  0.7722E-13  0.1660E-04  0.4198E-07  0.1962E-02  0.3680E-03  0.1195E+01
   -1.050003   30.49044  0.7722E-13  0.1653E-04  0.4214E-07  0.1923E-02  0.3433E-03  0.1150E+01
   -1.100005   30.49089  0.7722E-13  0.1645E-04  0.4238E-07  0.2102E-02  0.3215E-03  0.2535E+01
   -1.150006   30.49131  0.7722E-13  0.1635E-04  0.4275E-07  0.1718E-02  0.3063E-03  0.6737E+01
   -1.200008   30.49181  0.7722E-13  0.1622E-04  0.4325E-07  0.1816E-02  0.2889E-03  0.1238E+01
   -1.250009   30.49228  0.7722E-13  0.1607E-04  0.4396E-07  0.1773E-02  0.2724E-03  0.1283E+01
   -1.300011   30.49275  0.7722E-13  0.1589E-04  0.4489E-07  0.1706E-02  0.2567E-03  0.1501E+01
   -1.350012   30.49324  0.7722E-13  0.1567E-04  0.4613E-07  0.1629E-02  0.2415E-03  0.1825E+01
   -1.400013   30.49376  0.7722E-13  0.1542E-04  0.4781E-07  0.1532E-02  0.2266E-03  0.2312E+01
   -1.450014   30.49431  0.7722E-13  0.1511E-04  0.5010E-07  0.1438E-02  0.2118E-03  0.3046E+01
   -1.500014   30.49489  0.7722E-13  0.1475E-04  0.5331E-07  0.1313E-02  0.1971E-03  0.4335E+01
   -1.550015   30.49555  0.7722E-13  0.1431E-04  0.5798E-07  0.1220E-02  0.1821E-03  0.7017E+01
   -1.600015   30.49627  0.7722E-13  0.1376E-04  0.6540E-07  0.1069E-02  0.1671E-03  0.1665E+02
   -1.650015   30.49723  0.7722E-13  0.1303E-04  0.7724E-07  0.9840E-03  0.1504E-03  0.5808E+04
   -1.700014   30.49841  0.7722E-13  0.1203E-04  0.9834E-07  0.7852E-03  0.1331E-03  0.2076E+04
   -1.750013   30.50042  0.7722E-13  0.1086E-04  0.1304E-06  0.7020E-03  0.1105E-03  0.6093E+06
   -1.800012   30.50173  0.7722E-13  0.9339E-05  0.2011E-06  0.4740E-03  0.9492E-04 -0.1177E+04
   -1.850010   30.50983  0.7722E-13  0.7834E-05  0.3355E-06  0.4531E-03  0.6407E-04  0.3390E+07
   -1.900008   30.50628  0.7722E-13  0.6200E-05  0.7033E-06  0.2063E-03  0.5338E-04 -0.5068E+05
   -1.950006   30.52743  0.7722E-13  0.4429E-05  0.1668E-05  0.2194E-03  0.2755E-04 -0.4225E+05
   -2.000003   30.52636  0.7722E-13  0.0000E+00  0.0000E+00  0.0000E+00  0.5778E-04  0.0000E+00
