 1 - depth, m
 2 - temperature, C
 3 - salinity, kg/kg
 4 - turbulent kinetic energy, m**2/s**2
 5 - dissipation rate, m**2/s**3
 6 - kinematic heat conductance, m**2/s
 7 - modulus of horizontal velocity, m/s
 8 - Richardson number, n/d
   -0.000000   29.38320  0.1057E-12  0.4435E-05  0.2587E-06  0.4807E-04  0.1892E-02  0.3029E+04
   -0.049997   29.41131  0.1057E-12  0.7521E-05  0.1153E-06  0.1683E-03  0.1077E-02  0.1349E+04
   -0.099994   29.42203  0.1057E-12  0.9096E-05  0.7915E-07  0.3801E-03  0.7856E-03  0.1322E+02
   -0.149992   29.42504  0.1057E-12  0.1008E-04  0.6642E-07  0.4591E-03  0.6924E-03  0.6368E+01
   -0.199991   29.42744  0.1057E-12  0.1084E-04  0.5893E-07  0.6101E-03  0.6171E-03  0.4095E+01
   -0.249989   29.42918  0.1057E-12  0.1144E-04  0.5400E-07  0.7299E-03  0.5605E-03  0.3012E+01
   -0.299989   29.43060  0.1057E-12  0.1193E-04  0.5046E-07  0.8479E-03  0.5134E-03  0.2391E+01
   -0.349988   29.43178  0.1057E-12  0.1234E-04  0.4780E-07  0.9554E-03  0.4731E-03  0.2042E+01
   -0.399988   29.43281  0.1057E-12  0.1268E-04  0.4572E-07  0.1054E-02  0.4374E-03  0.1817E+01
   -0.449988   29.43372  0.1057E-12  0.1298E-04  0.4402E-07  0.1145E-02  0.4061E-03  0.1706E+01
   -0.499988   29.43454  0.1057E-12  0.1323E-04  0.4262E-07  0.1230E-02  0.3784E-03  0.1658E+01
   -0.549989   29.43528  0.1057E-12  0.1345E-04  0.4143E-07  0.1307E-02  0.3537E-03  0.1637E+01
   -0.599990   29.43597  0.1057E-12  0.1364E-04  0.4043E-07  0.1378E-02  0.3313E-03  0.1636E+01
   -0.649991   29.43661  0.1057E-12  0.1380E-04  0.3957E-07  0.1441E-02  0.3110E-03  0.1656E+01
   -0.699992   29.43722  0.1057E-12  0.1394E-04  0.3884E-07  0.1498E-02  0.2923E-03  0.1691E+01
   -0.749993   29.43779  0.1057E-12  0.1405E-04  0.3823E-07  0.1547E-02  0.2751E-03  0.1746E+01
   -0.799995   29.43833  0.1057E-12  0.1414E-04  0.3771E-07  0.1590E-02  0.2591E-03  0.1816E+01
   -0.849997   29.43886  0.1057E-12  0.1422E-04  0.3728E-07  0.1625E-02  0.2442E-03  0.1908E+01
   -0.899998   29.43936  0.1057E-12  0.1427E-04  0.3693E-07  0.1653E-02  0.2303E-03  0.2018E+01
   -0.950000   29.43986  0.1057E-12  0.1431E-04  0.3667E-07  0.1674E-02  0.2171E-03  0.2157E+01
   -1.000002   29.44034  0.1057E-12  0.1432E-04  0.3650E-07  0.1687E-02  0.2048E-03  0.2320E+01
   -1.050003   29.44081  0.1057E-12  0.1432E-04  0.3640E-07  0.1691E-02  0.1930E-03  0.2628E+01
   -1.100005   29.44127  0.1057E-12  0.1430E-04  0.3640E-07  0.1760E-02  0.1819E-03  0.8842E+01
   -1.150007   29.44172  0.1057E-12  0.1426E-04  0.3650E-07  0.1638E-02  0.1719E-03  0.1902E+02
   -1.200008   29.44219  0.1057E-12  0.1420E-04  0.3670E-07  0.1649E-02  0.1617E-03  0.3726E+01
   -1.250010   29.44266  0.1057E-12  0.1412E-04  0.3704E-07  0.1623E-02  0.1520E-03  0.3950E+01
   -1.300011   29.44313  0.1057E-12  0.1402E-04  0.3753E-07  0.1581E-02  0.1426E-03  0.4585E+01
   -1.350013   29.44361  0.1057E-12  0.1389E-04  0.3821E-07  0.1529E-02  0.1335E-03  0.5422E+01
   -1.400014   29.44410  0.1057E-12  0.1374E-04  0.3914E-07  0.1462E-02  0.1247E-03  0.6598E+01
   -1.450014   29.44462  0.1057E-12  0.1355E-04  0.4041E-07  0.1390E-02  0.1161E-03  0.8247E+01
   -1.500015   29.44516  0.1057E-12  0.1332E-04  0.4216E-07  0.1292E-02  0.1076E-03  0.1086E+02
   -1.550015   29.44574  0.1057E-12  0.1304E-04  0.4460E-07  0.1207E-02  0.9929E-04  0.1489E+02
   -1.600015   29.44636  0.1057E-12  0.1269E-04  0.4821E-07  0.1073E-02  0.9107E-04  0.2362E+02
   -1.650015   29.44708  0.1057E-12  0.1226E-04  0.5369E-07  0.9917E-03  0.8257E-04  0.1674E+03
   -1.700015   29.44789  0.1057E-12  0.1168E-04  0.6347E-07  0.8184E-03  0.7429E-04  0.3748E+04
   -1.750014   29.44917  0.1057E-12  0.1088E-04  0.7982E-07  0.7374E-03  0.6396E-04  0.3411E+04
   -1.800013   29.45045  0.1057E-12  0.9761E-05  0.1127E-06  0.5250E-03  0.5504E-04  0.4071E+04
   -1.850011   29.45433  0.1057E-12  0.8375E-05  0.1754E-06  0.4664E-03  0.4097E-04  0.2306E+07
   -1.900009   29.45468  0.1057E-12  0.6626E-05  0.3575E-06  0.2108E-03  0.3281E-04 -0.2569E+08
   -1.950006   29.46887  0.1057E-12  0.4513E-05  0.9322E-06  0.1602E-03  0.1810E-04 -0.2194E+06
   -2.000003   29.47222  0.1057E-12  0.0000E+00  0.0000E+00  0.0000E+00  0.3051E-04  0.0000E+00
