 1 - depth, m
 2 - temperature, C
 3 - salinity, kg/kg
 4 - turbulent kinetic energy, m**2/s**2
 5 - dissipation rate, m**2/s**3
 6 - kinematic heat conductance, m**2/s
 7 - modulus of horizontal velocity, m/s
 8 - Richardson number, n/d
   -0.000000   30.58283  0.1051E-13  0.4596E-05  0.2781E-06  0.4929E-04  0.1589E-02  0.4902E+04
   -0.049997   30.61074  0.1051E-13  0.7881E-05  0.1237E-06  0.1742E-03  0.9046E-03  0.5026E+03
   -0.099994   30.62156  0.1051E-13  0.9572E-05  0.8511E-07  0.3943E-03  0.6597E-03  0.1925E+02
   -0.149992   30.62452  0.1051E-13  0.1063E-04  0.7149E-07  0.4751E-03  0.5824E-03  0.9405E+01
   -0.199991   30.62688  0.1051E-13  0.1146E-04  0.6354E-07  0.6347E-03  0.5198E-03  0.6038E+01
   -0.249989   30.62860  0.1051E-13  0.1213E-04  0.5835E-07  0.7589E-03  0.4730E-03  0.4447E+01
   -0.299988   30.63000  0.1051E-13  0.1268E-04  0.5468E-07  0.8829E-03  0.4340E-03  0.3548E+01
   -0.349988   30.63118  0.1051E-13  0.1313E-04  0.5194E-07  0.9952E-03  0.4006E-03  0.3028E+01
   -0.399988   30.63221  0.1051E-13  0.1352E-04  0.4982E-07  0.1098E-02  0.3711E-03  0.2707E+01
   -0.449988   30.63312  0.1051E-13  0.1385E-04  0.4811E-07  0.1194E-02  0.3452E-03  0.2533E+01
   -0.499988   30.63395  0.1051E-13  0.1415E-04  0.4671E-07  0.1282E-02  0.3222E-03  0.2472E+01
   -0.549989   30.63470  0.1051E-13  0.1441E-04  0.4555E-07  0.1363E-02  0.3017E-03  0.2430E+01
   -0.599989   30.63540  0.1051E-13  0.1463E-04  0.4459E-07  0.1436E-02  0.2831E-03  0.2442E+01
   -0.649990   30.63605  0.1051E-13  0.1483E-04  0.4379E-07  0.1502E-02  0.2662E-03  0.2465E+01
   -0.699992   30.63667  0.1051E-13  0.1500E-04  0.4313E-07  0.1560E-02  0.2507E-03  0.2534E+01
   -0.749993   30.63726  0.1051E-13  0.1514E-04  0.4260E-07  0.1611E-02  0.2364E-03  0.2609E+01
   -0.799994   30.63782  0.1051E-13  0.1527E-04  0.4217E-07  0.1655E-02  0.2230E-03  0.2735E+01
   -0.849996   30.63837  0.1051E-13  0.1537E-04  0.4185E-07  0.1690E-02  0.2106E-03  0.2867E+01
   -0.899998   30.63890  0.1051E-13  0.1545E-04  0.4162E-07  0.1718E-02  0.1989E-03  0.3060E+01
   -0.949999   30.63942  0.1051E-13  0.1552E-04  0.4149E-07  0.1738E-02  0.1879E-03  0.3267E+01
   -1.000001   30.63993  0.1051E-13  0.1556E-04  0.4146E-07  0.1749E-02  0.1775E-03  0.3550E+01
   -1.050003   30.64044  0.1051E-13  0.1558E-04  0.4152E-07  0.1751E-02  0.1676E-03  0.4019E+01
   -1.100005   30.64094  0.1051E-13  0.1558E-04  0.4170E-07  0.1831E-02  0.1582E-03  0.1351E+02
   -1.150006   30.64142  0.1051E-13  0.1556E-04  0.4200E-07  0.1681E-02  0.1497E-03  0.2991E+02
   -1.200008   30.64195  0.1051E-13  0.1552E-04  0.4243E-07  0.1699E-02  0.1411E-03  0.5812E+01
   -1.250009   30.64246  0.1051E-13  0.1545E-04  0.4303E-07  0.1669E-02  0.1327E-03  0.6246E+01
   -1.300011   30.64299  0.1051E-13  0.1536E-04  0.4382E-07  0.1621E-02  0.1247E-03  0.7294E+01
   -1.350012   30.64353  0.1051E-13  0.1523E-04  0.4487E-07  0.1564E-02  0.1170E-03  0.8757E+01
   -1.400013   30.64410  0.1051E-13  0.1508E-04  0.4625E-07  0.1490E-02  0.1094E-03  0.1078E+02
   -1.450014   30.64469  0.1051E-13  0.1488E-04  0.4808E-07  0.1415E-02  0.1020E-03  0.1375E+02
   -1.500014   30.64533  0.1051E-13  0.1463E-04  0.5056E-07  0.1307E-02  0.9470E-04  0.1855E+02
   -1.550015   30.64602  0.1051E-13  0.1432E-04  0.5402E-07  0.1223E-02  0.8739E-04  0.2638E+02
   -1.600015   30.64677  0.1051E-13  0.1393E-04  0.5924E-07  0.1081E-02  0.8026E-04  0.5134E+02
   -1.650014   30.64769  0.1051E-13  0.1343E-04  0.6715E-07  0.9987E-03  0.7260E-04  0.8365E+03
   -1.700014   30.64872  0.1051E-13  0.1273E-04  0.8098E-07  0.8203E-03  0.6521E-04  0.6393E+05
   -1.750013   30.65047  0.1051E-13  0.1180E-04  0.1038E-06  0.7402E-03  0.5561E-04  0.3507E+06
   -1.800012   30.65202  0.1051E-13  0.1052E-04  0.1515E-06  0.5258E-03  0.4786E-04  0.3506E+05
   -1.850010   30.65777  0.1051E-13  0.9041E-05  0.2410E-06  0.4739E-03  0.3505E-04  0.5255E+07
   -1.900008   30.65720  0.1051E-13  0.7182E-05  0.5029E-06  0.2168E-03  0.2838E-04  0.5176E+06
   -1.950005   30.67621  0.1051E-13  0.5000E-05  0.1279E-05  0.1789E-03  0.1553E-04 -0.9871E+06
   -2.000002   30.68011  0.1051E-13  0.0000E+00  0.0000E+00  0.0000E+00  0.2708E-04  0.0000E+00
