 1 - depth, m
 2 - temperature, C
 3 - salinity, kg/kg
 4 - turbulent kinetic energy, m**2/s**2
 5 - dissipation rate, m**2/s**3
 6 - kinematic heat conductance, m**2/s
 7 - modulus of horizontal velocity, m/s
 8 - Richardson number, n/d
   -0.000000   30.33719  0.8605E-14  0.4578E-05  0.2777E-06  0.4930E-04  0.1308E-02  0.8633E+04
   -0.049997   30.36559  0.8605E-14  0.7914E-05  0.1237E-06  0.1754E-03  0.7423E-03  0.8179E+03
   -0.099994   30.37652  0.8605E-14  0.9616E-05  0.8533E-07  0.3963E-03  0.5424E-03  0.2631E+02
   -0.149992   30.37952  0.8605E-14  0.1068E-04  0.7175E-07  0.4769E-03  0.4789E-03  0.1288E+02
   -0.199991   30.38192  0.8605E-14  0.1152E-04  0.6381E-07  0.6373E-03  0.4275E-03  0.8293E+01
   -0.249989   30.38366  0.8605E-14  0.1219E-04  0.5864E-07  0.7619E-03  0.3890E-03  0.6136E+01
   -0.299988   30.38508  0.8605E-14  0.1274E-04  0.5496E-07  0.8861E-03  0.3570E-03  0.4895E+01
   -0.349988   30.38627  0.8605E-14  0.1319E-04  0.5222E-07  0.9986E-03  0.3296E-03  0.4199E+01
   -0.399988   30.38731  0.8605E-14  0.1358E-04  0.5010E-07  0.1102E-02  0.3054E-03  0.3747E+01
   -0.449988   30.38824  0.8605E-14  0.1392E-04  0.4839E-07  0.1197E-02  0.2841E-03  0.3524E+01
   -0.499988   30.38907  0.8605E-14  0.1421E-04  0.4699E-07  0.1286E-02  0.2652E-03  0.3430E+01
   -0.549989   30.38984  0.8605E-14  0.1447E-04  0.4582E-07  0.1366E-02  0.2483E-03  0.3392E+01
   -0.599989   30.39055  0.8605E-14  0.1469E-04  0.4486E-07  0.1439E-02  0.2331E-03  0.3398E+01
   -0.649991   30.39121  0.8605E-14  0.1489E-04  0.4405E-07  0.1505E-02  0.2192E-03  0.3450E+01
   -0.699992   30.39184  0.8605E-14  0.1506E-04  0.4338E-07  0.1563E-02  0.2064E-03  0.3535E+01
   -0.749993   30.39243  0.8605E-14  0.1520E-04  0.4284E-07  0.1614E-02  0.1946E-03  0.3665E+01
   -0.799995   30.39301  0.8605E-14  0.1533E-04  0.4241E-07  0.1657E-02  0.1836E-03  0.3826E+01
   -0.849996   30.39356  0.8605E-14  0.1543E-04  0.4208E-07  0.1692E-02  0.1734E-03  0.4040E+01
   -0.899998   30.39410  0.8605E-14  0.1551E-04  0.4184E-07  0.1720E-02  0.1638E-03  0.4293E+01
   -0.949999   30.39462  0.8605E-14  0.1556E-04  0.4170E-07  0.1739E-02  0.1547E-03  0.4616E+01
   -1.000001   30.39514  0.8605E-14  0.1560E-04  0.4166E-07  0.1751E-02  0.1461E-03  0.4996E+01
   -1.050003   30.39565  0.8605E-14  0.1562E-04  0.4172E-07  0.1752E-02  0.1380E-03  0.5694E+01
   -1.100005   30.39616  0.8605E-14  0.1562E-04  0.4189E-07  0.1834E-02  0.1302E-03  0.1902E+02
   -1.150006   30.39665  0.8605E-14  0.1560E-04  0.4219E-07  0.1677E-02  0.1233E-03  0.4239E+02
   -1.200008   30.39718  0.8605E-14  0.1555E-04  0.4262E-07  0.1697E-02  0.1162E-03  0.8268E+01
   -1.250009   30.39770  0.8605E-14  0.1548E-04  0.4321E-07  0.1667E-02  0.1093E-03  0.8862E+01
   -1.300011   30.39823  0.8605E-14  0.1538E-04  0.4400E-07  0.1619E-02  0.1027E-03  0.1041E+02
   -1.350012   30.39878  0.8605E-14  0.1525E-04  0.4505E-07  0.1561E-02  0.9632E-04  0.1247E+02
   -1.400013   30.39935  0.8605E-14  0.1508E-04  0.4643E-07  0.1486E-02  0.9008E-04  0.1543E+02
   -1.450014   30.39995  0.8605E-14  0.1488E-04  0.4826E-07  0.1410E-02  0.8397E-04  0.1965E+02
   -1.500014   30.40059  0.8605E-14  0.1462E-04  0.5076E-07  0.1300E-02  0.7798E-04  0.2662E+02
   -1.550015   30.40129  0.8605E-14  0.1431E-04  0.5424E-07  0.1216E-02  0.7196E-04  0.3771E+02
   -1.600015   30.40205  0.8605E-14  0.1391E-04  0.5948E-07  0.1070E-02  0.6607E-04  0.7186E+02
   -1.650014   30.40297  0.8605E-14  0.1339E-04  0.6746E-07  0.9940E-03  0.5976E-04  0.1604E+03
   -1.700014   30.40400  0.8605E-14  0.1268E-04  0.8168E-07  0.8095E-03  0.5371E-04 -0.2872E+03
   -1.750013   30.40580  0.8605E-14  0.1172E-04  0.1052E-06  0.7341E-03  0.4566E-04  0.1221E+06
   -1.800012   30.40741  0.8605E-14  0.1040E-04  0.1529E-06  0.5145E-03  0.3924E-04  0.6493E+05
   -1.850010   30.41331  0.8605E-14  0.8871E-05  0.2442E-06  0.4675E-03  0.2840E-04  0.4453E+07
   -1.900008   30.41277  0.8605E-14  0.7048E-05  0.5082E-06  0.2128E-03  0.2294E-04  0.9169E+06
   -1.950005   30.43239  0.8605E-14  0.4926E-05  0.1291E-05  0.1809E-03  0.1251E-04 -0.7048E+06
   -2.000002   30.43533  0.8605E-14  0.0000E+00  0.0000E+00  0.0000E+00  0.2223E-04  0.0000E+00
