 1 - depth, m
 2 - temperature, C
 3 - salinity, kg/kg
 4 - turbulent kinetic energy, m**2/s**2
 5 - dissipation rate, m**2/s**3
 6 - kinematic heat conductance, m**2/s
 7 - modulus of horizontal velocity, m/s
 8 - Richardson number, n/d
   -0.000000   29.89268  0.4626E-13  0.4829E-05  0.2727E-06  0.4920E-04  0.2596E-02  0.3355E+04
   -0.049997   29.92141  0.4626E-13  0.8029E-05  0.1200E-06  0.1891E-03  0.1402E-02  0.1310E+02
   -0.099994   29.93063  0.4626E-13  0.9551E-05  0.8461E-07  0.3802E-03  0.1074E-02  0.6882E+01
   -0.149992   29.93374  0.4626E-13  0.1054E-04  0.7107E-07  0.4745E-03  0.9479E-03  0.3502E+01
   -0.199991   29.93613  0.4626E-13  0.1132E-04  0.6313E-07  0.6202E-03  0.8494E-03  0.2282E+01
   -0.249989   29.93790  0.4626E-13  0.1194E-04  0.5791E-07  0.7412E-03  0.7742E-03  0.1693E+01
   -0.299989   29.93935  0.4626E-13  0.1245E-04  0.5419E-07  0.8550E-03  0.7116E-03  0.1366E+01
   -0.349988   29.94057  0.4626E-13  0.1288E-04  0.5139E-07  0.9564E-03  0.6575E-03  0.1232E+01
   -0.399988   29.94164  0.4626E-13  0.1326E-04  0.4914E-07  0.1057E-02  0.6084E-03  0.1211E+01
   -0.449988   29.94259  0.4626E-13  0.1359E-04  0.4724E-07  0.1162E-02  0.5632E-03  0.1221E+01
   -0.499988   29.94343  0.4626E-13  0.1390E-04  0.4564E-07  0.1261E-02  0.5220E-03  0.1230E+01
   -0.549989   29.94419  0.4626E-13  0.1416E-04  0.4429E-07  0.1352E-02  0.4848E-03  0.1229E+01
   -0.599990   29.94489  0.4626E-13  0.1439E-04  0.4316E-07  0.1435E-02  0.4511E-03  0.1225E+01
   -0.649991   29.94554  0.4626E-13  0.1458E-04  0.4221E-07  0.1509E-02  0.4206E-03  0.1216E+01
   -0.699992   29.94614  0.4626E-13  0.1474E-04  0.4142E-07  0.1574E-02  0.3930E-03  0.1205E+01
   -0.749993   29.94672  0.4626E-13  0.1487E-04  0.4077E-07  0.1628E-02  0.3680E-03  0.1190E+01
   -0.799995   29.94726  0.4626E-13  0.1497E-04  0.4025E-07  0.1672E-02  0.3453E-03  0.1180E+01
   -0.849996   29.94779  0.4626E-13  0.1505E-04  0.3985E-07  0.1706E-02  0.3247E-03  0.1179E+01
   -0.899998   29.94830  0.4626E-13  0.1510E-04  0.3954E-07  0.1730E-02  0.3059E-03  0.1197E+01
   -0.950000   29.94880  0.4626E-13  0.1513E-04  0.3933E-07  0.1746E-02  0.2886E-03  0.1242E+01
   -1.000002   29.94929  0.4626E-13  0.1515E-04  0.3921E-07  0.1755E-02  0.2725E-03  0.1326E+01
   -1.050003   29.94977  0.4626E-13  0.1514E-04  0.3918E-07  0.1754E-02  0.2573E-03  0.1495E+01
   -1.100005   29.95025  0.4626E-13  0.1511E-04  0.3925E-07  0.1844E-02  0.2429E-03  0.4954E+01
   -1.150007   29.95070  0.4626E-13  0.1506E-04  0.3944E-07  0.1666E-02  0.2300E-03  0.1124E+02
   -1.200008   29.95119  0.4626E-13  0.1500E-04  0.3974E-07  0.1695E-02  0.2166E-03  0.2157E+01
   -1.250010   29.95168  0.4626E-13  0.1490E-04  0.4019E-07  0.1665E-02  0.2038E-03  0.2298E+01
   -1.300011   29.95217  0.4626E-13  0.1478E-04  0.4082E-07  0.1616E-02  0.1915E-03  0.2681E+01
   -1.350012   29.95267  0.4626E-13  0.1464E-04  0.4168E-07  0.1558E-02  0.1796E-03  0.3203E+01
   -1.400013   29.95319  0.4626E-13  0.1446E-04  0.4284E-07  0.1483E-02  0.1680E-03  0.3936E+01
   -1.450014   29.95373  0.4626E-13  0.1424E-04  0.4441E-07  0.1406E-02  0.1566E-03  0.4994E+01
   -1.500015   29.95430  0.4626E-13  0.1398E-04  0.4658E-07  0.1296E-02  0.1454E-03  0.6715E+01
   -1.550015   29.95493  0.4626E-13  0.1365E-04  0.4963E-07  0.1212E-02  0.1342E-03  0.9440E+01
   -1.600015   29.95560  0.4626E-13  0.1326E-04  0.5423E-07  0.1067E-02  0.1232E-03  0.1639E+02
   -1.650015   29.95641  0.4626E-13  0.1275E-04  0.6128E-07  0.9931E-03  0.1115E-03  0.4860E+02
   -1.700014   29.95730  0.4626E-13  0.1206E-04  0.7409E-07  0.8061E-03  0.1003E-03  0.2237E+03
   -1.750014   29.95890  0.4626E-13  0.1112E-04  0.9513E-07  0.7349E-03  0.8517E-04  0.2576E+04
   -1.800012   29.96025  0.4626E-13  0.9845E-05  0.1382E-06  0.5051E-03  0.7336E-04  0.3105E+04
   -1.850011   29.96550  0.4626E-13  0.8364E-05  0.2205E-06  0.4682E-03  0.5283E-04  0.2627E+07
   -1.900009   29.96483  0.4626E-13  0.6628E-05  0.4555E-06  0.2103E-03  0.4289E-04  0.3838E+06
   -1.950006   29.98169  0.4626E-13  0.4581E-05  0.1167E-05  0.1776E-03  0.2313E-04 -0.1500E+06
   -2.000003   29.98404  0.4626E-13  0.0000E+00  0.0000E+00  0.0000E+00  0.4148E-04  0.0000E+00
