 1 - depth, m
 2 - temperature, C
 3 - salinity, kg/kg
 4 - turbulent kinetic energy, m**2/s**2
 5 - dissipation rate, m**2/s**3
 6 - kinematic heat conductance, m**2/s
 7 - modulus of horizontal velocity, m/s
 8 - Richardson number, n/d
   -0.000000   30.44014  0.1483E-13  0.5177E-05  0.3016E-06  0.5129E-04  0.2837E-02  0.2347E+04
   -0.049997   30.47017  0.1483E-13  0.8542E-05  0.1318E-06  0.1969E-03  0.1533E-02  0.3296E+03
   -0.099994   30.47978  0.1483E-13  0.1014E-04  0.9286E-07  0.3902E-03  0.1181E-02  0.6012E+01
   -0.149992   30.48304  0.1483E-13  0.1119E-04  0.7804E-07  0.4860E-03  0.1046E-02  0.3091E+01
   -0.199991   30.48554  0.1483E-13  0.1201E-04  0.6937E-07  0.6339E-03  0.9405E-03  0.2022E+01
   -0.249989   30.48740  0.1483E-13  0.1267E-04  0.6370E-07  0.7539E-03  0.8597E-03  0.1519E+01
   -0.299988   30.48894  0.1483E-13  0.1321E-04  0.5966E-07  0.8649E-03  0.7922E-03  0.1273E+01
   -0.349988   30.49024  0.1483E-13  0.1369E-04  0.5655E-07  0.9715E-03  0.7327E-03  0.1236E+01
   -0.399988   30.49137  0.1483E-13  0.1411E-04  0.5401E-07  0.1086E-02  0.6766E-03  0.1245E+01
   -0.449988   30.49236  0.1483E-13  0.1450E-04  0.5187E-07  0.1200E-02  0.6245E-03  0.1257E+01
   -0.499988   30.49324  0.1483E-13  0.1484E-04  0.5008E-07  0.1308E-02  0.5773E-03  0.1265E+01
   -0.549989   30.49404  0.1483E-13  0.1514E-04  0.4858E-07  0.1407E-02  0.5347E-03  0.1265E+01
   -0.599989   30.49476  0.1483E-13  0.1540E-04  0.4733E-07  0.1497E-02  0.4962E-03  0.1259E+01
   -0.649991   30.49543  0.1483E-13  0.1561E-04  0.4630E-07  0.1576E-02  0.4614E-03  0.1250E+01
   -0.699992   30.49606  0.1483E-13  0.1579E-04  0.4546E-07  0.1645E-02  0.4300E-03  0.1236E+01
   -0.749993   30.49666  0.1483E-13  0.1594E-04  0.4478E-07  0.1702E-02  0.4016E-03  0.1220E+01
   -0.799995   30.49722  0.1483E-13  0.1605E-04  0.4425E-07  0.1747E-02  0.3759E-03  0.1201E+01
   -0.849996   30.49777  0.1483E-13  0.1614E-04  0.4385E-07  0.1781E-02  0.3527E-03  0.1185E+01
   -0.899998   30.49830  0.1483E-13  0.1619E-04  0.4358E-07  0.1804E-02  0.3316E-03  0.1178E+01
   -0.949999   30.49882  0.1483E-13  0.1622E-04  0.4341E-07  0.1817E-02  0.3125E-03  0.1193E+01
   -1.000001   30.49933  0.1483E-13  0.1623E-04  0.4335E-07  0.1822E-02  0.2950E-03  0.1238E+01
   -1.050003   30.49984  0.1483E-13  0.1622E-04  0.4340E-07  0.1815E-02  0.2787E-03  0.1366E+01
   -1.100005   30.50034  0.1483E-13  0.1618E-04  0.4355E-07  0.1927E-02  0.2634E-03  0.4398E+01
   -1.150006   30.50081  0.1483E-13  0.1613E-04  0.4385E-07  0.1692E-02  0.2499E-03  0.1062E+02
   -1.200008   30.50135  0.1483E-13  0.1604E-04  0.4428E-07  0.1738E-02  0.2355E-03  0.1991E+01
   -1.250009   30.50187  0.1483E-13  0.1594E-04  0.4489E-07  0.1705E-02  0.2219E-03  0.2126E+01
   -1.300011   30.50240  0.1483E-13  0.1580E-04  0.4572E-07  0.1649E-02  0.2088E-03  0.2506E+01
   -1.350012   30.50294  0.1483E-13  0.1563E-04  0.4684E-07  0.1584E-02  0.1961E-03  0.3025E+01
   -1.400013   30.50350  0.1483E-13  0.1542E-04  0.4834E-07  0.1500E-02  0.1836E-03  0.3783E+01
   -1.450014   30.50410  0.1483E-13  0.1517E-04  0.5038E-07  0.1419E-02  0.1713E-03  0.4887E+01
   -1.500014   30.50473  0.1483E-13  0.1486E-04  0.5321E-07  0.1301E-02  0.1592E-03  0.6791E+01
   -1.550015   30.50543  0.1483E-13  0.1448E-04  0.5722E-07  0.1217E-02  0.1469E-03  0.9968E+01
   -1.600015   30.50619  0.1483E-13  0.1401E-04  0.6351E-07  0.1069E-02  0.1349E-03 -0.1627E+00
   -1.650014   30.50716  0.1483E-13  0.1339E-04  0.7336E-07  0.9868E-03  0.1217E-03  0.6037E+04
   -1.700014   30.50827  0.1483E-13  0.1254E-04  0.9062E-07  0.8036E-03  0.1087E-03 -0.2150E+03
   -1.750013   30.51027  0.1483E-13  0.1145E-04  0.1188E-06  0.7244E-03  0.9136E-04  0.2374E+05
   -1.800012   30.51179  0.1483E-13  0.1003E-04  0.1808E-06  0.5014E-03  0.7834E-04  0.2077E+05
   -1.850010   30.51888  0.1483E-13  0.8509E-05  0.2944E-06  0.4667E-03  0.5520E-04  0.8031E+07
   -1.900008   30.51676  0.1483E-13  0.6767E-05  0.6223E-06  0.2141E-03  0.4528E-04 -0.1065E+07
   -1.950005   30.53735  0.1483E-13  0.4770E-05  0.1525E-05  0.1988E-03  0.2424E-04 -0.4890E+05
   -2.000002   30.53922  0.1483E-13  0.0000E+00  0.0000E+00  0.0000E+00  0.4618E-04  0.0000E+00
