 1 - depth, m
 2 - temperature, C
 3 - salinity, kg/kg
 4 - turbulent kinetic energy, m**2/s**2
 5 - dissipation rate, m**2/s**3
 6 - kinematic heat conductance, m**2/s
 7 - modulus of horizontal velocity, m/s
 8 - Richardson number, n/d
   -0.000000   29.53503  0.1076E-12  0.4298E-05  0.2471E-06  0.4735E-04  0.1703E-02  0.5951E+04
   -0.049997   29.56225  0.1076E-12  0.7338E-05  0.1101E-06  0.1671E-03  0.9675E-03  0.7282E+04
   -0.099994   29.57258  0.1076E-12  0.8878E-05  0.7574E-07  0.3785E-03  0.7045E-03  0.1609E+02
   -0.149992   29.57547  0.1076E-12  0.9835E-05  0.6367E-07  0.4567E-03  0.6209E-03  0.7727E+01
   -0.199991   29.57777  0.1076E-12  0.1058E-04  0.5655E-07  0.6062E-03  0.5534E-03  0.4984E+01
   -0.249989   29.57946  0.1076E-12  0.1117E-04  0.5186E-07  0.7250E-03  0.5026E-03  0.3670E+01
   -0.299989   29.58082  0.1076E-12  0.1165E-04  0.4850E-07  0.8417E-03  0.4603E-03  0.2918E+01
   -0.349988   29.58197  0.1076E-12  0.1205E-04  0.4597E-07  0.9480E-03  0.4240E-03  0.2493E+01
   -0.399988   29.58296  0.1076E-12  0.1239E-04  0.4399E-07  0.1045E-02  0.3920E-03  0.2221E+01
   -0.449988   29.58383  0.1076E-12  0.1268E-04  0.4238E-07  0.1136E-02  0.3638E-03  0.2085E+01
   -0.499988   29.58463  0.1076E-12  0.1293E-04  0.4104E-07  0.1219E-02  0.3389E-03  0.2029E+01
   -0.549989   29.58535  0.1076E-12  0.1314E-04  0.3992E-07  0.1296E-02  0.3167E-03  0.2003E+01
   -0.599990   29.58601  0.1076E-12  0.1333E-04  0.3897E-07  0.1366E-02  0.2966E-03  0.2005E+01
   -0.649991   29.58664  0.1076E-12  0.1349E-04  0.3817E-07  0.1428E-02  0.2783E-03  0.2029E+01
   -0.699992   29.58722  0.1076E-12  0.1362E-04  0.3748E-07  0.1484E-02  0.2615E-03  0.2077E+01
   -0.749993   29.58778  0.1076E-12  0.1374E-04  0.3690E-07  0.1533E-02  0.2461E-03  0.2144E+01
   -0.799995   29.58830  0.1076E-12  0.1383E-04  0.3642E-07  0.1575E-02  0.2317E-03  0.2235E+01
   -0.849997   29.58881  0.1076E-12  0.1391E-04  0.3602E-07  0.1610E-02  0.2183E-03  0.2348E+01
   -0.899998   29.58931  0.1076E-12  0.1396E-04  0.3571E-07  0.1638E-02  0.2058E-03  0.2489E+01
   -0.950000   29.58978  0.1077E-12  0.1400E-04  0.3548E-07  0.1658E-02  0.1940E-03  0.2661E+01
   -1.000002   29.59025  0.1077E-12  0.1402E-04  0.3532E-07  0.1671E-02  0.1829E-03  0.2870E+01
   -1.050003   29.59071  0.1077E-12  0.1402E-04  0.3525E-07  0.1675E-02  0.1724E-03  0.3252E+01
   -1.100005   29.59117  0.1077E-12  0.1400E-04  0.3527E-07  0.1743E-02  0.1624E-03  0.1096E+02
   -1.150007   29.59160  0.1077E-12  0.1397E-04  0.3539E-07  0.1622E-02  0.1534E-03  0.2366E+02
   -1.200008   29.59206  0.1077E-12  0.1392E-04  0.3560E-07  0.1632E-02  0.1443E-03  0.4631E+01
   -1.250010   29.59252  0.1077E-12  0.1384E-04  0.3595E-07  0.1606E-02  0.1355E-03  0.4924E+01
   -1.300011   29.59298  0.1077E-12  0.1374E-04  0.3645E-07  0.1564E-02  0.1271E-03  0.5720E+01
   -1.350013   29.59345  0.1077E-12  0.1362E-04  0.3714E-07  0.1512E-02  0.1189E-03  0.6787E+01
   -1.400014   29.59394  0.1077E-12  0.1347E-04  0.3807E-07  0.1446E-02  0.1110E-03  0.8267E+01
   -1.450014   29.59444  0.1077E-12  0.1329E-04  0.3933E-07  0.1374E-02  0.1033E-03  0.1037E+02
   -1.500015   29.59498  0.1077E-12  0.1306E-04  0.4106E-07  0.1277E-02  0.9578E-04  0.1368E+02
   -1.550015   29.59555  0.1077E-12  0.1279E-04  0.4348E-07  0.1192E-02  0.8829E-04  0.1886E+02
   -1.600016   29.59617  0.1077E-12  0.1245E-04  0.4705E-07  0.1061E-02  0.8093E-04  0.3000E+02
   -1.650015   29.59688  0.1077E-12  0.1203E-04  0.5247E-07  0.9774E-03  0.7332E-04  0.4804E+03
   -1.700015   29.59768  0.1077E-12  0.1146E-04  0.6211E-07  0.8093E-03  0.6589E-04  0.6266E+04
   -1.750014   29.59896  0.1077E-12  0.1067E-04  0.7833E-07  0.7250E-03  0.5665E-04  0.1019E+05
   -1.800013   29.60027  0.1077E-12  0.9556E-05  0.1113E-06  0.5173E-03  0.4857E-04  0.9245E+05
   -1.850011   29.60419  0.1077E-12  0.8191E-05  0.1731E-06  0.4598E-03  0.3611E-04  0.2605E+09
   -1.900009   29.60446  0.1077E-12  0.6463E-05  0.3586E-06  0.2069E-03  0.2885E-04 -0.5777E+06
   -1.950006   29.61882  0.1077E-12  0.4408E-05  0.9246E-06  0.1605E-03  0.1579E-04 -0.2758E+06
   -2.000003   29.62198  0.1077E-12  0.0000E+00  0.0000E+00  0.0000E+00  0.2701E-04  0.0000E+00
