 1 - depth, m
 2 - temperature, C
 3 - salinity, kg/kg
 4 - turbulent kinetic energy, m**2/s**2
 5 - dissipation rate, m**2/s**3
 6 - kinematic heat conductance, m**2/s
 7 - modulus of horizontal velocity, m/s
 8 - Richardson number, n/d
   -0.000000   30.61366  0.1158E-12  0.4909E-05  0.3113E-06  0.5101E-04  0.7488E-03  0.1238E+05
   -0.049997   30.64576  0.1158E-12  0.8552E-05  0.1381E-06  0.1795E-03  0.4288E-03  0.5237E+02
   -0.099994   30.65806  0.1158E-12  0.1037E-04  0.9496E-07  0.4148E-03  0.3109E-03  0.8961E+02
   -0.149992   30.66134  0.1158E-12  0.1149E-04  0.8000E-07  0.4887E-03  0.2755E-03  0.4382E+02
   -0.199990   30.66401  0.1158E-12  0.1236E-04  0.7115E-07  0.6546E-03  0.2462E-03  0.2842E+02
   -0.249989   30.66594  0.1158E-12  0.1305E-04  0.6531E-07  0.7809E-03  0.2244E-03  0.2112E+02
   -0.299988   30.66750  0.1158E-12  0.1361E-04  0.6113E-07  0.9069E-03  0.2061E-03  0.1682E+02
   -0.349988   30.66882  0.1158E-12  0.1408E-04  0.5798E-07  0.1021E-02  0.1905E-03  0.1442E+02
   -0.399987   30.66995  0.1158E-12  0.1447E-04  0.5552E-07  0.1125E-02  0.1767E-03  0.1282E+02
   -0.449987   30.67096  0.1158E-12  0.1480E-04  0.5352E-07  0.1222E-02  0.1645E-03  0.1205E+02
   -0.499988   30.67187  0.1158E-12  0.1509E-04  0.5185E-07  0.1310E-02  0.1537E-03  0.1168E+02
   -0.549988   30.67270  0.1158E-12  0.1534E-04  0.5046E-07  0.1391E-02  0.1440E-03  0.1154E+02
   -0.599989   30.67346  0.1158E-12  0.1555E-04  0.4928E-07  0.1465E-02  0.1353E-03  0.1149E+02
   -0.649990   30.67418  0.1158E-12  0.1573E-04  0.4828E-07  0.1531E-02  0.1273E-03  0.1166E+02
   -0.699991   30.67485  0.1158E-12  0.1588E-04  0.4743E-07  0.1589E-02  0.1200E-03  0.1187E+02
   -0.749993   30.67548  0.1158E-12  0.1601E-04  0.4672E-07  0.1639E-02  0.1132E-03  0.1230E+02
   -0.799994   30.67609  0.1158E-12  0.1611E-04  0.4613E-07  0.1682E-02  0.1069E-03  0.1275E+02
   -0.849995   30.67668  0.1158E-12  0.1619E-04  0.4566E-07  0.1717E-02  0.1010E-03  0.1345E+02
   -0.899997   30.67725  0.1158E-12  0.1625E-04  0.4529E-07  0.1744E-02  0.9542E-04  0.1419E+02
   -0.949999   30.67780  0.1158E-12  0.1628E-04  0.4502E-07  0.1762E-02  0.9019E-04  0.1525E+02
   -1.000000   30.67834  0.1158E-12  0.1630E-04  0.4486E-07  0.1772E-02  0.8525E-04  0.1638E+02
   -1.050002   30.67887  0.1158E-12  0.1629E-04  0.4481E-07  0.1773E-02  0.8054E-04  0.1864E+02
   -1.100004   30.67940  0.1158E-12  0.1626E-04  0.4488E-07  0.1865E-02  0.7607E-04  0.6106E+02
   -1.150005   30.67990  0.1158E-12  0.1620E-04  0.4509E-07  0.1681E-02  0.7208E-04  0.1411E+03
   -1.200007   30.68045  0.1158E-12  0.1613E-04  0.4543E-07  0.1711E-02  0.6792E-04  0.2701E+02
   -1.250008   30.68099  0.1158E-12  0.1602E-04  0.4596E-07  0.1680E-02  0.6395E-04  0.2865E+02
   -1.300010   30.68153  0.1158E-12  0.1589E-04  0.4670E-07  0.1630E-02  0.6012E-04  0.3372E+02
   -1.350011   30.68209  0.1158E-12  0.1572E-04  0.4772E-07  0.1569E-02  0.5641E-04  0.4030E+02
   -1.400012   30.68267  0.1158E-12  0.1552E-04  0.4911E-07  0.1491E-02  0.5279E-04  0.5010E+02
   -1.450013   30.68328  0.1158E-12  0.1528E-04  0.5100E-07  0.1410E-02  0.4924E-04  0.6398E+02
   -1.500013   30.68392  0.1158E-12  0.1498E-04  0.5363E-07  0.1299E-02  0.4574E-04  0.8756E+02
   -1.550013   30.68463  0.1158E-12  0.1461E-04  0.5736E-07  0.1209E-02  0.4223E-04  0.1262E+03
   -1.600013   30.68540  0.1158E-12  0.1416E-04  0.6310E-07  0.1070E-02  0.3878E-04  0.2504E+03
   -1.650013   30.68633  0.1158E-12  0.1357E-04  0.7204E-07  0.9809E-03  0.3510E-04  0.4237E+04
   -1.700013   30.68740  0.1158E-12  0.1277E-04  0.8780E-07  0.8122E-03  0.3144E-04  0.2562E+05
   -1.750012   30.68923  0.1158E-12  0.1171E-04  0.1142E-06  0.7181E-03  0.2676E-04  0.6638E+06
   -1.800010   30.69097  0.1158E-12  0.1025E-04  0.1733E-06  0.5120E-03  0.2279E-04  0.7375E+05
   -1.850009   30.69725  0.1158E-12  0.8667E-05  0.2774E-06  0.4583E-03  0.1642E-04  0.2244E+09
   -1.900007   30.69617  0.1158E-12  0.6804E-05  0.5901E-06  0.2093E-03  0.1319E-04 -0.4409E+06
   -1.950004   30.71638  0.1158E-12  0.4815E-05  0.1461E-05  0.1928E-03  0.7052E-05 -0.1314E+07
   -2.000001   30.71871  0.1158E-12  0.0000E+00  0.0000E+00  0.0000E+00  0.1318E-04  0.0000E+00
