 1 - depth, m
 2 - temperature, C
 3 - salinity, kg/kg
 4 - turbulent kinetic energy, m**2/s**2
 5 - dissipation rate, m**2/s**3
 6 - kinematic heat conductance, m**2/s
 7 - modulus of horizontal velocity, m/s
 8 - Richardson number, n/d
   -0.000000   30.49452  0.4457E-13  0.4741E-05  0.2927E-06  0.4942E-04  0.1036E-02  0.3568E+04
   -0.049997   30.52519  0.4458E-13  0.8228E-05  0.1301E-06  0.1797E-03  0.5877E-03  0.9230E+02
   -0.099994   30.53663  0.4458E-13  0.9971E-05  0.8987E-07  0.4029E-03  0.4305E-03  0.5027E+02
   -0.149992   30.53980  0.4458E-13  0.1106E-04  0.7564E-07  0.4828E-03  0.3808E-03  0.2459E+02
   -0.199991   30.54234  0.4458E-13  0.1191E-04  0.6725E-07  0.6441E-03  0.3402E-03  0.1590E+02
   -0.249989   30.54419  0.4458E-13  0.1258E-04  0.6174E-07  0.7688E-03  0.3099E-03  0.1175E+02
   -0.299988   30.54569  0.4458E-13  0.1313E-04  0.5780E-07  0.8932E-03  0.2846E-03  0.9378E+01
   -0.349988   30.54695  0.4458E-13  0.1358E-04  0.5484E-07  0.1006E-02  0.2629E-03  0.8003E+01
   -0.399988   30.54804  0.4458E-13  0.1396E-04  0.5253E-07  0.1109E-02  0.2437E-03  0.7147E+01
   -0.449988   30.54900  0.4458E-13  0.1429E-04  0.5065E-07  0.1204E-02  0.2269E-03  0.6688E+01
   -0.499988   30.54988  0.4458E-13  0.1457E-04  0.4909E-07  0.1292E-02  0.2119E-03  0.6520E+01
   -0.549989   30.55068  0.4458E-13  0.1482E-04  0.4778E-07  0.1372E-02  0.1985E-03  0.6407E+01
   -0.599990   30.55141  0.4458E-13  0.1503E-04  0.4668E-07  0.1445E-02  0.1864E-03  0.6425E+01
   -0.649991   30.55210  0.4458E-13  0.1521E-04  0.4575E-07  0.1511E-02  0.1753E-03  0.6476E+01
   -0.699992   30.55275  0.4458E-13  0.1536E-04  0.4495E-07  0.1569E-02  0.1651E-03  0.6638E+01
   -0.749993   30.55337  0.4458E-13  0.1548E-04  0.4429E-07  0.1619E-02  0.1558E-03  0.6823E+01
   -0.799995   30.55396  0.4458E-13  0.1559E-04  0.4373E-07  0.1662E-02  0.1470E-03  0.7126E+01
   -0.849996   30.55452  0.4458E-13  0.1567E-04  0.4328E-07  0.1697E-02  0.1389E-03  0.7454E+01
   -0.899998   30.55507  0.4458E-13  0.1572E-04  0.4293E-07  0.1724E-02  0.1312E-03  0.7923E+01
   -0.950000   30.55560  0.4458E-13  0.1576E-04  0.4268E-07  0.1743E-02  0.1240E-03  0.8435E+01
   -1.000001   30.55613  0.4458E-13  0.1578E-04  0.4252E-07  0.1753E-02  0.1171E-03  0.9128E+01
   -1.050003   30.55664  0.4458E-13  0.1577E-04  0.4247E-07  0.1755E-02  0.1107E-03  0.1029E+02
   -1.100005   30.55715  0.4458E-13  0.1574E-04  0.4252E-07  0.1841E-02  0.1045E-03  0.3427E+02
   -1.150006   30.55763  0.4458E-13  0.1569E-04  0.4271E-07  0.1673E-02  0.9896E-04  0.7709E+02
   -1.200008   30.55816  0.4458E-13  0.1562E-04  0.4302E-07  0.1698E-02  0.9322E-04  0.1478E+02
   -1.250009   30.55868  0.4458E-13  0.1552E-04  0.4350E-07  0.1668E-02  0.8774E-04  0.1577E+02
   -1.300011   30.55920  0.4458E-13  0.1540E-04  0.4417E-07  0.1619E-02  0.8247E-04  0.1835E+02
   -1.350012   30.55973  0.4458E-13  0.1524E-04  0.4511E-07  0.1561E-02  0.7735E-04  0.2198E+02
   -1.400013   30.56028  0.4458E-13  0.1505E-04  0.4637E-07  0.1485E-02  0.7237E-04  0.2697E+02
   -1.450014   30.56086  0.4458E-13  0.1482E-04  0.4810E-07  0.1408E-02  0.6747E-04  0.3437E+02
   -1.500014   30.56148  0.4458E-13  0.1454E-04  0.5049E-07  0.1298E-02  0.6267E-04  0.4630E+02
   -1.550015   30.56214  0.4458E-13  0.1419E-04  0.5389E-07  0.1214E-02  0.5783E-04  0.6585E+02
   -1.600015   30.56286  0.4458E-13  0.1376E-04  0.5910E-07  0.1071E-02  0.5312E-04  0.1267E+03
   -1.650015   30.56374  0.4458E-13  0.1321E-04  0.6718E-07  0.9923E-03  0.4802E-04  0.1253E+04
   -1.700014   30.56473  0.4458E-13  0.1246E-04  0.8161E-07  0.8087E-03  0.4307E-04 -0.2394E+04
   -1.750013   30.56645  0.4458E-13  0.1145E-04  0.1053E-06  0.7323E-03  0.3645E-04  0.2633E+06
   -1.800012   30.56792  0.4458E-13  0.1011E-04  0.1564E-06  0.5087E-03  0.3133E-04  0.3671E+06
   -1.850010   30.57369  0.4458E-13  0.8602E-05  0.2509E-06  0.4685E-03  0.2243E-04  0.3519E+08
   -1.900008   30.57270  0.4458E-13  0.6820E-05  0.5278E-06  0.2152E-03  0.1825E-04 -0.1220E+08
   -1.950006   30.59074  0.4458E-13  0.4747E-05  0.1316E-05  0.1870E-03  0.9841E-05 -0.1339E+07
   -2.000003   30.59312  0.4458E-13  0.0000E+00  0.0000E+00  0.0000E+00  0.1812E-04  0.0000E+00
