 1 - depth, m
 2 - temperature, C
 3 - salinity, kg/kg
 4 - turbulent kinetic energy, m**2/s**2
 5 - dissipation rate, m**2/s**3
 6 - kinematic heat conductance, m**2/s
 7 - modulus of horizontal velocity, m/s
 8 - Richardson number, n/d
   -0.000000   30.32386  0.1072E-13  0.4899E-05  0.3067E-06  0.4999E-04  0.1143E-02  0.3890E+04
   -0.049997   30.35616  0.1072E-13  0.8458E-05  0.1366E-06  0.1818E-03  0.6481E-03  0.1955E+03
   -0.099994   30.36810  0.1072E-13  0.1024E-04  0.9440E-07  0.4032E-03  0.4762E-03  0.4211E+02
   -0.149992   30.37146  0.1072E-13  0.1136E-04  0.7933E-07  0.4848E-03  0.4208E-03  0.2073E+02
   -0.199991   30.37414  0.1072E-13  0.1222E-04  0.7046E-07  0.6465E-03  0.3759E-03  0.1335E+02
   -0.249989   30.37609  0.1072E-13  0.1290E-04  0.6462E-07  0.7718E-03  0.3423E-03  0.9884E+01
   -0.299989   30.37767  0.1072E-13  0.1346E-04  0.6043E-07  0.8969E-03  0.3143E-03  0.7860E+01
   -0.349988   30.37899  0.1072E-13  0.1392E-04  0.5728E-07  0.1010E-02  0.2902E-03  0.6728E+01
   -0.399988   30.38014  0.1072E-13  0.1430E-04  0.5482E-07  0.1113E-02  0.2690E-03  0.5986E+01
   -0.449988   30.38115  0.1072E-13  0.1463E-04  0.5280E-07  0.1209E-02  0.2503E-03  0.5626E+01
   -0.499988   30.38207  0.1072E-13  0.1491E-04  0.5113E-07  0.1297E-02  0.2338E-03  0.5463E+01
   -0.549989   30.38290  0.1072E-13  0.1515E-04  0.4971E-07  0.1377E-02  0.2190E-03  0.5394E+01
   -0.599990   30.38367  0.1072E-13  0.1535E-04  0.4851E-07  0.1450E-02  0.2056E-03  0.5383E+01
   -0.649991   30.38440  0.1072E-13  0.1552E-04  0.4748E-07  0.1515E-02  0.1934E-03  0.5452E+01
   -0.699992   30.38507  0.1072E-13  0.1567E-04  0.4661E-07  0.1573E-02  0.1821E-03  0.5557E+01
   -0.749993   30.38572  0.1072E-13  0.1578E-04  0.4586E-07  0.1623E-02  0.1717E-03  0.5740E+01
   -0.799995   30.38633  0.1072E-13  0.1587E-04  0.4522E-07  0.1665E-02  0.1621E-03  0.5959E+01
   -0.849996   30.38692  0.1072E-13  0.1594E-04  0.4470E-07  0.1700E-02  0.1530E-03  0.6264E+01
   -0.899998   30.38749  0.1072E-13  0.1598E-04  0.4427E-07  0.1726E-02  0.1446E-03  0.6614E+01
   -0.950000   30.38804  0.1072E-13  0.1600E-04  0.4395E-07  0.1744E-02  0.1366E-03  0.7076E+01
   -1.000001   30.38858  0.1072E-13  0.1600E-04  0.4372E-07  0.1754E-02  0.1291E-03  0.7606E+01
   -1.050003   30.38911  0.1072E-13  0.1598E-04  0.4360E-07  0.1755E-02  0.1219E-03  0.8605E+01
   -1.100005   30.38963  0.1072E-13  0.1594E-04  0.4359E-07  0.1847E-02  0.1151E-03  0.2826E+02
   -1.150006   30.39012  0.1072E-13  0.1587E-04  0.4372E-07  0.1662E-02  0.1090E-03  0.6510E+02
   -1.200008   30.39066  0.1072E-13  0.1577E-04  0.4397E-07  0.1693E-02  0.1026E-03  0.1239E+02
   -1.250010   30.39119  0.1072E-13  0.1566E-04  0.4439E-07  0.1663E-02  0.9659E-04  0.1312E+02
   -1.300011   30.39172  0.1072E-13  0.1551E-04  0.4502E-07  0.1612E-02  0.9076E-04  0.1535E+02
   -1.350012   30.39226  0.1072E-13  0.1533E-04  0.4591E-07  0.1553E-02  0.8512E-04  0.1831E+02
   -1.400013   30.39281  0.1072E-13  0.1511E-04  0.4716E-07  0.1473E-02  0.7961E-04  0.2267E+02
   -1.450014   30.39340  0.1072E-13  0.1485E-04  0.4888E-07  0.1397E-02  0.7421E-04  0.2881E+02
   -1.500015   30.39401  0.1072E-13  0.1454E-04  0.5132E-07  0.1281E-02  0.6890E-04  0.3944E+02
   -1.550015   30.39468  0.1072E-13  0.1416E-04  0.5481E-07  0.1203E-02  0.6356E-04  0.5608E+02
   -1.600015   30.39540  0.1072E-13  0.1369E-04  0.6031E-07  0.1050E-02  0.5836E-04  0.1189E+03
   -1.650015   30.39630  0.1072E-13  0.1309E-04  0.6885E-07  0.9814E-03  0.5267E-04  0.2440E+04
   -1.700014   30.39726  0.1072E-13  0.1228E-04  0.8440E-07  0.7890E-03  0.4724E-04  0.8038E+05
   -1.750013   30.39911  0.1072E-13  0.1120E-04  0.1100E-06  0.7193E-03  0.3969E-04  0.4154E+05
   -1.800012   30.40046  0.1072E-13  0.9792E-05  0.1635E-06  0.4918E-03  0.3411E-04  0.2716E+06
   -1.850010   30.40668  0.1072E-13  0.8227E-05  0.2659E-06  0.4571E-03  0.2397E-04  0.2609E+09
   -1.900008   30.40520  0.1072E-13  0.6466E-05  0.5645E-06  0.2073E-03  0.1952E-04  0.4601E+06
   -1.950006   30.42349  0.1072E-13  0.4537E-05  0.1395E-05  0.1957E-03  0.1026E-04 -0.1639E+07
   -2.000003   30.42448  0.1072E-13  0.0000E+00  0.0000E+00  0.0000E+00  0.1977E-04  0.0000E+00
