 1 - depth, m
 2 - temperature, C
 3 - salinity, kg/kg
 4 - turbulent kinetic energy, m**2/s**2
 5 - dissipation rate, m**2/s**3
 6 - kinematic heat conductance, m**2/s
 7 - modulus of horizontal velocity, m/s
 8 - Richardson number, n/d
   -0.000000   30.60743  0.8144E-14  0.4718E-05  0.2935E-06  0.4979E-04  0.8672E-03  0.3948E+04
   -0.049997   30.63747  0.8145E-14  0.8229E-05  0.1301E-06  0.1790E-03  0.4920E-03  0.5642E+02
   -0.099994   30.64903  0.8145E-14  0.9995E-05  0.8970E-07  0.4080E-03  0.3583E-03  0.6091E+02
   -0.149992   30.65212  0.8145E-14  0.1109E-04  0.7560E-07  0.4855E-03  0.3172E-03  0.2981E+02
   -0.199991   30.65462  0.8145E-14  0.1195E-04  0.6730E-07  0.6490E-03  0.2835E-03  0.1928E+02
   -0.249989   30.65644  0.8145E-14  0.1263E-04  0.6186E-07  0.7743E-03  0.2582E-03  0.1431E+02
   -0.299988   30.65792  0.8145E-14  0.1319E-04  0.5798E-07  0.8996E-03  0.2372E-03  0.1143E+02
   -0.349988   30.65917  0.8145E-14  0.1365E-04  0.5508E-07  0.1013E-02  0.2192E-03  0.9806E+01
   -0.399988   30.66025  0.8145E-14  0.1405E-04  0.5283E-07  0.1116E-02  0.2032E-03  0.8755E+01
   -0.449988   30.66122  0.8145E-14  0.1438E-04  0.5100E-07  0.1212E-02  0.1892E-03  0.8233E+01
   -0.499988   30.66209  0.8145E-14  0.1468E-04  0.4949E-07  0.1300E-02  0.1767E-03  0.8018E+01
   -0.549989   30.66288  0.8145E-14  0.1493E-04  0.4824E-07  0.1381E-02  0.1656E-03  0.7924E+01
   -0.599989   30.66362  0.8145E-14  0.1515E-04  0.4719E-07  0.1454E-02  0.1555E-03  0.7937E+01
   -0.649990   30.66431  0.8145E-14  0.1534E-04  0.4631E-07  0.1519E-02  0.1463E-03  0.8053E+01
   -0.699992   30.66496  0.8145E-14  0.1550E-04  0.4557E-07  0.1576E-02  0.1379E-03  0.8247E+01
   -0.749993   30.66558  0.8145E-14  0.1564E-04  0.4496E-07  0.1626E-02  0.1300E-03  0.8539E+01
   -0.799994   30.66618  0.8145E-14  0.1575E-04  0.4447E-07  0.1668E-02  0.1228E-03  0.8914E+01
   -0.849996   30.66675  0.8145E-14  0.1584E-04  0.4408E-07  0.1702E-02  0.1159E-03  0.9399E+01
   -0.899998   30.66731  0.8145E-14  0.1591E-04  0.4379E-07  0.1729E-02  0.1096E-03  0.9989E+01
   -0.949999   30.66785  0.8145E-14  0.1595E-04  0.4361E-07  0.1746E-02  0.1035E-03  0.1073E+02
   -1.000001   30.66839  0.8145E-14  0.1598E-04  0.4353E-07  0.1756E-02  0.9785E-04  0.1162E+02
   -1.050003   30.66892  0.8145E-14  0.1598E-04  0.4355E-07  0.1755E-02  0.9243E-04  0.1322E+02
   -1.100005   30.66944  0.8145E-14  0.1596E-04  0.4369E-07  0.1847E-02  0.8727E-04  0.4353E+02
   -1.150006   30.66994  0.8145E-14  0.1591E-04  0.4397E-07  0.1662E-02  0.8268E-04  0.1015E+03
   -1.200008   30.67049  0.8145E-14  0.1585E-04  0.4438E-07  0.1691E-02  0.7788E-04  0.1937E+02
   -1.250009   30.67103  0.8145E-14  0.1575E-04  0.4497E-07  0.1660E-02  0.7330E-04  0.2074E+02
   -1.300011   30.67157  0.8145E-14  0.1563E-04  0.4579E-07  0.1608E-02  0.6889E-04  0.2445E+02
   -1.350012   30.67213  0.8145E-14  0.1547E-04  0.4688E-07  0.1547E-02  0.6460E-04  0.2946E+02
   -1.400013   30.67272  0.8145E-14  0.1528E-04  0.4834E-07  0.1467E-02  0.6043E-04  0.3678E+02
   -1.450014   30.67334  0.8145E-14  0.1504E-04  0.5031E-07  0.1389E-02  0.5632E-04  0.4735E+02
   -1.500014   30.67399  0.8145E-14  0.1474E-04  0.5305E-07  0.1273E-02  0.5229E-04  0.6542E+02
   -1.550015   30.67472  0.8145E-14  0.1438E-04  0.5693E-07  0.1192E-02  0.4822E-04  0.9485E+02
   -1.600015   30.67551  0.8145E-14  0.1393E-04  0.6292E-07  0.1044E-02  0.4424E-04  0.1903E+03
   -1.650014   30.67649  0.8145E-14  0.1333E-04  0.7222E-07  0.9684E-03  0.3991E-04  0.6581E+03
   -1.700014   30.67759  0.8145E-14  0.1252E-04  0.8893E-07  0.7833E-03  0.3570E-04 -0.3867E+04
   -1.750013   30.67964  0.8145E-14  0.1143E-04  0.1164E-06  0.7097E-03  0.2997E-04  0.2201E+06
   -1.800012   30.68132  0.8145E-14  0.1000E-04  0.1747E-06  0.4871E-03  0.2564E-04  0.6489E+06
   -1.850010   30.68837  0.8145E-14  0.8440E-05  0.2837E-06  0.4555E-03  0.1801E-04  0.2525E+08
   -1.900008   30.68660  0.8145E-14  0.6701E-05  0.5975E-06  0.2104E-03  0.1470E-04  0.2556E+06
   -1.950005   30.70784  0.8145E-14  0.4737E-05  0.1475E-05  0.1968E-03  0.7805E-05 -0.1357E+07
   -2.000002   30.70907  0.8145E-14  0.0000E+00  0.0000E+00  0.0000E+00  0.1488E-04  0.0000E+00
