 1 - depth, m
 2 - temperature, C
 3 - salinity, kg/kg
 4 - turbulent kinetic energy, m**2/s**2
 5 - dissipation rate, m**2/s**3
 6 - kinematic heat conductance, m**2/s
 7 - modulus of horizontal velocity, m/s
 8 - Richardson number, n/d
   -0.000000   30.33871  0.2199E-14  0.4595E-05  0.2768E-06  0.4831E-04  0.1229E-02  0.3753E+04
   -0.049997   30.36813  0.2199E-14  0.7958E-05  0.1233E-06  0.1787E-03  0.6917E-03  0.7584E+03
   -0.099994   30.37890  0.2199E-14  0.9641E-05  0.8546E-07  0.3946E-03  0.5090E-03  0.3078E+02
   -0.149992   30.38196  0.2199E-14  0.1070E-04  0.7191E-07  0.4780E-03  0.4493E-03  0.1512E+02
   -0.199991   30.38438  0.2199E-14  0.1153E-04  0.6395E-07  0.6361E-03  0.4013E-03  0.9742E+01
   -0.249989   30.38615  0.2199E-14  0.1219E-04  0.5874E-07  0.7599E-03  0.3653E-03  0.7196E+01
   -0.299988   30.38759  0.2199E-14  0.1272E-04  0.5503E-07  0.8831E-03  0.3353E-03  0.5740E+01
   -0.349988   30.38880  0.2199E-14  0.1317E-04  0.5224E-07  0.9946E-03  0.3095E-03  0.4908E+01
   -0.399988   30.38985  0.2199E-14  0.1355E-04  0.5008E-07  0.1097E-02  0.2868E-03  0.4384E+01
   -0.449988   30.39078  0.2199E-14  0.1388E-04  0.4832E-07  0.1191E-02  0.2668E-03  0.4111E+01
   -0.499988   30.39162  0.2199E-14  0.1416E-04  0.4687E-07  0.1279E-02  0.2490E-03  0.4010E+01
   -0.549989   30.39239  0.2199E-14  0.1440E-04  0.4566E-07  0.1358E-02  0.2332E-03  0.3950E+01
   -0.599990   30.39311  0.2199E-14  0.1462E-04  0.4465E-07  0.1431E-02  0.2188E-03  0.3964E+01
   -0.649991   30.39378  0.2199E-14  0.1480E-04  0.4379E-07  0.1496E-02  0.2058E-03  0.4005E+01
   -0.699992   30.39441  0.2199E-14  0.1496E-04  0.4307E-07  0.1553E-02  0.1937E-03  0.4110E+01
   -0.749993   30.39501  0.2199E-14  0.1509E-04  0.4247E-07  0.1603E-02  0.1826E-03  0.4236E+01
   -0.799995   30.39558  0.2199E-14  0.1520E-04  0.4198E-07  0.1646E-02  0.1723E-03  0.4430E+01
   -0.849996   30.39613  0.2199E-14  0.1528E-04  0.4159E-07  0.1681E-02  0.1627E-03  0.4648E+01
   -0.899998   30.39667  0.2199E-14  0.1535E-04  0.4129E-07  0.1708E-02  0.1536E-03  0.4945E+01
   -0.950000   30.39719  0.2199E-14  0.1539E-04  0.4109E-07  0.1727E-02  0.1451E-03  0.5282E+01
   -1.000001   30.39770  0.2199E-14  0.1542E-04  0.4098E-07  0.1738E-02  0.1370E-03  0.5721E+01
   -1.050003   30.39821  0.2199E-14  0.1542E-04  0.4097E-07  0.1739E-02  0.1294E-03  0.6472E+01
   -1.100005   30.39871  0.2199E-14  0.1540E-04  0.4106E-07  0.1822E-02  0.1221E-03  0.2160E+02
   -1.150006   30.39918  0.2199E-14  0.1537E-04  0.4128E-07  0.1662E-02  0.1156E-03  0.4836E+02
   -1.200008   30.39970  0.2199E-14  0.1530E-04  0.4162E-07  0.1684E-02  0.1089E-03  0.9329E+01
   -1.250009   30.40021  0.2199E-14  0.1522E-04  0.4211E-07  0.1655E-02  0.1024E-03  0.9981E+01
   -1.300011   30.40073  0.2199E-14  0.1511E-04  0.4280E-07  0.1607E-02  0.9624E-04  0.1164E+02
   -1.350012   30.40126  0.2199E-14  0.1496E-04  0.4374E-07  0.1549E-02  0.9022E-04  0.1395E+02
   -1.400013   30.40181  0.2199E-14  0.1479E-04  0.4499E-07  0.1474E-02  0.8438E-04  0.1714E+02
   -1.450014   30.40238  0.2199E-14  0.1457E-04  0.4668E-07  0.1398E-02  0.7864E-04  0.2182E+02
   -1.500014   30.40299  0.2199E-14  0.1430E-04  0.4900E-07  0.1288E-02  0.7301E-04  0.2936E+02
   -1.550015   30.40366  0.2199E-14  0.1397E-04  0.5226E-07  0.1203E-02  0.6736E-04  0.4147E+02
   -1.600015   30.40438  0.2199E-14  0.1357E-04  0.5718E-07  0.1062E-02  0.6183E-04  0.7193E+02
   -1.650015   30.40524  0.2199E-14  0.1305E-04  0.6470E-07  0.9812E-03  0.5596E-04  0.3111E+03
   -1.700014   30.40620  0.2199E-14  0.1234E-04  0.7829E-07  0.8045E-03  0.5026E-04  0.1943E+04
   -1.750013   30.40789  0.2199E-14  0.1136E-04  0.1009E-06  0.7217E-03  0.4273E-04  0.1049E+06
   -1.800012   30.40942  0.2199E-14  0.1003E-04  0.1488E-06  0.5068E-03  0.3663E-04  0.6207E+04
   -1.850010   30.41500  0.2199E-14  0.8512E-05  0.2369E-06  0.4582E-03  0.2640E-04  0.6003E+07
   -1.900008   30.41435  0.2199E-14  0.6709E-05  0.4972E-06  0.2074E-03  0.2131E-04  0.1151E+06
   -1.950005   30.43278  0.2199E-14  0.4683E-05  0.1248E-05  0.1834E-03  0.1147E-04 -0.1023E+07
   -2.000002   30.43452  0.2199E-14  0.0000E+00  0.0000E+00  0.0000E+00  0.2076E-04  0.0000E+00
