 1 - depth, m
 2 - temperature, C
 3 - salinity, kg/kg
 4 - turbulent kinetic energy, m**2/s**2
 5 - dissipation rate, m**2/s**3
 6 - kinematic heat conductance, m**2/s
 7 - modulus of horizontal velocity, m/s
 8 - Richardson number, n/d
   -0.000000   30.45050  0.1983E-14  0.4869E-05  0.3043E-06  0.5030E-04  0.1426E-02  0.6306E+04
   -0.049997   30.48146  0.1983E-14  0.8363E-05  0.1356E-06  0.1800E-03  0.8107E-03  0.1729E+03
   -0.099994   30.49317  0.1983E-14  0.1014E-04  0.9351E-07  0.4010E-03  0.5957E-03  0.2370E+02
   -0.149992   30.49644  0.1983E-14  0.1126E-04  0.7847E-07  0.4835E-03  0.5263E-03  0.1165E+02
   -0.199991   30.49904  0.1983E-14  0.1214E-04  0.6967E-07  0.6463E-03  0.4701E-03  0.7467E+01
   -0.249989   30.50093  0.1983E-14  0.1283E-04  0.6392E-07  0.7724E-03  0.4281E-03  0.5505E+01
   -0.299988   30.50246  0.1983E-14  0.1339E-04  0.5982E-07  0.8986E-03  0.3932E-03  0.4382E+01
   -0.349988   30.50375  0.1983E-14  0.1386E-04  0.5675E-07  0.1013E-02  0.3632E-03  0.3739E+01
   -0.399988   30.50487  0.1983E-14  0.1426E-04  0.5436E-07  0.1117E-02  0.3368E-03  0.3335E+01
   -0.449988   30.50586  0.1983E-14  0.1460E-04  0.5242E-07  0.1214E-02  0.3135E-03  0.3122E+01
   -0.499988   30.50676  0.1983E-14  0.1489E-04  0.5082E-07  0.1303E-02  0.2929E-03  0.3040E+01
   -0.549989   30.50757  0.1983E-14  0.1515E-04  0.4948E-07  0.1385E-02  0.2744E-03  0.2991E+01
   -0.599989   30.50833  0.1983E-14  0.1537E-04  0.4835E-07  0.1459E-02  0.2577E-03  0.2996E+01
   -0.649991   30.50904  0.1983E-14  0.1556E-04  0.4739E-07  0.1525E-02  0.2425E-03  0.3023E+01
   -0.699992   30.50970  0.1983E-14  0.1572E-04  0.4659E-07  0.1584E-02  0.2285E-03  0.3096E+01
   -0.749993   30.51034  0.1983E-14  0.1585E-04  0.4592E-07  0.1635E-02  0.2155E-03  0.3187E+01
   -0.799995   30.51094  0.1983E-14  0.1596E-04  0.4536E-07  0.1678E-02  0.2035E-03  0.3325E+01
   -0.849996   30.51152  0.1983E-14  0.1604E-04  0.4492E-07  0.1714E-02  0.1923E-03  0.3484E+01
   -0.899998   30.51209  0.1983E-14  0.1611E-04  0.4457E-07  0.1741E-02  0.1817E-03  0.3699E+01
   -0.949999   30.51264  0.1983E-14  0.1615E-04  0.4433E-07  0.1760E-02  0.1718E-03  0.3945E+01
   -1.000001   30.51318  0.1983E-14  0.1617E-04  0.4419E-07  0.1771E-02  0.1623E-03  0.4264E+01
   -1.050003   30.51371  0.1983E-14  0.1617E-04  0.4416E-07  0.1772E-02  0.1534E-03  0.4814E+01
   -1.100005   30.51424  0.1983E-14  0.1614E-04  0.4424E-07  0.1860E-02  0.1449E-03  0.1598E+02
   -1.150006   30.51474  0.1983E-14  0.1610E-04  0.4446E-07  0.1688E-02  0.1373E-03  0.3620E+02
   -1.200008   30.51528  0.1983E-14  0.1603E-04  0.4480E-07  0.1714E-02  0.1293E-03  0.6938E+01
   -1.250009   30.51582  0.1983E-14  0.1593E-04  0.4533E-07  0.1684E-02  0.1218E-03  0.7398E+01
   -1.300011   30.51636  0.1983E-14  0.1580E-04  0.4606E-07  0.1634E-02  0.1145E-03  0.8634E+01
   -1.350012   30.51692  0.1983E-14  0.1564E-04  0.4707E-07  0.1575E-02  0.1074E-03  0.1034E+02
   -1.400013   30.51749  0.1983E-14  0.1545E-04  0.4842E-07  0.1497E-02  0.1006E-03  0.1275E+02
   -1.450014   30.51810  0.1983E-14  0.1521E-04  0.5027E-07  0.1421E-02  0.9378E-04  0.1625E+02
   -1.500014   30.51873  0.1983E-14  0.1492E-04  0.5283E-07  0.1307E-02  0.8715E-04  0.2209E+02
   -1.550015   30.51943  0.1983E-14  0.1457E-04  0.5645E-07  0.1226E-02  0.8045E-04  0.3145E+02
   -1.600015   30.52019  0.1983E-14  0.1413E-04  0.6207E-07  0.1078E-02  0.7394E-04  0.6797E+02
   -1.650014   30.52113  0.1983E-14  0.1356E-04  0.7070E-07  0.9982E-03  0.6681E-04  0.3018E+05
   -1.700014   30.52214  0.1983E-14  0.1278E-04  0.8597E-07  0.8173E-03  0.6001E-04 -0.4564E+04
   -1.750013   30.52400  0.1983E-14  0.1175E-04  0.1115E-06  0.7344E-03  0.5085E-04  0.2735E+06
   -1.800012   30.52551  0.1983E-14  0.1037E-04  0.1675E-06  0.5248E-03  0.4368E-04  0.1681E+06
   -1.850010   30.53163  0.1983E-14  0.8841E-05  0.2684E-06  0.4682E-03  0.3154E-04  0.8382E+07
   -1.900008   30.53054  0.1983E-14  0.6969E-05  0.5643E-06  0.2146E-03  0.2559E-04 -0.1426E+05
   -1.950005   30.54965  0.1983E-14  0.4894E-05  0.1396E-05  0.1904E-03  0.1382E-04 -0.1026E+07
   -2.000002   30.55228  0.1983E-14  0.0000E+00  0.0000E+00  0.0000E+00  0.2527E-04  0.0000E+00
