 1 - depth, m
 2 - temperature, C
 3 - salinity, kg/kg
 4 - turbulent kinetic energy, m**2/s**2
 5 - dissipation rate, m**2/s**3
 6 - kinematic heat conductance, m**2/s
 7 - modulus of horizontal velocity, m/s
 8 - Richardson number, n/d
   -0.000000   30.71189  0.1712E-14  0.5174E-05  0.3354E-06  0.5287E-04  0.1914E-02  0.3730E+04
   -0.049997   30.74370  0.1712E-14  0.8740E-05  0.1494E-06  0.1777E-03  0.1108E-02  0.6639E+03
   -0.099994   30.75656  0.1712E-14  0.1062E-04  0.1019E-06  0.4064E-03  0.8084E-03  0.1337E+02
   -0.149992   30.76003  0.1712E-14  0.1179E-04  0.8525E-07  0.4851E-03  0.7147E-03  0.6548E+01
   -0.199991   30.76281  0.1712E-14  0.1270E-04  0.7551E-07  0.6521E-03  0.6382E-03  0.4173E+01
   -0.249989   30.76482  0.1712E-14  0.1342E-04  0.6915E-07  0.7796E-03  0.5813E-03  0.3075E+01
   -0.299988   30.76645  0.1712E-14  0.1401E-04  0.6463E-07  0.9081E-03  0.5339E-03  0.2439E+01
   -0.349988   30.76782  0.1712E-14  0.1450E-04  0.6124E-07  0.1024E-02  0.4934E-03  0.2083E+01
   -0.399988   30.76900  0.1712E-14  0.1491E-04  0.5861E-07  0.1130E-02  0.4576E-03  0.1852E+01
   -0.449988   30.77005  0.1712E-14  0.1526E-04  0.5646E-07  0.1229E-02  0.4261E-03  0.1736E+01
   -0.499988   30.77099  0.1712E-14  0.1556E-04  0.5469E-07  0.1319E-02  0.3983E-03  0.1686E+01
   -0.549989   30.77185  0.1712E-14  0.1582E-04  0.5321E-07  0.1402E-02  0.3733E-03  0.1662E+01
   -0.599989   30.77265  0.1712E-14  0.1604E-04  0.5196E-07  0.1477E-02  0.3508E-03  0.1659E+01
   -0.649990   30.77339  0.1712E-14  0.1623E-04  0.5089E-07  0.1544E-02  0.3302E-03  0.1679E+01
   -0.699992   30.77409  0.1712E-14  0.1639E-04  0.5000E-07  0.1603E-02  0.3112E-03  0.1713E+01
   -0.749993   30.77476  0.1712E-14  0.1652E-04  0.4924E-07  0.1655E-02  0.2937E-03  0.1769E+01
   -0.799994   30.77540  0.1712E-14  0.1663E-04  0.4861E-07  0.1698E-02  0.2774E-03  0.1839E+01
   -0.849996   30.77601  0.1712E-14  0.1671E-04  0.4810E-07  0.1733E-02  0.2622E-03  0.1933E+01
   -0.899997   30.77660  0.1712E-14  0.1677E-04  0.4771E-07  0.1761E-02  0.2479E-03  0.2045E+01
   -0.949999   30.77718  0.1712E-14  0.1680E-04  0.4742E-07  0.1779E-02  0.2344E-03  0.2190E+01
   -1.000001   30.77774  0.1712E-14  0.1681E-04  0.4725E-07  0.1789E-02  0.2217E-03  0.2360E+01
   -1.050003   30.77830  0.1712E-14  0.1680E-04  0.4719E-07  0.1789E-02  0.2096E-03  0.2673E+01
   -1.100004   30.77885  0.1712E-14  0.1676E-04  0.4725E-07  0.1885E-02  0.1980E-03  0.8774E+01
   -1.150006   30.77937  0.1712E-14  0.1670E-04  0.4747E-07  0.1692E-02  0.1877E-03  0.2040E+02
   -1.200007   30.77994  0.1712E-14  0.1662E-04  0.4782E-07  0.1725E-02  0.1769E-03  0.3877E+01
   -1.250009   30.78050  0.1712E-14  0.1650E-04  0.4838E-07  0.1694E-02  0.1666E-03  0.4124E+01
   -1.300010   30.78107  0.1712E-14  0.1636E-04  0.4916E-07  0.1641E-02  0.1567E-03  0.4841E+01
   -1.350011   30.78165  0.1712E-14  0.1618E-04  0.5025E-07  0.1580E-02  0.1471E-03  0.5809E+01
   -1.400012   30.78225  0.1712E-14  0.1596E-04  0.5173E-07  0.1498E-02  0.1377E-03  0.7228E+01
   -1.450013   30.78289  0.1712E-14  0.1569E-04  0.5377E-07  0.1419E-02  0.1285E-03  0.9268E+01
   -1.500014   30.78356  0.1712E-14  0.1537E-04  0.5664E-07  0.1302E-02  0.1194E-03  0.1280E+02
   -1.550014   30.78430  0.1712E-14  0.1497E-04  0.6073E-07  0.1220E-02  0.1102E-03  0.1853E+02
   -1.600014   30.78510  0.1712E-14  0.1448E-04  0.6713E-07  0.1071E-02  0.1012E-03  0.4154E+02
   -1.650014   30.78610  0.1712E-14  0.1385E-04  0.7710E-07  0.9935E-03  0.9142E-04  0.4290E+03
   -1.700013   30.78722  0.1712E-14  0.1297E-04  0.9494E-07  0.8056E-03  0.8185E-04 -0.5294E+03
   -1.750012   30.78933  0.1712E-14  0.1184E-04  0.1241E-06  0.7328E-03  0.6873E-04  0.7060E+05
   -1.800011   30.79086  0.1712E-14  0.1036E-04  0.1884E-06  0.4991E-03  0.5911E-04  0.1502E+05
   -1.850010   30.79824  0.1712E-14  0.8783E-05  0.3070E-06  0.4702E-03  0.4161E-04  0.6838E+07
   -1.900007   30.79610  0.1712E-14  0.6981E-05  0.6444E-06  0.2168E-03  0.3422E-04 -0.5722E+05
   -1.950005   30.81721  0.1712E-14  0.4929E-05  0.1577E-05  0.2028E-03  0.1829E-04 -0.3666E+06
   -2.000002   30.81813  0.1712E-14  0.0000E+00  0.0000E+00  0.0000E+00  0.3467E-04  0.0000E+00
