 1 - depth, m
 2 - temperature, C
 3 - salinity, kg/kg
 4 - turbulent kinetic energy, m**2/s**2
 5 - dissipation rate, m**2/s**3
 6 - kinematic heat conductance, m**2/s
 7 - modulus of horizontal velocity, m/s
 8 - Richardson number, n/d
   -0.000000   29.91414  0.8217E-13  0.4362E-05  0.2586E-06  0.4838E-04  0.1047E-02  0.1360E+05
   -0.049997   29.94193  0.8217E-13  0.7581E-05  0.1148E-06  0.1684E-03  0.5986E-03  0.5449E+02
   -0.099994   29.95296  0.8218E-13  0.9204E-05  0.7893E-07  0.3932E-03  0.4326E-03  0.4605E+02
   -0.149992   29.95588  0.8218E-13  0.1020E-04  0.6656E-07  0.4670E-03  0.3824E-03  0.2214E+02
   -0.199991   29.95823  0.8218E-13  0.1098E-04  0.5924E-07  0.6221E-03  0.3412E-03  0.1436E+02
   -0.249989   29.95995  0.8218E-13  0.1159E-04  0.5440E-07  0.7428E-03  0.3103E-03  0.1062E+02
   -0.299989   29.96134  0.8218E-13  0.1209E-04  0.5094E-07  0.8621E-03  0.2845E-03  0.8472E+01
   -0.349988   29.96251  0.8218E-13  0.1251E-04  0.4832E-07  0.9704E-03  0.2625E-03  0.7245E+01
   -0.399988   29.96353  0.8218E-13  0.1286E-04  0.4628E-07  0.1070E-02  0.2429E-03  0.6467E+01
   -0.449988   29.96443  0.8218E-13  0.1316E-04  0.4461E-07  0.1162E-02  0.2257E-03  0.6069E+01
   -0.499988   29.96524  0.8218E-13  0.1342E-04  0.4323E-07  0.1246E-02  0.2105E-03  0.5914E+01
   -0.549989   29.96598  0.8218E-13  0.1364E-04  0.4207E-07  0.1324E-02  0.1969E-03  0.5831E+01
   -0.599990   29.96666  0.8218E-13  0.1383E-04  0.4108E-07  0.1395E-02  0.1846E-03  0.5843E+01
   -0.649991   29.96730  0.8218E-13  0.1400E-04  0.4024E-07  0.1458E-02  0.1734E-03  0.5908E+01
   -0.699992   29.96791  0.8218E-13  0.1414E-04  0.3953E-07  0.1514E-02  0.1631E-03  0.6050E+01
   -0.749993   29.96848  0.8218E-13  0.1426E-04  0.3893E-07  0.1564E-02  0.1536E-03  0.6238E+01
   -0.799995   29.96902  0.8218E-13  0.1435E-04  0.3843E-07  0.1606E-02  0.1447E-03  0.6506E+01
   -0.849997   29.96954  0.8218E-13  0.1443E-04  0.3801E-07  0.1641E-02  0.1365E-03  0.6826E+01
   -0.899998   29.97005  0.8218E-13  0.1448E-04  0.3769E-07  0.1668E-02  0.1288E-03  0.7241E+01
   -0.950000   29.97054  0.8218E-13  0.1452E-04  0.3744E-07  0.1688E-02  0.1215E-03  0.7731E+01
   -1.000002   29.97102  0.8218E-13  0.1453E-04  0.3728E-07  0.1700E-02  0.1146E-03  0.8345E+01
   -1.050003   29.97150  0.8218E-13  0.1453E-04  0.3721E-07  0.1703E-02  0.1081E-03  0.9436E+01
   -1.100005   29.97197  0.8218E-13  0.1451E-04  0.3722E-07  0.1777E-02  0.1019E-03  0.3169E+02
   -1.150007   29.97241  0.8218E-13  0.1447E-04  0.3735E-07  0.1641E-02  0.9638E-04  0.6912E+02
   -1.200008   29.97289  0.8218E-13  0.1441E-04  0.3758E-07  0.1657E-02  0.9071E-04  0.1346E+02
   -1.250010   29.97336  0.8218E-13  0.1433E-04  0.3795E-07  0.1629E-02  0.8526E-04  0.1433E+02
   -1.300011   29.97383  0.8218E-13  0.1422E-04  0.3848E-07  0.1585E-02  0.8003E-04  0.1664E+02
   -1.350012   29.97432  0.8218E-13  0.1408E-04  0.3922E-07  0.1531E-02  0.7496E-04  0.1978E+02
   -1.400013   29.97482  0.8218E-13  0.1392E-04  0.4022E-07  0.1462E-02  0.7004E-04  0.2413E+02
   -1.450014   29.97534  0.8218E-13  0.1372E-04  0.4157E-07  0.1389E-02  0.6522E-04  0.3037E+02
   -1.500015   29.97588  0.8218E-13  0.1348E-04  0.4344E-07  0.1287E-02  0.6052E-04  0.4020E+02
   -1.550015   29.97647  0.8218E-13  0.1319E-04  0.4607E-07  0.1203E-02  0.5582E-04  0.5569E+02
   -1.600015   29.97711  0.8218E-13  0.1283E-04  0.4997E-07  0.1066E-02  0.5122E-04  0.8949E+02
   -1.650015   29.97785  0.8218E-13  0.1237E-04  0.5592E-07  0.9878E-03  0.4640E-04  0.8477E+03
   -1.700015   29.97867  0.8218E-13  0.1175E-04  0.6666E-07  0.8137E-03  0.4174E-04 -0.1053E+05
   -1.750014   29.98004  0.8218E-13  0.1091E-04  0.8461E-07  0.7339E-03  0.3575E-04  0.5342E+05
   -1.800013   29.98137  0.8218E-13  0.9711E-05  0.1213E-06  0.5194E-03  0.3071E-04  0.7070E+06
   -1.850011   29.98567  0.8218E-13  0.8287E-05  0.1899E-06  0.4681E-03  0.2251E-04  0.1547E+08
   -1.900009   29.98566  0.8218E-13  0.6591E-05  0.3907E-06  0.2149E-03  0.1812E-04  0.3263E+06
   -1.950006   30.00057  0.8218E-13  0.4516E-05  0.1019E-05  0.1652E-03  0.9994E-05 -0.3068E+07
   -2.000003   30.00360  0.8218E-13  0.0000E+00  0.0000E+00  0.0000E+00  0.1723E-04  0.0000E+00
