 1 - depth, m
 2 - temperature, C
 3 - salinity, kg/kg
 4 - turbulent kinetic energy, m**2/s**2
 5 - dissipation rate, m**2/s**3
 6 - kinematic heat conductance, m**2/s
 7 - modulus of horizontal velocity, m/s
 8 - Richardson number, n/d
   -0.000000   30.31568  0.6559E-13  0.5064E-05  0.2893E-06  0.5053E-04  0.2862E-02  0.2304E+04
   -0.049997   30.34514  0.6559E-13  0.8340E-05  0.1264E-06  0.1950E-03  0.1542E-02  0.2126E+02
   -0.099994   30.35444  0.6559E-13  0.9887E-05  0.8921E-07  0.3851E-03  0.1190E-02  0.5931E+01
   -0.149992   30.35763  0.6559E-13  0.1090E-04  0.7499E-07  0.4806E-03  0.1054E-02  0.3041E+01
   -0.199991   30.36008  0.6559E-13  0.1169E-04  0.6667E-07  0.6255E-03  0.9474E-03  0.1992E+01
   -0.249989   30.36191  0.6559E-13  0.1233E-04  0.6122E-07  0.7435E-03  0.8658E-03  0.1497E+01
   -0.299988   30.36340  0.6559E-13  0.1286E-04  0.5733E-07  0.8522E-03  0.7976E-03  0.1264E+01
   -0.349988   30.36467  0.6559E-13  0.1332E-04  0.5432E-07  0.9581E-03  0.7372E-03  0.1242E+01
   -0.399988   30.36578  0.6559E-13  0.1373E-04  0.5184E-07  0.1072E-02  0.6801E-03  0.1254E+01
   -0.449988   30.36675  0.6559E-13  0.1411E-04  0.4976E-07  0.1187E-02  0.6270E-03  0.1266E+01
   -0.499988   30.36760  0.6559E-13  0.1445E-04  0.4801E-07  0.1294E-02  0.5789E-03  0.1273E+01
   -0.549989   30.36837  0.6559E-13  0.1474E-04  0.4655E-07  0.1393E-02  0.5355E-03  0.1272E+01
   -0.599990   30.36908  0.6559E-13  0.1499E-04  0.4533E-07  0.1482E-02  0.4964E-03  0.1266E+01
   -0.649991   30.36973  0.6559E-13  0.1520E-04  0.4432E-07  0.1562E-02  0.4610E-03  0.1256E+01
   -0.699992   30.37033  0.6559E-13  0.1538E-04  0.4349E-07  0.1631E-02  0.4291E-03  0.1242E+01
   -0.749993   30.37091  0.6559E-13  0.1552E-04  0.4283E-07  0.1688E-02  0.4003E-03  0.1226E+01
   -0.799995   30.37146  0.6559E-13  0.1563E-04  0.4230E-07  0.1734E-02  0.3742E-03  0.1205E+01
   -0.849996   30.37199  0.6559E-13  0.1571E-04  0.4191E-07  0.1768E-02  0.3507E-03  0.1187E+01
   -0.899998   30.37250  0.6559E-13  0.1577E-04  0.4163E-07  0.1792E-02  0.3294E-03  0.1174E+01
   -0.949999   30.37300  0.6559E-13  0.1580E-04  0.4146E-07  0.1805E-02  0.3101E-03  0.1180E+01
   -1.000001   30.37349  0.6559E-13  0.1581E-04  0.4138E-07  0.1810E-02  0.2925E-03  0.1213E+01
   -1.050003   30.37398  0.6559E-13  0.1579E-04  0.4141E-07  0.1805E-02  0.2762E-03  0.1333E+01
   -1.100005   30.37446  0.6559E-13  0.1576E-04  0.4155E-07  0.1912E-02  0.2609E-03  0.4306E+01
   -1.150006   30.37492  0.6559E-13  0.1571E-04  0.4181E-07  0.1689E-02  0.2475E-03  0.1016E+02
   -1.200008   30.37543  0.6559E-13  0.1563E-04  0.4220E-07  0.1732E-02  0.2332E-03  0.1925E+01
   -1.250009   30.37593  0.6559E-13  0.1553E-04  0.4275E-07  0.1700E-02  0.2197E-03  0.2051E+01
   -1.300011   30.37643  0.6559E-13  0.1540E-04  0.4351E-07  0.1646E-02  0.2067E-03  0.2409E+01
   -1.350012   30.37695  0.6559E-13  0.1524E-04  0.4452E-07  0.1583E-02  0.1940E-03  0.2888E+01
   -1.400013   30.37749  0.6559E-13  0.1505E-04  0.4588E-07  0.1501E-02  0.1816E-03  0.3586E+01
   -1.450014   30.37805  0.6559E-13  0.1481E-04  0.4772E-07  0.1422E-02  0.1694E-03  0.4577E+01
   -1.500014   30.37865  0.6559E-13  0.1452E-04  0.5025E-07  0.1304E-02  0.1575E-03  0.6262E+01
   -1.550015   30.37932  0.6559E-13  0.1417E-04  0.5382E-07  0.1222E-02  0.1454E-03  0.8914E+01
   -1.600015   30.38003  0.6559E-13  0.1373E-04  0.5929E-07  0.1071E-02  0.1336E-03  0.1671E+02
   -1.650015   30.38090  0.6559E-13  0.1317E-04  0.6771E-07  0.9960E-03  0.1208E-03  0.4624E+02
   -1.700014   30.38189  0.6559E-13  0.1239E-04  0.8290E-07  0.8074E-03  0.1084E-03 -0.3082E+03
   -1.750013   30.38370  0.6559E-13  0.1136E-04  0.1078E-06  0.7304E-03  0.9143E-04  0.1452E+04
   -1.800012   30.38516  0.6559E-13  0.9975E-05  0.1602E-06  0.5042E-03  0.7851E-04  0.1626E+05
   -1.850010   30.39126  0.6559E-13  0.8455E-05  0.2580E-06  0.4639E-03  0.5576E-04  0.1021E+08
   -1.900008   30.39004  0.6559E-13  0.6700E-05  0.5412E-06  0.2126E-03  0.4551E-04 -0.1755E+05
   -1.950005   30.40907  0.6559E-13  0.4706E-05  0.1348E-05  0.1915E-03  0.2443E-04 -0.1858E+06
   -2.000002   30.41068  0.6559E-13  0.0000E+00  0.0000E+00  0.0000E+00  0.4540E-04  0.0000E+00
