 1 - depth, m
 2 - temperature, C
 3 - salinity, kg/kg
 4 - turbulent kinetic energy, m**2/s**2
 5 - dissipation rate, m**2/s**3
 6 - kinematic heat conductance, m**2/s
 7 - modulus of horizontal velocity, m/s
 8 - Richardson number, n/d
   -0.000000   31.47177  0.1393E-14  0.5331E-05  0.3525E-06  0.5264E-04  0.6004E-03  0.2182E+05
   -0.049997   31.50654  0.1393E-14  0.9326E-05  0.1564E-06  0.1909E-03  0.3442E-03  0.8320E+03
   -0.099994   31.51915  0.1393E-14  0.1129E-04  0.1080E-06  0.4319E-03  0.2518E-03  0.1524E+03
   -0.149992   31.52265  0.1393E-14  0.1251E-04  0.9098E-07  0.5072E-03  0.2237E-03  0.7578E+02
   -0.199990   31.52549  0.1393E-14  0.1347E-04  0.8097E-07  0.6815E-03  0.2004E-03  0.4942E+02
   -0.249989   31.52755  0.1393E-14  0.1423E-04  0.7439E-07  0.8119E-03  0.1830E-03  0.3675E+02
   -0.299988   31.52923  0.1393E-14  0.1485E-04  0.6969E-07  0.9431E-03  0.1685E-03  0.2944E+02
   -0.349988   31.53063  0.1393E-14  0.1535E-04  0.6616E-07  0.1061E-02  0.1561E-03  0.2515E+02
   -0.399987   31.53185  0.1393E-14  0.1578E-04  0.6342E-07  0.1169E-02  0.1450E-03  0.2250E+02
   -0.449987   31.53294  0.1393E-14  0.1615E-04  0.6119E-07  0.1269E-02  0.1353E-03  0.2105E+02
   -0.499988   31.53392  0.1393E-14  0.1646E-04  0.5934E-07  0.1360E-02  0.1267E-03  0.2054E+02
   -0.549988   31.53481  0.1393E-14  0.1673E-04  0.5780E-07  0.1443E-02  0.1190E-03  0.2017E+02
   -0.599989   31.53564  0.1393E-14  0.1697E-04  0.5650E-07  0.1517E-02  0.1120E-03  0.2026E+02
   -0.649990   31.53642  0.1393E-14  0.1716E-04  0.5541E-07  0.1584E-02  0.1056E-03  0.2042E+02
   -0.699991   31.53715  0.1393E-14  0.1733E-04  0.5450E-07  0.1642E-02  0.9964E-04  0.2099E+02
   -0.749992   31.53784  0.1393E-14  0.1746E-04  0.5373E-07  0.1692E-02  0.9418E-04  0.2159E+02
   -0.799994   31.53851  0.1393E-14  0.1757E-04  0.5311E-07  0.1733E-02  0.8907E-04  0.2264E+02
   -0.849995   31.53915  0.1393E-14  0.1765E-04  0.5262E-07  0.1766E-02  0.8431E-04  0.2372E+02
   -0.899997   31.53978  0.1393E-14  0.1770E-04  0.5225E-07  0.1790E-02  0.7981E-04  0.2535E+02
   -0.949998   31.54039  0.1393E-14  0.1773E-04  0.5201E-07  0.1805E-02  0.7557E-04  0.2708E+02
   -1.000000   31.54099  0.1393E-14  0.1773E-04  0.5189E-07  0.1811E-02  0.7153E-04  0.2952E+02
   -1.050002   31.54158  0.1393E-14  0.1771E-04  0.5191E-07  0.1806E-02  0.6771E-04  0.3339E+02
   -1.100003   31.54217  0.1393E-14  0.1766E-04  0.5208E-07  0.1923E-02  0.6403E-04  0.1075E+03
   -1.150005   31.54272  0.1393E-14  0.1759E-04  0.5243E-07  0.1671E-02  0.6081E-04  0.2754E+03
   -1.200006   31.54335  0.1393E-14  0.1748E-04  0.5296E-07  0.1720E-02  0.5731E-04  0.5020E+02
   -1.250008   31.54396  0.1393E-14  0.1734E-04  0.5372E-07  0.1686E-02  0.5401E-04  0.5403E+02
   -1.300009   31.54458  0.1393E-14  0.1717E-04  0.5479E-07  0.1625E-02  0.5085E-04  0.6412E+02
   -1.350010   31.54522  0.1393E-14  0.1695E-04  0.5625E-07  0.1558E-02  0.4774E-04  0.7895E+02
   -1.400011   31.54588  0.1393E-14  0.1669E-04  0.5825E-07  0.1464E-02  0.4472E-04  0.1008E+03
   -1.450012   31.54660  0.1393E-14  0.1637E-04  0.6102E-07  0.1386E-02  0.4170E-04  0.1343E+03
   -1.500013   31.54736  0.1393E-14  0.1598E-04  0.6497E-07  0.1255E-02  0.3875E-04  0.1966E+03
   -1.550013   31.54823  0.1393E-14  0.1550E-04  0.7071E-07  0.1186E-02  0.3570E-04  0.3318E+03
   -1.600013   31.54916  0.1393E-14  0.1489E-04  0.8018E-07  0.1022E-02  0.3276E-04  0.5337E+03
   -1.650013   31.55050  0.1393E-14  0.1407E-04  0.9475E-07  0.9538E-03  0.2929E-04  0.8872E+04
   -1.700012   31.55192  0.1393E-14  0.1296E-04  0.1208E-06  0.7549E-03  0.2601E-04  0.2480E+05
   -1.750011   31.55491  0.1393E-14  0.1163E-04  0.1630E-06  0.6944E-03  0.2118E-04  0.1076E+07
   -1.800010   31.55627  0.1393E-14  0.1005E-04  0.2561E-06  0.4650E-03  0.1834E-04 -0.1190E+07
   -1.850008   31.56766  0.1393E-14  0.8455E-05  0.4344E-06  0.4540E-03  0.1217E-04  0.3905E+10
   -1.900006   31.56201  0.1393E-14  0.6764E-05  0.9124E-06  0.2124E-03  0.1023E-04 -0.2362E+07
   -1.950003   31.58920  0.1393E-14  0.4890E-05  0.2143E-05  0.2321E-03  0.5285E-05 -0.2079E+07
   -2.000000   31.58896  0.1393E-14  0.0000E+00  0.0000E+00  0.0000E+00  0.1119E-04  0.0000E+00
