 1 - depth, m
 2 - temperature, C
 3 - salinity, kg/kg
 4 - turbulent kinetic energy, m**2/s**2
 5 - dissipation rate, m**2/s**3
 6 - kinematic heat conductance, m**2/s
 7 - modulus of horizontal velocity, m/s
 8 - Richardson number, n/d
   -0.000000   30.74975  0.1158E-12  0.5231E-05  0.3378E-06  0.5302E-04  0.1974E-02  0.4113E+04
   -0.049997   30.78224  0.1158E-12  0.8803E-05  0.1505E-06  0.1795E-03  0.1133E-02  0.1419E+03
   -0.099994   30.79496  0.1158E-12  0.1066E-04  0.1029E-06  0.4034E-03  0.8332E-03  0.1315E+02
   -0.149992   30.79850  0.1158E-12  0.1183E-04  0.8600E-07  0.4845E-03  0.7361E-03  0.6443E+01
   -0.199990   30.80132  0.1158E-12  0.1273E-04  0.7611E-07  0.6498E-03  0.6574E-03  0.4104E+01
   -0.249989   30.80335  0.1158E-12  0.1345E-04  0.6965E-07  0.7773E-03  0.5987E-03  0.3018E+01
   -0.299988   30.80500  0.1158E-12  0.1403E-04  0.6504E-07  0.9051E-03  0.5499E-03  0.2391E+01
   -0.349988   30.80638  0.1158E-12  0.1451E-04  0.6159E-07  0.1021E-02  0.5081E-03  0.2039E+01
   -0.399987   30.80757  0.1158E-12  0.1492E-04  0.5890E-07  0.1126E-02  0.4712E-03  0.1810E+01
   -0.449987   30.80862  0.1158E-12  0.1526E-04  0.5671E-07  0.1224E-02  0.4388E-03  0.1698E+01
   -0.499988   30.80957  0.1158E-12  0.1556E-04  0.5490E-07  0.1315E-02  0.4100E-03  0.1648E+01
   -0.549988   30.81043  0.1158E-12  0.1582E-04  0.5338E-07  0.1398E-02  0.3842E-03  0.1625E+01
   -0.599989   30.81123  0.1158E-12  0.1604E-04  0.5210E-07  0.1473E-02  0.3609E-03  0.1620E+01
   -0.649990   30.81197  0.1158E-12  0.1623E-04  0.5101E-07  0.1540E-02  0.3396E-03  0.1637E+01
   -0.699991   30.81267  0.1158E-12  0.1638E-04  0.5009E-07  0.1600E-02  0.3200E-03  0.1666E+01
   -0.749992   30.81334  0.1158E-12  0.1651E-04  0.4932E-07  0.1651E-02  0.3019E-03  0.1717E+01
   -0.799994   30.81397  0.1158E-12  0.1662E-04  0.4868E-07  0.1695E-02  0.2852E-03  0.1782E+01
   -0.849995   30.81458  0.1158E-12  0.1670E-04  0.4816E-07  0.1730E-02  0.2695E-03  0.1871E+01
   -0.899997   30.81517  0.1158E-12  0.1675E-04  0.4776E-07  0.1757E-02  0.2548E-03  0.1979E+01
   -0.949999   30.81575  0.1158E-12  0.1679E-04  0.4747E-07  0.1775E-02  0.2409E-03  0.2118E+01
   -1.000000   30.81631  0.1158E-12  0.1680E-04  0.4729E-07  0.1786E-02  0.2278E-03  0.2283E+01
   -1.050002   30.81686  0.1158E-12  0.1679E-04  0.4723E-07  0.1786E-02  0.2153E-03  0.2585E+01
   -1.100004   30.81741  0.1158E-12  0.1675E-04  0.4730E-07  0.1880E-02  0.2034E-03  0.8483E+01
   -1.150005   30.81793  0.1158E-12  0.1670E-04  0.4753E-07  0.1690E-02  0.1929E-03  0.1981E+02
   -1.200007   30.81851  0.1158E-12  0.1661E-04  0.4789E-07  0.1722E-02  0.1818E-03  0.3757E+01
   -1.250008   30.81907  0.1158E-12  0.1650E-04  0.4846E-07  0.1691E-02  0.1712E-03  0.3992E+01
   -1.300009   30.81963  0.1158E-12  0.1636E-04  0.4926E-07  0.1639E-02  0.1610E-03  0.4690E+01
   -1.350011   30.82021  0.1158E-12  0.1618E-04  0.5036E-07  0.1577E-02  0.1511E-03  0.5627E+01
   -1.400011   30.82082  0.1158E-12  0.1597E-04  0.5187E-07  0.1496E-02  0.1415E-03  0.7004E+01
   -1.450012   30.82145  0.1158E-12  0.1571E-04  0.5394E-07  0.1417E-02  0.1320E-03  0.8995E+01
   -1.500013   30.82213  0.1158E-12  0.1539E-04  0.5683E-07  0.1301E-02  0.1227E-03  0.1241E+02
   -1.550013   30.82287  0.1158E-12  0.1500E-04  0.6098E-07  0.1219E-02  0.1132E-03  0.1815E+02
   -1.600013   30.82367  0.1158E-12  0.1451E-04  0.6745E-07  0.1071E-02  0.1040E-03  0.4458E+03
   -1.650013   30.82468  0.1158E-12  0.1388E-04  0.7760E-07  0.9935E-03  0.9391E-04  0.1059E+03
   -1.700012   30.82583  0.1158E-12  0.1300E-04  0.9584E-07  0.8039E-03  0.8396E-04 -0.4517E+04
   -1.750011   30.82790  0.1158E-12  0.1189E-04  0.1248E-06  0.7337E-03  0.7062E-04  0.1191E+06
   -1.800010   30.82939  0.1158E-12  0.1043E-04  0.1873E-06  0.4967E-03  0.6095E-04 -0.1810E+04
   -1.850008   30.83683  0.1158E-12  0.8857E-05  0.3065E-06  0.4729E-03  0.4278E-04  0.3174E+07
   -1.900006   30.83473  0.1158E-12  0.7073E-05  0.6383E-06  0.2174E-03  0.3530E-04  0.3861E+06
   -1.950004   30.85634  0.1158E-12  0.4990E-05  0.1576E-05  0.2008E-03  0.1898E-04  0.1177E+06
   -2.000000   30.85795  0.1158E-12  0.0000E+00  0.0000E+00  0.0000E+00  0.3557E-04  0.0000E+00
