 1 - depth, m
 2 - temperature, C
 3 - salinity, kg/kg
 4 - turbulent kinetic energy, m**2/s**2
 5 - dissipation rate, m**2/s**3
 6 - kinematic heat conductance, m**2/s
 7 - modulus of horizontal velocity, m/s
 8 - Richardson number, n/d
   -0.000000   30.69071  0.1048E-12  0.4673E-05  0.2852E-06  0.4880E-04  0.6394E-03  0.6778E+05
   -0.049997   30.72148  0.1048E-12  0.8214E-05  0.1266E-06  0.1810E-03  0.3618E-03  0.5706E+03
   -0.099994   30.73246  0.1048E-12  0.9931E-05  0.8772E-07  0.4092E-03  0.2638E-03  0.1357E+03
   -0.149992   30.73553  0.1048E-12  0.1100E-04  0.7408E-07  0.4857E-03  0.2337E-03  0.6658E+02
   -0.199991   30.73801  0.1048E-12  0.1183E-04  0.6599E-07  0.6474E-03  0.2089E-03  0.4359E+02
   -0.249989   30.73981  0.1048E-12  0.1249E-04  0.6065E-07  0.7722E-03  0.1904E-03  0.3227E+02
   -0.299988   30.74127  0.1048E-12  0.1304E-04  0.5683E-07  0.8958E-03  0.1749E-03  0.2587E+02
   -0.349988   30.74250  0.1048E-12  0.1348E-04  0.5395E-07  0.1008E-02  0.1616E-03  0.2203E+02
   -0.399988   30.74357  0.1048E-12  0.1386E-04  0.5170E-07  0.1110E-02  0.1498E-03  0.1973E+02
   -0.449988   30.74451  0.1048E-12  0.1418E-04  0.4987E-07  0.1206E-02  0.1394E-03  0.1839E+02
   -0.499988   30.74537  0.1048E-12  0.1447E-04  0.4835E-07  0.1293E-02  0.1302E-03  0.1798E+02
   -0.549989   30.74615  0.1048E-12  0.1471E-04  0.4708E-07  0.1373E-02  0.1220E-03  0.1759E+02
   -0.599989   30.74687  0.1048E-12  0.1492E-04  0.4601E-07  0.1446E-02  0.1146E-03  0.1770E+02
   -0.649990   30.74754  0.1048E-12  0.1510E-04  0.4511E-07  0.1511E-02  0.1078E-03  0.1776E+02
   -0.699992   30.74817  0.1048E-12  0.1525E-04  0.4435E-07  0.1568E-02  0.1015E-03  0.1827E+02
   -0.749993   30.74877  0.1048E-12  0.1538E-04  0.4371E-07  0.1619E-02  0.9576E-04  0.1870E+02
   -0.799994   30.74935  0.1048E-12  0.1549E-04  0.4319E-07  0.1661E-02  0.9038E-04  0.1962E+02
   -0.849996   30.74991  0.1048E-12  0.1557E-04  0.4277E-07  0.1696E-02  0.8537E-04  0.2043E+02
   -0.899998   30.75044  0.1048E-12  0.1563E-04  0.4245E-07  0.1723E-02  0.8065E-04  0.2182E+02
   -0.949999   30.75097  0.1048E-12  0.1567E-04  0.4223E-07  0.1742E-02  0.7622E-04  0.2314E+02
   -1.000001   30.75148  0.1048E-12  0.1570E-04  0.4210E-07  0.1753E-02  0.7201E-04  0.2518E+02
   -1.050003   30.75199  0.1048E-12  0.1570E-04  0.4208E-07  0.1755E-02  0.6803E-04  0.2825E+02
   -1.100004   30.75249  0.1048E-12  0.1568E-04  0.4217E-07  0.1839E-02  0.6421E-04  0.9463E+02
   -1.150006   30.75296  0.1048E-12  0.1564E-04  0.4238E-07  0.1676E-02  0.6082E-04  0.2137E+03
   -1.200008   30.75349  0.1048E-12  0.1557E-04  0.4273E-07  0.1699E-02  0.5730E-04  0.4071E+02
   -1.250009   30.75400  0.1048E-12  0.1548E-04  0.4323E-07  0.1669E-02  0.5393E-04  0.4381E+02
   -1.300010   30.75452  0.1048E-12  0.1537E-04  0.4394E-07  0.1621E-02  0.5069E-04  0.5070E+02
   -1.350012   30.75505  0.1048E-12  0.1522E-04  0.4490E-07  0.1563E-02  0.4754E-04  0.6130E+02
   -1.400013   30.75560  0.1048E-12  0.1504E-04  0.4620E-07  0.1488E-02  0.4448E-04  0.7497E+02
   -1.450013   30.75618  0.1048E-12  0.1482E-04  0.4794E-07  0.1411E-02  0.4147E-04  0.9639E+02
   -1.500014   30.75679  0.1048E-12  0.1455E-04  0.5036E-07  0.1302E-02  0.3852E-04  0.1299E+03
   -1.550014   30.75746  0.1048E-12  0.1422E-04  0.5376E-07  0.1217E-02  0.3556E-04  0.1864E+03
   -1.600014   30.75819  0.1048E-12  0.1380E-04  0.5893E-07  0.1076E-02  0.3265E-04  0.3556E+03
   -1.650014   30.75907  0.1048E-12  0.1327E-04  0.6692E-07  0.9925E-03  0.2955E-04  0.9056E+03
   -1.700014   30.76007  0.1048E-12  0.1254E-04  0.8102E-07  0.8154E-03  0.2649E-04  0.1015E+05
   -1.750013   30.76178  0.1048E-12  0.1156E-04  0.1043E-06  0.7320E-03  0.2256E-04  0.2100E+06
   -1.800011   30.76331  0.1048E-12  0.1024E-04  0.1546E-06  0.5132E-03  0.1933E-04  0.3048E+06
   -1.850010   30.76915  0.1048E-12  0.8753E-05  0.2470E-06  0.4682E-03  0.1403E-04  0.7344E+09
   -1.900008   30.76817  0.1048E-12  0.6984E-05  0.5196E-06  0.2167E-03  0.1139E-04 -0.5290E+06
   -1.950005   30.78676  0.1048E-12  0.4864E-05  0.1297E-05  0.1827E-03  0.6240E-05 -0.6481E+07
   -2.000002   30.78971  0.1048E-12  0.0000E+00  0.0000E+00  0.0000E+00  0.1114E-04  0.0000E+00
