 1 - depth, m
 2 - temperature, C
 3 - salinity, kg/kg
 4 - turbulent kinetic energy, m**2/s**2
 5 - dissipation rate, m**2/s**3
 6 - kinematic heat conductance, m**2/s
 7 - modulus of horizontal velocity, m/s
 8 - Richardson number, n/d
   -0.000000   30.99688  0.5103E-13  0.5053E-05  0.3211E-06  0.5053E-04  0.6227E-03  0.5598E+05
   -0.049997   31.03069  0.5103E-13  0.8854E-05  0.1428E-06  0.1880E-03  0.3541E-03  0.1122E+06
   -0.099994   31.04251  0.5103E-13  0.1069E-04  0.9898E-07  0.4192E-03  0.2584E-03  0.2019E+03
   -0.149992   31.04589  0.5103E-13  0.1184E-04  0.8345E-07  0.4970E-03  0.2290E-03  0.1016E+03
   -0.199991   31.04861  0.5103E-13  0.1273E-04  0.7425E-07  0.6640E-03  0.2048E-03  0.6653E+02
   -0.249989   31.05059  0.5103E-13  0.1344E-04  0.6816E-07  0.7918E-03  0.1866E-03  0.4997E+02
   -0.299988   31.05220  0.5103E-13  0.1401E-04  0.6379E-07  0.9189E-03  0.1716E-03  0.3976E+02
   -0.349988   31.05354  0.5103E-13  0.1448E-04  0.6049E-07  0.1034E-02  0.1586E-03  0.3437E+02
   -0.399988   31.05471  0.5103E-13  0.1487E-04  0.5790E-07  0.1139E-02  0.1471E-03  0.3041E+02
   -0.449988   31.05574  0.5103E-13  0.1521E-04  0.5579E-07  0.1236E-02  0.1370E-03  0.2885E+02
   -0.499988   31.05667  0.5103E-13  0.1550E-04  0.5402E-07  0.1326E-02  0.1281E-03  0.2776E+02
   -0.549989   31.05752  0.5103E-13  0.1575E-04  0.5254E-07  0.1407E-02  0.1201E-03  0.2770E+02
   -0.599989   31.05830  0.5103E-13  0.1596E-04  0.5127E-07  0.1481E-02  0.1128E-03  0.2733E+02
   -0.649990   31.05904  0.5103E-13  0.1614E-04  0.5019E-07  0.1548E-02  0.1062E-03  0.2800E+02
   -0.699991   31.05972  0.5103E-13  0.1628E-04  0.4927E-07  0.1606E-02  0.1001E-03  0.2818E+02
   -0.749993   31.06038  0.5103E-13  0.1640E-04  0.4848E-07  0.1657E-02  0.9441E-04  0.2946E+02
   -0.799994   31.06100  0.5103E-13  0.1649E-04  0.4781E-07  0.1700E-02  0.8918E-04  0.3017E+02
   -0.849996   31.06160  0.5103E-13  0.1656E-04  0.4726E-07  0.1734E-02  0.8425E-04  0.3212E+02
   -0.899997   31.06218  0.5103E-13  0.1661E-04  0.4682E-07  0.1761E-02  0.7966E-04  0.3342E+02
   -0.949999   31.06274  0.5103E-13  0.1663E-04  0.4648E-07  0.1779E-02  0.7530E-04  0.3623E+02
   -1.000001   31.06328  0.5103E-13  0.1663E-04  0.4625E-07  0.1790E-02  0.7119E-04  0.3836E+02
   -1.050003   31.06382  0.5103E-13  0.1660E-04  0.4613E-07  0.1789E-02  0.6727E-04  0.4393E+02
   -1.100004   31.06436  0.5103E-13  0.1656E-04  0.4613E-07  0.1885E-02  0.6355E-04  0.1420E+03
   -1.150006   31.06485  0.5103E-13  0.1649E-04  0.4628E-07  0.1692E-02  0.6024E-04  0.3285E+03
   -1.200007   31.06541  0.5103E-13  0.1639E-04  0.4656E-07  0.1726E-02  0.5676E-04  0.6305E+02
   -1.250009   31.06594  0.5103E-13  0.1627E-04  0.4702E-07  0.1695E-02  0.5346E-04  0.6587E+02
   -1.300010   31.06648  0.5103E-13  0.1612E-04  0.4771E-07  0.1644E-02  0.5026E-04  0.7793E+02
   -1.350011   31.06703  0.5103E-13  0.1593E-04  0.4868E-07  0.1582E-02  0.4717E-04  0.9192E+02
   -1.400012   31.06760  0.5103E-13  0.1571E-04  0.5003E-07  0.1503E-02  0.4415E-04  0.1148E+03
   -1.450013   31.06820  0.5103E-13  0.1544E-04  0.5191E-07  0.1423E-02  0.4118E-04  0.1452E+03
   -1.500014   31.06883  0.5103E-13  0.1511E-04  0.5457E-07  0.1311E-02  0.3826E-04  0.2000E+03
   -1.550014   31.06951  0.5103E-13  0.1472E-04  0.5841E-07  0.1225E-02  0.3533E-04  0.2890E+03
   -1.600014   31.07026  0.5103E-13  0.1423E-04  0.6447E-07  0.1083E-02  0.3244E-04  0.7664E+03
   -1.650014   31.07118  0.5103E-13  0.1360E-04  0.7404E-07  0.9960E-03  0.2930E-04  0.2856E+04
   -1.700013   31.07226  0.5103E-13  0.1274E-04  0.9073E-07  0.8206E-03  0.2615E-04  0.5843E+05
   -1.750012   31.07409  0.5103E-13  0.1166E-04  0.1178E-06  0.7354E-03  0.2209E-04  0.1709E+07
   -1.800011   31.07549  0.5103E-13  0.1024E-04  0.1767E-06  0.5145E-03  0.1898E-04  0.1494E+06
   -1.850009   31.08196  0.5103E-13  0.8707E-05  0.2878E-06  0.4746E-03  0.1348E-04  0.1585E+10
   -1.900007   31.08025  0.5103E-13  0.6906E-05  0.6025E-06  0.2202E-03  0.1103E-04  0.3185E+07
   -1.950005   31.09882  0.5103E-13  0.4841E-05  0.1484E-05  0.1962E-03  0.5932E-05 -0.2189E+07
   -2.000002   31.10113  0.5103E-13  0.0000E+00  0.0000E+00  0.0000E+00  0.1124E-04  0.0000E+00
