 1 - depth, m
 2 - temperature, C
 3 - salinity, kg/kg
 4 - turbulent kinetic energy, m**2/s**2
 5 - dissipation rate, m**2/s**3
 6 - kinematic heat conductance, m**2/s
 7 - modulus of horizontal velocity, m/s
 8 - Richardson number, n/d
   -0.000000   30.65388  0.1184E-13  0.5130E-05  0.3316E-06  0.5209E-04  0.1494E-02  0.1144E+05
   -0.049997   30.68654  0.1184E-13  0.8756E-05  0.1478E-06  0.1809E-03  0.8586E-03  0.5897E+03
   -0.099994   30.69927  0.1184E-13  0.1063E-04  0.1015E-06  0.4071E-03  0.6294E-03  0.2322E+02
   -0.149992   30.70276  0.1184E-13  0.1180E-04  0.8508E-07  0.4875E-03  0.5567E-03  0.1143E+02
   -0.199990   30.70555  0.1184E-13  0.1271E-04  0.7549E-07  0.6534E-03  0.4975E-03  0.7320E+01
   -0.249989   30.70757  0.1184E-13  0.1344E-04  0.6924E-07  0.7803E-03  0.4533E-03  0.5421E+01
   -0.299988   30.70921  0.1184E-13  0.1403E-04  0.6479E-07  0.9076E-03  0.4166E-03  0.4313E+01
   -0.349988   30.71060  0.1184E-13  0.1451E-04  0.6147E-07  0.1022E-02  0.3851E-03  0.3702E+01
   -0.399987   30.71179  0.1184E-13  0.1492E-04  0.5888E-07  0.1127E-02  0.3572E-03  0.3298E+01
   -0.449987   30.71286  0.1184E-13  0.1527E-04  0.5679E-07  0.1223E-02  0.3327E-03  0.3109E+01
   -0.499988   30.71381  0.1184E-13  0.1557E-04  0.5506E-07  0.1312E-02  0.3110E-03  0.3022E+01
   -0.549988   30.71469  0.1184E-13  0.1583E-04  0.5363E-07  0.1392E-02  0.2916E-03  0.2998E+01
   -0.599989   30.71550  0.1184E-13  0.1605E-04  0.5242E-07  0.1464E-02  0.2740E-03  0.2999E+01
   -0.649990   30.71626  0.1184E-13  0.1623E-04  0.5141E-07  0.1529E-02  0.2579E-03  0.3057E+01
   -0.699991   30.71698  0.1184E-13  0.1639E-04  0.5056E-07  0.1585E-02  0.2431E-03  0.3129E+01
   -0.749992   30.71766  0.1184E-13  0.1652E-04  0.4986E-07  0.1633E-02  0.2294E-03  0.3259E+01
   -0.799994   30.71832  0.1184E-13  0.1662E-04  0.4930E-07  0.1672E-02  0.2167E-03  0.3402E+01
   -0.849995   30.71895  0.1184E-13  0.1669E-04  0.4885E-07  0.1703E-02  0.2048E-03  0.3614E+01
   -0.899997   30.71957  0.1184E-13  0.1674E-04  0.4853E-07  0.1726E-02  0.1936E-03  0.3846E+01
   -0.949999   30.72017  0.1184E-13  0.1677E-04  0.4833E-07  0.1739E-02  0.1830E-03  0.4169E+01
   -1.000000   30.72076  0.1184E-13  0.1677E-04  0.4825E-07  0.1744E-02  0.1731E-03  0.4531E+01
   -1.050002   30.72134  0.1184E-13  0.1675E-04  0.4830E-07  0.1737E-02  0.1635E-03  0.5208E+01
   -1.100004   30.72193  0.1184E-13  0.1670E-04  0.4848E-07  0.1853E-02  0.1544E-03  0.1654E+02
   -1.150005   30.72247  0.1184E-13  0.1662E-04  0.4886E-07  0.1604E-02  0.1465E-03  0.4407E+02
   -1.200007   30.72310  0.1184E-13  0.1652E-04  0.4940E-07  0.1651E-02  0.1378E-03  0.8038E+01
   -1.250008   30.72371  0.1184E-13  0.1639E-04  0.5018E-07  0.1615E-02  0.1297E-03  0.8666E+01
   -1.300010   30.72433  0.1184E-13  0.1621E-04  0.5125E-07  0.1553E-02  0.1218E-03  0.1052E+02
   -1.350011   30.72497  0.1184E-13  0.1600E-04  0.5272E-07  0.1488E-02  0.1142E-03  0.1305E+02
   -1.400012   30.72565  0.1184E-13  0.1574E-04  0.5474E-07  0.1392E-02  0.1067E-03  0.1717E+02
   -1.450012   30.72638  0.1184E-13  0.1542E-04  0.5754E-07  0.1320E-02  0.9930E-04  0.2321E+02
   -1.500013   30.72716  0.1184E-13  0.1503E-04  0.6157E-07  0.1183E-02  0.9203E-04  0.3560E+02
   -1.550013   30.72808  0.1184E-13  0.1456E-04  0.6744E-07  0.1127E-02  0.8451E-04  0.5703E+02
   -1.600013   30.72906  0.1184E-13  0.1395E-04  0.7706E-07  0.9608E-03  0.7731E-04  0.2283E+03
   -1.650013   30.73045  0.1184E-13  0.1312E-04  0.9164E-07  0.9048E-03  0.6893E-04  0.3623E+05
   -1.700012   30.73197  0.1184E-13  0.1197E-04  0.1190E-06  0.6962E-03  0.6086E-04 -0.3978E+04
   -1.750012   30.73569  0.1184E-13  0.1061E-04  0.1630E-06  0.6570E-03  0.4840E-04  0.6170E+06
   -1.800010   30.73674  0.1184E-13  0.9129E-05  0.2571E-06  0.4269E-03  0.4194E-04  0.2718E+04
   -1.850008   30.75097  0.1184E-13  0.7640E-05  0.4473E-06  0.4321E-03  0.2698E-04  0.1642E+10
   -1.900006   30.74218  0.1184E-13  0.6177E-05  0.9431E-06  0.2049E-03  0.2300E-04 -0.5684E+06
   -1.950004   30.77156  0.1184E-13  0.4464E-05  0.2193E-05  0.2320E-03  0.1173E-04 -0.1401E+06
   -2.000001   30.77196  0.1184E-13  0.0000E+00  0.0000E+00  0.0000E+00  0.2579E-04  0.0000E+00
