 1 - depth, m
 2 - temperature, C
 3 - salinity, kg/kg
 4 - turbulent kinetic energy, m**2/s**2
 5 - dissipation rate, m**2/s**3
 6 - kinematic heat conductance, m**2/s
 7 - modulus of horizontal velocity, m/s
 8 - Richardson number, n/d
   -0.000000   29.73082  0.4162E-14  0.4355E-05  0.2544E-06  0.4641E-04  0.6226E-03  0.7129E+05
   -0.049997   29.75957  0.4162E-14  0.7725E-05  0.1128E-06  0.1805E-03  0.3446E-03  0.1041E+03
   -0.099994   29.76951  0.4162E-14  0.9340E-05  0.7876E-07  0.4019E-03  0.2536E-03  0.1253E+03
   -0.149992   29.77234  0.4162E-14  0.1036E-04  0.6669E-07  0.4819E-03  0.2243E-03  0.6151E+02
   -0.199991   29.77461  0.4162E-14  0.1115E-04  0.5957E-07  0.6394E-03  0.2006E-03  0.4041E+02
   -0.249989   29.77627  0.4162E-14  0.1179E-04  0.5488E-07  0.7626E-03  0.1827E-03  0.3012E+02
   -0.299989   29.77763  0.4162E-14  0.1232E-04  0.5154E-07  0.8842E-03  0.1677E-03  0.2422E+02
   -0.349988   29.77878  0.4162E-14  0.1275E-04  0.4904E-07  0.9946E-03  0.1549E-03  0.2080E+02
   -0.399988   29.77979  0.4162E-14  0.1313E-04  0.4710E-07  0.1096E-02  0.1435E-03  0.1867E+02
   -0.449988   29.78068  0.4162E-14  0.1345E-04  0.4553E-07  0.1189E-02  0.1335E-03  0.1755E+02
   -0.499988   29.78149  0.4162E-14  0.1373E-04  0.4424E-07  0.1276E-02  0.1247E-03  0.1717E+02
   -0.549989   29.78223  0.4162E-14  0.1398E-04  0.4318E-07  0.1355E-02  0.1167E-03  0.1695E+02
   -0.599990   29.78292  0.4162E-14  0.1420E-04  0.4229E-07  0.1426E-02  0.1096E-03  0.1707E+02
   -0.649991   29.78356  0.4162E-14  0.1438E-04  0.4155E-07  0.1490E-02  0.1030E-03  0.1729E+02
   -0.699992   29.78417  0.4162E-14  0.1455E-04  0.4094E-07  0.1547E-02  0.9699E-04  0.1780E+02
   -0.749993   29.78475  0.4162E-14  0.1469E-04  0.4044E-07  0.1597E-02  0.9144E-04  0.1841E+02
   -0.799995   29.78531  0.4162E-14  0.1480E-04  0.4004E-07  0.1639E-02  0.8626E-04  0.1932E+02
   -0.849996   29.78585  0.4162E-14  0.1490E-04  0.3974E-07  0.1673E-02  0.8144E-04  0.2033E+02
   -0.899998   29.78638  0.4162E-14  0.1498E-04  0.3952E-07  0.1700E-02  0.7689E-04  0.2173E+02
   -0.950000   29.78689  0.4162E-14  0.1503E-04  0.3940E-07  0.1719E-02  0.7263E-04  0.2328E+02
   -1.000002   29.78739  0.4162E-14  0.1507E-04  0.3936E-07  0.1729E-02  0.6859E-04  0.2534E+02
   -1.050003   29.78789  0.4162E-14  0.1509E-04  0.3942E-07  0.1731E-02  0.6476E-04  0.2877E+02
   -1.100005   29.78839  0.4162E-14  0.1509E-04  0.3958E-07  0.1811E-02  0.6110E-04  0.9654E+02
   -1.150007   29.78886  0.4162E-14  0.1506E-04  0.3987E-07  0.1656E-02  0.5784E-04  0.2161E+03
   -1.200008   29.78938  0.4162E-14  0.1502E-04  0.4027E-07  0.1676E-02  0.5447E-04  0.4189E+02
   -1.250010   29.78989  0.4162E-14  0.1495E-04  0.4082E-07  0.1647E-02  0.5123E-04  0.4517E+02
   -1.300011   29.79041  0.4162E-14  0.1485E-04  0.4157E-07  0.1599E-02  0.4813E-04  0.5281E+02
   -1.350012   29.79094  0.4162E-14  0.1473E-04  0.4255E-07  0.1542E-02  0.4511E-04  0.6365E+02
   -1.400013   29.79150  0.4162E-14  0.1457E-04  0.4384E-07  0.1468E-02  0.4219E-04  0.7849E+02
   -1.450014   29.79208  0.4162E-14  0.1437E-04  0.4556E-07  0.1393E-02  0.3931E-04  0.1004E+03
   -1.500015   29.79270  0.4162E-14  0.1412E-04  0.4789E-07  0.1284E-02  0.3649E-04  0.1357E+03
   -1.550015   29.79338  0.4162E-14  0.1382E-04  0.5114E-07  0.1202E-02  0.3366E-04  0.1922E+03
   -1.600015   29.79411  0.4162E-14  0.1343E-04  0.5601E-07  0.1058E-02  0.3090E-04  0.3434E+03
   -1.650015   29.79499  0.4162E-14  0.1294E-04  0.6342E-07  0.9839E-03  0.2796E-04  0.1118E+04
   -1.700015   29.79598  0.4162E-14  0.1226E-04  0.7670E-07  0.7997E-03  0.2513E-04 -0.1785E+05
   -1.750014   29.79771  0.4162E-14  0.1133E-04  0.9857E-07  0.7283E-03  0.2137E-04  0.1626E+07
   -1.800012   29.79922  0.4162E-14  0.1005E-04  0.1430E-06  0.5040E-03  0.1839E-04  0.2375E+07
   -1.850011   29.80487  0.4162E-14  0.8563E-05  0.2279E-06  0.4654E-03  0.1328E-04  0.6892E+08
   -1.900009   29.80435  0.4162E-14  0.6802E-05  0.4701E-06  0.2091E-03  0.1075E-04  0.1677E+08
   -1.950006   29.82321  0.4162E-14  0.4722E-05  0.1207E-05  0.1776E-03  0.5804E-05 -0.2793E+07
   -2.000003   29.82606  0.4162E-14  0.0000E+00  0.0000E+00  0.0000E+00  0.1036E-04  0.0000E+00
