 1 - depth, m
 2 - temperature, C
 3 - salinity, kg/kg
 4 - turbulent kinetic energy, m**2/s**2
 5 - dissipation rate, m**2/s**3
 6 - kinematic heat conductance, m**2/s
 7 - modulus of horizontal velocity, m/s
 8 - Richardson number, n/d
   -0.000000   30.53282  0.2728E-14  0.4993E-05  0.3157E-06  0.5170E-04  0.1913E-02  0.4441E+04
   -0.049997   30.56369  0.2728E-14  0.8440E-05  0.1407E-06  0.1752E-03  0.1103E-02  0.3386E+03
   -0.099994   30.57600  0.2728E-14  0.1024E-04  0.9619E-07  0.3991E-03  0.8054E-03  0.1344E+02
   -0.149992   30.57936  0.2728E-14  0.1136E-04  0.8052E-07  0.4780E-03  0.7115E-03  0.6561E+01
   -0.199991   30.58205  0.2728E-14  0.1223E-04  0.7134E-07  0.6404E-03  0.6350E-03  0.4192E+01
   -0.249989   30.58401  0.2728E-14  0.1292E-04  0.6533E-07  0.7658E-03  0.5780E-03  0.3087E+01
   -0.299988   30.58559  0.2728E-14  0.1348E-04  0.6104E-07  0.8912E-03  0.5305E-03  0.2449E+01
   -0.349988   30.58691  0.2728E-14  0.1395E-04  0.5783E-07  0.1005E-02  0.4899E-03  0.2092E+01
   -0.399988   30.58806  0.2728E-14  0.1433E-04  0.5532E-07  0.1108E-02  0.4540E-03  0.1859E+01
   -0.449988   30.58907  0.2728E-14  0.1467E-04  0.5327E-07  0.1205E-02  0.4224E-03  0.1745E+01
   -0.499988   30.58999  0.2728E-14  0.1495E-04  0.5157E-07  0.1293E-02  0.3945E-03  0.1695E+01
   -0.549989   30.59082  0.2728E-14  0.1520E-04  0.5015E-07  0.1374E-02  0.3695E-03  0.1672E+01
   -0.599990   30.59159  0.2728E-14  0.1541E-04  0.4894E-07  0.1447E-02  0.3469E-03  0.1669E+01
   -0.649991   30.59231  0.2728E-14  0.1558E-04  0.4791E-07  0.1513E-02  0.3263E-03  0.1690E+01
   -0.699992   30.59299  0.2728E-14  0.1573E-04  0.4704E-07  0.1571E-02  0.3074E-03  0.1724E+01
   -0.749993   30.59363  0.2728E-14  0.1585E-04  0.4629E-07  0.1621E-02  0.2898E-03  0.1781E+01
   -0.799995   30.59425  0.2728E-14  0.1595E-04  0.4567E-07  0.1664E-02  0.2736E-03  0.1850E+01
   -0.849996   30.59484  0.2728E-14  0.1602E-04  0.4516E-07  0.1699E-02  0.2584E-03  0.1945E+01
   -0.899998   30.59541  0.2728E-14  0.1607E-04  0.4475E-07  0.1725E-02  0.2441E-03  0.2056E+01
   -0.949999   30.59596  0.2728E-14  0.1609E-04  0.4444E-07  0.1743E-02  0.2306E-03  0.2200E+01
   -1.000001   30.59650  0.2728E-14  0.1610E-04  0.4424E-07  0.1754E-02  0.2179E-03  0.2368E+01
   -1.050003   30.59704  0.2728E-14  0.1608E-04  0.4414E-07  0.1754E-02  0.2058E-03  0.2680E+01
   -1.100005   30.59756  0.2728E-14  0.1604E-04  0.4416E-07  0.1846E-02  0.1943E-03  0.8812E+01
   -1.150006   30.59806  0.2728E-14  0.1597E-04  0.4432E-07  0.1662E-02  0.1841E-03  0.2034E+02
   -1.200008   30.59861  0.2728E-14  0.1589E-04  0.4460E-07  0.1693E-02  0.1734E-03  0.3869E+01
   -1.250009   30.59914  0.2728E-14  0.1577E-04  0.4507E-07  0.1662E-02  0.1632E-03  0.4103E+01
   -1.300011   30.59967  0.2728E-14  0.1563E-04  0.4574E-07  0.1611E-02  0.1534E-03  0.4802E+01
   -1.350012   30.60022  0.2728E-14  0.1545E-04  0.4669E-07  0.1551E-02  0.1438E-03  0.5743E+01
   -1.400013   30.60079  0.2728E-14  0.1523E-04  0.4800E-07  0.1472E-02  0.1345E-03  0.7109E+01
   -1.450014   30.60138  0.2728E-14  0.1498E-04  0.4981E-07  0.1394E-02  0.1254E-03  0.9077E+01
   -1.500014   30.60201  0.2728E-14  0.1466E-04  0.5237E-07  0.1280E-02  0.1164E-03  0.1241E+02
   -1.550015   30.60270  0.2728E-14  0.1428E-04  0.5603E-07  0.1200E-02  0.1074E-03  0.1781E+02
   -1.600015   30.60344  0.2728E-14  0.1381E-04  0.6175E-07  0.1051E-02  0.9856E-04  0.3951E+02
   -1.650014   30.60437  0.2728E-14  0.1321E-04  0.7078E-07  0.9797E-03  0.8892E-04  0.8200E+02
   -1.700014   30.60541  0.2728E-14  0.1238E-04  0.8692E-07  0.7899E-03  0.7954E-04 -0.3117E+04
   -1.750013   30.60728  0.2728E-14  0.1129E-04  0.1134E-06  0.7172E-03  0.6681E-04  0.9530E+05
   -1.800012   30.60877  0.2728E-14  0.9873E-05  0.1697E-06  0.4937E-03  0.5724E-04  0.1236E+05
   -1.850010   30.61515  0.2728E-14  0.8320E-05  0.2752E-06  0.4620E-03  0.4018E-04  0.2487E+07
   -1.900008   30.61352  0.2728E-14  0.6590E-05  0.5774E-06  0.2117E-03  0.3289E-04 -0.2466E+05
   -1.950005   30.63258  0.2728E-14  0.4625E-05  0.1431E-05  0.1956E-03  0.1738E-04 -0.1368E+07
   -2.000002   30.63386  0.2728E-14  0.0000E+00  0.0000E+00  0.0000E+00  0.3350E-04  0.0000E+00
