 1 - depth, m
 2 - temperature, C
 3 - salinity, kg/kg
 4 - turbulent kinetic energy, m**2/s**2
 5 - dissipation rate, m**2/s**3
 6 - kinematic heat conductance, m**2/s
 7 - modulus of horizontal velocity, m/s
 8 - Richardson number, n/d
   -0.000000   30.60041  0.4411E-14  0.5433E-05  0.3158E-06  0.5251E-04  0.3271E-02  0.1408E+04
   -0.049997   30.63132  0.4411E-14  0.8836E-05  0.1371E-06  0.2032E-03  0.1766E-02  0.2196E+02
   -0.099994   30.64087  0.4411E-14  0.1043E-04  0.9709E-07  0.3912E-03  0.1380E-02  0.4864E+01
   -0.149992   30.64425  0.4411E-14  0.1147E-04  0.8174E-07  0.4883E-03  0.1228E-02  0.2522E+01
   -0.199991   30.64684  0.4411E-14  0.1230E-04  0.7278E-07  0.6302E-03  0.1110E-02  0.1676E+01
   -0.249989   30.64879  0.4411E-14  0.1297E-04  0.6692E-07  0.7420E-03  0.1018E-02  0.1316E+01
   -0.299988   30.65041  0.4411E-14  0.1354E-04  0.6264E-07  0.8508E-03  0.9397E-03  0.1237E+01
   -0.349988   30.65178  0.4411E-14  0.1406E-04  0.5922E-07  0.9714E-03  0.8668E-03  0.1300E+01
   -0.399988   30.65295  0.4411E-14  0.1454E-04  0.5637E-07  0.1102E-02  0.7960E-03  0.1326E+01
   -0.449988   30.65397  0.4411E-14  0.1497E-04  0.5398E-07  0.1229E-02  0.7302E-03  0.1337E+01
   -0.499988   30.65486  0.4411E-14  0.1536E-04  0.5199E-07  0.1348E-02  0.6708E-03  0.1342E+01
   -0.549989   30.65565  0.4411E-14  0.1569E-04  0.5034E-07  0.1457E-02  0.6174E-03  0.1338E+01
   -0.599989   30.65638  0.4411E-14  0.1597E-04  0.4898E-07  0.1555E-02  0.5695E-03  0.1330E+01
   -0.649990   30.65705  0.4411E-14  0.1620E-04  0.4787E-07  0.1640E-02  0.5264E-03  0.1317E+01
   -0.699992   30.65767  0.4411E-14  0.1639E-04  0.4696E-07  0.1713E-02  0.4876E-03  0.1300E+01
   -0.749993   30.65826  0.4411E-14  0.1653E-04  0.4625E-07  0.1772E-02  0.4527E-03  0.1279E+01
   -0.799994   30.65882  0.4411E-14  0.1664E-04  0.4570E-07  0.1818E-02  0.4213E-03  0.1255E+01
   -0.849996   30.65937  0.4411E-14  0.1672E-04  0.4530E-07  0.1850E-02  0.3931E-03  0.1228E+01
   -0.899998   30.65989  0.4411E-14  0.1676E-04  0.4503E-07  0.1869E-02  0.3677E-03  0.1197E+01
   -0.949999   30.66041  0.4411E-14  0.1678E-04  0.4489E-07  0.1877E-02  0.3449E-03  0.1167E+01
   -1.000001   30.66092  0.4411E-14  0.1677E-04  0.4488E-07  0.1875E-02  0.3244E-03  0.1148E+01
   -1.050003   30.66142  0.4411E-14  0.1673E-04  0.4497E-07  0.1861E-02  0.3059E-03  0.1190E+01
   -1.100005   30.66192  0.4411E-14  0.1668E-04  0.4518E-07  0.2003E-02  0.2890E-03  0.3560E+01
   -1.150006   30.66239  0.4411E-14  0.1659E-04  0.4554E-07  0.1692E-02  0.2748E-03  0.9161E+01
   -1.200008   30.66294  0.4411E-14  0.1649E-04  0.4603E-07  0.1763E-02  0.2590E-03  0.1669E+01
   -1.250009   30.66346  0.4411E-14  0.1636E-04  0.4673E-07  0.1727E-02  0.2443E-03  0.1779E+01
   -1.300011   30.66399  0.4411E-14  0.1619E-04  0.4767E-07  0.1664E-02  0.2301E-03  0.2106E+01
   -1.350012   30.66454  0.4411E-14  0.1599E-04  0.4894E-07  0.1592E-02  0.2162E-03  0.2560E+01
   -1.400013   30.66511  0.4411E-14  0.1575E-04  0.5065E-07  0.1500E-02  0.2026E-03  0.3229E+01
   -1.450014   30.66572  0.4411E-14  0.1545E-04  0.5299E-07  0.1412E-02  0.1892E-03  0.4229E+01
   -1.500014   30.66636  0.4411E-14  0.1510E-04  0.5627E-07  0.1289E-02  0.1759E-03  0.5969E+01
   -1.550015   30.66709  0.4411E-14  0.1467E-04  0.6099E-07  0.1201E-02  0.1623E-03  0.9289E+01
   -1.600015   30.66788  0.4411E-14  0.1413E-04  0.6852E-07  0.1053E-02  0.1490E-03  0.1412E+02
   -1.650014   30.66893  0.4411E-14  0.1341E-04  0.8043E-07  0.9636E-03  0.1340E-03  0.7755E+03
   -1.700014   30.67015  0.4411E-14  0.1243E-04  0.1016E-06  0.7833E-03  0.1189E-03  0.1780E+05
   -1.750013   30.67234  0.4411E-14  0.1123E-04  0.1352E-06  0.6985E-03  0.9889E-04  0.6471E+05
   -1.800012   30.67389  0.4411E-14  0.9667E-05  0.2131E-06  0.4753E-03  0.8454E-04  0.1474E+04
   -1.850010   30.68228  0.4411E-14  0.8099E-05  0.3517E-06  0.4477E-03  0.5742E-04  0.1078E+08
   -1.900008   30.67893  0.4411E-14  0.6388E-05  0.7420E-06  0.2075E-03  0.4745E-04 -0.3866E+05
   -1.950005   30.70176  0.4411E-14  0.4586E-05  0.1758E-05  0.2195E-03  0.2441E-04 -0.1962E+06
   -2.000002   30.70129  0.4411E-14  0.0000E+00  0.0000E+00  0.0000E+00  0.5119E-04  0.0000E+00
