 1 - depth, m
 2 - temperature, C
 3 - salinity, kg/kg
 4 - turbulent kinetic energy, m**2/s**2
 5 - dissipation rate, m**2/s**3
 6 - kinematic heat conductance, m**2/s
 7 - modulus of horizontal velocity, m/s
 8 - Richardson number, n/d
   -0.000000   29.61019  0.3346E-14  0.4379E-05  0.2576E-06  0.4797E-04  0.1319E-02  0.6140E+04
   -0.049997   29.63794  0.3346E-14  0.7579E-05  0.1148E-06  0.1720E-03  0.7460E-03  0.1176E+04
   -0.099994   29.64850  0.3346E-14  0.9196E-05  0.7929E-07  0.3888E-03  0.5445E-03  0.2601E+02
   -0.149992   29.65143  0.3346E-14  0.1021E-04  0.6676E-07  0.4686E-03  0.4803E-03  0.1266E+02
   -0.199991   29.65376  0.3346E-14  0.1100E-04  0.5941E-07  0.6238E-03  0.4285E-03  0.8176E+01
   -0.249989   29.65546  0.3346E-14  0.1163E-04  0.5458E-07  0.7457E-03  0.3896E-03  0.6048E+01
   -0.299989   29.65685  0.3346E-14  0.1214E-04  0.5115E-07  0.8663E-03  0.3573E-03  0.4825E+01
   -0.349988   29.65802  0.3346E-14  0.1257E-04  0.4858E-07  0.9758E-03  0.3295E-03  0.4137E+01
   -0.399988   29.65903  0.3346E-14  0.1294E-04  0.4658E-07  0.1076E-02  0.3050E-03  0.3693E+01
   -0.449988   29.65994  0.3346E-14  0.1325E-04  0.4496E-07  0.1169E-02  0.2835E-03  0.3476E+01
   -0.499988   29.66075  0.3346E-14  0.1352E-04  0.4362E-07  0.1255E-02  0.2644E-03  0.3386E+01
   -0.549989   29.66150  0.3346E-14  0.1376E-04  0.4251E-07  0.1334E-02  0.2473E-03  0.3350E+01
   -0.599990   29.66219  0.3346E-14  0.1397E-04  0.4158E-07  0.1405E-02  0.2319E-03  0.3357E+01
   -0.649991   29.66283  0.3346E-14  0.1415E-04  0.4079E-07  0.1469E-02  0.2179E-03  0.3408E+01
   -0.699992   29.66344  0.3346E-14  0.1430E-04  0.4014E-07  0.1526E-02  0.2050E-03  0.3491E+01
   -0.749993   29.66402  0.3346E-14  0.1443E-04  0.3959E-07  0.1576E-02  0.1930E-03  0.3616E+01
   -0.799995   29.66458  0.3346E-14  0.1454E-04  0.3915E-07  0.1618E-02  0.1820E-03  0.3773E+01
   -0.849996   29.66511  0.3346E-14  0.1463E-04  0.3879E-07  0.1653E-02  0.1717E-03  0.3980E+01
   -0.899998   29.66563  0.3346E-14  0.1470E-04  0.3853E-07  0.1680E-02  0.1620E-03  0.4225E+01
   -0.950000   29.66614  0.3346E-14  0.1475E-04  0.3835E-07  0.1699E-02  0.1529E-03  0.4536E+01
   -1.000002   29.66663  0.3346E-14  0.1478E-04  0.3826E-07  0.1711E-02  0.1443E-03  0.4900E+01
   -1.050003   29.66712  0.3346E-14  0.1479E-04  0.3826E-07  0.1714E-02  0.1361E-03  0.5576E+01
   -1.100005   29.66761  0.3346E-14  0.1478E-04  0.3836E-07  0.1790E-02  0.1283E-03  0.1868E+02
   -1.150007   29.66808  0.3346E-14  0.1475E-04  0.3857E-07  0.1647E-02  0.1214E-03  0.4115E+02
   -1.200008   29.66858  0.3346E-14  0.1470E-04  0.3889E-07  0.1664E-02  0.1143E-03  0.8037E+01
   -1.250010   29.66907  0.3346E-14  0.1462E-04  0.3936E-07  0.1635E-02  0.1074E-03  0.8582E+01
   -1.300011   29.66957  0.3346E-14  0.1452E-04  0.4000E-07  0.1590E-02  0.1008E-03  0.1004E+02
   -1.350012   29.67009  0.3346E-14  0.1440E-04  0.4086E-07  0.1534E-02  0.9446E-04  0.1198E+02
   -1.400013   29.67062  0.3346E-14  0.1424E-04  0.4201E-07  0.1463E-02  0.8826E-04  0.1474E+02
   -1.450014   29.67118  0.3346E-14  0.1404E-04  0.4355E-07  0.1388E-02  0.8220E-04  0.1863E+02
   -1.500015   29.67177  0.3346E-14  0.1380E-04  0.4566E-07  0.1284E-02  0.7626E-04  0.2496E+02
   -1.550015   29.67241  0.3346E-14  0.1350E-04  0.4859E-07  0.1198E-02  0.7033E-04  0.3491E+02
   -1.600015   29.67311  0.3346E-14  0.1313E-04  0.5297E-07  0.1062E-02  0.6450E-04  0.5866E+02
   -1.650015   29.67393  0.3346E-14  0.1265E-04  0.5966E-07  0.9774E-03  0.5840E-04  0.2556E+03
   -1.700015   29.67486  0.3346E-14  0.1201E-04  0.7158E-07  0.8078E-03  0.5241E-04  0.2351E+03
   -1.750014   29.67641  0.3346E-14  0.1112E-04  0.9147E-07  0.7197E-03  0.4481E-04  0.1715E+05
   -1.800012   29.67795  0.3346E-14  0.9873E-05  0.1326E-06  0.5087E-03  0.3831E-04  0.1332E+06
   -1.850011   29.68299  0.3346E-14  0.8427E-05  0.2090E-06  0.4582E-03  0.2801E-04  0.2387E+07
   -1.900009   29.68268  0.3346E-14  0.6660E-05  0.4356E-06  0.2051E-03  0.2253E-04 -0.3801E+08
   -1.950006   29.69997  0.3346E-14  0.4607E-05  0.1102E-05  0.1737E-03  0.1222E-04 -0.3784E+06
   -2.000003   29.70191  0.3346E-14  0.0000E+00  0.0000E+00  0.0000E+00  0.2156E-04  0.0000E+00
