 1 - depth, m
 2 - temperature, C
 3 - salinity, kg/kg
 4 - turbulent kinetic energy, m**2/s**2
 5 - dissipation rate, m**2/s**3
 6 - kinematic heat conductance, m**2/s
 7 - modulus of horizontal velocity, m/s
 8 - Richardson number, n/d
   -0.000000   30.64373  0.1194E-14  0.5066E-05  0.3219E-06  0.5210E-04  0.1872E-02  0.5792E+04
   -0.049997   30.67493  0.1194E-14  0.8573E-05  0.1434E-06  0.1789E-03  0.1070E-02  0.4250E+04
   -0.099994   30.68710  0.1194E-14  0.1039E-04  0.9829E-07  0.4013E-03  0.7862E-03  0.1466E+02
   -0.149992   30.69050  0.1194E-14  0.1154E-04  0.8225E-07  0.4827E-03  0.6943E-03  0.7202E+01
   -0.199991   30.69320  0.1194E-14  0.1242E-04  0.7288E-07  0.6466E-03  0.6200E-03  0.4600E+01
   -0.249989   30.69516  0.1194E-14  0.1313E-04  0.6675E-07  0.7734E-03  0.5645E-03  0.3390E+01
   -0.299988   30.69675  0.1194E-14  0.1370E-04  0.6238E-07  0.9003E-03  0.5184E-03  0.2688E+01
   -0.349988   30.69809  0.1194E-14  0.1418E-04  0.5911E-07  0.1015E-02  0.4788E-03  0.2295E+01
   -0.399988   30.69924  0.1194E-14  0.1457E-04  0.5656E-07  0.1120E-02  0.4439E-03  0.2039E+01
   -0.449988   30.70026  0.1194E-14  0.1492E-04  0.5448E-07  0.1218E-02  0.4132E-03  0.1916E+01
   -0.499988   30.70118  0.1194E-14  0.1521E-04  0.5276E-07  0.1308E-02  0.3860E-03  0.1860E+01
   -0.549989   30.70202  0.1194E-14  0.1546E-04  0.5131E-07  0.1390E-02  0.3617E-03  0.1836E+01
   -0.599989   30.70280  0.1194E-14  0.1568E-04  0.5009E-07  0.1465E-02  0.3396E-03  0.1830E+01
   -0.649990   30.70353  0.1194E-14  0.1587E-04  0.4905E-07  0.1532E-02  0.3195E-03  0.1852E+01
   -0.699992   30.70421  0.1194E-14  0.1602E-04  0.4817E-07  0.1591E-02  0.3010E-03  0.1883E+01
   -0.749993   30.70486  0.1194E-14  0.1615E-04  0.4743E-07  0.1643E-02  0.2840E-03  0.1943E+01
   -0.799994   30.70548  0.1194E-14  0.1625E-04  0.4681E-07  0.1686E-02  0.2681E-03  0.2014E+01
   -0.849996   30.70607  0.1194E-14  0.1633E-04  0.4630E-07  0.1722E-02  0.2533E-03  0.2117E+01
   -0.899998   30.70665  0.1194E-14  0.1639E-04  0.4590E-07  0.1750E-02  0.2394E-03  0.2233E+01
   -0.949999   30.70721  0.1194E-14  0.1642E-04  0.4560E-07  0.1769E-02  0.2263E-03  0.2388E+01
   -1.000001   30.70775  0.1194E-14  0.1643E-04  0.4540E-07  0.1780E-02  0.2140E-03  0.2564E+01
   -1.050003   30.70829  0.1194E-14  0.1642E-04  0.4532E-07  0.1782E-02  0.2022E-03  0.2900E+01
   -1.100005   30.70883  0.1194E-14  0.1639E-04  0.4535E-07  0.1871E-02  0.1910E-03  0.9552E+01
   -1.150006   30.70933  0.1194E-14  0.1633E-04  0.4553E-07  0.1695E-02  0.1810E-03  0.2175E+02
   -1.200008   30.70988  0.1194E-14  0.1625E-04  0.4583E-07  0.1723E-02  0.1705E-03  0.4160E+01
   -1.250009   30.71042  0.1194E-14  0.1614E-04  0.4631E-07  0.1693E-02  0.1606E-03  0.4401E+01
   -1.300011   30.71096  0.1194E-14  0.1601E-04  0.4701E-07  0.1643E-02  0.1510E-03  0.5143E+01
   -1.350012   30.71152  0.1194E-14  0.1584E-04  0.4798E-07  0.1583E-02  0.1417E-03  0.6128E+01
   -1.400013   30.71209  0.1194E-14  0.1563E-04  0.4932E-07  0.1507E-02  0.1327E-03  0.7560E+01
   -1.450014   30.71269  0.1194E-14  0.1538E-04  0.5115E-07  0.1426E-02  0.1238E-03  0.9616E+01
   -1.500014   30.71333  0.1194E-14  0.1508E-04  0.5371E-07  0.1317E-02  0.1150E-03  0.1303E+02
   -1.550015   30.71402  0.1194E-14  0.1471E-04  0.5737E-07  0.1227E-02  0.1062E-03  0.1885E+02
   -1.600015   30.71478  0.1194E-14  0.1425E-04  0.6294E-07  0.1089E-02  0.9757E-04  0.4135E+02
   -1.650014   30.71567  0.1194E-14  0.1367E-04  0.7170E-07  0.1001E-02  0.8841E-04  0.1116E+05
   -1.700014   30.71674  0.1194E-14  0.1286E-04  0.8713E-07  0.8240E-03  0.7916E-04  0.1488E+06
   -1.750013   30.71848  0.1194E-14  0.1182E-04  0.1123E-06  0.7387E-03  0.6735E-04  0.1011E+06
   -1.800012   30.72001  0.1194E-14  0.1040E-04  0.1704E-06  0.5119E-03  0.5786E-04  0.5590E+05
   -1.850010   30.72623  0.1194E-14  0.8859E-05  0.2729E-06  0.4778E-03  0.4151E-04  0.4195E+08
   -1.900008   30.72489  0.1194E-14  0.7032E-05  0.5663E-06  0.2164E-03  0.3397E-04  0.1713E+06
   -1.950005   30.74388  0.1194E-14  0.4917E-05  0.1408E-05  0.1921E-03  0.1841E-04 -0.6002E+06
   -2.000002   30.74530  0.1194E-14  0.0000E+00  0.0000E+00  0.0000E+00  0.3345E-04  0.0000E+00
