 1 - depth, m
 2 - temperature, C
 3 - salinity, kg/kg
 4 - turbulent kinetic energy, m**2/s**2
 5 - dissipation rate, m**2/s**3
 6 - kinematic heat conductance, m**2/s
 7 - modulus of horizontal velocity, m/s
 8 - Richardson number, n/d
   -0.000000   30.00053  0.6175E-14  0.6346E-05  0.3580E-06  0.6053E-04  0.4650E-02  0.6610E+01
   -0.049997   30.03228  0.6175E-14  0.9832E-05  0.1514E-06  0.2226E-03  0.2505E-02  0.7955E+01
   -0.099994   30.04136  0.6175E-14  0.1135E-04  0.1098E-06  0.3985E-03  0.2049E-02  0.2788E+01
   -0.149992   30.04512  0.6175E-14  0.1240E-04  0.9329E-07  0.4919E-03  0.1848E-02  0.1566E+01
   -0.199991   30.04803  0.6175E-14  0.1327E-04  0.8349E-07  0.6122E-03  0.1689E-02  0.1268E+01
   -0.249989   30.05030  0.6175E-14  0.1406E-04  0.7663E-07  0.7324E-03  0.1557E-02  0.1343E+01
   -0.299988   30.05215  0.6175E-14  0.1480E-04  0.7120E-07  0.8799E-03  0.1428E-02  0.1451E+01
   -0.349988   30.05365  0.6175E-14  0.1551E-04  0.6676E-07  0.1043E-02  0.1302E-02  0.1555E+01
   -0.399987   30.05489  0.6175E-14  0.1617E-04  0.6312E-07  0.1213E-02  0.1179E-02  0.1576E+01
   -0.449988   30.05593  0.6175E-14  0.1675E-04  0.6012E-07  0.1378E-02  0.1065E-02  0.1571E+01
   -0.499988   30.05683  0.6175E-14  0.1726E-04  0.5767E-07  0.1529E-02  0.9636E-03  0.1559E+01
   -0.549988   30.05762  0.6175E-14  0.1768E-04  0.5570E-07  0.1663E-02  0.8737E-03  0.1537E+01
   -0.599989   30.05834  0.6175E-14  0.1803E-04  0.5412E-07  0.1783E-02  0.7940E-03  0.1511E+01
   -0.649990   30.05900  0.6175E-14  0.1830E-04  0.5286E-07  0.1887E-02  0.7232E-03  0.1483E+01
   -0.699991   30.05961  0.6175E-14  0.1851E-04  0.5188E-07  0.1972E-02  0.6605E-03  0.1451E+01
   -0.749993   30.06019  0.6175E-14  0.1865E-04  0.5115E-07  0.2035E-02  0.6048E-03  0.1416E+01
   -0.799994   30.06075  0.6175E-14  0.1874E-04  0.5064E-07  0.2076E-02  0.5554E-03  0.1379E+01
   -0.849996   30.06129  0.6175E-14  0.1878E-04  0.5033E-07  0.2097E-02  0.5115E-03  0.1340E+01
   -0.899997   30.06181  0.6175E-14  0.1878E-04  0.5020E-07  0.2100E-02  0.4725E-03  0.1298E+01
   -0.949999   30.06234  0.6175E-14  0.1874E-04  0.5023E-07  0.2087E-02  0.4378E-03  0.1253E+01
   -1.000001   30.06286  0.6175E-14  0.1867E-04  0.5042E-07  0.2059E-02  0.4069E-03  0.1206E+01
   -1.050002   30.06338  0.6175E-14  0.1857E-04  0.5075E-07  0.2000E-02  0.3795E-03  0.1155E+01
   -1.100004   30.06391  0.6175E-14  0.1847E-04  0.5118E-07  0.2229E-02  0.3553E-03  0.2335E+01
   -1.150006   30.06439  0.6175E-14  0.1834E-04  0.5178E-07  0.1739E-02  0.3395E-03  0.6852E+01
   -1.200007   30.06500  0.6175E-14  0.1818E-04  0.5256E-07  0.1871E-02  0.3204E-03  0.1242E+01
   -1.250009   30.06555  0.6175E-14  0.1798E-04  0.5362E-07  0.1821E-02  0.3023E-03  0.1287E+01
   -1.300010   30.06613  0.6175E-14  0.1775E-04  0.5501E-07  0.1739E-02  0.2852E-03  0.1511E+01
   -1.350011   30.06673  0.6175E-14  0.1748E-04  0.5684E-07  0.1659E-02  0.2686E-03  0.1859E+01
   -1.400012   30.06736  0.6175E-14  0.1716E-04  0.5933E-07  0.1545E-02  0.2524E-03  0.2430E+01
   -1.450013   30.06804  0.6175E-14  0.1677E-04  0.6275E-07  0.1452E-02  0.2360E-03  0.3295E+01
   -1.500014   30.06878  0.6175E-14  0.1631E-04  0.6762E-07  0.1310E-02  0.2198E-03  0.5056E+01
   -1.550014   30.06963  0.6175E-14  0.1574E-04  0.7477E-07  0.1229E-02  0.2029E-03 -0.1511E+02
   -1.600014   30.07059  0.6175E-14  0.1501E-04  0.8663E-07  0.1062E-02  0.1861E-03 -0.5990E+03
   -1.650014   30.07206  0.6175E-14  0.1405E-04  0.1050E-06  0.9739E-03  0.1658E-03  0.8247E+04
   -1.700013   30.07359  0.6175E-14  0.1274E-04  0.1409E-06  0.7693E-03  0.1459E-03  0.2084E+06
   -1.750012   30.07685  0.6175E-14  0.1132E-04  0.1929E-06  0.7004E-03  0.1174E-03  0.1045E+06
   -1.800011   30.07814  0.6175E-14  0.9640E-05  0.3058E-06  0.4669E-03  0.1014E-03  0.7428E+05
   -1.850009   30.09074  0.6175E-14  0.8105E-05  0.5190E-06  0.4610E-03  0.6585E-04  0.1853E+08
   -1.900007   30.08344  0.6175E-14  0.6477E-05  0.1102E-05  0.2217E-03  0.5611E-04 -0.1823E+07
   -1.950005   30.11272  0.6175E-14  0.4746E-05  0.2483E-05  0.2582E-03  0.2837E-04 -0.2391E+05
   -2.000001   30.10851  0.6175E-14  0.0000E+00  0.0000E+00  0.0000E+00  0.6548E-04  0.0000E+00
