 1 - depth, m
 2 - temperature, C
 3 - salinity, kg/kg
 4 - turbulent kinetic energy, m**2/s**2
 5 - dissipation rate, m**2/s**3
 6 - kinematic heat conductance, m**2/s
 7 - modulus of horizontal velocity, m/s
 8 - Richardson number, n/d
   -0.000000   30.66914  0.4186E-14  0.6018E-05  0.3213E-06  0.5774E-04  0.4756E-02  0.9253E+02
   -0.049997   30.69805  0.4186E-14  0.9239E-05  0.1361E-06  0.2172E-03  0.2554E-02  0.2309E+02
   -0.099994   30.70604  0.4186E-14  0.1063E-04  0.9913E-07  0.3857E-03  0.2096E-02  0.2710E+01
   -0.149992   30.70945  0.4186E-14  0.1160E-04  0.8427E-07  0.4766E-03  0.1890E-02  0.1543E+01
   -0.199991   30.71209  0.4186E-14  0.1242E-04  0.7540E-07  0.5939E-03  0.1727E-02  0.1305E+01
   -0.249989   30.71414  0.4186E-14  0.1316E-04  0.6911E-07  0.7156E-03  0.1588E-02  0.1388E+01
   -0.299988   30.71581  0.4186E-14  0.1387E-04  0.6415E-07  0.8614E-03  0.1453E-02  0.1501E+01
   -0.349988   30.71715  0.4186E-14  0.1455E-04  0.6010E-07  0.1023E-02  0.1321E-02  0.1610E+01
   -0.399988   30.71826  0.4186E-14  0.1517E-04  0.5677E-07  0.1189E-02  0.1192E-02  0.1626E+01
   -0.449988   30.71920  0.4186E-14  0.1573E-04  0.5403E-07  0.1342E-02  0.1073E-02  0.1611E+01
   -0.499988   30.72001  0.4186E-14  0.1621E-04  0.5181E-07  0.1480E-02  0.9674E-03  0.1591E+01
   -0.549989   30.72073  0.4186E-14  0.1661E-04  0.5001E-07  0.1607E-02  0.8742E-03  0.1562E+01
   -0.599989   30.72138  0.4186E-14  0.1693E-04  0.4857E-07  0.1726E-02  0.7919E-03  0.1532E+01
   -0.649990   30.72198  0.4186E-14  0.1719E-04  0.4743E-07  0.1835E-02  0.7192E-03  0.1500E+01
   -0.699992   30.72253  0.4186E-14  0.1739E-04  0.4654E-07  0.1929E-02  0.6548E-03  0.1467E+01
   -0.749993   30.72305  0.4186E-14  0.1753E-04  0.4587E-07  0.2000E-02  0.5978E-03  0.1430E+01
   -0.799994   30.72355  0.4186E-14  0.1761E-04  0.4540E-07  0.2047E-02  0.5474E-03  0.1392E+01
   -0.849996   30.72403  0.4186E-14  0.1765E-04  0.4511E-07  0.2070E-02  0.5027E-03  0.1351E+01
   -0.899998   30.72450  0.4186E-14  0.1766E-04  0.4498E-07  0.2075E-02  0.4631E-03  0.1308E+01
   -0.949999   30.72496  0.4186E-14  0.1762E-04  0.4500E-07  0.2063E-02  0.4279E-03  0.1263E+01
   -1.000001   30.72542  0.4186E-14  0.1756E-04  0.4516E-07  0.2037E-02  0.3967E-03  0.1215E+01
   -1.050003   30.72589  0.4186E-14  0.1747E-04  0.4545E-07  0.1979E-02  0.3690E-03  0.1162E+01
   -1.100005   30.72636  0.4186E-14  0.1738E-04  0.4581E-07  0.2191E-02  0.3446E-03  0.2285E+01
   -1.150006   30.72678  0.4186E-14  0.1726E-04  0.4631E-07  0.1743E-02  0.3290E-03  0.6379E+01
   -1.200008   30.72731  0.4186E-14  0.1712E-04  0.4696E-07  0.1862E-02  0.3105E-03  0.1198E+01
   -1.250009   30.72781  0.4186E-14  0.1695E-04  0.4786E-07  0.1810E-02  0.2927E-03  0.1228E+01
   -1.300011   30.72831  0.4186E-14  0.1675E-04  0.4903E-07  0.1735E-02  0.2759E-03  0.1418E+01
   -1.350012   30.72884  0.4186E-14  0.1651E-04  0.5056E-07  0.1656E-02  0.2597E-03  0.1725E+01
   -1.400013   30.72939  0.4186E-14  0.1622E-04  0.5261E-07  0.1551E-02  0.2439E-03  0.2218E+01
   -1.450014   30.72998  0.4186E-14  0.1588E-04  0.5543E-07  0.1456E-02  0.2281E-03  0.2964E+01
   -1.500014   30.73061  0.4186E-14  0.1548E-04  0.5939E-07  0.1323E-02  0.2124E-03  0.4361E+01
   -1.550014   30.73133  0.4186E-14  0.1498E-04  0.6520E-07  0.1233E-02  0.1963E-03  0.7895E+01
   -1.600015   30.73214  0.4186E-14  0.1435E-04  0.7463E-07  0.1075E-02  0.1801E-03  0.1497E+05
   -1.650014   30.73329  0.4186E-14  0.1352E-04  0.8937E-07  0.9802E-03  0.1613E-03  0.2650E+03
   -1.700014   30.73459  0.4186E-14  0.1238E-04  0.1171E-06  0.7860E-03  0.1423E-03  0.1544E+05
   -1.750013   30.73709  0.4186E-14  0.1110E-04  0.1579E-06  0.7062E-03  0.1166E-03  0.4253E+05
   -1.800012   30.73832  0.4186E-14  0.9540E-05  0.2480E-06  0.4806E-03  0.1005E-03  0.1122E+06
   -1.850010   30.74804  0.4186E-14  0.8032E-05  0.4179E-06  0.4579E-03  0.6713E-04  0.3859E+07
   -1.900008   30.74313  0.4186E-14  0.6359E-05  0.8908E-06  0.2158E-03  0.5619E-04 -0.7581E+05
   -1.950005   30.76694  0.4186E-14  0.4595E-05  0.2041E-05  0.2381E-03  0.2886E-04 -0.4653E+05
   -2.000002   30.76601  0.4186E-14  0.0000E+00  0.0000E+00  0.0000E+00  0.6307E-04  0.0000E+00
