 1 - depth, m
 2 - temperature, C
 3 - salinity, kg/kg
 4 - turbulent kinetic energy, m**2/s**2
 5 - dissipation rate, m**2/s**3
 6 - kinematic heat conductance, m**2/s
 7 - modulus of horizontal velocity, m/s
 8 - Richardson number, n/d
   -0.000000   30.29694  0.1497E-14  0.4982E-05  0.3166E-06  0.5185E-04  0.1859E-02  0.3789E+04
   -0.049997   30.32745  0.1497E-14  0.8445E-05  0.1410E-06  0.1762E-03  0.1071E-02  0.1471E+03
   -0.099994   30.33973  0.1497E-14  0.1027E-04  0.9632E-07  0.4024E-03  0.7807E-03  0.1380E+02
   -0.149992   30.34304  0.1497E-14  0.1141E-04  0.8065E-07  0.4819E-03  0.6899E-03  0.6766E+01
   -0.199991   30.34570  0.1497E-14  0.1229E-04  0.7151E-07  0.6469E-03  0.6158E-03  0.4322E+01
   -0.249989   30.34763  0.1497E-14  0.1300E-04  0.6556E-07  0.7734E-03  0.5607E-03  0.3190E+01
   -0.299988   30.34919  0.1497E-14  0.1358E-04  0.6133E-07  0.9008E-03  0.5149E-03  0.2536E+01
   -0.349988   30.35051  0.1497E-14  0.1406E-04  0.5818E-07  0.1016E-02  0.4756E-03  0.2171E+01
   -0.399988   30.35165  0.1497E-14  0.1447E-04  0.5573E-07  0.1121E-02  0.4410E-03  0.1933E+01
   -0.449988   30.35266  0.1497E-14  0.1481E-04  0.5375E-07  0.1219E-02  0.4105E-03  0.1817E+01
   -0.499988   30.35357  0.1497E-14  0.1512E-04  0.5212E-07  0.1309E-02  0.3835E-03  0.1766E+01
   -0.549989   30.35441  0.1497E-14  0.1538E-04  0.5076E-07  0.1391E-02  0.3594E-03  0.1745E+01
   -0.599989   30.35518  0.1497E-14  0.1561E-04  0.4963E-07  0.1465E-02  0.3375E-03  0.1745E+01
   -0.649990   30.35591  0.1497E-14  0.1580E-04  0.4867E-07  0.1532E-02  0.3176E-03  0.1771E+01
   -0.699992   30.35659  0.1497E-14  0.1597E-04  0.4787E-07  0.1591E-02  0.2993E-03  0.1810E+01
   -0.749993   30.35724  0.1497E-14  0.1611E-04  0.4720E-07  0.1642E-02  0.2824E-03  0.1874E+01
   -0.799994   30.35786  0.1497E-14  0.1622E-04  0.4666E-07  0.1685E-02  0.2667E-03  0.1952E+01
   -0.849996   30.35846  0.1497E-14  0.1631E-04  0.4623E-07  0.1721E-02  0.2519E-03  0.2060E+01
   -0.899998   30.35904  0.1497E-14  0.1638E-04  0.4591E-07  0.1748E-02  0.2381E-03  0.2184E+01
   -0.949999   30.35961  0.1497E-14  0.1643E-04  0.4570E-07  0.1766E-02  0.2251E-03  0.2347E+01
   -1.000001   30.36016  0.1497E-14  0.1645E-04  0.4559E-07  0.1776E-02  0.2128E-03  0.2534E+01
   -1.050003   30.36071  0.1497E-14  0.1645E-04  0.4559E-07  0.1776E-02  0.2011E-03  0.2885E+01
   -1.100004   30.36126  0.1497E-14  0.1643E-04  0.4572E-07  0.1868E-02  0.1900E-03  0.9497E+01
   -1.150006   30.36177  0.1497E-14  0.1638E-04  0.4599E-07  0.1685E-02  0.1800E-03  0.2201E+02
   -1.200008   30.36235  0.1497E-14  0.1631E-04  0.4640E-07  0.1714E-02  0.1696E-03  0.4212E+01
   -1.250009   30.36290  0.1497E-14  0.1622E-04  0.4700E-07  0.1683E-02  0.1597E-03  0.4497E+01
   -1.300010   30.36347  0.1497E-14  0.1609E-04  0.4783E-07  0.1631E-02  0.1502E-03  0.5298E+01
   -1.350012   30.36406  0.1497E-14  0.1593E-04  0.4895E-07  0.1570E-02  0.1409E-03  0.6373E+01
   -1.400013   30.36466  0.1497E-14  0.1573E-04  0.5045E-07  0.1491E-02  0.1319E-03  0.7949E+01
   -1.450013   30.36530  0.1497E-14  0.1548E-04  0.5250E-07  0.1411E-02  0.1230E-03  0.1023E+02
   -1.500014   30.36598  0.1497E-14  0.1518E-04  0.5533E-07  0.1298E-02  0.1142E-03  0.1412E+02
   -1.550014   30.36673  0.1497E-14  0.1481E-04  0.5938E-07  0.1212E-02  0.1054E-03  0.2076E+02
   -1.600014   30.36755  0.1497E-14  0.1434E-04  0.6558E-07  0.1067E-02  0.9677E-04  0.4375E+02
   -1.650014   30.36855  0.1497E-14  0.1374E-04  0.7522E-07  0.9846E-03  0.8744E-04  0.5063E+02
   -1.700014   30.36972  0.1497E-14  0.1290E-04  0.9246E-07  0.8020E-03  0.7814E-04  0.1206E+04
   -1.750013   30.37177  0.1497E-14  0.1182E-04  0.1202E-06  0.7255E-03  0.6594E-04  0.1170E+06
   -1.800011   30.37336  0.1497E-14  0.1039E-04  0.1808E-06  0.4985E-03  0.5666E-04  0.4516E+05
   -1.850010   30.38077  0.1497E-14  0.8818E-05  0.2939E-06  0.4632E-03  0.4007E-04  0.1409E+08
   -1.900008   30.37882  0.1497E-14  0.7009E-05  0.6091E-06  0.2117E-03  0.3275E-04 -0.1256E+05
   -1.950005   30.40029  0.1497E-14  0.4938E-05  0.1501E-05  0.1963E-03  0.1758E-04 -0.2364E+06
   -2.000002   30.40226  0.1497E-14  0.0000E+00  0.0000E+00  0.0000E+00  0.3298E-04  0.0000E+00
