 1 - depth, m
 2 - temperature, C
 3 - salinity, kg/kg
 4 - turbulent kinetic energy, m**2/s**2
 5 - dissipation rate, m**2/s**3
 6 - kinematic heat conductance, m**2/s
 7 - modulus of horizontal velocity, m/s
 8 - Richardson number, n/d
   -0.000000   29.43939  0.2896E-13  0.4391E-05  0.2520E-06  0.4779E-04  0.1855E-02  0.3743E+04
   -0.049997   29.46649  0.2896E-13  0.7478E-05  0.1120E-06  0.1727E-03  0.1037E-02  0.1066E+05
   -0.099994   29.47647  0.2896E-13  0.9029E-05  0.7750E-07  0.3809E-03  0.7671E-03  0.1499E+02
   -0.149992   29.47936  0.2896E-13  0.1001E-04  0.6516E-07  0.4635E-03  0.6765E-03  0.7281E+01
   -0.199991   29.48165  0.2896E-13  0.1077E-04  0.5792E-07  0.6142E-03  0.6040E-03  0.4704E+01
   -0.249989   29.48333  0.2896E-13  0.1138E-04  0.5317E-07  0.7346E-03  0.5493E-03  0.3464E+01
   -0.299989   29.48470  0.2896E-13  0.1188E-04  0.4979E-07  0.8524E-03  0.5037E-03  0.2768E+01
   -0.349988   29.48585  0.2896E-13  0.1230E-04  0.4726E-07  0.9594E-03  0.4646E-03  0.2374E+01
   -0.399988   29.48685  0.2896E-13  0.1266E-04  0.4527E-07  0.1059E-02  0.4297E-03  0.2141E+01
   -0.449988   29.48774  0.2896E-13  0.1297E-04  0.4366E-07  0.1153E-02  0.3988E-03  0.2020E+01
   -0.499988   29.48854  0.2896E-13  0.1324E-04  0.4232E-07  0.1240E-02  0.3712E-03  0.1981E+01
   -0.549989   29.48927  0.2896E-13  0.1348E-04  0.4120E-07  0.1320E-02  0.3466E-03  0.1953E+01
   -0.599990   29.48995  0.2896E-13  0.1368E-04  0.4026E-07  0.1393E-02  0.3242E-03  0.1962E+01
   -0.649991   29.49058  0.2896E-13  0.1386E-04  0.3947E-07  0.1458E-02  0.3039E-03  0.1975E+01
   -0.699992   29.49118  0.2896E-13  0.1401E-04  0.3881E-07  0.1516E-02  0.2853E-03  0.2022E+01
   -0.749993   29.49174  0.2896E-13  0.1414E-04  0.3827E-07  0.1566E-02  0.2683E-03  0.2072E+01
   -0.799995   29.49228  0.2896E-13  0.1425E-04  0.3782E-07  0.1608E-02  0.2526E-03  0.2160E+01
   -0.849997   29.49280  0.2896E-13  0.1433E-04  0.3747E-07  0.1643E-02  0.2381E-03  0.2252E+01
   -0.899998   29.49331  0.2896E-13  0.1440E-04  0.3721E-07  0.1670E-02  0.2245E-03  0.2392E+01
   -0.950000   29.49380  0.2896E-13  0.1444E-04  0.3702E-07  0.1690E-02  0.2118E-03  0.2543E+01
   -1.000002   29.49428  0.2896E-13  0.1447E-04  0.3693E-07  0.1701E-02  0.1998E-03  0.2758E+01
   -1.050003   29.49476  0.2896E-13  0.1448E-04  0.3691E-07  0.1704E-02  0.1885E-03  0.3112E+01
   -1.100005   29.49523  0.2896E-13  0.1447E-04  0.3699E-07  0.1778E-02  0.1777E-03  0.1054E+02
   -1.150007   29.49568  0.2896E-13  0.1444E-04  0.3718E-07  0.1642E-02  0.1681E-03  0.2280E+02
   -1.200008   29.49617  0.2896E-13  0.1439E-04  0.3748E-07  0.1657E-02  0.1582E-03  0.4447E+01
   -1.250010   29.49665  0.2896E-13  0.1432E-04  0.3791E-07  0.1629E-02  0.1487E-03  0.4769E+01
   -1.300011   29.49714  0.2896E-13  0.1422E-04  0.3851E-07  0.1585E-02  0.1396E-03  0.5520E+01
   -1.350012   29.49763  0.2896E-13  0.1410E-04  0.3932E-07  0.1531E-02  0.1307E-03  0.6597E+01
   -1.400014   29.49815  0.2896E-13  0.1395E-04  0.4039E-07  0.1461E-02  0.1221E-03  0.8015E+01
   -1.450014   29.49869  0.2896E-13  0.1376E-04  0.4184E-07  0.1388E-02  0.1137E-03  0.1012E+02
   -1.500015   29.49926  0.2896E-13  0.1353E-04  0.4381E-07  0.1285E-02  0.1055E-03  0.1336E+02
   -1.550015   29.49987  0.2896E-13  0.1324E-04  0.4655E-07  0.1203E-02  0.9727E-04  0.1852E+02
   -1.600015   29.50054  0.2896E-13  0.1289E-04  0.5062E-07  0.1064E-02  0.8925E-04  0.3052E+02
   -1.650015   29.50132  0.2896E-13  0.1244E-04  0.5677E-07  0.9867E-03  0.8076E-04  0.3664E+03
   -1.700015   29.50218  0.2896E-13  0.1182E-04  0.6783E-07  0.8082E-03  0.7264E-04 -0.4542E+03
   -1.750014   29.50366  0.2896E-13  0.1098E-04  0.8622E-07  0.7316E-03  0.6195E-04  0.5129E+04
   -1.800013   29.50499  0.2896E-13  0.9805E-05  0.1242E-06  0.5124E-03  0.5331E-04  0.7308E+05
   -1.850011   29.50963  0.2896E-13  0.8393E-05  0.1957E-06  0.4646E-03  0.3888E-04  0.1768E+07
   -1.900009   29.50956  0.2896E-13  0.6655E-05  0.4038E-06  0.2077E-03  0.3140E-04 -0.1371E+08
   -1.950006   29.52554  0.2896E-13  0.4566E-05  0.1039E-05  0.1676E-03  0.1705E-04 -0.4136E+06
   -2.000003   29.52864  0.2896E-13  0.0000E+00  0.0000E+00  0.0000E+00  0.2978E-04  0.0000E+00
