 1 - depth, m
 2 - temperature, C
 3 - salinity, kg/kg
 4 - turbulent kinetic energy, m**2/s**2
 5 - dissipation rate, m**2/s**3
 6 - kinematic heat conductance, m**2/s
 7 - modulus of horizontal velocity, m/s
 8 - Richardson number, n/d
   -0.000000   30.62939  0.2662E-13  0.5036E-05  0.3185E-06  0.5186E-04  0.1877E-02  0.2973E+04
   -0.049997   30.66053  0.2662E-13  0.8518E-05  0.1419E-06  0.1781E-03  0.1074E-02  0.8012E+04
   -0.099994   30.67263  0.2662E-13  0.1032E-04  0.9734E-07  0.3992E-03  0.7892E-03  0.1468E+02
   -0.149992   30.67602  0.2662E-13  0.1145E-04  0.8147E-07  0.4805E-03  0.6970E-03  0.7200E+01
   -0.199991   30.67872  0.2662E-13  0.1233E-04  0.7219E-07  0.6431E-03  0.6223E-03  0.4600E+01
   -0.249989   30.68068  0.2662E-13  0.1303E-04  0.6612E-07  0.7691E-03  0.5666E-03  0.3389E+01
   -0.299988   30.68227  0.2662E-13  0.1360E-04  0.6179E-07  0.8950E-03  0.5202E-03  0.2687E+01
   -0.349988   30.68360  0.2662E-13  0.1406E-04  0.5854E-07  0.1009E-02  0.4805E-03  0.2295E+01
   -0.399988   30.68475  0.2662E-13  0.1446E-04  0.5601E-07  0.1113E-02  0.4454E-03  0.2039E+01
   -0.449988   30.68577  0.2662E-13  0.1479E-04  0.5395E-07  0.1209E-02  0.4145E-03  0.1916E+01
   -0.499988   30.68669  0.2662E-13  0.1508E-04  0.5225E-07  0.1298E-02  0.3871E-03  0.1861E+01
   -0.549989   30.68752  0.2662E-13  0.1533E-04  0.5081E-07  0.1380E-02  0.3626E-03  0.1837E+01
   -0.599989   30.68830  0.2662E-13  0.1554E-04  0.4960E-07  0.1454E-02  0.3404E-03  0.1832E+01
   -0.649990   30.68902  0.2662E-13  0.1573E-04  0.4857E-07  0.1520E-02  0.3202E-03  0.1853E+01
   -0.699992   30.68970  0.2662E-13  0.1588E-04  0.4769E-07  0.1578E-02  0.3016E-03  0.1887E+01
   -0.749993   30.69035  0.2662E-13  0.1600E-04  0.4696E-07  0.1629E-02  0.2845E-03  0.1947E+01
   -0.799994   30.69097  0.2662E-13  0.1610E-04  0.4634E-07  0.1671E-02  0.2686E-03  0.2020E+01
   -0.849996   30.69156  0.2662E-13  0.1617E-04  0.4584E-07  0.1706E-02  0.2537E-03  0.2123E+01
   -0.899998   30.69214  0.2662E-13  0.1622E-04  0.4544E-07  0.1732E-02  0.2397E-03  0.2242E+01
   -0.949999   30.69270  0.2662E-13  0.1625E-04  0.4515E-07  0.1750E-02  0.2266E-03  0.2400E+01
   -1.000001   30.69324  0.2662E-13  0.1626E-04  0.4496E-07  0.1760E-02  0.2141E-03  0.2579E+01
   -1.050003   30.69378  0.2662E-13  0.1624E-04  0.4488E-07  0.1760E-02  0.2023E-03  0.2920E+01
   -1.100005   30.69431  0.2662E-13  0.1621E-04  0.4492E-07  0.1854E-02  0.1910E-03  0.9591E+01
   -1.150006   30.69481  0.2662E-13  0.1614E-04  0.4511E-07  0.1665E-02  0.1810E-03  0.2212E+02
   -1.200008   30.69537  0.2662E-13  0.1606E-04  0.4543E-07  0.1697E-02  0.1705E-03  0.4211E+01
   -1.250009   30.69591  0.2662E-13  0.1594E-04  0.4593E-07  0.1666E-02  0.1604E-03  0.4460E+01
   -1.300011   30.69645  0.2662E-13  0.1580E-04  0.4665E-07  0.1614E-02  0.1508E-03  0.5222E+01
   -1.350012   30.69701  0.2662E-13  0.1562E-04  0.4766E-07  0.1554E-02  0.1414E-03  0.6239E+01
   -1.400013   30.69759  0.2662E-13  0.1540E-04  0.4904E-07  0.1473E-02  0.1323E-03  0.7725E+01
   -1.450014   30.69820  0.2662E-13  0.1514E-04  0.5095E-07  0.1396E-02  0.1233E-03  0.9859E+01
   -1.500014   30.69884  0.2662E-13  0.1482E-04  0.5364E-07  0.1280E-02  0.1145E-03  0.1349E+02
   -1.550015   30.69955  0.2662E-13  0.1444E-04  0.5748E-07  0.1200E-02  0.1056E-03  0.1939E+02
   -1.600015   30.70031  0.2662E-13  0.1396E-04  0.6350E-07  0.1050E-02  0.9694E-04  0.4146E+02
   -1.650014   30.70126  0.2662E-13  0.1334E-04  0.7294E-07  0.9783E-03  0.8741E-04  0.5088E+04
   -1.700014   30.70234  0.2662E-13  0.1249E-04  0.8987E-07  0.7893E-03  0.7812E-04  0.1918E+04
   -1.750013   30.70431  0.2662E-13  0.1139E-04  0.1174E-06  0.7170E-03  0.6540E-04  0.4704E+05
   -1.800012   30.70577  0.2662E-13  0.9945E-05  0.1763E-06  0.4918E-03  0.5619E-04  0.1463E+06
   -1.850010   30.71273  0.2662E-13  0.8386E-05  0.2878E-06  0.4586E-03  0.3906E-04  0.1126E+08
   -1.900008   30.71073  0.2662E-13  0.6637E-05  0.6034E-06  0.2107E-03  0.3210E-04 -0.4040E+06
   -1.950005   30.73111  0.2662E-13  0.4672E-05  0.1484E-05  0.1991E-03  0.1687E-04 -0.1723E+06
   -2.000002   30.73162  0.2662E-13  0.0000E+00  0.0000E+00  0.0000E+00  0.3277E-04  0.0000E+00
