 1 - depth, m
 2 - temperature, C
 3 - salinity, kg/kg
 4 - turbulent kinetic energy, m**2/s**2
 5 - dissipation rate, m**2/s**3
 6 - kinematic heat conductance, m**2/s
 7 - modulus of horizontal velocity, m/s
 8 - Richardson number, n/d
   -0.000000   30.36139  0.1222E-14  0.4590E-05  0.2699E-06  0.4591E-04  0.3296E-03  0.3685E+06
   -0.049997   30.39325  0.1222E-14  0.8220E-05  0.1201E-06  0.1933E-03  0.1791E-03  0.2830E+05
   -0.099994   30.40259  0.1222E-14  0.9866E-05  0.8473E-07  0.4115E-03  0.1334E-03  0.4014E+03
   -0.149992   30.40558  0.1222E-14  0.1092E-04  0.7187E-07  0.4949E-03  0.1181E-03  0.2007E+03
   -0.199991   30.40795  0.1222E-14  0.1174E-04  0.6422E-07  0.6544E-03  0.1058E-03  0.1328E+03
   -0.249989   30.40969  0.1222E-14  0.1239E-04  0.5915E-07  0.7799E-03  0.9641E-04  0.9938E+02
   -0.299989   30.41112  0.1222E-14  0.1293E-04  0.5552E-07  0.9030E-03  0.8861E-04  0.7979E+02
   -0.349988   30.41232  0.1222E-14  0.1338E-04  0.5278E-07  0.1015E-02  0.8190E-04  0.6858E+02
   -0.399988   30.41337  0.1222E-14  0.1376E-04  0.5064E-07  0.1117E-02  0.7595E-04  0.6133E+02
   -0.449988   30.41430  0.1222E-14  0.1408E-04  0.4891E-07  0.1212E-02  0.7070E-04  0.5771E+02
   -0.499988   30.41514  0.1222E-14  0.1436E-04  0.4747E-07  0.1299E-02  0.6606E-04  0.5624E+02
   -0.549989   30.41591  0.1222E-14  0.1461E-04  0.4627E-07  0.1379E-02  0.6189E-04  0.5556E+02
   -0.599990   30.41663  0.1222E-14  0.1482E-04  0.4526E-07  0.1451E-02  0.5812E-04  0.5565E+02
   -0.649991   30.41730  0.1222E-14  0.1501E-04  0.4441E-07  0.1516E-02  0.5467E-04  0.5640E+02
   -0.699992   30.41793  0.1222E-14  0.1516E-04  0.4369E-07  0.1573E-02  0.5150E-04  0.5771E+02
   -0.749993   30.41853  0.1222E-14  0.1529E-04  0.4310E-07  0.1623E-02  0.4857E-04  0.5967E+02
   -0.799995   30.41910  0.1222E-14  0.1540E-04  0.4261E-07  0.1665E-02  0.4585E-04  0.6219E+02
   -0.849996   30.41966  0.1222E-14  0.1549E-04  0.4222E-07  0.1700E-02  0.4330E-04  0.6545E+02
   -0.899998   30.42020  0.1222E-14  0.1555E-04  0.4193E-07  0.1726E-02  0.4091E-04  0.6940E+02
   -0.950000   30.42072  0.1222E-14  0.1559E-04  0.4173E-07  0.1745E-02  0.3865E-04  0.7435E+02
   -1.000001   30.42124  0.1222E-14  0.1562E-04  0.4163E-07  0.1755E-02  0.3652E-04  0.8026E+02
   -1.050003   30.42174  0.1222E-14  0.1562E-04  0.4162E-07  0.1756E-02  0.3450E-04  0.9103E+02
   -1.100005   30.42225  0.1222E-14  0.1560E-04  0.4172E-07  0.1842E-02  0.3256E-04  0.3018E+03
   -1.150006   30.42272  0.1222E-14  0.1556E-04  0.4196E-07  0.1674E-02  0.3084E-04  0.6828E+03
   -1.200008   30.42325  0.1222E-14  0.1550E-04  0.4231E-07  0.1699E-02  0.2905E-04  0.1315E+03
   -1.250010   30.42376  0.1222E-14  0.1541E-04  0.4282E-07  0.1668E-02  0.2734E-04  0.1401E+03
   -1.300011   30.42428  0.1222E-14  0.1529E-04  0.4354E-07  0.1619E-02  0.2570E-04  0.1641E+03
   -1.350012   30.42481  0.1222E-14  0.1515E-04  0.4450E-07  0.1561E-02  0.2410E-04  0.1961E+03
   -1.400013   30.42537  0.1222E-14  0.1496E-04  0.4579E-07  0.1485E-02  0.2254E-04  0.2422E+03
   -1.450014   30.42595  0.1222E-14  0.1474E-04  0.4754E-07  0.1407E-02  0.2101E-04  0.3083E+03
   -1.500015   30.42656  0.1222E-14  0.1447E-04  0.4994E-07  0.1297E-02  0.1952E-04  0.4177E+03
   -1.550015   30.42724  0.1222E-14  0.1414E-04  0.5333E-07  0.1212E-02  0.1801E-04  0.5934E+03
   -1.600015   30.42796  0.1222E-14  0.1372E-04  0.5845E-07  0.1068E-02  0.1654E-04  0.1103E+04
   -1.650015   30.42884  0.1222E-14  0.1319E-04  0.6633E-07  0.9897E-03  0.1496E-04  0.6263E+04
   -1.700014   30.42983  0.1222E-14  0.1245E-04  0.8049E-07  0.8079E-03  0.1343E-04  0.7121E+05
   -1.750013   30.43157  0.1222E-14  0.1147E-04  0.1037E-06  0.7300E-03  0.1140E-04  0.6876E+07
   -1.800012   30.43308  0.1222E-14  0.1014E-04  0.1523E-06  0.5078E-03  0.9800E-05  0.3562E+07
   -1.850010   30.43892  0.1222E-14  0.8610E-05  0.2443E-06  0.4674E-03  0.7052E-05  0.1222E+10
   -1.900008   30.43814  0.1222E-14  0.6839E-05  0.5058E-06  0.2159E-03  0.5706E-05 -0.5359E+08
   -1.950006   30.45651  0.1222E-14  0.4757E-05  0.1282E-05  0.1820E-03  0.3107E-05 -0.9474E+07
   -2.000003   30.45893  0.1222E-14  0.0000E+00  0.0000E+00  0.0000E+00  0.5596E-05  0.0000E+00
