 1 - depth, m
 2 - temperature, C
 3 - salinity, kg/kg
 4 - turbulent kinetic energy, m**2/s**2
 5 - dissipation rate, m**2/s**3
 6 - kinematic heat conductance, m**2/s
 7 - modulus of horizontal velocity, m/s
 8 - Richardson number, n/d
   -0.000000   31.29946  0.1177E-13  0.5108E-05  0.3304E-06  0.5250E-04  0.1582E-02  0.7415E+04
   -0.049997   31.33077  0.1177E-13  0.8708E-05  0.1473E-06  0.1792E-03  0.9121E-03  0.2706E+04
   -0.099994   31.34326  0.1177E-13  0.1059E-04  0.1009E-06  0.4078E-03  0.6670E-03  0.1919E+02
   -0.149992   31.34664  0.1177E-13  0.1176E-04  0.8451E-07  0.4873E-03  0.5898E-03  0.9421E+01
   -0.199991   31.34935  0.1177E-13  0.1268E-04  0.7494E-07  0.6550E-03  0.5269E-03  0.6015E+01
   -0.249989   31.35130  0.1177E-13  0.1340E-04  0.6871E-07  0.7829E-03  0.4801E-03  0.4433E+01
   -0.299988   31.35289  0.1177E-13  0.1400E-04  0.6427E-07  0.9117E-03  0.4411E-03  0.3525E+01
   -0.349988   31.35422  0.1177E-13  0.1449E-04  0.6096E-07  0.1028E-02  0.4078E-03  0.3010E+01
   -0.399987   31.35538  0.1177E-13  0.1490E-04  0.5839E-07  0.1134E-02  0.3783E-03  0.2681E+01
   -0.449988   31.35640  0.1177E-13  0.1526E-04  0.5630E-07  0.1233E-02  0.3524E-03  0.2512E+01
   -0.499988   31.35732  0.1177E-13  0.1556E-04  0.5458E-07  0.1323E-02  0.3294E-03  0.2442E+01
   -0.549988   31.35817  0.1177E-13  0.1583E-04  0.5315E-07  0.1406E-02  0.3089E-03  0.2406E+01
   -0.599989   31.35895  0.1177E-13  0.1606E-04  0.5194E-07  0.1481E-02  0.2903E-03  0.2407E+01
   -0.649990   31.35968  0.1177E-13  0.1625E-04  0.5093E-07  0.1547E-02  0.2733E-03  0.2434E+01
   -0.699991   31.36037  0.1177E-13  0.1642E-04  0.5008E-07  0.1606E-02  0.2577E-03  0.2491E+01
   -0.749993   31.36102  0.1177E-13  0.1656E-04  0.4937E-07  0.1657E-02  0.2432E-03  0.2571E+01
   -0.799994   31.36165  0.1177E-13  0.1667E-04  0.4879E-07  0.1700E-02  0.2298E-03  0.2681E+01
   -0.849996   31.36225  0.1177E-13  0.1676E-04  0.4833E-07  0.1735E-02  0.2172E-03  0.2819E+01
   -0.899997   31.36284  0.1177E-13  0.1682E-04  0.4799E-07  0.1762E-02  0.2054E-03  0.2994E+01
   -0.949999   31.36341  0.1177E-13  0.1686E-04  0.4775E-07  0.1779E-02  0.1943E-03  0.3206E+01
   -1.000001   31.36397  0.1177E-13  0.1688E-04  0.4763E-07  0.1789E-02  0.1837E-03  0.3470E+01
   -1.050002   31.36453  0.1177E-13  0.1687E-04  0.4763E-07  0.1788E-02  0.1737E-03  0.3936E+01
   -1.100004   31.36508  0.1177E-13  0.1684E-04  0.4776E-07  0.1886E-02  0.1641E-03  0.1291E+02
   -1.150006   31.36559  0.1177E-13  0.1679E-04  0.4805E-07  0.1685E-02  0.1557E-03  0.3046E+02
   -1.200007   31.36617  0.1177E-13  0.1671E-04  0.4848E-07  0.1719E-02  0.1467E-03  0.5772E+01
   -1.250009   31.36674  0.1177E-13  0.1660E-04  0.4912E-07  0.1687E-02  0.1382E-03  0.6164E+01
   -1.300010   31.36731  0.1177E-13  0.1645E-04  0.5001E-07  0.1633E-02  0.1300E-03  0.7270E+01
   -1.350011   31.36790  0.1177E-13  0.1628E-04  0.5121E-07  0.1571E-02  0.1220E-03  0.8767E+01
   -1.400012   31.36851  0.1177E-13  0.1606E-04  0.5285E-07  0.1487E-02  0.1142E-03  0.1099E+02
   -1.450013   31.36916  0.1177E-13  0.1579E-04  0.5508E-07  0.1409E-02  0.1065E-03  0.1419E+02
   -1.500014   31.36984  0.1177E-13  0.1547E-04  0.5820E-07  0.1288E-02  0.9894E-04  0.1988E+02
   -1.550014   31.37061  0.1177E-13  0.1506E-04  0.6268E-07  0.1212E-02  0.9127E-04  0.2971E+02
   -1.600014   31.37143  0.1177E-13  0.1456E-04  0.6978E-07  0.1055E-02  0.8381E-04  0.7558E+02
   -1.650014   31.37252  0.1177E-13  0.1390E-04  0.8070E-07  0.9843E-03  0.7542E-04  0.4447E+03
   -1.700013   31.37369  0.1177E-13  0.1300E-04  0.1001E-06  0.7894E-03  0.6748E-04  0.1161E+05
   -1.750012   31.37598  0.1177E-13  0.1184E-04  0.1320E-06  0.7237E-03  0.5629E-04  0.7667E+06
   -1.800011   31.37749  0.1177E-13  0.1036E-04  0.2022E-06  0.4968E-03  0.4850E-04  0.2138E+05
   -1.850009   31.38560  0.1177E-13  0.8765E-05  0.3324E-06  0.4657E-03  0.3380E-04  0.2710E+08
   -1.900007   31.38299  0.1177E-13  0.6958E-05  0.7015E-06  0.2139E-03  0.2778E-04  0.2284E+06
   -1.950004   31.40550  0.1177E-13  0.4944E-05  0.1702E-05  0.2069E-03  0.1475E-04 -0.2638E+06
   -2.000001   31.40748  0.1177E-13  0.0000E+00  0.0000E+00  0.0000E+00  0.2857E-04  0.0000E+00
