 1 - depth, m
 2 - temperature, C
 3 - salinity, kg/kg
 4 - turbulent kinetic energy, m**2/s**2
 5 - dissipation rate, m**2/s**3
 6 - kinematic heat conductance, m**2/s
 7 - modulus of horizontal velocity, m/s
 8 - Richardson number, n/d
   -0.000000   30.01714  0.2876E-13  0.4537E-05  0.2721E-06  0.4882E-04  0.1426E-02  0.9040E+04
   -0.049997   30.04567  0.2876E-13  0.7816E-05  0.1213E-06  0.1741E-03  0.8095E-03  0.1160E+04
   -0.099994   30.05654  0.2876E-13  0.9483E-05  0.8366E-07  0.3919E-03  0.5922E-03  0.2299E+02
   -0.149992   30.05956  0.2876E-13  0.1053E-04  0.7032E-07  0.4727E-03  0.5227E-03  0.1121E+02
   -0.199991   30.06196  0.2876E-13  0.1134E-04  0.6251E-07  0.6304E-03  0.4665E-03  0.7217E+01
   -0.249989   30.06371  0.2876E-13  0.1199E-04  0.5740E-07  0.7538E-03  0.4244E-03  0.5322E+01
   -0.299989   30.06513  0.2876E-13  0.1253E-04  0.5376E-07  0.8763E-03  0.3893E-03  0.4243E+01
   -0.349988   30.06633  0.2876E-13  0.1297E-04  0.5103E-07  0.9875E-03  0.3593E-03  0.3626E+01
   -0.399988   30.06737  0.2876E-13  0.1334E-04  0.4891E-07  0.1089E-02  0.3327E-03  0.3238E+01
   -0.449988   30.06829  0.2876E-13  0.1367E-04  0.4720E-07  0.1184E-02  0.3094E-03  0.3035E+01
   -0.499988   30.06912  0.2876E-13  0.1395E-04  0.4579E-07  0.1271E-02  0.2887E-03  0.2959E+01
   -0.549989   30.06989  0.2876E-13  0.1420E-04  0.4461E-07  0.1351E-02  0.2703E-03  0.2916E+01
   -0.599990   30.07059  0.2876E-13  0.1441E-04  0.4362E-07  0.1423E-02  0.2536E-03  0.2925E+01
   -0.649991   30.07125  0.2876E-13  0.1459E-04  0.4279E-07  0.1489E-02  0.2384E-03  0.2958E+01
   -0.699992   30.07187  0.2876E-13  0.1475E-04  0.4210E-07  0.1546E-02  0.2244E-03  0.3033E+01
   -0.749993   30.07246  0.2876E-13  0.1489E-04  0.4152E-07  0.1597E-02  0.2115E-03  0.3130E+01
   -0.799995   30.07303  0.2876E-13  0.1500E-04  0.4105E-07  0.1640E-02  0.1994E-03  0.3271E+01
   -0.849996   30.07357  0.2876E-13  0.1509E-04  0.4068E-07  0.1675E-02  0.1883E-03  0.3436E+01
   -0.899998   30.07410  0.2876E-13  0.1516E-04  0.4040E-07  0.1703E-02  0.1777E-03  0.3653E+01
   -0.950000   30.07462  0.2876E-13  0.1521E-04  0.4022E-07  0.1723E-02  0.1678E-03  0.3906E+01
   -1.000001   30.07513  0.2876E-13  0.1524E-04  0.4012E-07  0.1735E-02  0.1585E-03  0.4228E+01
   -1.050003   30.07563  0.2876E-13  0.1525E-04  0.4012E-07  0.1738E-02  0.1496E-03  0.4791E+01
   -1.100005   30.07612  0.2876E-13  0.1524E-04  0.4023E-07  0.1815E-02  0.1412E-03  0.1609E+02
   -1.150006   30.07659  0.2876E-13  0.1521E-04  0.4045E-07  0.1669E-02  0.1336E-03  0.3534E+02
   -1.200008   30.07711  0.2876E-13  0.1516E-04  0.4079E-07  0.1687E-02  0.1258E-03  0.6886E+01
   -1.250010   30.07761  0.2876E-13  0.1508E-04  0.4129E-07  0.1658E-02  0.1184E-03  0.7369E+01
   -1.300011   30.07812  0.2876E-13  0.1498E-04  0.4197E-07  0.1612E-02  0.1112E-03  0.8591E+01
   -1.350012   30.07865  0.2876E-13  0.1485E-04  0.4288E-07  0.1556E-02  0.1042E-03  0.1026E+02
   -1.400013   30.07919  0.2876E-13  0.1469E-04  0.4409E-07  0.1483E-02  0.9748E-04  0.1259E+02
   -1.450014   30.07976  0.2876E-13  0.1449E-04  0.4572E-07  0.1409E-02  0.9084E-04  0.1593E+02
   -1.500015   30.08036  0.2876E-13  0.1424E-04  0.4795E-07  0.1301E-02  0.8436E-04  0.2133E+02
   -1.550015   30.08102  0.2876E-13  0.1393E-04  0.5105E-07  0.1220E-02  0.7785E-04  0.2978E+02
   -1.600015   30.08173  0.2876E-13  0.1355E-04  0.5567E-07  0.1073E-02  0.7150E-04  0.5127E+02
   -1.650015   30.08257  0.2876E-13  0.1307E-04  0.6264E-07  0.1003E-02  0.6474E-04  0.1400E+03
   -1.700014   30.08349  0.2876E-13  0.1240E-04  0.7528E-07  0.8139E-03  0.5833E-04 -0.6462E+04
   -1.750013   30.08513  0.2876E-13  0.1149E-04  0.9605E-07  0.7425E-03  0.4973E-04  0.1379E+05
   -1.800012   30.08651  0.2876E-13  0.1023E-04  0.1386E-06  0.5173E-03  0.4295E-04  0.3939E+04
   -1.850010   30.09185  0.2876E-13  0.8741E-05  0.2199E-06  0.4746E-03  0.3119E-04  0.5091E+08
   -1.900008   30.09146  0.2876E-13  0.6944E-05  0.4515E-06  0.2127E-03  0.2534E-04  0.3088E+04
   -1.950006   30.10928  0.2876E-13  0.4812E-05  0.1167E-05  0.1751E-03  0.1383E-04 -0.7820E+06
   -2.000003   30.11219  0.2876E-13  0.0000E+00  0.0000E+00  0.0000E+00  0.2397E-04  0.0000E+00
