 1 - depth, m
 2 - temperature, C
 3 - salinity, kg/kg
 4 - turbulent kinetic energy, m**2/s**2
 5 - dissipation rate, m**2/s**3
 6 - kinematic heat conductance, m**2/s
 7 - modulus of horizontal velocity, m/s
 8 - Richardson number, n/d
   -0.000000   30.39987  0.2336E-13  0.4457E-05  0.2611E-06  0.4616E-04  0.4998E-03  0.1827E+06
   -0.049997   30.42967  0.2336E-13  0.7941E-05  0.1159E-06  0.1863E-03  0.2759E-03  0.5307E+03
   -0.099994   30.43923  0.2336E-13  0.9568E-05  0.8128E-07  0.4064E-03  0.2038E-03  0.2433E+03
   -0.149992   30.44209  0.2336E-13  0.1060E-04  0.6887E-07  0.4879E-03  0.1804E-03  0.1206E+03
   -0.199991   30.44437  0.2336E-13  0.1141E-04  0.6153E-07  0.6464E-03  0.1614E-03  0.7979E+02
   -0.249989   30.44605  0.2336E-13  0.1205E-04  0.5668E-07  0.7707E-03  0.1471E-03  0.5950E+02
   -0.299988   30.44742  0.2336E-13  0.1258E-04  0.5321E-07  0.8931E-03  0.1351E-03  0.4788E+02
   -0.349988   30.44858  0.2336E-13  0.1303E-04  0.5061E-07  0.1004E-02  0.1249E-03  0.4102E+02
   -0.399988   30.44959  0.2336E-13  0.1340E-04  0.4859E-07  0.1106E-02  0.1157E-03  0.3681E+02
   -0.449988   30.45048  0.2336E-13  0.1373E-04  0.4696E-07  0.1200E-02  0.1077E-03  0.3449E+02
   -0.499988   30.45130  0.2336E-13  0.1401E-04  0.4561E-07  0.1287E-02  0.1006E-03  0.3375E+02
   -0.549989   30.45204  0.2336E-13  0.1426E-04  0.4449E-07  0.1367E-02  0.9427E-04  0.3319E+02
   -0.599990   30.45273  0.2336E-13  0.1447E-04  0.4356E-07  0.1439E-02  0.8849E-04  0.3342E+02
   -0.649991   30.45338  0.2336E-13  0.1466E-04  0.4277E-07  0.1504E-02  0.8325E-04  0.3370E+02
   -0.699992   30.45399  0.2336E-13  0.1482E-04  0.4212E-07  0.1561E-02  0.7840E-04  0.3471E+02
   -0.749993   30.45457  0.2336E-13  0.1496E-04  0.4159E-07  0.1611E-02  0.7394E-04  0.3569E+02
   -0.799995   30.45513  0.2336E-13  0.1508E-04  0.4116E-07  0.1653E-02  0.6978E-04  0.3748E+02
   -0.849996   30.45567  0.2336E-13  0.1517E-04  0.4083E-07  0.1688E-02  0.6590E-04  0.3922E+02
   -0.899998   30.45619  0.2336E-13  0.1525E-04  0.4059E-07  0.1715E-02  0.6224E-04  0.4192E+02
   -0.950000   30.45670  0.2336E-13  0.1530E-04  0.4045E-07  0.1734E-02  0.5882E-04  0.4465E+02
   -1.000001   30.45721  0.2336E-13  0.1534E-04  0.4039E-07  0.1745E-02  0.5556E-04  0.4860E+02
   -1.050003   30.45770  0.2336E-13  0.1535E-04  0.4043E-07  0.1747E-02  0.5248E-04  0.5485E+02
   -1.100005   30.45820  0.2336E-13  0.1535E-04  0.4058E-07  0.1828E-02  0.4953E-04  0.1844E+03
   -1.150006   30.45867  0.2336E-13  0.1532E-04  0.4085E-07  0.1672E-02  0.4690E-04  0.4088E+03
   -1.200008   30.45918  0.2336E-13  0.1527E-04  0.4124E-07  0.1692E-02  0.4418E-04  0.7918E+02
   -1.250009   30.45969  0.2336E-13  0.1520E-04  0.4179E-07  0.1662E-02  0.4157E-04  0.8517E+02
   -1.300011   30.46021  0.2336E-13  0.1510E-04  0.4253E-07  0.1615E-02  0.3906E-04  0.9909E+02
   -1.350012   30.46074  0.2336E-13  0.1497E-04  0.4352E-07  0.1558E-02  0.3662E-04  0.1190E+03
   -1.400013   30.46128  0.2336E-13  0.1481E-04  0.4482E-07  0.1483E-02  0.3426E-04  0.1459E+03
   -1.450014   30.46186  0.2336E-13  0.1460E-04  0.4655E-07  0.1408E-02  0.3193E-04  0.1858E+03
   -1.500014   30.46248  0.2336E-13  0.1435E-04  0.4892E-07  0.1299E-02  0.2966E-04  0.2489E+03
   -1.550015   30.46315  0.2336E-13  0.1404E-04  0.5221E-07  0.1215E-02  0.2737E-04  0.3510E+03
   -1.600015   30.46387  0.2336E-13  0.1365E-04  0.5718E-07  0.1071E-02  0.2514E-04  0.6238E+03
   -1.650015   30.46475  0.2336E-13  0.1315E-04  0.6470E-07  0.9942E-03  0.2273E-04  0.4083E+05
   -1.700014   30.46571  0.2336E-13  0.1247E-04  0.7812E-07  0.8110E-03  0.2045E-04 -0.9257E+04
   -1.750013   30.46743  0.2336E-13  0.1153E-04  0.1005E-06  0.7342E-03  0.1738E-04  0.4465E+06
   -1.800012   30.46894  0.2336E-13  0.1025E-04  0.1463E-06  0.5172E-03  0.1497E-04  0.3677E+07
   -1.850010   30.47443  0.2336E-13  0.8757E-05  0.2328E-06  0.4687E-03  0.1088E-04  0.5442E+08
   -1.900008   30.47399  0.2336E-13  0.6939E-05  0.4909E-06  0.2129E-03  0.8807E-05 -0.8384E+06
   -1.950006   30.49244  0.2336E-13  0.4827E-05  0.1239E-05  0.1791E-03  0.4793E-05 -0.1962E+08
   -2.000003   30.49536  0.2336E-13  0.0000E+00  0.0000E+00  0.0000E+00  0.8466E-05  0.0000E+00
