 1 - depth, m
 2 - temperature, C
 3 - salinity, kg/kg
 4 - turbulent kinetic energy, m**2/s**2
 5 - dissipation rate, m**2/s**3
 6 - kinematic heat conductance, m**2/s
 7 - modulus of horizontal velocity, m/s
 8 - Richardson number, n/d
   -0.000000   29.91039  0.1044E-14  0.4613E-05  0.2805E-06  0.4961E-04  0.1345E-02  0.2667E+04
   -0.049997   29.93981  0.1044E-14  0.7937E-05  0.1251E-06  0.1726E-03  0.7685E-03  0.1116E+04
   -0.099994   29.95137  0.1044E-14  0.9633E-05  0.8601E-07  0.3939E-03  0.5599E-03  0.2674E+02
   -0.149992   29.95452  0.1044E-14  0.1069E-04  0.7229E-07  0.4718E-03  0.4945E-03  0.1298E+02
   -0.199991   29.95704  0.1044E-14  0.1150E-04  0.6421E-07  0.6297E-03  0.4412E-03  0.8354E+01
   -0.249989   29.95887  0.1044E-14  0.1215E-04  0.5889E-07  0.7526E-03  0.4014E-03  0.6166E+01
   -0.299989   29.96036  0.1044E-14  0.1268E-04  0.5509E-07  0.8745E-03  0.3682E-03  0.4901E+01
   -0.349988   29.96161  0.1044E-14  0.1311E-04  0.5222E-07  0.9851E-03  0.3397E-03  0.4190E+01
   -0.399988   29.96269  0.1044E-14  0.1348E-04  0.4998E-07  0.1086E-02  0.3146E-03  0.3730E+01
   -0.449988   29.96365  0.1044E-14  0.1379E-04  0.4815E-07  0.1180E-02  0.2925E-03  0.3503E+01
   -0.499988   29.96451  0.1044E-14  0.1406E-04  0.4663E-07  0.1267E-02  0.2729E-03  0.3406E+01
   -0.549989   29.96530  0.1044E-14  0.1429E-04  0.4535E-07  0.1346E-02  0.2554E-03  0.3362E+01
   -0.599990   29.96603  0.1044E-14  0.1449E-04  0.4426E-07  0.1417E-02  0.2396E-03  0.3359E+01
   -0.649991   29.96671  0.1044E-14  0.1466E-04  0.4333E-07  0.1482E-02  0.2251E-03  0.3400E+01
   -0.699992   29.96735  0.1044E-14  0.1480E-04  0.4254E-07  0.1539E-02  0.2119E-03  0.3469E+01
   -0.749993   29.96795  0.1044E-14  0.1491E-04  0.4186E-07  0.1589E-02  0.1996E-03  0.3580E+01
   -0.799995   29.96853  0.1044E-14  0.1501E-04  0.4129E-07  0.1632E-02  0.1883E-03  0.3719E+01
   -0.849997   29.96909  0.1044E-14  0.1508E-04  0.4081E-07  0.1667E-02  0.1776E-03  0.3904E+01
   -0.899998   29.96962  0.1044E-14  0.1512E-04  0.4043E-07  0.1694E-02  0.1677E-03  0.4125E+01
   -0.950000   29.97014  0.1044E-14  0.1515E-04  0.4013E-07  0.1714E-02  0.1583E-03  0.4405E+01
   -1.000002   29.97065  0.1044E-14  0.1516E-04  0.3993E-07  0.1726E-02  0.1495E-03  0.4735E+01
   -1.050003   29.97115  0.1044E-14  0.1515E-04  0.3981E-07  0.1728E-02  0.1410E-03  0.5348E+01
   -1.100005   29.97164  0.1044E-14  0.1511E-04  0.3980E-07  0.1808E-02  0.1330E-03  0.1778E+02
   -1.150007   29.97211  0.1044E-14  0.1506E-04  0.3990E-07  0.1656E-02  0.1259E-03  0.3951E+02
   -1.200008   29.97261  0.1044E-14  0.1499E-04  0.4011E-07  0.1677E-02  0.1185E-03  0.7617E+01
   -1.250010   29.97310  0.1044E-14  0.1489E-04  0.4047E-07  0.1649E-02  0.1115E-03  0.8061E+01
   -1.300011   29.97360  0.1044E-14  0.1476E-04  0.4101E-07  0.1603E-02  0.1047E-03  0.9374E+01
   -1.350012   29.97411  0.1044E-14  0.1461E-04  0.4177E-07  0.1547E-02  0.9813E-04  0.1112E+02
   -1.400014   29.97463  0.1044E-14  0.1442E-04  0.4282E-07  0.1475E-02  0.9174E-04  0.1361E+02
   -1.450014   29.97517  0.1044E-14  0.1419E-04  0.4426E-07  0.1400E-02  0.8549E-04  0.1714E+02
   -1.500015   29.97574  0.1044E-14  0.1392E-04  0.4627E-07  0.1293E-02  0.7936E-04  0.2291E+02
   -1.550015   29.97635  0.1044E-14  0.1360E-04  0.4913E-07  0.1210E-02  0.7323E-04  0.3192E+02
   -1.600015   29.97701  0.1044E-14  0.1320E-04  0.5345E-07  0.1068E-02  0.6722E-04  0.5509E+02
   -1.650015   29.97779  0.1044E-14  0.1269E-04  0.6013E-07  0.9907E-03  0.6088E-04  0.3409E+04
   -1.700015   29.97866  0.1044E-14  0.1200E-04  0.7222E-07  0.8098E-03  0.5470E-04 -0.2624E+03
   -1.750014   29.98015  0.1044E-14  0.1108E-04  0.9220E-07  0.7321E-03  0.4666E-04  0.5950E+05
   -1.800013   29.98147  0.1044E-14  0.9812E-05  0.1328E-06  0.5148E-03  0.4011E-04  0.6167E+05
   -1.850011   29.98629  0.1044E-14  0.8328E-05  0.2108E-06  0.4637E-03  0.2919E-04  0.6577E+07
   -1.900009   29.98588  0.1044E-14  0.6549E-05  0.4388E-06  0.2098E-03  0.2354E-04 -0.8021E+05
   -1.950006   30.00172  0.1044E-14  0.4511E-05  0.1119E-05  0.1756E-03  0.1272E-04 -0.1143E+07
   -2.000003   30.00343  0.1044E-14  0.0000E+00  0.0000E+00  0.0000E+00  0.2276E-04  0.0000E+00
