 1 - depth, m
 2 - temperature, C
 3 - salinity, kg/kg
 4 - turbulent kinetic energy, m**2/s**2
 5 - dissipation rate, m**2/s**3
 6 - kinematic heat conductance, m**2/s
 7 - modulus of horizontal velocity, m/s
 8 - Richardson number, n/d
   -0.000000   30.29966  0.1903E-14  0.4864E-05  0.3036E-06  0.4904E-04  0.9993E-03  0.3337E+04
   -0.049997   30.33185  0.1903E-14  0.8452E-05  0.1348E-06  0.1862E-03  0.5587E-03  0.5414E+02
   -0.099994   30.34335  0.1903E-14  0.1023E-04  0.9349E-07  0.4059E-03  0.4135E-03  0.4939E+02
   -0.149992   30.34662  0.1903E-14  0.1135E-04  0.7867E-07  0.4908E-03  0.3657E-03  0.2433E+02
   -0.199991   30.34922  0.1903E-14  0.1223E-04  0.6997E-07  0.6535E-03  0.3270E-03  0.1569E+02
   -0.249989   30.35111  0.1903E-14  0.1292E-04  0.6427E-07  0.7795E-03  0.2981E-03  0.1162E+02
   -0.299988   30.35266  0.1903E-14  0.1349E-04  0.6020E-07  0.9059E-03  0.2739E-03  0.9274E+01
   -0.349988   30.35395  0.1903E-14  0.1396E-04  0.5716E-07  0.1020E-02  0.2532E-03  0.7931E+01
   -0.399988   30.35508  0.1903E-14  0.1436E-04  0.5479E-07  0.1124E-02  0.2349E-03  0.7087E+01
   -0.449988   30.35608  0.1903E-14  0.1470E-04  0.5287E-07  0.1221E-02  0.2188E-03  0.6644E+01
   -0.499988   30.35699  0.1903E-14  0.1500E-04  0.5128E-07  0.1309E-02  0.2045E-03  0.6480E+01
   -0.549989   30.35781  0.1903E-14  0.1525E-04  0.4996E-07  0.1390E-02  0.1917E-03  0.6382E+01
   -0.599990   30.35858  0.1903E-14  0.1547E-04  0.4884E-07  0.1464E-02  0.1800E-03  0.6404E+01
   -0.649991   30.35929  0.1903E-14  0.1566E-04  0.4790E-07  0.1529E-02  0.1695E-03  0.6470E+01
   -0.699992   30.35997  0.1903E-14  0.1582E-04  0.4711E-07  0.1587E-02  0.1597E-03  0.6640E+01
   -0.749993   30.36061  0.1903E-14  0.1596E-04  0.4646E-07  0.1637E-02  0.1507E-03  0.6844E+01
   -0.799995   30.36123  0.1903E-14  0.1606E-04  0.4592E-07  0.1680E-02  0.1423E-03  0.7159E+01
   -0.849996   30.36182  0.1903E-14  0.1615E-04  0.4549E-07  0.1714E-02  0.1345E-03  0.7513E+01
   -0.899998   30.36240  0.1903E-14  0.1621E-04  0.4517E-07  0.1740E-02  0.1271E-03  0.8002E+01
   -0.949999   30.36296  0.1903E-14  0.1625E-04  0.4495E-07  0.1757E-02  0.1202E-03  0.8553E+01
   -1.000001   30.36351  0.1903E-14  0.1627E-04  0.4483E-07  0.1767E-02  0.1136E-03  0.9281E+01
   -1.050003   30.36405  0.1903E-14  0.1626E-04  0.4483E-07  0.1766E-02  0.1074E-03  0.1050E+02
   -1.100005   30.36459  0.1903E-14  0.1623E-04  0.4494E-07  0.1861E-02  0.1014E-03  0.3461E+02
   -1.150006   30.36510  0.1903E-14  0.1618E-04  0.4520E-07  0.1668E-02  0.9615E-04  0.8126E+02
   -1.200008   30.36567  0.1903E-14  0.1611E-04  0.4559E-07  0.1700E-02  0.9059E-04  0.1537E+02
   -1.250009   30.36622  0.1903E-14  0.1600E-04  0.4618E-07  0.1669E-02  0.8528E-04  0.1648E+02
   -1.300011   30.36678  0.1903E-14  0.1587E-04  0.4699E-07  0.1616E-02  0.8019E-04  0.1934E+02
   -1.350012   30.36735  0.1903E-14  0.1570E-04  0.4808E-07  0.1555E-02  0.7523E-04  0.2340E+02
   -1.400013   30.36795  0.1903E-14  0.1549E-04  0.4957E-07  0.1473E-02  0.7040E-04  0.2915E+02
   -1.450014   30.36858  0.1903E-14  0.1524E-04  0.5160E-07  0.1396E-02  0.6563E-04  0.3769E+02
   -1.500014   30.36925  0.1903E-14  0.1493E-04  0.5443E-07  0.1277E-02  0.6096E-04  0.5236E+02
   -1.550015   30.36999  0.1903E-14  0.1455E-04  0.5844E-07  0.1199E-02  0.5622E-04  0.7634E+02
   -1.600015   30.37078  0.1903E-14  0.1407E-04  0.6478E-07  0.1047E-02  0.5162E-04  0.2114E+03
   -1.650014   30.37181  0.1903E-14  0.1345E-04  0.7457E-07  0.9729E-03  0.4652E-04  0.1016E+05
   -1.700014   30.37292  0.1903E-14  0.1260E-04  0.9203E-07  0.7843E-03  0.4162E-04  0.4957E+04
   -1.750013   30.37508  0.1903E-14  0.1149E-04  0.1208E-06  0.7163E-03  0.3484E-04  0.2234E+06
   -1.800012   30.37659  0.1903E-14  0.1005E-04  0.1835E-06  0.4885E-03  0.2995E-04  0.5629E+06
   -1.850010   30.38407  0.1903E-14  0.8482E-05  0.3008E-06  0.4580E-03  0.2094E-04  0.1070E+09
   -1.900008   30.38201  0.1903E-14  0.6701E-05  0.6370E-06  0.2085E-03  0.1709E-04 -0.4721E+06
   -1.950005   30.40343  0.1903E-14  0.4739E-05  0.1556E-05  0.2010E-03  0.9002E-05 -0.8394E+06
   -2.000002   30.40520  0.1903E-14  0.0000E+00  0.0000E+00  0.0000E+00  0.1747E-04  0.0000E+00
