 1 - depth, m
 2 - temperature, C
 3 - salinity, kg/kg
 4 - turbulent kinetic energy, m**2/s**2
 5 - dissipation rate, m**2/s**3
 6 - kinematic heat conductance, m**2/s
 7 - modulus of horizontal velocity, m/s
 8 - Richardson number, n/d
   -0.000000   31.05085  0.1184E-13  0.5529E-05  0.3721E-06  0.5477E-04  0.1949E-02  0.5687E+04
   -0.049997   31.08490  0.1184E-13  0.9310E-05  0.1656E-06  0.1842E-03  0.1124E-02  0.1869E+04
   -0.099994   31.09846  0.1184E-13  0.1131E-04  0.1131E-06  0.4150E-03  0.8267E-03  0.1352E+02
   -0.149992   31.10218  0.1184E-13  0.1256E-04  0.9442E-07  0.4963E-03  0.7314E-03  0.6679E+01
   -0.199990   31.10516  0.1184E-13  0.1354E-04  0.8356E-07  0.6686E-03  0.6537E-03  0.4241E+01
   -0.249989   31.10730  0.1184E-13  0.1431E-04  0.7649E-07  0.7991E-03  0.5961E-03  0.3125E+01
   -0.299988   31.10904  0.1184E-13  0.1494E-04  0.7148E-07  0.9317E-03  0.5482E-03  0.2478E+01
   -0.349987   31.11050  0.1184E-13  0.1546E-04  0.6774E-07  0.1051E-02  0.5071E-03  0.2115E+01
   -0.399987   31.11176  0.1184E-13  0.1590E-04  0.6484E-07  0.1160E-02  0.4709E-03  0.1880E+01
   -0.449987   31.11287  0.1184E-13  0.1627E-04  0.6248E-07  0.1261E-02  0.4390E-03  0.1762E+01
   -0.499987   31.11388  0.1184E-13  0.1660E-04  0.6054E-07  0.1354E-02  0.4108E-03  0.1710E+01
   -0.549988   31.11480  0.1184E-13  0.1687E-04  0.5891E-07  0.1438E-02  0.3855E-03  0.1686E+01
   -0.599989   31.11565  0.1184E-13  0.1711E-04  0.5755E-07  0.1515E-02  0.3625E-03  0.1683E+01
   -0.649990   31.11644  0.1184E-13  0.1732E-04  0.5640E-07  0.1583E-02  0.3416E-03  0.1702E+01
   -0.699991   31.11719  0.1184E-13  0.1749E-04  0.5543E-07  0.1643E-02  0.3223E-03  0.1735E+01
   -0.749992   31.11790  0.1184E-13  0.1763E-04  0.5463E-07  0.1695E-02  0.3045E-03  0.1791E+01
   -0.799994   31.11858  0.1184E-13  0.1774E-04  0.5397E-07  0.1738E-02  0.2879E-03  0.1862E+01
   -0.849995   31.11924  0.1184E-13  0.1782E-04  0.5344E-07  0.1773E-02  0.2724E-03  0.1959E+01
   -0.899997   31.11987  0.1184E-13  0.1788E-04  0.5305E-07  0.1799E-02  0.2578E-03  0.2074E+01
   -0.949998   31.12049  0.1184E-13  0.1792E-04  0.5278E-07  0.1816E-02  0.2441E-03  0.2224E+01
   -1.000000   31.12110  0.1184E-13  0.1793E-04  0.5264E-07  0.1824E-02  0.2310E-03  0.2402E+01
   -1.050002   31.12170  0.1184E-13  0.1791E-04  0.5263E-07  0.1821E-02  0.2186E-03  0.2725E+01
   -1.100003   31.12230  0.1184E-13  0.1787E-04  0.5277E-07  0.1931E-02  0.2068E-03  0.8832E+01
   -1.150005   31.12286  0.1184E-13  0.1780E-04  0.5310E-07  0.1700E-02  0.1963E-03  0.2156E+02
   -1.200006   31.12349  0.1184E-13  0.1770E-04  0.5359E-07  0.1744E-02  0.1851E-03  0.4022E+01
   -1.250008   31.12411  0.1184E-13  0.1757E-04  0.5432E-07  0.1711E-02  0.1745E-03  0.4291E+01
   -1.300009   31.12473  0.1184E-13  0.1741E-04  0.5534E-07  0.1653E-02  0.1642E-03  0.5076E+01
   -1.350010   31.12537  0.1184E-13  0.1720E-04  0.5674E-07  0.1586E-02  0.1543E-03  0.6159E+01
   -1.400011   31.12604  0.1184E-13  0.1695E-04  0.5866E-07  0.1499E-02  0.1445E-03  0.7774E+01
   -1.450012   31.12676  0.1184E-13  0.1665E-04  0.6130E-07  0.1415E-02  0.1349E-03  0.1019E+02
   -1.500012   31.12752  0.1184E-13  0.1627E-04  0.6503E-07  0.1296E-02  0.1253E-03  0.1448E+02
   -1.550013   31.12837  0.1184E-13  0.1582E-04  0.7048E-07  0.1211E-02  0.1157E-03  0.2311E+02
   -1.600013   31.12930  0.1184E-13  0.1524E-04  0.7917E-07  0.1063E-02  0.1061E-03 -0.8045E+03
   -1.650012   31.13054  0.1184E-13  0.1447E-04  0.9283E-07  0.9759E-03  0.9544E-04  0.2094E+05
   -1.700012   31.13199  0.1184E-13  0.1342E-04  0.1175E-06  0.7917E-03  0.8465E-04  0.5420E+04
   -1.750011   31.13461  0.1184E-13  0.1217E-04  0.1559E-06  0.7183E-03  0.7035E-04  0.2210E+06
   -1.800010   31.13621  0.1184E-13  0.1057E-04  0.2388E-06  0.4877E-03  0.6059E-04  0.2192E+05
   -1.850008   31.14635  0.1184E-13  0.8948E-05  0.3996E-06  0.4673E-03  0.4140E-04  0.1135E+09
   -1.900006   31.14216  0.1184E-13  0.7112E-05  0.8400E-06  0.2129E-03  0.3437E-04 -0.2221E+06
   -1.950003   31.16858  0.1184E-13  0.5115E-05  0.1998E-05  0.2226E-03  0.1801E-04 -0.4216E+06
   -2.000000   31.16839  0.1184E-13  0.0000E+00  0.0000E+00  0.0000E+00  0.3639E-04  0.0000E+00
