 1 - depth, m
 2 - temperature, C
 3 - salinity, kg/kg
 4 - turbulent kinetic energy, m**2/s**2
 5 - dissipation rate, m**2/s**3
 6 - kinematic heat conductance, m**2/s
 7 - modulus of horizontal velocity, m/s
 8 - Richardson number, n/d
   -0.000000   31.16610  0.1387E-14  0.4993E-05  0.3188E-06  0.5192E-04  0.1658E-02  0.7988E+04
   -0.049997   31.19628  0.1387E-14  0.8517E-05  0.1421E-06  0.1781E-03  0.9533E-03  0.2454E+04
   -0.099994   31.20831  0.1387E-14  0.1036E-04  0.9733E-07  0.4053E-03  0.6964E-03  0.1696E+02
   -0.149992   31.21157  0.1387E-14  0.1152E-04  0.8154E-07  0.4853E-03  0.6155E-03  0.8331E+01
   -0.199991   31.21418  0.1387E-14  0.1242E-04  0.7235E-07  0.6520E-03  0.5497E-03  0.5325E+01
   -0.249989   31.21606  0.1387E-14  0.1314E-04  0.6637E-07  0.7795E-03  0.5007E-03  0.3929E+01
   -0.299988   31.21760  0.1387E-14  0.1372E-04  0.6213E-07  0.9079E-03  0.4600E-03  0.3128E+01
   -0.349988   31.21889  0.1387E-14  0.1421E-04  0.5897E-07  0.1024E-02  0.4251E-03  0.2675E+01
   -0.399987   31.22001  0.1387E-14  0.1463E-04  0.5653E-07  0.1130E-02  0.3943E-03  0.2385E+01
   -0.449988   31.22100  0.1387E-14  0.1498E-04  0.5455E-07  0.1228E-02  0.3672E-03  0.2238E+01
   -0.499988   31.22190  0.1387E-14  0.1529E-04  0.5293E-07  0.1319E-02  0.3432E-03  0.2177E+01
   -0.549988   31.22272  0.1387E-14  0.1556E-04  0.5158E-07  0.1402E-02  0.3217E-03  0.2147E+01
   -0.599989   31.22348  0.1387E-14  0.1580E-04  0.5045E-07  0.1477E-02  0.3023E-03  0.2150E+01
   -0.649990   31.22420  0.1387E-14  0.1600E-04  0.4951E-07  0.1544E-02  0.2845E-03  0.2177E+01
   -0.699991   31.22487  0.1387E-14  0.1617E-04  0.4873E-07  0.1603E-02  0.2682E-03  0.2231E+01
   -0.749993   31.22551  0.1387E-14  0.1632E-04  0.4809E-07  0.1654E-02  0.2532E-03  0.2306E+01
   -0.799994   31.22612  0.1387E-14  0.1644E-04  0.4757E-07  0.1698E-02  0.2391E-03  0.2409E+01
   -0.849996   31.22671  0.1387E-14  0.1654E-04  0.4717E-07  0.1733E-02  0.2260E-03  0.2536E+01
   -0.899997   31.22729  0.1387E-14  0.1661E-04  0.4688E-07  0.1760E-02  0.2137E-03  0.2698E+01
   -0.949999   31.22785  0.1387E-14  0.1667E-04  0.4670E-07  0.1778E-02  0.2021E-03  0.2893E+01
   -1.000001   31.22840  0.1387E-14  0.1669E-04  0.4663E-07  0.1788E-02  0.1911E-03  0.3136E+01
   -1.050002   31.22895  0.1387E-14  0.1670E-04  0.4668E-07  0.1788E-02  0.1807E-03  0.3562E+01
   -1.100004   31.22949  0.1387E-14  0.1669E-04  0.4685E-07  0.1882E-02  0.1707E-03  0.1176E+02
   -1.150006   31.23001  0.1387E-14  0.1664E-04  0.4718E-07  0.1693E-02  0.1618E-03  0.2737E+02
   -1.200007   31.23058  0.1387E-14  0.1658E-04  0.4765E-07  0.1723E-02  0.1525E-03  0.5221E+01
   -1.250009   31.23114  0.1387E-14  0.1649E-04  0.4832E-07  0.1692E-02  0.1437E-03  0.5599E+01
   -1.300010   31.23171  0.1387E-14  0.1636E-04  0.4923E-07  0.1639E-02  0.1351E-03  0.6590E+01
   -1.350011   31.23229  0.1387E-14  0.1620E-04  0.5044E-07  0.1578E-02  0.1268E-03  0.7960E+01
   -1.400012   31.23290  0.1387E-14  0.1600E-04  0.5206E-07  0.1496E-02  0.1187E-03  0.9938E+01
   -1.450013   31.23355  0.1387E-14  0.1576E-04  0.5426E-07  0.1418E-02  0.1107E-03  0.1284E+02
   -1.500014   31.23424  0.1387E-14  0.1545E-04  0.5730E-07  0.1301E-02  0.1029E-03  0.1783E+02
   -1.550014   31.23500  0.1387E-14  0.1508E-04  0.6160E-07  0.1221E-02  0.9497E-04  0.2637E+02
   -1.600014   31.23582  0.1387E-14  0.1460E-04  0.6836E-07  0.1070E-02  0.8723E-04  0.5976E+02
   -1.650014   31.23689  0.1387E-14  0.1397E-04  0.7878E-07  0.9926E-03  0.7862E-04  0.1015E+03
   -1.700013   31.23805  0.1387E-14  0.1312E-04  0.9702E-07  0.8077E-03  0.7035E-04  0.2058E+04
   -1.750012   31.24020  0.1387E-14  0.1202E-04  0.1270E-06  0.7306E-03  0.5913E-04  0.1719E+07
   -1.800011   31.24179  0.1387E-14  0.1059E-04  0.1902E-06  0.5119E-03  0.5090E-04  0.3018E+06
   -1.850009   31.24927  0.1387E-14  0.9025E-05  0.3109E-06  0.4718E-03  0.3610E-04  0.4781E+08
   -1.900007   31.24740  0.1387E-14  0.7211E-05  0.6542E-06  0.2167E-03  0.2950E-04 -0.3647E+06
   -1.950004   31.26934  0.1387E-14  0.5093E-05  0.1598E-05  0.1990E-03  0.1599E-04 -0.4931E+06
   -2.000001   31.27170  0.1387E-14  0.0000E+00  0.0000E+00  0.0000E+00  0.2977E-04  0.0000E+00
