 1 - depth, m
 2 - temperature, C
 3 - salinity, kg/kg
 4 - turbulent kinetic energy, m**2/s**2
 5 - dissipation rate, m**2/s**3
 6 - kinematic heat conductance, m**2/s
 7 - modulus of horizontal velocity, m/s
 8 - Richardson number, n/d
   -0.000000   29.94646  0.1299E-12  0.4250E-05  0.2403E-06  0.4494E-04  0.5657E-03  0.1344E+06
   -0.049997   29.97595  0.1299E-12  0.7523E-05  0.1070E-06  0.1786E-03  0.3112E-03  0.1059E+03
   -0.099994   29.98535  0.1299E-12  0.9040E-05  0.7497E-07  0.3914E-03  0.2294E-03  0.1428E+03
   -0.149992   29.98820  0.1299E-12  0.9992E-05  0.6349E-07  0.4712E-03  0.2027E-03  0.6947E+02
   -0.199991   29.99046  0.1299E-12  0.1073E-04  0.5664E-07  0.6212E-03  0.1811E-03  0.4570E+02
   -0.249989   29.99212  0.1299E-12  0.1132E-04  0.5207E-07  0.7409E-03  0.1647E-03  0.3394E+02
   -0.299989   29.99346  0.1299E-12  0.1179E-04  0.4877E-07  0.8573E-03  0.1511E-03  0.2715E+02
   -0.349988   29.99460  0.1299E-12  0.1219E-04  0.4627E-07  0.9635E-03  0.1393E-03  0.2324E+02
   -0.399988   29.99558  0.1299E-12  0.1252E-04  0.4431E-07  0.1061E-02  0.1289E-03  0.2074E+02
   -0.449988   29.99645  0.1299E-12  0.1281E-04  0.4271E-07  0.1151E-02  0.1198E-03  0.1946E+02
   -0.499988   29.99723  0.1299E-12  0.1305E-04  0.4138E-07  0.1234E-02  0.1117E-03  0.1896E+02
   -0.549989   29.99794  0.1299E-12  0.1327E-04  0.4025E-07  0.1310E-02  0.1044E-03  0.1868E+02
   -0.599990   29.99860  0.1299E-12  0.1345E-04  0.3930E-07  0.1379E-02  0.9782E-04  0.1871E+02
   -0.649991   29.99922  0.1299E-12  0.1361E-04  0.3849E-07  0.1441E-02  0.9184E-04  0.1891E+02
   -0.699992   29.99980  0.1299E-12  0.1374E-04  0.3780E-07  0.1497E-02  0.8635E-04  0.1936E+02
   -0.749993   30.00034  0.1299E-12  0.1385E-04  0.3722E-07  0.1545E-02  0.8128E-04  0.1996E+02
   -0.799995   30.00087  0.1299E-12  0.1394E-04  0.3674E-07  0.1587E-02  0.7657E-04  0.2082E+02
   -0.849996   30.00137  0.1299E-12  0.1401E-04  0.3634E-07  0.1621E-02  0.7218E-04  0.2185E+02
   -0.899998   30.00186  0.1299E-12  0.1407E-04  0.3602E-07  0.1648E-02  0.6806E-04  0.2319E+02
   -0.950000   30.00233  0.1299E-12  0.1410E-04  0.3579E-07  0.1667E-02  0.6419E-04  0.2476E+02
   -1.000002   30.00279  0.1299E-12  0.1412E-04  0.3564E-07  0.1680E-02  0.6053E-04  0.2674E+02
   -1.050003   30.00325  0.1299E-12  0.1412E-04  0.3557E-07  0.1683E-02  0.5706E-04  0.3026E+02
   -1.100005   30.00370  0.1299E-12  0.1410E-04  0.3559E-07  0.1754E-02  0.5376E-04  0.1020E+03
   -1.150007   30.00412  0.1299E-12  0.1406E-04  0.3572E-07  0.1626E-02  0.5081E-04  0.2209E+03
   -1.200008   30.00458  0.1299E-12  0.1401E-04  0.3594E-07  0.1639E-02  0.4780E-04  0.4314E+02
   -1.250010   30.00503  0.1299E-12  0.1393E-04  0.3630E-07  0.1611E-02  0.4490E-04  0.4600E+02
   -1.300011   30.00549  0.1299E-12  0.1383E-04  0.3681E-07  0.1569E-02  0.4212E-04  0.5340E+02
   -1.350012   30.00596  0.1299E-12  0.1371E-04  0.3752E-07  0.1516E-02  0.3943E-04  0.6350E+02
   -1.400013   30.00644  0.1299E-12  0.1356E-04  0.3848E-07  0.1449E-02  0.3682E-04  0.7729E+02
   -1.450014   30.00694  0.1299E-12  0.1337E-04  0.3977E-07  0.1377E-02  0.3427E-04  0.9717E+02
   -1.500015   30.00747  0.1299E-12  0.1314E-04  0.4154E-07  0.1277E-02  0.3178E-04  0.1281E+03
   -1.550015   30.00804  0.1299E-12  0.1287E-04  0.4402E-07  0.1193E-02  0.2930E-04  0.1767E+03
   -1.600015   30.00866  0.1299E-12  0.1253E-04  0.4766E-07  0.1057E-02  0.2687E-04  0.2790E+03
   -1.650015   30.00937  0.1299E-12  0.1210E-04  0.5316E-07  0.9798E-03  0.2434E-04  0.6856E+03
   -1.700014   30.01016  0.1299E-12  0.1153E-04  0.6306E-07  0.8046E-03  0.2190E-04  0.2742E+04
   -1.750014   30.01145  0.1299E-12  0.1073E-04  0.7955E-07  0.7291E-03  0.1879E-04  0.1401E+06
   -1.800012   30.01270  0.1299E-12  0.9602E-05  0.1125E-06  0.5122E-03  0.1617E-04  0.8386E+04
   -1.850011   30.01673  0.1299E-12  0.8206E-05  0.1761E-06  0.4613E-03  0.1188E-04  0.5789E+08
   -1.900009   30.01701  0.1299E-12  0.6502E-05  0.3632E-06  0.2090E-03  0.9526E-05  0.1504E+06
   -1.950006   30.03148  0.1299E-12  0.4444E-05  0.9517E-06  0.1600E-03  0.5209E-05 -0.6530E+07
   -2.000003   30.03551  0.1299E-12  0.0000E+00  0.0000E+00  0.0000E+00  0.8891E-05  0.0000E+00
