 1 - depth, m
 2 - temperature, C
 3 - salinity, kg/kg
 4 - turbulent kinetic energy, m**2/s**2
 5 - dissipation rate, m**2/s**3
 6 - kinematic heat conductance, m**2/s
 7 - modulus of horizontal velocity, m/s
 8 - Richardson number, n/d
   -0.000000   30.02299  0.5220E-14  0.4589E-05  0.2744E-06  0.4944E-04  0.1888E-02  0.4667E+04
   -0.049997   30.05071  0.5220E-14  0.7805E-05  0.1219E-06  0.1729E-03  0.1072E-02  0.1966E+03
   -0.099994   30.06146  0.5220E-14  0.9457E-05  0.8371E-07  0.3902E-03  0.7842E-03  0.1402E+02
   -0.149992   30.06445  0.5220E-14  0.1049E-04  0.7028E-07  0.4707E-03  0.6920E-03  0.6816E+01
   -0.199991   30.06683  0.5220E-14  0.1130E-04  0.6242E-07  0.6275E-03  0.6175E-03  0.4387E+01
   -0.249989   30.06856  0.5220E-14  0.1195E-04  0.5728E-07  0.7506E-03  0.5617E-03  0.3228E+01
   -0.299989   30.06998  0.5220E-14  0.1248E-04  0.5363E-07  0.8728E-03  0.5152E-03  0.2575E+01
   -0.349988   30.07117  0.5220E-14  0.1293E-04  0.5090E-07  0.9837E-03  0.4754E-03  0.2196E+01
   -0.399988   30.07220  0.5220E-14  0.1330E-04  0.4879E-07  0.1085E-02  0.4402E-03  0.1965E+01
   -0.449988   30.07312  0.5220E-14  0.1363E-04  0.4708E-07  0.1180E-02  0.4093E-03  0.1840E+01
   -0.499988   30.07395  0.5220E-14  0.1391E-04  0.4567E-07  0.1267E-02  0.3819E-03  0.1801E+01
   -0.549989   30.07471  0.5220E-14  0.1416E-04  0.4450E-07  0.1347E-02  0.3574E-03  0.1772E+01
   -0.599990   30.07542  0.5220E-14  0.1437E-04  0.4352E-07  0.1420E-02  0.3352E-03  0.1782E+01
   -0.649991   30.07607  0.5220E-14  0.1456E-04  0.4269E-07  0.1485E-02  0.3150E-03  0.1796E+01
   -0.699992   30.07669  0.5220E-14  0.1472E-04  0.4201E-07  0.1543E-02  0.2965E-03  0.1846E+01
   -0.749993   30.07729  0.5220E-14  0.1485E-04  0.4144E-07  0.1593E-02  0.2794E-03  0.1898E+01
   -0.799995   30.07785  0.5220E-14  0.1497E-04  0.4098E-07  0.1636E-02  0.2635E-03  0.1989E+01
   -0.849996   30.07840  0.5220E-14  0.1506E-04  0.4062E-07  0.1671E-02  0.2487E-03  0.2084E+01
   -0.899998   30.07893  0.5220E-14  0.1513E-04  0.4035E-07  0.1699E-02  0.2348E-03  0.2223E+01
   -0.950000   30.07944  0.5220E-14  0.1518E-04  0.4017E-07  0.1718E-02  0.2217E-03  0.2372E+01
   -1.000001   30.07995  0.5220E-14  0.1521E-04  0.4009E-07  0.1730E-02  0.2093E-03  0.2576E+01
   -1.050003   30.08045  0.5220E-14  0.1522E-04  0.4010E-07  0.1732E-02  0.1976E-03  0.2912E+01
   -1.100005   30.08095  0.5220E-14  0.1521E-04  0.4021E-07  0.1810E-02  0.1864E-03  0.9765E+01
   -1.150007   30.08142  0.5220E-14  0.1518E-04  0.4045E-07  0.1662E-02  0.1764E-03  0.2180E+02
   -1.200008   30.08194  0.5220E-14  0.1513E-04  0.4080E-07  0.1680E-02  0.1662E-03  0.4207E+01
   -1.250010   30.08245  0.5220E-14  0.1506E-04  0.4131E-07  0.1651E-02  0.1563E-03  0.4513E+01
   -1.300011   30.08296  0.5220E-14  0.1495E-04  0.4201E-07  0.1605E-02  0.1468E-03  0.5256E+01
   -1.350012   30.08349  0.5220E-14  0.1482E-04  0.4294E-07  0.1548E-02  0.1376E-03  0.6318E+01
   -1.400013   30.08404  0.5220E-14  0.1466E-04  0.4419E-07  0.1475E-02  0.1287E-03  0.7753E+01
   -1.450014   30.08462  0.5220E-14  0.1445E-04  0.4585E-07  0.1400E-02  0.1199E-03  0.9908E+01
   -1.500015   30.08523  0.5220E-14  0.1420E-04  0.4813E-07  0.1292E-02  0.1113E-03  0.1332E+02
   -1.550015   30.08589  0.5220E-14  0.1389E-04  0.5132E-07  0.1209E-02  0.1027E-03  0.1893E+02
   -1.600015   30.08661  0.5220E-14  0.1350E-04  0.5609E-07  0.1065E-02  0.9428E-04  0.3396E+02
   -1.650015   30.08748  0.5220E-14  0.1301E-04  0.6337E-07  0.9913E-03  0.8533E-04  0.2506E+03
   -1.700014   30.08843  0.5220E-14  0.1232E-04  0.7650E-07  0.8034E-03  0.7675E-04  0.2776E+04
   -1.750013   30.09012  0.5220E-14  0.1139E-04  0.9831E-07  0.7326E-03  0.6532E-04  0.3058E+05
   -1.800012   30.09162  0.5220E-14  0.1010E-04  0.1446E-06  0.5040E-03  0.5617E-04  0.1830E+05
   -1.850011   30.09715  0.5220E-14  0.8629E-05  0.2292E-06  0.4712E-03  0.4072E-04  0.4437E+08
   -1.900008   30.09646  0.5220E-14  0.6890E-05  0.4730E-06  0.2094E-03  0.3319E-04  0.1491E+05
   -1.950006   30.11465  0.5220E-14  0.4776E-05  0.1202E-05  0.1794E-03  0.1815E-04 -0.1293E+06
   -2.000003   30.11694  0.5220E-14  0.0000E+00  0.0000E+00  0.0000E+00  0.3165E-04  0.0000E+00
