 1 - depth, m
 2 - temperature, C
 3 - salinity, kg/kg
 4 - turbulent kinetic energy, m**2/s**2
 5 - dissipation rate, m**2/s**3
 6 - kinematic heat conductance, m**2/s
 7 - modulus of horizontal velocity, m/s
 8 - Richardson number, n/d
   -0.000000   29.86672  0.1288E-12  0.4285E-05  0.2501E-06  0.4777E-04  0.1115E-02  0.2057E+05
   -0.049997   29.89436  0.1288E-12  0.7419E-05  0.1111E-06  0.1660E-03  0.6358E-03  0.2222E+02
   -0.099994   29.90520  0.1288E-12  0.8993E-05  0.7638E-07  0.3871E-03  0.4587E-03  0.3907E+02
   -0.149992   29.90808  0.1288E-12  0.9958E-05  0.6439E-07  0.4610E-03  0.4051E-03  0.1866E+02
   -0.199991   29.91041  0.1288E-12  0.1071E-04  0.5727E-07  0.6128E-03  0.3612E-03  0.1208E+02
   -0.249989   29.91210  0.1288E-12  0.1130E-04  0.5255E-07  0.7319E-03  0.3282E-03  0.8930E+01
   -0.299989   29.91347  0.1288E-12  0.1178E-04  0.4917E-07  0.8489E-03  0.3007E-03  0.7102E+01
   -0.349988   29.91462  0.1288E-12  0.1218E-04  0.4661E-07  0.9555E-03  0.2771E-03  0.6078E+01
   -0.399988   29.91561  0.1288E-12  0.1252E-04  0.4461E-07  0.1053E-02  0.2563E-03  0.5405E+01
   -0.449988   29.91650  0.1288E-12  0.1280E-04  0.4297E-07  0.1144E-02  0.2379E-03  0.5080E+01
   -0.499988   29.91729  0.1288E-12  0.1305E-04  0.4161E-07  0.1227E-02  0.2217E-03  0.4932E+01
   -0.549989   29.91801  0.1288E-12  0.1327E-04  0.4047E-07  0.1304E-02  0.2072E-03  0.4872E+01
   -0.599990   29.91868  0.1288E-12  0.1345E-04  0.3950E-07  0.1373E-02  0.1941E-03  0.4864E+01
   -0.649991   29.91930  0.1288E-12  0.1361E-04  0.3867E-07  0.1436E-02  0.1822E-03  0.4931E+01
   -0.699992   29.91988  0.1288E-12  0.1375E-04  0.3797E-07  0.1492E-02  0.1712E-03  0.5029E+01
   -0.749993   29.92043  0.1288E-12  0.1386E-04  0.3738E-07  0.1540E-02  0.1611E-03  0.5202E+01
   -0.799995   29.92096  0.1288E-12  0.1395E-04  0.3689E-07  0.1582E-02  0.1518E-03  0.5403E+01
   -0.849996   29.92147  0.1288E-12  0.1402E-04  0.3648E-07  0.1617E-02  0.1430E-03  0.5688E+01
   -0.899998   29.92196  0.1288E-12  0.1408E-04  0.3616E-07  0.1644E-02  0.1348E-03  0.6010E+01
   -0.950000   29.92244  0.1288E-12  0.1411E-04  0.3592E-07  0.1664E-02  0.1271E-03  0.6438E+01
   -1.000002   29.92290  0.1288E-12  0.1413E-04  0.3576E-07  0.1676E-02  0.1199E-03  0.6921E+01
   -1.050003   29.92336  0.1288E-12  0.1413E-04  0.3569E-07  0.1680E-02  0.1130E-03  0.7857E+01
   -1.100005   29.92381  0.1288E-12  0.1411E-04  0.3570E-07  0.1750E-02  0.1064E-03  0.2635E+02
   -1.150007   29.92425  0.1288E-12  0.1408E-04  0.3582E-07  0.1625E-02  0.1006E-03  0.5706E+02
   -1.200008   29.92471  0.1288E-12  0.1402E-04  0.3604E-07  0.1637E-02  0.9460E-04  0.1118E+02
   -1.250010   29.92516  0.1288E-12  0.1395E-04  0.3639E-07  0.1610E-02  0.8886E-04  0.1185E+02
   -1.300011   29.92562  0.1288E-12  0.1385E-04  0.3690E-07  0.1568E-02  0.8334E-04  0.1379E+02
   -1.350012   29.92609  0.1288E-12  0.1372E-04  0.3760E-07  0.1515E-02  0.7801E-04  0.1631E+02
   -1.400013   29.92658  0.1288E-12  0.1357E-04  0.3855E-07  0.1449E-02  0.7284E-04  0.1989E+02
   -1.450014   29.92708  0.1288E-12  0.1338E-04  0.3983E-07  0.1376E-02  0.6779E-04  0.2486E+02
   -1.500015   29.92761  0.1288E-12  0.1316E-04  0.4158E-07  0.1278E-02  0.6285E-04  0.3277E+02
   -1.550015   29.92818  0.1288E-12  0.1288E-04  0.4403E-07  0.1193E-02  0.5795E-04  0.4487E+02
   -1.600015   29.92880  0.1288E-12  0.1254E-04  0.4764E-07  0.1058E-02  0.5314E-04  0.7129E+02
   -1.650015   29.92951  0.1288E-12  0.1212E-04  0.5309E-07  0.9766E-03  0.4815E-04  0.2041E+03
   -1.700014   29.93030  0.1288E-12  0.1155E-04  0.6274E-07  0.8083E-03  0.4329E-04  0.2619E+03
   -1.750014   29.93155  0.1288E-12  0.1075E-04  0.7905E-07  0.7233E-03  0.3730E-04 -0.3321E+05
   -1.800012   29.93286  0.1288E-12  0.9619E-05  0.1118E-06  0.5221E-03  0.3196E-04  0.1710E+07
   -1.850011   29.93663  0.1288E-12  0.8225E-05  0.1734E-06  0.4548E-03  0.2374E-04  0.8825E+07
   -1.900009   29.93709  0.1288E-12  0.6429E-05  0.3574E-06  0.2011E-03  0.1891E-04  0.3088E+06
   -1.950006   29.95167  0.1288E-12  0.4415E-05  0.9287E-06  0.1623E-03  0.1024E-04 -0.1010E+07
   -2.000003   29.95495  0.1288E-12  0.0000E+00  0.0000E+00  0.0000E+00  0.1765E-04  0.0000E+00
