 1 - depth, m
 2 - temperature, C
 3 - salinity, kg/kg
 4 - turbulent kinetic energy, m**2/s**2
 5 - dissipation rate, m**2/s**3
 6 - kinematic heat conductance, m**2/s
 7 - modulus of horizontal velocity, m/s
 8 - Richardson number, n/d
   -0.000000   31.15483  0.2825E-14  0.4988E-05  0.3184E-06  0.5189E-04  0.1658E-02  0.8302E+04
   -0.049997   31.18497  0.2825E-14  0.8508E-05  0.1418E-06  0.1780E-03  0.9536E-03  0.6702E+03
   -0.099994   31.19699  0.2825E-14  0.1035E-04  0.9714E-07  0.4053E-03  0.6964E-03  0.1694E+02
   -0.149992   31.20024  0.2825E-14  0.1150E-04  0.8140E-07  0.4852E-03  0.6156E-03  0.8318E+01
   -0.199991   31.20284  0.2825E-14  0.1240E-04  0.7222E-07  0.6518E-03  0.5498E-03  0.5317E+01
   -0.249989   31.20473  0.2825E-14  0.1312E-04  0.6625E-07  0.7793E-03  0.5008E-03  0.3924E+01
   -0.299988   31.20626  0.2825E-14  0.1371E-04  0.6202E-07  0.9076E-03  0.4600E-03  0.3124E+01
   -0.349988   31.20755  0.2825E-14  0.1420E-04  0.5887E-07  0.1023E-02  0.4251E-03  0.2672E+01
   -0.399987   31.20867  0.2825E-14  0.1461E-04  0.5643E-07  0.1130E-02  0.3943E-03  0.2382E+01
   -0.449988   31.20966  0.2825E-14  0.1497E-04  0.5445E-07  0.1228E-02  0.3672E-03  0.2235E+01
   -0.499988   31.21056  0.2825E-14  0.1528E-04  0.5283E-07  0.1318E-02  0.3432E-03  0.2175E+01
   -0.549988   31.21138  0.2825E-14  0.1555E-04  0.5149E-07  0.1401E-02  0.3217E-03  0.2145E+01
   -0.599989   31.21214  0.2825E-14  0.1578E-04  0.5036E-07  0.1476E-02  0.3023E-03  0.2148E+01
   -0.649990   31.21285  0.2825E-14  0.1598E-04  0.4943E-07  0.1543E-02  0.2845E-03  0.2176E+01
   -0.699991   31.21352  0.2825E-14  0.1616E-04  0.4865E-07  0.1602E-02  0.2682E-03  0.2229E+01
   -0.749993   31.21415  0.2825E-14  0.1630E-04  0.4800E-07  0.1654E-02  0.2531E-03  0.2305E+01
   -0.799994   31.21477  0.2825E-14  0.1642E-04  0.4749E-07  0.1697E-02  0.2391E-03  0.2407E+01
   -0.849996   31.21536  0.2825E-14  0.1652E-04  0.4709E-07  0.1732E-02  0.2260E-03  0.2535E+01
   -0.899997   31.21593  0.2825E-14  0.1659E-04  0.4680E-07  0.1759E-02  0.2137E-03  0.2696E+01
   -0.949999   31.21649  0.2825E-14  0.1665E-04  0.4662E-07  0.1778E-02  0.2021E-03  0.2893E+01
   -1.000001   31.21704  0.2825E-14  0.1668E-04  0.4655E-07  0.1788E-02  0.1911E-03  0.3135E+01
   -1.050002   31.21759  0.2825E-14  0.1668E-04  0.4659E-07  0.1787E-02  0.1806E-03  0.3564E+01
   -1.100004   31.21813  0.2825E-14  0.1667E-04  0.4677E-07  0.1881E-02  0.1707E-03  0.1176E+02
   -1.150006   31.21864  0.2825E-14  0.1663E-04  0.4709E-07  0.1693E-02  0.1618E-03  0.2738E+02
   -1.200007   31.21921  0.2825E-14  0.1656E-04  0.4756E-07  0.1723E-02  0.1525E-03  0.5229E+01
   -1.250009   31.21977  0.2825E-14  0.1647E-04  0.4823E-07  0.1691E-02  0.1436E-03  0.5604E+01
   -1.300010   31.22034  0.2825E-14  0.1634E-04  0.4914E-07  0.1639E-02  0.1351E-03  0.6606E+01
   -1.350011   31.22093  0.2825E-14  0.1618E-04  0.5035E-07  0.1577E-02  0.1268E-03  0.7976E+01
   -1.400012   31.22153  0.2825E-14  0.1598E-04  0.5198E-07  0.1496E-02  0.1187E-03  0.9969E+01
   -1.450013   31.22218  0.2825E-14  0.1574E-04  0.5417E-07  0.1417E-02  0.1107E-03  0.1288E+02
   -1.500014   31.22287  0.2825E-14  0.1543E-04  0.5722E-07  0.1302E-02  0.1029E-03  0.1790E+02
   -1.550014   31.22363  0.2825E-14  0.1506E-04  0.6154E-07  0.1220E-02  0.9495E-04  0.2661E+02
   -1.600014   31.22445  0.2825E-14  0.1458E-04  0.6829E-07  0.1072E-02  0.8719E-04  0.5999E+02
   -1.650014   31.22550  0.2825E-14  0.1396E-04  0.7872E-07  0.9915E-03  0.7866E-04  0.1066E+05
   -1.700013   31.22669  0.2825E-14  0.1309E-04  0.9711E-07  0.8083E-03  0.7030E-04  0.2217E+04
   -1.750012   31.22886  0.2825E-14  0.1199E-04  0.1272E-06  0.7315E-03  0.5909E-04  0.1855E+06
   -1.800011   31.23042  0.2825E-14  0.1055E-04  0.1964E-06  0.5006E-03  0.5088E-04  0.1287E+05
   -1.850009   31.23828  0.2825E-14  0.9011E-05  0.3198E-06  0.4712E-03  0.3588E-04  0.8342E+07
   -1.900007   31.23584  0.2825E-14  0.7240E-05  0.6641E-06  0.2221E-03  0.2958E-04  0.2228E+06
   -1.950004   31.25791  0.2825E-14  0.5103E-05  0.1625E-05  0.1996E-03  0.1604E-04 -0.1710E+06
   -2.000001   31.26038  0.2825E-14  0.0000E+00  0.0000E+00  0.0000E+00  0.2993E-04  0.0000E+00
