 1 - depth, m
 2 - temperature, C
 3 - salinity, kg/kg
 4 - turbulent kinetic energy, m**2/s**2
 5 - dissipation rate, m**2/s**3
 6 - kinematic heat conductance, m**2/s
 7 - modulus of horizontal velocity, m/s
 8 - Richardson number, n/d
   -0.000000   30.18129  0.2555E-14  0.4533E-05  0.2748E-06  0.4881E-04  0.8774E-03  0.8165E+04
   -0.049997   30.21018  0.2555E-14  0.7927E-05  0.1219E-06  0.1762E-03  0.4967E-03  0.6270E+02
   -0.099994   30.22123  0.2555E-14  0.9626E-05  0.8419E-07  0.4027E-03  0.3614E-03  0.6339E+02
   -0.149992   30.22420  0.2555E-14  0.1068E-04  0.7101E-07  0.4800E-03  0.3196E-03  0.3092E+02
   -0.199991   30.22660  0.2555E-14  0.1151E-04  0.6326E-07  0.6405E-03  0.2855E-03  0.2006E+02
   -0.249989   30.22835  0.2555E-14  0.1216E-04  0.5817E-07  0.7646E-03  0.2600E-03  0.1486E+02
   -0.299989   30.22978  0.2555E-14  0.1270E-04  0.5454E-07  0.8880E-03  0.2387E-03  0.1188E+02
   -0.349988   30.23097  0.2555E-14  0.1315E-04  0.5182E-07  0.9999E-03  0.2204E-03  0.1017E+02
   -0.399988   30.23202  0.2555E-14  0.1353E-04  0.4970E-07  0.1102E-02  0.2042E-03  0.9088E+01
   -0.449988   30.23294  0.2555E-14  0.1386E-04  0.4799E-07  0.1197E-02  0.1900E-03  0.8520E+01
   -0.499988   30.23378  0.2555E-14  0.1415E-04  0.4658E-07  0.1285E-02  0.1774E-03  0.8311E+01
   -0.549989   30.23455  0.2555E-14  0.1440E-04  0.4540E-07  0.1365E-02  0.1661E-03  0.8184E+01
   -0.599990   30.23526  0.2555E-14  0.1461E-04  0.4441E-07  0.1437E-02  0.1559E-03  0.8212E+01
   -0.649991   30.23592  0.2555E-14  0.1480E-04  0.4358E-07  0.1503E-02  0.1466E-03  0.8295E+01
   -0.699992   30.23655  0.2555E-14  0.1496E-04  0.4289E-07  0.1560E-02  0.1381E-03  0.8509E+01
   -0.749993   30.23715  0.2555E-14  0.1509E-04  0.4232E-07  0.1611E-02  0.1302E-03  0.8767E+01
   -0.799995   30.23772  0.2555E-14  0.1521E-04  0.4185E-07  0.1653E-02  0.1228E-03  0.9164E+01
   -0.849996   30.23827  0.2555E-14  0.1530E-04  0.4148E-07  0.1689E-02  0.1160E-03  0.9609E+01
   -0.899998   30.23880  0.2555E-14  0.1537E-04  0.4121E-07  0.1716E-02  0.1095E-03  0.1022E+02
   -0.950000   30.23932  0.2555E-14  0.1542E-04  0.4103E-07  0.1735E-02  0.1035E-03  0.1091E+02
   -1.000001   30.23984  0.2555E-14  0.1545E-04  0.4094E-07  0.1747E-02  0.9773E-04  0.1181E+02
   -1.050003   30.24034  0.2555E-14  0.1546E-04  0.4095E-07  0.1749E-02  0.9229E-04  0.1335E+02
   -1.100005   30.24084  0.2555E-14  0.1545E-04  0.4106E-07  0.1830E-02  0.8710E-04  0.4473E+02
   -1.150006   30.24132  0.2555E-14  0.1541E-04  0.4130E-07  0.1674E-02  0.8246E-04  0.9879E+02
   -1.200008   30.24184  0.2555E-14  0.1536E-04  0.4166E-07  0.1695E-02  0.7767E-04  0.1917E+02
   -1.250010   30.24235  0.2555E-14  0.1528E-04  0.4218E-07  0.1665E-02  0.7308E-04  0.2050E+02
   -1.300011   30.24287  0.2555E-14  0.1517E-04  0.4289E-07  0.1618E-02  0.6867E-04  0.2388E+02
   -1.350012   30.24341  0.2555E-14  0.1504E-04  0.4384E-07  0.1561E-02  0.6438E-04  0.2854E+02
   -1.400013   30.24396  0.2555E-14  0.1487E-04  0.4511E-07  0.1487E-02  0.6022E-04  0.3500E+02
   -1.450014   30.24454  0.2555E-14  0.1466E-04  0.4681E-07  0.1410E-02  0.5613E-04  0.4438E+02
   -1.500015   30.24515  0.2555E-14  0.1440E-04  0.4913E-07  0.1302E-02  0.5212E-04  0.5943E+02
   -1.550015   30.24582  0.2555E-14  0.1408E-04  0.5239E-07  0.1216E-02  0.4810E-04  0.8349E+02
   -1.600015   30.24655  0.2555E-14  0.1369E-04  0.5725E-07  0.1074E-02  0.4416E-04  0.1481E+03
   -1.650015   30.24741  0.2555E-14  0.1318E-04  0.6466E-07  0.9947E-03  0.3999E-04  0.4866E+03
   -1.700014   30.24838  0.2555E-14  0.1249E-04  0.7797E-07  0.8155E-03  0.3595E-04 -0.4332E+03
   -1.750013   30.25005  0.2555E-14  0.1154E-04  0.1001E-06  0.7341E-03  0.3066E-04  0.1650E+06
   -1.800012   30.25160  0.2555E-14  0.1023E-04  0.1467E-06  0.5154E-03  0.2629E-04  0.1878E+06
   -1.850010   30.25711  0.2555E-14  0.8725E-05  0.2322E-06  0.4689E-03  0.1909E-04  0.2067E+09
   -1.900008   30.25657  0.2555E-14  0.6933E-05  0.4813E-06  0.2147E-03  0.1542E-04  0.3068E+06
   -1.950006   30.27495  0.2555E-14  0.4823E-05  0.1222E-05  0.1790E-03  0.8404E-05 -0.1555E+07
   -2.000003   30.27704  0.2555E-14  0.0000E+00  0.0000E+00  0.0000E+00  0.1486E-04  0.0000E+00
