 1 - depth, m
 2 - temperature, C
 3 - salinity, kg/kg
 4 - turbulent kinetic energy, m**2/s**2
 5 - dissipation rate, m**2/s**3
 6 - kinematic heat conductance, m**2/s
 7 - modulus of horizontal velocity, m/s
 8 - Richardson number, n/d
   -0.000000   30.28657  0.4007E-13  0.5260E-05  0.3364E-06  0.5293E-04  0.2040E-02  0.9331E+03
   -0.049997   30.31999  0.4007E-13  0.8844E-05  0.1499E-06  0.1829E-03  0.1160E-02  0.1506E+04
   -0.099994   30.33233  0.4007E-13  0.1067E-04  0.1034E-06  0.3985E-03  0.8665E-03  0.1365E+02
   -0.149992   30.33601  0.4007E-13  0.1183E-04  0.8652E-07  0.4824E-03  0.7658E-03  0.6734E+01
   -0.199990   30.33891  0.4007E-13  0.1273E-04  0.7670E-07  0.6430E-03  0.6850E-03  0.4329E+01
   -0.249989   30.34102  0.4007E-13  0.1344E-04  0.7029E-07  0.7685E-03  0.6244E-03  0.3190E+01
   -0.299988   30.34274  0.4007E-13  0.1401E-04  0.6573E-07  0.8922E-03  0.5739E-03  0.2545E+01
   -0.349988   30.34418  0.4007E-13  0.1449E-04  0.6231E-07  0.1004E-02  0.5307E-03  0.2173E+01
   -0.399987   30.34543  0.4007E-13  0.1488E-04  0.5966E-07  0.1105E-02  0.4923E-03  0.1949E+01
   -0.449987   30.34654  0.4007E-13  0.1522E-04  0.5751E-07  0.1198E-02  0.4585E-03  0.1835E+01
   -0.499988   30.34754  0.4007E-13  0.1550E-04  0.5572E-07  0.1284E-02  0.4285E-03  0.1807E+01
   -0.549988   30.34846  0.4007E-13  0.1575E-04  0.5424E-07  0.1361E-02  0.4015E-03  0.1787E+01
   -0.599989   30.34931  0.4007E-13  0.1595E-04  0.5299E-07  0.1431E-02  0.3770E-03  0.1808E+01
   -0.649990   30.35011  0.4007E-13  0.1612E-04  0.5194E-07  0.1492E-02  0.3547E-03  0.1832E+01
   -0.699991   30.35086  0.4007E-13  0.1626E-04  0.5107E-07  0.1544E-02  0.3341E-03  0.1893E+01
   -0.749992   30.35158  0.4007E-13  0.1637E-04  0.5035E-07  0.1587E-02  0.3152E-03  0.1957E+01
   -0.799994   30.35227  0.4007E-13  0.1645E-04  0.4977E-07  0.1622E-02  0.2975E-03  0.2067E+01
   -0.849995   30.35293  0.4007E-13  0.1650E-04  0.4933E-07  0.1647E-02  0.2811E-03  0.2184E+01
   -0.899997   30.35358  0.4007E-13  0.1652E-04  0.4901E-07  0.1664E-02  0.2657E-03  0.2359E+01
   -0.949999   30.35422  0.4007E-13  0.1652E-04  0.4883E-07  0.1670E-02  0.2511E-03  0.2551E+01
   -1.000000   30.35484  0.4007E-13  0.1650E-04  0.4877E-07  0.1668E-02  0.2373E-03  0.2822E+01
   -1.050002   30.35546  0.4007E-13  0.1644E-04  0.4887E-07  0.1653E-02  0.2241E-03  0.3242E+01
   -1.100004   30.35609  0.4007E-13  0.1636E-04  0.4911E-07  0.1794E-02  0.2115E-03  0.9975E+01
   -1.150005   30.35666  0.4007E-13  0.1625E-04  0.4959E-07  0.1469E-02  0.2007E-03  0.3082E+02
   -1.200007   30.35735  0.4007E-13  0.1610E-04  0.5024E-07  0.1536E-02  0.1884E-03  0.5289E+01
   -1.250008   30.35801  0.4007E-13  0.1592E-04  0.5119E-07  0.1497E-02  0.1770E-03  0.5787E+01
   -1.300009   30.35869  0.4007E-13  0.1570E-04  0.5250E-07  0.1421E-02  0.1661E-03  0.7138E+01
   -1.350011   30.35940  0.4007E-13  0.1543E-04  0.5431E-07  0.1354E-02  0.1554E-03  0.9143E+01
   -1.400011   30.36016  0.4007E-13  0.1510E-04  0.5683E-07  0.1233E-02  0.1449E-03  0.1244E+02
   -1.450012   30.36099  0.4007E-13  0.1470E-04  0.6040E-07  0.1177E-02  0.1343E-03  0.1743E+02
   -1.500013   30.36189  0.4007E-13  0.1421E-04  0.6568E-07  0.1006E-02  0.1241E-03  0.2843E+02
   -1.550013   30.36300  0.4007E-13  0.1361E-04  0.7342E-07  0.9964E-03  0.1130E-03  0.4737E+02
   -1.600013   30.36414  0.4007E-13  0.1284E-04  0.8721E-07  0.7973E-03  0.1030E-03  0.1612E+03
   -1.650013   30.36602  0.4007E-13  0.1173E-04  0.1075E-06  0.7770E-03  0.8984E-04  0.8005E+04
   -1.700012   30.36785  0.4007E-13  0.1022E-04  0.1459E-06  0.5362E-03  0.7833E-04 -0.7405E+02
   -1.750011   30.37361  0.4007E-13  0.8506E-05  0.2092E-06  0.5445E-03  0.5643E-04  0.1125E+06
   -1.800010   30.37395  0.4007E-13  0.7016E-05  0.3415E-06  0.3206E-03  0.4943E-04 -0.7025E+03
   -1.850008   30.39603  0.4007E-13  0.5699E-05  0.6198E-06  0.3692E-03  0.2667E-04  0.1208E+09
   -1.900006   30.37888  0.4007E-13  0.4746E-05  0.1322E-05  0.1794E-03  0.2460E-04 -0.6316E+06
   -1.950003   30.41708  0.4007E-13  0.3597E-05  0.2914E-05  0.2820E-03  0.1115E-04  0.6194E+05
   -2.000000   30.41276  0.4007E-13  0.0000E+00  0.0000E+00  0.0000E+00  0.3314E-04  0.0000E+00
