 1 - depth, m
 2 - temperature, C
 3 - salinity, kg/kg
 4 - turbulent kinetic energy, m**2/s**2
 5 - dissipation rate, m**2/s**3
 6 - kinematic heat conductance, m**2/s
 7 - modulus of horizontal velocity, m/s
 8 - Richardson number, n/d
   -0.000000   30.18105  0.6537E-13  0.4717E-05  0.2894E-06  0.4998E-04  0.1471E-02  0.8786E+04
   -0.049997   30.21100  0.6537E-13  0.8086E-05  0.1291E-06  0.1745E-03  0.8402E-03  0.1381E+04
   -0.099994   30.22261  0.6537E-13  0.9808E-05  0.8881E-07  0.3951E-03  0.6139E-03  0.2202E+02
   -0.149992   30.22581  0.6537E-13  0.1088E-04  0.7455E-07  0.4745E-03  0.5421E-03  0.1072E+02
   -0.199991   30.22837  0.6537E-13  0.1172E-04  0.6618E-07  0.6338E-03  0.4838E-03  0.6883E+01
   -0.249989   30.23022  0.6537E-13  0.1238E-04  0.6068E-07  0.7578E-03  0.4402E-03  0.5074E+01
   -0.299989   30.23173  0.6537E-13  0.1292E-04  0.5675E-07  0.8810E-03  0.4039E-03  0.4031E+01
   -0.349988   30.23299  0.6537E-13  0.1336E-04  0.5379E-07  0.9929E-03  0.3728E-03  0.3443E+01
   -0.399988   30.23408  0.6537E-13  0.1373E-04  0.5149E-07  0.1095E-02  0.3453E-03  0.3063E+01
   -0.449988   30.23504  0.6537E-13  0.1406E-04  0.4961E-07  0.1190E-02  0.3211E-03  0.2873E+01
   -0.499988   30.23592  0.6537E-13  0.1433E-04  0.4805E-07  0.1277E-02  0.2997E-03  0.2792E+01
   -0.549989   30.23671  0.6537E-13  0.1457E-04  0.4674E-07  0.1357E-02  0.2806E-03  0.2752E+01
   -0.599990   30.23745  0.6537E-13  0.1478E-04  0.4563E-07  0.1430E-02  0.2633E-03  0.2750E+01
   -0.649991   30.23813  0.6537E-13  0.1495E-04  0.4469E-07  0.1495E-02  0.2475E-03  0.2781E+01
   -0.699992   30.23878  0.6537E-13  0.1510E-04  0.4389E-07  0.1553E-02  0.2330E-03  0.2838E+01
   -0.749993   30.23939  0.6537E-13  0.1522E-04  0.4321E-07  0.1604E-02  0.2196E-03  0.2927E+01
   -0.799995   30.23997  0.6537E-13  0.1532E-04  0.4264E-07  0.1647E-02  0.2072E-03  0.3043E+01
   -0.849996   30.24053  0.6537E-13  0.1540E-04  0.4217E-07  0.1682E-02  0.1956E-03  0.3193E+01
   -0.899998   30.24108  0.6537E-13  0.1545E-04  0.4180E-07  0.1709E-02  0.1847E-03  0.3377E+01
   -0.950000   30.24161  0.6537E-13  0.1548E-04  0.4153E-07  0.1729E-02  0.1744E-03  0.3605E+01
   -1.000001   30.24212  0.6537E-13  0.1550E-04  0.4134E-07  0.1741E-02  0.1647E-03  0.3881E+01
   -1.050003   30.24263  0.6537E-13  0.1549E-04  0.4126E-07  0.1743E-02  0.1555E-03  0.4384E+01
   -1.100005   30.24313  0.6537E-13  0.1546E-04  0.4128E-07  0.1825E-02  0.1468E-03  0.1459E+02
   -1.150006   30.24361  0.6537E-13  0.1541E-04  0.4142E-07  0.1669E-02  0.1389E-03  0.3240E+02
   -1.200008   30.24412  0.6537E-13  0.1534E-04  0.4168E-07  0.1691E-02  0.1309E-03  0.6255E+01
   -1.250010   30.24463  0.6537E-13  0.1524E-04  0.4210E-07  0.1662E-02  0.1231E-03  0.6638E+01
   -1.300011   30.24513  0.6537E-13  0.1512E-04  0.4270E-07  0.1615E-02  0.1157E-03  0.7719E+01
   -1.350012   30.24566  0.6537E-13  0.1497E-04  0.4354E-07  0.1558E-02  0.1085E-03  0.9184E+01
   -1.400013   30.24619  0.6537E-13  0.1478E-04  0.4469E-07  0.1485E-02  0.1014E-03  0.1124E+02
   -1.450014   30.24675  0.6537E-13  0.1456E-04  0.4626E-07  0.1409E-02  0.9455E-04  0.1420E+02
   -1.500015   30.24734  0.6537E-13  0.1428E-04  0.4845E-07  0.1301E-02  0.8780E-04  0.1900E+02
   -1.550015   30.24799  0.6537E-13  0.1395E-04  0.5154E-07  0.1217E-02  0.8104E-04  0.2663E+02
   -1.600015   30.24868  0.6537E-13  0.1354E-04  0.5624E-07  0.1075E-02  0.7443E-04  0.4772E+02
   -1.650015   30.24950  0.6537E-13  0.1302E-04  0.6348E-07  0.9948E-03  0.6739E-04  0.1045E+04
   -1.700014   30.25042  0.6537E-13  0.1232E-04  0.7642E-07  0.8146E-03  0.6055E-04  0.3311E+04
   -1.750013   30.25200  0.6537E-13  0.1137E-04  0.9777E-07  0.7373E-03  0.5161E-04  0.2277E+05
   -1.800012   30.25337  0.6537E-13  0.1007E-04  0.1422E-06  0.5164E-03  0.4444E-04  0.3287E+05
   -1.850010   30.25854  0.6537E-13  0.8569E-05  0.2267E-06  0.4704E-03  0.3227E-04  0.4196E+07
   -1.900008   30.25805  0.6537E-13  0.6744E-05  0.4739E-06  0.2106E-03  0.2607E-04  0.2227E+06
   -1.950006   30.27496  0.6537E-13  0.4674E-05  0.1196E-05  0.1807E-03  0.1407E-04 -0.3417E+06
   -2.000003   30.27725  0.6537E-13  0.0000E+00  0.0000E+00  0.0000E+00  0.2528E-04  0.0000E+00
