 1 - depth, m
 2 - temperature, C
 3 - salinity, kg/kg
 4 - turbulent kinetic energy, m**2/s**2
 5 - dissipation rate, m**2/s**3
 6 - kinematic heat conductance, m**2/s
 7 - modulus of horizontal velocity, m/s
 8 - Richardson number, n/d
   -0.000000   31.57791  0.4557E-14  0.5640E-05  0.3894E-06  0.5500E-04  0.9404E-03  0.6337E+04
   -0.049997   31.61399  0.4557E-14  0.9714E-05  0.1728E-06  0.1903E-03  0.5424E-03  0.2334E+03
   -0.099994   31.62813  0.4557E-14  0.1180E-04  0.1184E-06  0.4331E-03  0.3970E-03  0.5980E+02
   -0.149992   31.63191  0.4557E-14  0.1311E-04  0.9932E-07  0.5101E-03  0.3523E-03  0.2964E+02
   -0.199990   31.63497  0.4557E-14  0.1412E-04  0.8813E-07  0.6886E-03  0.3154E-03  0.1900E+02
   -0.249989   31.63717  0.4557E-14  0.1493E-04  0.8083E-07  0.8206E-03  0.2880E-03  0.1413E+02
   -0.299988   31.63896  0.4557E-14  0.1558E-04  0.7563E-07  0.9557E-03  0.2652E-03  0.1123E+02
   -0.349987   31.64046  0.4557E-14  0.1612E-04  0.7174E-07  0.1077E-02  0.2456E-03  0.9631E+01
   -0.399987   31.64176  0.4557E-14  0.1657E-04  0.6872E-07  0.1187E-02  0.2283E-03  0.8561E+01
   -0.449987   31.64291  0.4557E-14  0.1695E-04  0.6626E-07  0.1289E-02  0.2131E-03  0.8052E+01
   -0.499987   31.64395  0.4557E-14  0.1728E-04  0.6423E-07  0.1382E-02  0.1996E-03  0.7801E+01
   -0.549988   31.64490  0.4557E-14  0.1757E-04  0.6254E-07  0.1467E-02  0.1875E-03  0.7714E+01
   -0.599989   31.64578  0.4557E-14  0.1781E-04  0.6111E-07  0.1543E-02  0.1765E-03  0.7685E+01
   -0.649990   31.64660  0.4557E-14  0.1801E-04  0.5990E-07  0.1611E-02  0.1665E-03  0.7804E+01
   -0.699991   31.64738  0.4557E-14  0.1818E-04  0.5889E-07  0.1671E-02  0.1572E-03  0.7949E+01
   -0.749992   31.64811  0.4557E-14  0.1832E-04  0.5805E-07  0.1722E-02  0.1487E-03  0.8242E+01
   -0.799994   31.64882  0.4557E-14  0.1843E-04  0.5735E-07  0.1764E-02  0.1407E-03  0.8559E+01
   -0.849995   31.64950  0.4557E-14  0.1851E-04  0.5680E-07  0.1797E-02  0.1332E-03  0.9046E+01
   -0.899997   31.65016  0.4557E-14  0.1856E-04  0.5639E-07  0.1822E-02  0.1262E-03  0.9570E+01
   -0.949998   31.65080  0.4557E-14  0.1858E-04  0.5611E-07  0.1836E-02  0.1195E-03  0.1032E+02
   -1.000000   31.65144  0.4557E-14  0.1858E-04  0.5597E-07  0.1842E-02  0.1132E-03  0.1113E+02
   -1.050002   31.65206  0.4557E-14  0.1855E-04  0.5598E-07  0.1835E-02  0.1072E-03  0.1269E+02
   -1.100003   31.65268  0.4557E-14  0.1850E-04  0.5614E-07  0.1961E-02  0.1014E-03  0.4024E+02
   -1.150005   31.65326  0.4557E-14  0.1841E-04  0.5652E-07  0.1690E-02  0.9638E-04  0.1046E+03
   -1.200006   31.65393  0.4557E-14  0.1829E-04  0.5707E-07  0.1745E-02  0.9086E-04  0.1910E+02
   -1.250008   31.65457  0.4557E-14  0.1814E-04  0.5790E-07  0.1710E-02  0.8569E-04  0.2034E+02
   -1.300009   31.65522  0.4557E-14  0.1794E-04  0.5906E-07  0.1647E-02  0.8070E-04  0.2436E+02
   -1.350010   31.65589  0.4557E-14  0.1771E-04  0.6065E-07  0.1577E-02  0.7583E-04  0.2974E+02
   -1.400011   31.65659  0.4557E-14  0.1742E-04  0.6284E-07  0.1483E-02  0.7105E-04  0.3826E+02
   -1.450012   31.65735  0.4557E-14  0.1707E-04  0.6590E-07  0.1397E-02  0.6631E-04  0.5082E+02
   -1.500012   31.65815  0.4557E-14  0.1665E-04  0.7027E-07  0.1273E-02  0.6163E-04  0.7461E+02
   -1.550013   31.65906  0.4557E-14  0.1612E-04  0.7669E-07  0.1190E-02  0.5685E-04  0.1273E+03
   -1.600013   31.66006  0.4557E-14  0.1546E-04  0.8721E-07  0.1042E-02  0.5211E-04  0.5907E+03
   -1.650012   31.66147  0.4557E-14  0.1457E-04  0.1039E-06  0.9526E-03  0.4667E-04  0.2482E+05
   -1.700012   31.66308  0.4557E-14  0.1334E-04  0.1362E-06  0.7636E-03  0.4114E-04  0.2052E+06
   -1.750011   31.66619  0.4557E-14  0.1195E-04  0.1837E-06  0.6922E-03  0.3366E-04  0.1842E+07
   -1.800009   31.66774  0.4557E-14  0.1026E-04  0.2907E-06  0.4620E-03  0.2894E-04  0.1282E+08
   -1.850008   31.68003  0.4557E-14  0.8642E-05  0.4909E-06  0.4526E-03  0.1918E-04  0.1537E+09
   -1.900005   31.67365  0.4557E-14  0.6905E-05  0.1028E-05  0.2119E-03  0.1616E-04 -0.1554E+07
   -1.950003   31.70319  0.4557E-14  0.5034E-05  0.2360E-05  0.2455E-03  0.8302E-05 -0.1069E+07
   -2.000000   31.70005  0.4557E-14  0.0000E+00  0.0000E+00  0.0000E+00  0.1799E-04  0.0000E+00
