 1 - depth, m
 2 - temperature, C
 3 - salinity, kg/kg
 4 - turbulent kinetic energy, m**2/s**2
 5 - dissipation rate, m**2/s**3
 6 - kinematic heat conductance, m**2/s
 7 - modulus of horizontal velocity, m/s
 8 - Richardson number, n/d
   -0.000000   30.20616  0.2386E-13  0.4922E-05  0.2896E-06  0.5036E-04  0.2410E-02  0.3680E+04
   -0.049997   30.23566  0.2386E-13  0.8237E-05  0.1280E-06  0.1869E-03  0.1319E-02  0.2438E+04
   -0.099994   30.24553  0.2386E-13  0.9854E-05  0.8955E-07  0.3860E-03  0.1000E-02  0.7994E+01
   -0.149992   30.24876  0.2386E-13  0.1090E-04  0.7504E-07  0.4784E-03  0.8819E-03  0.4031E+01
   -0.199991   30.25124  0.2386E-13  0.1172E-04  0.6656E-07  0.6305E-03  0.7888E-03  0.2606E+01
   -0.249989   30.25307  0.2386E-13  0.1238E-04  0.6100E-07  0.7549E-03  0.7183E-03  0.1924E+01
   -0.299988   30.25456  0.2386E-13  0.1291E-04  0.5705E-07  0.8755E-03  0.6596E-03  0.1535E+01
   -0.349988   30.25581  0.2386E-13  0.1336E-04  0.5408E-07  0.9835E-03  0.6092E-03  0.1325E+01
   -0.399988   30.25690  0.2386E-13  0.1374E-04  0.5176E-07  0.1083E-02  0.5645E-03  0.1224E+01
   -0.449988   30.25787  0.2386E-13  0.1407E-04  0.4984E-07  0.1181E-02  0.5244E-03  0.1201E+01
   -0.499988   30.25874  0.2386E-13  0.1437E-04  0.4823E-07  0.1275E-02  0.4882E-03  0.1201E+01
   -0.549989   30.25953  0.2386E-13  0.1463E-04  0.4688E-07  0.1362E-02  0.4554E-03  0.1198E+01
   -0.599990   30.26026  0.2386E-13  0.1485E-04  0.4573E-07  0.1442E-02  0.4257E-03  0.1196E+01
   -0.649991   30.26093  0.2386E-13  0.1504E-04  0.4477E-07  0.1513E-02  0.3987E-03  0.1193E+01
   -0.699992   30.26157  0.2386E-13  0.1520E-04  0.4397E-07  0.1575E-02  0.3742E-03  0.1193E+01
   -0.749993   30.26217  0.2386E-13  0.1533E-04  0.4331E-07  0.1627E-02  0.3518E-03  0.1197E+01
   -0.799995   30.26275  0.2386E-13  0.1544E-04  0.4278E-07  0.1670E-02  0.3313E-03  0.1213E+01
   -0.849996   30.26330  0.2386E-13  0.1552E-04  0.4235E-07  0.1704E-02  0.3125E-03  0.1246E+01
   -0.899998   30.26384  0.2386E-13  0.1558E-04  0.4202E-07  0.1730E-02  0.2950E-03  0.1304E+01
   -0.950000   30.26436  0.2386E-13  0.1562E-04  0.4179E-07  0.1748E-02  0.2787E-03  0.1387E+01
   -1.000001   30.26488  0.2386E-13  0.1564E-04  0.4166E-07  0.1759E-02  0.2633E-03  0.1497E+01
   -1.050003   30.26538  0.2386E-13  0.1563E-04  0.4162E-07  0.1760E-02  0.2487E-03  0.1695E+01
   -1.100005   30.26589  0.2386E-13  0.1561E-04  0.4169E-07  0.1846E-02  0.2348E-03  0.5632E+01
   -1.150006   30.26636  0.2386E-13  0.1556E-04  0.4189E-07  0.1677E-02  0.2223E-03  0.1270E+02
   -1.200008   30.26688  0.2386E-13  0.1550E-04  0.4221E-07  0.1703E-02  0.2094E-03  0.2443E+01
   -1.250009   30.26739  0.2386E-13  0.1540E-04  0.4269E-07  0.1673E-02  0.1971E-03  0.2604E+01
   -1.300011   30.26791  0.2386E-13  0.1529E-04  0.4336E-07  0.1625E-02  0.1853E-03  0.3040E+01
   -1.350012   30.26844  0.2386E-13  0.1514E-04  0.4428E-07  0.1567E-02  0.1737E-03  0.3634E+01
   -1.400013   30.26898  0.2386E-13  0.1495E-04  0.4553E-07  0.1491E-02  0.1625E-03  0.4476E+01
   -1.450014   30.26956  0.2386E-13  0.1473E-04  0.4721E-07  0.1415E-02  0.1515E-03  0.5686E+01
   -1.500014   30.27016  0.2386E-13  0.1446E-04  0.4954E-07  0.1304E-02  0.1408E-03  0.7688E+01
   -1.550015   30.27083  0.2386E-13  0.1412E-04  0.5281E-07  0.1221E-02  0.1299E-03  0.1086E+02
   -1.600015   30.27154  0.2386E-13  0.1371E-04  0.5780E-07  0.1075E-02  0.1193E-03  0.2027E+02
   -1.650015   30.27241  0.2386E-13  0.1318E-04  0.6541E-07  0.9974E-03  0.1080E-03  0.3076E+03
   -1.700014   30.27336  0.2386E-13  0.1246E-04  0.7902E-07  0.8145E-03  0.9706E-04 -0.6419E+03
   -1.750013   30.27505  0.2386E-13  0.1149E-04  0.1016E-06  0.7391E-03  0.8253E-04  0.2855E+05
   -1.800012   30.27653  0.2386E-13  0.1018E-04  0.1490E-06  0.5177E-03  0.7092E-04  0.6354E+05
   -1.850010   30.28204  0.2386E-13  0.8673E-05  0.2373E-06  0.4712E-03  0.5137E-04  0.8440E+08
   -1.900008   30.28133  0.2386E-13  0.6850E-05  0.4943E-06  0.2099E-03  0.4161E-04  0.5983E+06
   -1.950006   30.29922  0.2386E-13  0.4764E-05  0.1255E-05  0.1814E-03  0.2247E-04 -0.1879E+06
   -2.000003   30.30211  0.2386E-13  0.0000E+00  0.0000E+00  0.0000E+00  0.4025E-04  0.0000E+00
