 1 - depth, m
 2 - temperature, C
 3 - salinity, kg/kg
 4 - turbulent kinetic energy, m**2/s**2
 5 - dissipation rate, m**2/s**3
 6 - kinematic heat conductance, m**2/s
 7 - modulus of horizontal velocity, m/s
 8 - Richardson number, n/d
   -0.000000   29.68517  0.1276E-12  0.5817E-05  0.3026E-06  0.5590E-04  0.4759E-02  0.6575E+00
   -0.049997   29.71429  0.1276E-12  0.8867E-05  0.1285E-06  0.2110E-03  0.2561E-02  0.5679E+01
   -0.099994   29.72236  0.1276E-12  0.1018E-04  0.9349E-07  0.3751E-03  0.2097E-02  0.2753E+01
   -0.149992   29.72579  0.1276E-12  0.1110E-04  0.7941E-07  0.4650E-03  0.1889E-02  0.1551E+01
   -0.199991   29.72842  0.1276E-12  0.1187E-04  0.7097E-07  0.5777E-03  0.1725E-02  0.1309E+01
   -0.249989   29.73048  0.1276E-12  0.1257E-04  0.6497E-07  0.6957E-03  0.1585E-02  0.1408E+01
   -0.299988   29.73213  0.1276E-12  0.1323E-04  0.6021E-07  0.8378E-03  0.1449E-02  0.1522E+01
   -0.349988   29.73347  0.1276E-12  0.1387E-04  0.5630E-07  0.9939E-03  0.1316E-02  0.1631E+01
   -0.399988   29.73457  0.1276E-12  0.1444E-04  0.5309E-07  0.1157E-02  0.1186E-02  0.1646E+01
   -0.449988   29.73549  0.1276E-12  0.1496E-04  0.5043E-07  0.1311E-02  0.1066E-02  0.1628E+01
   -0.499988   29.73628  0.1276E-12  0.1540E-04  0.4826E-07  0.1450E-02  0.9604E-03  0.1606E+01
   -0.549989   29.73699  0.1276E-12  0.1577E-04  0.4650E-07  0.1576E-02  0.8669E-03  0.1574E+01
   -0.599990   29.73762  0.1276E-12  0.1607E-04  0.4508E-07  0.1692E-02  0.7843E-03  0.1542E+01
   -0.649991   29.73820  0.1276E-12  0.1630E-04  0.4394E-07  0.1796E-02  0.7114E-03  0.1508E+01
   -0.699992   29.73874  0.1276E-12  0.1647E-04  0.4304E-07  0.1883E-02  0.6469E-03  0.1472E+01
   -0.749993   29.73924  0.1276E-12  0.1660E-04  0.4235E-07  0.1950E-02  0.5898E-03  0.1434E+01
   -0.799995   29.73972  0.1276E-12  0.1667E-04  0.4185E-07  0.1993E-02  0.5394E-03  0.1394E+01
   -0.849996   29.74018  0.1276E-12  0.1670E-04  0.4152E-07  0.2016E-02  0.4947E-03  0.1352E+01
   -0.899998   29.74064  0.1276E-12  0.1670E-04  0.4134E-07  0.2022E-02  0.4551E-03  0.1308E+01
   -0.950000   29.74108  0.1276E-12  0.1666E-04  0.4131E-07  0.2012E-02  0.4200E-03  0.1263E+01
   -1.000001   29.74152  0.1276E-12  0.1660E-04  0.4141E-07  0.1989E-02  0.3888E-03  0.1214E+01
   -1.050003   29.74197  0.1276E-12  0.1652E-04  0.4162E-07  0.1934E-02  0.3611E-03  0.1161E+01
   -1.100005   29.74242  0.1276E-12  0.1642E-04  0.4191E-07  0.2131E-02  0.3368E-03  0.2268E+01
   -1.150006   29.74283  0.1276E-12  0.1631E-04  0.4233E-07  0.1713E-02  0.3212E-03  0.6226E+01
   -1.200008   29.74333  0.1276E-12  0.1618E-04  0.4289E-07  0.1824E-02  0.3029E-03  0.1174E+01
   -1.250009   29.74380  0.1276E-12  0.1602E-04  0.4366E-07  0.1772E-02  0.2853E-03  0.1202E+01
   -1.300011   29.74428  0.1276E-12  0.1583E-04  0.4467E-07  0.1700E-02  0.2687E-03  0.1385E+01
   -1.350012   29.74478  0.1276E-12  0.1560E-04  0.4599E-07  0.1624E-02  0.2528E-03  0.1685E+01
   -1.400013   29.74530  0.1276E-12  0.1534E-04  0.4777E-07  0.1519E-02  0.2372E-03  0.2159E+01
   -1.450014   29.74586  0.1276E-12  0.1502E-04  0.5021E-07  0.1429E-02  0.2216E-03  0.2869E+01
   -1.500014   29.74645  0.1276E-12  0.1464E-04  0.5364E-07  0.1293E-02  0.2062E-03  0.4189E+01
   -1.550015   29.74713  0.1276E-12  0.1419E-04  0.5862E-07  0.1211E-02  0.1904E-03  0.6877E+01
   -1.600015   29.74788  0.1276E-12  0.1361E-04  0.6681E-07  0.1050E-02  0.1748E-03  0.2022E+02
   -1.650015   29.74894  0.1276E-12  0.1285E-04  0.7959E-07  0.9646E-03  0.1565E-03  0.2317E+04
   -1.700014   29.75011  0.1276E-12  0.1180E-04  0.1024E-06  0.7689E-03  0.1386E-03  0.2841E+04
   -1.750013   29.75247  0.1276E-12  0.1056E-04  0.1381E-06  0.6913E-03  0.1132E-03  0.4999E+05
   -1.800012   29.75372  0.1276E-12  0.9058E-05  0.2160E-06  0.4678E-03  0.9725E-04  0.1304E+06
   -1.850010   29.76270  0.1276E-12  0.7594E-05  0.3630E-06  0.4464E-03  0.6472E-04  0.1288E+08
   -1.900008   29.75826  0.1276E-12  0.6034E-05  0.7664E-06  0.2101E-03  0.5422E-04  0.4757E+05
   -1.950005   29.78087  0.1276E-12  0.4346E-05  0.1781E-05  0.2282E-03  0.2786E-04 -0.1977E+05
   -2.000002   29.78009  0.1276E-12  0.0000E+00  0.0000E+00  0.0000E+00  0.6084E-04  0.0000E+00
