 1 - depth, m
 2 - temperature, C
 3 - salinity, kg/kg
 4 - turbulent kinetic energy, m**2/s**2
 5 - dissipation rate, m**2/s**3
 6 - kinematic heat conductance, m**2/s
 7 - modulus of horizontal velocity, m/s
 8 - Richardson number, n/d
   -0.000000   30.57927  0.7955E-14  0.4750E-05  0.2980E-06  0.5061E-04  0.7368E-03  0.1083E+05
   -0.049997   30.60931  0.7955E-14  0.8320E-05  0.1320E-06  0.1778E-03  0.4218E-03  0.4591E+02
   -0.099994   30.62111  0.7955E-14  0.1011E-04  0.9079E-07  0.4151E-03  0.3047E-03  0.8788E+02
   -0.149992   30.62420  0.7955E-14  0.1122E-04  0.7661E-07  0.4883E-03  0.2700E-03  0.4307E+02
   -0.199991   30.62672  0.7955E-14  0.1209E-04  0.6824E-07  0.6546E-03  0.2413E-03  0.2799E+02
   -0.249989   30.62855  0.7955E-14  0.1278E-04  0.6275E-07  0.7808E-03  0.2199E-03  0.2082E+02
   -0.299988   30.63004  0.7955E-14  0.1335E-04  0.5884E-07  0.9070E-03  0.2021E-03  0.1664E+02
   -0.349988   30.63130  0.7955E-14  0.1382E-04  0.5591E-07  0.1021E-02  0.1868E-03  0.1429E+02
   -0.399988   30.63239  0.7955E-14  0.1421E-04  0.5363E-07  0.1125E-02  0.1732E-03  0.1274E+02
   -0.449988   30.63336  0.7955E-14  0.1456E-04  0.5178E-07  0.1222E-02  0.1613E-03  0.1199E+02
   -0.499988   30.63424  0.7955E-14  0.1485E-04  0.5026E-07  0.1311E-02  0.1507E-03  0.1166E+02
   -0.549989   30.63504  0.7955E-14  0.1511E-04  0.4900E-07  0.1392E-02  0.1413E-03  0.1153E+02
   -0.599989   30.63578  0.7955E-14  0.1534E-04  0.4793E-07  0.1466E-02  0.1327E-03  0.1153E+02
   -0.649991   30.63648  0.7955E-14  0.1553E-04  0.4704E-07  0.1531E-02  0.1249E-03  0.1170E+02
   -0.699992   30.63714  0.7955E-14  0.1569E-04  0.4630E-07  0.1590E-02  0.1177E-03  0.1196E+02
   -0.749993   30.63776  0.7955E-14  0.1583E-04  0.4569E-07  0.1640E-02  0.1111E-03  0.1239E+02
   -0.799995   30.63836  0.7955E-14  0.1595E-04  0.4519E-07  0.1683E-02  0.1049E-03  0.1290E+02
   -0.849996   30.63894  0.7955E-14  0.1604E-04  0.4480E-07  0.1717E-02  0.9909E-04  0.1361E+02
   -0.899998   30.63950  0.7955E-14  0.1611E-04  0.4451E-07  0.1744E-02  0.9366E-04  0.1443E+02
   -0.949999   30.64005  0.7955E-14  0.1616E-04  0.4432E-07  0.1762E-02  0.8854E-04  0.1549E+02
   -1.000001   30.64059  0.7955E-14  0.1618E-04  0.4424E-07  0.1772E-02  0.8369E-04  0.1673E+02
   -1.050003   30.64112  0.7955E-14  0.1618E-04  0.4426E-07  0.1772E-02  0.7909E-04  0.1902E+02
   -1.100005   30.64165  0.7955E-14  0.1617E-04  0.4440E-07  0.1863E-02  0.7469E-04  0.6251E+02
   -1.150006   30.64215  0.7955E-14  0.1612E-04  0.4469E-07  0.1680E-02  0.7078E-04  0.1453E+03
   -1.200008   30.64270  0.7955E-14  0.1606E-04  0.4510E-07  0.1709E-02  0.6669E-04  0.2773E+02
   -1.250009   30.64324  0.7955E-14  0.1596E-04  0.4570E-07  0.1677E-02  0.6280E-04  0.2958E+02
   -1.300011   30.64379  0.7955E-14  0.1584E-04  0.4652E-07  0.1626E-02  0.5904E-04  0.3480E+02
   -1.350012   30.64436  0.7955E-14  0.1569E-04  0.4762E-07  0.1565E-02  0.5539E-04  0.4182E+02
   -1.400013   30.64495  0.7955E-14  0.1549E-04  0.4909E-07  0.1486E-02  0.5184E-04  0.5204E+02
   -1.450014   30.64557  0.7955E-14  0.1526E-04  0.5108E-07  0.1407E-02  0.4834E-04  0.6687E+02
   -1.500014   30.64623  0.7955E-14  0.1496E-04  0.5382E-07  0.1293E-02  0.4490E-04  0.9190E+02
   -1.550015   30.64695  0.7955E-14  0.1460E-04  0.5771E-07  0.1208E-02  0.4145E-04  0.1339E+03
   -1.600015   30.64774  0.7955E-14  0.1415E-04  0.6363E-07  0.1062E-02  0.3805E-04  0.3051E+03
   -1.650014   30.64870  0.7955E-14  0.1357E-04  0.7284E-07  0.9832E-03  0.3441E-04  0.2834E+05
   -1.700014   30.64981  0.7955E-14  0.1276E-04  0.8938E-07  0.7978E-03  0.3081E-04  0.6778E+05
   -1.750013   30.65177  0.7955E-14  0.1169E-04  0.1160E-06  0.7221E-03  0.2604E-04  0.6182E+07
   -1.800012   30.65336  0.7955E-14  0.1027E-04  0.1745E-06  0.5006E-03  0.2240E-04  0.1078E+06
   -1.850010   30.66020  0.7955E-14  0.8712E-05  0.2825E-06  0.4664E-03  0.1593E-04  0.2130E+09
   -1.900008   30.65867  0.7955E-14  0.6897E-05  0.5927E-06  0.2104E-03  0.1299E-04  0.1522E+07
   -1.950005   30.67954  0.7955E-14  0.4857E-05  0.1470E-05  0.1951E-03  0.6954E-05 -0.1029E+07
   -2.000002   30.68141  0.7955E-14  0.0000E+00  0.0000E+00  0.0000E+00  0.1289E-04  0.0000E+00
