 1 - depth, m
 2 - temperature, C
 3 - salinity, kg/kg
 4 - turbulent kinetic energy, m**2/s**2
 5 - dissipation rate, m**2/s**3
 6 - kinematic heat conductance, m**2/s
 7 - modulus of horizontal velocity, m/s
 8 - Richardson number, n/d
   -0.000000   30.14650  0.1134E-12  0.4905E-05  0.2720E-06  0.4916E-04  0.2900E-02  0.2190E+04
   -0.049997   30.17529  0.1134E-12  0.8049E-05  0.1190E-06  0.1922E-03  0.1558E-02  0.2567E+02
   -0.099994   30.18420  0.1134E-12  0.9523E-05  0.8422E-07  0.3769E-03  0.1204E-02  0.5838E+01
   -0.149992   30.18731  0.1134E-12  0.1049E-04  0.7083E-07  0.4722E-03  0.1066E-02  0.2982E+01
   -0.199991   30.18967  0.1134E-12  0.1124E-04  0.6297E-07  0.6125E-03  0.9582E-03  0.1956E+01
   -0.249989   30.19145  0.1134E-12  0.1185E-04  0.5781E-07  0.7274E-03  0.8754E-03  0.1474E+01
   -0.299989   30.19290  0.1134E-12  0.1235E-04  0.5411E-07  0.8328E-03  0.8060E-03  0.1259E+01
   -0.349988   30.19413  0.1134E-12  0.1279E-04  0.5123E-07  0.9377E-03  0.7442E-03  0.1254E+01
   -0.399988   30.19520  0.1134E-12  0.1319E-04  0.4885E-07  0.1051E-02  0.6854E-03  0.1269E+01
   -0.449988   30.19614  0.1134E-12  0.1355E-04  0.4684E-07  0.1165E-02  0.6307E-03  0.1280E+01
   -0.499988   30.19696  0.1134E-12  0.1387E-04  0.4515E-07  0.1271E-02  0.5813E-03  0.1285E+01
   -0.549989   30.19770  0.1134E-12  0.1415E-04  0.4374E-07  0.1369E-02  0.5368E-03  0.1282E+01
   -0.599990   30.19838  0.1134E-12  0.1439E-04  0.4257E-07  0.1457E-02  0.4968E-03  0.1275E+01
   -0.649991   30.19900  0.1134E-12  0.1459E-04  0.4159E-07  0.1536E-02  0.4606E-03  0.1265E+01
   -0.699992   30.19958  0.1134E-12  0.1476E-04  0.4079E-07  0.1604E-02  0.4281E-03  0.1249E+01
   -0.749993   30.20013  0.1134E-12  0.1489E-04  0.4014E-07  0.1660E-02  0.3987E-03  0.1232E+01
   -0.799995   30.20065  0.1134E-12  0.1500E-04  0.3963E-07  0.1706E-02  0.3722E-03  0.1210E+01
   -0.849996   30.20116  0.1134E-12  0.1507E-04  0.3924E-07  0.1740E-02  0.3482E-03  0.1189E+01
   -0.899998   30.20165  0.1134E-12  0.1513E-04  0.3896E-07  0.1764E-02  0.3267E-03  0.1171E+01
   -0.950000   30.20212  0.1134E-12  0.1515E-04  0.3878E-07  0.1777E-02  0.3071E-03  0.1167E+01
   -1.000001   30.20259  0.1134E-12  0.1516E-04  0.3870E-07  0.1782E-02  0.2894E-03  0.1191E+01
   -1.050003   30.20306  0.1134E-12  0.1515E-04  0.3871E-07  0.1778E-02  0.2731E-03  0.1300E+01
   -1.100005   30.20352  0.1134E-12  0.1512E-04  0.3882E-07  0.1879E-02  0.2578E-03  0.4218E+01
   -1.150006   30.20395  0.1134E-12  0.1506E-04  0.3905E-07  0.1669E-02  0.2444E-03  0.9871E+01
   -1.200008   30.20444  0.1134E-12  0.1499E-04  0.3939E-07  0.1709E-02  0.2302E-03  0.1875E+01
   -1.250009   30.20491  0.1134E-12  0.1489E-04  0.3989E-07  0.1676E-02  0.2167E-03  0.1996E+01
   -1.300011   30.20538  0.1134E-12  0.1477E-04  0.4057E-07  0.1625E-02  0.2037E-03  0.2341E+01
   -1.350012   30.20587  0.1134E-12  0.1462E-04  0.4148E-07  0.1564E-02  0.1911E-03  0.2803E+01
   -1.400013   30.20638  0.1134E-12  0.1444E-04  0.4271E-07  0.1485E-02  0.1787E-03  0.3468E+01
   -1.450014   30.20692  0.1134E-12  0.1422E-04  0.4437E-07  0.1406E-02  0.1666E-03  0.4415E+01
   -1.500015   30.20748  0.1134E-12  0.1395E-04  0.4665E-07  0.1292E-02  0.1548E-03  0.5998E+01
   -1.550015   30.20811  0.1134E-12  0.1362E-04  0.4985E-07  0.1209E-02  0.1428E-03  0.8493E+01
   -1.600015   30.20877  0.1134E-12  0.1321E-04  0.5475E-07  0.1059E-02  0.1311E-03  0.1637E+02
   -1.650015   30.20960  0.1134E-12  0.1269E-04  0.6225E-07  0.9856E-03  0.1185E-03  0.5494E+03
   -1.700014   30.21050  0.1134E-12  0.1198E-04  0.7569E-07  0.7992E-03  0.1065E-03  0.1233E+04
   -1.750013   30.21213  0.1134E-12  0.1101E-04  0.9800E-07  0.7226E-03  0.9014E-04  0.1689E+05
   -1.800012   30.21351  0.1134E-12  0.9715E-05  0.1436E-06  0.5064E-03  0.7732E-04  0.3094E+04
   -1.850010   30.21891  0.1134E-12  0.8223E-05  0.2299E-06  0.4571E-03  0.5536E-04  0.3898E+07
   -1.900008   30.21811  0.1134E-12  0.6490E-05  0.4796E-06  0.2103E-03  0.4475E-04 -0.2656E+05
   -1.950006   30.23552  0.1134E-12  0.4526E-05  0.1210E-05  0.1819E-03  0.2398E-04 -0.1337E+06
   -2.000003   30.23781  0.1134E-12  0.0000E+00  0.0000E+00  0.0000E+00  0.4405E-04  0.0000E+00
