 1 - depth, m
 2 - temperature, C
 3 - salinity, kg/kg
 4 - turbulent kinetic energy, m**2/s**2
 5 - dissipation rate, m**2/s**3
 6 - kinematic heat conductance, m**2/s
 7 - modulus of horizontal velocity, m/s
 8 - Richardson number, n/d
   -0.000000   30.32853  0.4481E-14  0.4576E-05  0.2787E-06  0.4960E-04  0.1224E-02  0.1712E+04
   -0.049997   30.35702  0.4481E-14  0.7918E-05  0.1240E-06  0.1732E-03  0.6990E-03  0.7970E+02
   -0.099994   30.36830  0.4481E-14  0.9624E-05  0.8529E-07  0.3981E-03  0.5085E-03  0.3109E+02
   -0.149992   30.37132  0.4481E-14  0.1069E-04  0.7177E-07  0.4755E-03  0.4494E-03  0.1510E+02
   -0.199991   30.37375  0.4481E-14  0.1151E-04  0.6383E-07  0.6355E-03  0.4012E-03  0.9743E+01
   -0.249989   30.37551  0.4481E-14  0.1217E-04  0.5863E-07  0.7594E-03  0.3651E-03  0.7195E+01
   -0.299988   30.37695  0.4481E-14  0.1271E-04  0.5492E-07  0.8826E-03  0.3351E-03  0.5740E+01
   -0.349988   30.37816  0.4481E-14  0.1316E-04  0.5214E-07  0.9943E-03  0.3093E-03  0.4907E+01
   -0.399988   30.37921  0.4481E-14  0.1354E-04  0.4998E-07  0.1097E-02  0.2866E-03  0.4383E+01
   -0.449988   30.38014  0.4481E-14  0.1386E-04  0.4823E-07  0.1192E-02  0.2666E-03  0.4110E+01
   -0.499988   30.38098  0.4481E-14  0.1415E-04  0.4678E-07  0.1279E-02  0.2489E-03  0.4007E+01
   -0.549989   30.38175  0.4481E-14  0.1439E-04  0.4557E-07  0.1359E-02  0.2330E-03  0.3949E+01
   -0.599990   30.38247  0.4481E-14  0.1460E-04  0.4456E-07  0.1431E-02  0.2187E-03  0.3961E+01
   -0.649991   30.38313  0.4481E-14  0.1479E-04  0.4370E-07  0.1496E-02  0.2056E-03  0.4004E+01
   -0.699992   30.38376  0.4481E-14  0.1495E-04  0.4298E-07  0.1554E-02  0.1936E-03  0.4106E+01
   -0.749993   30.38436  0.4481E-14  0.1508E-04  0.4239E-07  0.1605E-02  0.1825E-03  0.4234E+01
   -0.799995   30.38493  0.4481E-14  0.1519E-04  0.4189E-07  0.1647E-02  0.1722E-03  0.4423E+01
   -0.849996   30.38548  0.4481E-14  0.1527E-04  0.4150E-07  0.1682E-02  0.1625E-03  0.4643E+01
   -0.899998   30.38601  0.4481E-14  0.1534E-04  0.4121E-07  0.1710E-02  0.1535E-03  0.4937E+01
   -0.950000   30.38653  0.4481E-14  0.1539E-04  0.4100E-07  0.1729E-02  0.1450E-03  0.5274E+01
   -1.000001   30.38705  0.4481E-14  0.1541E-04  0.4089E-07  0.1740E-02  0.1369E-03  0.5710E+01
   -1.050003   30.38755  0.4481E-14  0.1542E-04  0.4088E-07  0.1742E-02  0.1293E-03  0.6460E+01
   -1.100005   30.38805  0.4481E-14  0.1540E-04  0.4097E-07  0.1824E-02  0.1220E-03  0.2157E+02
   -1.150006   30.38852  0.4481E-14  0.1536E-04  0.4118E-07  0.1668E-02  0.1155E-03  0.4826E+02
   -1.200008   30.38904  0.4481E-14  0.1530E-04  0.4151E-07  0.1689E-02  0.1088E-03  0.9311E+01
   -1.250009   30.38955  0.4481E-14  0.1522E-04  0.4201E-07  0.1659E-02  0.1024E-03  0.9963E+01
   -1.300011   30.39006  0.4481E-14  0.1511E-04  0.4269E-07  0.1612E-02  0.9616E-04  0.1162E+02
   -1.350012   30.39059  0.4481E-14  0.1497E-04  0.4361E-07  0.1555E-02  0.9016E-04  0.1393E+02
   -1.400013   30.39114  0.4481E-14  0.1479E-04  0.4485E-07  0.1481E-02  0.8432E-04  0.1714E+02
   -1.450014   30.39171  0.4481E-14  0.1458E-04  0.4652E-07  0.1404E-02  0.7859E-04  0.2183E+02
   -1.500014   30.39232  0.4481E-14  0.1431E-04  0.4882E-07  0.1297E-02  0.7297E-04  0.2944E+02
   -1.550015   30.39298  0.4481E-14  0.1399E-04  0.5205E-07  0.1212E-02  0.6734E-04  0.4174E+02
   -1.600015   30.39369  0.4481E-14  0.1359E-04  0.5694E-07  0.1072E-02  0.6182E-04  0.7687E+02
   -1.650015   30.39455  0.4481E-14  0.1307E-04  0.6446E-07  0.9895E-03  0.5595E-04  0.7683E+03
   -1.700014   30.39552  0.4481E-14  0.1237E-04  0.7788E-07  0.8148E-03  0.5022E-04  0.6594E+04
   -1.750013   30.39720  0.4481E-14  0.1142E-04  0.1000E-06  0.7281E-03  0.4277E-04  0.3031E+06
   -1.800012   30.39871  0.4481E-14  0.1013E-04  0.1448E-06  0.5197E-03  0.3668E-04  0.5606E+05
   -1.850010   30.40414  0.4481E-14  0.8640E-05  0.2310E-06  0.4643E-03  0.2677E-04  0.1682E+08
   -1.900008   30.40356  0.4481E-14  0.6836E-05  0.4871E-06  0.2134E-03  0.2155E-04 -0.1242E+09
   -1.950006   30.42123  0.4481E-14  0.4759E-05  0.1219E-05  0.1800E-03  0.1177E-04 -0.1359E+07
   -2.000002   30.42359  0.4481E-14  0.0000E+00  0.0000E+00  0.0000E+00  0.2101E-04  0.0000E+00
