 1 - depth, m
 2 - temperature, C
 3 - salinity, kg/kg
 4 - turbulent kinetic energy, m**2/s**2
 5 - dissipation rate, m**2/s**3
 6 - kinematic heat conductance, m**2/s
 7 - modulus of horizontal velocity, m/s
 8 - Richardson number, n/d
   -0.000000   29.75818  0.1242E-14  0.4344E-05  0.2544E-06  0.4770E-04  0.1283E-02  0.6478E+04
   -0.049997   29.78546  0.1242E-14  0.7535E-05  0.1134E-06  0.1727E-03  0.7231E-03  0.2489E+04
   -0.099994   29.79576  0.1242E-14  0.9145E-05  0.7844E-07  0.3887E-03  0.5285E-03  0.2670E+02
   -0.149992   29.79862  0.1242E-14  0.1016E-04  0.6606E-07  0.4695E-03  0.4662E-03  0.1303E+02
   -0.199991   29.80090  0.1242E-14  0.1095E-04  0.5881E-07  0.6250E-03  0.4160E-03  0.8416E+01
   -0.249989   29.80257  0.1242E-14  0.1158E-04  0.5406E-07  0.7472E-03  0.3782E-03  0.6229E+01
   -0.299989   29.80393  0.1242E-14  0.1210E-04  0.5069E-07  0.8682E-03  0.3469E-03  0.4973E+01
   -0.349988   29.80507  0.1242E-14  0.1253E-04  0.4817E-07  0.9781E-03  0.3199E-03  0.4267E+01
   -0.399988   29.80607  0.1242E-14  0.1290E-04  0.4622E-07  0.1079E-02  0.2962E-03  0.3811E+01
   -0.449988   29.80695  0.1242E-14  0.1322E-04  0.4464E-07  0.1172E-02  0.2752E-03  0.3587E+01
   -0.499988   29.80775  0.1242E-14  0.1350E-04  0.4334E-07  0.1259E-02  0.2568E-03  0.3495E+01
   -0.549989   29.80849  0.1242E-14  0.1374E-04  0.4226E-07  0.1338E-02  0.2402E-03  0.3459E+01
   -0.599990   29.80917  0.1242E-14  0.1395E-04  0.4136E-07  0.1409E-02  0.2253E-03  0.3467E+01
   -0.649991   29.80980  0.1242E-14  0.1414E-04  0.4062E-07  0.1474E-02  0.2116E-03  0.3521E+01
   -0.699992   29.81040  0.1242E-14  0.1430E-04  0.3999E-07  0.1531E-02  0.1991E-03  0.3608E+01
   -0.749993   29.81097  0.1242E-14  0.1444E-04  0.3948E-07  0.1581E-02  0.1876E-03  0.3740E+01
   -0.799995   29.81152  0.1242E-14  0.1455E-04  0.3907E-07  0.1624E-02  0.1769E-03  0.3905E+01
   -0.849996   29.81205  0.1242E-14  0.1465E-04  0.3875E-07  0.1659E-02  0.1668E-03  0.4120E+01
   -0.899998   29.81257  0.1242E-14  0.1473E-04  0.3852E-07  0.1687E-02  0.1575E-03  0.4378E+01
   -0.950000   29.81307  0.1242E-14  0.1478E-04  0.3838E-07  0.1707E-02  0.1486E-03  0.4702E+01
   -1.000002   29.81356  0.1242E-14  0.1482E-04  0.3832E-07  0.1719E-02  0.1403E-03  0.5085E+01
   -1.050003   29.81405  0.1242E-14  0.1484E-04  0.3835E-07  0.1722E-02  0.1323E-03  0.5790E+01
   -1.100005   29.81453  0.1242E-14  0.1484E-04  0.3848E-07  0.1796E-02  0.1248E-03  0.1947E+02
   -1.150007   29.81500  0.1242E-14  0.1482E-04  0.3873E-07  0.1659E-02  0.1181E-03  0.4241E+02
   -1.200008   29.81550  0.1242E-14  0.1478E-04  0.3909E-07  0.1673E-02  0.1111E-03  0.8337E+01
   -1.250010   29.81599  0.1242E-14  0.1471E-04  0.3959E-07  0.1645E-02  0.1045E-03  0.8917E+01
   -1.300011   29.81650  0.1242E-14  0.1462E-04  0.4027E-07  0.1600E-02  0.9811E-04  0.1043E+02
   -1.350012   29.81701  0.1242E-14  0.1450E-04  0.4117E-07  0.1545E-02  0.9193E-04  0.1243E+02
   -1.400013   29.81755  0.1242E-14  0.1436E-04  0.4236E-07  0.1475E-02  0.8592E-04  0.1526E+02
   -1.450014   29.81811  0.1242E-14  0.1417E-04  0.4394E-07  0.1400E-02  0.8003E-04  0.1926E+02
   -1.500015   29.81871  0.1242E-14  0.1394E-04  0.4608E-07  0.1297E-02  0.7427E-04  0.2572E+02
   -1.550015   29.81936  0.1242E-14  0.1365E-04  0.4905E-07  0.1212E-02  0.6851E-04  0.3577E+02
   -1.600015   29.82006  0.1242E-14  0.1330E-04  0.5344E-07  0.1075E-02  0.6287E-04  0.6095E+02
   -1.650015   29.82088  0.1242E-14  0.1284E-04  0.6008E-07  0.9931E-03  0.5694E-04  0.8578E+04
   -1.700015   29.82181  0.1242E-14  0.1221E-04  0.7184E-07  0.8190E-03  0.5119E-04 -0.1009E+04
   -1.750014   29.82334  0.1242E-14  0.1135E-04  0.9134E-07  0.7368E-03  0.4384E-04  0.2817E+05
   -1.800012   29.82479  0.1242E-14  0.1014E-04  0.1322E-06  0.5263E-03  0.3767E-04  0.1564E+05
   -1.850011   29.82962  0.1242E-14  0.8708E-05  0.2079E-06  0.4705E-03  0.2775E-04  0.1566E+08
   -1.900009   29.82966  0.1242E-14  0.6925E-05  0.4292E-06  0.2162E-03  0.2232E-04 -0.6186E+07
   -1.950006   29.84625  0.1242E-14  0.4779E-05  0.1106E-05  0.1688E-03  0.1231E-04 -0.1086E+07
   -2.000003   29.85070  0.1242E-14  0.0000E+00  0.0000E+00  0.0000E+00  0.2109E-04  0.0000E+00
