 1 - depth, m
 2 - temperature, C
 3 - salinity, kg/kg
 4 - turbulent kinetic energy, m**2/s**2
 5 - dissipation rate, m**2/s**3
 6 - kinematic heat conductance, m**2/s
 7 - modulus of horizontal velocity, m/s
 8 - Richardson number, n/d
   -0.000000   30.33679  0.1288E-14  0.4585E-05  0.2775E-06  0.4905E-04  0.1308E-02  0.1650E+05
   -0.049997   30.36538  0.1288E-14  0.7928E-05  0.1237E-06  0.1767E-03  0.7398E-03  0.2266E+03
   -0.099994   30.37620  0.1288E-14  0.9626E-05  0.8549E-07  0.3955E-03  0.5424E-03  0.2628E+02
   -0.149992   30.37921  0.1288E-14  0.1070E-04  0.7187E-07  0.4776E-03  0.4787E-03  0.1290E+02
   -0.199991   30.38161  0.1288E-14  0.1153E-04  0.6392E-07  0.6377E-03  0.4273E-03  0.8299E+01
   -0.249989   30.38335  0.1288E-14  0.1220E-04  0.5873E-07  0.7625E-03  0.3889E-03  0.6140E+01
   -0.299988   30.38477  0.1288E-14  0.1275E-04  0.5505E-07  0.8868E-03  0.3569E-03  0.4899E+01
   -0.349988   30.38597  0.1288E-14  0.1321E-04  0.5231E-07  0.9994E-03  0.3295E-03  0.4201E+01
   -0.399988   30.38701  0.1288E-14  0.1360E-04  0.5019E-07  0.1103E-02  0.3053E-03  0.3750E+01
   -0.449988   30.38793  0.1288E-14  0.1394E-04  0.4847E-07  0.1199E-02  0.2840E-03  0.3527E+01
   -0.499988   30.38877  0.1288E-14  0.1423E-04  0.4707E-07  0.1287E-02  0.2652E-03  0.3433E+01
   -0.549989   30.38953  0.1288E-14  0.1449E-04  0.4590E-07  0.1368E-02  0.2483E-03  0.3396E+01
   -0.599989   30.39024  0.1288E-14  0.1471E-04  0.4493E-07  0.1441E-02  0.2331E-03  0.3401E+01
   -0.649991   30.39091  0.1288E-14  0.1491E-04  0.4413E-07  0.1507E-02  0.2192E-03  0.3455E+01
   -0.699992   30.39153  0.1288E-14  0.1508E-04  0.4346E-07  0.1565E-02  0.2064E-03  0.3538E+01
   -0.749993   30.39213  0.1288E-14  0.1522E-04  0.4292E-07  0.1616E-02  0.1946E-03  0.3670E+01
   -0.799995   30.39270  0.1288E-14  0.1535E-04  0.4248E-07  0.1659E-02  0.1836E-03  0.3829E+01
   -0.849996   30.39326  0.1288E-14  0.1545E-04  0.4215E-07  0.1694E-02  0.1734E-03  0.4047E+01
   -0.899998   30.39379  0.1288E-14  0.1553E-04  0.4192E-07  0.1722E-02  0.1638E-03  0.4297E+01
   -0.949999   30.39432  0.1288E-14  0.1559E-04  0.4178E-07  0.1741E-02  0.1547E-03  0.4624E+01
   -1.000001   30.39484  0.1288E-14  0.1563E-04  0.4174E-07  0.1753E-02  0.1461E-03  0.5000E+01
   -1.050003   30.39535  0.1288E-14  0.1565E-04  0.4180E-07  0.1754E-02  0.1380E-03  0.5702E+01
   -1.100005   30.39586  0.1288E-14  0.1564E-04  0.4197E-07  0.1836E-02  0.1303E-03  0.1903E+02
   -1.150006   30.39635  0.1288E-14  0.1562E-04  0.4227E-07  0.1679E-02  0.1233E-03  0.4247E+02
   -1.200008   30.39688  0.1288E-14  0.1557E-04  0.4270E-07  0.1700E-02  0.1162E-03  0.8279E+01
   -1.250009   30.39740  0.1288E-14  0.1550E-04  0.4329E-07  0.1669E-02  0.1093E-03  0.8872E+01
   -1.300011   30.39794  0.1288E-14  0.1540E-04  0.4409E-07  0.1621E-02  0.1027E-03  0.1042E+02
   -1.350012   30.39849  0.1288E-14  0.1527E-04  0.4514E-07  0.1564E-02  0.9634E-04  0.1249E+02
   -1.400013   30.39906  0.1288E-14  0.1511E-04  0.4652E-07  0.1488E-02  0.9011E-04  0.1546E+02
   -1.450014   30.39966  0.1288E-14  0.1490E-04  0.4837E-07  0.1412E-02  0.8400E-04  0.1969E+02
   -1.500014   30.40030  0.1288E-14  0.1465E-04  0.5088E-07  0.1302E-02  0.7800E-04  0.2672E+02
   -1.550015   30.40100  0.1288E-14  0.1433E-04  0.5438E-07  0.1218E-02  0.7199E-04  0.3787E+02
   -1.600015   30.40176  0.1288E-14  0.1393E-04  0.5964E-07  0.1074E-02  0.6609E-04  0.7385E+02
   -1.650014   30.40268  0.1288E-14  0.1342E-04  0.6764E-07  0.9962E-03  0.5980E-04  0.2024E+04
   -1.700014   30.40371  0.1288E-14  0.1271E-04  0.8188E-07  0.8116E-03  0.5371E-04 -0.1527E+04
   -1.750013   30.40551  0.1288E-14  0.1176E-04  0.1052E-06  0.7353E-03  0.4569E-04  0.5616E+05
   -1.800012   30.40707  0.1288E-14  0.1046E-04  0.1532E-06  0.5146E-03  0.3935E-04  0.6485E+04
   -1.850010   30.41300  0.1288E-14  0.8943E-05  0.2450E-06  0.4699E-03  0.2857E-04  0.3938E+08
   -1.900008   30.41237  0.1288E-14  0.7122E-05  0.5121E-06  0.2121E-03  0.2316E-04  0.1910E+06
   -1.950005   30.43179  0.1288E-14  0.4958E-05  0.1296E-05  0.1798E-03  0.1268E-04 -0.2496E+07
   -2.000002   30.43491  0.1288E-14  0.0000E+00  0.0000E+00  0.0000E+00  0.2223E-04  0.0000E+00
