 1 - depth, m
 2 - temperature, C
 3 - salinity, kg/kg
 4 - turbulent kinetic energy, m**2/s**2
 5 - dissipation rate, m**2/s**3
 6 - kinematic heat conductance, m**2/s
 7 - modulus of horizontal velocity, m/s
 8 - Richardson number, n/d
   -0.000000   29.91632  0.8412E-14  0.4841E-05  0.2795E-06  0.4969E-04  0.2473E-02  0.5067E+04
   -0.049997   29.94521  0.8412E-14  0.8085E-05  0.1233E-06  0.1865E-03  0.1349E-02  0.2764E+03
   -0.099994   29.95490  0.8412E-14  0.9660E-05  0.8634E-07  0.3843E-03  0.1024E-02  0.7683E+01
   -0.149992   29.95804  0.8412E-14  0.1068E-04  0.7247E-07  0.4760E-03  0.9040E-03  0.3869E+01
   -0.199991   29.96047  0.8412E-14  0.1148E-04  0.6435E-07  0.6255E-03  0.8094E-03  0.2509E+01
   -0.249989   29.96226  0.8412E-14  0.1211E-04  0.5903E-07  0.7479E-03  0.7374E-03  0.1857E+01
   -0.299989   29.96373  0.8412E-14  0.1264E-04  0.5524E-07  0.8649E-03  0.6775E-03  0.1490E+01
   -0.349988   29.96496  0.8412E-14  0.1308E-04  0.5239E-07  0.9695E-03  0.6259E-03  0.1316E+01
   -0.399988   29.96604  0.8412E-14  0.1345E-04  0.5013E-07  0.1071E-02  0.5795E-03  0.1255E+01
   -0.449988   29.96699  0.8412E-14  0.1379E-04  0.4824E-07  0.1173E-02  0.5372E-03  0.1236E+01
   -0.499988   29.96785  0.8412E-14  0.1409E-04  0.4666E-07  0.1269E-02  0.4989E-03  0.1235E+01
   -0.549989   29.96862  0.8412E-14  0.1435E-04  0.4534E-07  0.1357E-02  0.4644E-03  0.1229E+01
   -0.599990   29.96933  0.8412E-14  0.1458E-04  0.4422E-07  0.1438E-02  0.4332E-03  0.1228E+01
   -0.649991   29.97000  0.8412E-14  0.1477E-04  0.4329E-07  0.1509E-02  0.4049E-03  0.1224E+01
   -0.699992   29.97062  0.8412E-14  0.1493E-04  0.4251E-07  0.1572E-02  0.3791E-03  0.1223E+01
   -0.749993   29.97121  0.8412E-14  0.1506E-04  0.4187E-07  0.1625E-02  0.3557E-03  0.1222E+01
   -0.799995   29.97177  0.8412E-14  0.1517E-04  0.4136E-07  0.1668E-02  0.3344E-03  0.1230E+01
   -0.849996   29.97231  0.8412E-14  0.1525E-04  0.4096E-07  0.1702E-02  0.3149E-03  0.1244E+01
   -0.899998   29.97284  0.8412E-14  0.1531E-04  0.4065E-07  0.1727E-02  0.2970E-03  0.1285E+01
   -0.950000   29.97335  0.8412E-14  0.1534E-04  0.4044E-07  0.1744E-02  0.2804E-03  0.1350E+01
   -1.000002   29.97386  0.8412E-14  0.1536E-04  0.4032E-07  0.1753E-02  0.2649E-03  0.1452E+01
   -1.050003   29.97435  0.8412E-14  0.1535E-04  0.4030E-07  0.1753E-02  0.2502E-03  0.1642E+01
   -1.100005   29.97485  0.8412E-14  0.1533E-04  0.4037E-07  0.1842E-02  0.2362E-03  0.5457E+01
   -1.150007   29.97531  0.8412E-14  0.1528E-04  0.4058E-07  0.1666E-02  0.2237E-03  0.1233E+02
   -1.200008   29.97582  0.8412E-14  0.1521E-04  0.4089E-07  0.1694E-02  0.2107E-03  0.2366E+01
   -1.250010   29.97632  0.8412E-14  0.1512E-04  0.4137E-07  0.1663E-02  0.1982E-03  0.2526E+01
   -1.300011   29.97683  0.8412E-14  0.1500E-04  0.4203E-07  0.1614E-02  0.1863E-03  0.2942E+01
   -1.350012   29.97735  0.8412E-14  0.1485E-04  0.4293E-07  0.1556E-02  0.1747E-03  0.3523E+01
   -1.400013   29.97788  0.8412E-14  0.1467E-04  0.4415E-07  0.1480E-02  0.1634E-03  0.4322E+01
   -1.450014   29.97845  0.8412E-14  0.1444E-04  0.4579E-07  0.1402E-02  0.1523E-03  0.5502E+01
   -1.500015   29.97904  0.8412E-14  0.1417E-04  0.4806E-07  0.1291E-02  0.1414E-03  0.7394E+01
   -1.550015   29.97969  0.8412E-14  0.1384E-04  0.5126E-07  0.1207E-02  0.1305E-03  0.1045E+02
   -1.600015   29.98039  0.8412E-14  0.1344E-04  0.5608E-07  0.1061E-02  0.1198E-03  0.1842E+02
   -1.650015   29.98124  0.8412E-14  0.1292E-04  0.6345E-07  0.9856E-03  0.1084E-03  0.6350E+03
   -1.700014   29.98217  0.8412E-14  0.1220E-04  0.7683E-07  0.8015E-03  0.9747E-04 -0.3770E+03
   -1.750014   29.98384  0.8412E-14  0.1124E-04  0.9897E-07  0.7257E-03  0.8277E-04  0.1763E+05
   -1.800012   29.98529  0.8412E-14  0.9920E-05  0.1441E-06  0.5042E-03  0.7104E-04  0.3020E+04
   -1.850011   29.99075  0.8412E-14  0.8399E-05  0.2300E-06  0.4608E-03  0.5114E-04  0.4883E+07
   -1.900009   29.99013  0.8412E-14  0.6601E-05  0.4812E-06  0.2038E-03  0.4125E-04  0.1489E+06
   -1.950006   30.00799  0.8412E-14  0.4592E-05  0.1221E-05  0.1818E-03  0.2196E-04 -0.1118E+07
   -2.000003   30.00980  0.8412E-14  0.0000E+00  0.0000E+00  0.0000E+00  0.4012E-04  0.0000E+00
