 1 - depth, m
 2 - temperature, C
 3 - salinity, kg/kg
 4 - turbulent kinetic energy, m**2/s**2
 5 - dissipation rate, m**2/s**3
 6 - kinematic heat conductance, m**2/s
 7 - modulus of horizontal velocity, m/s
 8 - Richardson number, n/d
   -0.000000   30.16766  0.2192E-13  0.4507E-05  0.2738E-06  0.4923E-04  0.8766E-03  0.1649E+05
   -0.049997   30.19608  0.2193E-13  0.7878E-05  0.1214E-06  0.1734E-03  0.4995E-03  0.6003E+03
   -0.099994   30.20731  0.2193E-13  0.9578E-05  0.8356E-07  0.4033E-03  0.3615E-03  0.6352E+02
   -0.149992   30.21026  0.2193E-13  0.1063E-04  0.7049E-07  0.4781E-03  0.3198E-03  0.3085E+02
   -0.199991   30.21265  0.2193E-13  0.1145E-04  0.6279E-07  0.6389E-03  0.2856E-03  0.2002E+02
   -0.249989   30.21440  0.2193E-13  0.1210E-04  0.5773E-07  0.7628E-03  0.2600E-03  0.1483E+02
   -0.299989   30.21581  0.2193E-13  0.1264E-04  0.5412E-07  0.8859E-03  0.2387E-03  0.1185E+02
   -0.349988   30.21701  0.2193E-13  0.1309E-04  0.5142E-07  0.9976E-03  0.2204E-03  0.1014E+02
   -0.399988   30.21805  0.2193E-13  0.1346E-04  0.4932E-07  0.1100E-02  0.2042E-03  0.9063E+01
   -0.449988   30.21897  0.2193E-13  0.1379E-04  0.4761E-07  0.1195E-02  0.1899E-03  0.8493E+01
   -0.499988   30.21980  0.2193E-13  0.1408E-04  0.4621E-07  0.1282E-02  0.1773E-03  0.8285E+01
   -0.549989   30.22056  0.2193E-13  0.1432E-04  0.4503E-07  0.1362E-02  0.1660E-03  0.8155E+01
   -0.599990   30.22127  0.2193E-13  0.1454E-04  0.4405E-07  0.1435E-02  0.1558E-03  0.8183E+01
   -0.649991   30.22193  0.2193E-13  0.1472E-04  0.4323E-07  0.1500E-02  0.1465E-03  0.8262E+01
   -0.699992   30.22255  0.2193E-13  0.1488E-04  0.4253E-07  0.1558E-02  0.1380E-03  0.8476E+01
   -0.749993   30.22314  0.2193E-13  0.1502E-04  0.4196E-07  0.1608E-02  0.1301E-03  0.8728E+01
   -0.799995   30.22371  0.2193E-13  0.1513E-04  0.4149E-07  0.1651E-02  0.1227E-03  0.9122E+01
   -0.849996   30.22426  0.2193E-13  0.1522E-04  0.4112E-07  0.1686E-02  0.1158E-03  0.9561E+01
   -0.899998   30.22479  0.2193E-13  0.1529E-04  0.4085E-07  0.1714E-02  0.1094E-03  0.1017E+02
   -0.950000   30.22531  0.2193E-13  0.1534E-04  0.4066E-07  0.1734E-02  0.1033E-03  0.1085E+02
   -1.000001   30.22582  0.2193E-13  0.1537E-04  0.4057E-07  0.1745E-02  0.9760E-04  0.1174E+02
   -1.050003   30.22632  0.2193E-13  0.1538E-04  0.4057E-07  0.1748E-02  0.9216E-04  0.1326E+02
   -1.100005   30.22681  0.2193E-13  0.1537E-04  0.4068E-07  0.1827E-02  0.8697E-04  0.4451E+02
   -1.150006   30.22729  0.2193E-13  0.1534E-04  0.4091E-07  0.1676E-02  0.8233E-04  0.9750E+02
   -1.200008   30.22780  0.2193E-13  0.1529E-04  0.4125E-07  0.1696E-02  0.7755E-04  0.1898E+02
   -1.250010   30.22831  0.2193E-13  0.1521E-04  0.4175E-07  0.1667E-02  0.7297E-04  0.2028E+02
   -1.300011   30.22882  0.2193E-13  0.1511E-04  0.4244E-07  0.1620E-02  0.6856E-04  0.2357E+02
   -1.350012   30.22935  0.2193E-13  0.1497E-04  0.4336E-07  0.1564E-02  0.6428E-04  0.2813E+02
   -1.400013   30.22989  0.2193E-13  0.1481E-04  0.4459E-07  0.1490E-02  0.6012E-04  0.3436E+02
   -1.450014   30.23046  0.2193E-13  0.1460E-04  0.4624E-07  0.1415E-02  0.5605E-04  0.4345E+02
   -1.500015   30.23107  0.2193E-13  0.1435E-04  0.4848E-07  0.1306E-02  0.5205E-04  0.5781E+02
   -1.550015   30.23173  0.2193E-13  0.1404E-04  0.5161E-07  0.1224E-02  0.4805E-04  0.8059E+02
   -1.600015   30.23244  0.2193E-13  0.1366E-04  0.5627E-07  0.1076E-02  0.4413E-04  0.1355E+03
   -1.650015   30.23329  0.2193E-13  0.1317E-04  0.6330E-07  0.1006E-02  0.3997E-04  0.3547E+03
   -1.700014   30.23421  0.2193E-13  0.1250E-04  0.7602E-07  0.8166E-03  0.3602E-04  0.1071E+05
   -1.750013   30.23582  0.2193E-13  0.1158E-04  0.9711E-07  0.7451E-03  0.3073E-04  0.1115E+06
   -1.800012   30.23728  0.2193E-13  0.1030E-04  0.1403E-06  0.5183E-03  0.2648E-04  0.7036E+06
   -1.850010   30.24247  0.2193E-13  0.8784E-05  0.2215E-06  0.4766E-03  0.1924E-04  0.5696E+07
   -1.900008   30.24220  0.2193E-13  0.6976E-05  0.4516E-06  0.2139E-03  0.1560E-04  0.1078E+07
   -1.950006   30.25984  0.2193E-13  0.4839E-05  0.1171E-05  0.1759E-03  0.8499E-05 -0.1366E+07
   -2.000003   30.26270  0.2193E-13  0.0000E+00  0.0000E+00  0.0000E+00  0.1481E-04  0.0000E+00
