 1 - depth, m
 2 - temperature, C
 3 - salinity, kg/kg
 4 - turbulent kinetic energy, m**2/s**2
 5 - dissipation rate, m**2/s**3
 6 - kinematic heat conductance, m**2/s
 7 - modulus of horizontal velocity, m/s
 8 - Richardson number, n/d
   -0.000000   29.58303  0.6137E-13  0.4651E-05  0.2607E-06  0.4853E-04  0.2465E-02  0.3106E+04
   -0.049997   29.61082  0.6137E-13  0.7771E-05  0.1150E-06  0.1844E-03  0.1336E-02  0.4337E+02
   -0.099994   29.61992  0.6137E-13  0.9272E-05  0.8076E-07  0.3776E-03  0.1015E-02  0.7523E+01
   -0.149992   29.62293  0.6137E-13  0.1025E-04  0.6782E-07  0.4698E-03  0.8947E-03  0.3786E+01
   -0.199991   29.62524  0.6137E-13  0.1101E-04  0.6025E-07  0.6160E-03  0.8005E-03  0.2459E+01
   -0.249989   29.62695  0.6137E-13  0.1163E-04  0.5528E-07  0.7369E-03  0.7287E-03  0.1822E+01
   -0.299989   29.62835  0.6137E-13  0.1213E-04  0.5175E-07  0.8520E-03  0.6690E-03  0.1463E+01
   -0.349988   29.62953  0.6137E-13  0.1256E-04  0.4909E-07  0.9559E-03  0.6175E-03  0.1296E+01
   -0.399988   29.63056  0.6137E-13  0.1292E-04  0.4699E-07  0.1056E-02  0.5712E-03  0.1228E+01
   -0.449988   29.63147  0.6137E-13  0.1325E-04  0.4525E-07  0.1156E-02  0.5292E-03  0.1215E+01
   -0.499988   29.63229  0.6137E-13  0.1354E-04  0.4379E-07  0.1251E-02  0.4912E-03  0.1216E+01
   -0.549989   29.63303  0.6137E-13  0.1380E-04  0.4256E-07  0.1338E-02  0.4569E-03  0.1214E+01
   -0.599990   29.63371  0.6137E-13  0.1402E-04  0.4154E-07  0.1418E-02  0.4259E-03  0.1210E+01
   -0.649991   29.63434  0.6137E-13  0.1422E-04  0.4069E-07  0.1490E-02  0.3978E-03  0.1206E+01
   -0.699992   29.63494  0.6137E-13  0.1438E-04  0.3998E-07  0.1552E-02  0.3724E-03  0.1202E+01
   -0.749993   29.63550  0.6137E-13  0.1451E-04  0.3941E-07  0.1605E-02  0.3492E-03  0.1202E+01
   -0.799995   29.63604  0.6137E-13  0.1462E-04  0.3896E-07  0.1648E-02  0.3282E-03  0.1208E+01
   -0.849996   29.63656  0.6137E-13  0.1471E-04  0.3860E-07  0.1683E-02  0.3089E-03  0.1231E+01
   -0.899998   29.63706  0.6137E-13  0.1478E-04  0.3834E-07  0.1708E-02  0.2912E-03  0.1272E+01
   -0.950000   29.63756  0.6137E-13  0.1482E-04  0.3817E-07  0.1726E-02  0.2748E-03  0.1344E+01
   -1.000002   29.63804  0.6137E-13  0.1485E-04  0.3809E-07  0.1736E-02  0.2594E-03  0.1444E+01
   -1.050003   29.63852  0.6137E-13  0.1486E-04  0.3809E-07  0.1738E-02  0.2448E-03  0.1639E+01
   -1.100005   29.63899  0.6137E-13  0.1484E-04  0.3819E-07  0.1818E-02  0.2310E-03  0.5484E+01
   -1.150007   29.63945  0.6137E-13  0.1481E-04  0.3841E-07  0.1666E-02  0.2186E-03  0.1209E+02
   -1.200008   29.63994  0.6137E-13  0.1476E-04  0.3873E-07  0.1686E-02  0.2058E-03  0.2357E+01
   -1.250010   29.64042  0.6137E-13  0.1469E-04  0.3920E-07  0.1657E-02  0.1936E-03  0.2515E+01
   -1.300011   29.64091  0.6137E-13  0.1459E-04  0.3984E-07  0.1611E-02  0.1818E-03  0.2934E+01
   -1.350012   29.64142  0.6137E-13  0.1446E-04  0.4070E-07  0.1555E-02  0.1704E-03  0.3495E+01
   -1.400013   29.64194  0.6137E-13  0.1430E-04  0.4184E-07  0.1483E-02  0.1593E-03  0.4282E+01
   -1.450014   29.64248  0.6137E-13  0.1411E-04  0.4336E-07  0.1408E-02  0.1485E-03  0.5403E+01
   -1.500015   29.64306  0.6137E-13  0.1387E-04  0.4544E-07  0.1303E-02  0.1378E-03  0.7192E+01
   -1.550015   29.64369  0.6137E-13  0.1358E-04  0.4832E-07  0.1218E-02  0.1272E-03  0.9996E+01
   -1.600015   29.64437  0.6137E-13  0.1322E-04  0.5261E-07  0.1078E-02  0.1168E-03  0.1674E+02
   -1.650015   29.64517  0.6137E-13  0.1276E-04  0.5908E-07  0.9983E-03  0.1058E-03  0.7049E+02
   -1.700015   29.64606  0.6137E-13  0.1213E-04  0.7064E-07  0.8167E-03  0.9524E-04 -0.5189E+03
   -1.750014   29.64756  0.6137E-13  0.1126E-04  0.8983E-07  0.7396E-03  0.8151E-04  0.5003E+05
   -1.800012   29.64894  0.6137E-13  0.1005E-04  0.1310E-06  0.5175E-03  0.7023E-04  0.1987E+05
   -1.850011   29.65379  0.6137E-13  0.8622E-05  0.2058E-06  0.4729E-03  0.5154E-04  0.6005E+06
   -1.900009   29.65357  0.6137E-13  0.6852E-05  0.4197E-06  0.2127E-03  0.4174E-04 -0.1197E+06
   -1.950006   29.67030  0.6137E-13  0.4707E-05  0.1083E-05  0.1705E-03  0.2284E-04 -0.9561E+05
   -2.000003   29.67342  0.6137E-13  0.0000E+00  0.0000E+00  0.0000E+00  0.3932E-04  0.0000E+00
