 1 - depth, m
 2 - temperature, C
 3 - salinity, kg/kg
 4 - turbulent kinetic energy, m**2/s**2
 5 - dissipation rate, m**2/s**3
 6 - kinematic heat conductance, m**2/s
 7 - modulus of horizontal velocity, m/s
 8 - Richardson number, n/d
   -0.000000   30.58163  0.5701E-14  0.5402E-05  0.3095E-06  0.5237E-04  0.3397E-02  0.2024E+04
   -0.049997   30.61179  0.5701E-14  0.8743E-05  0.1340E-06  0.2038E-03  0.1829E-02  0.3651E+03
   -0.099994   30.62101  0.5701E-14  0.1030E-04  0.9508E-07  0.3890E-03  0.1436E-02  0.4577E+01
   -0.149992   30.62431  0.5701E-14  0.1133E-04  0.8014E-07  0.4860E-03  0.1280E-02  0.2382E+01
   -0.199991   30.62684  0.5701E-14  0.1214E-04  0.7144E-07  0.6240E-03  0.1157E-02  0.1600E+01
   -0.249989   30.62876  0.5701E-14  0.1281E-04  0.6573E-07  0.7336E-03  0.1063E-02  0.1297E+01
   -0.299988   30.63035  0.5701E-14  0.1339E-04  0.6152E-07  0.8457E-03  0.9804E-03  0.1262E+01
   -0.349988   30.63170  0.5701E-14  0.1393E-04  0.5814E-07  0.9714E-03  0.9025E-03  0.1327E+01
   -0.399988   30.63285  0.5701E-14  0.1442E-04  0.5534E-07  0.1105E-02  0.8269E-03  0.1352E+01
   -0.449988   30.63384  0.5701E-14  0.1487E-04  0.5301E-07  0.1235E-02  0.7568E-03  0.1361E+01
   -0.499988   30.63471  0.5701E-14  0.1526E-04  0.5108E-07  0.1357E-02  0.6936E-03  0.1364E+01
   -0.549989   30.63548  0.5701E-14  0.1561E-04  0.4950E-07  0.1468E-02  0.6371E-03  0.1357E+01
   -0.599989   30.63619  0.5701E-14  0.1590E-04  0.4821E-07  0.1568E-02  0.5864E-03  0.1346E+01
   -0.649990   30.63684  0.5701E-14  0.1614E-04  0.4716E-07  0.1654E-02  0.5409E-03  0.1331E+01
   -0.699992   30.63745  0.5701E-14  0.1633E-04  0.4633E-07  0.1727E-02  0.5002E-03  0.1312E+01
   -0.749993   30.63803  0.5701E-14  0.1649E-04  0.4569E-07  0.1785E-02  0.4636E-03  0.1290E+01
   -0.799994   30.63858  0.5701E-14  0.1660E-04  0.4522E-07  0.1829E-02  0.4308E-03  0.1265E+01
   -0.849996   30.63911  0.5701E-14  0.1668E-04  0.4489E-07  0.1860E-02  0.4014E-03  0.1237E+01
   -0.899998   30.63963  0.5701E-14  0.1673E-04  0.4470E-07  0.1877E-02  0.3750E-03  0.1207E+01
   -0.949999   30.64014  0.5701E-14  0.1675E-04  0.4464E-07  0.1882E-02  0.3513E-03  0.1179E+01
   -1.000001   30.64065  0.5701E-14  0.1674E-04  0.4470E-07  0.1877E-02  0.3300E-03  0.1163E+01
   -1.050003   30.64115  0.5701E-14  0.1671E-04  0.4487E-07  0.1859E-02  0.3108E-03  0.1197E+01
   -1.100004   30.64166  0.5701E-14  0.1666E-04  0.4515E-07  0.2010E-02  0.2934E-03  0.3483E+01
   -1.150006   30.64212  0.5701E-14  0.1658E-04  0.4558E-07  0.1680E-02  0.2791E-03  0.9281E+01
   -1.200008   30.64268  0.5701E-14  0.1648E-04  0.4616E-07  0.1756E-02  0.2630E-03  0.1671E+01
   -1.250009   30.64321  0.5701E-14  0.1635E-04  0.4695E-07  0.1718E-02  0.2480E-03  0.1792E+01
   -1.300010   30.64375  0.5701E-14  0.1618E-04  0.4800E-07  0.1653E-02  0.2336E-03  0.2137E+01
   -1.350012   30.64431  0.5701E-14  0.1598E-04  0.4940E-07  0.1580E-02  0.2195E-03  0.2628E+01
   -1.400013   30.64489  0.5701E-14  0.1574E-04  0.5128E-07  0.1485E-02  0.2056E-03  0.3356E+01
   -1.450013   30.64552  0.5701E-14  0.1545E-04  0.5383E-07  0.1398E-02  0.1919E-03  0.4468E+01
   -1.500014   30.64620  0.5701E-14  0.1509E-04  0.5740E-07  0.1272E-02  0.1782E-03  0.6466E+01
   -1.550014   30.64696  0.5701E-14  0.1464E-04  0.6259E-07  0.1188E-02  0.1644E-03  0.1058E+02
   -1.600014   30.64781  0.5701E-14  0.1409E-04  0.7086E-07  0.1034E-02  0.1506E-03 -0.1251E+02
   -1.650014   30.64896  0.5701E-14  0.1334E-04  0.8382E-07  0.9511E-03  0.1351E-03  0.1898E+04
   -1.700014   30.65030  0.5701E-14  0.1232E-04  0.1068E-06  0.7638E-03  0.1194E-03  0.9685E+03
   -1.750013   30.65278  0.5701E-14  0.1109E-04  0.1429E-06  0.6904E-03  0.9827E-04  0.2905E+05
   -1.800011   30.65421  0.5701E-14  0.9563E-05  0.2253E-06  0.4628E-03  0.8443E-04  0.1766E+04
   -1.850010   30.66414  0.5701E-14  0.8033E-05  0.3773E-06  0.4482E-03  0.5632E-04  0.3090E+08
   -1.900008   30.65946  0.5701E-14  0.6406E-05  0.7911E-06  0.2092E-03  0.4704E-04 -0.8502E+05
   -1.950005   30.68415  0.5701E-14  0.4597E-05  0.1874E-05  0.2213E-03  0.2425E-04 -0.1598E+06
   -2.000002   30.68454  0.5701E-14  0.0000E+00  0.0000E+00  0.0000E+00  0.5137E-04  0.0000E+00
