 1 - depth, m
 2 - temperature, C
 3 - salinity, kg/kg
 4 - turbulent kinetic energy, m**2/s**2
 5 - dissipation rate, m**2/s**3
 6 - kinematic heat conductance, m**2/s
 7 - modulus of horizontal velocity, m/s
 8 - Richardson number, n/d
   -0.000000   31.61589  0.9312E-14  0.5434E-05  0.3550E-06  0.5134E-04  0.4399E-03  0.1144E+06
   -0.049997   31.65300  0.9312E-14  0.9562E-05  0.1581E-06  0.2001E-03  0.2464E-03  0.7804E+04
   -0.099994   31.66472  0.9312E-14  0.1150E-04  0.1103E-06  0.4325E-03  0.1832E-03  0.2552E+03
   -0.149992   31.66834  0.9312E-14  0.1273E-04  0.9302E-07  0.5134E-03  0.1627E-03  0.1280E+03
   -0.199990   31.67123  0.9312E-14  0.1369E-04  0.8281E-07  0.6861E-03  0.1458E-03  0.8372E+02
   -0.249989   31.67333  0.9312E-14  0.1444E-04  0.7606E-07  0.8174E-03  0.1332E-03  0.6242E+02
   -0.299988   31.67504  0.9312E-14  0.1506E-04  0.7121E-07  0.9483E-03  0.1227E-03  0.4988E+02
   -0.349988   31.67647  0.9312E-14  0.1556E-04  0.6756E-07  0.1067E-02  0.1136E-03  0.4268E+02
   -0.399987   31.67771  0.9312E-14  0.1598E-04  0.6470E-07  0.1174E-02  0.1056E-03  0.3804E+02
   -0.449987   31.67881  0.9312E-14  0.1634E-04  0.6236E-07  0.1274E-02  0.9853E-04  0.3567E+02
   -0.499988   31.67981  0.9312E-14  0.1665E-04  0.6042E-07  0.1365E-02  0.9226E-04  0.3465E+02
   -0.549988   31.68072  0.9312E-14  0.1691E-04  0.5878E-07  0.1448E-02  0.8662E-04  0.3412E+02
   -0.599989   31.68156  0.9312E-14  0.1714E-04  0.5740E-07  0.1523E-02  0.8151E-04  0.3407E+02
   -0.649990   31.68234  0.9312E-14  0.1732E-04  0.5622E-07  0.1589E-02  0.7684E-04  0.3441E+02
   -0.699991   31.68308  0.9312E-14  0.1748E-04  0.5521E-07  0.1648E-02  0.7253E-04  0.3511E+02
   -0.749992   31.68378  0.9312E-14  0.1760E-04  0.5436E-07  0.1698E-02  0.6855E-04  0.3618E+02
   -0.799994   31.68446  0.9312E-14  0.1769E-04  0.5366E-07  0.1739E-02  0.6483E-04  0.3762E+02
   -0.849995   31.68510  0.9312E-14  0.1776E-04  0.5308E-07  0.1773E-02  0.6135E-04  0.3947E+02
   -0.899997   31.68573  0.9312E-14  0.1780E-04  0.5262E-07  0.1797E-02  0.5807E-04  0.4178E+02
   -0.949999   31.68633  0.9312E-14  0.1782E-04  0.5229E-07  0.1812E-02  0.5498E-04  0.4466E+02
   -1.000000   31.68693  0.9312E-14  0.1781E-04  0.5208E-07  0.1819E-02  0.5205E-04  0.4818E+02
   -1.050002   31.68752  0.9312E-14  0.1777E-04  0.5201E-07  0.1814E-02  0.4925E-04  0.5444E+02
   -1.100004   31.68810  0.9312E-14  0.1771E-04  0.5208E-07  0.1932E-02  0.4658E-04  0.1749E+03
   -1.150005   31.68864  0.9312E-14  0.1762E-04  0.5233E-07  0.1680E-02  0.4423E-04  0.4351E+03
   -1.200007   31.68926  0.9312E-14  0.1750E-04  0.5274E-07  0.1732E-02  0.4169E-04  0.8016E+02
   -1.250008   31.68985  0.9312E-14  0.1735E-04  0.5339E-07  0.1698E-02  0.3930E-04  0.8512E+02
   -1.300010   31.69045  0.9312E-14  0.1716E-04  0.5432E-07  0.1638E-02  0.3699E-04  0.1005E+03
   -1.350011   31.69107  0.9312E-14  0.1693E-04  0.5562E-07  0.1570E-02  0.3474E-04  0.1217E+03
   -1.400012   31.69171  0.9312E-14  0.1666E-04  0.5744E-07  0.1480E-02  0.3254E-04  0.1533E+03
   -1.450013   31.69239  0.9312E-14  0.1633E-04  0.5998E-07  0.1396E-02  0.3036E-04  0.2006E+03
   -1.500013   31.69311  0.9312E-14  0.1593E-04  0.6361E-07  0.1273E-02  0.2821E-04  0.2846E+03
   -1.550013   31.69392  0.9312E-14  0.1545E-04  0.6896E-07  0.1192E-02  0.2602E-04  0.4512E+03
   -1.600013   31.69480  0.9312E-14  0.1484E-04  0.7760E-07  0.1041E-02  0.2386E-04  0.4200E+04
   -1.650013   31.69598  0.9312E-14  0.1404E-04  0.9136E-07  0.9605E-03  0.2142E-04  0.1087E+05
   -1.700013   31.69736  0.9312E-14  0.1293E-04  0.1166E-06  0.7690E-03  0.1897E-04  0.8847E+05
   -1.750012   31.69992  0.9312E-14  0.1162E-04  0.1556E-06  0.7014E-03  0.1562E-04  0.8758E+07
   -1.800010   31.70139  0.9312E-14  0.9985E-05  0.2422E-06  0.4673E-03  0.1345E-04  0.5795E+06
   -1.850009   31.71141  0.9312E-14  0.8341E-05  0.4072E-06  0.4520E-03  0.8939E-05  0.1394E+10
   -1.900006   31.70674  0.9312E-14  0.6591E-05  0.8552E-06  0.2109E-03  0.7467E-05 -0.2642E+07
   -1.950004   31.73204  0.9312E-14  0.4757E-05  0.2017E-05  0.2309E-03  0.3797E-05 -0.6270E+07
   -2.000001   31.72993  0.9312E-14  0.0000E+00  0.0000E+00  0.0000E+00  0.8223E-05  0.0000E+00
