 1 - depth, m
 2 - temperature, C
 3 - salinity, kg/kg
 4 - turbulent kinetic energy, m**2/s**2
 5 - dissipation rate, m**2/s**3
 6 - kinematic heat conductance, m**2/s
 7 - modulus of horizontal velocity, m/s
 8 - Richardson number, n/d
   -0.000000   30.24587  0.4894E-14  0.6234E-05  0.3351E-06  0.5955E-04  0.4966E-02  0.1089E+01
   -0.049997   30.27551  0.4894E-14  0.9501E-05  0.1413E-06  0.2206E-03  0.2673E-02  0.4815E+01
   -0.099994   30.28367  0.4894E-14  0.1090E-04  0.1032E-06  0.3885E-03  0.2205E-02  0.2526E+01
   -0.149992   30.28722  0.4894E-14  0.1190E-04  0.8781E-07  0.4786E-03  0.1992E-02  0.1477E+01
   -0.199991   30.28998  0.4894E-14  0.1274E-04  0.7857E-07  0.5965E-03  0.1822E-02  0.1304E+01
   -0.249989   30.29213  0.4894E-14  0.1352E-04  0.7196E-07  0.7234E-03  0.1674E-02  0.1415E+01
   -0.299988   30.29385  0.4894E-14  0.1428E-04  0.6674E-07  0.8753E-03  0.1531E-02  0.1532E+01
   -0.349988   30.29525  0.4894E-14  0.1499E-04  0.6249E-07  0.1043E-02  0.1391E-02  0.1644E+01
   -0.399988   30.29639  0.4894E-14  0.1565E-04  0.5901E-07  0.1216E-02  0.1253E-02  0.1659E+01
   -0.449988   30.29735  0.4894E-14  0.1623E-04  0.5615E-07  0.1367E-02  0.1127E-02  0.1640E+01
   -0.499988   30.29819  0.4894E-14  0.1674E-04  0.5384E-07  0.1503E-02  0.1015E-02  0.1615E+01
   -0.549989   30.29894  0.4894E-14  0.1715E-04  0.5198E-07  0.1630E-02  0.9158E-03  0.1583E+01
   -0.599989   30.29961  0.4894E-14  0.1749E-04  0.5050E-07  0.1750E-02  0.8285E-03  0.1551E+01
   -0.649990   30.30024  0.4894E-14  0.1776E-04  0.4934E-07  0.1862E-02  0.7515E-03  0.1517E+01
   -0.699992   30.30081  0.4894E-14  0.1796E-04  0.4844E-07  0.1961E-02  0.6834E-03  0.1482E+01
   -0.749993   30.30135  0.4894E-14  0.1809E-04  0.4778E-07  0.2037E-02  0.6232E-03  0.1444E+01
   -0.799994   30.30186  0.4894E-14  0.1818E-04  0.4733E-07  0.2087E-02  0.5700E-03  0.1404E+01
   -0.849996   30.30236  0.4894E-14  0.1821E-04  0.4707E-07  0.2109E-02  0.5230E-03  0.1362E+01
   -0.899998   30.30284  0.4894E-14  0.1820E-04  0.4698E-07  0.2109E-02  0.4813E-03  0.1317E+01
   -0.949999   30.30333  0.4894E-14  0.1816E-04  0.4705E-07  0.2092E-02  0.4444E-03  0.1270E+01
   -1.000001   30.30381  0.4894E-14  0.1808E-04  0.4728E-07  0.2061E-02  0.4117E-03  0.1220E+01
   -1.050003   30.30429  0.4894E-14  0.1798E-04  0.4763E-07  0.1993E-02  0.3827E-03  0.1163E+01
   -1.100005   30.30479  0.4894E-14  0.1788E-04  0.4805E-07  0.2223E-02  0.3572E-03  0.2193E+01
   -1.150006   30.30523  0.4894E-14  0.1775E-04  0.4863E-07  0.1736E-02  0.3412E-03  0.6341E+01
   -1.200008   30.30579  0.4894E-14  0.1760E-04  0.4938E-07  0.1868E-02  0.3221E-03  0.1183E+01
   -1.250009   30.30631  0.4894E-14  0.1741E-04  0.5040E-07  0.1814E-02  0.3036E-03  0.1218E+01
   -1.300011   30.30685  0.4894E-14  0.1719E-04  0.5171E-07  0.1732E-02  0.2862E-03  0.1410E+01
   -1.350012   30.30740  0.4894E-14  0.1693E-04  0.5344E-07  0.1651E-02  0.2695E-03  0.1722E+01
   -1.400013   30.30799  0.4894E-14  0.1662E-04  0.5576E-07  0.1540E-02  0.2531E-03  0.2234E+01
   -1.450014   30.30862  0.4894E-14  0.1625E-04  0.5893E-07  0.1445E-02  0.2367E-03  0.3021E+01
   -1.500014   30.30931  0.4894E-14  0.1581E-04  0.6343E-07  0.1305E-02  0.2205E-03  0.4610E+01
   -1.550014   30.31009  0.4894E-14  0.1527E-04  0.7001E-07  0.1220E-02  0.2036E-03  0.4830E+04
   -1.600015   30.31098  0.4894E-14  0.1459E-04  0.8078E-07  0.1061E-02  0.1868E-03 -0.1759E+03
   -1.650014   30.31228  0.4894E-14  0.1368E-04  0.9755E-07  0.9688E-03  0.1667E-03  0.1117E+04
   -1.700014   30.31368  0.4894E-14  0.1242E-04  0.1309E-06  0.7636E-03  0.1470E-03  0.4443E+05
   -1.750013   30.31666  0.4894E-14  0.1103E-04  0.1789E-06  0.6932E-03  0.1186E-03  0.3653E+06
   -1.800012   30.31800  0.4894E-14  0.9351E-05  0.2880E-06  0.4667E-03  0.1020E-03  0.3961E+05
   -1.850010   30.32944  0.4894E-14  0.7841E-05  0.4850E-06  0.4549E-03  0.6592E-04  0.4796E+08
   -1.900008   30.32308  0.4894E-14  0.6232E-05  0.1021E-05  0.2124E-03  0.5603E-04 -0.1110E+06
   -1.950005   30.35046  0.4894E-14  0.4586E-05  0.2311E-05  0.2564E-03  0.2811E-04 -0.3268E+06
   -2.000002   30.34726  0.4894E-14  0.0000E+00  0.0000E+00  0.0000E+00  0.6503E-04  0.0000E+00
