 1 - depth, m
 2 - temperature, C
 3 - salinity, kg/kg
 4 - turbulent kinetic energy, m**2/s**2
 5 - dissipation rate, m**2/s**3
 6 - kinematic heat conductance, m**2/s
 7 - modulus of horizontal velocity, m/s
 8 - Richardson number, n/d
   -0.000000   30.52475  0.1865E-13  0.4806E-05  0.2971E-06  0.4982E-04  0.1342E-02  0.1016E+05
   -0.049997   30.55550  0.1865E-13  0.8269E-05  0.1326E-06  0.1792E-03  0.7600E-03  0.3294E+03
   -0.099994   30.56703  0.1865E-13  0.1002E-04  0.9169E-07  0.3977E-03  0.5598E-03  0.2620E+02
   -0.149992   30.57029  0.1865E-13  0.1112E-04  0.7697E-07  0.4808E-03  0.4942E-03  0.1286E+02
   -0.199991   30.57286  0.1865E-13  0.1198E-04  0.6835E-07  0.6417E-03  0.4413E-03  0.8250E+01
   -0.249989   30.57473  0.1865E-13  0.1266E-04  0.6270E-07  0.7671E-03  0.4017E-03  0.6088E+01
   -0.299988   30.57625  0.1865E-13  0.1322E-04  0.5866E-07  0.8921E-03  0.3688E-03  0.4841E+01
   -0.349988   30.57752  0.1865E-13  0.1368E-04  0.5564E-07  0.1005E-02  0.3406E-03  0.4140E+01
   -0.399988   30.57863  0.1865E-13  0.1406E-04  0.5328E-07  0.1109E-02  0.3157E-03  0.3686E+01
   -0.449988   30.57961  0.1865E-13  0.1440E-04  0.5136E-07  0.1205E-02  0.2937E-03  0.3460E+01
   -0.499988   30.58049  0.1865E-13  0.1468E-04  0.4977E-07  0.1293E-02  0.2743E-03  0.3363E+01
   -0.549989   30.58130  0.1865E-13  0.1493E-04  0.4844E-07  0.1374E-02  0.2569E-03  0.3318E+01
   -0.599990   30.58204  0.1865E-13  0.1514E-04  0.4732E-07  0.1447E-02  0.2412E-03  0.3315E+01
   -0.649991   30.58274  0.1865E-13  0.1533E-04  0.4637E-07  0.1513E-02  0.2269E-03  0.3357E+01
   -0.699992   30.58340  0.1865E-13  0.1548E-04  0.4557E-07  0.1571E-02  0.2137E-03  0.3428E+01
   -0.749993   30.58402  0.1865E-13  0.1561E-04  0.4489E-07  0.1622E-02  0.2015E-03  0.3542E+01
   -0.799995   30.58462  0.1865E-13  0.1571E-04  0.4433E-07  0.1665E-02  0.1902E-03  0.3685E+01
   -0.849996   30.58519  0.1865E-13  0.1579E-04  0.4388E-07  0.1700E-02  0.1796E-03  0.3876E+01
   -0.899998   30.58574  0.1865E-13  0.1585E-04  0.4352E-07  0.1728E-02  0.1697E-03  0.4103E+01
   -0.949999   30.58628  0.1865E-13  0.1589E-04  0.4327E-07  0.1747E-02  0.1603E-03  0.4393E+01
   -1.000001   30.58681  0.1865E-13  0.1591E-04  0.4311E-07  0.1758E-02  0.1515E-03  0.4735E+01
   -1.050003   30.58733  0.1865E-13  0.1590E-04  0.4306E-07  0.1759E-02  0.1431E-03  0.5367E+01
   -1.100005   30.58785  0.1865E-13  0.1588E-04  0.4312E-07  0.1845E-02  0.1351E-03  0.1777E+02
   -1.150006   30.58834  0.1865E-13  0.1583E-04  0.4331E-07  0.1677E-02  0.1279E-03  0.4030E+02
   -1.200008   30.58887  0.1865E-13  0.1575E-04  0.4363E-07  0.1702E-02  0.1205E-03  0.7747E+01
   -1.250009   30.58940  0.1865E-13  0.1566E-04  0.4411E-07  0.1672E-02  0.1134E-03  0.8240E+01
   -1.300011   30.58992  0.1865E-13  0.1553E-04  0.4481E-07  0.1623E-02  0.1066E-03  0.9654E+01
   -1.350012   30.59047  0.1865E-13  0.1537E-04  0.4576E-07  0.1565E-02  0.9998E-04  0.1154E+02
   -1.400013   30.59103  0.1865E-13  0.1518E-04  0.4705E-07  0.1488E-02  0.9353E-04  0.1428E+02
   -1.450014   30.59161  0.1865E-13  0.1494E-04  0.4881E-07  0.1411E-02  0.8721E-04  0.1820E+02
   -1.500014   30.59224  0.1865E-13  0.1466E-04  0.5126E-07  0.1301E-02  0.8099E-04  0.2481E+02
   -1.550015   30.59292  0.1865E-13  0.1431E-04  0.5473E-07  0.1217E-02  0.7475E-04  0.3541E+02
   -1.600015   30.59365  0.1865E-13  0.1388E-04  0.6006E-07  0.1074E-02  0.6864E-04  0.6796E+02
   -1.650014   30.59454  0.1865E-13  0.1332E-04  0.6834E-07  0.9925E-03  0.6210E-04  0.2189E+03
   -1.700014   30.59556  0.1865E-13  0.1255E-04  0.8311E-07  0.8112E-03  0.5565E-04  0.5488E+03
   -1.750013   30.59734  0.1865E-13  0.1154E-04  0.1072E-06  0.7340E-03  0.4718E-04  0.1912E+06
   -1.800012   30.59881  0.1865E-13  0.1019E-04  0.1592E-06  0.5137E-03  0.4061E-04  0.3769E+06
   -1.850010   30.60489  0.1865E-13  0.8682E-05  0.2561E-06  0.4702E-03  0.2921E-04  0.9786E+08
   -1.900008   30.60366  0.1865E-13  0.6856E-05  0.5334E-06  0.2107E-03  0.2380E-04 -0.6895E+05
   -1.950005   30.62235  0.1865E-13  0.4782E-05  0.1336E-05  0.1882E-03  0.1281E-04 -0.8330E+06
   -2.000002   30.62435  0.1865E-13  0.0000E+00  0.0000E+00  0.0000E+00  0.2331E-04  0.0000E+00
