 1 - depth, m
 2 - temperature, C
 3 - salinity, kg/kg
 4 - turbulent kinetic energy, m**2/s**2
 5 - dissipation rate, m**2/s**3
 6 - kinematic heat conductance, m**2/s
 7 - modulus of horizontal velocity, m/s
 8 - Richardson number, n/d
   -0.000000   29.63062  0.8153E-13  0.4387E-05  0.2561E-06  0.4804E-04  0.1692E-02  0.6040E+04
   -0.049997   29.65823  0.8153E-13  0.7493E-05  0.1141E-06  0.1684E-03  0.9635E-03  0.4024E+04
   -0.099994   29.66884  0.8153E-13  0.9076E-05  0.7846E-07  0.3825E-03  0.7015E-03  0.1626E+02
   -0.149992   29.67179  0.8153E-13  0.1006E-04  0.6594E-07  0.4609E-03  0.6186E-03  0.7839E+01
   -0.199991   29.67414  0.8153E-13  0.1083E-04  0.5857E-07  0.6129E-03  0.5515E-03  0.5052E+01
   -0.249989   29.67586  0.8153E-13  0.1143E-04  0.5372E-07  0.7330E-03  0.5011E-03  0.3722E+01
   -0.299989   29.67725  0.8153E-13  0.1193E-04  0.5025E-07  0.8513E-03  0.4591E-03  0.2961E+01
   -0.349988   29.67842  0.8153E-13  0.1234E-04  0.4764E-07  0.9590E-03  0.4232E-03  0.2531E+01
   -0.399988   29.67943  0.8153E-13  0.1269E-04  0.4561E-07  0.1058E-02  0.3914E-03  0.2255E+01
   -0.449988   29.68033  0.8153E-13  0.1299E-04  0.4395E-07  0.1149E-02  0.3634E-03  0.2118E+01
   -0.499988   29.68114  0.8153E-13  0.1325E-04  0.4258E-07  0.1234E-02  0.3388E-03  0.2062E+01
   -0.549989   29.68188  0.8153E-13  0.1347E-04  0.4143E-07  0.1311E-02  0.3167E-03  0.2036E+01
   -0.599990   29.68256  0.8153E-13  0.1366E-04  0.4046E-07  0.1381E-02  0.2967E-03  0.2038E+01
   -0.649991   29.68320  0.8153E-13  0.1383E-04  0.3964E-07  0.1445E-02  0.2786E-03  0.2065E+01
   -0.699992   29.68380  0.8153E-13  0.1397E-04  0.3894E-07  0.1501E-02  0.2619E-03  0.2112E+01
   -0.749993   29.68437  0.8153E-13  0.1409E-04  0.3835E-07  0.1550E-02  0.2465E-03  0.2183E+01
   -0.799995   29.68491  0.8153E-13  0.1418E-04  0.3786E-07  0.1592E-02  0.2323E-03  0.2275E+01
   -0.849997   29.68543  0.8153E-13  0.1426E-04  0.3746E-07  0.1627E-02  0.2189E-03  0.2392E+01
   -0.899998   29.68594  0.8153E-13  0.1432E-04  0.3715E-07  0.1654E-02  0.2065E-03  0.2536E+01
   -0.950000   29.68643  0.8153E-13  0.1436E-04  0.3692E-07  0.1674E-02  0.1947E-03  0.2713E+01
   -1.000002   29.68691  0.8153E-13  0.1438E-04  0.3677E-07  0.1686E-02  0.1837E-03  0.2927E+01
   -1.050003   29.68739  0.8153E-13  0.1438E-04  0.3671E-07  0.1690E-02  0.1732E-03  0.3318E+01
   -1.100005   29.68786  0.8153E-13  0.1436E-04  0.3675E-07  0.1762E-02  0.1632E-03  0.1114E+02
   -1.150007   29.68830  0.8153E-13  0.1432E-04  0.3689E-07  0.1629E-02  0.1542E-03  0.2433E+02
   -1.200008   29.68878  0.8153E-13  0.1426E-04  0.3713E-07  0.1644E-02  0.1451E-03  0.4744E+01
   -1.250010   29.68926  0.8153E-13  0.1419E-04  0.3751E-07  0.1616E-02  0.1364E-03  0.5049E+01
   -1.300011   29.68973  0.8153E-13  0.1408E-04  0.3805E-07  0.1572E-02  0.1279E-03  0.5877E+01
   -1.350012   29.69022  0.8153E-13  0.1395E-04  0.3880E-07  0.1519E-02  0.1198E-03  0.6987E+01
   -1.400014   29.69073  0.8153E-13  0.1379E-04  0.3981E-07  0.1450E-02  0.1119E-03  0.8538E+01
   -1.450014   29.69125  0.8153E-13  0.1360E-04  0.4118E-07  0.1377E-02  0.1041E-03  0.1075E+02
   -1.500015   29.69181  0.8153E-13  0.1336E-04  0.4305E-07  0.1275E-02  0.9656E-04  0.1426E+02
   -1.550015   29.69240  0.8153E-13  0.1307E-04  0.4568E-07  0.1191E-02  0.8902E-04  0.1975E+02
   -1.600015   29.69305  0.8153E-13  0.1272E-04  0.4958E-07  0.1054E-02  0.8163E-04  0.3202E+02
   -1.650015   29.69380  0.8153E-13  0.1226E-04  0.5551E-07  0.9757E-03  0.7391E-04  0.2101E+04
   -1.700015   29.69464  0.8153E-13  0.1165E-04  0.6620E-07  0.8009E-03  0.6644E-04  0.6576E+03
   -1.750014   29.69603  0.8153E-13  0.1081E-04  0.8403E-07  0.7230E-03  0.5688E-04  0.1362E+05
   -1.800013   29.69737  0.8153E-13  0.9632E-05  0.1205E-06  0.5114E-03  0.4884E-04  0.2113E+04
   -1.850011   29.70177  0.8153E-13  0.8200E-05  0.1894E-06  0.4579E-03  0.3578E-04  0.2048E+07
   -1.900009   29.70181  0.8153E-13  0.6445E-05  0.3916E-06  0.2035E-03  0.2864E-04  0.2912E+05
   -1.950006   29.71728  0.8153E-13  0.4424E-05  0.1010E-05  0.1672E-03  0.1546E-04 -0.4844E+06
   -2.000003   29.72028  0.8153E-13  0.0000E+00  0.0000E+00  0.0000E+00  0.2713E-04  0.0000E+00
