 1 - depth, m
 2 - temperature, C
 3 - salinity, kg/kg
 4 - turbulent kinetic energy, m**2/s**2
 5 - dissipation rate, m**2/s**3
 6 - kinematic heat conductance, m**2/s
 7 - modulus of horizontal velocity, m/s
 8 - Richardson number, n/d
   -0.000000   30.31735  0.8208E-14  0.4767E-05  0.2950E-06  0.5030E-04  0.1421E-02  0.1028E+05
   -0.049997   30.34741  0.8208E-14  0.8186E-05  0.1317E-06  0.1764E-03  0.8105E-03  0.1047E+03
   -0.099994   30.35904  0.8208E-14  0.9938E-05  0.9064E-07  0.3979E-03  0.5933E-03  0.2332E+02
   -0.149992   30.36226  0.8208E-14  0.1104E-04  0.7608E-07  0.4783E-03  0.5239E-03  0.1142E+02
   -0.199991   30.36482  0.8208E-14  0.1189E-04  0.6755E-07  0.6397E-03  0.4677E-03  0.7324E+01
   -0.249989   30.36668  0.8208E-14  0.1257E-04  0.6197E-07  0.7648E-03  0.4256E-03  0.5408E+01
   -0.299988   30.36819  0.8208E-14  0.1312E-04  0.5799E-07  0.8896E-03  0.3907E-03  0.4300E+01
   -0.349988   30.36946  0.8208E-14  0.1358E-04  0.5501E-07  0.1003E-02  0.3607E-03  0.3680E+01
   -0.399988   30.37056  0.8208E-14  0.1397E-04  0.5269E-07  0.1106E-02  0.3343E-03  0.3276E+01
   -0.449988   30.37153  0.8208E-14  0.1430E-04  0.5080E-07  0.1202E-02  0.3110E-03  0.3078E+01
   -0.499988   30.37241  0.8208E-14  0.1459E-04  0.4924E-07  0.1290E-02  0.2904E-03  0.2991E+01
   -0.549989   30.37322  0.8208E-14  0.1483E-04  0.4794E-07  0.1371E-02  0.2720E-03  0.2953E+01
   -0.599990   30.37396  0.8208E-14  0.1505E-04  0.4684E-07  0.1444E-02  0.2553E-03  0.2951E+01
   -0.649991   30.37465  0.8208E-14  0.1523E-04  0.4591E-07  0.1510E-02  0.2401E-03  0.2991E+01
   -0.699992   30.37531  0.8208E-14  0.1539E-04  0.4513E-07  0.1568E-02  0.2261E-03  0.3054E+01
   -0.749993   30.37593  0.8208E-14  0.1552E-04  0.4447E-07  0.1619E-02  0.2132E-03  0.3158E+01
   -0.799995   30.37653  0.8208E-14  0.1562E-04  0.4392E-07  0.1662E-02  0.2012E-03  0.3284E+01
   -0.849996   30.37710  0.8208E-14  0.1571E-04  0.4348E-07  0.1697E-02  0.1900E-03  0.3458E+01
   -0.899998   30.37765  0.8208E-14  0.1577E-04  0.4314E-07  0.1724E-02  0.1795E-03  0.3658E+01
   -0.950000   30.37819  0.8208E-14  0.1581E-04  0.4290E-07  0.1743E-02  0.1696E-03  0.3920E+01
   -1.000001   30.37872  0.8208E-14  0.1583E-04  0.4276E-07  0.1754E-02  0.1602E-03  0.4223E+01
   -1.050003   30.37924  0.8208E-14  0.1582E-04  0.4271E-07  0.1756E-02  0.1513E-03  0.4790E+01
   -1.100005   30.37976  0.8208E-14  0.1580E-04  0.4278E-07  0.1841E-02  0.1428E-03  0.1588E+02
   -1.150006   30.38024  0.8208E-14  0.1575E-04  0.4298E-07  0.1674E-02  0.1352E-03  0.3577E+02
   -1.200008   30.38078  0.8208E-14  0.1568E-04  0.4330E-07  0.1699E-02  0.1274E-03  0.6895E+01
   -1.250009   30.38130  0.8208E-14  0.1559E-04  0.4380E-07  0.1669E-02  0.1199E-03  0.7338E+01
   -1.300011   30.38183  0.8208E-14  0.1546E-04  0.4449E-07  0.1620E-02  0.1127E-03  0.8584E+01
   -1.350012   30.38237  0.8208E-14  0.1531E-04  0.4544E-07  0.1562E-02  0.1057E-03  0.1025E+02
   -1.400013   30.38293  0.8208E-14  0.1512E-04  0.4673E-07  0.1486E-02  0.9885E-04  0.1265E+02
   -1.450014   30.38352  0.8208E-14  0.1489E-04  0.4848E-07  0.1408E-02  0.9216E-04  0.1608E+02
   -1.500014   30.38415  0.8208E-14  0.1460E-04  0.5090E-07  0.1298E-02  0.8559E-04  0.2177E+02
   -1.550015   30.38483  0.8208E-14  0.1426E-04  0.5433E-07  0.1212E-02  0.7899E-04  0.3092E+02
   -1.600015   30.38556  0.8208E-14  0.1383E-04  0.5953E-07  0.1070E-02  0.7252E-04  0.5617E+02
   -1.650015   30.38644  0.8208E-14  0.1328E-04  0.6763E-07  0.9898E-03  0.6565E-04  0.2133E+05
   -1.700014   30.38745  0.8208E-14  0.1253E-04  0.8217E-07  0.8069E-03  0.5885E-04 -0.6925E+03
   -1.750013   30.38920  0.8208E-14  0.1152E-04  0.1059E-06  0.7299E-03  0.4993E-04  0.4467E+05
   -1.800012   30.39072  0.8208E-14  0.1017E-04  0.1561E-06  0.5057E-03  0.4289E-04  0.2310E+05
   -1.850010   30.39658  0.8208E-14  0.8646E-05  0.2496E-06  0.4672E-03  0.3082E-04  0.1521E+08
   -1.900008   30.39560  0.8208E-14  0.6831E-05  0.5195E-06  0.2089E-03  0.2510E-04  0.1634E+06
   -1.950006   30.41433  0.8208E-14  0.4768E-05  0.1302E-05  0.1875E-03  0.1348E-04 -0.2907E+07
   -2.000003   30.41589  0.8208E-14  0.0000E+00  0.0000E+00  0.0000E+00  0.2458E-04  0.0000E+00
