 1 - depth, m
 2 - temperature, C
 3 - salinity, kg/kg
 4 - turbulent kinetic energy, m**2/s**2
 5 - dissipation rate, m**2/s**3
 6 - kinematic heat conductance, m**2/s
 7 - modulus of horizontal velocity, m/s
 8 - Richardson number, n/d
   -0.000000   30.60888  0.3123E-13  0.5112E-05  0.3289E-06  0.5157E-04  0.1492E-02  0.8215E+04
   -0.049997   30.64157  0.3123E-13  0.8735E-05  0.1465E-06  0.1829E-03  0.8520E-03  0.2356E+03
   -0.099994   30.65401  0.3123E-13  0.1060E-04  0.1007E-06  0.4070E-03  0.6259E-03  0.2286E+02
   -0.149992   30.65747  0.3123E-13  0.1177E-04  0.8441E-07  0.4897E-03  0.5531E-03  0.1128E+02
   -0.199990   30.66022  0.3123E-13  0.1268E-04  0.7486E-07  0.6561E-03  0.4942E-03  0.7207E+01
   -0.249989   30.66221  0.3123E-13  0.1340E-04  0.6863E-07  0.7838E-03  0.4502E-03  0.5331E+01
   -0.299988   30.66383  0.3123E-13  0.1399E-04  0.6420E-07  0.9125E-03  0.4136E-03  0.4234E+01
   -0.349988   30.66518  0.3123E-13  0.1448E-04  0.6088E-07  0.1028E-02  0.3823E-03  0.3627E+01
   -0.399987   30.66636  0.3123E-13  0.1489E-04  0.5830E-07  0.1135E-02  0.3546E-03  0.3224E+01
   -0.449987   30.66740  0.3123E-13  0.1525E-04  0.5621E-07  0.1233E-02  0.3303E-03  0.3031E+01
   -0.499988   30.66834  0.3123E-13  0.1555E-04  0.5448E-07  0.1324E-02  0.3087E-03  0.2938E+01
   -0.549988   30.66920  0.3123E-13  0.1581E-04  0.5304E-07  0.1406E-02  0.2894E-03  0.2904E+01
   -0.599989   30.66999  0.3123E-13  0.1604E-04  0.5183E-07  0.1481E-02  0.2719E-03  0.2896E+01
   -0.649990   30.67073  0.3123E-13  0.1623E-04  0.5081E-07  0.1548E-02  0.2560E-03  0.2939E+01
   -0.699991   30.67143  0.3123E-13  0.1640E-04  0.4995E-07  0.1607E-02  0.2413E-03  0.2996E+01
   -0.749992   30.67210  0.3123E-13  0.1654E-04  0.4923E-07  0.1658E-02  0.2278E-03  0.3105E+01
   -0.799994   30.67273  0.3123E-13  0.1665E-04  0.4865E-07  0.1701E-02  0.2152E-03  0.3225E+01
   -0.849995   30.67334  0.3123E-13  0.1673E-04  0.4818E-07  0.1736E-02  0.2034E-03  0.3404E+01
   -0.899997   30.67394  0.3123E-13  0.1680E-04  0.4783E-07  0.1763E-02  0.1923E-03  0.3600E+01
   -0.949999   30.67452  0.3123E-13  0.1684E-04  0.4758E-07  0.1781E-02  0.1818E-03  0.3869E+01
   -1.000000   30.67508  0.3123E-13  0.1685E-04  0.4746E-07  0.1791E-02  0.1720E-03  0.4170E+01
   -1.050002   30.67564  0.3123E-13  0.1685E-04  0.4745E-07  0.1790E-02  0.1626E-03  0.4745E+01
   -1.100004   30.67620  0.3123E-13  0.1682E-04  0.4756E-07  0.1887E-02  0.1536E-03  0.1555E+02
   -1.150005   30.67672  0.3123E-13  0.1677E-04  0.4784E-07  0.1691E-02  0.1456E-03  0.3640E+02
   -1.200007   30.67731  0.3123E-13  0.1669E-04  0.4826E-07  0.1724E-02  0.1372E-03  0.6938E+01
   -1.250008   30.67788  0.3123E-13  0.1658E-04  0.4888E-07  0.1692E-02  0.1293E-03  0.7386E+01
   -1.300010   30.67846  0.3123E-13  0.1644E-04  0.4974E-07  0.1639E-02  0.1216E-03  0.8722E+01
   -1.350011   30.67905  0.3123E-13  0.1627E-04  0.5091E-07  0.1577E-02  0.1141E-03  0.1048E+02
   -1.400012   30.67967  0.3123E-13  0.1605E-04  0.5251E-07  0.1495E-02  0.1068E-03  0.1313E+02
   -1.450013   30.68032  0.3123E-13  0.1579E-04  0.5468E-07  0.1415E-02  0.9963E-04  0.1691E+02
   -1.500013   30.68101  0.3123E-13  0.1547E-04  0.5773E-07  0.1300E-02  0.9255E-04  0.2355E+02
   -1.550013   30.68178  0.3123E-13  0.1508E-04  0.6208E-07  0.1215E-02  0.8542E-04  0.3507E+02
   -1.600013   30.68261  0.3123E-13  0.1458E-04  0.6885E-07  0.1070E-02  0.7841E-04  0.6806E+02
   -1.650013   30.68367  0.3123E-13  0.1394E-04  0.7950E-07  0.9874E-03  0.7075E-04  0.5837E+02
   -1.700013   30.68490  0.3123E-13  0.1305E-04  0.9831E-07  0.8034E-03  0.6309E-04 -0.7273E+04
   -1.750012   30.68704  0.3123E-13  0.1193E-04  0.1285E-06  0.7274E-03  0.5302E-04  0.1223E+06
   -1.800010   30.68863  0.3123E-13  0.1045E-04  0.1950E-06  0.4965E-03  0.4562E-04  0.3420E+05
   -1.850009   30.69656  0.3123E-13  0.8878E-05  0.3189E-06  0.4714E-03  0.3195E-04  0.2732E+08
   -1.900006   30.69410  0.3123E-13  0.7075E-05  0.6618E-06  0.2134E-03  0.2631E-04 -0.7252E+07
   -1.950004   30.71678  0.3123E-13  0.4999E-05  0.1620E-05  0.2031E-03  0.1403E-04 -0.7324E+06
   -2.000001   30.71767  0.3123E-13  0.0000E+00  0.0000E+00  0.0000E+00  0.2674E-04  0.0000E+00
