 1 - depth, m
 2 - temperature, C
 3 - salinity, kg/kg
 4 - turbulent kinetic energy, m**2/s**2
 5 - dissipation rate, m**2/s**3
 6 - kinematic heat conductance, m**2/s
 7 - modulus of horizontal velocity, m/s
 8 - Richardson number, n/d
   -0.000000   30.17278  0.7567E-13  0.4649E-05  0.2779E-06  0.4952E-04  0.1854E-02  0.7359E+04
   -0.049997   30.20143  0.7567E-13  0.7887E-05  0.1236E-06  0.1742E-03  0.1047E-02  0.1975E+04
   -0.099994   30.21229  0.7567E-13  0.9534E-05  0.8511E-07  0.3880E-03  0.7709E-03  0.1558E+02
   -0.149992   30.21538  0.7567E-13  0.1057E-04  0.7140E-07  0.4695E-03  0.6800E-03  0.7558E+01
   -0.199991   30.21783  0.7567E-13  0.1137E-04  0.6336E-07  0.6246E-03  0.6069E-03  0.4858E+01
   -0.249989   30.21961  0.7567E-13  0.1201E-04  0.5808E-07  0.7472E-03  0.5519E-03  0.3569E+01
   -0.299989   30.22106  0.7567E-13  0.1254E-04  0.5431E-07  0.8682E-03  0.5063E-03  0.2838E+01
   -0.349988   30.22227  0.7567E-13  0.1297E-04  0.5149E-07  0.9779E-03  0.4671E-03  0.2417E+01
   -0.399988   30.22333  0.7567E-13  0.1333E-04  0.4928E-07  0.1078E-02  0.4324E-03  0.2162E+01
   -0.449988   30.22426  0.7567E-13  0.1365E-04  0.4748E-07  0.1172E-02  0.4019E-03  0.2030E+01
   -0.499988   30.22510  0.7567E-13  0.1392E-04  0.4599E-07  0.1260E-02  0.3747E-03  0.1984E+01
   -0.549989   30.22587  0.7567E-13  0.1416E-04  0.4474E-07  0.1341E-02  0.3503E-03  0.1951E+01
   -0.599990   30.22658  0.7567E-13  0.1437E-04  0.4368E-07  0.1414E-02  0.3283E-03  0.1955E+01
   -0.649991   30.22724  0.7567E-13  0.1454E-04  0.4279E-07  0.1480E-02  0.3082E-03  0.1963E+01
   -0.699992   30.22786  0.7567E-13  0.1469E-04  0.4204E-07  0.1538E-02  0.2899E-03  0.2007E+01
   -0.749993   30.22845  0.7567E-13  0.1482E-04  0.4141E-07  0.1588E-02  0.2730E-03  0.2053E+01
   -0.799995   30.22901  0.7567E-13  0.1492E-04  0.4088E-07  0.1631E-02  0.2573E-03  0.2139E+01
   -0.849996   30.22956  0.7567E-13  0.1500E-04  0.4046E-07  0.1666E-02  0.2428E-03  0.2229E+01
   -0.899998   30.23008  0.7567E-13  0.1506E-04  0.4013E-07  0.1693E-02  0.2291E-03  0.2366E+01
   -0.950000   30.23059  0.7567E-13  0.1510E-04  0.3989E-07  0.1713E-02  0.2163E-03  0.2514E+01
   -1.000001   30.23109  0.7567E-13  0.1512E-04  0.3974E-07  0.1725E-02  0.2042E-03  0.2718E+01
   -1.050003   30.23159  0.7567E-13  0.1512E-04  0.3969E-07  0.1727E-02  0.1928E-03  0.3058E+01
   -1.100005   30.23208  0.7567E-13  0.1510E-04  0.3973E-07  0.1805E-02  0.1818E-03  0.1027E+02
   -1.150007   30.23254  0.7567E-13  0.1506E-04  0.3990E-07  0.1659E-02  0.1720E-03  0.2249E+02
   -1.200008   30.23304  0.7567E-13  0.1500E-04  0.4018E-07  0.1677E-02  0.1620E-03  0.4354E+01
   -1.250010   30.23353  0.7567E-13  0.1491E-04  0.4061E-07  0.1649E-02  0.1523E-03  0.4634E+01
   -1.300011   30.23403  0.7567E-13  0.1480E-04  0.4122E-07  0.1603E-02  0.1431E-03  0.5369E+01
   -1.350012   30.23454  0.7567E-13  0.1466E-04  0.4206E-07  0.1548E-02  0.1341E-03  0.6389E+01
   -1.400013   30.23507  0.7567E-13  0.1449E-04  0.4319E-07  0.1476E-02  0.1253E-03  0.7786E+01
   -1.450014   30.23562  0.7567E-13  0.1428E-04  0.4473E-07  0.1402E-02  0.1168E-03  0.9807E+01
   -1.500015   30.23620  0.7567E-13  0.1403E-04  0.4684E-07  0.1296E-02  0.1084E-03  0.1303E+02
   -1.550015   30.23684  0.7567E-13  0.1372E-04  0.4981E-07  0.1213E-02  0.1000E-03  0.1809E+02
   -1.600015   30.23752  0.7567E-13  0.1333E-04  0.5429E-07  0.1072E-02  0.9180E-04  0.3112E+02
   -1.650015   30.23833  0.7567E-13  0.1284E-04  0.6112E-07  0.9934E-03  0.8309E-04  0.5236E+03
   -1.700014   30.23922  0.7567E-13  0.1217E-04  0.7338E-07  0.8156E-03  0.7469E-04  0.4588E+04
   -1.750013   30.24077  0.7567E-13  0.1127E-04  0.9368E-07  0.7351E-03  0.6368E-04  0.1104E+05
   -1.800012   30.24214  0.7567E-13  0.1002E-04  0.1343E-06  0.5183E-03  0.5479E-04  0.3506E+05
   -1.850010   30.24704  0.7567E-13  0.8561E-05  0.2132E-06  0.4685E-03  0.3995E-04  0.4024E+07
   -1.900008   30.24680  0.7567E-13  0.6776E-05  0.4402E-06  0.2133E-03  0.3222E-04  0.6502E+05
   -1.950006   30.26344  0.7567E-13  0.4682E-05  0.1128E-05  0.1741E-03  0.1755E-04 -0.4186E+06
   -2.000003   30.26622  0.7567E-13  0.0000E+00  0.0000E+00  0.0000E+00  0.3082E-04  0.0000E+00
