 1 - depth, m
 2 - temperature, C
 3 - salinity, kg/kg
 4 - turbulent kinetic energy, m**2/s**2
 5 - dissipation rate, m**2/s**3
 6 - kinematic heat conductance, m**2/s
 7 - modulus of horizontal velocity, m/s
 8 - Richardson number, n/d
   -0.000000   30.13900  0.6490E-13  0.4444E-05  0.2611E-06  0.4665E-04  0.5389E-03  0.1995E+06
   -0.049997   30.16880  0.6490E-13  0.7887E-05  0.1159E-06  0.1820E-03  0.3009E-03  0.1554E+03
   -0.099994   30.17880  0.6490E-13  0.9513E-05  0.8089E-07  0.4049E-03  0.2205E-03  0.1947E+03
   -0.149992   30.18170  0.6490E-13  0.1053E-04  0.6852E-07  0.4833E-03  0.1952E-03  0.9603E+02
   -0.199991   30.18403  0.6490E-13  0.1133E-04  0.6118E-07  0.6408E-03  0.1746E-03  0.6335E+02
   -0.249989   30.18574  0.6490E-13  0.1196E-04  0.5632E-07  0.7639E-03  0.1590E-03  0.4728E+02
   -0.299989   30.18713  0.6490E-13  0.1248E-04  0.5284E-07  0.8850E-03  0.1461E-03  0.3798E+02
   -0.349988   30.18831  0.6490E-13  0.1292E-04  0.5022E-07  0.9950E-03  0.1349E-03  0.3262E+02
   -0.399988   30.18933  0.6490E-13  0.1328E-04  0.4818E-07  0.1096E-02  0.1250E-03  0.2921E+02
   -0.449988   30.19024  0.6490E-13  0.1360E-04  0.4652E-07  0.1189E-02  0.1163E-03  0.2745E+02
   -0.499988   30.19106  0.6490E-13  0.1387E-04  0.4515E-07  0.1274E-02  0.1086E-03  0.2680E+02
   -0.549989   30.19181  0.6490E-13  0.1411E-04  0.4401E-07  0.1353E-02  0.1017E-03  0.2645E+02
   -0.599990   30.19251  0.6490E-13  0.1431E-04  0.4304E-07  0.1424E-02  0.9540E-04  0.2656E+02
   -0.649991   30.19316  0.6490E-13  0.1449E-04  0.4224E-07  0.1488E-02  0.8970E-04  0.2690E+02
   -0.699992   30.19377  0.6490E-13  0.1464E-04  0.4156E-07  0.1544E-02  0.8444E-04  0.2761E+02
   -0.749993   30.19436  0.6490E-13  0.1477E-04  0.4100E-07  0.1593E-02  0.7960E-04  0.2853E+02
   -0.799995   30.19492  0.6490E-13  0.1488E-04  0.4054E-07  0.1635E-02  0.7508E-04  0.2985E+02
   -0.849996   30.19546  0.6490E-13  0.1496E-04  0.4017E-07  0.1668E-02  0.7087E-04  0.3140E+02
   -0.899998   30.19598  0.6490E-13  0.1503E-04  0.3990E-07  0.1695E-02  0.6691E-04  0.3343E+02
   -0.950000   30.19649  0.6490E-13  0.1507E-04  0.3972E-07  0.1713E-02  0.6319E-04  0.3580E+02
   -1.000001   30.19700  0.6490E-13  0.1509E-04  0.3963E-07  0.1723E-02  0.5966E-04  0.3880E+02
   -1.050003   30.19749  0.6490E-13  0.1510E-04  0.3964E-07  0.1724E-02  0.5633E-04  0.4404E+02
   -1.100005   30.19798  0.6490E-13  0.1508E-04  0.3975E-07  0.1808E-02  0.5313E-04  0.1474E+03
   -1.150006   30.19845  0.6490E-13  0.1505E-04  0.3998E-07  0.1645E-02  0.5029E-04  0.3279E+03
   -1.200008   30.19896  0.6490E-13  0.1499E-04  0.4032E-07  0.1668E-02  0.4734E-04  0.6368E+02
   -1.250010   30.19946  0.6490E-13  0.1490E-04  0.4083E-07  0.1638E-02  0.4452E-04  0.6827E+02
   -1.300011   30.19997  0.6490E-13  0.1479E-04  0.4152E-07  0.1589E-02  0.4181E-04  0.7979E+02
   -1.350012   30.20050  0.6490E-13  0.1466E-04  0.4245E-07  0.1531E-02  0.3917E-04  0.9560E+02
   -1.400013   30.20104  0.6490E-13  0.1448E-04  0.4370E-07  0.1457E-02  0.3661E-04  0.1176E+03
   -1.450014   30.20161  0.6490E-13  0.1427E-04  0.4537E-07  0.1380E-02  0.3410E-04  0.1495E+03
   -1.500015   30.20222  0.6490E-13  0.1401E-04  0.4766E-07  0.1271E-02  0.3164E-04  0.2009E+03
   -1.550015   30.20288  0.6490E-13  0.1369E-04  0.5088E-07  0.1186E-02  0.2916E-04  0.2827E+03
   -1.600015   30.20360  0.6490E-13  0.1329E-04  0.5570E-07  0.1043E-02  0.2673E-04  0.4766E+03
   -1.650015   30.20446  0.6490E-13  0.1278E-04  0.6309E-07  0.9677E-03  0.2415E-04  0.5106E+04
   -1.700014   30.20542  0.6490E-13  0.1208E-04  0.7651E-07  0.7851E-03  0.2165E-04  0.1647E+05
   -1.750013   30.20713  0.6490E-13  0.1111E-04  0.9876E-07  0.7097E-03  0.1830E-04  0.3539E+06
   -1.800012   30.20867  0.6490E-13  0.9787E-05  0.1456E-06  0.4914E-03  0.1562E-04  0.9429E+05
   -1.850010   30.21442  0.6490E-13  0.8263E-05  0.2324E-06  0.4529E-03  0.1106E-04  0.4194E+09
   -1.900008   30.21366  0.6490E-13  0.6505E-05  0.4889E-06  0.1997E-03  0.8907E-05  0.5995E+07
   -1.950006   30.23236  0.6490E-13  0.4545E-05  0.1228E-05  0.1830E-03  0.4677E-05 -0.1308E+07
   -2.000003   30.23418  0.6490E-13  0.0000E+00  0.0000E+00  0.0000E+00  0.8852E-05  0.0000E+00
