 1 - depth, m
 2 - temperature, C
 3 - salinity, kg/kg
 4 - turbulent kinetic energy, m**2/s**2
 5 - dissipation rate, m**2/s**3
 6 - kinematic heat conductance, m**2/s
 7 - modulus of horizontal velocity, m/s
 8 - Richardson number, n/d
   -0.000000   30.50723  0.6429E-13  0.4997E-05  0.3157E-06  0.5184E-04  0.2020E-02  0.5824E+04
   -0.049997   30.53777  0.6429E-13  0.8425E-05  0.1405E-06  0.1749E-03  0.1166E-02  0.9651E+03
   -0.099994   30.55002  0.6429E-13  0.1022E-04  0.9586E-07  0.3996E-03  0.8498E-03  0.1179E+02
   -0.149992   30.55335  0.6429E-13  0.1134E-04  0.8022E-07  0.4783E-03  0.7509E-03  0.5747E+01
   -0.199991   30.55602  0.6429E-13  0.1221E-04  0.7107E-07  0.6412E-03  0.6702E-03  0.3671E+01
   -0.249989   30.55794  0.6429E-13  0.1290E-04  0.6509E-07  0.7668E-03  0.6100E-03  0.2701E+01
   -0.299988   30.55951  0.6429E-13  0.1347E-04  0.6083E-07  0.8926E-03  0.5600E-03  0.2144E+01
   -0.349988   30.56082  0.6429E-13  0.1394E-04  0.5764E-07  0.1006E-02  0.5171E-03  0.1829E+01
   -0.399988   30.56196  0.6429E-13  0.1433E-04  0.5516E-07  0.1111E-02  0.4793E-03  0.1628E+01
   -0.449988   30.56296  0.6429E-13  0.1466E-04  0.5314E-07  0.1208E-02  0.4460E-03  0.1526E+01
   -0.499988   30.56387  0.6429E-13  0.1496E-04  0.5148E-07  0.1296E-02  0.4166E-03  0.1482E+01
   -0.549989   30.56470  0.6429E-13  0.1521E-04  0.5008E-07  0.1378E-02  0.3902E-03  0.1461E+01
   -0.599989   30.56546  0.6429E-13  0.1542E-04  0.4890E-07  0.1452E-02  0.3664E-03  0.1460E+01
   -0.649990   30.56618  0.6429E-13  0.1561E-04  0.4790E-07  0.1518E-02  0.3446E-03  0.1477E+01
   -0.699992   30.56685  0.6429E-13  0.1576E-04  0.4706E-07  0.1577E-02  0.3247E-03  0.1509E+01
   -0.749993   30.56749  0.6429E-13  0.1589E-04  0.4635E-07  0.1627E-02  0.3062E-03  0.1558E+01
   -0.799994   30.56810  0.6429E-13  0.1600E-04  0.4577E-07  0.1671E-02  0.2891E-03  0.1622E+01
   -0.849996   30.56869  0.6429E-13  0.1608E-04  0.4529E-07  0.1706E-02  0.2730E-03  0.1705E+01
   -0.899998   30.56925  0.6429E-13  0.1614E-04  0.4492E-07  0.1733E-02  0.2580E-03  0.1806E+01
   -0.949999   30.56981  0.6429E-13  0.1617E-04  0.4466E-07  0.1752E-02  0.2438E-03  0.1933E+01
   -1.000001   30.57035  0.6429E-13  0.1619E-04  0.4450E-07  0.1763E-02  0.2304E-03  0.2085E+01
   -1.050003   30.57088  0.6429E-13  0.1618E-04  0.4444E-07  0.1764E-02  0.2177E-03  0.2362E+01
   -1.100004   30.57141  0.6429E-13  0.1615E-04  0.4451E-07  0.1853E-02  0.2055E-03  0.7808E+01
   -1.150006   30.57191  0.6429E-13  0.1610E-04  0.4471E-07  0.1676E-02  0.1947E-03  0.1782E+02
   -1.200008   30.57246  0.6429E-13  0.1602E-04  0.4505E-07  0.1704E-02  0.1834E-03  0.3415E+01
   -1.250009   30.57300  0.6429E-13  0.1592E-04  0.4556E-07  0.1674E-02  0.1727E-03  0.3637E+01
   -1.300010   30.57355  0.6429E-13  0.1579E-04  0.4629E-07  0.1623E-02  0.1623E-03  0.4260E+01
   -1.350012   30.57410  0.6429E-13  0.1563E-04  0.4729E-07  0.1564E-02  0.1523E-03  0.5100E+01
   -1.400013   30.57468  0.6429E-13  0.1542E-04  0.4865E-07  0.1485E-02  0.1425E-03  0.6313E+01
   -1.450013   30.57529  0.6429E-13  0.1518E-04  0.5051E-07  0.1407E-02  0.1329E-03  0.8056E+01
   -1.500014   30.57593  0.6429E-13  0.1488E-04  0.5309E-07  0.1293E-02  0.1234E-03  0.1099E+02
   -1.550014   30.57664  0.6429E-13  0.1452E-04  0.5676E-07  0.1209E-02  0.1139E-03  0.1569E+02
   -1.600014   30.57740  0.6429E-13  0.1407E-04  0.6241E-07  0.1062E-02  0.1046E-03  0.3219E+02
   -1.650014   30.57834  0.6429E-13  0.1349E-04  0.7116E-07  0.9844E-03  0.9453E-04  0.4430E+04
   -1.700014   30.57938  0.6429E-13  0.1269E-04  0.8687E-07  0.8009E-03  0.8476E-04  0.2710E+04
   -1.750013   30.58128  0.6429E-13  0.1163E-04  0.1129E-06  0.7250E-03  0.7169E-04  0.2158E+05
   -1.800011   30.58286  0.6429E-13  0.1021E-04  0.1685E-06  0.5014E-03  0.6145E-04  0.2915E+05
   -1.850010   30.58929  0.6429E-13  0.8622E-05  0.2716E-06  0.4605E-03  0.4374E-04  0.3168E+07
   -1.900008   30.58808  0.6429E-13  0.6785E-05  0.5732E-06  0.2086E-03  0.3543E-04  0.7599E+05
   -1.950005   30.60821  0.6429E-13  0.4772E-05  0.1422E-05  0.1930E-03  0.1880E-04 -0.5501E+06
   -2.000002   30.60964  0.6429E-13  0.0000E+00  0.0000E+00  0.0000E+00  0.3526E-04  0.0000E+00
