 1 - depth, m
 2 - temperature, C
 3 - salinity, kg/kg
 4 - turbulent kinetic energy, m**2/s**2
 5 - dissipation rate, m**2/s**3
 6 - kinematic heat conductance, m**2/s
 7 - modulus of horizontal velocity, m/s
 8 - Richardson number, n/d
   -0.000000   30.10031  0.9557E-13  0.4738E-05  0.2898E-06  0.4953E-04  0.1432E-02  0.1046E+05
   -0.049997   30.13102  0.9557E-13  0.8120E-05  0.1295E-06  0.1765E-03  0.8128E-03  0.5638E+03
   -0.099994   30.14255  0.9557E-13  0.9834E-05  0.8934E-07  0.3930E-03  0.5972E-03  0.2412E+02
   -0.149992   30.14582  0.9557E-13  0.1091E-04  0.7497E-07  0.4750E-03  0.5269E-03  0.1179E+02
   -0.199991   30.14840  0.9557E-13  0.1174E-04  0.6652E-07  0.6333E-03  0.4702E-03  0.7558E+01
   -0.249989   30.15027  0.9557E-13  0.1240E-04  0.6097E-07  0.7573E-03  0.4278E-03  0.5574E+01
   -0.299988   30.15179  0.9557E-13  0.1294E-04  0.5700E-07  0.8804E-03  0.3925E-03  0.4424E+01
   -0.349988   30.15306  0.9557E-13  0.1338E-04  0.5402E-07  0.9920E-03  0.3622E-03  0.3781E+01
   -0.399988   30.15416  0.9557E-13  0.1376E-04  0.5169E-07  0.1094E-02  0.3355E-03  0.3360E+01
   -0.449988   30.15514  0.9557E-13  0.1407E-04  0.4978E-07  0.1189E-02  0.3119E-03  0.3155E+01
   -0.499988   30.15601  0.9557E-13  0.1435E-04  0.4820E-07  0.1276E-02  0.2911E-03  0.3061E+01
   -0.549989   30.15682  0.9557E-13  0.1459E-04  0.4688E-07  0.1356E-02  0.2725E-03  0.3021E+01
   -0.599990   30.15756  0.9557E-13  0.1479E-04  0.4575E-07  0.1429E-02  0.2557E-03  0.3012E+01
   -0.649991   30.15825  0.9557E-13  0.1496E-04  0.4479E-07  0.1494E-02  0.2403E-03  0.3051E+01
   -0.699992   30.15889  0.9557E-13  0.1511E-04  0.4398E-07  0.1552E-02  0.2262E-03  0.3108E+01
   -0.749993   30.15951  0.9557E-13  0.1523E-04  0.4328E-07  0.1602E-02  0.2132E-03  0.3211E+01
   -0.799995   30.16010  0.9557E-13  0.1532E-04  0.4270E-07  0.1645E-02  0.2011E-03  0.3331E+01
   -0.849996   30.16066  0.9557E-13  0.1540E-04  0.4223E-07  0.1681E-02  0.1898E-03  0.3503E+01
   -0.899998   30.16120  0.9557E-13  0.1545E-04  0.4185E-07  0.1708E-02  0.1792E-03  0.3697E+01
   -0.950000   30.16173  0.9557E-13  0.1548E-04  0.4156E-07  0.1728E-02  0.1693E-03  0.3955E+01
   -1.000001   30.16225  0.9557E-13  0.1550E-04  0.4137E-07  0.1740E-02  0.1598E-03  0.4249E+01
   -1.050003   30.16276  0.9557E-13  0.1549E-04  0.4127E-07  0.1742E-02  0.1509E-03  0.4810E+01
   -1.100005   30.16326  0.9557E-13  0.1546E-04  0.4129E-07  0.1823E-02  0.1424E-03  0.1599E+02
   -1.150006   30.16374  0.9557E-13  0.1541E-04  0.4142E-07  0.1669E-02  0.1348E-03  0.3556E+02
   -1.200008   30.16425  0.9557E-13  0.1534E-04  0.4168E-07  0.1690E-02  0.1269E-03  0.6869E+01
   -1.250009   30.16476  0.9557E-13  0.1524E-04  0.4209E-07  0.1661E-02  0.1194E-03  0.7281E+01
   -1.300011   30.16527  0.9557E-13  0.1512E-04  0.4269E-07  0.1615E-02  0.1122E-03  0.8489E+01
   -1.350012   30.16579  0.9557E-13  0.1496E-04  0.4352E-07  0.1558E-02  0.1052E-03  0.1009E+02
   -1.400013   30.16633  0.9557E-13  0.1478E-04  0.4467E-07  0.1485E-02  0.9834E-04  0.1239E+02
   -1.450014   30.16689  0.9557E-13  0.1455E-04  0.4625E-07  0.1409E-02  0.9166E-04  0.1566E+02
   -1.500014   30.16748  0.9557E-13  0.1428E-04  0.4844E-07  0.1302E-02  0.8511E-04  0.2106E+02
   -1.550015   30.16812  0.9557E-13  0.1395E-04  0.5154E-07  0.1218E-02  0.7854E-04  0.2962E+02
   -1.600015   30.16881  0.9557E-13  0.1354E-04  0.5628E-07  0.1077E-02  0.7212E-04  0.5440E+02
   -1.650015   30.16964  0.9557E-13  0.1302E-04  0.6359E-07  0.9970E-03  0.6528E-04  0.2412E+03
   -1.700014   30.17057  0.9557E-13  0.1231E-04  0.7673E-07  0.8152E-03  0.5863E-04  0.4460E+03
   -1.750013   30.17218  0.9557E-13  0.1136E-04  0.9843E-07  0.7371E-03  0.4987E-04  0.3462E+05
   -1.800012   30.17358  0.9557E-13  0.1007E-04  0.1453E-06  0.5149E-03  0.4292E-04  0.3074E+06
   -1.850010   30.17891  0.9557E-13  0.8600E-05  0.2313E-06  0.4727E-03  0.3110E-04  0.6202E+07
   -1.900008   30.17812  0.9557E-13  0.6834E-05  0.4806E-06  0.2154E-03  0.2531E-04 -0.9353E+06
   -1.950006   30.19521  0.9557E-13  0.4727E-05  0.1217E-05  0.1797E-03  0.1379E-04 -0.1002E+07
   -2.000003   30.19797  0.9557E-13  0.0000E+00  0.0000E+00  0.0000E+00  0.2461E-04  0.0000E+00
