 1 - depth, m
 2 - temperature, C
 3 - salinity, kg/kg
 4 - turbulent kinetic energy, m**2/s**2
 5 - dissipation rate, m**2/s**3
 6 - kinematic heat conductance, m**2/s
 7 - modulus of horizontal velocity, m/s
 8 - Richardson number, n/d
   -0.000000   30.30140  0.7915E-14  0.4868E-05  0.3021E-06  0.4847E-04  0.1001E-02  0.2848E+04
   -0.049997   30.33400  0.7915E-14  0.8464E-05  0.1342E-06  0.1887E-03  0.5559E-03  0.1193E+03
   -0.099994   30.34522  0.7915E-14  0.1023E-04  0.9348E-07  0.4039E-03  0.4137E-03  0.4912E+02
   -0.149992   30.34851  0.7915E-14  0.1135E-04  0.7865E-07  0.4917E-03  0.3656E-03  0.2432E+02
   -0.199991   30.35110  0.7915E-14  0.1223E-04  0.6994E-07  0.6536E-03  0.3270E-03  0.1567E+02
   -0.249989   30.35299  0.7915E-14  0.1292E-04  0.6424E-07  0.7796E-03  0.2981E-03  0.1160E+02
   -0.299988   30.35453  0.7915E-14  0.1349E-04  0.6018E-07  0.9060E-03  0.2739E-03  0.9262E+01
   -0.349988   30.35583  0.7915E-14  0.1396E-04  0.5713E-07  0.1020E-02  0.2532E-03  0.7921E+01
   -0.399988   30.35696  0.7915E-14  0.1436E-04  0.5476E-07  0.1124E-02  0.2349E-03  0.7077E+01
   -0.449988   30.35796  0.7915E-14  0.1470E-04  0.5284E-07  0.1221E-02  0.2187E-03  0.6634E+01
   -0.499988   30.35886  0.7915E-14  0.1499E-04  0.5125E-07  0.1310E-02  0.2044E-03  0.6469E+01
   -0.549989   30.35968  0.7915E-14  0.1525E-04  0.4993E-07  0.1391E-02  0.1916E-03  0.6370E+01
   -0.599990   30.36045  0.7915E-14  0.1547E-04  0.4881E-07  0.1464E-02  0.1800E-03  0.6391E+01
   -0.649991   30.36117  0.7915E-14  0.1566E-04  0.4787E-07  0.1530E-02  0.1694E-03  0.6456E+01
   -0.699992   30.36184  0.7915E-14  0.1582E-04  0.4708E-07  0.1588E-02  0.1597E-03  0.6623E+01
   -0.749993   30.36248  0.7915E-14  0.1595E-04  0.4642E-07  0.1638E-02  0.1507E-03  0.6826E+01
   -0.799995   30.36310  0.7915E-14  0.1606E-04  0.4588E-07  0.1680E-02  0.1423E-03  0.7138E+01
   -0.849996   30.36369  0.7915E-14  0.1615E-04  0.4545E-07  0.1715E-02  0.1345E-03  0.7490E+01
   -0.899998   30.36426  0.7915E-14  0.1621E-04  0.4513E-07  0.1741E-02  0.1271E-03  0.7973E+01
   -0.949999   30.36482  0.7915E-14  0.1625E-04  0.4491E-07  0.1759E-02  0.1202E-03  0.8522E+01
   -1.000001   30.36537  0.7915E-14  0.1627E-04  0.4479E-07  0.1769E-02  0.1136E-03  0.9239E+01
   -1.050003   30.36592  0.7915E-14  0.1626E-04  0.4478E-07  0.1768E-02  0.1074E-03  0.1046E+02
   -1.100005   30.36645  0.7915E-14  0.1623E-04  0.4489E-07  0.1862E-02  0.1014E-03  0.3450E+02
   -1.150006   30.36696  0.7915E-14  0.1618E-04  0.4515E-07  0.1672E-02  0.9613E-04  0.8026E+02
   -1.200008   30.36753  0.7915E-14  0.1611E-04  0.4554E-07  0.1703E-02  0.9057E-04  0.1525E+02
   -1.250009   30.36807  0.7915E-14  0.1601E-04  0.4611E-07  0.1672E-02  0.8527E-04  0.1633E+02
   -1.300011   30.36863  0.7915E-14  0.1587E-04  0.4691E-07  0.1619E-02  0.8018E-04  0.1915E+02
   -1.350012   30.36920  0.7915E-14  0.1571E-04  0.4800E-07  0.1558E-02  0.7523E-04  0.2310E+02
   -1.400013   30.36980  0.7915E-14  0.1550E-04  0.4946E-07  0.1477E-02  0.7040E-04  0.2869E+02
   -1.450014   30.37043  0.7915E-14  0.1525E-04  0.5146E-07  0.1399E-02  0.6564E-04  0.3697E+02
   -1.500014   30.37109  0.7915E-14  0.1494E-04  0.5424E-07  0.1283E-02  0.6098E-04  0.5086E+02
   -1.550015   30.37182  0.7915E-14  0.1457E-04  0.5818E-07  0.1200E-02  0.5626E-04  0.7375E+02
   -1.600015   30.37262  0.7915E-14  0.1410E-04  0.6433E-07  0.1054E-02  0.5165E-04  0.1578E+03
   -1.650014   30.37361  0.7915E-14  0.1349E-04  0.7392E-07  0.9759E-03  0.4661E-04  0.3395E+03
   -1.700014   30.37472  0.7915E-14  0.1265E-04  0.9099E-07  0.7938E-03  0.4170E-04  0.4635E+04
   -1.750013   30.37678  0.7915E-14  0.1154E-04  0.1191E-06  0.7163E-03  0.3504E-04  0.3308E+06
   -1.800012   30.37841  0.7915E-14  0.1008E-04  0.1812E-06  0.4954E-03  0.3000E-04  0.9948E+05
   -1.850010   30.38566  0.7915E-14  0.8500E-05  0.2946E-06  0.4573E-03  0.2104E-04  0.7689E+08
   -1.900008   30.38377  0.7915E-14  0.6741E-05  0.6179E-06  0.2131E-03  0.1716E-04  0.6587E+06
   -1.950005   30.40501  0.7915E-14  0.4764E-05  0.1521E-05  0.1989E-03  0.9135E-05 -0.1071E+07
   -2.000002   30.40638  0.7915E-14  0.0000E+00  0.0000E+00  0.0000E+00  0.1760E-04  0.0000E+00
