 1 - depth, m
 2 - temperature, C
 3 - salinity, kg/kg
 4 - turbulent kinetic energy, m**2/s**2
 5 - dissipation rate, m**2/s**3
 6 - kinematic heat conductance, m**2/s
 7 - modulus of horizontal velocity, m/s
 8 - Richardson number, n/d
   -0.000000   30.61909  0.1695E-13  0.5101E-05  0.3271E-06  0.5235E-04  0.1865E-02  0.7160E+04
   -0.049997   30.65072  0.1695E-13  0.8629E-05  0.1458E-06  0.1773E-03  0.1076E-02  0.2948E+03
   -0.099994   30.66333  0.1695E-13  0.1047E-04  0.9964E-07  0.4032E-03  0.7860E-03  0.1442E+02
   -0.149992   30.66677  0.1695E-13  0.1162E-04  0.8336E-07  0.4825E-03  0.6945E-03  0.7056E+01
   -0.199991   30.66953  0.1695E-13  0.1252E-04  0.7384E-07  0.6476E-03  0.6200E-03  0.4501E+01
   -0.249989   30.67152  0.1695E-13  0.1322E-04  0.6760E-07  0.7744E-03  0.5645E-03  0.3314E+01
   -0.299988   30.67313  0.1695E-13  0.1380E-04  0.6316E-07  0.9017E-03  0.5184E-03  0.2626E+01
   -0.349988   30.67448  0.1695E-13  0.1428E-04  0.5982E-07  0.1017E-02  0.4789E-03  0.2241E+01
   -0.399988   30.67565  0.1695E-13  0.1467E-04  0.5722E-07  0.1122E-02  0.4440E-03  0.1991E+01
   -0.449988   30.67668  0.1695E-13  0.1502E-04  0.5510E-07  0.1220E-02  0.4133E-03  0.1866E+01
   -0.499988   30.67761  0.1695E-13  0.1531E-04  0.5335E-07  0.1310E-02  0.3861E-03  0.1810E+01
   -0.549989   30.67846  0.1695E-13  0.1556E-04  0.5187E-07  0.1392E-02  0.3618E-03  0.1784E+01
   -0.599989   30.67925  0.1695E-13  0.1578E-04  0.5062E-07  0.1467E-02  0.3398E-03  0.1778E+01
   -0.649990   30.67998  0.1695E-13  0.1596E-04  0.4956E-07  0.1534E-02  0.3198E-03  0.1798E+01
   -0.699992   30.68067  0.1695E-13  0.1611E-04  0.4865E-07  0.1593E-02  0.3013E-03  0.1830E+01
   -0.749993   30.68132  0.1695E-13  0.1624E-04  0.4788E-07  0.1645E-02  0.2843E-03  0.1889E+01
   -0.799994   30.68194  0.1695E-13  0.1634E-04  0.4724E-07  0.1689E-02  0.2685E-03  0.1958E+01
   -0.849996   30.68254  0.1695E-13  0.1642E-04  0.4671E-07  0.1725E-02  0.2536E-03  0.2056E+01
   -0.899998   30.68312  0.1695E-13  0.1647E-04  0.4628E-07  0.1752E-02  0.2397E-03  0.2168E+01
   -0.949999   30.68368  0.1695E-13  0.1650E-04  0.4597E-07  0.1772E-02  0.2266E-03  0.2317E+01
   -1.000001   30.68423  0.1695E-13  0.1651E-04  0.4575E-07  0.1783E-02  0.2142E-03  0.2486E+01
   -1.050003   30.68477  0.1695E-13  0.1650E-04  0.4565E-07  0.1784E-02  0.2025E-03  0.2810E+01
   -1.100004   30.68531  0.1695E-13  0.1646E-04  0.4567E-07  0.1874E-02  0.1913E-03  0.9270E+01
   -1.150006   30.68581  0.1695E-13  0.1640E-04  0.4582E-07  0.1698E-02  0.1812E-03  0.2095E+02
   -1.200008   30.68636  0.1695E-13  0.1632E-04  0.4611E-07  0.1726E-02  0.1708E-03  0.4016E+01
   -1.250009   30.68690  0.1695E-13  0.1620E-04  0.4658E-07  0.1696E-02  0.1609E-03  0.4249E+01
   -1.300010   30.68745  0.1695E-13  0.1606E-04  0.4726E-07  0.1646E-02  0.1513E-03  0.4956E+01
   -1.350012   30.68800  0.1695E-13  0.1589E-04  0.4821E-07  0.1587E-02  0.1420E-03  0.5895E+01
   -1.400013   30.68857  0.1695E-13  0.1568E-04  0.4953E-07  0.1509E-02  0.1329E-03  0.7259E+01
   -1.450013   30.68917  0.1695E-13  0.1543E-04  0.5134E-07  0.1431E-02  0.1240E-03  0.9191E+01
   -1.500014   30.68981  0.1695E-13  0.1512E-04  0.5387E-07  0.1317E-02  0.1153E-03  0.1245E+02
   -1.550014   30.69050  0.1695E-13  0.1475E-04  0.5748E-07  0.1233E-02  0.1065E-03  0.1764E+02
   -1.600014   30.69124  0.1695E-13  0.1429E-04  0.6306E-07  0.1086E-02  0.9788E-04  0.3776E+02
   -1.650014   30.69216  0.1695E-13  0.1370E-04  0.7170E-07  0.1007E-02  0.8856E-04  0.7634E+04
   -1.700014   30.69316  0.1695E-13  0.1290E-04  0.8711E-07  0.8222E-03  0.7956E-04 -0.1211E+04
   -1.750013   30.69497  0.1695E-13  0.1185E-04  0.1127E-06  0.7455E-03  0.6751E-04  0.1155E+06
   -1.800011   30.69644  0.1695E-13  0.1043E-04  0.1676E-06  0.5177E-03  0.5810E-04  0.5970E+05
   -1.850010   30.70252  0.1695E-13  0.8851E-05  0.2693E-06  0.4747E-03  0.4167E-04  0.1773E+08
   -1.900008   30.70140  0.1695E-13  0.6996E-05  0.5619E-06  0.2196E-03  0.3390E-04 -0.6015E+05
   -1.950005   30.71996  0.1695E-13  0.4893E-05  0.1411E-05  0.1903E-03  0.1828E-04 -0.3389E+06
   -2.000002   30.72209  0.1695E-13  0.0000E+00  0.0000E+00  0.0000E+00  0.3364E-04  0.0000E+00
