 1 - depth, m
 2 - temperature, C
 3 - salinity, kg/kg
 4 - turbulent kinetic energy, m**2/s**2
 5 - dissipation rate, m**2/s**3
 6 - kinematic heat conductance, m**2/s
 7 - modulus of horizontal velocity, m/s
 8 - Richardson number, n/d
   -0.000000   29.47293  0.1055E-13  0.4277E-05  0.2483E-06  0.4737E-04  0.1327E-02  0.3245E+04
   -0.049997   29.49971  0.1055E-13  0.7423E-05  0.1106E-06  0.1719E-03  0.7484E-03  0.2971E+03
   -0.099994   29.50981  0.1055E-13  0.9012E-05  0.7651E-07  0.3874E-03  0.5464E-03  0.2483E+02
   -0.149992   29.51262  0.1055E-13  0.1001E-04  0.6447E-07  0.4680E-03  0.4820E-03  0.1211E+02
   -0.199991   29.51486  0.1055E-13  0.1079E-04  0.5742E-07  0.6227E-03  0.4300E-03  0.7835E+01
   -0.249989   29.51650  0.1055E-13  0.1142E-04  0.5282E-07  0.7445E-03  0.3910E-03  0.5797E+01
   -0.299989   29.51784  0.1055E-13  0.1193E-04  0.4955E-07  0.8649E-03  0.3586E-03  0.4637E+01
   -0.349988   29.51897  0.1055E-13  0.1236E-04  0.4711E-07  0.9743E-03  0.3307E-03  0.3977E+01
   -0.399988   29.51995  0.1055E-13  0.1273E-04  0.4522E-07  0.1075E-02  0.3061E-03  0.3560E+01
   -0.449988   29.52083  0.1055E-13  0.1305E-04  0.4370E-07  0.1168E-02  0.2845E-03  0.3348E+01
   -0.499988   29.52162  0.1055E-13  0.1333E-04  0.4245E-07  0.1254E-02  0.2654E-03  0.3271E+01
   -0.549989   29.52235  0.1055E-13  0.1357E-04  0.4142E-07  0.1332E-02  0.2483E-03  0.3233E+01
   -0.599990   29.52302  0.1055E-13  0.1379E-04  0.4056E-07  0.1404E-02  0.2328E-03  0.3251E+01
   -0.649991   29.52365  0.1055E-13  0.1398E-04  0.3985E-07  0.1468E-02  0.2187E-03  0.3298E+01
   -0.699992   29.52425  0.1055E-13  0.1414E-04  0.3926E-07  0.1525E-02  0.2058E-03  0.3392E+01
   -0.749993   29.52482  0.1055E-13  0.1428E-04  0.3878E-07  0.1575E-02  0.1938E-03  0.3512E+01
   -0.799995   29.52536  0.1055E-13  0.1440E-04  0.3840E-07  0.1617E-02  0.1827E-03  0.3680E+01
   -0.849996   29.52589  0.1055E-13  0.1450E-04  0.3811E-07  0.1652E-02  0.1724E-03  0.3880E+01
   -0.899998   29.52640  0.1055E-13  0.1458E-04  0.3791E-07  0.1679E-02  0.1626E-03  0.4139E+01
   -0.950000   29.52690  0.1055E-13  0.1464E-04  0.3779E-07  0.1699E-02  0.1535E-03  0.4442E+01
   -1.000002   29.52740  0.1055E-13  0.1468E-04  0.3776E-07  0.1711E-02  0.1449E-03  0.4824E+01
   -1.050003   29.52789  0.1055E-13  0.1470E-04  0.3782E-07  0.1714E-02  0.1367E-03  0.5491E+01
   -1.100005   29.52837  0.1055E-13  0.1470E-04  0.3797E-07  0.1788E-02  0.1289E-03  0.1850E+02
   -1.150007   29.52884  0.1055E-13  0.1469E-04  0.3824E-07  0.1650E-02  0.1219E-03  0.4057E+02
   -1.200008   29.52934  0.1055E-13  0.1465E-04  0.3862E-07  0.1665E-02  0.1148E-03  0.7953E+01
   -1.250010   29.52984  0.1055E-13  0.1459E-04  0.3915E-07  0.1636E-02  0.1079E-03  0.8555E+01
   -1.300011   29.53035  0.1055E-13  0.1450E-04  0.3985E-07  0.1591E-02  0.1013E-03  0.1001E+02
   -1.350012   29.53087  0.1055E-13  0.1439E-04  0.4077E-07  0.1536E-02  0.9487E-04  0.1200E+02
   -1.400013   29.53141  0.1055E-13  0.1425E-04  0.4198E-07  0.1465E-02  0.8866E-04  0.1475E+02
   -1.450014   29.53198  0.1055E-13  0.1406E-04  0.4358E-07  0.1391E-02  0.8257E-04  0.1875E+02
   -1.500015   29.53259  0.1055E-13  0.1384E-04  0.4573E-07  0.1288E-02  0.7661E-04  0.2511E+02
   -1.550015   29.53324  0.1055E-13  0.1356E-04  0.4872E-07  0.1202E-02  0.7066E-04  0.3524E+02
   -1.600015   29.53396  0.1055E-13  0.1320E-04  0.5313E-07  0.1066E-02  0.6483E-04  0.5991E+02
   -1.650015   29.53480  0.1055E-13  0.1275E-04  0.5981E-07  0.9817E-03  0.5870E-04  0.2453E+04
   -1.700015   29.53576  0.1055E-13  0.1212E-04  0.7156E-07  0.8115E-03  0.5272E-04  0.3273E+03
   -1.750014   29.53733  0.1055E-13  0.1126E-04  0.9107E-07  0.7273E-03  0.4522E-04  0.2127E+05
   -1.800012   29.53888  0.1055E-13  0.1006E-04  0.1300E-06  0.5189E-03  0.3875E-04  0.2448E+06
   -1.850011   29.54380  0.1055E-13  0.8625E-05  0.2043E-06  0.4623E-03  0.2865E-04  0.1458E+07
   -1.900009   29.54385  0.1055E-13  0.6812E-05  0.4244E-06  0.2070E-03  0.2297E-04 -0.6831E+05
   -1.950006   29.56149  0.1055E-13  0.4704E-05  0.1095E-05  0.1693E-03  0.1251E-04 -0.8198E+06
   -2.000003   29.56532  0.1055E-13  0.0000E+00  0.0000E+00  0.0000E+00  0.2157E-04  0.0000E+00
