 1 - depth, m
 2 - temperature, C
 3 - salinity, kg/kg
 4 - turbulent kinetic energy, m**2/s**2
 5 - dissipation rate, m**2/s**3
 6 - kinematic heat conductance, m**2/s
 7 - modulus of horizontal velocity, m/s
 8 - Richardson number, n/d
   -0.000000   30.16081  0.3959E-14  0.4742E-05  0.2949E-06  0.4971E-04  0.9079E-03  0.5512E+04
   -0.049997   30.19159  0.3959E-14  0.8261E-05  0.1308E-06  0.1798E-03  0.5143E-03  0.5211E+02
   -0.099994   30.20329  0.3959E-14  0.1003E-04  0.9030E-07  0.4069E-03  0.3754E-03  0.5608E+02
   -0.149992   30.20646  0.3959E-14  0.1113E-04  0.7605E-07  0.4856E-03  0.3322E-03  0.2748E+02
   -0.199991   30.20901  0.3959E-14  0.1198E-04  0.6766E-07  0.6488E-03  0.2968E-03  0.1774E+02
   -0.249989   30.21087  0.3959E-14  0.1266E-04  0.6215E-07  0.7741E-03  0.2704E-03  0.1315E+02
   -0.299988   30.21238  0.3959E-14  0.1322E-04  0.5822E-07  0.8997E-03  0.2483E-03  0.1048E+02
   -0.349988   30.21365  0.3959E-14  0.1368E-04  0.5527E-07  0.1013E-02  0.2294E-03  0.8975E+01
   -0.399988   30.21475  0.3959E-14  0.1407E-04  0.5297E-07  0.1117E-02  0.2127E-03  0.8002E+01
   -0.449988   30.21573  0.3959E-14  0.1441E-04  0.5110E-07  0.1213E-02  0.1980E-03  0.7514E+01
   -0.499988   30.21662  0.3959E-14  0.1470E-04  0.4955E-07  0.1302E-02  0.1850E-03  0.7309E+01
   -0.549989   30.21742  0.3959E-14  0.1495E-04  0.4826E-07  0.1383E-02  0.1733E-03  0.7211E+01
   -0.599990   30.21817  0.3959E-14  0.1516E-04  0.4717E-07  0.1456E-02  0.1627E-03  0.7210E+01
   -0.649991   30.21887  0.3959E-14  0.1535E-04  0.4625E-07  0.1522E-02  0.1531E-03  0.7299E+01
   -0.699992   30.21953  0.3959E-14  0.1551E-04  0.4547E-07  0.1581E-02  0.1442E-03  0.7457E+01
   -0.749993   30.22016  0.3959E-14  0.1564E-04  0.4482E-07  0.1632E-02  0.1360E-03  0.7701E+01
   -0.799995   30.22075  0.3959E-14  0.1575E-04  0.4428E-07  0.1675E-02  0.1284E-03  0.8014E+01
   -0.849996   30.22133  0.3959E-14  0.1583E-04  0.4385E-07  0.1710E-02  0.1213E-03  0.8425E+01
   -0.899998   30.22189  0.3959E-14  0.1590E-04  0.4351E-07  0.1738E-02  0.1146E-03  0.8918E+01
   -0.950000   30.22243  0.3959E-14  0.1594E-04  0.4328E-07  0.1757E-02  0.1083E-03  0.9544E+01
   -1.000001   30.22297  0.3959E-14  0.1596E-04  0.4314E-07  0.1768E-02  0.1024E-03  0.1028E+02
   -1.050003   30.22349  0.3959E-14  0.1596E-04  0.4310E-07  0.1770E-02  0.9670E-04  0.1164E+02
   -1.100005   30.22401  0.3959E-14  0.1594E-04  0.4318E-07  0.1855E-02  0.9131E-04  0.3864E+02
   -1.150006   30.22451  0.3959E-14  0.1589E-04  0.4338E-07  0.1689E-02  0.8650E-04  0.8675E+02
   -1.200008   30.22505  0.3959E-14  0.1582E-04  0.4371E-07  0.1714E-02  0.8150E-04  0.1674E+02
   -1.250009   30.22557  0.3959E-14  0.1573E-04  0.4422E-07  0.1684E-02  0.7673E-04  0.1780E+02
   -1.300011   30.22611  0.3959E-14  0.1561E-04  0.4492E-07  0.1635E-02  0.7213E-04  0.2080E+02
   -1.350012   30.22665  0.3959E-14  0.1546E-04  0.4588E-07  0.1577E-02  0.6767E-04  0.2480E+02
   -1.400013   30.22722  0.3959E-14  0.1527E-04  0.4717E-07  0.1501E-02  0.6332E-04  0.3058E+02
   -1.450014   30.22781  0.3959E-14  0.1504E-04  0.4893E-07  0.1423E-02  0.5905E-04  0.3877E+02
   -1.500014   30.22844  0.3959E-14  0.1476E-04  0.5136E-07  0.1313E-02  0.5486E-04  0.5246E+02
   -1.550015   30.22912  0.3959E-14  0.1442E-04  0.5479E-07  0.1227E-02  0.5066E-04  0.7419E+02
   -1.600015   30.22986  0.3959E-14  0.1399E-04  0.5998E-07  0.1085E-02  0.4653E-04  0.4390E+04
   -1.650015   30.23075  0.3959E-14  0.1345E-04  0.6798E-07  0.1004E-02  0.4215E-04  0.4019E+03
   -1.700014   30.23176  0.3959E-14  0.1271E-04  0.8235E-07  0.8233E-03  0.3784E-04  0.9233E+05
   -1.750013   30.23351  0.3959E-14  0.1171E-04  0.1059E-06  0.7407E-03  0.3219E-04  0.7513E+06
   -1.800012   30.23500  0.3959E-14  0.1036E-04  0.1552E-06  0.5196E-03  0.2770E-04  0.7138E+06
   -1.850010   30.24088  0.3959E-14  0.8843E-05  0.2484E-06  0.4760E-03  0.2003E-04  0.1701E+09
   -1.900008   30.23999  0.3959E-14  0.7031E-05  0.5177E-06  0.2167E-03  0.1628E-04 -0.8233E+05
   -1.950006   30.25845  0.3959E-14  0.4893E-05  0.1301E-05  0.1838E-03  0.8905E-05 -0.1493E+07
   -2.000003   30.26054  0.3959E-14  0.0000E+00  0.0000E+00  0.0000E+00  0.1585E-04  0.0000E+00
