 1 - depth, m
 2 - temperature, C
 3 - salinity, kg/kg
 4 - turbulent kinetic energy, m**2/s**2
 5 - dissipation rate, m**2/s**3
 6 - kinematic heat conductance, m**2/s
 7 - modulus of horizontal velocity, m/s
 8 - Richardson number, n/d
   -0.000000   30.42527  0.1666E-13  0.4738E-05  0.2931E-06  0.5005E-04  0.1179E-02  0.3049E+04
   -0.049997   30.45548  0.1666E-13  0.8184E-05  0.1305E-06  0.1761E-03  0.6714E-03  0.4865E+02
   -0.099994   30.46722  0.1666E-13  0.9931E-05  0.8986E-07  0.4008E-03  0.4903E-03  0.3849E+02
   -0.149992   30.47041  0.1666E-13  0.1102E-04  0.7556E-07  0.4790E-03  0.4331E-03  0.1878E+02
   -0.199991   30.47297  0.1666E-13  0.1186E-04  0.6714E-07  0.6400E-03  0.3867E-03  0.1211E+02
   -0.249989   30.47483  0.1666E-13  0.1253E-04  0.6160E-07  0.7646E-03  0.3519E-03  0.8977E+01
   -0.299989   30.47634  0.1666E-13  0.1308E-04  0.5764E-07  0.8885E-03  0.3230E-03  0.7137E+01
   -0.349988   30.47761  0.1666E-13  0.1353E-04  0.5467E-07  0.1001E-02  0.2982E-03  0.6122E+01
   -0.399988   30.47870  0.1666E-13  0.1390E-04  0.5234E-07  0.1103E-02  0.2763E-03  0.5442E+01
   -0.449988   30.47967  0.1666E-13  0.1423E-04  0.5045E-07  0.1199E-02  0.2569E-03  0.5127E+01
   -0.499988   30.48055  0.1666E-13  0.1451E-04  0.4887E-07  0.1286E-02  0.2399E-03  0.4971E+01
   -0.549989   30.48135  0.1666E-13  0.1475E-04  0.4755E-07  0.1366E-02  0.2246E-03  0.4922E+01
   -0.599990   30.48209  0.1666E-13  0.1496E-04  0.4643E-07  0.1439E-02  0.2108E-03  0.4902E+01
   -0.649991   30.48278  0.1666E-13  0.1513E-04  0.4548E-07  0.1504E-02  0.1982E-03  0.4980E+01
   -0.699992   30.48343  0.1666E-13  0.1528E-04  0.4467E-07  0.1562E-02  0.1866E-03  0.5067E+01
   -0.749993   30.48405  0.1666E-13  0.1540E-04  0.4398E-07  0.1612E-02  0.1759E-03  0.5251E+01
   -0.799995   30.48464  0.1666E-13  0.1550E-04  0.4341E-07  0.1655E-02  0.1660E-03  0.5440E+01
   -0.849996   30.48521  0.1666E-13  0.1557E-04  0.4294E-07  0.1690E-02  0.1567E-03  0.5737E+01
   -0.899998   30.48576  0.1666E-13  0.1563E-04  0.4256E-07  0.1717E-02  0.1480E-03  0.6045E+01
   -0.950000   30.48629  0.1666E-13  0.1566E-04  0.4229E-07  0.1736E-02  0.1398E-03  0.6488E+01
   -1.000001   30.48681  0.1666E-13  0.1567E-04  0.4210E-07  0.1747E-02  0.1320E-03  0.6959E+01
   -1.050003   30.48732  0.1666E-13  0.1566E-04  0.4202E-07  0.1749E-02  0.1246E-03  0.7900E+01
   -1.100005   30.48783  0.1666E-13  0.1563E-04  0.4204E-07  0.1834E-02  0.1176E-03  0.2606E+02
   -1.150006   30.48831  0.1666E-13  0.1557E-04  0.4219E-07  0.1668E-02  0.1114E-03  0.5882E+02
   -1.200008   30.48883  0.1666E-13  0.1550E-04  0.4246E-07  0.1693E-02  0.1049E-03  0.1134E+02
   -1.250010   30.48934  0.1666E-13  0.1539E-04  0.4290E-07  0.1663E-02  0.9868E-04  0.1199E+02
   -1.300011   30.48986  0.1666E-13  0.1527E-04  0.4353E-07  0.1615E-02  0.9270E-04  0.1404E+02
   -1.350012   30.49038  0.1666E-13  0.1511E-04  0.4440E-07  0.1557E-02  0.8692E-04  0.1667E+02
   -1.400013   30.49093  0.1666E-13  0.1491E-04  0.4560E-07  0.1482E-02  0.8128E-04  0.2058E+02
   -1.450014   30.49149  0.1666E-13  0.1468E-04  0.4724E-07  0.1405E-02  0.7577E-04  0.2600E+02
   -1.500015   30.49209  0.1666E-13  0.1439E-04  0.4954E-07  0.1295E-02  0.7034E-04  0.3519E+02
   -1.550015   30.49275  0.1666E-13  0.1405E-04  0.5279E-07  0.1210E-02  0.6492E-04  0.4955E+02
   -1.600015   30.49345  0.1666E-13  0.1362E-04  0.5777E-07  0.1069E-02  0.5959E-04  0.9278E+02
   -1.650015   30.49430  0.1666E-13  0.1307E-04  0.6549E-07  0.9864E-03  0.5392E-04  0.1319E+05
   -1.700014   30.49526  0.1666E-13  0.1233E-04  0.7939E-07  0.8103E-03  0.4835E-04  0.4398E+04
   -1.750013   30.49693  0.1666E-13  0.1134E-04  0.1022E-06  0.7271E-03  0.4104E-04  0.9529E+05
   -1.800012   30.49833  0.1666E-13  0.1000E-04  0.1505E-06  0.5079E-03  0.3526E-04  0.1552E+06
   -1.850010   30.50398  0.1666E-13  0.8481E-05  0.2414E-06  0.4625E-03  0.2535E-04  0.4317E+08
   -1.900008   30.50304  0.1666E-13  0.6677E-05  0.5044E-06  0.2105E-03  0.2055E-04  0.1228E+07
   -1.950006   30.52065  0.1666E-13  0.4646E-05  0.1267E-05  0.1848E-03  0.1103E-04 -0.4673E+06
   -2.000003   30.52243  0.1666E-13  0.0000E+00  0.0000E+00  0.0000E+00  0.2019E-04  0.0000E+00
