 1 - depth, m
 2 - temperature, C
 3 - salinity, kg/kg
 4 - turbulent kinetic energy, m**2/s**2
 5 - dissipation rate, m**2/s**3
 6 - kinematic heat conductance, m**2/s
 7 - modulus of horizontal velocity, m/s
 8 - Richardson number, n/d
   -0.000000   30.20818  0.3362E-13  0.6201E-05  0.3315E-06  0.5927E-04  0.4978E-02  0.9373E+00
   -0.049997   30.23762  0.3362E-13  0.9439E-05  0.1398E-06  0.2201E-03  0.2678E-02  0.4849E+01
   -0.099994   30.24569  0.3362E-13  0.1083E-04  0.1021E-06  0.3872E-03  0.2210E-02  0.2513E+01
   -0.149992   30.24922  0.3362E-13  0.1181E-04  0.8687E-07  0.4771E-03  0.1997E-02  0.1472E+01
   -0.199991   30.25195  0.3362E-13  0.1266E-04  0.7770E-07  0.5949E-03  0.1826E-02  0.1306E+01
   -0.249989   30.25408  0.3362E-13  0.1343E-04  0.7115E-07  0.7221E-03  0.1678E-02  0.1418E+01
   -0.299988   30.25579  0.3362E-13  0.1418E-04  0.6597E-07  0.8743E-03  0.1534E-02  0.1536E+01
   -0.349988   30.25716  0.3362E-13  0.1490E-04  0.6174E-07  0.1042E-02  0.1393E-02  0.1648E+01
   -0.399988   30.25829  0.3362E-13  0.1555E-04  0.5828E-07  0.1215E-02  0.1255E-02  0.1663E+01
   -0.449988   30.25924  0.3362E-13  0.1614E-04  0.5544E-07  0.1367E-02  0.1128E-02  0.1643E+01
   -0.499988   30.26007  0.3362E-13  0.1664E-04  0.5314E-07  0.1502E-02  0.1015E-02  0.1617E+01
   -0.549989   30.26081  0.3362E-13  0.1706E-04  0.5129E-07  0.1628E-02  0.9160E-03  0.1585E+01
   -0.599989   30.26147  0.3362E-13  0.1740E-04  0.4981E-07  0.1750E-02  0.8284E-03  0.1552E+01
   -0.649990   30.26209  0.3362E-13  0.1767E-04  0.4865E-07  0.1864E-02  0.7510E-03  0.1518E+01
   -0.699992   30.26265  0.3362E-13  0.1787E-04  0.4775E-07  0.1965E-02  0.6826E-03  0.1483E+01
   -0.749993   30.26318  0.3362E-13  0.1801E-04  0.4708E-07  0.2046E-02  0.6222E-03  0.1446E+01
   -0.799994   30.26369  0.3362E-13  0.1810E-04  0.4662E-07  0.2099E-02  0.5688E-03  0.1406E+01
   -0.849996   30.26417  0.3362E-13  0.1814E-04  0.4634E-07  0.2124E-02  0.5215E-03  0.1364E+01
   -0.899998   30.26465  0.3362E-13  0.1813E-04  0.4624E-07  0.2128E-02  0.4796E-03  0.1319E+01
   -0.949999   30.26511  0.3362E-13  0.1809E-04  0.4629E-07  0.2113E-02  0.4425E-03  0.1273E+01
   -1.000001   30.26558  0.3362E-13  0.1803E-04  0.4649E-07  0.2084E-02  0.4096E-03  0.1223E+01
   -1.050003   30.26605  0.3362E-13  0.1793E-04  0.4682E-07  0.2017E-02  0.3804E-03  0.1167E+01
   -1.100005   30.26654  0.3362E-13  0.1783E-04  0.4722E-07  0.2241E-02  0.3547E-03  0.2155E+01
   -1.150006   30.26697  0.3362E-13  0.1771E-04  0.4775E-07  0.1771E-02  0.3389E-03  0.6027E+01
   -1.200008   30.26751  0.3362E-13  0.1757E-04  0.4845E-07  0.1900E-02  0.3201E-03  0.1165E+01
   -1.250009   30.26802  0.3362E-13  0.1739E-04  0.4941E-07  0.1842E-02  0.3016E-03  0.1186E+01
   -1.300011   30.26853  0.3362E-13  0.1718E-04  0.5065E-07  0.1763E-02  0.2843E-03  0.1352E+01
   -1.350012   30.26907  0.3362E-13  0.1693E-04  0.5225E-07  0.1684E-02  0.2677E-03  0.1632E+01
   -1.400013   30.26964  0.3362E-13  0.1664E-04  0.5440E-07  0.1575E-02  0.2516E-03  0.2096E+01
   -1.450014   30.27024  0.3362E-13  0.1629E-04  0.5733E-07  0.1482E-02  0.2354E-03  0.2799E+01
   -1.500014   30.27090  0.3362E-13  0.1588E-04  0.6144E-07  0.1341E-02  0.2194E-03  0.4122E+01
   -1.550015   30.27164  0.3362E-13  0.1537E-04  0.6744E-07  0.1257E-02  0.2029E-03  0.7236E+01
   -1.600015   30.27247  0.3362E-13  0.1473E-04  0.7719E-07  0.1091E-02  0.1865E-03  0.2821E+01
   -1.650014   30.27366  0.3362E-13  0.1389E-04  0.9234E-07  0.1001E-02  0.1671E-03  0.4477E+03
   -1.700014   30.27500  0.3362E-13  0.1273E-04  0.1196E-06  0.8046E-03  0.1478E-03  0.3675E+05
   -1.750013   30.27761  0.3362E-13  0.1142E-04  0.1612E-06  0.7238E-03  0.1212E-03  0.8411E+05
   -1.800012   30.27892  0.3362E-13  0.9810E-05  0.2535E-06  0.4946E-03  0.1046E-03  0.8091E+04
   -1.850010   30.28896  0.3362E-13  0.8282E-05  0.4263E-06  0.4734E-03  0.7004E-04  0.3008E+07
   -1.900008   30.28402  0.3362E-13  0.6574E-05  0.9036E-06  0.2183E-03  0.5888E-04 -0.1542E+07
   -1.950005   30.30922  0.3362E-13  0.4757E-05  0.2099E-05  0.2383E-03  0.3033E-04 -0.5616E+05
   -2.000002   30.30761  0.3362E-13  0.0000E+00  0.0000E+00  0.0000E+00  0.6568E-04  0.0000E+00
