 1 - depth, m
 2 - temperature, C
 3 - salinity, kg/kg
 4 - turbulent kinetic energy, m**2/s**2
 5 - dissipation rate, m**2/s**3
 6 - kinematic heat conductance, m**2/s
 7 - modulus of horizontal velocity, m/s
 8 - Richardson number, n/d
   -0.000000   29.64498  0.2633E-14  0.4685E-05  0.2851E-06  0.4993E-04  0.1857E-02  0.5052E+04
   -0.049997   29.67419  0.2633E-14  0.7959E-05  0.1270E-06  0.1723E-03  0.1064E-02  0.3381E+03
   -0.099994   29.68567  0.2633E-14  0.9655E-05  0.8698E-07  0.3920E-03  0.7752E-03  0.1359E+02
   -0.149992   29.68883  0.2633E-14  0.1071E-04  0.7294E-07  0.4711E-03  0.6841E-03  0.6609E+01
   -0.199991   29.69135  0.2633E-14  0.1154E-04  0.6471E-07  0.6294E-03  0.6102E-03  0.4239E+01
   -0.249989   29.69319  0.2633E-14  0.1219E-04  0.5931E-07  0.7528E-03  0.5549E-03  0.3123E+01
   -0.299989   29.69468  0.2633E-14  0.1273E-04  0.5547E-07  0.8757E-03  0.5090E-03  0.2482E+01
   -0.349988   29.69593  0.2633E-14  0.1317E-04  0.5259E-07  0.9872E-03  0.4696E-03  0.2121E+01
   -0.399988   29.69701  0.2633E-14  0.1354E-04  0.5034E-07  0.1089E-02  0.4348E-03  0.1888E+01
   -0.449988   29.69797  0.2633E-14  0.1386E-04  0.4852E-07  0.1184E-02  0.4042E-03  0.1773E+01
   -0.499988   29.69883  0.2633E-14  0.1414E-04  0.4701E-07  0.1272E-02  0.3772E-03  0.1723E+01
   -0.549989   29.69962  0.2633E-14  0.1438E-04  0.4574E-07  0.1352E-02  0.3530E-03  0.1701E+01
   -0.599990   29.70035  0.2633E-14  0.1459E-04  0.4467E-07  0.1425E-02  0.3311E-03  0.1700E+01
   -0.649991   29.70104  0.2633E-14  0.1477E-04  0.4377E-07  0.1490E-02  0.3112E-03  0.1721E+01
   -0.699992   29.70168  0.2633E-14  0.1492E-04  0.4300E-07  0.1549E-02  0.2929E-03  0.1758E+01
   -0.749993   29.70229  0.2633E-14  0.1505E-04  0.4235E-07  0.1600E-02  0.2760E-03  0.1815E+01
   -0.799995   29.70287  0.2633E-14  0.1515E-04  0.4181E-07  0.1643E-02  0.2604E-03  0.1888E+01
   -0.849996   29.70343  0.2633E-14  0.1524E-04  0.4137E-07  0.1679E-02  0.2457E-03  0.1984E+01
   -0.899998   29.70398  0.2633E-14  0.1530E-04  0.4103E-07  0.1707E-02  0.2320E-03  0.2099E+01
   -0.950000   29.70450  0.2633E-14  0.1534E-04  0.4077E-07  0.1728E-02  0.2191E-03  0.2244E+01
   -1.000002   29.70502  0.2633E-14  0.1536E-04  0.4061E-07  0.1740E-02  0.2068E-03  0.2416E+01
   -1.050003   29.70553  0.2633E-14  0.1536E-04  0.4055E-07  0.1744E-02  0.1953E-03  0.2734E+01
   -1.100005   29.70603  0.2633E-14  0.1534E-04  0.4058E-07  0.1820E-02  0.1842E-03  0.9151E+01
   -1.150007   29.70651  0.2633E-14  0.1530E-04  0.4074E-07  0.1678E-02  0.1743E-03  0.2005E+02
   -1.200008   29.70702  0.2633E-14  0.1523E-04  0.4100E-07  0.1695E-02  0.1642E-03  0.3899E+01
   -1.250010   29.70753  0.2633E-14  0.1515E-04  0.4143E-07  0.1667E-02  0.1545E-03  0.4144E+01
   -1.300011   29.70804  0.2633E-14  0.1503E-04  0.4203E-07  0.1622E-02  0.1451E-03  0.4821E+01
   -1.350012   29.70856  0.2633E-14  0.1489E-04  0.4286E-07  0.1566E-02  0.1361E-03  0.5733E+01
   -1.400013   29.70910  0.2633E-14  0.1472E-04  0.4398E-07  0.1495E-02  0.1273E-03  0.7019E+01
   -1.450014   29.70967  0.2633E-14  0.1451E-04  0.4551E-07  0.1420E-02  0.1186E-03  0.8855E+01
   -1.500015   29.71026  0.2634E-14  0.1425E-04  0.4762E-07  0.1314E-02  0.1102E-03  0.1185E+02
   -1.550015   29.71090  0.2634E-14  0.1394E-04  0.5059E-07  0.1230E-02  0.1017E-03  0.1656E+02
   -1.600015   29.71160  0.2634E-14  0.1355E-04  0.5505E-07  0.1089E-02  0.9342E-04  0.2878E+02
   -1.650015   29.71242  0.2634E-14  0.1305E-04  0.6186E-07  0.1008E-02  0.8467E-04  0.8236E+02
   -1.700014   29.71333  0.2634E-14  0.1238E-04  0.7407E-07  0.8262E-03  0.7617E-04 -0.1541E+04
   -1.750014   29.71491  0.2634E-14  0.1148E-04  0.9410E-07  0.7498E-03  0.6513E-04  0.5361E+05
   -1.800012   29.71626  0.2634E-14  0.1026E-04  0.1352E-06  0.5231E-03  0.5628E-04  0.2977E+05
   -1.850011   29.72136  0.2634E-14  0.8808E-05  0.2145E-06  0.4826E-03  0.4143E-04  0.1828E+08
   -1.900009   29.72091  0.2634E-14  0.7008E-05  0.4475E-06  0.2141E-03  0.3363E-04  0.1623E+05
   -1.950006   29.73742  0.2634E-14  0.4818E-05  0.1133E-05  0.1740E-03  0.1858E-04 -0.1925E+06
   -2.000003   29.74010  0.2634E-14  0.0000E+00  0.0000E+00  0.0000E+00  0.3172E-04  0.0000E+00
