 1 - depth, m
 2 - temperature, C
 3 - salinity, kg/kg
 4 - turbulent kinetic energy, m**2/s**2
 5 - dissipation rate, m**2/s**3
 6 - kinematic heat conductance, m**2/s
 7 - modulus of horizontal velocity, m/s
 8 - Richardson number, n/d
   -0.000000   30.82276  0.7371E-13  0.4977E-05  0.3201E-06  0.5190E-04  0.8628E-03  0.2343E+04
   -0.049997   30.85446  0.7371E-13  0.8640E-05  0.1420E-06  0.1789E-03  0.4962E-03  0.3711E+02
   -0.099994   30.86711  0.7371E-13  0.1050E-04  0.9737E-07  0.4169E-03  0.3595E-03  0.7273E+02
   -0.149992   30.87042  0.7371E-13  0.1165E-04  0.8195E-07  0.4904E-03  0.3185E-03  0.3563E+02
   -0.199991   30.87310  0.7371E-13  0.1254E-04  0.7285E-07  0.6586E-03  0.2846E-03  0.2303E+02
   -0.249989   30.87505  0.7371E-13  0.1325E-04  0.6688E-07  0.7858E-03  0.2594E-03  0.1712E+02
   -0.299988   30.87663  0.7371E-13  0.1383E-04  0.6261E-07  0.9134E-03  0.2383E-03  0.1364E+02
   -0.349988   30.87795  0.7371E-13  0.1431E-04  0.5941E-07  0.1029E-02  0.2203E-03  0.1171E+02
   -0.399988   30.87910  0.7371E-13  0.1471E-04  0.5691E-07  0.1134E-02  0.2043E-03  0.1041E+02
   -0.449988   30.88012  0.7371E-13  0.1505E-04  0.5488E-07  0.1232E-02  0.1903E-03  0.9800E+01
   -0.499988   30.88103  0.7371E-13  0.1535E-04  0.5319E-07  0.1321E-02  0.1779E-03  0.9497E+01
   -0.549989   30.88187  0.7371E-13  0.1561E-04  0.5178E-07  0.1403E-02  0.1667E-03  0.9393E+01
   -0.599989   30.88265  0.7371E-13  0.1583E-04  0.5060E-07  0.1477E-02  0.1566E-03  0.9359E+01
   -0.649990   30.88337  0.7371E-13  0.1601E-04  0.4959E-07  0.1544E-02  0.1474E-03  0.9502E+01
   -0.699992   30.88405  0.7371E-13  0.1617E-04  0.4874E-07  0.1602E-02  0.1389E-03  0.9676E+01
   -0.749993   30.88470  0.7371E-13  0.1630E-04  0.4803E-07  0.1653E-02  0.1311E-03  0.1003E+02
   -0.799994   30.88532  0.7371E-13  0.1641E-04  0.4745E-07  0.1696E-02  0.1238E-03  0.1040E+02
   -0.849996   30.88592  0.7371E-13  0.1649E-04  0.4698E-07  0.1731E-02  0.1170E-03  0.1097E+02
   -0.899998   30.88650  0.7371E-13  0.1655E-04  0.4661E-07  0.1757E-02  0.1106E-03  0.1159E+02
   -0.949999   30.88706  0.7371E-13  0.1659E-04  0.4636E-07  0.1775E-02  0.1046E-03  0.1245E+02
   -1.000001   30.88761  0.7371E-13  0.1660E-04  0.4621E-07  0.1785E-02  0.9886E-04  0.1339E+02
   -1.050003   30.88816  0.7371E-13  0.1660E-04  0.4618E-07  0.1785E-02  0.9342E-04  0.1522E+02
   -1.100004   30.88870  0.7371E-13  0.1656E-04  0.4627E-07  0.1880E-02  0.8825E-04  0.5004E+02
   -1.150006   30.88921  0.7371E-13  0.1651E-04  0.4651E-07  0.1688E-02  0.8365E-04  0.1147E+03
   -1.200008   30.88977  0.7371E-13  0.1643E-04  0.4688E-07  0.1720E-02  0.7881E-04  0.2203E+02
   -1.250009   30.89032  0.7371E-13  0.1632E-04  0.4745E-07  0.1689E-02  0.7422E-04  0.2339E+02
   -1.300010   30.89088  0.7371E-13  0.1618E-04  0.4825E-07  0.1637E-02  0.6978E-04  0.2751E+02
   -1.350011   30.89145  0.7371E-13  0.1601E-04  0.4934E-07  0.1575E-02  0.6548E-04  0.3284E+02
   -1.400013   30.89205  0.7371E-13  0.1580E-04  0.5082E-07  0.1494E-02  0.6128E-04  0.4081E+02
   -1.450013   30.89267  0.7371E-13  0.1554E-04  0.5284E-07  0.1415E-02  0.5715E-04  0.5195E+02
   -1.500014   30.89334  0.7371E-13  0.1523E-04  0.5566E-07  0.1299E-02  0.5308E-04  0.7119E+02
   -1.550014   30.89406  0.7371E-13  0.1485E-04  0.5969E-07  0.1216E-02  0.4899E-04  0.1021E+03
   -1.600014   30.89485  0.7371E-13  0.1437E-04  0.6594E-07  0.1069E-02  0.4496E-04  0.2185E+03
   -1.650014   30.89583  0.7371E-13  0.1375E-04  0.7571E-07  0.9881E-03  0.4059E-04  0.7358E+04
   -1.700013   30.89695  0.7371E-13  0.1290E-04  0.9302E-07  0.8066E-03  0.3626E-04  0.8646E+06
   -1.750013   30.89896  0.7371E-13  0.1179E-04  0.1216E-06  0.7250E-03  0.3048E-04  0.2477E+06
   -1.800011   30.90061  0.7371E-13  0.1033E-04  0.1834E-06  0.5016E-03  0.2605E-04  0.8228E+06
   -1.850010   30.90746  0.7371E-13  0.8776E-05  0.2966E-06  0.4684E-03  0.1833E-04  0.2143E+08
   -1.900007   30.90577  0.7371E-13  0.6962E-05  0.6156E-06  0.2102E-03  0.1504E-04  0.1733E+07
   -1.950005   30.92685  0.7371E-13  0.4918E-05  0.1514E-05  0.2004E-03  0.7980E-05 -0.2774E+07
   -2.000002   30.92803  0.7371E-13  0.0000E+00  0.0000E+00  0.0000E+00  0.1533E-04  0.0000E+00
