 1 - depth, m
 2 - temperature, C
 3 - salinity, kg/kg
 4 - turbulent kinetic energy, m**2/s**2
 5 - dissipation rate, m**2/s**3
 6 - kinematic heat conductance, m**2/s
 7 - modulus of horizontal velocity, m/s
 8 - Richardson number, n/d
   -0.000000   31.04023  0.5139E-13  0.5501E-05  0.3689E-06  0.5398E-04  0.1626E-02  0.5676E+04
   -0.049997   31.07549  0.5139E-13  0.9322E-05  0.1648E-06  0.1845E-03  0.9396E-03  0.2485E+03
   -0.099994   31.08930  0.5139E-13  0.1131E-04  0.1129E-06  0.4139E-03  0.6912E-03  0.2003E+02
   -0.149992   31.09312  0.5139E-13  0.1256E-04  0.9439E-07  0.4948E-03  0.6115E-03  0.9890E+01
   -0.199990   31.09616  0.5139E-13  0.1352E-04  0.8357E-07  0.6652E-03  0.5467E-03  0.6294E+01
   -0.249989   31.09835  0.5139E-13  0.1428E-04  0.7650E-07  0.7945E-03  0.4985E-03  0.4645E+01
   -0.299988   31.10013  0.5139E-13  0.1489E-04  0.7145E-07  0.9251E-03  0.4584E-03  0.3680E+01
   -0.349988   31.10162  0.5139E-13  0.1540E-04  0.6766E-07  0.1042E-02  0.4240E-03  0.3145E+01
   -0.399987   31.10290  0.5139E-13  0.1581E-04  0.6471E-07  0.1150E-02  0.3936E-03  0.2793E+01
   -0.449987   31.10404  0.5139E-13  0.1617E-04  0.6230E-07  0.1249E-02  0.3669E-03  0.2622E+01
   -0.499988   31.10506  0.5139E-13  0.1648E-04  0.6030E-07  0.1339E-02  0.3432E-03  0.2543E+01
   -0.549988   31.10600  0.5139E-13  0.1674E-04  0.5861E-07  0.1422E-02  0.3219E-03  0.2511E+01
   -0.599989   31.10686  0.5139E-13  0.1695E-04  0.5719E-07  0.1496E-02  0.3027E-03  0.2503E+01
   -0.649990   31.10767  0.5139E-13  0.1713E-04  0.5597E-07  0.1562E-02  0.2852E-03  0.2537E+01
   -0.699991   31.10843  0.5139E-13  0.1728E-04  0.5493E-07  0.1620E-02  0.2690E-03  0.2586E+01
   -0.749993   31.10915  0.5139E-13  0.1740E-04  0.5405E-07  0.1669E-02  0.2540E-03  0.2674E+01
   -0.799994   31.10983  0.5139E-13  0.1749E-04  0.5332E-07  0.1711E-02  0.2401E-03  0.2779E+01
   -0.849995   31.11050  0.5139E-13  0.1755E-04  0.5271E-07  0.1743E-02  0.2271E-03  0.2928E+01
   -0.899997   31.11113  0.5139E-13  0.1759E-04  0.5223E-07  0.1767E-02  0.2149E-03  0.3098E+01
   -0.949999   31.11176  0.5139E-13  0.1759E-04  0.5188E-07  0.1782E-02  0.2033E-03  0.3327E+01
   -1.000000   31.11237  0.5139E-13  0.1758E-04  0.5165E-07  0.1788E-02  0.1923E-03  0.3590E+01
   -1.050002   31.11297  0.5139E-13  0.1753E-04  0.5155E-07  0.1782E-02  0.1819E-03  0.4077E+01
   -1.100004   31.11356  0.5139E-13  0.1746E-04  0.5160E-07  0.1901E-02  0.1719E-03  0.1299E+02
   -1.150005   31.11411  0.5139E-13  0.1737E-04  0.5184E-07  0.1645E-02  0.1632E-03  0.3335E+02
   -1.200007   31.11475  0.5139E-13  0.1724E-04  0.5224E-07  0.1697E-02  0.1537E-03  0.6090E+01
   -1.250008   31.11535  0.5139E-13  0.1708E-04  0.5288E-07  0.1663E-02  0.1448E-03  0.6469E+01
   -1.300010   31.11597  0.5139E-13  0.1688E-04  0.5381E-07  0.1601E-02  0.1362E-03  0.7703E+01
   -1.350011   31.11660  0.5139E-13  0.1664E-04  0.5513E-07  0.1535E-02  0.1278E-03  0.9374E+01
   -1.400012   31.11726  0.5139E-13  0.1636E-04  0.5697E-07  0.1440E-02  0.1196E-03  0.1198E+02
   -1.450013   31.11796  0.5139E-13  0.1602E-04  0.5958E-07  0.1363E-02  0.1114E-03  0.1577E+02
   -1.500013   31.11870  0.5139E-13  0.1560E-04  0.6335E-07  0.1232E-02  0.1034E-03  0.2299E+02
   -1.550013   31.11954  0.5139E-13  0.1510E-04  0.6887E-07  0.1165E-02  0.9523E-04  0.3589E+02
   -1.600013   31.12044  0.5139E-13  0.1446E-04  0.7820E-07  0.1004E-02  0.8731E-04  0.2377E+03
   -1.650013   31.12174  0.5139E-13  0.1361E-04  0.9284E-07  0.9334E-03  0.7786E-04  0.1228E+05
   -1.700013   31.12311  0.5139E-13  0.1245E-04  0.1194E-06  0.7394E-03  0.6887E-04  0.2397E+05
   -1.750012   31.12605  0.5139E-13  0.1108E-04  0.1617E-06  0.6771E-03  0.5558E-04  0.4111E+06
   -1.800010   31.12735  0.5139E-13  0.9453E-05  0.2556E-06  0.4424E-03  0.4798E-04  0.3404E+05
   -1.850009   31.13850  0.5139E-13  0.7876E-05  0.4350E-06  0.4412E-03  0.3098E-04  0.2072E+08
   -1.900006   31.13256  0.5139E-13  0.6280E-05  0.9151E-06  0.2092E-03  0.2629E-04 -0.9853E+07
   -1.950004   31.15860  0.5139E-13  0.4556E-05  0.2138E-05  0.2377E-03  0.1323E-04 -0.1534E+06
   -2.000001   31.15691  0.5139E-13  0.0000E+00  0.0000E+00  0.0000E+00  0.2987E-04  0.0000E+00
