 1 - depth, m
 2 - temperature, C
 3 - salinity, kg/kg
 4 - turbulent kinetic energy, m**2/s**2
 5 - dissipation rate, m**2/s**3
 6 - kinematic heat conductance, m**2/s
 7 - modulus of horizontal velocity, m/s
 8 - Richardson number, n/d
   -0.000000   30.39311  0.3796E-13  0.4748E-05  0.2917E-06  0.5016E-04  0.1646E-02  0.5470E+04
   -0.049997   30.42289  0.3796E-13  0.8096E-05  0.1301E-06  0.1740E-03  0.9423E-03  0.4594E+04
   -0.099994   30.43446  0.3796E-13  0.9817E-05  0.8933E-07  0.3937E-03  0.6881E-03  0.1829E+02
   -0.149992   30.43767  0.3796E-13  0.1089E-04  0.7492E-07  0.4728E-03  0.6073E-03  0.8907E+01
   -0.199991   30.44022  0.3796E-13  0.1172E-04  0.6647E-07  0.6316E-03  0.5419E-03  0.5716E+01
   -0.249989   30.44208  0.3796E-13  0.1238E-04  0.6091E-07  0.7551E-03  0.4929E-03  0.4216E+01
   -0.299989   30.44359  0.3796E-13  0.1292E-04  0.5694E-07  0.8780E-03  0.4521E-03  0.3347E+01
   -0.349988   30.44485  0.3796E-13  0.1336E-04  0.5396E-07  0.9894E-03  0.4172E-03  0.2862E+01
   -0.399988   30.44594  0.3796E-13  0.1373E-04  0.5163E-07  0.1091E-02  0.3864E-03  0.2545E+01
   -0.449988   30.44691  0.3796E-13  0.1405E-04  0.4973E-07  0.1186E-02  0.3592E-03  0.2392E+01
   -0.499988   30.44778  0.3796E-13  0.1432E-04  0.4815E-07  0.1273E-02  0.3353E-03  0.2323E+01
   -0.549989   30.44857  0.3796E-13  0.1456E-04  0.4682E-07  0.1352E-02  0.3138E-03  0.2295E+01
   -0.599990   30.44931  0.3796E-13  0.1476E-04  0.4569E-07  0.1425E-02  0.2944E-03  0.2290E+01
   -0.649991   30.45000  0.3796E-13  0.1493E-04  0.4473E-07  0.1490E-02  0.2767E-03  0.2322E+01
   -0.699992   30.45064  0.3796E-13  0.1508E-04  0.4391E-07  0.1547E-02  0.2604E-03  0.2367E+01
   -0.749993   30.45125  0.3796E-13  0.1519E-04  0.4322E-07  0.1597E-02  0.2454E-03  0.2448E+01
   -0.799995   30.45184  0.3796E-13  0.1529E-04  0.4264E-07  0.1640E-02  0.2315E-03  0.2542E+01
   -0.849996   30.45240  0.3796E-13  0.1536E-04  0.4215E-07  0.1675E-02  0.2185E-03  0.2675E+01
   -0.899998   30.45294  0.3796E-13  0.1541E-04  0.4177E-07  0.1702E-02  0.2063E-03  0.2825E+01
   -0.950000   30.45346  0.3796E-13  0.1544E-04  0.4148E-07  0.1721E-02  0.1948E-03  0.3026E+01
   -1.000001   30.45398  0.3796E-13  0.1545E-04  0.4128E-07  0.1732E-02  0.1839E-03  0.3254E+01
   -1.050003   30.45448  0.3796E-13  0.1543E-04  0.4118E-07  0.1734E-02  0.1736E-03  0.3688E+01
   -1.100005   30.45498  0.3796E-13  0.1540E-04  0.4118E-07  0.1817E-02  0.1638E-03  0.1219E+02
   -1.150007   30.45546  0.3796E-13  0.1535E-04  0.4131E-07  0.1657E-02  0.1550E-03  0.2761E+02
   -1.200008   30.45597  0.3796E-13  0.1527E-04  0.4156E-07  0.1680E-02  0.1460E-03  0.5302E+01
   -1.250010   30.45647  0.3796E-13  0.1517E-04  0.4197E-07  0.1651E-02  0.1373E-03  0.5618E+01
   -1.300011   30.45698  0.3796E-13  0.1504E-04  0.4257E-07  0.1603E-02  0.1289E-03  0.6570E+01
   -1.350012   30.45749  0.3796E-13  0.1488E-04  0.4340E-07  0.1546E-02  0.1209E-03  0.7825E+01
   -1.400013   30.45803  0.3796E-13  0.1468E-04  0.4455E-07  0.1472E-02  0.1130E-03  0.9658E+01
   -1.450014   30.45859  0.3796E-13  0.1445E-04  0.4614E-07  0.1397E-02  0.1053E-03  0.1224E+02
   -1.500015   30.45917  0.3796E-13  0.1417E-04  0.4835E-07  0.1287E-02  0.9776E-04  0.1659E+02
   -1.550015   30.45981  0.3796E-13  0.1383E-04  0.5150E-07  0.1206E-02  0.9018E-04  0.2342E+02
   -1.600015   30.46050  0.3796E-13  0.1341E-04  0.5637E-07  0.1061E-02  0.8278E-04  0.4566E+02
   -1.650015   30.46133  0.3796E-13  0.1287E-04  0.6390E-07  0.9865E-03  0.7484E-04  0.1429E+04
   -1.700014   30.46225  0.3796E-13  0.1214E-04  0.7749E-07  0.8024E-03  0.6719E-04  0.1321E+04
   -1.750013   30.46390  0.3796E-13  0.1115E-04  0.9992E-07  0.7280E-03  0.5694E-04  0.3570E+05
   -1.800012   30.46525  0.3796E-13  0.9843E-05  0.1470E-06  0.5083E-03  0.4897E-04  0.2490E+05
   -1.850011   30.47074  0.3796E-13  0.8351E-05  0.2355E-06  0.4653E-03  0.3517E-04  0.3548E+09
   -1.900008   30.46974  0.3796E-13  0.6605E-05  0.4888E-06  0.2099E-03  0.2865E-04 -0.1366E+06
   -1.950006   30.48686  0.3796E-13  0.4586E-05  0.1235E-05  0.1831E-03  0.1544E-04 -0.5922E+06
   -2.000003   30.48864  0.3796E-13  0.0000E+00  0.0000E+00  0.0000E+00  0.2805E-04  0.0000E+00
