 1 - depth, m
 2 - temperature, C
 3 - salinity, kg/kg
 4 - turbulent kinetic energy, m**2/s**2
 5 - dissipation rate, m**2/s**3
 6 - kinematic heat conductance, m**2/s
 7 - modulus of horizontal velocity, m/s
 8 - Richardson number, n/d
   -0.000000   29.37665  0.5895E-13  0.4175E-05  0.2408E-06  0.4744E-04  0.1333E-02  0.1627E+05
   -0.049997   29.40246  0.5895E-13  0.7243E-05  0.1069E-06  0.1671E-03  0.7575E-03  0.4224E+04
   -0.099994   29.41263  0.5895E-13  0.8804E-05  0.7358E-07  0.3868E-03  0.5476E-03  0.2458E+02
   -0.149992   29.41534  0.5895E-13  0.9773E-05  0.6204E-07  0.4631E-03  0.4834E-03  0.1186E+02
   -0.199991   29.41753  0.5895E-13  0.1053E-04  0.5527E-07  0.6166E-03  0.4311E-03  0.7688E+01
   -0.249989   29.41913  0.5895E-13  0.1114E-04  0.5083E-07  0.7370E-03  0.3918E-03  0.5686E+01
   -0.299989   29.42044  0.5895E-13  0.1164E-04  0.4767E-07  0.8560E-03  0.3591E-03  0.4548E+01
   -0.349988   29.42154  0.5895E-13  0.1206E-04  0.4531E-07  0.9642E-03  0.3311E-03  0.3898E+01
   -0.399988   29.42250  0.5895E-13  0.1241E-04  0.4348E-07  0.1063E-02  0.3063E-03  0.3488E+01
   -0.449988   29.42335  0.5895E-13  0.1272E-04  0.4201E-07  0.1156E-02  0.2845E-03  0.3278E+01
   -0.499988   29.42412  0.5895E-13  0.1299E-04  0.4080E-07  0.1241E-02  0.2652E-03  0.3200E+01
   -0.549989   29.42483  0.5895E-13  0.1323E-04  0.3979E-07  0.1319E-02  0.2480E-03  0.3161E+01
   -0.599990   29.42548  0.5895E-13  0.1344E-04  0.3896E-07  0.1390E-02  0.2324E-03  0.3176E+01
   -0.649991   29.42609  0.5895E-13  0.1362E-04  0.3826E-07  0.1454E-02  0.2183E-03  0.3220E+01
   -0.699992   29.42667  0.5895E-13  0.1378E-04  0.3769E-07  0.1511E-02  0.2053E-03  0.3309E+01
   -0.749993   29.42722  0.5895E-13  0.1392E-04  0.3721E-07  0.1561E-02  0.1933E-03  0.3423E+01
   -0.799995   29.42775  0.5895E-13  0.1404E-04  0.3684E-07  0.1603E-02  0.1821E-03  0.3584E+01
   -0.849997   29.42826  0.5895E-13  0.1413E-04  0.3655E-07  0.1639E-02  0.1717E-03  0.3775E+01
   -0.899998   29.42876  0.5895E-13  0.1421E-04  0.3634E-07  0.1667E-02  0.1620E-03  0.4022E+01
   -0.950000   29.42924  0.5895E-13  0.1427E-04  0.3622E-07  0.1687E-02  0.1528E-03  0.4310E+01
   -1.000002   29.42972  0.5895E-13  0.1432E-04  0.3617E-07  0.1700E-02  0.1441E-03  0.4673E+01
   -1.050003   29.43019  0.5895E-13  0.1434E-04  0.3622E-07  0.1704E-02  0.1359E-03  0.5313E+01
   -1.100005   29.43066  0.5895E-13  0.1435E-04  0.3635E-07  0.1772E-02  0.1281E-03  0.1805E+02
   -1.150007   29.43111  0.5895E-13  0.1434E-04  0.3659E-07  0.1653E-02  0.1211E-03  0.3848E+02
   -1.200008   29.43159  0.5895E-13  0.1431E-04  0.3693E-07  0.1661E-02  0.1140E-03  0.7616E+01
   -1.250010   29.43207  0.5895E-13  0.1425E-04  0.3741E-07  0.1634E-02  0.1071E-03  0.8169E+01
   -1.300011   29.43255  0.5895E-13  0.1418E-04  0.3805E-07  0.1592E-02  0.1006E-03  0.9511E+01
   -1.350012   29.43305  0.5895E-13  0.1407E-04  0.3889E-07  0.1539E-02  0.9417E-04  0.1133E+02
   -1.400014   29.43357  0.5895E-13  0.1394E-04  0.3999E-07  0.1473E-02  0.8799E-04  0.1382E+02
   -1.450014   29.43411  0.5895E-13  0.1377E-04  0.4144E-07  0.1400E-02  0.8194E-04  0.1739E+02
   -1.500015   29.43468  0.5895E-13  0.1357E-04  0.4338E-07  0.1302E-02  0.7602E-04  0.2293E+02
   -1.550015   29.43530  0.5895E-13  0.1331E-04  0.4606E-07  0.1216E-02  0.7013E-04  0.3165E+02
   -1.600015   29.43597  0.5895E-13  0.1299E-04  0.4996E-07  0.1085E-02  0.6435E-04  0.5065E+02
   -1.650015   29.43675  0.5895E-13  0.1257E-04  0.5582E-07  0.9983E-03  0.5835E-04  0.1193E+03
   -1.700015   29.43763  0.5895E-13  0.1201E-04  0.6601E-07  0.8310E-03  0.5248E-04 -0.9338E+02
   -1.750014   29.43901  0.5895E-13  0.1123E-04  0.8300E-07  0.7426E-03  0.4530E-04  0.7876E+05
   -1.800013   29.44044  0.5895E-13  0.1013E-04  0.1177E-06  0.5333E-03  0.3890E-04  0.1182E+05
   -1.850011   29.44453  0.5895E-13  0.8784E-05  0.1821E-06  0.4760E-03  0.2925E-04  0.1415E+07
   -1.900009   29.44500  0.5895E-13  0.7030E-05  0.3709E-06  0.2171E-03  0.2352E-04  0.2830E+06
   -1.950006   29.46038  0.5895E-13  0.4803E-05  0.9674E-06  0.1590E-03  0.1317E-04 -0.8067E+06
   -2.000003   29.46522  0.5895E-13  0.0000E+00  0.0000E+00  0.0000E+00  0.2158E-04  0.0000E+00
