 1 - depth, m
 2 - temperature, C
 3 - salinity, kg/kg
 4 - turbulent kinetic energy, m**2/s**2
 5 - dissipation rate, m**2/s**3
 6 - kinematic heat conductance, m**2/s
 7 - modulus of horizontal velocity, m/s
 8 - Richardson number, n/d
   -0.000000   30.46614  0.1984E-14  0.5016E-05  0.3195E-06  0.5172E-04  0.1669E-02  0.9074E+04
   -0.049997   30.49760  0.1984E-14  0.8539E-05  0.1426E-06  0.1781E-03  0.9597E-03  0.1047E+04
   -0.099994   30.50996  0.1984E-14  0.1037E-04  0.9777E-07  0.4024E-03  0.7032E-03  0.1731E+02
   -0.149992   30.51337  0.1984E-14  0.1152E-04  0.8190E-07  0.4827E-03  0.6214E-03  0.8485E+01
   -0.199991   30.51608  0.1984E-14  0.1241E-04  0.7262E-07  0.6473E-03  0.5550E-03  0.5424E+01
   -0.249989   30.51805  0.1984E-14  0.1311E-04  0.6656E-07  0.7738E-03  0.5054E-03  0.3996E+01
   -0.299988   30.51965  0.1984E-14  0.1369E-04  0.6224E-07  0.9007E-03  0.4642E-03  0.3176E+01
   -0.349988   30.52099  0.1984E-14  0.1416E-04  0.5901E-07  0.1015E-02  0.4289E-03  0.2712E+01
   -0.399988   30.52215  0.1984E-14  0.1456E-04  0.5650E-07  0.1120E-02  0.3977E-03  0.2416E+01
   -0.449988   30.52317  0.1984E-14  0.1491E-04  0.5445E-07  0.1217E-02  0.3703E-03  0.2265E+01
   -0.499988   30.52410  0.1984E-14  0.1520E-04  0.5276E-07  0.1306E-02  0.3460E-03  0.2203E+01
   -0.549989   30.52495  0.1984E-14  0.1546E-04  0.5135E-07  0.1388E-02  0.3243E-03  0.2171E+01
   -0.599989   30.52573  0.1984E-14  0.1568E-04  0.5016E-07  0.1462E-02  0.3046E-03  0.2173E+01
   -0.649991   30.52647  0.1984E-14  0.1586E-04  0.4915E-07  0.1528E-02  0.2866E-03  0.2197E+01
   -0.699992   30.52716  0.1984E-14  0.1602E-04  0.4830E-07  0.1586E-02  0.2701E-03  0.2249E+01
   -0.749993   30.52781  0.1984E-14  0.1615E-04  0.4758E-07  0.1636E-02  0.2549E-03  0.2320E+01
   -0.799995   30.52844  0.1984E-14  0.1625E-04  0.4699E-07  0.1679E-02  0.2407E-03  0.2419E+01
   -0.849996   30.52904  0.1984E-14  0.1633E-04  0.4651E-07  0.1713E-02  0.2274E-03  0.2542E+01
   -0.899998   30.52963  0.1984E-14  0.1638E-04  0.4614E-07  0.1740E-02  0.2149E-03  0.2698E+01
   -0.949999   30.53020  0.1984E-14  0.1642E-04  0.4587E-07  0.1757E-02  0.2032E-03  0.2887E+01
   -1.000001   30.53075  0.1984E-14  0.1643E-04  0.4572E-07  0.1767E-02  0.1921E-03  0.3122E+01
   -1.050003   30.53130  0.1984E-14  0.1641E-04  0.4567E-07  0.1766E-02  0.1815E-03  0.3536E+01
   -1.100005   30.53185  0.1984E-14  0.1638E-04  0.4575E-07  0.1862E-02  0.1714E-03  0.1161E+02
   -1.150006   30.53236  0.1984E-14  0.1632E-04  0.4597E-07  0.1666E-02  0.1625E-03  0.2731E+02
   -1.200008   30.53293  0.1984E-14  0.1623E-04  0.4634E-07  0.1700E-02  0.1531E-03  0.5164E+01
   -1.250009   30.53349  0.1984E-14  0.1612E-04  0.4689E-07  0.1668E-02  0.1441E-03  0.5509E+01
   -1.300011   30.53405  0.1984E-14  0.1597E-04  0.4768E-07  0.1615E-02  0.1355E-03  0.6471E+01
   -1.350012   30.53463  0.1984E-14  0.1580E-04  0.4876E-07  0.1553E-02  0.1271E-03  0.7801E+01
   -1.400013   30.53522  0.1984E-14  0.1558E-04  0.5024E-07  0.1471E-02  0.1189E-03  0.9718E+01
   -1.450014   30.53585  0.1984E-14  0.1531E-04  0.5227E-07  0.1392E-02  0.1109E-03  0.1254E+02
   -1.500014   30.53652  0.1984E-14  0.1499E-04  0.5512E-07  0.1276E-02  0.1030E-03  0.1733E+02
   -1.550015   30.53726  0.1984E-14  0.1460E-04  0.5921E-07  0.1193E-02  0.9496E-04  0.2545E+02
   -1.600015   30.53806  0.1984E-14  0.1410E-04  0.6560E-07  0.1047E-02  0.8713E-04  0.8706E+03
   -1.650014   30.53906  0.1984E-14  0.1346E-04  0.7567E-07  0.9695E-03  0.7856E-04  0.1121E+05
   -1.700014   30.54022  0.1984E-14  0.1258E-04  0.9363E-07  0.7868E-03  0.7007E-04  0.6443E+04
   -1.750013   30.54230  0.1984E-14  0.1145E-04  0.1227E-06  0.7110E-03  0.5867E-04  0.1577E+06
   -1.800012   30.54386  0.1984E-14  0.9959E-05  0.1873E-06  0.4846E-03  0.5031E-04  0.1035E+06
   -1.850010   30.55151  0.1984E-14  0.8379E-05  0.3066E-06  0.4593E-03  0.3478E-04  0.5136E+08
   -1.900008   30.54906  0.1984E-14  0.6638E-05  0.6420E-06  0.2096E-03  0.2860E-04  0.5368E+05
   -1.950005   30.57066  0.1984E-14  0.4708E-05  0.1583E-05  0.2028E-03  0.1502E-04 -0.1205E+07
   -2.000002   30.57178  0.1984E-14  0.0000E+00  0.0000E+00  0.0000E+00  0.2954E-04  0.0000E+00
