 1 - depth, m
 2 - temperature, C
 3 - salinity, kg/kg
 4 - turbulent kinetic energy, m**2/s**2
 5 - dissipation rate, m**2/s**3
 6 - kinematic heat conductance, m**2/s
 7 - modulus of horizontal velocity, m/s
 8 - Richardson number, n/d
   -0.000000   30.80512  0.1756E-13  0.5432E-05  0.3316E-06  0.5306E-04  0.2801E-02  0.1838E+04
   -0.049997   30.83719  0.1756E-13  0.8947E-05  0.1455E-06  0.1952E-03  0.1539E-02  0.3681E+04
   -0.099994   30.84801  0.1756E-13  0.1066E-04  0.1017E-06  0.3963E-03  0.1181E-02  0.7305E+01
   -0.149992   30.85154  0.1756E-13  0.1176E-04  0.8526E-07  0.4883E-03  0.1048E-02  0.3689E+01
   -0.199991   30.85427  0.1756E-13  0.1263E-04  0.7567E-07  0.6399E-03  0.9429E-03  0.2393E+01
   -0.249989   30.85629  0.1756E-13  0.1332E-04  0.6938E-07  0.7596E-03  0.8627E-03  0.1809E+01
   -0.299988   30.85795  0.1756E-13  0.1390E-04  0.6484E-07  0.8771E-03  0.7949E-03  0.1529E+01
   -0.349988   30.85934  0.1756E-13  0.1439E-04  0.6131E-07  0.9935E-03  0.7338E-03  0.1434E+01
   -0.399988   30.86054  0.1756E-13  0.1483E-04  0.5845E-07  0.1111E-02  0.6765E-03  0.1374E+01
   -0.449988   30.86159  0.1756E-13  0.1522E-04  0.5607E-07  0.1224E-02  0.6240E-03  0.1353E+01
   -0.499988   30.86252  0.1756E-13  0.1556E-04  0.5407E-07  0.1331E-02  0.5768E-03  0.1343E+01
   -0.549989   30.86336  0.1756E-13  0.1585E-04  0.5240E-07  0.1429E-02  0.5343E-03  0.1339E+01
   -0.599989   30.86413  0.1756E-13  0.1610E-04  0.5099E-07  0.1517E-02  0.4960E-03  0.1331E+01
   -0.649990   30.86485  0.1756E-13  0.1630E-04  0.4981E-07  0.1595E-02  0.4613E-03  0.1331E+01
   -0.699992   30.86551  0.1756E-13  0.1647E-04  0.4882E-07  0.1663E-02  0.4300E-03  0.1325E+01
   -0.749993   30.86614  0.1756E-13  0.1660E-04  0.4801E-07  0.1718E-02  0.4016E-03  0.1330E+01
   -0.799994   30.86674  0.1756E-13  0.1670E-04  0.4735E-07  0.1763E-02  0.3758E-03  0.1330E+01
   -0.849996   30.86732  0.1756E-13  0.1676E-04  0.4683E-07  0.1797E-02  0.3523E-03  0.1346E+01
   -0.899998   30.86787  0.1756E-13  0.1680E-04  0.4644E-07  0.1820E-02  0.3309E-03  0.1359E+01
   -0.949999   30.86842  0.1756E-13  0.1681E-04  0.4617E-07  0.1832E-02  0.3114E-03  0.1398E+01
   -1.000001   30.86895  0.1756E-13  0.1680E-04  0.4601E-07  0.1836E-02  0.2934E-03  0.1446E+01
   -1.050003   30.86948  0.1756E-13  0.1676E-04  0.4597E-07  0.1828E-02  0.2768E-03  0.1584E+01
   -1.100005   30.87000  0.1756E-13  0.1670E-04  0.4604E-07  0.1949E-02  0.2615E-03  0.4952E+01
   -1.150006   30.87048  0.1756E-13  0.1662E-04  0.4627E-07  0.1691E-02  0.2483E-03  0.1206E+02
   -1.200008   30.87104  0.1756E-13  0.1651E-04  0.4663E-07  0.1746E-02  0.2340E-03  0.2247E+01
   -1.250009   30.87157  0.1756E-13  0.1638E-04  0.4719E-07  0.1713E-02  0.2206E-03  0.2374E+01
   -1.300011   30.87210  0.1756E-13  0.1621E-04  0.4798E-07  0.1654E-02  0.2076E-03  0.2802E+01
   -1.350012   30.87265  0.1756E-13  0.1601E-04  0.4908E-07  0.1588E-02  0.1951E-03  0.3359E+01
   -1.400013   30.87322  0.1756E-13  0.1576E-04  0.5059E-07  0.1500E-02  0.1827E-03  0.4214E+01
   -1.450014   30.87383  0.1756E-13  0.1547E-04  0.5268E-07  0.1418E-02  0.1705E-03  0.5417E+01
   -1.500014   30.87446  0.1756E-13  0.1512E-04  0.5563E-07  0.1294E-02  0.1585E-03  0.7577E+01
   -1.550014   30.87517  0.1756E-13  0.1470E-04  0.5988E-07  0.1213E-02  0.1463E-03  0.1117E+02
   -1.600015   30.87593  0.1756E-13  0.1417E-04  0.6668E-07  0.1059E-02  0.1344E-03  0.2776E+02
   -1.650014   30.87692  0.1756E-13  0.1349E-04  0.7738E-07  0.9814E-03  0.1210E-03  0.2358E+05
   -1.700014   30.87803  0.1756E-13  0.1255E-04  0.9649E-07  0.7920E-03  0.1080E-03  0.1183E+05
   -1.750013   30.88012  0.1756E-13  0.1137E-04  0.1274E-06  0.7142E-03  0.8995E-04  0.1472E+06
   -1.800012   30.88158  0.1756E-13  0.9852E-05  0.1939E-06  0.4881E-03  0.7716E-04  0.6201E+03
   -1.850010   30.88914  0.1756E-13  0.8281E-05  0.3188E-06  0.4583E-03  0.5321E-04  0.8730E+07
   -1.900008   30.88636  0.1756E-13  0.6548E-05  0.6667E-06  0.2092E-03  0.4392E-04 -0.4363E+05
   -1.950005   30.90718  0.1756E-13  0.4649E-05  0.1612E-05  0.2095E-03  0.2299E-04 -0.1788E+06
   -2.000002   30.90680  0.1756E-13  0.0000E+00  0.0000E+00  0.0000E+00  0.4616E-04  0.0000E+00
