 1 - depth, m
 2 - temperature, C
 3 - salinity, kg/kg
 4 - turbulent kinetic energy, m**2/s**2
 5 - dissipation rate, m**2/s**3
 6 - kinematic heat conductance, m**2/s
 7 - modulus of horizontal velocity, m/s
 8 - Richardson number, n/d
   -0.000000   30.95050  0.1197E-14  0.5275E-05  0.3391E-06  0.5309E-04  0.2058E-02  0.6911E+04
   -0.049997   30.98250  0.1197E-14  0.8879E-05  0.1506E-06  0.1841E-03  0.1166E-02  0.7405E+03
   -0.099994   30.99469  0.1197E-14  0.1074E-04  0.1036E-06  0.4049E-03  0.8651E-03  0.1242E+02
   -0.149992   30.99819  0.1197E-14  0.1191E-04  0.8661E-07  0.4895E-03  0.7643E-03  0.6157E+01
   -0.199991   31.00096  0.1197E-14  0.1283E-04  0.7672E-07  0.6548E-03  0.6832E-03  0.3930E+01
   -0.249989   31.00297  0.1197E-14  0.1356E-04  0.7027E-07  0.7832E-03  0.6225E-03  0.2902E+01
   -0.299988   31.00460  0.1197E-14  0.1415E-04  0.6568E-07  0.9117E-03  0.5720E-03  0.2301E+01
   -0.349988   31.00597  0.1197E-14  0.1464E-04  0.6225E-07  0.1027E-02  0.5288E-03  0.1971E+01
   -0.399988   31.00715  0.1197E-14  0.1506E-04  0.5958E-07  0.1133E-02  0.4906E-03  0.1757E+01
   -0.449988   31.00821  0.1197E-14  0.1542E-04  0.5741E-07  0.1232E-02  0.4568E-03  0.1665E+01
   -0.499988   31.00915  0.1197E-14  0.1572E-04  0.5561E-07  0.1324E-02  0.4268E-03  0.1622E+01
   -0.549988   31.01002  0.1197E-14  0.1599E-04  0.5410E-07  0.1409E-02  0.3998E-03  0.1608E+01
   -0.599989   31.01082  0.1197E-14  0.1622E-04  0.5283E-07  0.1486E-02  0.3753E-03  0.1600E+01
   -0.649990   31.01156  0.1197E-14  0.1642E-04  0.5176E-07  0.1555E-02  0.3530E-03  0.1617E+01
   -0.699991   31.01227  0.1197E-14  0.1659E-04  0.5086E-07  0.1615E-02  0.3326E-03  0.1638E+01
   -0.749993   31.01293  0.1197E-14  0.1672E-04  0.5011E-07  0.1666E-02  0.3137E-03  0.1686E+01
   -0.799994   31.01357  0.1197E-14  0.1683E-04  0.4950E-07  0.1709E-02  0.2963E-03  0.1742E+01
   -0.849996   31.01419  0.1197E-14  0.1691E-04  0.4900E-07  0.1744E-02  0.2801E-03  0.1833E+01
   -0.899997   31.01478  0.1197E-14  0.1697E-04  0.4862E-07  0.1770E-02  0.2649E-03  0.1934E+01
   -0.949999   31.01536  0.1197E-14  0.1701E-04  0.4836E-07  0.1788E-02  0.2505E-03  0.2077E+01
   -1.000001   31.01593  0.1197E-14  0.1702E-04  0.4821E-07  0.1797E-02  0.2370E-03  0.2233E+01
   -1.050003   31.01649  0.1197E-14  0.1701E-04  0.4818E-07  0.1796E-02  0.2240E-03  0.2538E+01
   -1.100004   31.01705  0.1197E-14  0.1697E-04  0.4828E-07  0.1896E-02  0.2117E-03  0.8278E+01
   -1.150006   31.01758  0.1197E-14  0.1691E-04  0.4854E-07  0.1692E-02  0.2008E-03  0.1948E+02
   -1.200007   31.01816  0.1197E-14  0.1683E-04  0.4895E-07  0.1728E-02  0.1892E-03  0.3695E+01
   -1.250009   31.01873  0.1197E-14  0.1671E-04  0.4956E-07  0.1696E-02  0.1783E-03  0.3919E+01
   -1.300010   31.01931  0.1197E-14  0.1656E-04  0.5041E-07  0.1642E-02  0.1677E-03  0.4619E+01
   -1.350011   31.01990  0.1197E-14  0.1638E-04  0.5159E-07  0.1579E-02  0.1574E-03  0.5538E+01
   -1.400012   31.02051  0.1197E-14  0.1616E-04  0.5319E-07  0.1496E-02  0.1474E-03  0.6922E+01
   -1.450013   31.02116  0.1197E-14  0.1588E-04  0.5539E-07  0.1415E-02  0.1375E-03  0.8898E+01
   -1.500014   31.02185  0.1197E-14  0.1555E-04  0.5848E-07  0.1298E-02  0.1277E-03  0.1236E+02
   -1.550014   31.02262  0.1197E-14  0.1514E-04  0.6292E-07  0.1215E-02  0.1179E-03  0.1829E+02
   -1.600014   31.02344  0.1197E-14  0.1463E-04  0.6991E-07  0.1068E-02  0.1082E-03  0.4030E+02
   -1.650014   31.02450  0.1197E-14  0.1397E-04  0.8087E-07  0.9855E-03  0.9755E-04  0.3293E+03
   -1.700013   31.02571  0.1197E-14  0.1305E-04  0.1001E-06  0.8024E-03  0.8699E-04  0.1675E+05
   -1.750012   31.02788  0.1197E-14  0.1190E-04  0.1313E-06  0.7252E-03  0.7288E-04  0.4977E+05
   -1.800011   31.02940  0.1197E-14  0.1040E-04  0.1993E-06  0.4992E-03  0.6275E-04  0.8815E+03
   -1.850009   31.03735  0.1197E-14  0.8822E-05  0.3280E-06  0.4681E-03  0.4372E-04  0.3614E+08
   -1.900007   31.03481  0.1197E-14  0.6995E-05  0.6842E-06  0.2150E-03  0.3602E-04 -0.5946E+03
   -1.950005   31.05730  0.1197E-14  0.4954E-05  0.1664E-05  0.2071E-03  0.1903E-04 -0.5425E+06
   -2.000002   31.05795  0.1197E-14  0.0000E+00  0.0000E+00  0.0000E+00  0.3696E-04  0.0000E+00
