 1 - depth, m
 2 - temperature, C
 3 - salinity, kg/kg
 4 - turbulent kinetic energy, m**2/s**2
 5 - dissipation rate, m**2/s**3
 6 - kinematic heat conductance, m**2/s
 7 - modulus of horizontal velocity, m/s
 8 - Richardson number, n/d
   -0.000000   30.22169  0.2193E-14  0.4808E-05  0.2860E-06  0.5015E-04  0.2213E-02  0.4305E+04
   -0.049997   30.25060  0.2193E-14  0.8094E-05  0.1268E-06  0.1809E-03  0.1229E-02  0.3681E+03
   -0.099994   30.26090  0.2193E-14  0.9737E-05  0.8805E-07  0.3874E-03  0.9194E-03  0.9671E+01
   -0.149992   30.26406  0.2193E-14  0.1079E-04  0.7379E-07  0.4750E-03  0.8103E-03  0.4801E+01
   -0.199991   30.26652  0.2193E-14  0.1161E-04  0.6547E-07  0.6295E-03  0.7239E-03  0.3092E+01
   -0.249989   30.26832  0.2193E-14  0.1226E-04  0.6002E-07  0.7537E-03  0.6586E-03  0.2284E+01
   -0.299988   30.26979  0.2193E-14  0.1280E-04  0.5614E-07  0.8756E-03  0.6044E-03  0.1817E+01
   -0.349988   30.27103  0.2193E-14  0.1325E-04  0.5324E-07  0.9859E-03  0.5579E-03  0.1559E+01
   -0.399988   30.27210  0.2193E-14  0.1362E-04  0.5098E-07  0.1086E-02  0.5168E-03  0.1401E+01
   -0.449988   30.27305  0.2193E-14  0.1395E-04  0.4914E-07  0.1181E-02  0.4804E-03  0.1346E+01
   -0.499988   30.27391  0.2193E-14  0.1424E-04  0.4761E-07  0.1271E-02  0.4478E-03  0.1328E+01
   -0.549989   30.27470  0.2193E-14  0.1449E-04  0.4632E-07  0.1354E-02  0.4185E-03  0.1321E+01
   -0.599990   30.27542  0.2193E-14  0.1471E-04  0.4524E-07  0.1430E-02  0.3919E-03  0.1319E+01
   -0.649991   30.27610  0.2193E-14  0.1490E-04  0.4433E-07  0.1498E-02  0.3677E-03  0.1327E+01
   -0.699992   30.27673  0.2193E-14  0.1505E-04  0.4357E-07  0.1557E-02  0.3457E-03  0.1339E+01
   -0.749993   30.27734  0.2193E-14  0.1518E-04  0.4294E-07  0.1608E-02  0.3254E-03  0.1368E+01
   -0.799995   30.27791  0.2193E-14  0.1529E-04  0.4243E-07  0.1650E-02  0.3068E-03  0.1410E+01
   -0.849996   30.27847  0.2193E-14  0.1537E-04  0.4202E-07  0.1684E-02  0.2896E-03  0.1478E+01
   -0.899998   30.27901  0.2193E-14  0.1544E-04  0.4171E-07  0.1710E-02  0.2734E-03  0.1563E+01
   -0.950000   30.27954  0.2193E-14  0.1548E-04  0.4150E-07  0.1728E-02  0.2582E-03  0.1678E+01
   -1.000001   30.28005  0.2193E-14  0.1550E-04  0.4138E-07  0.1739E-02  0.2439E-03  0.1809E+01
   -1.050003   30.28056  0.2193E-14  0.1550E-04  0.4136E-07  0.1740E-02  0.2303E-03  0.2058E+01
   -1.100005   30.28107  0.2193E-14  0.1548E-04  0.4144E-07  0.1826E-02  0.2173E-03  0.6826E+01
   -1.150006   30.28155  0.2193E-14  0.1543E-04  0.4166E-07  0.1659E-02  0.2057E-03  0.1538E+02
   -1.200008   30.28207  0.2193E-14  0.1537E-04  0.4199E-07  0.1683E-02  0.1937E-03  0.2973E+01
   -1.250009   30.28259  0.2193E-14  0.1528E-04  0.4250E-07  0.1653E-02  0.1822E-03  0.3167E+01
   -1.300011   30.28311  0.2193E-14  0.1516E-04  0.4319E-07  0.1604E-02  0.1712E-03  0.3711E+01
   -1.350012   30.28364  0.2193E-14  0.1501E-04  0.4414E-07  0.1546E-02  0.1605E-03  0.4434E+01
   -1.400013   30.28420  0.2193E-14  0.1483E-04  0.4541E-07  0.1470E-02  0.1501E-03  0.5476E+01
   -1.450014   30.28478  0.2193E-14  0.1460E-04  0.4713E-07  0.1393E-02  0.1398E-03  0.6961E+01
   -1.500014   30.28539  0.2193E-14  0.1433E-04  0.4951E-07  0.1282E-02  0.1298E-03  0.9421E+01
   -1.550015   30.28607  0.2193E-14  0.1399E-04  0.5286E-07  0.1199E-02  0.1197E-03  0.1331E+02
   -1.600015   30.28680  0.2193E-14  0.1358E-04  0.5795E-07  0.1054E-02  0.1099E-03  0.2374E+02
   -1.650015   30.28768  0.2193E-14  0.1304E-04  0.6573E-07  0.9795E-03  0.9932E-04  0.3208E+03
   -1.700014   30.28865  0.2193E-14  0.1231E-04  0.7989E-07  0.7969E-03  0.8919E-04  0.1413E+03
   -1.750013   30.29043  0.2193E-14  0.1131E-04  0.1034E-06  0.7200E-03  0.7543E-04  0.5177E+05
   -1.800012   30.29196  0.2193E-14  0.9948E-05  0.1539E-06  0.5043E-03  0.6460E-04  0.8469E+05
   -1.850010   30.29793  0.2193E-14  0.8410E-05  0.2463E-06  0.4578E-03  0.4608E-04  0.1020E+08
   -1.900008   30.29697  0.2193E-14  0.6612E-05  0.5177E-06  0.2065E-03  0.3722E-04  0.2519E+04
   -1.950006   30.31580  0.2193E-14  0.4629E-05  0.1296E-05  0.1866E-03  0.1979E-04 -0.1134E+07
   -2.000003   30.31757  0.2193E-14  0.0000E+00  0.0000E+00  0.0000E+00  0.3697E-04  0.0000E+00
