 1 - depth, m
 2 - temperature, C
 3 - salinity, kg/kg
 4 - turbulent kinetic energy, m**2/s**2
 5 - dissipation rate, m**2/s**3
 6 - kinematic heat conductance, m**2/s
 7 - modulus of horizontal velocity, m/s
 8 - Richardson number, n/d
   -0.000000   29.69881  0.1637E-14  0.4762E-05  0.2725E-06  0.4931E-04  0.2443E-02  0.3395E+04
   -0.049997   29.72716  0.1637E-14  0.7972E-05  0.1202E-06  0.1862E-03  0.1328E-02  0.4949E+03
   -0.099994   29.73656  0.1637E-14  0.9526E-05  0.8429E-07  0.3828E-03  0.1008E-02  0.7642E+01
   -0.149992   29.73964  0.1637E-14  0.1054E-04  0.7076E-07  0.4753E-03  0.8889E-03  0.3858E+01
   -0.199991   29.74201  0.1637E-14  0.1133E-04  0.6286E-07  0.6245E-03  0.7954E-03  0.2504E+01
   -0.249989   29.74376  0.1637E-14  0.1196E-04  0.5769E-07  0.7471E-03  0.7244E-03  0.1856E+01
   -0.299989   29.74519  0.1637E-14  0.1249E-04  0.5401E-07  0.8646E-03  0.6653E-03  0.1489E+01
   -0.349988   29.74640  0.1637E-14  0.1293E-04  0.5126E-07  0.9703E-03  0.6145E-03  0.1311E+01
   -0.399988   29.74746  0.1637E-14  0.1330E-04  0.4909E-07  0.1071E-02  0.5688E-03  0.1233E+01
   -0.449988   29.74840  0.1637E-14  0.1364E-04  0.4730E-07  0.1171E-02  0.5275E-03  0.1218E+01
   -0.499988   29.74924  0.1637E-14  0.1394E-04  0.4580E-07  0.1266E-02  0.4903E-03  0.1218E+01
   -0.549989   29.75000  0.1637E-14  0.1421E-04  0.4455E-07  0.1354E-02  0.4566E-03  0.1217E+01
   -0.599990   29.75071  0.1637E-14  0.1444E-04  0.4350E-07  0.1434E-02  0.4261E-03  0.1214E+01
   -0.649991   29.75136  0.1637E-14  0.1463E-04  0.4263E-07  0.1506E-02  0.3985E-03  0.1213E+01
   -0.699992   29.75198  0.1637E-14  0.1480E-04  0.4191E-07  0.1568E-02  0.3733E-03  0.1211E+01
   -0.749993   29.75256  0.1637E-14  0.1494E-04  0.4133E-07  0.1621E-02  0.3505E-03  0.1216E+01
   -0.799995   29.75312  0.1637E-14  0.1506E-04  0.4087E-07  0.1664E-02  0.3296E-03  0.1228E+01
   -0.849996   29.75366  0.1637E-14  0.1514E-04  0.4051E-07  0.1698E-02  0.3105E-03  0.1257E+01
   -0.899998   29.75419  0.1637E-14  0.1521E-04  0.4026E-07  0.1723E-02  0.2929E-03  0.1306E+01
   -0.950000   29.75470  0.1637E-14  0.1526E-04  0.4009E-07  0.1740E-02  0.2766E-03  0.1386E+01
   -1.000001   29.75520  0.1637E-14  0.1528E-04  0.4002E-07  0.1750E-02  0.2612E-03  0.1492E+01
   -1.050003   29.75570  0.1637E-14  0.1529E-04  0.4004E-07  0.1750E-02  0.2467E-03  0.1697E+01
   -1.100005   29.75620  0.1637E-14  0.1528E-04  0.4016E-07  0.1836E-02  0.2328E-03  0.5634E+01
   -1.150007   29.75667  0.1637E-14  0.1524E-04  0.4042E-07  0.1669E-02  0.2204E-03  0.1279E+02
   -1.200008   29.75718  0.1637E-14  0.1518E-04  0.4078E-07  0.1693E-02  0.2076E-03  0.2468E+01
   -1.250010   29.75769  0.1637E-14  0.1510E-04  0.4131E-07  0.1663E-02  0.1953E-03  0.2636E+01
   -1.300011   29.75821  0.1637E-14  0.1500E-04  0.4202E-07  0.1614E-02  0.1835E-03  0.3094E+01
   -1.350012   29.75874  0.1637E-14  0.1486E-04  0.4298E-07  0.1557E-02  0.1721E-03  0.3707E+01
   -1.400013   29.75928  0.1637E-14  0.1469E-04  0.4425E-07  0.1481E-02  0.1609E-03  0.4592E+01
   -1.450014   29.75986  0.1637E-14  0.1448E-04  0.4596E-07  0.1406E-02  0.1500E-03  0.5849E+01
   -1.500015   29.76047  0.1637E-14  0.1422E-04  0.4830E-07  0.1295E-02  0.1392E-03  0.7967E+01
   -1.550015   29.76114  0.1637E-14  0.1390E-04  0.5158E-07  0.1214E-02  0.1284E-03  0.1130E+02
   -1.600015   29.76187  0.1637E-14  0.1351E-04  0.5657E-07  0.1070E-02  0.1179E-03  0.2210E+02
   -1.650015   29.76275  0.1637E-14  0.1300E-04  0.6414E-07  0.9920E-03  0.1066E-03  0.4750E+03
   -1.700014   29.76372  0.1637E-14  0.1229E-04  0.7773E-07  0.8108E-03  0.9578E-04 -0.3432E+04
   -1.750013   29.76548  0.1637E-14  0.1135E-04  0.1001E-06  0.7316E-03  0.8122E-04  0.5313E+05
   -1.800012   29.76691  0.1637E-14  0.1007E-04  0.1471E-06  0.5125E-03  0.6993E-04 -0.6284E+04
   -1.850011   29.77269  0.1637E-14  0.8629E-05  0.2353E-06  0.4688E-03  0.5066E-04  0.3450E+07
   -1.900008   29.77177  0.1637E-14  0.6871E-05  0.4891E-06  0.2153E-03  0.4125E-04 -0.1717E+05
   -1.950006   29.78999  0.1637E-14  0.4767E-05  0.1234E-05  0.1797E-03  0.2251E-04 -0.3972E+06
   -2.000003   29.79316  0.1637E-14  0.0000E+00  0.0000E+00  0.0000E+00  0.3978E-04  0.0000E+00
