 1 - depth, m
 2 - temperature, C
 3 - salinity, kg/kg
 4 - turbulent kinetic energy, m**2/s**2
 5 - dissipation rate, m**2/s**3
 6 - kinematic heat conductance, m**2/s
 7 - modulus of horizontal velocity, m/s
 8 - Richardson number, n/d
   -0.000000   29.95322  0.1069E-13  0.4892E-05  0.2793E-06  0.4966E-04  0.2582E-02  0.2661E+04
   -0.049997   29.98224  0.1069E-13  0.8142E-05  0.1229E-06  0.1902E-03  0.1396E-02  0.1290E+02
   -0.099994   29.99161  0.1069E-13  0.9695E-05  0.8659E-07  0.3833E-03  0.1068E-02  0.6924E+01
   -0.149992   29.99476  0.1069E-13  0.1071E-04  0.7271E-07  0.4779E-03  0.9433E-03  0.3532E+01
   -0.199991   29.99718  0.1069E-13  0.1150E-04  0.6459E-07  0.6254E-03  0.8453E-03  0.2299E+01
   -0.249989   29.99898  0.1069E-13  0.1213E-04  0.5926E-07  0.7474E-03  0.7707E-03  0.1707E+01
   -0.299989   30.00044  0.1069E-13  0.1265E-04  0.5546E-07  0.8630E-03  0.7085E-03  0.1375E+01
   -0.349988   30.00168  0.1069E-13  0.1309E-04  0.5260E-07  0.9655E-03  0.6548E-03  0.1232E+01
   -0.399988   30.00276  0.1069E-13  0.1347E-04  0.5032E-07  0.1066E-02  0.6062E-03  0.1206E+01
   -0.449988   30.00372  0.1069E-13  0.1382E-04  0.4840E-07  0.1171E-02  0.5615E-03  0.1215E+01
   -0.499988   30.00458  0.1069E-13  0.1412E-04  0.4678E-07  0.1270E-02  0.5209E-03  0.1225E+01
   -0.549989   30.00535  0.1069E-13  0.1439E-04  0.4541E-07  0.1362E-02  0.4841E-03  0.1225E+01
   -0.599990   30.00606  0.1069E-13  0.1462E-04  0.4426E-07  0.1445E-02  0.4508E-03  0.1221E+01
   -0.649991   30.00672  0.1069E-13  0.1482E-04  0.4330E-07  0.1519E-02  0.4206E-03  0.1213E+01
   -0.699992   30.00734  0.1069E-13  0.1498E-04  0.4251E-07  0.1583E-02  0.3932E-03  0.1202E+01
   -0.749993   30.00792  0.1069E-13  0.1511E-04  0.4186E-07  0.1638E-02  0.3684E-03  0.1188E+01
   -0.799995   30.00848  0.1069E-13  0.1522E-04  0.4133E-07  0.1681E-02  0.3459E-03  0.1177E+01
   -0.849996   30.00902  0.1069E-13  0.1530E-04  0.4093E-07  0.1715E-02  0.3255E-03  0.1177E+01
   -0.899998   30.00954  0.1069E-13  0.1535E-04  0.4062E-07  0.1740E-02  0.3069E-03  0.1200E+01
   -0.950000   30.01005  0.1069E-13  0.1539E-04  0.4041E-07  0.1755E-02  0.2897E-03  0.1252E+01
   -1.000001   30.01055  0.1069E-13  0.1540E-04  0.4030E-07  0.1764E-02  0.2736E-03  0.1340E+01
   -1.050003   30.01104  0.1069E-13  0.1539E-04  0.4027E-07  0.1763E-02  0.2584E-03  0.1512E+01
   -1.100005   30.01153  0.1069E-13  0.1536E-04  0.4035E-07  0.1855E-02  0.2440E-03  0.5002E+01
   -1.150007   30.01199  0.1069E-13  0.1531E-04  0.4055E-07  0.1671E-02  0.2312E-03  0.1140E+02
   -1.200008   30.01250  0.1069E-13  0.1524E-04  0.4087E-07  0.1702E-02  0.2177E-03  0.2183E+01
   -1.250010   30.01299  0.1069E-13  0.1515E-04  0.4135E-07  0.1671E-02  0.2049E-03  0.2327E+01
   -1.300011   30.01349  0.1069E-13  0.1503E-04  0.4201E-07  0.1622E-02  0.1926E-03  0.2715E+01
   -1.350012   30.01401  0.1069E-13  0.1487E-04  0.4291E-07  0.1562E-02  0.1806E-03  0.3247E+01
   -1.400013   30.01454  0.1069E-13  0.1469E-04  0.4412E-07  0.1486E-02  0.1690E-03  0.3991E+01
   -1.450014   30.01510  0.1069E-13  0.1446E-04  0.4576E-07  0.1408E-02  0.1576E-03  0.5072E+01
   -1.500015   30.01569  0.1069E-13  0.1419E-04  0.4802E-07  0.1297E-02  0.1463E-03  0.6819E+01
   -1.550015   30.01633  0.1069E-13  0.1386E-04  0.5121E-07  0.1211E-02  0.1351E-03  0.9622E+01
   -1.600015   30.01703  0.1069E-13  0.1345E-04  0.5601E-07  0.1068E-02  0.1240E-03  0.1688E+02
   -1.650015   30.01785  0.1069E-13  0.1292E-04  0.6342E-07  0.9888E-03  0.1123E-03  0.1408E+03
   -1.700014   30.01879  0.1069E-13  0.1221E-04  0.7676E-07  0.8103E-03  0.1008E-03  0.1699E+05
   -1.750014   30.02041  0.1069E-13  0.1124E-04  0.9892E-07  0.7262E-03  0.8581E-04  0.2730E+05
   -1.800012   30.02189  0.1069E-13  0.9899E-05  0.1451E-06  0.5118E-03  0.7344E-04  0.6310E+05
   -1.850011   30.02722  0.1069E-13  0.8381E-05  0.2310E-06  0.4602E-03  0.5294E-04  0.3667E+07
   -1.900009   30.02668  0.1069E-13  0.6600E-05  0.4809E-06  0.2114E-03  0.4260E-04 -0.2742E+07
   -1.950006   30.04410  0.1069E-13  0.4601E-05  0.1216E-05  0.1814E-03  0.2292E-04 -0.2113E+06
   -2.000003   30.04618  0.1069E-13  0.0000E+00  0.0000E+00  0.0000E+00  0.4191E-04  0.0000E+00
