 1 - depth, m
 2 - temperature, C
 3 - salinity, kg/kg
 4 - turbulent kinetic energy, m**2/s**2
 5 - dissipation rate, m**2/s**3
 6 - kinematic heat conductance, m**2/s
 7 - modulus of horizontal velocity, m/s
 8 - Richardson number, n/d
   -0.000000   29.48919  0.6159E-13  0.4260E-05  0.2464E-06  0.4731E-04  0.1328E-02  0.1241E+05
   -0.049997   29.51625  0.6159E-13  0.7372E-05  0.1097E-06  0.1692E-03  0.7517E-03  0.6493E+04
   -0.099994   29.52656  0.6159E-13  0.8939E-05  0.7570E-07  0.3849E-03  0.5466E-03  0.2562E+02
   -0.149992   29.52940  0.6159E-13  0.9915E-05  0.6378E-07  0.4632E-03  0.4822E-03  0.1240E+02
   -0.199991   29.53167  0.6159E-13  0.1068E-04  0.5676E-07  0.6156E-03  0.4300E-03  0.8020E+01
   -0.249989   29.53333  0.6159E-13  0.1128E-04  0.5214E-07  0.7358E-03  0.3908E-03  0.5930E+01
   -0.299989   29.53468  0.6159E-13  0.1178E-04  0.4885E-07  0.8543E-03  0.3581E-03  0.4729E+01
   -0.349988   29.53582  0.6160E-13  0.1219E-04  0.4637E-07  0.9621E-03  0.3301E-03  0.4053E+01
   -0.399988   29.53680  0.6160E-13  0.1254E-04  0.4445E-07  0.1061E-02  0.3054E-03  0.3617E+01
   -0.449988   29.53768  0.6160E-13  0.1284E-04  0.4289E-07  0.1153E-02  0.2836E-03  0.3403E+01
   -0.499988   29.53847  0.6160E-13  0.1311E-04  0.4160E-07  0.1237E-02  0.2644E-03  0.3314E+01
   -0.549989   29.53919  0.6160E-13  0.1334E-04  0.4052E-07  0.1315E-02  0.2471E-03  0.3277E+01
   -0.599990   29.53986  0.6160E-13  0.1354E-04  0.3962E-07  0.1385E-02  0.2316E-03  0.3284E+01
   -0.649991   29.54049  0.6160E-13  0.1371E-04  0.3886E-07  0.1449E-02  0.2174E-03  0.3332E+01
   -0.699992   29.54107  0.6160E-13  0.1386E-04  0.3822E-07  0.1505E-02  0.2045E-03  0.3412E+01
   -0.749993   29.54163  0.6160E-13  0.1398E-04  0.3768E-07  0.1555E-02  0.1925E-03  0.3533E+01
   -0.799995   29.54217  0.6160E-13  0.1409E-04  0.3725E-07  0.1597E-02  0.1813E-03  0.3685E+01
   -0.849997   29.54269  0.6160E-13  0.1417E-04  0.3690E-07  0.1632E-02  0.1709E-03  0.3884E+01
   -0.899998   29.54319  0.6160E-13  0.1424E-04  0.3663E-07  0.1659E-02  0.1612E-03  0.4121E+01
   -0.950000   29.54367  0.6160E-13  0.1428E-04  0.3645E-07  0.1679E-02  0.1521E-03  0.4420E+01
   -1.000002   29.54415  0.6160E-13  0.1431E-04  0.3635E-07  0.1692E-02  0.1434E-03  0.4773E+01
   -1.050003   29.54462  0.6160E-13  0.1433E-04  0.3633E-07  0.1695E-02  0.1352E-03  0.5426E+01
   -1.100005   29.54509  0.6160E-13  0.1432E-04  0.3640E-07  0.1766E-02  0.1275E-03  0.1828E+02
   -1.150007   29.54554  0.6160E-13  0.1429E-04  0.3659E-07  0.1638E-02  0.1205E-03  0.3953E+02
   -1.200008   29.54602  0.6160E-13  0.1424E-04  0.3687E-07  0.1650E-02  0.1134E-03  0.7769E+01
   -1.250010   29.54649  0.6160E-13  0.1418E-04  0.3729E-07  0.1623E-02  0.1065E-03  0.8291E+01
   -1.300011   29.54697  0.6160E-13  0.1408E-04  0.3787E-07  0.1580E-02  0.9994E-04  0.9665E+01
   -1.350012   29.54746  0.6160E-13  0.1397E-04  0.3865E-07  0.1526E-02  0.9358E-04  0.1149E+02
   -1.400014   29.54797  0.6160E-13  0.1382E-04  0.3969E-07  0.1459E-02  0.8741E-04  0.1404E+02
   -1.450014   29.54850  0.6160E-13  0.1364E-04  0.4107E-07  0.1385E-02  0.8138E-04  0.1766E+02
   -1.500015   29.54906  0.6160E-13  0.1341E-04  0.4296E-07  0.1285E-02  0.7547E-04  0.2337E+02
   -1.550015   29.54967  0.6160E-13  0.1314E-04  0.4558E-07  0.1199E-02  0.6960E-04  0.3228E+02
   -1.600015   29.55032  0.6160E-13  0.1280E-04  0.4941E-07  0.1064E-02  0.6383E-04  0.5118E+02
   -1.650015   29.55108  0.6160E-13  0.1236E-04  0.5520E-07  0.9818E-03  0.5785E-04  0.1040E+03
   -1.700015   29.55193  0.6160E-13  0.1178E-04  0.6548E-07  0.8116E-03  0.5202E-04 -0.8049E+03
   -1.750014   29.55329  0.6160E-13  0.1097E-04  0.8281E-07  0.7257E-03  0.4479E-04  0.1435E+05
   -1.800013   29.55472  0.6160E-13  0.9805E-05  0.1181E-06  0.5180E-03  0.3836E-04  0.1424E+07
   -1.850011   29.55895  0.6160E-13  0.8392E-05  0.1834E-06  0.4588E-03  0.2844E-04  0.4593E+07
   -1.900009   29.55924  0.6160E-13  0.6629E-05  0.3764E-06  0.2091E-03  0.2273E-04  0.3930E+06
   -1.950006   29.57478  0.6160E-13  0.4551E-05  0.9773E-06  0.1635E-03  0.1244E-04 -0.1409E+07
   -2.000003   29.57782  0.6160E-13  0.0000E+00  0.0000E+00  0.0000E+00  0.2123E-04  0.0000E+00
