 1 - depth, m
 2 - temperature, C
 3 - salinity, kg/kg
 4 - turbulent kinetic energy, m**2/s**2
 5 - dissipation rate, m**2/s**3
 6 - kinematic heat conductance, m**2/s
 7 - modulus of horizontal velocity, m/s
 8 - Richardson number, n/d
   -0.000000   30.21673  0.2627E-13  0.6210E-05  0.3327E-06  0.5934E-04  0.4973E-02  0.9924E+00
   -0.049997   30.24623  0.2627E-13  0.9458E-05  0.1403E-06  0.2203E-03  0.2676E-02  0.5071E+01
   -0.099994   30.25432  0.2627E-13  0.1085E-04  0.1024E-06  0.3877E-03  0.2208E-02  0.2516E+01
   -0.149992   30.25786  0.2627E-13  0.1184E-04  0.8715E-07  0.4777E-03  0.1994E-02  0.1472E+01
   -0.199991   30.26059  0.2627E-13  0.1268E-04  0.7795E-07  0.5956E-03  0.1824E-02  0.1305E+01
   -0.249989   30.26272  0.2627E-13  0.1346E-04  0.7139E-07  0.7229E-03  0.1676E-02  0.1416E+01
   -0.299988   30.26444  0.2627E-13  0.1422E-04  0.6619E-07  0.8752E-03  0.1533E-02  0.1534E+01
   -0.349988   30.26582  0.2627E-13  0.1493E-04  0.6195E-07  0.1043E-02  0.1392E-02  0.1645E+01
   -0.399988   30.26695  0.2627E-13  0.1559E-04  0.5848E-07  0.1217E-02  0.1254E-02  0.1660E+01
   -0.449988   30.26790  0.2627E-13  0.1617E-04  0.5564E-07  0.1368E-02  0.1127E-02  0.1640E+01
   -0.499988   30.26873  0.2627E-13  0.1668E-04  0.5333E-07  0.1503E-02  0.1015E-02  0.1615E+01
   -0.549989   30.26947  0.2627E-13  0.1710E-04  0.5148E-07  0.1630E-02  0.9157E-03  0.1582E+01
   -0.599989   30.27014  0.2627E-13  0.1744E-04  0.5000E-07  0.1752E-02  0.8282E-03  0.1550E+01
   -0.649990   30.27075  0.2627E-13  0.1772E-04  0.4883E-07  0.1866E-02  0.7509E-03  0.1516E+01
   -0.699992   30.27132  0.2627E-13  0.1792E-04  0.4793E-07  0.1969E-02  0.6826E-03  0.1482E+01
   -0.749993   30.27185  0.2627E-13  0.1806E-04  0.4726E-07  0.2049E-02  0.6223E-03  0.1444E+01
   -0.799994   30.27235  0.2627E-13  0.1815E-04  0.4680E-07  0.2102E-02  0.5689E-03  0.1405E+01
   -0.849996   30.27284  0.2627E-13  0.1819E-04  0.4653E-07  0.2129E-02  0.5217E-03  0.1362E+01
   -0.899998   30.27332  0.2627E-13  0.1819E-04  0.4642E-07  0.2133E-02  0.4798E-03  0.1319E+01
   -0.949999   30.27379  0.2627E-13  0.1815E-04  0.4647E-07  0.2118E-02  0.4427E-03  0.1272E+01
   -1.000001   30.27426  0.2627E-13  0.1809E-04  0.4668E-07  0.2090E-02  0.4098E-03  0.1224E+01
   -1.050003   30.27473  0.2627E-13  0.1799E-04  0.4701E-07  0.2023E-02  0.3806E-03  0.1166E+01
   -1.100005   30.27521  0.2627E-13  0.1789E-04  0.4741E-07  0.2246E-02  0.3549E-03  0.2152E+01
   -1.150006   30.27564  0.2627E-13  0.1777E-04  0.4795E-07  0.1779E-02  0.3391E-03  0.6008E+01
   -1.200008   30.27619  0.2627E-13  0.1763E-04  0.4865E-07  0.1907E-02  0.3203E-03  0.1165E+01
   -1.250009   30.27669  0.2627E-13  0.1745E-04  0.4962E-07  0.1848E-02  0.3018E-03  0.1183E+01
   -1.300011   30.27721  0.2627E-13  0.1724E-04  0.5086E-07  0.1770E-02  0.2844E-03  0.1343E+01
   -1.350012   30.27775  0.2627E-13  0.1700E-04  0.5248E-07  0.1691E-02  0.2679E-03  0.1621E+01
   -1.400013   30.27832  0.2627E-13  0.1671E-04  0.5464E-07  0.1585E-02  0.2518E-03  0.2078E+01
   -1.450014   30.27893  0.2627E-13  0.1636E-04  0.5758E-07  0.1489E-02  0.2357E-03  0.2777E+01
   -1.500014   30.27958  0.2627E-13  0.1595E-04  0.6172E-07  0.1355E-02  0.2196E-03  0.4079E+01
   -1.550015   30.28032  0.2627E-13  0.1544E-04  0.6778E-07  0.1265E-02  0.2032E-03  0.7773E+01
   -1.600015   30.28115  0.2627E-13  0.1480E-04  0.7760E-07  0.1105E-02  0.1866E-03 -0.1090E+04
   -1.650014   30.28233  0.2627E-13  0.1395E-04  0.9298E-07  0.1007E-02  0.1673E-03  0.2810E+03
   -1.700014   30.28372  0.2627E-13  0.1279E-04  0.1221E-06  0.8109E-03  0.1476E-03  0.7519E+04
   -1.750013   30.28621  0.2627E-13  0.1152E-04  0.1637E-06  0.7267E-03  0.1215E-03  0.2215E+06
   -1.800012   30.28740  0.2627E-13  0.9949E-05  0.2567E-06  0.4986E-03  0.1054E-03  0.1042E+05
   -1.850010   30.29738  0.2627E-13  0.8428E-05  0.4319E-06  0.4783E-03  0.7081E-04  0.2169E+08
   -1.900008   30.29250  0.2627E-13  0.6673E-05  0.9106E-06  0.2191E-03  0.5968E-04 -0.8977E+05
   -1.950005   30.31730  0.2627E-13  0.4830E-05  0.2102E-05  0.2405E-03  0.3083E-04 -0.9758E+05
   -2.000002   30.31638  0.2627E-13  0.0000E+00  0.0000E+00  0.0000E+00  0.6601E-04  0.0000E+00
