 1 - depth, m
 2 - temperature, C
 3 - salinity, kg/kg
 4 - turbulent kinetic energy, m**2/s**2
 5 - dissipation rate, m**2/s**3
 6 - kinematic heat conductance, m**2/s
 7 - modulus of horizontal velocity, m/s
 8 - Richardson number, n/d
   -0.000000   29.44435  0.1323E-12  0.4182E-05  0.2365E-06  0.4577E-04  0.9084E-03  0.5027E+05
   -0.049997   29.47300  0.1323E-12  0.7290E-05  0.1054E-06  0.1689E-03  0.5106E-03  0.4209E+02
   -0.099994   29.48319  0.1323E-12  0.8787E-05  0.7307E-07  0.3816E-03  0.3713E-03  0.6860E+02
   -0.149992   29.48609  0.1323E-12  0.9710E-05  0.6171E-07  0.4579E-03  0.3276E-03  0.3291E+02
   -0.199991   29.48840  0.1323E-12  0.1042E-04  0.5492E-07  0.6045E-03  0.2921E-03  0.2150E+02
   -0.249989   29.49009  0.1323E-12  0.1098E-04  0.5038E-07  0.7214E-03  0.2652E-03  0.1594E+02
   -0.299989   29.49146  0.1323E-12  0.1144E-04  0.4710E-07  0.8353E-03  0.2428E-03  0.1268E+02
   -0.349988   29.49260  0.1323E-12  0.1181E-04  0.4460E-07  0.9391E-03  0.2236E-03  0.1087E+02
   -0.399988   29.49359  0.1323E-12  0.1212E-04  0.4263E-07  0.1034E-02  0.2066E-03  0.9658E+01
   -0.449988   29.49447  0.1323E-12  0.1239E-04  0.4101E-07  0.1122E-02  0.1916E-03  0.9087E+01
   -0.499988   29.49525  0.1323E-12  0.1262E-04  0.3966E-07  0.1204E-02  0.1784E-03  0.8818E+01
   -0.549989   29.49596  0.1323E-12  0.1281E-04  0.3851E-07  0.1278E-02  0.1666E-03  0.8719E+01
   -0.599990   29.49662  0.1323E-12  0.1298E-04  0.3752E-07  0.1346E-02  0.1559E-03  0.8692E+01
   -0.649991   29.49724  0.1323E-12  0.1312E-04  0.3668E-07  0.1407E-02  0.1461E-03  0.8816E+01
   -0.699992   29.49781  0.1323E-12  0.1323E-04  0.3595E-07  0.1462E-02  0.1372E-03  0.8975E+01
   -0.749993   29.49835  0.1323E-12  0.1333E-04  0.3532E-07  0.1509E-02  0.1290E-03  0.9285E+01
   -0.799995   29.49887  0.1323E-12  0.1340E-04  0.3478E-07  0.1550E-02  0.1214E-03  0.9621E+01
   -0.849997   29.49936  0.1323E-12  0.1346E-04  0.3433E-07  0.1585E-02  0.1143E-03  0.1013E+02
   -0.899998   29.49984  0.1323E-12  0.1350E-04  0.3395E-07  0.1612E-02  0.1076E-03  0.1067E+02
   -0.950000   29.50030  0.1323E-12  0.1352E-04  0.3365E-07  0.1632E-02  0.1014E-03  0.1142E+02
   -1.000002   29.50075  0.1323E-12  0.1352E-04  0.3343E-07  0.1644E-02  0.9549E-04  0.1224E+02
   -1.050003   29.50118  0.1323E-12  0.1351E-04  0.3328E-07  0.1649E-02  0.8990E-04  0.1388E+02
   -1.100005   29.50162  0.1323E-12  0.1348E-04  0.3322E-07  0.1715E-02  0.8462E-04  0.4661E+02
   -1.150007   29.50203  0.1323E-12  0.1343E-04  0.3324E-07  0.1601E-02  0.7985E-04  0.9979E+02
   -1.200008   29.50246  0.1323E-12  0.1337E-04  0.3336E-07  0.1610E-02  0.7506E-04  0.1958E+02
   -1.250010   29.50289  0.1323E-12  0.1328E-04  0.3360E-07  0.1585E-02  0.7044E-04  0.2065E+02
   -1.300011   29.50332  0.1323E-12  0.1318E-04  0.3397E-07  0.1546E-02  0.6600E-04  0.2397E+02
   -1.350013   29.50375  0.1323E-12  0.1305E-04  0.3451E-07  0.1496E-02  0.6172E-04  0.2821E+02
   -1.400014   29.50420  0.1323E-12  0.1290E-04  0.3526E-07  0.1433E-02  0.5757E-04  0.3424E+02
   -1.450014   29.50466  0.1323E-12  0.1271E-04  0.3631E-07  0.1362E-02  0.5354E-04  0.4254E+02
   -1.500015   29.50514  0.1323E-12  0.1249E-04  0.3777E-07  0.1269E-02  0.4958E-04  0.5563E+02
   -1.550015   29.50566  0.1323E-12  0.1223E-04  0.3981E-07  0.1185E-02  0.4569E-04  0.7558E+02
   -1.600016   29.50621  0.1323E-12  0.1191E-04  0.4282E-07  0.1055E-02  0.4185E-04  0.1151E+03
   -1.650015   29.50684  0.1323E-12  0.1151E-04  0.4736E-07  0.9741E-03  0.3793E-04  0.2459E+03
   -1.700015   29.50754  0.1323E-12  0.1098E-04  0.5550E-07  0.8079E-03  0.3411E-04 -0.1772E+05
   -1.750014   29.50861  0.1323E-12  0.1026E-04  0.6930E-07  0.7253E-03  0.2944E-04  0.1402E+05
   -1.800013   29.50974  0.1323E-12  0.9210E-05  0.9699E-07  0.5175E-03  0.2526E-04  0.1130E+06
   -1.850011   29.51296  0.1323E-12  0.7893E-05  0.1493E-06  0.4549E-03  0.1882E-04  0.1348E+08
   -1.900009   29.51339  0.1323E-12  0.6212E-05  0.3017E-06  0.2024E-03  0.1503E-04  0.9122E+06
   -1.950006   29.52581  0.1323E-12  0.4203E-05  0.7938E-06  0.1520E-03  0.8195E-05 -0.2345E+07
   -2.000003   29.52885  0.1323E-12  0.0000E+00  0.0000E+00  0.0000E+00  0.1383E-04  0.0000E+00
