 1 - depth, m
 2 - temperature, C
 3 - salinity, kg/kg
 4 - turbulent kinetic energy, m**2/s**2
 5 - dissipation rate, m**2/s**3
 6 - kinematic heat conductance, m**2/s
 7 - modulus of horizontal velocity, m/s
 8 - Richardson number, n/d
   -0.000000   30.67144  0.5868E-13  0.4738E-05  0.2897E-06  0.4854E-04  0.6744E-03  0.3016E+05
   -0.049997   30.70307  0.5869E-13  0.8315E-05  0.1288E-06  0.1837E-03  0.3774E-03  0.1171E+03
   -0.099994   30.71405  0.5869E-13  0.1004E-04  0.8950E-07  0.4080E-03  0.2782E-03  0.1153E+03
   -0.149992   30.71720  0.5869E-13  0.1112E-04  0.7555E-07  0.4874E-03  0.2462E-03  0.5662E+02
   -0.199991   30.71972  0.5869E-13  0.1196E-04  0.6728E-07  0.6484E-03  0.2202E-03  0.3697E+02
   -0.249989   30.72156  0.5869E-13  0.1263E-04  0.6182E-07  0.7732E-03  0.2007E-03  0.2747E+02
   -0.299988   30.72306  0.5869E-13  0.1317E-04  0.5790E-07  0.8969E-03  0.1844E-03  0.2197E+02
   -0.349988   30.72432  0.5869E-13  0.1362E-04  0.5495E-07  0.1009E-02  0.1704E-03  0.1881E+02
   -0.399988   30.72540  0.5869E-13  0.1399E-04  0.5265E-07  0.1111E-02  0.1580E-03  0.1681E+02
   -0.449988   30.72637  0.5869E-13  0.1432E-04  0.5076E-07  0.1206E-02  0.1470E-03  0.1576E+02
   -0.499988   30.72724  0.5869E-13  0.1460E-04  0.4921E-07  0.1293E-02  0.1374E-03  0.1537E+02
   -0.549989   30.72804  0.5869E-13  0.1484E-04  0.4790E-07  0.1373E-02  0.1287E-03  0.1514E+02
   -0.599989   30.72878  0.5869E-13  0.1504E-04  0.4679E-07  0.1445E-02  0.1208E-03  0.1518E+02
   -0.649991   30.72947  0.5869E-13  0.1522E-04  0.4585E-07  0.1510E-02  0.1137E-03  0.1534E+02
   -0.699992   30.73011  0.5869E-13  0.1537E-04  0.4506E-07  0.1567E-02  0.1071E-03  0.1573E+02
   -0.749993   30.73073  0.5869E-13  0.1549E-04  0.4439E-07  0.1616E-02  0.1010E-03  0.1622E+02
   -0.799995   30.73132  0.5869E-13  0.1559E-04  0.4384E-07  0.1658E-02  0.9533E-04  0.1696E+02
   -0.849996   30.73188  0.5869E-13  0.1567E-04  0.4339E-07  0.1692E-02  0.9004E-04  0.1780E+02
   -0.899998   30.73243  0.5869E-13  0.1572E-04  0.4305E-07  0.1719E-02  0.8506E-04  0.1895E+02
   -0.949999   30.73297  0.5869E-13  0.1575E-04  0.4280E-07  0.1736E-02  0.8038E-04  0.2027E+02
   -1.000001   30.73349  0.5869E-13  0.1577E-04  0.4265E-07  0.1746E-02  0.7594E-04  0.2197E+02
   -1.050003   30.73401  0.5869E-13  0.1576E-04  0.4260E-07  0.1746E-02  0.7174E-04  0.2488E+02
   -1.100005   30.73452  0.5869E-13  0.1573E-04  0.4267E-07  0.1836E-02  0.6772E-04  0.8204E+02
   -1.150006   30.73500  0.5869E-13  0.1567E-04  0.4287E-07  0.1657E-02  0.6414E-04  0.1917E+03
   -1.200008   30.73553  0.5869E-13  0.1560E-04  0.4320E-07  0.1686E-02  0.6042E-04  0.3639E+02
   -1.250009   30.73605  0.5869E-13  0.1550E-04  0.4370E-07  0.1655E-02  0.5686E-04  0.3894E+02
   -1.300011   30.73658  0.5869E-13  0.1537E-04  0.4441E-07  0.1605E-02  0.5344E-04  0.4573E+02
   -1.350012   30.73711  0.5869E-13  0.1520E-04  0.4538E-07  0.1546E-02  0.5011E-04  0.5517E+02
   -1.400013   30.73767  0.5869E-13  0.1501E-04  0.4670E-07  0.1467E-02  0.4688E-04  0.6867E+02
   -1.450014   30.73826  0.5869E-13  0.1476E-04  0.4851E-07  0.1391E-02  0.4369E-04  0.8846E+02
   -1.500014   30.73888  0.5869E-13  0.1447E-04  0.5103E-07  0.1276E-02  0.4058E-04  0.1221E+03
   -1.550015   30.73957  0.5869E-13  0.1411E-04  0.5461E-07  0.1198E-02  0.3743E-04  0.1767E+03
   -1.600015   30.74030  0.5869E-13  0.1367E-04  0.6017E-07  0.1049E-02  0.3437E-04  0.3849E+03
   -1.650014   30.74122  0.5869E-13  0.1310E-04  0.6879E-07  0.9779E-03  0.3104E-04  0.1564E+05
   -1.700014   30.74222  0.5869E-13  0.1231E-04  0.8440E-07  0.7891E-03  0.2785E-04 -0.1915E+05
   -1.750013   30.74412  0.5869E-13  0.1125E-04  0.1100E-06  0.7193E-03  0.2347E-04  0.8813E+06
   -1.800012   30.74557  0.5869E-13  0.9870E-05  0.1653E-06  0.4943E-03  0.2019E-04  0.4616E+06
   -1.850010   30.75204  0.5869E-13  0.8351E-05  0.2680E-06  0.4616E-03  0.1433E-04  0.7173E+09
   -1.900008   30.75047  0.5869E-13  0.6634E-05  0.5619E-06  0.2119E-03  0.1170E-04  0.4120E+07
   -1.950005   30.76989  0.5869E-13  0.4658E-05  0.1399E-05  0.1915E-03  0.6298E-05 -0.1943E+07
   -2.000002   30.77208  0.5869E-13  0.0000E+00  0.0000E+00  0.0000E+00  0.1161E-04  0.0000E+00
