 1 - depth, m
 2 - temperature, C
 3 - salinity, kg/kg
 4 - turbulent kinetic energy, m**2/s**2
 5 - dissipation rate, m**2/s**3
 6 - kinematic heat conductance, m**2/s
 7 - modulus of horizontal velocity, m/s
 8 - Richardson number, n/d
   -0.000000   31.64087  0.3992E-13  0.5373E-05  0.3575E-06  0.5306E-04  0.5885E-03  0.5302E+04
   -0.049997   31.67566  0.3992E-13  0.9391E-05  0.1585E-06  0.1905E-03  0.3367E-03  0.3452E+03
   -0.099994   31.68844  0.3992E-13  0.1137E-04  0.1093E-06  0.4340E-03  0.2462E-03  0.1381E+03
   -0.149992   31.69195  0.3992E-13  0.1261E-04  0.9205E-07  0.5084E-03  0.2187E-03  0.6844E+02
   -0.199990   31.69481  0.3992E-13  0.1357E-04  0.8190E-07  0.6839E-03  0.1959E-03  0.4445E+02
   -0.249989   31.69687  0.3992E-13  0.1434E-04  0.7523E-07  0.8148E-03  0.1789E-03  0.3305E+02
   -0.299988   31.69855  0.3992E-13  0.1496E-04  0.7047E-07  0.9467E-03  0.1647E-03  0.2642E+02
   -0.349987   31.69996  0.3992E-13  0.1547E-04  0.6690E-07  0.1066E-02  0.1526E-03  0.2260E+02
   -0.399987   31.70118  0.3992E-13  0.1590E-04  0.6412E-07  0.1174E-02  0.1418E-03  0.2017E+02
   -0.449987   31.70227  0.3992E-13  0.1627E-04  0.6186E-07  0.1274E-02  0.1323E-03  0.1889E+02
   -0.499988   31.70325  0.3992E-13  0.1659E-04  0.5999E-07  0.1366E-02  0.1239E-03  0.1839E+02
   -0.549988   31.70415  0.3992E-13  0.1687E-04  0.5843E-07  0.1449E-02  0.1163E-03  0.1808E+02
   -0.599989   31.70498  0.3992E-13  0.1710E-04  0.5711E-07  0.1525E-02  0.1095E-03  0.1811E+02
   -0.649990   31.70575  0.3992E-13  0.1730E-04  0.5601E-07  0.1592E-02  0.1032E-03  0.1828E+02
   -0.699991   31.70649  0.3992E-13  0.1747E-04  0.5508E-07  0.1650E-02  0.9741E-04  0.1872E+02
   -0.749992   31.70718  0.3992E-13  0.1760E-04  0.5430E-07  0.1701E-02  0.9207E-04  0.1929E+02
   -0.799994   31.70785  0.3992E-13  0.1771E-04  0.5367E-07  0.1743E-02  0.8708E-04  0.2015E+02
   -0.849995   31.70849  0.3992E-13  0.1779E-04  0.5317E-07  0.1777E-02  0.8242E-04  0.2115E+02
   -0.899997   31.70912  0.3992E-13  0.1785E-04  0.5280E-07  0.1801E-02  0.7803E-04  0.2251E+02
   -0.949998   31.70972  0.3992E-13  0.1788E-04  0.5255E-07  0.1817E-02  0.7388E-04  0.2409E+02
   -1.000000   31.71032  0.3992E-13  0.1789E-04  0.5243E-07  0.1824E-02  0.6995E-04  0.2614E+02
   -1.050002   31.71091  0.3992E-13  0.1787E-04  0.5245E-07  0.1819E-02  0.6620E-04  0.2961E+02
   -1.100003   31.71150  0.3992E-13  0.1782E-04  0.5261E-07  0.1934E-02  0.6262E-04  0.9550E+02
   -1.150005   31.71205  0.3992E-13  0.1775E-04  0.5296E-07  0.1688E-02  0.5947E-04  0.2396E+03
   -1.200006   31.71268  0.3992E-13  0.1764E-04  0.5348E-07  0.1736E-02  0.5606E-04  0.4412E+02
   -1.250008   31.71329  0.3992E-13  0.1751E-04  0.5424E-07  0.1702E-02  0.5284E-04  0.4730E+02
   -1.300009   31.71390  0.3992E-13  0.1734E-04  0.5530E-07  0.1642E-02  0.4975E-04  0.5608E+02
   -1.350010   31.71454  0.3992E-13  0.1713E-04  0.5675E-07  0.1574E-02  0.4672E-04  0.6859E+02
   -1.400011   31.71520  0.3992E-13  0.1687E-04  0.5873E-07  0.1484E-02  0.4377E-04  0.8709E+02
   -1.450012   31.71591  0.3992E-13  0.1655E-04  0.6147E-07  0.1401E-02  0.4083E-04  0.1154E+03
   -1.500013   31.71667  0.3992E-13  0.1617E-04  0.6536E-07  0.1279E-02  0.3794E-04  0.1663E+03
   -1.550013   31.71752  0.3992E-13  0.1570E-04  0.7102E-07  0.1199E-02  0.3500E-04  0.2679E+03
   -1.600013   31.71846  0.3992E-13  0.1510E-04  0.8014E-07  0.1048E-02  0.3210E-04 -0.4409E+04
   -1.650013   31.71973  0.3992E-13  0.1429E-04  0.9456E-07  0.9655E-03  0.2881E-04  0.3938E+05
   -1.700012   31.72122  0.3992E-13  0.1320E-04  0.1204E-06  0.7786E-03  0.2548E-04 -0.1945E+04
   -1.750011   31.72394  0.3992E-13  0.1190E-04  0.1607E-06  0.7024E-03  0.2103E-04  0.5660E+07
   -1.800010   31.72548  0.3992E-13  0.1029E-04  0.2514E-06  0.4766E-03  0.1811E-04  0.6809E+04
   -1.850008   31.73631  0.3992E-13  0.8704E-05  0.4223E-06  0.4611E-03  0.1220E-04  0.5254E+09
   -1.900006   31.73123  0.3992E-13  0.6981E-05  0.8831E-06  0.2168E-03  0.1022E-04 -0.4719E+07
   -1.950003   31.75813  0.3992E-13  0.5036E-05  0.2076E-05  0.2284E-03  0.5371E-05 -0.1782E+07
   -2.000000   31.75714  0.3992E-13  0.0000E+00  0.0000E+00  0.0000E+00  0.1102E-04  0.0000E+00
