 1 - depth, m
 2 - temperature, C
 3 - salinity, kg/kg
 4 - turbulent kinetic energy, m**2/s**2
 5 - dissipation rate, m**2/s**3
 6 - kinematic heat conductance, m**2/s
 7 - modulus of horizontal velocity, m/s
 8 - Richardson number, n/d
   -0.000000   30.39909  0.4567E-14  0.5061E-05  0.3253E-06  0.5130E-04  0.5850E-03  0.2960E+05
   -0.049997   30.43266  0.4567E-14  0.8877E-05  0.1442E-06  0.1861E-03  0.3326E-03  0.7774E+02
   -0.099994   30.44501  0.4567E-14  0.1075E-04  0.9957E-07  0.4248E-03  0.2429E-03  0.1364E+03
   -0.149992   30.44838  0.4567E-14  0.1192E-04  0.8400E-07  0.4996E-03  0.2156E-03  0.6734E+02
   -0.199990   30.45113  0.4567E-14  0.1282E-04  0.7479E-07  0.6696E-03  0.1929E-03  0.4383E+02
   -0.249989   30.45312  0.4567E-14  0.1354E-04  0.6873E-07  0.7981E-03  0.1760E-03  0.3263E+02
   -0.299988   30.45474  0.4567E-14  0.1413E-04  0.6439E-07  0.9267E-03  0.1619E-03  0.2609E+02
   -0.349988   30.45610  0.4567E-14  0.1462E-04  0.6114E-07  0.1043E-02  0.1498E-03  0.2237E+02
   -0.399987   30.45728  0.4567E-14  0.1503E-04  0.5860E-07  0.1149E-02  0.1391E-03  0.1996E+02
   -0.449987   30.45833  0.4567E-14  0.1538E-04  0.5653E-07  0.1247E-02  0.1296E-03  0.1874E+02
   -0.499988   30.45928  0.4567E-14  0.1568E-04  0.5482E-07  0.1337E-02  0.1212E-03  0.1822E+02
   -0.549988   30.46015  0.4567E-14  0.1594E-04  0.5338E-07  0.1420E-02  0.1137E-03  0.1798E+02
   -0.599989   30.46095  0.4567E-14  0.1617E-04  0.5218E-07  0.1494E-02  0.1069E-03  0.1797E+02
   -0.649990   30.46170  0.4567E-14  0.1636E-04  0.5116E-07  0.1560E-02  0.1007E-03  0.1820E+02
   -0.699991   30.46240  0.4567E-14  0.1652E-04  0.5030E-07  0.1619E-02  0.9496E-04  0.1860E+02
   -0.749993   30.46308  0.4567E-14  0.1665E-04  0.4958E-07  0.1670E-02  0.8966E-04  0.1922E+02
   -0.799994   30.46372  0.4567E-14  0.1676E-04  0.4898E-07  0.1712E-02  0.8473E-04  0.2002E+02
   -0.849995   30.46434  0.4567E-14  0.1684E-04  0.4851E-07  0.1747E-02  0.8011E-04  0.2107E+02
   -0.899997   30.46494  0.4567E-14  0.1690E-04  0.4815E-07  0.1773E-02  0.7578E-04  0.2234E+02
   -0.949999   30.46552  0.4567E-14  0.1694E-04  0.4790E-07  0.1790E-02  0.7168E-04  0.2395E+02
   -1.000000   30.46610  0.4567E-14  0.1695E-04  0.4776E-07  0.1799E-02  0.6781E-04  0.2587E+02
   -1.050002   30.46666  0.4567E-14  0.1694E-04  0.4774E-07  0.1798E-02  0.6412E-04  0.2935E+02
   -1.100004   30.46723  0.4567E-14  0.1690E-04  0.4784E-07  0.1899E-02  0.6060E-04  0.9612E+02
   -1.150005   30.46775  0.4567E-14  0.1684E-04  0.4811E-07  0.1691E-02  0.5748E-04  0.2266E+03
   -1.200007   30.46834  0.4567E-14  0.1675E-04  0.4852E-07  0.1728E-02  0.5417E-04  0.4294E+02
   -1.250008   30.46892  0.4567E-14  0.1664E-04  0.4914E-07  0.1696E-02  0.5103E-04  0.4579E+02
   -1.300010   30.46950  0.4567E-14  0.1649E-04  0.4999E-07  0.1641E-02  0.4800E-04  0.5397E+02
   -1.350011   30.47010  0.4567E-14  0.1631E-04  0.5117E-07  0.1579E-02  0.4506E-04  0.6496E+02
   -1.400012   30.47072  0.4567E-14  0.1609E-04  0.5277E-07  0.1495E-02  0.4219E-04  0.8129E+02
   -1.450013   30.47138  0.4567E-14  0.1581E-04  0.5497E-07  0.1415E-02  0.3935E-04  0.1048E+03
   -1.500013   30.47207  0.4567E-14  0.1548E-04  0.5805E-07  0.1297E-02  0.3657E-04  0.1462E+03
   -1.550013   30.47284  0.4567E-14  0.1508E-04  0.6247E-07  0.1215E-02  0.3374E-04  0.2162E+03
   -1.600013   30.47368  0.4567E-14  0.1457E-04  0.6948E-07  0.1067E-02  0.3098E-04  0.5458E+03
   -1.650013   30.47476  0.4567E-14  0.1390E-04  0.8045E-07  0.9840E-03  0.2791E-04  0.4562E+05
   -1.700013   30.47598  0.4567E-14  0.1298E-04  0.9975E-07  0.8017E-03  0.2488E-04  0.4378E+05
   -1.750012   30.47821  0.4567E-14  0.1183E-04  0.1309E-06  0.7218E-03  0.2081E-04  0.3033E+08
   -1.800010   30.47972  0.4567E-14  0.1036E-04  0.1968E-06  0.4988E-03  0.1792E-04  0.2733E+07
   -1.850009   30.48774  0.4567E-14  0.8784E-05  0.3256E-06  0.4621E-03  0.1251E-04  0.1940E+09
   -1.900007   30.48531  0.4567E-14  0.6995E-05  0.6854E-06  0.2197E-03  0.1024E-04  0.1277E+08
   -1.950004   30.50751  0.4567E-14  0.4959E-05  0.1654E-05  0.2059E-03  0.5483E-05 -0.1047E+08
   -2.000001   30.50882  0.4567E-14  0.0000E+00  0.0000E+00  0.0000E+00  0.1061E-04  0.0000E+00
