 1 - depth, m
 2 - temperature, C
 3 - salinity, kg/kg
 4 - turbulent kinetic energy, m**2/s**2
 5 - dissipation rate, m**2/s**3
 6 - kinematic heat conductance, m**2/s
 7 - modulus of horizontal velocity, m/s
 8 - Richardson number, n/d
   -0.000000   30.45784  0.1848E-13  0.5095E-05  0.3032E-06  0.5108E-04  0.2536E-02  0.3059E+04
   -0.049997   30.48833  0.1848E-13  0.8477E-05  0.1338E-06  0.1893E-03  0.1393E-02  0.8499E+03
   -0.099994   30.49864  0.1848E-13  0.1013E-04  0.9354E-07  0.3895E-03  0.1060E-02  0.7669E+01
   -0.149992   30.50198  0.1848E-13  0.1119E-04  0.7842E-07  0.4814E-03  0.9365E-03  0.3864E+01
   -0.199991   30.50455  0.1848E-13  0.1202E-04  0.6956E-07  0.6332E-03  0.8393E-03  0.2500E+01
   -0.249989   30.50645  0.1848E-13  0.1268E-04  0.6375E-07  0.7566E-03  0.7655E-03  0.1849E+01
   -0.299988   30.50800  0.1848E-13  0.1322E-04  0.5961E-07  0.8740E-03  0.7040E-03  0.1486E+01
   -0.349988   30.50931  0.1848E-13  0.1367E-04  0.5648E-07  0.9799E-03  0.6509E-03  0.1326E+01
   -0.399988   30.51044  0.1848E-13  0.1406E-04  0.5398E-07  0.1084E-02  0.6027E-03  0.1267E+01
   -0.449988   30.51144  0.1848E-13  0.1441E-04  0.5189E-07  0.1188E-02  0.5587E-03  0.1247E+01
   -0.499988   30.51234  0.1848E-13  0.1472E-04  0.5013E-07  0.1286E-02  0.5190E-03  0.1246E+01
   -0.549989   30.51315  0.1848E-13  0.1498E-04  0.4864E-07  0.1376E-02  0.4831E-03  0.1240E+01
   -0.599990   30.51390  0.1848E-13  0.1521E-04  0.4739E-07  0.1458E-02  0.4506E-03  0.1239E+01
   -0.649991   30.51459  0.1848E-13  0.1540E-04  0.4633E-07  0.1531E-02  0.4210E-03  0.1234E+01
   -0.699992   30.51524  0.1848E-13  0.1556E-04  0.4545E-07  0.1594E-02  0.3942E-03  0.1234E+01
   -0.749993   30.51585  0.1848E-13  0.1568E-04  0.4471E-07  0.1647E-02  0.3698E-03  0.1233E+01
   -0.799995   30.51643  0.1848E-13  0.1578E-04  0.4412E-07  0.1691E-02  0.3475E-03  0.1242E+01
   -0.849996   30.51700  0.1848E-13  0.1585E-04  0.4364E-07  0.1725E-02  0.3271E-03  0.1256E+01
   -0.899998   30.51754  0.1848E-13  0.1590E-04  0.4327E-07  0.1750E-02  0.3084E-03  0.1289E+01
   -0.950000   30.51807  0.1848E-13  0.1592E-04  0.4301E-07  0.1765E-02  0.2911E-03  0.1342E+01
   -1.000001   30.51859  0.1848E-13  0.1592E-04  0.4285E-07  0.1773E-02  0.2750E-03  0.1430E+01
   -1.050003   30.51910  0.1848E-13  0.1590E-04  0.4279E-07  0.1771E-02  0.2599E-03  0.1608E+01
   -1.100005   30.51961  0.1848E-13  0.1586E-04  0.4284E-07  0.1870E-02  0.2455E-03  0.5271E+01
   -1.150006   30.52009  0.1848E-13  0.1580E-04  0.4302E-07  0.1666E-02  0.2327E-03  0.1238E+02
   -1.200008   30.52062  0.1848E-13  0.1571E-04  0.4333E-07  0.1703E-02  0.2192E-03  0.2336E+01
   -1.250009   30.52113  0.1848E-13  0.1559E-04  0.4382E-07  0.1672E-02  0.2063E-03  0.2486E+01
   -1.300011   30.52165  0.1848E-13  0.1545E-04  0.4451E-07  0.1619E-02  0.1940E-03  0.2910E+01
   -1.350012   30.52218  0.1848E-13  0.1527E-04  0.4547E-07  0.1558E-02  0.1820E-03  0.3496E+01
   -1.400013   30.52273  0.1848E-13  0.1506E-04  0.4678E-07  0.1477E-02  0.1703E-03  0.4335E+01
   -1.450014   30.52331  0.1848E-13  0.1481E-04  0.4859E-07  0.1398E-02  0.1588E-03  0.5559E+01
   -1.500014   30.52392  0.1848E-13  0.1450E-04  0.5112E-07  0.1283E-02  0.1474E-03  0.7631E+01
   -1.550015   30.52460  0.1848E-13  0.1413E-04  0.5475E-07  0.1200E-02  0.1360E-03  0.1103E+02
   -1.600015   30.52532  0.1848E-13  0.1366E-04  0.6041E-07  0.1054E-02  0.1249E-03  0.2283E+02
   -1.650015   30.52623  0.1848E-13  0.1307E-04  0.6926E-07  0.9747E-03  0.1127E-03  0.1262E+03
   -1.700014   30.52724  0.1848E-13  0.1225E-04  0.8508E-07  0.7915E-03  0.1008E-03  0.3905E+02
   -1.750013   30.52911  0.1848E-13  0.1117E-04  0.1110E-06  0.7146E-03  0.8472E-04  0.1224E+06
   -1.800012   30.53052  0.1848E-13  0.9774E-05  0.1668E-06  0.4932E-03  0.7266E-04  0.3316E+05
   -1.850010   30.53699  0.1848E-13  0.8235E-05  0.2717E-06  0.4576E-03  0.5116E-04  0.1561E+07
   -1.900008   30.53527  0.1848E-13  0.6486E-05  0.5739E-06  0.2071E-03  0.4173E-04 -0.1920E+06
   -1.950006   30.55419  0.1848E-13  0.4554E-05  0.1418E-05  0.1954E-03  0.2206E-04 -0.2075E+06
   -2.000003   30.55576  0.1848E-13  0.0000E+00  0.0000E+00  0.0000E+00  0.4234E-04  0.0000E+00
