 1 - depth, m
 2 - temperature, C
 3 - salinity, kg/kg
 4 - turbulent kinetic energy, m**2/s**2
 5 - dissipation rate, m**2/s**3
 6 - kinematic heat conductance, m**2/s
 7 - modulus of horizontal velocity, m/s
 8 - Richardson number, n/d
   -0.000000   30.68245  0.1884E-13  0.5069E-05  0.3110E-06  0.5156E-04  0.2214E-02  0.3815E+04
   -0.049997   30.71288  0.1884E-13  0.8517E-05  0.1377E-06  0.1853E-03  0.1233E-02  0.1277E+03
   -0.099994   30.72382  0.1884E-13  0.1025E-04  0.9550E-07  0.3959E-03  0.9257E-03  0.1039E+02
   -0.149992   30.72714  0.1884E-13  0.1135E-04  0.7998E-07  0.4841E-03  0.8175E-03  0.5158E+01
   -0.199991   30.72973  0.1884E-13  0.1222E-04  0.7092E-07  0.6425E-03  0.7314E-03  0.3314E+01
   -0.249989   30.73162  0.1884E-13  0.1290E-04  0.6500E-07  0.7688E-03  0.6666E-03  0.2439E+01
   -0.299988   30.73316  0.1884E-13  0.1347E-04  0.6079E-07  0.8927E-03  0.6126E-03  0.1945E+01
   -0.349988   30.73445  0.1884E-13  0.1394E-04  0.5763E-07  0.1004E-02  0.5663E-03  0.1670E+01
   -0.399988   30.73558  0.1884E-13  0.1433E-04  0.5517E-07  0.1107E-02  0.5250E-03  0.1525E+01
   -0.449988   30.73658  0.1884E-13  0.1468E-04  0.5313E-07  0.1207E-02  0.4881E-03  0.1461E+01
   -0.499988   30.73747  0.1884E-13  0.1499E-04  0.5144E-07  0.1301E-02  0.4550E-03  0.1444E+01
   -0.549989   30.73829  0.1884E-13  0.1526E-04  0.5002E-07  0.1388E-02  0.4251E-03  0.1427E+01
   -0.599989   30.73904  0.1884E-13  0.1549E-04  0.4882E-07  0.1467E-02  0.3979E-03  0.1428E+01
   -0.649990   30.73974  0.1884E-13  0.1569E-04  0.4782E-07  0.1538E-02  0.3733E-03  0.1428E+01
   -0.699992   30.74040  0.1884E-13  0.1585E-04  0.4698E-07  0.1600E-02  0.3507E-03  0.1445E+01
   -0.749993   30.74103  0.1884E-13  0.1599E-04  0.4629E-07  0.1653E-02  0.3301E-03  0.1463E+01
   -0.799994   30.74162  0.1884E-13  0.1610E-04  0.4572E-07  0.1696E-02  0.3111E-03  0.1503E+01
   -0.849996   30.74220  0.1884E-13  0.1619E-04  0.4528E-07  0.1732E-02  0.2937E-03  0.1551E+01
   -0.899998   30.74276  0.1884E-13  0.1625E-04  0.4494E-07  0.1758E-02  0.2774E-03  0.1632E+01
   -0.949999   30.74330  0.1884E-13  0.1629E-04  0.4471E-07  0.1776E-02  0.2622E-03  0.1728E+01
   -1.000001   30.74383  0.1884E-13  0.1631E-04  0.4458E-07  0.1786E-02  0.2479E-03  0.1866E+01
   -1.050003   30.74436  0.1884E-13  0.1631E-04  0.4455E-07  0.1787E-02  0.2343E-03  0.2102E+01
   -1.100004   30.74488  0.1884E-13  0.1628E-04  0.4465E-07  0.1878E-02  0.2214E-03  0.6991E+01
   -1.150006   30.74538  0.1884E-13  0.1623E-04  0.4488E-07  0.1697E-02  0.2099E-03  0.1580E+02
   -1.200008   30.74592  0.1884E-13  0.1616E-04  0.4525E-07  0.1726E-02  0.1978E-03  0.3023E+01
   -1.250009   30.74645  0.1884E-13  0.1606E-04  0.4579E-07  0.1695E-02  0.1863E-03  0.3228E+01
   -1.300010   30.74699  0.1884E-13  0.1594E-04  0.4655E-07  0.1645E-02  0.1752E-03  0.3754E+01
   -1.350011   30.74754  0.1884E-13  0.1578E-04  0.4758E-07  0.1585E-02  0.1644E-03  0.4502E+01
   -1.400012   30.74812  0.1884E-13  0.1558E-04  0.4898E-07  0.1507E-02  0.1540E-03  0.5523E+01
   -1.450013   30.74872  0.1884E-13  0.1535E-04  0.5087E-07  0.1427E-02  0.1436E-03  0.7056E+01
   -1.500014   30.74936  0.1884E-13  0.1505E-04  0.5349E-07  0.1317E-02  0.1335E-03  0.9498E+01
   -1.550014   30.75005  0.1884E-13  0.1470E-04  0.5721E-07  0.1228E-02  0.1233E-03  0.1375E+02
   -1.600014   30.75081  0.1884E-13  0.1425E-04  0.6285E-07  0.1087E-02  0.1133E-03  0.2502E+02
   -1.650014   30.75172  0.1884E-13  0.1368E-04  0.7163E-07  0.1001E-02  0.1026E-03 -0.3708E+02
   -1.700013   30.75279  0.1884E-13  0.1290E-04  0.8702E-07  0.8244E-03  0.9188E-04 -0.7091E+04
   -1.750013   30.75455  0.1884E-13  0.1187E-04  0.1121E-06  0.7382E-03  0.7818E-04  0.4238E+05
   -1.800011   30.75610  0.1884E-13  0.1047E-04  0.1669E-06  0.5187E-03  0.6714E-04 -0.1041E+05
   -1.850010   30.76227  0.1884E-13  0.8934E-05  0.2678E-06  0.4759E-03  0.4820E-04  0.7767E+07
   -1.900007   30.76118  0.1884E-13  0.7090E-05  0.5552E-06  0.2159E-03  0.3932E-04 -0.9825E+05
   -1.950005   30.78069  0.1884E-13  0.4965E-05  0.1384E-05  0.1896E-03  0.2129E-04 -0.6871E+07
   -2.000002   30.78256  0.1884E-13  0.0000E+00  0.0000E+00  0.0000E+00  0.3860E-04  0.0000E+00
