 1 - depth, m
 2 - temperature, C
 3 - salinity, kg/kg
 4 - turbulent kinetic energy, m**2/s**2
 5 - dissipation rate, m**2/s**3
 6 - kinematic heat conductance, m**2/s
 7 - modulus of horizontal velocity, m/s
 8 - Richardson number, n/d
   -0.000000   30.10400  0.6308E-13  0.4762E-05  0.2797E-06  0.4955E-04  0.2249E-02  0.3721E+04
   -0.049997   30.13317  0.6309E-13  0.7986E-05  0.1241E-06  0.1792E-03  0.1250E-02  0.5229E+03
   -0.099994   30.14350  0.6309E-13  0.9587E-05  0.8614E-07  0.3826E-03  0.9366E-03  0.1001E+02
   -0.149992   30.14668  0.6309E-13  0.1061E-04  0.7220E-07  0.4690E-03  0.8259E-03  0.4927E+01
   -0.199991   30.14916  0.6309E-13  0.1140E-04  0.6402E-07  0.6198E-03  0.7380E-03  0.3174E+01
   -0.249989   30.15098  0.6309E-13  0.1203E-04  0.5863E-07  0.7416E-03  0.6715E-03  0.2334E+01
   -0.299989   30.15245  0.6309E-13  0.1254E-04  0.5478E-07  0.8598E-03  0.6162E-03  0.1859E+01
   -0.349988   30.15369  0.6309E-13  0.1296E-04  0.5187E-07  0.9667E-03  0.5687E-03  0.1602E+01
   -0.399988   30.15477  0.6309E-13  0.1332E-04  0.4959E-07  0.1066E-02  0.5264E-03  0.1463E+01
   -0.449988   30.15572  0.6309E-13  0.1364E-04  0.4770E-07  0.1163E-02  0.4884E-03  0.1402E+01
   -0.499988   30.15657  0.6309E-13  0.1391E-04  0.4611E-07  0.1253E-02  0.4545E-03  0.1384E+01
   -0.549989   30.15734  0.6309E-13  0.1415E-04  0.4477E-07  0.1336E-02  0.4239E-03  0.1370E+01
   -0.599990   30.15806  0.6309E-13  0.1435E-04  0.4363E-07  0.1412E-02  0.3962E-03  0.1369E+01
   -0.649991   30.15872  0.6309E-13  0.1452E-04  0.4266E-07  0.1480E-02  0.3711E-03  0.1371E+01
   -0.699992   30.15934  0.6309E-13  0.1466E-04  0.4184E-07  0.1539E-02  0.3481E-03  0.1385E+01
   -0.749993   30.15993  0.6309E-13  0.1478E-04  0.4115E-07  0.1591E-02  0.3272E-03  0.1403E+01
   -0.799995   30.16049  0.6309E-13  0.1487E-04  0.4057E-07  0.1633E-02  0.3079E-03  0.1438E+01
   -0.849996   30.16103  0.6309E-13  0.1494E-04  0.4010E-07  0.1668E-02  0.2901E-03  0.1483E+01
   -0.899998   30.16155  0.6309E-13  0.1498E-04  0.3972E-07  0.1694E-02  0.2737E-03  0.1554E+01
   -0.950000   30.16206  0.6309E-13  0.1501E-04  0.3943E-07  0.1713E-02  0.2583E-03  0.1644E+01
   -1.000002   30.16255  0.6309E-13  0.1502E-04  0.3923E-07  0.1724E-02  0.2438E-03  0.1768E+01
   -1.050003   30.16304  0.6309E-13  0.1500E-04  0.3912E-07  0.1726E-02  0.2301E-03  0.1991E+01
   -1.100005   30.16352  0.6309E-13  0.1497E-04  0.3910E-07  0.1807E-02  0.2170E-03  0.6650E+01
   -1.150007   30.16397  0.6309E-13  0.1491E-04  0.3921E-07  0.1652E-02  0.2054E-03  0.1471E+02
   -1.200008   30.16446  0.6309E-13  0.1484E-04  0.3942E-07  0.1674E-02  0.1934E-03  0.2835E+01
   -1.250010   30.16494  0.6309E-13  0.1474E-04  0.3978E-07  0.1646E-02  0.1818E-03  0.3005E+01
   -1.300011   30.16542  0.6309E-13  0.1462E-04  0.4032E-07  0.1600E-02  0.1708E-03  0.3485E+01
   -1.350012   30.16592  0.6309E-13  0.1446E-04  0.4107E-07  0.1544E-02  0.1600E-03  0.4140E+01
   -1.400013   30.16643  0.6309E-13  0.1428E-04  0.4211E-07  0.1472E-02  0.1496E-03  0.5050E+01
   -1.450014   30.16695  0.6309E-13  0.1406E-04  0.4355E-07  0.1396E-02  0.1394E-03  0.6365E+01
   -1.500015   30.16751  0.6309E-13  0.1379E-04  0.4555E-07  0.1292E-02  0.1294E-03  0.8466E+01
   -1.550015   30.16811  0.6309E-13  0.1347E-04  0.4839E-07  0.1206E-02  0.1193E-03  0.1181E+02
   -1.600015   30.16876  0.6309E-13  0.1307E-04  0.5271E-07  0.1070E-02  0.1095E-03  0.2019E+02
   -1.650015   30.16952  0.6309E-13  0.1257E-04  0.5943E-07  0.9863E-03  0.9917E-04  0.5053E+02
   -1.700015   30.17039  0.6309E-13  0.1189E-04  0.7146E-07  0.8114E-03  0.8894E-04  0.4825E+03
   -1.750014   30.17184  0.6309E-13  0.1098E-04  0.9140E-07  0.7290E-03  0.7585E-04  0.1626E+05
   -1.800012   30.17321  0.6309E-13  0.9740E-05  0.1325E-06  0.5182E-03  0.6495E-04  0.2375E+05
   -1.850011   30.17781  0.6309E-13  0.8299E-05  0.2096E-06  0.4653E-03  0.4741E-04  0.6853E+07
   -1.900009   30.17743  0.6309E-13  0.6533E-05  0.4353E-06  0.2113E-03  0.3824E-04  0.2319E+05
   -1.950006   30.19296  0.6309E-13  0.4497E-05  0.1107E-05  0.1748E-03  0.2064E-04 -0.6321E+06
   -2.000003   30.19522  0.6309E-13  0.0000E+00  0.0000E+00  0.0000E+00  0.3710E-04  0.0000E+00
