 1 - depth, m
 2 - temperature, C
 3 - salinity, kg/kg
 4 - turbulent kinetic energy, m**2/s**2
 5 - dissipation rate, m**2/s**3
 6 - kinematic heat conductance, m**2/s
 7 - modulus of horizontal velocity, m/s
 8 - Richardson number, n/d
   -0.000000   30.45028  0.2513E-14  0.4856E-05  0.3057E-06  0.5125E-04  0.1423E-02  0.4483E+04
   -0.049997   30.48056  0.2513E-14  0.8330E-05  0.1362E-06  0.1760E-03  0.8183E-03  0.3648E+03
   -0.099994   30.49267  0.2513E-14  0.1013E-04  0.9335E-07  0.4033E-03  0.5963E-03  0.2393E+02
   -0.149992   30.49591  0.2513E-14  0.1125E-04  0.7836E-07  0.4811E-03  0.5273E-03  0.1167E+02
   -0.199991   30.49853  0.2513E-14  0.1212E-04  0.6958E-07  0.6449E-03  0.4709E-03  0.7492E+01
   -0.249989   30.50042  0.2513E-14  0.1281E-04  0.6384E-07  0.7706E-03  0.4288E-03  0.5524E+01
   -0.299988   30.50196  0.2513E-14  0.1337E-04  0.5975E-07  0.8964E-03  0.3938E-03  0.4399E+01
   -0.349988   30.50325  0.2513E-14  0.1384E-04  0.5668E-07  0.1010E-02  0.3638E-03  0.3755E+01
   -0.399988   30.50437  0.2513E-14  0.1423E-04  0.5430E-07  0.1114E-02  0.3373E-03  0.3350E+01
   -0.449988   30.50537  0.2513E-14  0.1457E-04  0.5237E-07  0.1211E-02  0.3139E-03  0.3139E+01
   -0.499988   30.50626  0.2513E-14  0.1486E-04  0.5077E-07  0.1299E-02  0.2933E-03  0.3058E+01
   -0.549989   30.50708  0.2513E-14  0.1512E-04  0.4943E-07  0.1380E-02  0.2748E-03  0.3010E+01
   -0.599989   30.50784  0.2513E-14  0.1534E-04  0.4831E-07  0.1454E-02  0.2581E-03  0.3017E+01
   -0.649991   30.50855  0.2513E-14  0.1552E-04  0.4736E-07  0.1519E-02  0.2428E-03  0.3047E+01
   -0.699992   30.50922  0.2513E-14  0.1568E-04  0.4656E-07  0.1577E-02  0.2288E-03  0.3122E+01
   -0.749993   30.50986  0.2513E-14  0.1581E-04  0.4589E-07  0.1628E-02  0.2158E-03  0.3218E+01
   -0.799995   30.51046  0.2513E-14  0.1592E-04  0.4534E-07  0.1670E-02  0.2037E-03  0.3360E+01
   -0.849996   30.51105  0.2513E-14  0.1600E-04  0.4490E-07  0.1705E-02  0.1925E-03  0.3526E+01
   -0.899998   30.51162  0.2513E-14  0.1606E-04  0.4456E-07  0.1731E-02  0.1819E-03  0.3747E+01
   -0.949999   30.51217  0.2513E-14  0.1610E-04  0.4432E-07  0.1750E-02  0.1719E-03  0.4004E+01
   -1.000001   30.51271  0.2513E-14  0.1612E-04  0.4419E-07  0.1760E-02  0.1625E-03  0.4335E+01
   -1.050003   30.51325  0.2513E-14  0.1611E-04  0.4416E-07  0.1759E-02  0.1535E-03  0.4904E+01
   -1.100005   30.51378  0.2513E-14  0.1608E-04  0.4425E-07  0.1851E-02  0.1449E-03  0.1618E+02
   -1.150006   30.51428  0.2513E-14  0.1603E-04  0.4449E-07  0.1667E-02  0.1373E-03  0.3754E+02
   -1.200008   30.51483  0.2513E-14  0.1595E-04  0.4485E-07  0.1697E-02  0.1294E-03  0.7137E+01
   -1.250009   30.51537  0.2513E-14  0.1585E-04  0.4540E-07  0.1666E-02  0.1218E-03  0.7627E+01
   -1.300011   30.51592  0.2513E-14  0.1572E-04  0.4616E-07  0.1615E-02  0.1145E-03  0.8940E+01
   -1.350012   30.51649  0.2513E-14  0.1555E-04  0.4721E-07  0.1554E-02  0.1074E-03  0.1077E+02
   -1.400013   30.51707  0.2513E-14  0.1535E-04  0.4862E-07  0.1474E-02  0.1005E-03  0.1337E+02
   -1.450014   30.51768  0.2513E-14  0.1510E-04  0.5055E-07  0.1397E-02  0.9364E-04  0.1720E+02
   -1.500014   30.51834  0.2513E-14  0.1480E-04  0.5324E-07  0.1281E-02  0.8696E-04  0.2368E+02
   -1.550015   30.51906  0.2513E-14  0.1443E-04  0.5705E-07  0.1201E-02  0.8021E-04  0.3430E+02
   -1.600015   30.51983  0.2513E-14  0.1397E-04  0.6301E-07  0.1051E-02  0.7364E-04  0.7617E+02
   -1.650014   30.52081  0.2513E-14  0.1337E-04  0.7224E-07  0.9775E-03  0.6642E-04  0.1714E+05
   -1.700014   30.52189  0.2513E-14  0.1255E-04  0.8887E-07  0.7895E-03  0.5950E-04  0.1599E+04
   -1.750013   30.52391  0.2513E-14  0.1147E-04  0.1161E-06  0.7162E-03  0.4999E-04  0.1916E+06
   -1.800012   30.52546  0.2513E-14  0.1006E-04  0.1730E-06  0.4961E-03  0.4290E-04  0.6187E+05
   -1.850010   30.53241  0.2513E-14  0.8498E-05  0.2818E-06  0.4579E-03  0.3032E-04  0.5539E+08
   -1.900008   30.53068  0.2513E-14  0.6735E-05  0.5922E-06  0.2116E-03  0.2468E-04  0.2046E+07
   -1.950005   30.55112  0.2513E-14  0.4743E-05  0.1455E-05  0.1956E-03  0.1321E-04 -0.7850E+06
   -2.000002   30.55234  0.2513E-14  0.0000E+00  0.0000E+00  0.0000E+00  0.2484E-04  0.0000E+00
