 1 - depth, m
 2 - temperature, C
 3 - salinity, kg/kg
 4 - turbulent kinetic energy, m**2/s**2
 5 - dissipation rate, m**2/s**3
 6 - kinematic heat conductance, m**2/s
 7 - modulus of horizontal velocity, m/s
 8 - Richardson number, n/d
   -0.000000   30.61026  0.1032E-13  0.5033E-05  0.3135E-06  0.5165E-04  0.2053E-02  0.8555E+04
   -0.049997   30.64093  0.1032E-13  0.8483E-05  0.1393E-06  0.1808E-03  0.1159E-02  0.1325E+04
   -0.099994   30.65249  0.1032E-13  0.1025E-04  0.9596E-07  0.3970E-03  0.8598E-03  0.1207E+02
   -0.149992   30.65584  0.1032E-13  0.1136E-04  0.8033E-07  0.4812E-03  0.7591E-03  0.5946E+01
   -0.199991   30.65848  0.1032E-13  0.1223E-04  0.7119E-07  0.6417E-03  0.6782E-03  0.3806E+01
   -0.249989   30.66041  0.1032E-13  0.1292E-04  0.6522E-07  0.7676E-03  0.6176E-03  0.2803E+01
   -0.299988   30.66197  0.1032E-13  0.1348E-04  0.6096E-07  0.8926E-03  0.5672E-03  0.2226E+01
   -0.349988   30.66328  0.1032E-13  0.1395E-04  0.5777E-07  0.1005E-02  0.5239E-03  0.1904E+01
   -0.399988   30.66441  0.1032E-13  0.1434E-04  0.5528E-07  0.1109E-02  0.4857E-03  0.1706E+01
   -0.449988   30.66542  0.1032E-13  0.1468E-04  0.5325E-07  0.1206E-02  0.4518E-03  0.1615E+01
   -0.499988   30.66633  0.1032E-13  0.1498E-04  0.5156E-07  0.1297E-02  0.4216E-03  0.1578E+01
   -0.549989   30.66715  0.1032E-13  0.1523E-04  0.5014E-07  0.1381E-02  0.3945E-03  0.1559E+01
   -0.599990   30.66792  0.1032E-13  0.1545E-04  0.4895E-07  0.1456E-02  0.3699E-03  0.1557E+01
   -0.649991   30.66863  0.1032E-13  0.1564E-04  0.4794E-07  0.1524E-02  0.3476E-03  0.1568E+01
   -0.699992   30.66930  0.1032E-13  0.1580E-04  0.4708E-07  0.1584E-02  0.3271E-03  0.1593E+01
   -0.749993   30.66994  0.1032E-13  0.1592E-04  0.4637E-07  0.1635E-02  0.3083E-03  0.1632E+01
   -0.799995   30.67054  0.1032E-13  0.1603E-04  0.4577E-07  0.1678E-02  0.2909E-03  0.1689E+01
   -0.849996   30.67113  0.1032E-13  0.1611E-04  0.4529E-07  0.1713E-02  0.2747E-03  0.1765E+01
   -0.899998   30.67169  0.1032E-13  0.1616E-04  0.4492E-07  0.1739E-02  0.2595E-03  0.1864E+01
   -0.949999   30.67224  0.1032E-13  0.1620E-04  0.4465E-07  0.1758E-02  0.2453E-03  0.1991E+01
   -1.000001   30.67278  0.1032E-13  0.1621E-04  0.4448E-07  0.1768E-02  0.2318E-03  0.2145E+01
   -1.050003   30.67332  0.1032E-13  0.1620E-04  0.4442E-07  0.1768E-02  0.2190E-03  0.2426E+01
   -1.100005   30.67384  0.1032E-13  0.1617E-04  0.4447E-07  0.1860E-02  0.2068E-03  0.7996E+01
   -1.150006   30.67434  0.1032E-13  0.1611E-04  0.4467E-07  0.1678E-02  0.1960E-03  0.1832E+02
   -1.200008   30.67489  0.1032E-13  0.1603E-04  0.4499E-07  0.1708E-02  0.1847E-03  0.3500E+01
   -1.250009   30.67542  0.1032E-13  0.1592E-04  0.4549E-07  0.1677E-02  0.1738E-03  0.3715E+01
   -1.300011   30.67596  0.1032E-13  0.1579E-04  0.4621E-07  0.1626E-02  0.1634E-03  0.4347E+01
   -1.350012   30.67651  0.1032E-13  0.1562E-04  0.4720E-07  0.1566E-02  0.1533E-03  0.5195E+01
   -1.400013   30.67708  0.1032E-13  0.1541E-04  0.4855E-07  0.1488E-02  0.1435E-03  0.6421E+01
   -1.450014   30.67769  0.1032E-13  0.1517E-04  0.5039E-07  0.1408E-02  0.1338E-03  0.8192E+01
   -1.500014   30.67832  0.1032E-13  0.1486E-04  0.5296E-07  0.1297E-02  0.1243E-03  0.1114E+02
   -1.550015   30.67902  0.1032E-13  0.1450E-04  0.5662E-07  0.1207E-02  0.1147E-03  0.1598E+02
   -1.600015   30.67978  0.1032E-13  0.1404E-04  0.6221E-07  0.1067E-02  0.1053E-03  0.3027E+02
   -1.650014   30.68069  0.1032E-13  0.1346E-04  0.7099E-07  0.9810E-03  0.9529E-04  0.2256E+03
   -1.700014   30.68175  0.1032E-13  0.1266E-04  0.8657E-07  0.8053E-03  0.8531E-04  0.7518E+03
   -1.750013   30.68355  0.1032E-13  0.1159E-04  0.1125E-06  0.7179E-03  0.7243E-04  0.7651E+05
   -1.800012   30.68525  0.1032E-13  0.1014E-04  0.1701E-06  0.5051E-03  0.6171E-04  0.2442E+08
   -1.850010   30.69134  0.1032E-13  0.8566E-05  0.2723E-06  0.4557E-03  0.4418E-04  0.3909E+08
   -1.900008   30.69023  0.1032E-13  0.6719E-05  0.5827E-06  0.2074E-03  0.3563E-04 -0.1951E+05
   -1.950005   30.70982  0.1032E-13  0.4742E-05  0.1421E-05  0.1960E-03  0.1895E-04 -0.3371E+06
   -2.000002   30.71069  0.1032E-13  0.0000E+00  0.0000E+00  0.0000E+00  0.3571E-04  0.0000E+00
