 1 - depth, m
 2 - temperature, C
 3 - salinity, kg/kg
 4 - turbulent kinetic energy, m**2/s**2
 5 - dissipation rate, m**2/s**3
 6 - kinematic heat conductance, m**2/s
 7 - modulus of horizontal velocity, m/s
 8 - Richardson number, n/d
   -0.000000   30.53130  0.8253E-13  0.4676E-05  0.2843E-06  0.4956E-04  0.1561E-02  0.7780E+04
   -0.049997   30.56061  0.8253E-13  0.8000E-05  0.1269E-06  0.1744E-03  0.8903E-03  0.5473E+03
   -0.099994   30.57181  0.8253E-13  0.9697E-05  0.8733E-07  0.3922E-03  0.6519E-03  0.1964E+02
   -0.149992   30.57494  0.8253E-13  0.1076E-04  0.7328E-07  0.4728E-03  0.5753E-03  0.9554E+01
   -0.199991   30.57742  0.8253E-13  0.1159E-04  0.6504E-07  0.6310E-03  0.5134E-03  0.6131E+01
   -0.249989   30.57923  0.8253E-13  0.1224E-04  0.5964E-07  0.7548E-03  0.4671E-03  0.4510E+01
   -0.299988   30.58069  0.8253E-13  0.1278E-04  0.5579E-07  0.8776E-03  0.4285E-03  0.3587E+01
   -0.349988   30.58192  0.8253E-13  0.1322E-04  0.5289E-07  0.9891E-03  0.3955E-03  0.3059E+01
   -0.399988   30.58298  0.8253E-13  0.1359E-04  0.5064E-07  0.1091E-02  0.3663E-03  0.2726E+01
   -0.449988   30.58393  0.8253E-13  0.1392E-04  0.4881E-07  0.1186E-02  0.3406E-03  0.2552E+01
   -0.499988   30.58477  0.8253E-13  0.1419E-04  0.4729E-07  0.1273E-02  0.3179E-03  0.2484E+01
   -0.549989   30.58555  0.8253E-13  0.1444E-04  0.4602E-07  0.1353E-02  0.2976E-03  0.2443E+01
   -0.599990   30.58627  0.8253E-13  0.1464E-04  0.4495E-07  0.1426E-02  0.2792E-03  0.2447E+01
   -0.649991   30.58694  0.8253E-13  0.1482E-04  0.4405E-07  0.1491E-02  0.2625E-03  0.2470E+01
   -0.699992   30.58757  0.8253E-13  0.1497E-04  0.4328E-07  0.1549E-02  0.2471E-03  0.2528E+01
   -0.749993   30.58816  0.8253E-13  0.1510E-04  0.4264E-07  0.1600E-02  0.2329E-03  0.2604E+01
   -0.799995   30.58873  0.8253E-13  0.1520E-04  0.4211E-07  0.1643E-02  0.2197E-03  0.2716E+01
   -0.849996   30.58928  0.8253E-13  0.1529E-04  0.4168E-07  0.1678E-02  0.2073E-03  0.2848E+01
   -0.899998   30.58982  0.8253E-13  0.1535E-04  0.4135E-07  0.1706E-02  0.1958E-03  0.3022E+01
   -0.949999   30.59034  0.8253E-13  0.1539E-04  0.4111E-07  0.1726E-02  0.1849E-03  0.3225E+01
   -1.000001   30.59084  0.8253E-13  0.1541E-04  0.4096E-07  0.1738E-02  0.1746E-03  0.3484E+01
   -1.050003   30.59134  0.8253E-13  0.1541E-04  0.4091E-07  0.1740E-02  0.1648E-03  0.3939E+01
   -1.100005   30.59184  0.8253E-13  0.1539E-04  0.4097E-07  0.1820E-02  0.1555E-03  0.1318E+02
   -1.150006   30.59231  0.8253E-13  0.1535E-04  0.4115E-07  0.1670E-02  0.1472E-03  0.2912E+02
   -1.200008   30.59282  0.8253E-13  0.1529E-04  0.4145E-07  0.1689E-02  0.1386E-03  0.5643E+01
   -1.250009   30.59332  0.8253E-13  0.1521E-04  0.4191E-07  0.1660E-02  0.1304E-03  0.6018E+01
   -1.300011   30.59383  0.8253E-13  0.1509E-04  0.4255E-07  0.1614E-02  0.1225E-03  0.7008E+01
   -1.350012   30.59435  0.8253E-13  0.1495E-04  0.4343E-07  0.1557E-02  0.1149E-03  0.8364E+01
   -1.400013   30.59488  0.8253E-13  0.1478E-04  0.4462E-07  0.1484E-02  0.1074E-03  0.1026E+02
   -1.450014   30.59545  0.8253E-13  0.1456E-04  0.4623E-07  0.1408E-02  0.1001E-03  0.1299E+02
   -1.500014   30.59604  0.8253E-13  0.1430E-04  0.4845E-07  0.1302E-02  0.9298E-04  0.1739E+02
   -1.550015   30.59669  0.8253E-13  0.1398E-04  0.5156E-07  0.1214E-02  0.8582E-04  0.2442E+02
   -1.600015   30.59738  0.8253E-13  0.1359E-04  0.5622E-07  0.1077E-02  0.7879E-04  0.4099E+02
   -1.650015   30.59821  0.8253E-13  0.1308E-04  0.6339E-07  0.9920E-03  0.7141E-04  0.1047E+04
   -1.700014   30.59915  0.8253E-13  0.1239E-04  0.7624E-07  0.8186E-03  0.6412E-04 -0.2833E+04
   -1.750013   30.60072  0.8253E-13  0.1146E-04  0.9754E-07  0.7320E-03  0.5483E-04  0.1961E+05
   -1.800012   30.60223  0.8253E-13  0.1016E-04  0.1419E-06  0.5176E-03  0.4702E-04  0.6473E+06
   -1.850010   30.60740  0.8253E-13  0.8666E-05  0.2249E-06  0.4656E-03  0.3434E-04  0.1834E+08
   -1.900008   30.60704  0.8253E-13  0.6866E-05  0.4752E-06  0.2140E-03  0.2766E-04  0.1700E+05
   -1.950005   30.62455  0.8253E-13  0.4766E-05  0.1196E-05  0.1782E-03  0.1515E-04 -0.5663E+06
   -2.000002   30.62655  0.8253E-13  0.0000E+00  0.0000E+00  0.0000E+00  0.2662E-04  0.0000E+00
