 1 - depth, m
 2 - temperature, C
 3 - salinity, kg/kg
 4 - turbulent kinetic energy, m**2/s**2
 5 - dissipation rate, m**2/s**3
 6 - kinematic heat conductance, m**2/s
 7 - modulus of horizontal velocity, m/s
 8 - Richardson number, n/d
   -0.000000   30.28986  0.3679E-13  0.4528E-05  0.2723E-06  0.4892E-04  0.1312E-02  0.1064E+05
   -0.049997   30.31804  0.3680E-13  0.7828E-05  0.1214E-06  0.1747E-03  0.7432E-03  0.2315E+04
   -0.099994   30.32880  0.3680E-13  0.9506E-05  0.8377E-07  0.3940E-03  0.5434E-03  0.2615E+02
   -0.149992   30.33178  0.3680E-13  0.1056E-04  0.7044E-07  0.4748E-03  0.4795E-03  0.1278E+02
   -0.199991   30.33414  0.3680E-13  0.1138E-04  0.6265E-07  0.6339E-03  0.4280E-03  0.8230E+01
   -0.249989   30.33587  0.3680E-13  0.1204E-04  0.5756E-07  0.7580E-03  0.3893E-03  0.6087E+01
   -0.299988   30.33727  0.3680E-13  0.1258E-04  0.5395E-07  0.8813E-03  0.3572E-03  0.4856E+01
   -0.349988   30.33845  0.3680E-13  0.1303E-04  0.5125E-07  0.9932E-03  0.3297E-03  0.4163E+01
   -0.399988   30.33948  0.3680E-13  0.1342E-04  0.4916E-07  0.1096E-02  0.3054E-03  0.3715E+01
   -0.449988   30.34039  0.3680E-13  0.1375E-04  0.4748E-07  0.1191E-02  0.2840E-03  0.3494E+01
   -0.499988   30.34122  0.3680E-13  0.1404E-04  0.4609E-07  0.1279E-02  0.2651E-03  0.3400E+01
   -0.549989   30.34197  0.3680E-13  0.1429E-04  0.4494E-07  0.1359E-02  0.2482E-03  0.3362E+01
   -0.599990   30.34267  0.3680E-13  0.1451E-04  0.4399E-07  0.1432E-02  0.2329E-03  0.3367E+01
   -0.649991   30.34333  0.3680E-13  0.1470E-04  0.4319E-07  0.1498E-02  0.2189E-03  0.3418E+01
   -0.699992   30.34394  0.3680E-13  0.1487E-04  0.4253E-07  0.1556E-02  0.2061E-03  0.3501E+01
   -0.749993   30.34453  0.3680E-13  0.1501E-04  0.4199E-07  0.1606E-02  0.1943E-03  0.3628E+01
   -0.799995   30.34510  0.3680E-13  0.1513E-04  0.4156E-07  0.1650E-02  0.1833E-03  0.3788E+01
   -0.849996   30.34564  0.3680E-13  0.1523E-04  0.4123E-07  0.1685E-02  0.1730E-03  0.3998E+01
   -0.899998   30.34617  0.3680E-13  0.1531E-04  0.4100E-07  0.1713E-02  0.1634E-03  0.4248E+01
   -0.949999   30.34669  0.3680E-13  0.1537E-04  0.4085E-07  0.1732E-02  0.1543E-03  0.4567E+01
   -1.000001   30.34720  0.3680E-13  0.1541E-04  0.4081E-07  0.1744E-02  0.1457E-03  0.4941E+01
   -1.050003   30.34770  0.3680E-13  0.1543E-04  0.4086E-07  0.1747E-02  0.1376E-03  0.5634E+01
   -1.100005   30.34820  0.3680E-13  0.1543E-04  0.4101E-07  0.1825E-02  0.1298E-03  0.1885E+02
   -1.150006   30.34868  0.3680E-13  0.1541E-04  0.4130E-07  0.1677E-02  0.1229E-03  0.4169E+02
   -1.200008   30.34920  0.3680E-13  0.1537E-04  0.4170E-07  0.1695E-02  0.1158E-03  0.8162E+01
   -1.250009   30.34972  0.3680E-13  0.1530E-04  0.4227E-07  0.1665E-02  0.1089E-03  0.8741E+01
   -1.300011   30.35024  0.3680E-13  0.1520E-04  0.4303E-07  0.1618E-02  0.1023E-03  0.1026E+02
   -1.350012   30.35078  0.3680E-13  0.1508E-04  0.4403E-07  0.1562E-02  0.9593E-04  0.1227E+02
   -1.400013   30.35134  0.3680E-13  0.1492E-04  0.4535E-07  0.1488E-02  0.8971E-04  0.1516E+02
   -1.450014   30.35193  0.3680E-13  0.1473E-04  0.4711E-07  0.1413E-02  0.8362E-04  0.1927E+02
   -1.500014   30.35255  0.3680E-13  0.1448E-04  0.4950E-07  0.1305E-02  0.7764E-04  0.2603E+02
   -1.550015   30.35324  0.3680E-13  0.1418E-04  0.5282E-07  0.1221E-02  0.7166E-04  0.3681E+02
   -1.600015   30.35398  0.3680E-13  0.1379E-04  0.5775E-07  0.1078E-02  0.6579E-04  0.6277E+02
   -1.650014   30.35487  0.3680E-13  0.1330E-04  0.6523E-07  0.9998E-03  0.5959E-04  0.3823E+03
   -1.700014   30.35587  0.3680E-13  0.1262E-04  0.7857E-07  0.8163E-03  0.5355E-04 -0.1584E+04
   -1.750013   30.35759  0.3680E-13  0.1171E-04  0.1004E-06  0.7417E-03  0.4570E-04  0.7090E+05
   -1.800012   30.35912  0.3680E-13  0.1045E-04  0.1441E-06  0.5232E-03  0.3936E-04  0.4715E+05
   -1.850010   30.36466  0.3680E-13  0.8969E-05  0.2289E-06  0.4747E-03  0.2885E-04  0.1285E+10
   -1.900008   30.36430  0.3680E-13  0.7137E-05  0.4728E-06  0.2146E-03  0.2333E-04  0.9732E+06
   -1.950005   30.38298  0.3680E-13  0.4950E-05  0.1210E-05  0.1760E-03  0.1283E-04 -0.1247E+07
   -2.000002   30.38648  0.3680E-13  0.0000E+00  0.0000E+00  0.0000E+00  0.2212E-04  0.0000E+00
