 1 - depth, m
 2 - temperature, C
 3 - salinity, kg/kg
 4 - turbulent kinetic energy, m**2/s**2
 5 - dissipation rate, m**2/s**3
 6 - kinematic heat conductance, m**2/s
 7 - modulus of horizontal velocity, m/s
 8 - Richardson number, n/d
   -0.000000   30.86603  0.1505E-13  0.5236E-05  0.3427E-06  0.5201E-04  0.6654E-03  0.7207E+04
   -0.049997   30.90055  0.1505E-13  0.9154E-05  0.1520E-06  0.1898E-03  0.3797E-03  0.3318E+04
   -0.099994   30.91309  0.1505E-13  0.1108E-04  0.1049E-06  0.4283E-03  0.2785E-03  0.1413E+03
   -0.149992   30.91656  0.1505E-13  0.1229E-04  0.8839E-07  0.5049E-03  0.2472E-03  0.7015E+02
   -0.199990   30.91937  0.1505E-13  0.1323E-04  0.7864E-07  0.6777E-03  0.2214E-03  0.4569E+02
   -0.249989   30.92140  0.1505E-13  0.1398E-04  0.7224E-07  0.8078E-03  0.2021E-03  0.3399E+02
   -0.299988   30.92306  0.1505E-13  0.1459E-04  0.6767E-07  0.9387E-03  0.1860E-03  0.2722E+02
   -0.349988   30.92445  0.1505E-13  0.1509E-04  0.6424E-07  0.1057E-02  0.1722E-03  0.2328E+02
   -0.399987   30.92566  0.1505E-13  0.1551E-04  0.6156E-07  0.1164E-02  0.1600E-03  0.2081E+02
   -0.449987   30.92673  0.1505E-13  0.1588E-04  0.5939E-07  0.1264E-02  0.1492E-03  0.1947E+02
   -0.499988   30.92770  0.1505E-13  0.1619E-04  0.5760E-07  0.1356E-02  0.1397E-03  0.1898E+02
   -0.549988   30.92859  0.1505E-13  0.1646E-04  0.5610E-07  0.1439E-02  0.1311E-03  0.1865E+02
   -0.599989   30.92940  0.1505E-13  0.1669E-04  0.5484E-07  0.1515E-02  0.1234E-03  0.1870E+02
   -0.649990   30.93017  0.1505E-13  0.1689E-04  0.5377E-07  0.1582E-02  0.1163E-03  0.1886E+02
   -0.699991   30.93089  0.1505E-13  0.1706E-04  0.5288E-07  0.1642E-02  0.1097E-03  0.1935E+02
   -0.749992   30.93158  0.1505E-13  0.1720E-04  0.5213E-07  0.1693E-02  0.1037E-03  0.1991E+02
   -0.799994   30.93223  0.1505E-13  0.1731E-04  0.5152E-07  0.1736E-02  0.9804E-04  0.2083E+02
   -0.849995   30.93287  0.1505E-13  0.1740E-04  0.5104E-07  0.1771E-02  0.9278E-04  0.2183E+02
   -0.899997   30.93348  0.1505E-13  0.1746E-04  0.5067E-07  0.1797E-02  0.8781E-04  0.2326E+02
   -0.949999   30.93408  0.1505E-13  0.1750E-04  0.5042E-07  0.1814E-02  0.8314E-04  0.2485E+02
   -1.000000   30.93467  0.1505E-13  0.1751E-04  0.5030E-07  0.1823E-02  0.7869E-04  0.2699E+02
   -1.050002   30.93525  0.1505E-13  0.1750E-04  0.5030E-07  0.1820E-02  0.7447E-04  0.3051E+02
   -1.100004   30.93582  0.1505E-13  0.1746E-04  0.5043E-07  0.1925E-02  0.7042E-04  0.9980E+02
   -1.150005   30.93637  0.1505E-13  0.1740E-04  0.5074E-07  0.1708E-02  0.6685E-04  0.2407E+03
   -1.200007   30.93698  0.1505E-13  0.1731E-04  0.5120E-07  0.1748E-02  0.6304E-04  0.4501E+02
   -1.250008   30.93757  0.1505E-13  0.1719E-04  0.5189E-07  0.1715E-02  0.5942E-04  0.4833E+02
   -1.300009   30.93817  0.1505E-13  0.1704E-04  0.5284E-07  0.1659E-02  0.5595E-04  0.5692E+02
   -1.350011   30.93878  0.1505E-13  0.1685E-04  0.5413E-07  0.1594E-02  0.5255E-04  0.6928E+02
   -1.400011   30.93943  0.1505E-13  0.1662E-04  0.5589E-07  0.1508E-02  0.4925E-04  0.8703E+02
   -1.450012   30.94011  0.1505E-13  0.1634E-04  0.5830E-07  0.1427E-02  0.4597E-04  0.1139E+03
   -1.500013   30.94084  0.1505E-13  0.1599E-04  0.6169E-07  0.1308E-02  0.4275E-04  0.1611E+03
   -1.550013   30.94164  0.1505E-13  0.1556E-04  0.6657E-07  0.1225E-02  0.3947E-04  0.2480E+03
   -1.600013   30.94252  0.1505E-13  0.1502E-04  0.7438E-07  0.1075E-02  0.3627E-04  0.2848E+04
   -1.650013   30.94368  0.1505E-13  0.1431E-04  0.8656E-07  0.9898E-03  0.3266E-04  0.2430E+04
   -1.700012   30.94500  0.1505E-13  0.1335E-04  0.1078E-06  0.8071E-03  0.2912E-04  0.8203E+03
   -1.750011   30.94737  0.1505E-13  0.1216E-04  0.1423E-06  0.7264E-03  0.2440E-04  0.7283E+06
   -1.800010   30.94902  0.1505E-13  0.1065E-04  0.2173E-06  0.5077E-03  0.2096E-04  0.4839E+06
   -1.850008   30.95768  0.1505E-13  0.9056E-05  0.3583E-06  0.4704E-03  0.1471E-04  0.1911E+09
   -1.900006   30.95459  0.1505E-13  0.7207E-05  0.7573E-06  0.2129E-03  0.1207E-04  0.5675E+07
   -1.950003   30.97847  0.1505E-13  0.5136E-05  0.1809E-05  0.2121E-03  0.6444E-05 -0.1304E+07
   -2.000000   30.97933  0.1505E-13  0.0000E+00  0.0000E+00  0.0000E+00  0.1252E-04  0.0000E+00
