 1 - depth, m
 2 - temperature, C
 3 - salinity, kg/kg
 4 - turbulent kinetic energy, m**2/s**2
 5 - dissipation rate, m**2/s**3
 6 - kinematic heat conductance, m**2/s
 7 - modulus of horizontal velocity, m/s
 8 - Richardson number, n/d
   -0.000000   30.22016  0.5045E-13  0.4487E-05  0.2665E-06  0.4782E-04  0.1236E-02  0.4516E+04
   -0.049997   30.24891  0.5045E-13  0.7774E-05  0.1187E-06  0.1762E-03  0.6953E-03  0.1283E+04
   -0.099994   30.25947  0.5045E-13  0.9415E-05  0.8225E-07  0.3911E-03  0.5105E-03  0.3040E+02
   -0.149992   30.26245  0.5045E-13  0.1045E-04  0.6923E-07  0.4733E-03  0.4505E-03  0.1486E+02
   -0.199991   30.26482  0.5045E-13  0.1125E-04  0.6157E-07  0.6293E-03  0.4022E-03  0.9585E+01
   -0.249989   30.26655  0.5045E-13  0.1189E-04  0.5655E-07  0.7520E-03  0.3659E-03  0.7074E+01
   -0.299988   30.26795  0.5045E-13  0.1241E-04  0.5296E-07  0.8735E-03  0.3357E-03  0.5641E+01
   -0.349988   30.26914  0.5045E-13  0.1285E-04  0.5027E-07  0.9839E-03  0.3098E-03  0.4821E+01
   -0.399988   30.27016  0.5045E-13  0.1321E-04  0.4817E-07  0.1085E-02  0.2868E-03  0.4304E+01
   -0.449988   30.27107  0.5045E-13  0.1353E-04  0.4647E-07  0.1179E-02  0.2667E-03  0.4035E+01
   -0.499988   30.27189  0.5045E-13  0.1380E-04  0.4506E-07  0.1265E-02  0.2488E-03  0.3934E+01
   -0.549989   30.27264  0.5045E-13  0.1404E-04  0.4389E-07  0.1344E-02  0.2329E-03  0.3874E+01
   -0.599990   30.27334  0.5045E-13  0.1425E-04  0.4290E-07  0.1416E-02  0.2184E-03  0.3885E+01
   -0.649991   30.27399  0.5045E-13  0.1443E-04  0.4206E-07  0.1481E-02  0.2053E-03  0.3926E+01
   -0.699992   30.27460  0.5045E-13  0.1458E-04  0.4136E-07  0.1538E-02  0.1932E-03  0.4024E+01
   -0.749993   30.27518  0.5045E-13  0.1471E-04  0.4077E-07  0.1588E-02  0.1821E-03  0.4147E+01
   -0.799995   30.27574  0.5045E-13  0.1481E-04  0.4029E-07  0.1631E-02  0.1717E-03  0.4330E+01
   -0.849996   30.27627  0.5045E-13  0.1490E-04  0.3990E-07  0.1667E-02  0.1620E-03  0.4542E+01
   -0.899998   30.27679  0.5045E-13  0.1496E-04  0.3960E-07  0.1694E-02  0.1529E-03  0.4825E+01
   -0.950000   30.27730  0.5045E-13  0.1501E-04  0.3939E-07  0.1714E-02  0.1444E-03  0.5151E+01
   -1.000001   30.27779  0.5045E-13  0.1504E-04  0.3927E-07  0.1726E-02  0.1363E-03  0.5569E+01
   -1.050003   30.27828  0.5045E-13  0.1504E-04  0.3924E-07  0.1729E-02  0.1287E-03  0.6297E+01
   -1.100005   30.27877  0.5045E-13  0.1503E-04  0.3931E-07  0.1805E-02  0.1214E-03  0.2115E+02
   -1.150006   30.27923  0.5045E-13  0.1499E-04  0.3950E-07  0.1663E-02  0.1148E-03  0.4630E+02
   -1.200008   30.27972  0.5045E-13  0.1494E-04  0.3980E-07  0.1680E-02  0.1081E-03  0.9008E+01
   -1.250009   30.28021  0.5045E-13  0.1486E-04  0.4026E-07  0.1651E-02  0.1017E-03  0.9616E+01
   -1.300011   30.28071  0.5045E-13  0.1476E-04  0.4088E-07  0.1606E-02  0.9551E-04  0.1118E+02
   -1.350012   30.28122  0.5045E-13  0.1462E-04  0.4174E-07  0.1551E-02  0.8951E-04  0.1333E+02
   -1.400013   30.28174  0.5045E-13  0.1446E-04  0.4288E-07  0.1479E-02  0.8369E-04  0.1629E+02
   -1.450014   30.28229  0.5045E-13  0.1426E-04  0.4442E-07  0.1406E-02  0.7798E-04  0.2059E+02
   -1.500014   30.28287  0.5045E-13  0.1401E-04  0.4653E-07  0.1300E-02  0.7240E-04  0.2743E+02
   -1.550015   30.28350  0.5045E-13  0.1371E-04  0.4948E-07  0.1217E-02  0.6680E-04  0.3824E+02
   -1.600015   30.28418  0.5045E-13  0.1333E-04  0.5390E-07  0.1078E-02  0.6133E-04  0.6490E+02
   -1.650015   30.28498  0.5045E-13  0.1286E-04  0.6061E-07  0.9976E-03  0.5555E-04  0.1584E+03
   -1.700014   30.28587  0.5045E-13  0.1220E-04  0.7266E-07  0.8226E-03  0.4997E-04  0.3343E+06
   -1.750013   30.28740  0.5045E-13  0.1131E-04  0.9260E-07  0.7379E-03  0.4268E-04  0.4171E+05
   -1.800012   30.28877  0.5045E-13  0.1008E-04  0.1339E-06  0.5265E-03  0.3671E-04  0.2239E+05
   -1.850010   30.29364  0.5045E-13  0.8649E-05  0.2117E-06  0.4710E-03  0.2695E-04  0.9204E+08
   -1.900008   30.29339  0.5045E-13  0.6877E-05  0.4378E-06  0.2170E-03  0.2178E-04  0.2842E+06
   -1.950006   30.30966  0.5045E-13  0.4749E-05  0.1120E-05  0.1716E-03  0.1202E-04 -0.1068E+07
   -2.000003   30.31328  0.5045E-13  0.0000E+00  0.0000E+00  0.0000E+00  0.2076E-04  0.0000E+00
