 1 - depth, m
 2 - temperature, C
 3 - salinity, kg/kg
 4 - turbulent kinetic energy, m**2/s**2
 5 - dissipation rate, m**2/s**3
 6 - kinematic heat conductance, m**2/s
 7 - modulus of horizontal velocity, m/s
 8 - Richardson number, n/d
   -0.000000   30.89675  0.1290E-13  0.5175E-05  0.3359E-06  0.5240E-04  0.1597E-02  0.3346E+04
   -0.049997   30.92923  0.1290E-13  0.8807E-05  0.1497E-06  0.1809E-03  0.9206E-03  0.5261E+03
   -0.099994   30.94199  0.1290E-13  0.1070E-04  0.1026E-06  0.4080E-03  0.6744E-03  0.2088E+02
   -0.149992   30.94548  0.1290E-13  0.1188E-04  0.8594E-07  0.4886E-03  0.5965E-03  0.1026E+02
   -0.199991   30.94827  0.1290E-13  0.1279E-04  0.7618E-07  0.6558E-03  0.5330E-03  0.6553E+01
   -0.249989   30.95029  0.1290E-13  0.1352E-04  0.6981E-07  0.7835E-03  0.4858E-03  0.4819E+01
   -0.299988   30.95192  0.1290E-13  0.1411E-04  0.6527E-07  0.9122E-03  0.4464E-03  0.3833E+01
   -0.349988   30.95330  0.1290E-13  0.1460E-04  0.6187E-07  0.1028E-02  0.4128E-03  0.3262E+01
   -0.399988   30.95448  0.1290E-13  0.1501E-04  0.5922E-07  0.1134E-02  0.3830E-03  0.2909E+01
   -0.449988   30.95553  0.1290E-13  0.1536E-04  0.5707E-07  0.1233E-02  0.3568E-03  0.2717E+01
   -0.499988   30.95648  0.1290E-13  0.1567E-04  0.5529E-07  0.1323E-02  0.3336E-03  0.2648E+01
   -0.549989   30.95735  0.1290E-13  0.1593E-04  0.5380E-07  0.1405E-02  0.3128E-03  0.2598E+01
   -0.599989   30.95815  0.1290E-13  0.1615E-04  0.5254E-07  0.1480E-02  0.2940E-03  0.2604E+01
   -0.649990   30.95890  0.1290E-13  0.1634E-04  0.5147E-07  0.1546E-02  0.2768E-03  0.2622E+01
   -0.699992   30.95961  0.1290E-13  0.1650E-04  0.5057E-07  0.1605E-02  0.2610E-03  0.2688E+01
   -0.749993   30.96027  0.1290E-13  0.1663E-04  0.4981E-07  0.1656E-02  0.2464E-03  0.2760E+01
   -0.799994   30.96091  0.1290E-13  0.1673E-04  0.4919E-07  0.1699E-02  0.2328E-03  0.2884E+01
   -0.849996   30.96153  0.1290E-13  0.1681E-04  0.4868E-07  0.1733E-02  0.2201E-03  0.3015E+01
   -0.899998   30.96213  0.1290E-13  0.1686E-04  0.4828E-07  0.1759E-02  0.2082E-03  0.3208E+01
   -0.949999   30.96271  0.1290E-13  0.1689E-04  0.4800E-07  0.1777E-02  0.1969E-03  0.3414E+01
   -1.000001   30.96328  0.1290E-13  0.1690E-04  0.4783E-07  0.1786E-02  0.1862E-03  0.3702E+01
   -1.050003   30.96384  0.1290E-13  0.1688E-04  0.4778E-07  0.1784E-02  0.1761E-03  0.4169E+01
   -1.100004   30.96440  0.1290E-13  0.1684E-04  0.4786E-07  0.1885E-02  0.1664E-03  0.1368E+02
   -1.150006   30.96492  0.1290E-13  0.1677E-04  0.4810E-07  0.1678E-02  0.1578E-03  0.3249E+02
   -1.200008   30.96550  0.1290E-13  0.1668E-04  0.4848E-07  0.1715E-02  0.1487E-03  0.6086E+01
   -1.250009   30.96607  0.1290E-13  0.1656E-04  0.4907E-07  0.1683E-02  0.1401E-03  0.6503E+01
   -1.300010   30.96664  0.1290E-13  0.1641E-04  0.4990E-07  0.1628E-02  0.1318E-03  0.7613E+01
   -1.350011   30.96723  0.1290E-13  0.1622E-04  0.5105E-07  0.1565E-02  0.1237E-03  0.9207E+01
   -1.400012   30.96785  0.1290E-13  0.1599E-04  0.5262E-07  0.1481E-02  0.1158E-03  0.1145E+02
   -1.450013   30.96849  0.1290E-13  0.1571E-04  0.5479E-07  0.1402E-02  0.1080E-03  0.1484E+02
   -1.500014   30.96918  0.1290E-13  0.1537E-04  0.5785E-07  0.1281E-02  0.1004E-03  0.2059E+02
   -1.550014   30.96994  0.1290E-13  0.1495E-04  0.6226E-07  0.1203E-02  0.9257E-04  0.3057E+02
   -1.600014   30.97076  0.1290E-13  0.1443E-04  0.6927E-07  0.1048E-02  0.8500E-04  0.8714E+02
   -1.650014   30.97182  0.1290E-13  0.1375E-04  0.8024E-07  0.9744E-03  0.7649E-04  0.4597E+04
   -1.700013   30.97302  0.1290E-13  0.1282E-04  0.9962E-07  0.7849E-03  0.6827E-04  0.2819E+04
   -1.750013   30.97524  0.1290E-13  0.1165E-04  0.1311E-06  0.7131E-03  0.5688E-04  0.2079E+06
   -1.800011   30.97672  0.1290E-13  0.1014E-04  0.1982E-06  0.4870E-03  0.4906E-04  0.2293E+04
   -1.850010   30.98489  0.1290E-13  0.8532E-05  0.3286E-06  0.4582E-03  0.3374E-04  0.8593E+08
   -1.900007   30.98218  0.1290E-13  0.6736E-05  0.6887E-06  0.2084E-03  0.2783E-04  0.1298E+06
   -1.950005   31.00482  0.1290E-13  0.4804E-05  0.1668E-05  0.2100E-03  0.1458E-04 -0.2272E+06
   -2.000002   31.00475  0.1290E-13  0.0000E+00  0.0000E+00  0.0000E+00  0.2888E-04  0.0000E+00
