 1 - depth, m
 2 - temperature, C
 3 - salinity, kg/kg
 4 - turbulent kinetic energy, m**2/s**2
 5 - dissipation rate, m**2/s**3
 6 - kinematic heat conductance, m**2/s
 7 - modulus of horizontal velocity, m/s
 8 - Richardson number, n/d
   -0.000000   30.34651  0.1370E-14  0.4865E-05  0.3039E-06  0.5063E-04  0.1461E-02  0.7303E+04
   -0.049997   30.37738  0.1370E-14  0.8339E-05  0.1357E-06  0.1779E-03  0.8339E-03  0.6049E+03
   -0.099994   30.38927  0.1370E-14  0.1012E-04  0.9345E-07  0.3994E-03  0.6120E-03  0.2238E+02
   -0.149992   30.39258  0.1370E-14  0.1124E-04  0.7840E-07  0.4806E-03  0.5405E-03  0.1097E+02
   -0.199991   30.39521  0.1370E-14  0.1210E-04  0.6959E-07  0.6428E-03  0.4827E-03  0.7032E+01
   -0.249989   30.39712  0.1370E-14  0.1279E-04  0.6382E-07  0.7684E-03  0.4394E-03  0.5188E+01
   -0.299988   30.39867  0.1370E-14  0.1335E-04  0.5971E-07  0.8938E-03  0.4035E-03  0.4123E+01
   -0.349988   30.39997  0.1370E-14  0.1382E-04  0.5662E-07  0.1007E-02  0.3726E-03  0.3525E+01
   -0.399988   30.40110  0.1370E-14  0.1420E-04  0.5422E-07  0.1111E-02  0.3454E-03  0.3138E+01
   -0.449988   30.40210  0.1370E-14  0.1454E-04  0.5227E-07  0.1207E-02  0.3214E-03  0.2946E+01
   -0.499988   30.40300  0.1370E-14  0.1483E-04  0.5065E-07  0.1296E-02  0.3002E-03  0.2864E+01
   -0.549989   30.40383  0.1370E-14  0.1508E-04  0.4929E-07  0.1376E-02  0.2813E-03  0.2826E+01
   -0.599990   30.40459  0.1370E-14  0.1529E-04  0.4814E-07  0.1450E-02  0.2641E-03  0.2824E+01
   -0.649991   30.40530  0.1370E-14  0.1547E-04  0.4717E-07  0.1515E-02  0.2484E-03  0.2860E+01
   -0.699992   30.40597  0.1370E-14  0.1562E-04  0.4635E-07  0.1573E-02  0.2340E-03  0.2920E+01
   -0.749993   30.40661  0.1370E-14  0.1575E-04  0.4565E-07  0.1623E-02  0.2207E-03  0.3017E+01
   -0.799995   30.40722  0.1370E-14  0.1585E-04  0.4508E-07  0.1666E-02  0.2083E-03  0.3138E+01
   -0.849996   30.40780  0.1370E-14  0.1593E-04  0.4461E-07  0.1701E-02  0.1968E-03  0.3300E+01
   -0.899998   30.40837  0.1370E-14  0.1598E-04  0.4424E-07  0.1727E-02  0.1859E-03  0.3492E+01
   -0.950000   30.40892  0.1370E-14  0.1602E-04  0.4397E-07  0.1746E-02  0.1757E-03  0.3739E+01
   -1.000001   30.40946  0.1370E-14  0.1603E-04  0.4381E-07  0.1756E-02  0.1660E-03  0.4028E+01
   -1.050003   30.40999  0.1370E-14  0.1602E-04  0.4375E-07  0.1756E-02  0.1568E-03  0.4564E+01
   -1.100005   30.41052  0.1370E-14  0.1598E-04  0.4380E-07  0.1847E-02  0.1480E-03  0.1503E+02
   -1.150006   30.41102  0.1370E-14  0.1593E-04  0.4399E-07  0.1665E-02  0.1402E-03  0.3454E+02
   -1.200008   30.41157  0.1370E-14  0.1585E-04  0.4431E-07  0.1695E-02  0.1321E-03  0.6596E+01
   -1.250009   30.41210  0.1370E-14  0.1574E-04  0.4481E-07  0.1664E-02  0.1243E-03  0.7012E+01
   -1.300011   30.41264  0.1370E-14  0.1560E-04  0.4551E-07  0.1613E-02  0.1168E-03  0.8214E+01
   -1.350012   30.41319  0.1370E-14  0.1543E-04  0.4649E-07  0.1553E-02  0.1096E-03  0.9830E+01
   -1.400013   30.41376  0.1370E-14  0.1523E-04  0.4782E-07  0.1474E-02  0.1025E-03  0.1218E+02
   -1.450014   30.41437  0.1370E-14  0.1498E-04  0.4965E-07  0.1397E-02  0.9556E-04  0.1555E+02
   -1.500014   30.41500  0.1370E-14  0.1467E-04  0.5222E-07  0.1282E-02  0.8874E-04  0.2127E+02
   -1.550015   30.41570  0.1370E-14  0.1430E-04  0.5586E-07  0.1201E-02  0.8186E-04  0.3049E+02
   -1.600015   30.41645  0.1370E-14  0.1385E-04  0.6154E-07  0.1051E-02  0.7514E-04  0.3325E+03
   -1.650015   30.41739  0.1370E-14  0.1325E-04  0.7034E-07  0.9765E-03  0.6782E-04  0.3406E+03
   -1.700014   30.41842  0.1370E-14  0.1245E-04  0.8618E-07  0.7889E-03  0.6077E-04  0.6521E+04
   -1.750013   30.42032  0.1370E-14  0.1138E-04  0.1123E-06  0.7166E-03  0.5116E-04  0.1457E+06
   -1.800012   30.42185  0.1370E-14  0.9970E-05  0.1681E-06  0.4952E-03  0.4388E-04  0.2876E+05
   -1.850010   30.42827  0.1370E-14  0.8395E-05  0.2725E-06  0.4531E-03  0.3101E-04  0.5975E+08
   -1.900008   30.42689  0.1370E-14  0.6576E-05  0.5720E-06  0.2078E-03  0.2514E-04 -0.9610E+05
   -1.950006   30.44645  0.1370E-14  0.4626E-05  0.1415E-05  0.1949E-03  0.1320E-04  0.1964E+06
   -2.000002   30.44768  0.1370E-14  0.0000E+00  0.0000E+00  0.0000E+00  0.2530E-04  0.0000E+00
