 1 - depth, m
 2 - temperature, C
 3 - salinity, kg/kg
 4 - turbulent kinetic energy, m**2/s**2
 5 - dissipation rate, m**2/s**3
 6 - kinematic heat conductance, m**2/s
 7 - modulus of horizontal velocity, m/s
 8 - Richardson number, n/d
   -0.000000   30.09000  0.4444E-13  0.4731E-05  0.2891E-06  0.4891E-04  0.1116E-02  0.2715E+05
   -0.049997   30.12121  0.4444E-13  0.8197E-05  0.1289E-06  0.1804E-03  0.6298E-03  0.1118E+03
   -0.099994   30.13254  0.4444E-13  0.9917E-05  0.8931E-07  0.3989E-03  0.4646E-03  0.4972E+02
   -0.149992   30.13577  0.4444E-13  0.1100E-04  0.7513E-07  0.4811E-03  0.4105E-03  0.2432E+02
   -0.199991   30.13833  0.4444E-13  0.1184E-04  0.6678E-07  0.6405E-03  0.3668E-03  0.1576E+02
   -0.249989   30.14020  0.4444E-13  0.1250E-04  0.6128E-07  0.7650E-03  0.3340E-03  0.1161E+02
   -0.299989   30.14172  0.4444E-13  0.1304E-04  0.5735E-07  0.8886E-03  0.3066E-03  0.9274E+01
   -0.349988   30.14299  0.4444E-13  0.1349E-04  0.5438E-07  0.1001E-02  0.2832E-03  0.7888E+01
   -0.399988   30.14409  0.4444E-13  0.1386E-04  0.5207E-07  0.1103E-02  0.2625E-03  0.7053E+01
   -0.449988   30.14507  0.4444E-13  0.1419E-04  0.5018E-07  0.1198E-02  0.2442E-03  0.6576E+01
   -0.499988   30.14595  0.4444E-13  0.1446E-04  0.4861E-07  0.1285E-02  0.2280E-03  0.6427E+01
   -0.549989   30.14675  0.4444E-13  0.1470E-04  0.4729E-07  0.1365E-02  0.2136E-03  0.6288E+01
   -0.599990   30.14750  0.4444E-13  0.1491E-04  0.4617E-07  0.1438E-02  0.2005E-03  0.6322E+01
   -0.649991   30.14819  0.4444E-13  0.1508E-04  0.4522E-07  0.1503E-02  0.1886E-03  0.6337E+01
   -0.699992   30.14885  0.4444E-13  0.1523E-04  0.4441E-07  0.1561E-02  0.1776E-03  0.6515E+01
   -0.749993   30.14947  0.4444E-13  0.1535E-04  0.4372E-07  0.1611E-02  0.1675E-03  0.6654E+01
   -0.799995   30.15006  0.4444E-13  0.1545E-04  0.4315E-07  0.1654E-02  0.1580E-03  0.6971E+01
   -0.849996   30.15063  0.4444E-13  0.1552E-04  0.4267E-07  0.1689E-02  0.1492E-03  0.7240E+01
   -0.899998   30.15118  0.4444E-13  0.1557E-04  0.4230E-07  0.1716E-02  0.1410E-03  0.7720E+01
   -0.950000   30.15171  0.4444E-13  0.1560E-04  0.4201E-07  0.1735E-02  0.1332E-03  0.8155E+01
   -1.000001   30.15224  0.4444E-13  0.1561E-04  0.4182E-07  0.1747E-02  0.1258E-03  0.8855E+01
   -1.050003   30.15275  0.4444E-13  0.1560E-04  0.4173E-07  0.1748E-02  0.1188E-03  0.9893E+01
   -1.100005   30.15326  0.4444E-13  0.1557E-04  0.4175E-07  0.1833E-02  0.1122E-03  0.3312E+02
   -1.150006   30.15374  0.4444E-13  0.1552E-04  0.4189E-07  0.1670E-02  0.1062E-03  0.7433E+02
   -1.200008   30.15426  0.4444E-13  0.1544E-04  0.4215E-07  0.1694E-02  0.1000E-03  0.1413E+02
   -1.250010   30.15477  0.4444E-13  0.1534E-04  0.4257E-07  0.1665E-02  0.9414E-04  0.1511E+02
   -1.300011   30.15529  0.4444E-13  0.1521E-04  0.4318E-07  0.1617E-02  0.8848E-04  0.1742E+02
   -1.350012   30.15581  0.4444E-13  0.1506E-04  0.4404E-07  0.1560E-02  0.8297E-04  0.2092E+02
   -1.400013   30.15636  0.4444E-13  0.1486E-04  0.4521E-07  0.1484E-02  0.7763E-04  0.2547E+02
   -1.450014   30.15693  0.4444E-13  0.1463E-04  0.4681E-07  0.1409E-02  0.7236E-04  0.3250E+02
   -1.500015   30.15752  0.4444E-13  0.1435E-04  0.4906E-07  0.1298E-02  0.6722E-04  0.4359E+02
   -1.550015   30.15817  0.4444E-13  0.1401E-04  0.5223E-07  0.1216E-02  0.6204E-04  0.6182E+02
   -1.600015   30.15887  0.4444E-13  0.1359E-04  0.5711E-07  0.1071E-02  0.5699E-04  0.1205E+03
   -1.650015   30.15972  0.4444E-13  0.1305E-04  0.6460E-07  0.9944E-03  0.5157E-04  0.1051E+04
   -1.700014   30.16065  0.4444E-13  0.1232E-04  0.7809E-07  0.8103E-03  0.4635E-04  0.5463E+04
   -1.750013   30.16232  0.4444E-13  0.1135E-04  0.1004E-06  0.7360E-03  0.3936E-04  0.1413E+06
   -1.800012   30.16367  0.4444E-13  0.1003E-04  0.1476E-06  0.5109E-03  0.3388E-04  0.6705E+06
   -1.850010   30.16919  0.4444E-13  0.8522E-05  0.2361E-06  0.4679E-03  0.2440E-04  0.1603E+09
   -1.900008   30.16836  0.4444E-13  0.6735E-05  0.4895E-06  0.2123E-03  0.1979E-04 -0.1949E+07
   -1.950006   30.18559  0.4444E-13  0.4665E-05  0.1239E-05  0.1817E-03  0.1065E-04 -0.1421E+07
   -2.000003   30.18780  0.4444E-13  0.0000E+00  0.0000E+00  0.0000E+00  0.1932E-04  0.0000E+00
