 1 - depth, m
 2 - temperature, C
 3 - salinity, kg/kg
 4 - turbulent kinetic energy, m**2/s**2
 5 - dissipation rate, m**2/s**3
 6 - kinematic heat conductance, m**2/s
 7 - modulus of horizontal velocity, m/s
 8 - Richardson number, n/d
   -0.000000   29.69904  0.1292E-14  0.4757E-05  0.2720E-06  0.4930E-04  0.2444E-02  0.3370E+04
   -0.049997   29.72741  0.1292E-14  0.7962E-05  0.1200E-06  0.1859E-03  0.1329E-02  0.8064E+02
   -0.099994   29.73681  0.1292E-14  0.9513E-05  0.8418E-07  0.3821E-03  0.1009E-02  0.7661E+01
   -0.149992   29.73990  0.1292E-14  0.1052E-04  0.7068E-07  0.4745E-03  0.8898E-03  0.3865E+01
   -0.199991   29.74227  0.1292E-14  0.1131E-04  0.6279E-07  0.6234E-03  0.7962E-03  0.2509E+01
   -0.249989   29.74403  0.1292E-14  0.1195E-04  0.5762E-07  0.7457E-03  0.7250E-03  0.1860E+01
   -0.299989   29.74546  0.1292E-14  0.1247E-04  0.5395E-07  0.8630E-03  0.6658E-03  0.1492E+01
   -0.349988   29.74668  0.1292E-14  0.1291E-04  0.5120E-07  0.9686E-03  0.6149E-03  0.1312E+01
   -0.399988   29.74773  0.1292E-14  0.1328E-04  0.4904E-07  0.1069E-02  0.5692E-03  0.1232E+01
   -0.449988   29.74867  0.1292E-14  0.1362E-04  0.4725E-07  0.1168E-02  0.5279E-03  0.1216E+01
   -0.499988   29.74952  0.1292E-14  0.1391E-04  0.4576E-07  0.1262E-02  0.4906E-03  0.1216E+01
   -0.549989   29.75028  0.1292E-14  0.1418E-04  0.4451E-07  0.1349E-02  0.4569E-03  0.1214E+01
   -0.599990   29.75099  0.1292E-14  0.1440E-04  0.4347E-07  0.1429E-02  0.4265E-03  0.1210E+01
   -0.649991   29.75165  0.1292E-14  0.1460E-04  0.4260E-07  0.1499E-02  0.3988E-03  0.1207E+01
   -0.699992   29.75227  0.1292E-14  0.1476E-04  0.4189E-07  0.1560E-02  0.3738E-03  0.1205E+01
   -0.749993   29.75285  0.1292E-14  0.1490E-04  0.4131E-07  0.1611E-02  0.3510E-03  0.1209E+01
   -0.799995   29.75342  0.1292E-14  0.1501E-04  0.4085E-07  0.1653E-02  0.3302E-03  0.1221E+01
   -0.849996   29.75396  0.1292E-14  0.1509E-04  0.4050E-07  0.1686E-02  0.3112E-03  0.1255E+01
   -0.899998   29.75449  0.1292E-14  0.1516E-04  0.4025E-07  0.1711E-02  0.2936E-03  0.1312E+01
   -0.950000   29.75500  0.1292E-14  0.1520E-04  0.4009E-07  0.1727E-02  0.2772E-03  0.1397E+01
   -1.000001   29.75551  0.1292E-14  0.1522E-04  0.4002E-07  0.1736E-02  0.2618E-03  0.1508E+01
   -1.050003   29.75601  0.1292E-14  0.1523E-04  0.4005E-07  0.1735E-02  0.2471E-03  0.1717E+01
   -1.100005   29.75651  0.1292E-14  0.1521E-04  0.4018E-07  0.1824E-02  0.2332E-03  0.5682E+01
   -1.150007   29.75699  0.1292E-14  0.1517E-04  0.4044E-07  0.1647E-02  0.2208E-03  0.1308E+02
   -1.200008   29.75751  0.1292E-14  0.1511E-04  0.4082E-07  0.1674E-02  0.2079E-03  0.2513E+01
   -1.250010   29.75802  0.1292E-14  0.1502E-04  0.4136E-07  0.1643E-02  0.1955E-03  0.2688E+01
   -1.300011   29.75854  0.1292E-14  0.1491E-04  0.4209E-07  0.1593E-02  0.1837E-03  0.3164E+01
   -1.350012   29.75908  0.1292E-14  0.1477E-04  0.4308E-07  0.1534E-02  0.1721E-03  0.3802E+01
   -1.400013   29.75963  0.1292E-14  0.1459E-04  0.4440E-07  0.1457E-02  0.1609E-03  0.4727E+01
   -1.450014   29.76022  0.1292E-14  0.1437E-04  0.4617E-07  0.1379E-02  0.1499E-03  0.6054E+01
   -1.500015   29.76084  0.1292E-14  0.1410E-04  0.4860E-07  0.1269E-02  0.1391E-03  0.8279E+01
   -1.550015   29.76153  0.1292E-14  0.1377E-04  0.5203E-07  0.1184E-02  0.1282E-03  0.1192E+02
   -1.600015   29.76227  0.1292E-14  0.1336E-04  0.5726E-07  0.1043E-02  0.1176E-03  0.2227E+02
   -1.650015   29.76318  0.1292E-14  0.1282E-04  0.6534E-07  0.9605E-03  0.1061E-03  0.4885E+04
   -1.700014   29.76420  0.1292E-14  0.1208E-04  0.7975E-07  0.7847E-03  0.9499E-04  0.1349E+03
   -1.750013   29.76604  0.1292E-14  0.1109E-04  0.1035E-06  0.7053E-03  0.8026E-04  0.1139E+05
   -1.800012   29.76761  0.1292E-14  0.9761E-05  0.1534E-06  0.4938E-03  0.6862E-04  0.7348E+05
   -1.850011   29.77381  0.1292E-14  0.8243E-05  0.2476E-06  0.4485E-03  0.4893E-04  0.3070E+08
   -1.900008   29.77275  0.1292E-14  0.6472E-05  0.5212E-06  0.2047E-03  0.3934E-04 -0.3417E+05
   -1.950006   29.79235  0.1292E-14  0.4523E-05  0.1302E-05  0.1860E-03  0.2072E-04 -0.7781E+06
   -2.000003   29.79434  0.1292E-14  0.0000E+00  0.0000E+00  0.0000E+00  0.3921E-04  0.0000E+00
