 1 - depth, m
 2 - temperature, C
 3 - salinity, kg/kg
 4 - turbulent kinetic energy, m**2/s**2
 5 - dissipation rate, m**2/s**3
 6 - kinematic heat conductance, m**2/s
 7 - modulus of horizontal velocity, m/s
 8 - Richardson number, n/d
   -0.000000   30.71078  0.3532E-13  0.4873E-05  0.3057E-06  0.5021E-04  0.1051E-02  0.5326E+04
   -0.049997   30.74223  0.3532E-13  0.8438E-05  0.1359E-06  0.1808E-03  0.5951E-03  0.4100E+02
   -0.099994   30.75410  0.3532E-13  0.1023E-04  0.9382E-07  0.4067E-03  0.4366E-03  0.5022E+02
   -0.149992   30.75736  0.3532E-13  0.1135E-04  0.7890E-07  0.4865E-03  0.3860E-03  0.2463E+02
   -0.199991   30.75997  0.3532E-13  0.1222E-04  0.7013E-07  0.6500E-03  0.3449E-03  0.1590E+02
   -0.249989   30.76186  0.3532E-13  0.1291E-04  0.6437E-07  0.7759E-03  0.3141E-03  0.1182E+02
   -0.299988   30.76341  0.3532E-13  0.1347E-04  0.6025E-07  0.9017E-03  0.2885E-03  0.9407E+01
   -0.349988   30.76470  0.3532E-13  0.1394E-04  0.5716E-07  0.1015E-02  0.2665E-03  0.8083E+01
   -0.399988   30.76582  0.3532E-13  0.1433E-04  0.5475E-07  0.1119E-02  0.2471E-03  0.7185E+01
   -0.449988   30.76681  0.3532E-13  0.1466E-04  0.5279E-07  0.1216E-02  0.2299E-03  0.6776E+01
   -0.499988   30.76771  0.3532E-13  0.1495E-04  0.5116E-07  0.1304E-02  0.2148E-03  0.6566E+01
   -0.549989   30.76853  0.3532E-13  0.1520E-04  0.4980E-07  0.1385E-02  0.2012E-03  0.6509E+01
   -0.599989   30.76928  0.3532E-13  0.1542E-04  0.4866E-07  0.1459E-02  0.1890E-03  0.6482E+01
   -0.649990   30.76999  0.3532E-13  0.1560E-04  0.4769E-07  0.1524E-02  0.1778E-03  0.6595E+01
   -0.699992   30.77066  0.3532E-13  0.1576E-04  0.4687E-07  0.1582E-02  0.1675E-03  0.6712E+01
   -0.749993   30.77129  0.3532E-13  0.1588E-04  0.4618E-07  0.1633E-02  0.1580E-03  0.6969E+01
   -0.799994   30.77190  0.3532E-13  0.1599E-04  0.4561E-07  0.1675E-02  0.1492E-03  0.7226E+01
   -0.849996   30.77248  0.3532E-13  0.1607E-04  0.4515E-07  0.1710E-02  0.1409E-03  0.7639E+01
   -0.899998   30.77304  0.3532E-13  0.1612E-04  0.4479E-07  0.1736E-02  0.1331E-03  0.8061E+01
   -0.949999   30.77359  0.3532E-13  0.1616E-04  0.4454E-07  0.1755E-02  0.1258E-03  0.8678E+01
   -1.000001   30.77413  0.3532E-13  0.1617E-04  0.4439E-07  0.1765E-02  0.1189E-03  0.9328E+01
   -1.050003   30.77466  0.3532E-13  0.1617E-04  0.4435E-07  0.1765E-02  0.1123E-03  0.1063E+02
   -1.100004   30.77519  0.3532E-13  0.1614E-04  0.4442E-07  0.1856E-02  0.1061E-03  0.3479E+02
   -1.150006   30.77569  0.3532E-13  0.1608E-04  0.4464E-07  0.1673E-02  0.1005E-03  0.8096E+02
   -1.200008   30.77623  0.3532E-13  0.1600E-04  0.4499E-07  0.1702E-02  0.9465E-04  0.1546E+02
   -1.250009   30.77677  0.3532E-13  0.1590E-04  0.4552E-07  0.1671E-02  0.8910E-04  0.1642E+02
   -1.300010   30.77731  0.3532E-13  0.1576E-04  0.4627E-07  0.1620E-02  0.8374E-04  0.1936E+02
   -1.350012   30.77787  0.3532E-13  0.1560E-04  0.4729E-07  0.1560E-02  0.7856E-04  0.2317E+02
   -1.400013   30.77844  0.3532E-13  0.1539E-04  0.4869E-07  0.1481E-02  0.7349E-04  0.2892E+02
   -1.450013   30.77905  0.3532E-13  0.1514E-04  0.5060E-07  0.1402E-02  0.6852E-04  0.3698E+02
   -1.500014   30.77969  0.3532E-13  0.1484E-04  0.5326E-07  0.1289E-02  0.6362E-04  0.5102E+02
   -1.550014   30.78040  0.3532E-13  0.1447E-04  0.5706E-07  0.1205E-02  0.5871E-04  0.7414E+02
   -1.600014   30.78116  0.3532E-13  0.1401E-04  0.6297E-07  0.1061E-02  0.5388E-04  0.1565E+03
   -1.650014   30.78211  0.3532E-13  0.1341E-04  0.7216E-07  0.9800E-03  0.4864E-04  0.3903E+04
   -1.700014   30.78319  0.3532E-13  0.1259E-04  0.8844E-07  0.8002E-03  0.4349E-04  0.2420E+02
   -1.750013   30.78510  0.3532E-13  0.1153E-04  0.1150E-06  0.7209E-03  0.3667E-04  0.4138E+06
   -1.800011   30.78658  0.3532E-13  0.1011E-04  0.1727E-06  0.4975E-03  0.3152E-04  0.3717E+05
   -1.850010   30.79332  0.3532E-13  0.8561E-05  0.2811E-06  0.4613E-03  0.2228E-04  0.5830E+09
   -1.900008   30.79171  0.3532E-13  0.6776E-05  0.5881E-06  0.2122E-03  0.1820E-04 -0.2088E+07
   -1.950005   30.81156  0.3532E-13  0.4762E-05  0.1456E-05  0.1943E-03  0.9741E-05 -0.2538E+07
   -2.000002   30.81374  0.3532E-13  0.0000E+00  0.0000E+00  0.0000E+00  0.1826E-04  0.0000E+00
