 1 - depth, m
 2 - temperature, C
 3 - salinity, kg/kg
 4 - turbulent kinetic energy, m**2/s**2
 5 - dissipation rate, m**2/s**3
 6 - kinematic heat conductance, m**2/s
 7 - modulus of horizontal velocity, m/s
 8 - Richardson number, n/d
   -0.000000   30.53255  0.1005E-12  0.4696E-05  0.2861E-06  0.4877E-04  0.1063E-02  0.1154E+05
   -0.049997   30.56331  0.1005E-12  0.8135E-05  0.1274E-06  0.1789E-03  0.5974E-03  0.4190E+02
   -0.099994   30.57458  0.1005E-12  0.9841E-05  0.8819E-07  0.3982E-03  0.4396E-03  0.4918E+02
   -0.149992   30.57775  0.1005E-12  0.1091E-04  0.7421E-07  0.4793E-03  0.3881E-03  0.2403E+02
   -0.199991   30.58026  0.1005E-12  0.1174E-04  0.6596E-07  0.6379E-03  0.3466E-03  0.1553E+02
   -0.249989   30.58209  0.1005E-12  0.1239E-04  0.6052E-07  0.7618E-03  0.3154E-03  0.1153E+02
   -0.299988   30.58358  0.1005E-12  0.1293E-04  0.5662E-07  0.8847E-03  0.2894E-03  0.9167E+01
   -0.349988   30.58483  0.1005E-12  0.1337E-04  0.5369E-07  0.9961E-03  0.2671E-03  0.7870E+01
   -0.399988   30.58591  0.1005E-12  0.1374E-04  0.5140E-07  0.1098E-02  0.2475E-03  0.6990E+01
   -0.449988   30.58686  0.1005E-12  0.1406E-04  0.4953E-07  0.1193E-02  0.2301E-03  0.6587E+01
   -0.499988   30.58772  0.1005E-12  0.1433E-04  0.4798E-07  0.1280E-02  0.2148E-03  0.6379E+01
   -0.549989   30.58851  0.1005E-12  0.1457E-04  0.4668E-07  0.1359E-02  0.2011E-03  0.6320E+01
   -0.599990   30.58923  0.1005E-12  0.1477E-04  0.4557E-07  0.1431E-02  0.1887E-03  0.6289E+01
   -0.649991   30.58991  0.1005E-12  0.1495E-04  0.4464E-07  0.1496E-02  0.1773E-03  0.6396E+01
   -0.699992   30.59055  0.1005E-12  0.1509E-04  0.4384E-07  0.1554E-02  0.1670E-03  0.6501E+01
   -0.749993   30.59115  0.1005E-12  0.1521E-04  0.4317E-07  0.1604E-02  0.1573E-03  0.6747E+01
   -0.799995   30.59173  0.1005E-12  0.1531E-04  0.4261E-07  0.1647E-02  0.1484E-03  0.6983E+01
   -0.849996   30.59229  0.1005E-12  0.1539E-04  0.4215E-07  0.1681E-02  0.1401E-03  0.7379E+01
   -0.899998   30.59282  0.1005E-12  0.1544E-04  0.4179E-07  0.1709E-02  0.1323E-03  0.7768E+01
   -0.949999   30.59334  0.1005E-12  0.1548E-04  0.4153E-07  0.1728E-02  0.1249E-03  0.8357E+01
   -1.000001   30.59386  0.1005E-12  0.1549E-04  0.4136E-07  0.1739E-02  0.1180E-03  0.8954E+01
   -1.050003   30.59436  0.1005E-12  0.1549E-04  0.4129E-07  0.1741E-02  0.1113E-03  0.1020E+02
   -1.100005   30.59486  0.1005E-12  0.1546E-04  0.4133E-07  0.1824E-02  0.1051E-03  0.3368E+02
   -1.150006   30.59533  0.1005E-12  0.1541E-04  0.4149E-07  0.1665E-02  0.9944E-04  0.7548E+02
   -1.200008   30.59584  0.1005E-12  0.1534E-04  0.4177E-07  0.1687E-02  0.9364E-04  0.1464E+02
   -1.250009   30.59634  0.1005E-12  0.1525E-04  0.4222E-07  0.1658E-02  0.8809E-04  0.1547E+02
   -1.300011   30.59685  0.1005E-12  0.1513E-04  0.4285E-07  0.1610E-02  0.8274E-04  0.1816E+02
   -1.350012   30.59737  0.1005E-12  0.1497E-04  0.4373E-07  0.1553E-02  0.7757E-04  0.2152E+02
   -1.400013   30.59791  0.1005E-12  0.1479E-04  0.4492E-07  0.1479E-02  0.7252E-04  0.2660E+02
   -1.450014   30.59847  0.1005E-12  0.1457E-04  0.4654E-07  0.1403E-02  0.6759E-04  0.3350E+02
   -1.500014   30.59906  0.1005E-12  0.1429E-04  0.4880E-07  0.1294E-02  0.6275E-04  0.4531E+02
   -1.550015   30.59971  0.1005E-12  0.1396E-04  0.5198E-07  0.1212E-02  0.5790E-04  0.6331E+02
   -1.600015   30.60040  0.1005E-12  0.1355E-04  0.5685E-07  0.1067E-02  0.5315E-04  0.1224E+03
   -1.650014   30.60125  0.1005E-12  0.1303E-04  0.6433E-07  0.9911E-03  0.4807E-04  0.2998E+03
   -1.700014   30.60218  0.1005E-12  0.1231E-04  0.7772E-07  0.8091E-03  0.4317E-04  0.5776E+03
   -1.750013   30.60381  0.1005E-12  0.1135E-04  0.9984E-07  0.7310E-03  0.3668E-04  0.1597E+06
   -1.800012   30.60519  0.1005E-12  0.1003E-04  0.1469E-06  0.5114E-03  0.3155E-04  0.6676E+05
   -1.850010   30.61067  0.1005E-12  0.8526E-05  0.2347E-06  0.4681E-03  0.2268E-04  0.7125E+07
   -1.900008   30.60993  0.1005E-12  0.6745E-05  0.4863E-06  0.2128E-03  0.1843E-04  0.4490E+05
   -1.950005   30.62749  0.1005E-12  0.4690E-05  0.1234E-05  0.1812E-03  0.9936E-05 -0.9677E+06
   -2.000002   30.63003  0.1005E-12  0.0000E+00  0.0000E+00  0.0000E+00  0.1792E-04  0.0000E+00
