 1 - depth, m
 2 - temperature, C
 3 - salinity, kg/kg
 4 - turbulent kinetic energy, m**2/s**2
 5 - dissipation rate, m**2/s**3
 6 - kinematic heat conductance, m**2/s
 7 - modulus of horizontal velocity, m/s
 8 - Richardson number, n/d
   -0.000000   31.41404  0.1914E-13  0.5283E-05  0.3429E-06  0.5127E-04  0.4867E-03  0.5363E+05
   -0.049997   31.44947  0.1914E-13  0.9295E-05  0.1525E-06  0.1953E-03  0.2744E-03  0.8828E+04
   -0.099994   31.46124  0.1914E-13  0.1121E-04  0.1060E-06  0.4300E-03  0.2025E-03  0.2123E+03
   -0.149992   31.46473  0.1914E-13  0.1242E-04  0.8945E-07  0.5087E-03  0.1798E-03  0.1061E+03
   -0.199990   31.46753  0.1914E-13  0.1336E-04  0.7967E-07  0.6806E-03  0.1611E-03  0.6941E+02
   -0.249989   31.46956  0.1914E-13  0.1411E-04  0.7323E-07  0.8108E-03  0.1471E-03  0.5173E+02
   -0.299988   31.47122  0.1914E-13  0.1471E-04  0.6862E-07  0.9409E-03  0.1354E-03  0.4141E+02
   -0.349988   31.47261  0.1914E-13  0.1521E-04  0.6516E-07  0.1058E-02  0.1254E-03  0.3544E+02
   -0.399987   31.47382  0.1914E-13  0.1563E-04  0.6246E-07  0.1165E-02  0.1165E-03  0.3166E+02
   -0.449987   31.47490  0.1914E-13  0.1600E-04  0.6026E-07  0.1264E-02  0.1087E-03  0.2968E+02
   -0.499988   31.47587  0.1914E-13  0.1631E-04  0.5844E-07  0.1354E-02  0.1017E-03  0.2892E+02
   -0.549988   31.47676  0.1914E-13  0.1657E-04  0.5692E-07  0.1437E-02  0.9552E-04  0.2847E+02
   -0.599989   31.47758  0.1914E-13  0.1680E-04  0.5564E-07  0.1511E-02  0.8986E-04  0.2853E+02
   -0.649990   31.47835  0.1914E-13  0.1699E-04  0.5456E-07  0.1577E-02  0.8470E-04  0.2882E+02
   -0.699991   31.47908  0.1914E-13  0.1715E-04  0.5365E-07  0.1634E-02  0.7994E-04  0.2955E+02
   -0.749992   31.47977  0.1914E-13  0.1728E-04  0.5289E-07  0.1684E-02  0.7553E-04  0.3046E+02
   -0.799994   31.48043  0.1914E-13  0.1739E-04  0.5227E-07  0.1725E-02  0.7142E-04  0.3184E+02
   -0.849995   31.48107  0.1914E-13  0.1746E-04  0.5178E-07  0.1757E-02  0.6757E-04  0.3344E+02
   -0.899997   31.48168  0.1914E-13  0.1751E-04  0.5141E-07  0.1781E-02  0.6395E-04  0.3561E+02
   -0.949998   31.48229  0.1914E-13  0.1754E-04  0.5117E-07  0.1796E-02  0.6054E-04  0.3812E+02
   -1.000000   31.48288  0.1914E-13  0.1754E-04  0.5105E-07  0.1802E-02  0.5729E-04  0.4140E+02
   -1.050002   31.48347  0.1914E-13  0.1752E-04  0.5106E-07  0.1796E-02  0.5421E-04  0.4691E+02
   -1.100003   31.48405  0.1914E-13  0.1747E-04  0.5121E-07  0.1914E-02  0.5125E-04  0.1505E+03
   -1.150005   31.48460  0.1914E-13  0.1739E-04  0.5155E-07  0.1661E-02  0.4866E-04  0.3847E+03
   -1.200007   31.48522  0.1914E-13  0.1728E-04  0.5205E-07  0.1711E-02  0.4585E-04  0.7035E+02
   -1.250008   31.48582  0.1914E-13  0.1714E-04  0.5280E-07  0.1676E-02  0.4320E-04  0.7525E+02
   -1.300009   31.48643  0.1914E-13  0.1697E-04  0.5383E-07  0.1616E-02  0.4065E-04  0.8944E+02
   -1.350010   31.48707  0.1914E-13  0.1675E-04  0.5524E-07  0.1547E-02  0.3816E-04  0.1094E+03
   -1.400011   31.48773  0.1914E-13  0.1649E-04  0.5718E-07  0.1456E-02  0.3573E-04  0.1394E+03
   -1.450012   31.48843  0.1914E-13  0.1617E-04  0.5987E-07  0.1373E-02  0.3332E-04  0.1844E+03
   -1.500013   31.48918  0.1914E-13  0.1579E-04  0.6370E-07  0.1249E-02  0.3094E-04  0.2670E+03
   -1.550013   31.49002  0.1914E-13  0.1531E-04  0.6928E-07  0.1169E-02  0.2851E-04  0.4234E+03
   -1.600013   31.49095  0.1914E-13  0.1470E-04  0.7831E-07  0.1019E-02  0.2612E-04  0.2646E+05
   -1.650013   31.49221  0.1914E-13  0.1390E-04  0.9261E-07  0.9384E-03  0.2342E-04  0.6249E+05
   -1.700012   31.49367  0.1914E-13  0.1279E-04  0.1179E-06  0.7530E-03  0.2069E-04 -0.2278E+04
   -1.750011   31.49642  0.1914E-13  0.1147E-04  0.1583E-06  0.6802E-03  0.1700E-04  0.1820E+07
   -1.800010   31.49804  0.1914E-13  0.9838E-05  0.2471E-06  0.4544E-03  0.1455E-04  0.6565E+06
   -1.850008   31.50879  0.1914E-13  0.8225E-05  0.4165E-06  0.4450E-03  0.9651E-05  0.9663E+09
   -1.900006   31.50379  0.1914E-13  0.6561E-05  0.8764E-06  0.2096E-03  0.8045E-05 -0.3026E+07
   -1.950003   31.53069  0.1914E-13  0.4750E-05  0.2072E-05  0.2294E-03  0.4113E-05 -0.1498E+08
   -2.000000   31.52942  0.1914E-13  0.0000E+00  0.0000E+00  0.0000E+00  0.8876E-05  0.0000E+00
