 1 - depth, m
 2 - temperature, C
 3 - salinity, kg/kg
 4 - turbulent kinetic energy, m**2/s**2
 5 - dissipation rate, m**2/s**3
 6 - kinematic heat conductance, m**2/s
 7 - modulus of horizontal velocity, m/s
 8 - Richardson number, n/d
   -0.000000   30.58356  0.1092E-13  0.4834E-05  0.3008E-06  0.5016E-04  0.1376E-02  0.9833E+04
   -0.049997   30.61416  0.1092E-13  0.8310E-05  0.1341E-06  0.1797E-03  0.7813E-03  0.6080E+04
   -0.099994   30.62571  0.1092E-13  0.1008E-04  0.9256E-07  0.3999E-03  0.5745E-03  0.2524E+02
   -0.149992   30.62895  0.1092E-13  0.1120E-04  0.7768E-07  0.4827E-03  0.5074E-03  0.1240E+02
   -0.199991   30.63151  0.1092E-13  0.1207E-04  0.6898E-07  0.6453E-03  0.4532E-03  0.7950E+01
   -0.249989   30.63337  0.1092E-13  0.1276E-04  0.6329E-07  0.7713E-03  0.4126E-03  0.5860E+01
   -0.299988   30.63489  0.1092E-13  0.1332E-04  0.5925E-07  0.8974E-03  0.3789E-03  0.4667E+01
   -0.349988   30.63616  0.1092E-13  0.1379E-04  0.5622E-07  0.1011E-02  0.3500E-03  0.3984E+01
   -0.399988   30.63726  0.1092E-13  0.1419E-04  0.5387E-07  0.1116E-02  0.3245E-03  0.3553E+01
   -0.449988   30.63824  0.1092E-13  0.1453E-04  0.5196E-07  0.1213E-02  0.3020E-03  0.3327E+01
   -0.499988   30.63912  0.1092E-13  0.1482E-04  0.5039E-07  0.1302E-02  0.2821E-03  0.3240E+01
   -0.549989   30.63993  0.1092E-13  0.1508E-04  0.4908E-07  0.1384E-02  0.2644E-03  0.3187E+01
   -0.599989   30.64067  0.1092E-13  0.1530E-04  0.4798E-07  0.1458E-02  0.2483E-03  0.3194E+01
   -0.649990   30.64137  0.1092E-13  0.1549E-04  0.4705E-07  0.1524E-02  0.2336E-03  0.3223E+01
   -0.699992   30.64203  0.1092E-13  0.1566E-04  0.4627E-07  0.1583E-02  0.2201E-03  0.3304E+01
   -0.749993   30.64265  0.1092E-13  0.1579E-04  0.4563E-07  0.1634E-02  0.2076E-03  0.3402E+01
   -0.799994   30.64325  0.1092E-13  0.1591E-04  0.4510E-07  0.1678E-02  0.1960E-03  0.3555E+01
   -0.849996   30.64383  0.1092E-13  0.1600E-04  0.4468E-07  0.1713E-02  0.1852E-03  0.3726E+01
   -0.899998   30.64439  0.1092E-13  0.1607E-04  0.4436E-07  0.1741E-02  0.1750E-03  0.3963E+01
   -0.949999   30.64493  0.1092E-13  0.1611E-04  0.4415E-07  0.1760E-02  0.1654E-03  0.4231E+01
   -1.000001   30.64547  0.1092E-13  0.1614E-04  0.4404E-07  0.1771E-02  0.1563E-03  0.4583E+01
   -1.050003   30.64600  0.1092E-13  0.1614E-04  0.4404E-07  0.1772E-02  0.1477E-03  0.5181E+01
   -1.100004   30.64652  0.1092E-13  0.1613E-04  0.4415E-07  0.1859E-02  0.1395E-03  0.1724E+02
   -1.150006   30.64702  0.1092E-13  0.1609E-04  0.4440E-07  0.1690E-02  0.1322E-03  0.3903E+02
   -1.200008   30.64756  0.1092E-13  0.1602E-04  0.4478E-07  0.1715E-02  0.1246E-03  0.7494E+01
   -1.250009   30.64810  0.1092E-13  0.1593E-04  0.4533E-07  0.1685E-02  0.1173E-03  0.8016E+01
   -1.300011   30.64864  0.1092E-13  0.1581E-04  0.4610E-07  0.1635E-02  0.1103E-03  0.9363E+01
   -1.350012   30.64920  0.1092E-13  0.1566E-04  0.4714E-07  0.1576E-02  0.1035E-03  0.1125E+02
   -1.400013   30.64977  0.1092E-13  0.1548E-04  0.4854E-07  0.1499E-02  0.9683E-04  0.1387E+02
   -1.450014   30.65038  0.1092E-13  0.1525E-04  0.5043E-07  0.1422E-02  0.9030E-04  0.1775E+02
   -1.500014   30.65103  0.1092E-13  0.1496E-04  0.5304E-07  0.1311E-02  0.8390E-04  0.2411E+02
   -1.550014   30.65173  0.1092E-13  0.1462E-04  0.5673E-07  0.1227E-02  0.7747E-04  0.3492E+02
   -1.600015   30.65250  0.1092E-13  0.1418E-04  0.6239E-07  0.1081E-02  0.7116E-04  0.6781E+02
   -1.650014   30.65344  0.1092E-13  0.1362E-04  0.7113E-07  0.1001E-02  0.6435E-04  0.1739E+04
   -1.700014   30.65451  0.1092E-13  0.1285E-04  0.8647E-07  0.8187E-03  0.5770E-04 -0.1888E+04
   -1.750013   30.65634  0.1092E-13  0.1185E-04  0.1115E-06  0.7392E-03  0.4899E-04  0.5839E+06
   -1.800012   30.65786  0.1092E-13  0.1049E-04  0.1647E-06  0.5198E-03  0.4222E-04  0.9215E+05
   -1.850010   30.66415  0.1092E-13  0.8971E-05  0.2660E-06  0.4763E-03  0.3044E-04  0.7122E+07
   -1.900008   30.66310  0.1092E-13  0.7146E-05  0.5515E-06  0.2172E-03  0.2479E-04  0.1755E+06
   -1.950005   30.68250  0.1092E-13  0.5001E-05  0.1380E-05  0.1867E-03  0.1354E-04 -0.3486E+06
   -2.000002   30.68554  0.1092E-13  0.0000E+00  0.0000E+00  0.0000E+00  0.2419E-04  0.0000E+00
