 1 - depth, m
 2 - temperature, C
 3 - salinity, kg/kg
 4 - turbulent kinetic energy, m**2/s**2
 5 - dissipation rate, m**2/s**3
 6 - kinematic heat conductance, m**2/s
 7 - modulus of horizontal velocity, m/s
 8 - Richardson number, n/d
   -0.000000   31.23768  0.8718E-13  0.5109E-05  0.3234E-06  0.4997E-04  0.4897E-03  0.5198E+05
   -0.049997   31.27241  0.8718E-13  0.9001E-05  0.1440E-06  0.1937E-03  0.2744E-03  0.1974E+05
   -0.099994   31.28362  0.8718E-13  0.1084E-04  0.1003E-06  0.4228E-03  0.2028E-03  0.2093E+03
   -0.149992   31.28701  0.8718E-13  0.1200E-04  0.8472E-07  0.5026E-03  0.1799E-03  0.1042E+03
   -0.199990   31.28972  0.8718E-13  0.1290E-04  0.7547E-07  0.6702E-03  0.1611E-03  0.6832E+02
   -0.249989   31.29169  0.8718E-13  0.1361E-04  0.6935E-07  0.7987E-03  0.1470E-03  0.5087E+02
   -0.299988   31.29330  0.8718E-13  0.1420E-04  0.6497E-07  0.9262E-03  0.1353E-03  0.4071E+02
   -0.349988   31.29464  0.8718E-13  0.1468E-04  0.6166E-07  0.1042E-02  0.1252E-03  0.3483E+02
   -0.399987   31.29581  0.8718E-13  0.1508E-04  0.5908E-07  0.1147E-02  0.1162E-03  0.3110E+02
   -0.449987   31.29685  0.8718E-13  0.1542E-04  0.5697E-07  0.1244E-02  0.1083E-03  0.2915E+02
   -0.499988   31.29779  0.8718E-13  0.1572E-04  0.5523E-07  0.1333E-02  0.1013E-03  0.2840E+02
   -0.549988   31.29864  0.8718E-13  0.1597E-04  0.5376E-07  0.1414E-02  0.9506E-04  0.2795E+02
   -0.599989   31.29944  0.8718E-13  0.1619E-04  0.5253E-07  0.1488E-02  0.8937E-04  0.2801E+02
   -0.649990   31.30018  0.8718E-13  0.1637E-04  0.5148E-07  0.1553E-02  0.8418E-04  0.2828E+02
   -0.699991   31.30087  0.8718E-13  0.1652E-04  0.5060E-07  0.1610E-02  0.7940E-04  0.2898E+02
   -0.749992   31.30154  0.8718E-13  0.1665E-04  0.4986E-07  0.1660E-02  0.7497E-04  0.2986E+02
   -0.799994   31.30217  0.8718E-13  0.1675E-04  0.4925E-07  0.1701E-02  0.7085E-04  0.3121E+02
   -0.849995   31.30278  0.8718E-13  0.1682E-04  0.4876E-07  0.1734E-02  0.6699E-04  0.3275E+02
   -0.899997   31.30337  0.8718E-13  0.1687E-04  0.4838E-07  0.1759E-02  0.6336E-04  0.3487E+02
   -0.949999   31.30395  0.8718E-13  0.1690E-04  0.4812E-07  0.1774E-02  0.5994E-04  0.3729E+02
   -1.000000   31.30452  0.8718E-13  0.1690E-04  0.4798E-07  0.1782E-02  0.5669E-04  0.4049E+02
   -1.050002   31.30508  0.8718E-13  0.1688E-04  0.4795E-07  0.1778E-02  0.5361E-04  0.4584E+02
   -1.100004   31.30563  0.8718E-13  0.1684E-04  0.4806E-07  0.1886E-02  0.5066E-04  0.1479E+03
   -1.150005   31.30615  0.8718E-13  0.1677E-04  0.4834E-07  0.1659E-02  0.4806E-04  0.3728E+03
   -1.200007   31.30674  0.8718E-13  0.1667E-04  0.4877E-07  0.1701E-02  0.4528E-04  0.6839E+02
   -1.250008   31.30731  0.8718E-13  0.1654E-04  0.4941E-07  0.1668E-02  0.4265E-04  0.7324E+02
   -1.300009   31.30788  0.8718E-13  0.1638E-04  0.5031E-07  0.1611E-02  0.4011E-04  0.8680E+02
   -1.350011   31.30848  0.8718E-13  0.1618E-04  0.5155E-07  0.1546E-02  0.3764E-04  0.1061E+03
   -1.400012   31.30910  0.8718E-13  0.1594E-04  0.5325E-07  0.1458E-02  0.3523E-04  0.1348E+03
   -1.450012   31.30975  0.8718E-13  0.1565E-04  0.5560E-07  0.1380E-02  0.3285E-04  0.1778E+03
   -1.500013   31.31045  0.8718E-13  0.1530E-04  0.5893E-07  0.1255E-02  0.3051E-04  0.2571E+03
   -1.550013   31.31124  0.8718E-13  0.1486E-04  0.6375E-07  0.1182E-02  0.2813E-04  0.3953E+03
   -1.600013   31.31208  0.8718E-13  0.1431E-04  0.7156E-07  0.1026E-02  0.2581E-04  0.1384E+04
   -1.650013   31.31322  0.8718E-13  0.1359E-04  0.8375E-07  0.9549E-03  0.2319E-04  0.4195E+04
   -1.700012   31.31447  0.8718E-13  0.1259E-04  0.1054E-06  0.7617E-03  0.2064E-04  0.2146E+05
   -1.750011   31.31701  0.8718E-13  0.1135E-04  0.1406E-06  0.6976E-03  0.1705E-04  0.1386E+07
   -1.800010   31.31842  0.8718E-13  0.9836E-05  0.2157E-06  0.4674E-03  0.1469E-04  0.9917E+06
   -1.850008   31.32774  0.8718E-13  0.8268E-05  0.3622E-06  0.4506E-03  0.1002E-04  0.1846E+09
   -1.900006   31.32370  0.8718E-13  0.6611E-05  0.7638E-06  0.2127E-03  0.8312E-05 -0.2845E+07
   -1.950004   31.34750  0.8718E-13  0.4720E-05  0.1840E-05  0.2158E-03  0.4358E-05 -0.4559E+07
   -2.000001   31.34829  0.8718E-13  0.0000E+00  0.0000E+00  0.0000E+00  0.8792E-05  0.0000E+00
