 1 - depth, m
 2 - temperature, C
 3 - salinity, kg/kg
 4 - turbulent kinetic energy, m**2/s**2
 5 - dissipation rate, m**2/s**3
 6 - kinematic heat conductance, m**2/s
 7 - modulus of horizontal velocity, m/s
 8 - Richardson number, n/d
   -0.000000   30.86365  0.6674E-13  0.5102E-05  0.3333E-06  0.5305E-04  0.1117E-02  0.1143E+03
   -0.049997   30.89615  0.6674E-13  0.8766E-05  0.1482E-06  0.1767E-03  0.6511E-03  0.2537E+02
   -0.099994   30.90947  0.6674E-13  0.1066E-04  0.1012E-06  0.4135E-03  0.4719E-03  0.4312E+02
   -0.149992   30.91294  0.6674E-13  0.1182E-04  0.8513E-07  0.4856E-03  0.4185E-03  0.2104E+02
   -0.199990   30.91578  0.6674E-13  0.1273E-04  0.7566E-07  0.6520E-03  0.3742E-03  0.1357E+02
   -0.249989   30.91783  0.6674E-13  0.1344E-04  0.6947E-07  0.7771E-03  0.3412E-03  0.1009E+02
   -0.299988   30.91950  0.6674E-13  0.1402E-04  0.6505E-07  0.9021E-03  0.3137E-03  0.8047E+01
   -0.349988   30.92090  0.6674E-13  0.1449E-04  0.6174E-07  0.1014E-02  0.2900E-03  0.6920E+01
   -0.399987   30.92211  0.6674E-13  0.1489E-04  0.5917E-07  0.1116E-02  0.2691E-03  0.6178E+01
   -0.449987   30.92320  0.6674E-13  0.1523E-04  0.5708E-07  0.1210E-02  0.2507E-03  0.5835E+01
   -0.499988   30.92417  0.6674E-13  0.1551E-04  0.5536E-07  0.1295E-02  0.2344E-03  0.5687E+01
   -0.549988   30.92507  0.6674E-13  0.1576E-04  0.5392E-07  0.1372E-02  0.2197E-03  0.5654E+01
   -0.599989   30.92590  0.6674E-13  0.1597E-04  0.5272E-07  0.1441E-02  0.2064E-03  0.5673E+01
   -0.649990   30.92667  0.6674E-13  0.1614E-04  0.5171E-07  0.1501E-02  0.1943E-03  0.5798E+01
   -0.699991   30.92741  0.6674E-13  0.1628E-04  0.5087E-07  0.1553E-02  0.1831E-03  0.5956E+01
   -0.749992   30.92811  0.6674E-13  0.1639E-04  0.5018E-07  0.1597E-02  0.1728E-03  0.6224E+01
   -0.799994   30.92878  0.6674E-13  0.1647E-04  0.4963E-07  0.1632E-02  0.1632E-03  0.6528E+01
   -0.849995   30.92943  0.6674E-13  0.1653E-04  0.4921E-07  0.1658E-02  0.1542E-03  0.6963E+01
   -0.899997   30.93007  0.6674E-13  0.1656E-04  0.4891E-07  0.1675E-02  0.1457E-03  0.7453E+01
   -0.949998   30.93069  0.6674E-13  0.1656E-04  0.4874E-07  0.1682E-02  0.1377E-03  0.8123E+01
   -1.000000   30.93130  0.6674E-13  0.1654E-04  0.4870E-07  0.1681E-02  0.1301E-03  0.8890E+01
   -1.050002   30.93191  0.6674E-13  0.1649E-04  0.4881E-07  0.1666E-02  0.1229E-03  0.1029E+02
   -1.100003   30.93252  0.6674E-13  0.1642E-04  0.4907E-07  0.1805E-02  0.1159E-03  0.3190E+02
   -1.150005   30.93308  0.6674E-13  0.1631E-04  0.4954E-07  0.1487E-02  0.1100E-03  0.9324E+02
   -1.200007   30.93376  0.6674E-13  0.1617E-04  0.5021E-07  0.1552E-02  0.1032E-03  0.1649E+02
   -1.250008   30.93440  0.6674E-13  0.1600E-04  0.5116E-07  0.1513E-02  0.9700E-04  0.1792E+02
   -1.300009   30.93506  0.6674E-13  0.1578E-04  0.5247E-07  0.1439E-02  0.9098E-04  0.2212E+02
   -1.350010   30.93576  0.6674E-13  0.1552E-04  0.5426E-07  0.1371E-02  0.8509E-04  0.2796E+02
   -1.400011   30.93649  0.6674E-13  0.1520E-04  0.5676E-07  0.1253E-02  0.7933E-04  0.3781E+02
   -1.450012   30.93731  0.6674E-13  0.1481E-04  0.6028E-07  0.1195E-02  0.7352E-04  0.5237E+02
   -1.500013   30.93818  0.6674E-13  0.1434E-04  0.6548E-07  0.1029E-02  0.6789E-04  0.8408E+02
   -1.550013   30.93926  0.6674E-13  0.1375E-04  0.7307E-07  0.1010E-02  0.6183E-04  0.1387E+03
   -1.600013   30.94037  0.6674E-13  0.1300E-04  0.8640E-07  0.8164E-03  0.5634E-04  0.5121E+03
   -1.650013   30.94219  0.6674E-13  0.1193E-04  0.1060E-06  0.7912E-03  0.4903E-04 -0.1064E+03
   -1.700012   30.94397  0.6674E-13  0.1046E-04  0.1433E-06  0.5549E-03  0.4270E-04 -0.5944E+05
   -1.750011   30.94942  0.6674E-13  0.8799E-05  0.2047E-06  0.5543E-03  0.3058E-04  0.8479E+06
   -1.800010   30.94988  0.6674E-13  0.7292E-05  0.3330E-06  0.3301E-03  0.2680E-04 -0.5794E+04
   -1.850008   30.97091  0.6674E-13  0.5947E-05  0.6012E-06  0.3729E-03  0.1424E-04  0.8443E+10
   -1.900006   30.95488  0.6674E-13  0.4917E-05  0.1274E-05  0.1808E-03  0.1321E-04 -0.1845E+07
   -1.950003   30.99225  0.6674E-13  0.3708E-05  0.2823E-05  0.2752E-03  0.5887E-05 -0.4034E+06
   -2.000000   30.98792  0.6674E-13  0.0000E+00  0.0000E+00  0.0000E+00  0.1798E-04  0.0000E+00
