 1 - depth, m
 2 - temperature, C
 3 - salinity, kg/kg
 4 - turbulent kinetic energy, m**2/s**2
 5 - dissipation rate, m**2/s**3
 6 - kinematic heat conductance, m**2/s
 7 - modulus of horizontal velocity, m/s
 8 - Richardson number, n/d
   -0.000000   29.47334  0.4069E-14  0.4281E-05  0.2482E-06  0.4721E-04  0.1328E-02  0.5852E+04
   -0.049997   29.50026  0.4069E-14  0.7432E-05  0.1106E-06  0.1726E-03  0.7470E-03  0.1427E+05
   -0.099994   29.51030  0.4069E-14  0.9017E-05  0.7664E-07  0.3866E-03  0.5468E-03  0.2485E+02
   -0.149992   29.51312  0.4069E-14  0.1002E-04  0.6457E-07  0.4681E-03  0.4822E-03  0.1213E+02
   -0.199991   29.51536  0.4069E-14  0.1080E-04  0.5751E-07  0.6225E-03  0.4303E-03  0.7850E+01
   -0.249989   29.51700  0.4069E-14  0.1142E-04  0.5290E-07  0.7443E-03  0.3913E-03  0.5808E+01
   -0.299989   29.51834  0.4069E-14  0.1194E-04  0.4962E-07  0.8647E-03  0.3588E-03  0.4646E+01
   -0.349988   29.51947  0.4069E-14  0.1237E-04  0.4718E-07  0.9741E-03  0.3310E-03  0.3985E+01
   -0.399988   29.52046  0.4069E-14  0.1274E-04  0.4530E-07  0.1074E-02  0.3064E-03  0.3567E+01
   -0.449988   29.52134  0.4069E-14  0.1306E-04  0.4377E-07  0.1167E-02  0.2847E-03  0.3354E+01
   -0.499988   29.52213  0.4069E-14  0.1334E-04  0.4252E-07  0.1253E-02  0.2656E-03  0.3278E+01
   -0.549989   29.52286  0.4069E-14  0.1358E-04  0.4149E-07  0.1332E-02  0.2485E-03  0.3240E+01
   -0.599990   29.52353  0.4069E-14  0.1380E-04  0.4064E-07  0.1403E-02  0.2330E-03  0.3259E+01
   -0.649991   29.52416  0.4069E-14  0.1398E-04  0.3993E-07  0.1467E-02  0.2189E-03  0.3308E+01
   -0.699992   29.52476  0.4069E-14  0.1415E-04  0.3934E-07  0.1524E-02  0.2059E-03  0.3401E+01
   -0.749993   29.52533  0.4069E-14  0.1429E-04  0.3886E-07  0.1573E-02  0.1940E-03  0.3523E+01
   -0.799995   29.52588  0.4069E-14  0.1440E-04  0.3848E-07  0.1615E-02  0.1829E-03  0.3693E+01
   -0.849996   29.52641  0.4069E-14  0.1450E-04  0.3819E-07  0.1650E-02  0.1725E-03  0.3895E+01
   -0.899998   29.52692  0.4069E-14  0.1458E-04  0.3799E-07  0.1677E-02  0.1628E-03  0.4155E+01
   -0.950000   29.52742  0.4069E-14  0.1464E-04  0.3788E-07  0.1696E-02  0.1536E-03  0.4462E+01
   -1.000002   29.52792  0.4069E-14  0.1468E-04  0.3785E-07  0.1708E-02  0.1450E-03  0.4845E+01
   -1.050003   29.52841  0.4069E-14  0.1470E-04  0.3791E-07  0.1710E-02  0.1368E-03  0.5519E+01
   -1.100005   29.52890  0.4069E-14  0.1471E-04  0.3807E-07  0.1786E-02  0.1290E-03  0.1857E+02
   -1.150007   29.52936  0.4069E-14  0.1469E-04  0.3835E-07  0.1644E-02  0.1220E-03  0.4089E+02
   -1.200008   29.52987  0.4069E-14  0.1465E-04  0.3873E-07  0.1660E-02  0.1148E-03  0.8009E+01
   -1.250010   29.53037  0.4069E-14  0.1459E-04  0.3927E-07  0.1631E-02  0.1079E-03  0.8607E+01
   -1.300011   29.53088  0.4069E-14  0.1450E-04  0.3998E-07  0.1585E-02  0.1013E-03  0.1008E+02
   -1.350012   29.53140  0.4069E-14  0.1438E-04  0.4091E-07  0.1529E-02  0.9492E-04  0.1208E+02
   -1.400013   29.53195  0.4069E-14  0.1424E-04  0.4214E-07  0.1458E-02  0.8869E-04  0.1487E+02
   -1.450014   29.53252  0.4069E-14  0.1405E-04  0.4377E-07  0.1383E-02  0.8259E-04  0.1890E+02
   -1.500015   29.53313  0.4069E-14  0.1382E-04  0.4597E-07  0.1279E-02  0.7661E-04  0.2534E+02
   -1.550015   29.53380  0.4069E-14  0.1353E-04  0.4902E-07  0.1195E-02  0.7064E-04  0.3558E+02
   -1.600015   29.53452  0.4069E-14  0.1317E-04  0.5353E-07  0.1055E-02  0.6478E-04  0.6094E+02
   -1.650015   29.53537  0.4069E-14  0.1271E-04  0.6036E-07  0.9782E-03  0.5862E-04  0.4813E+03
   -1.700015   29.53632  0.4069E-14  0.1207E-04  0.7259E-07  0.8009E-03  0.5266E-04 -0.1192E+04
   -1.750014   29.53795  0.4069E-14  0.1118E-04  0.9286E-07  0.7230E-03  0.4493E-04 -0.2664E+05
   -1.800012   29.53948  0.4069E-14  0.9949E-05  0.1336E-06  0.5067E-03  0.3852E-04  0.3664E+06
   -1.850011   29.54471  0.4069E-14  0.8488E-05  0.2113E-06  0.4593E-03  0.2802E-04  0.3917E+09
   -1.900009   29.54456  0.4069E-14  0.6739E-05  0.4354E-06  0.2074E-03  0.2254E-04  0.5845E+06
   -1.950006   29.56268  0.4069E-14  0.4671E-05  0.1116E-05  0.1724E-03  0.1225E-04 -0.3721E+07
   -2.000003   29.56545  0.4069E-14  0.0000E+00  0.0000E+00  0.0000E+00  0.2147E-04  0.0000E+00
