 1 - depth, m
 2 - temperature, C
 3 - salinity, kg/kg
 4 - turbulent kinetic energy, m**2/s**2
 5 - dissipation rate, m**2/s**3
 6 - kinematic heat conductance, m**2/s
 7 - modulus of horizontal velocity, m/s
 8 - Richardson number, n/d
   -0.000000   29.47188  0.8009E-13  0.4515E-05  0.2669E-06  0.4863E-04  0.1882E-02  0.4107E+04
   -0.049997   29.50040  0.8009E-13  0.7660E-05  0.1189E-06  0.1695E-03  0.1074E-02  0.6878E+03
   -0.099994   29.51136  0.8009E-13  0.9272E-05  0.8163E-07  0.3835E-03  0.7833E-03  0.1337E+02
   -0.149992   29.51443  0.8009E-13  0.1028E-04  0.6850E-07  0.4625E-03  0.6907E-03  0.6461E+01
   -0.199991   29.51687  0.8009E-13  0.1106E-04  0.6078E-07  0.6155E-03  0.6158E-03  0.4154E+01
   -0.249989   29.51865  0.8009E-13  0.1167E-04  0.5571E-07  0.7362E-03  0.5596E-03  0.3058E+01
   -0.299989   29.52009  0.8009E-13  0.1218E-04  0.5207E-07  0.8554E-03  0.5128E-03  0.2429E+01
   -0.349988   29.52130  0.8009E-13  0.1260E-04  0.4935E-07  0.9638E-03  0.4727E-03  0.2076E+01
   -0.399988   29.52235  0.8009E-13  0.1295E-04  0.4722E-07  0.1063E-02  0.4373E-03  0.1848E+01
   -0.449988   29.52328  0.8009E-13  0.1325E-04  0.4548E-07  0.1155E-02  0.4062E-03  0.1736E+01
   -0.499988   29.52411  0.8009E-13  0.1351E-04  0.4404E-07  0.1240E-02  0.3787E-03  0.1689E+01
   -0.549989   29.52488  0.8009E-13  0.1374E-04  0.4283E-07  0.1318E-02  0.3540E-03  0.1668E+01
   -0.599990   29.52558  0.8009E-13  0.1393E-04  0.4181E-07  0.1388E-02  0.3318E-03  0.1668E+01
   -0.649991   29.52624  0.8009E-13  0.1409E-04  0.4094E-07  0.1452E-02  0.3116E-03  0.1690E+01
   -0.699992   29.52686  0.8009E-13  0.1423E-04  0.4020E-07  0.1508E-02  0.2930E-03  0.1728E+01
   -0.749993   29.52745  0.8009E-13  0.1435E-04  0.3958E-07  0.1558E-02  0.2758E-03  0.1785E+01
   -0.799995   29.52801  0.8009E-13  0.1444E-04  0.3905E-07  0.1600E-02  0.2599E-03  0.1859E+01
   -0.849996   29.52855  0.8009E-13  0.1452E-04  0.3863E-07  0.1634E-02  0.2451E-03  0.1955E+01
   -0.899998   29.52907  0.8009E-13  0.1457E-04  0.3829E-07  0.1661E-02  0.2312E-03  0.2071E+01
   -0.950000   29.52958  0.8009E-13  0.1460E-04  0.3803E-07  0.1681E-02  0.2181E-03  0.2217E+01
   -1.000002   29.53007  0.8009E-13  0.1462E-04  0.3787E-07  0.1692E-02  0.2057E-03  0.2390E+01
   -1.050003   29.53056  0.8009E-13  0.1461E-04  0.3779E-07  0.1695E-02  0.1940E-03  0.2710E+01
   -1.100005   29.53104  0.8009E-13  0.1459E-04  0.3781E-07  0.1771E-02  0.1828E-03  0.9051E+01
   -1.150007   29.53150  0.8009E-13  0.1454E-04  0.3794E-07  0.1629E-02  0.1729E-03  0.2001E+02
   -1.200008   29.53199  0.8009E-13  0.1448E-04  0.3817E-07  0.1646E-02  0.1627E-03  0.3883E+01
   -1.250010   29.53248  0.8009E-13  0.1439E-04  0.3855E-07  0.1618E-02  0.1529E-03  0.4128E+01
   -1.300011   29.53297  0.8009E-13  0.1428E-04  0.3910E-07  0.1573E-02  0.1434E-03  0.4813E+01
   -1.350012   29.53347  0.8009E-13  0.1414E-04  0.3986E-07  0.1518E-02  0.1343E-03  0.5729E+01
   -1.400013   29.53398  0.8009E-13  0.1397E-04  0.4090E-07  0.1448E-02  0.1255E-03  0.7022E+01
   -1.450014   29.53452  0.8009E-13  0.1376E-04  0.4231E-07  0.1373E-02  0.1168E-03  0.8863E+01
   -1.500015   29.53509  0.8009E-13  0.1351E-04  0.4426E-07  0.1269E-02  0.1083E-03  0.1182E+02
   -1.550015   29.53571  0.8009E-13  0.1320E-04  0.4701E-07  0.1183E-02  0.9985E-04  0.1648E+02
   -1.600015   29.53638  0.8009E-13  0.1283E-04  0.5110E-07  0.1045E-02  0.9154E-04  0.2700E+02
   -1.650015   29.53715  0.8009E-13  0.1235E-04  0.5736E-07  0.9666E-03  0.8287E-04  0.1983E+03
   -1.700015   29.53802  0.8009E-13  0.1171E-04  0.6875E-07  0.7943E-03  0.7443E-04  0.7444E+04
   -1.750014   29.53949  0.8009E-13  0.1082E-04  0.8792E-07  0.7100E-03  0.6359E-04  0.1437E+05
   -1.800013   29.54094  0.8009E-13  0.9561E-05  0.1275E-06  0.5011E-03  0.5430E-04  0.1311E+05
   -1.850011   29.54574  0.8009E-13  0.8076E-05  0.2009E-06  0.4478E-03  0.3936E-04  0.2139E+07
   -1.900009   29.54551  0.8009E-13  0.6310E-05  0.4176E-06  0.1997E-03  0.3145E-04  0.9872E+05
   -1.950006   29.56216  0.8009E-13  0.4373E-05  0.1063E-05  0.1743E-03  0.1676E-04 -0.1884E+06
   -2.000003   29.56348  0.8009E-13  0.0000E+00  0.0000E+00  0.0000E+00  0.3032E-04  0.0000E+00
