 1 - depth, m
 2 - temperature, C
 3 - salinity, kg/kg
 4 - turbulent kinetic energy, m**2/s**2
 5 - dissipation rate, m**2/s**3
 6 - kinematic heat conductance, m**2/s
 7 - modulus of horizontal velocity, m/s
 8 - Richardson number, n/d
   -0.000000   30.75487  0.1699E-14  0.4995E-05  0.3169E-06  0.5141E-04  0.1504E-02  0.4482E+04
   -0.049997   30.78644  0.1699E-14  0.8536E-05  0.1415E-06  0.1788E-03  0.8618E-03  0.7851E+04
   -0.099994   30.79868  0.1699E-14  0.1036E-04  0.9731E-07  0.4020E-03  0.6325E-03  0.2152E+02
   -0.149992   30.80208  0.1699E-14  0.1150E-04  0.8155E-07  0.4828E-03  0.5587E-03  0.1055E+02
   -0.199991   30.80478  0.1699E-14  0.1238E-04  0.7233E-07  0.6466E-03  0.4990E-03  0.6751E+01
   -0.249989   30.80674  0.1699E-14  0.1308E-04  0.6628E-07  0.7731E-03  0.4544E-03  0.4979E+01
   -0.299988   30.80832  0.1699E-14  0.1365E-04  0.6197E-07  0.8995E-03  0.4173E-03  0.3952E+01
   -0.349988   30.80965  0.1699E-14  0.1412E-04  0.5873E-07  0.1014E-02  0.3855E-03  0.3377E+01
   -0.399988   30.81080  0.1699E-14  0.1452E-04  0.5621E-07  0.1118E-02  0.3574E-03  0.3003E+01
   -0.449988   30.81182  0.1699E-14  0.1485E-04  0.5415E-07  0.1215E-02  0.3327E-03  0.2819E+01
   -0.499988   30.81274  0.1699E-14  0.1514E-04  0.5244E-07  0.1304E-02  0.3108E-03  0.2736E+01
   -0.549989   30.81358  0.1699E-14  0.1539E-04  0.5101E-07  0.1386E-02  0.2912E-03  0.2700E+01
   -0.599989   30.81436  0.1699E-14  0.1561E-04  0.4980E-07  0.1459E-02  0.2735E-03  0.2694E+01
   -0.649990   30.81508  0.1699E-14  0.1579E-04  0.4877E-07  0.1525E-02  0.2573E-03  0.2728E+01
   -0.699992   30.81576  0.1699E-14  0.1594E-04  0.4789E-07  0.1583E-02  0.2424E-03  0.2782E+01
   -0.749993   30.81641  0.1699E-14  0.1606E-04  0.4715E-07  0.1634E-02  0.2287E-03  0.2875E+01
   -0.799994   30.81702  0.1699E-14  0.1616E-04  0.4653E-07  0.1677E-02  0.2159E-03  0.2985E+01
   -0.849996   30.81762  0.1699E-14  0.1623E-04  0.4602E-07  0.1712E-02  0.2040E-03  0.3141E+01
   -0.899998   30.81819  0.1699E-14  0.1628E-04  0.4562E-07  0.1738E-02  0.1928E-03  0.3318E+01
   -0.949999   30.81875  0.1699E-14  0.1631E-04  0.4532E-07  0.1756E-02  0.1822E-03  0.3555E+01
   -1.000001   30.81929  0.1699E-14  0.1632E-04  0.4512E-07  0.1766E-02  0.1722E-03  0.3824E+01
   -1.050003   30.81983  0.1699E-14  0.1630E-04  0.4504E-07  0.1766E-02  0.1627E-03  0.4333E+01
   -1.100004   30.82036  0.1699E-14  0.1626E-04  0.4507E-07  0.1860E-02  0.1536E-03  0.1422E+02
   -1.150006   30.82086  0.1699E-14  0.1620E-04  0.4525E-07  0.1672E-02  0.1456E-03  0.3293E+02
   -1.200008   30.82141  0.1699E-14  0.1611E-04  0.4556E-07  0.1704E-02  0.1372E-03  0.6269E+01
   -1.250009   30.82195  0.1699E-14  0.1599E-04  0.4605E-07  0.1672E-02  0.1291E-03  0.6650E+01
   -1.300010   30.82249  0.1699E-14  0.1585E-04  0.4676E-07  0.1621E-02  0.1214E-03  0.7805E+01
   -1.350012   30.82305  0.1699E-14  0.1567E-04  0.4775E-07  0.1560E-02  0.1139E-03  0.9331E+01
   -1.400013   30.82362  0.1699E-14  0.1545E-04  0.4912E-07  0.1480E-02  0.1065E-03  0.1159E+02
   -1.450014   30.82423  0.1699E-14  0.1519E-04  0.5100E-07  0.1401E-02  0.9934E-04  0.1480E+02
   -1.500014   30.82486  0.1699E-14  0.1488E-04  0.5365E-07  0.1286E-02  0.9226E-04  0.2033E+02
   -1.550014   30.82556  0.1699E-14  0.1449E-04  0.5744E-07  0.1204E-02  0.8513E-04  0.2929E+02
   -1.600014   30.82632  0.1699E-14  0.1402E-04  0.6335E-07  0.1057E-02  0.7814E-04  0.6558E+02
   -1.650014   30.82725  0.1699E-14  0.1340E-04  0.7264E-07  0.9785E-03  0.7056E-04  0.1211E+04
   -1.700014   30.82833  0.1699E-14  0.1256E-04  0.8920E-07  0.7954E-03  0.6305E-04  0.4231E+04
   -1.750013   30.83024  0.1699E-14  0.1147E-04  0.1161E-06  0.7175E-03  0.5305E-04  0.7207E+05
   -1.800012   30.83167  0.1699E-14  0.1002E-04  0.1739E-06  0.4981E-03  0.4560E-04  0.2059E+06
   -1.850010   30.83842  0.1699E-14  0.8456E-05  0.2836E-06  0.4597E-03  0.3199E-04  0.9301E+08
   -1.900008   30.83663  0.1699E-14  0.6650E-05  0.5925E-06  0.2086E-03  0.2614E-04 -0.1167E+06
   -1.950005   30.85636  0.1699E-14  0.4689E-05  0.1465E-05  0.1973E-03  0.1376E-04 -0.3269E+06
   -2.000002   30.85756  0.1699E-14  0.0000E+00  0.0000E+00  0.0000E+00  0.2650E-04  0.0000E+00
