 1 - depth, m
 2 - temperature, C
 3 - salinity, kg/kg
 4 - turbulent kinetic energy, m**2/s**2
 5 - dissipation rate, m**2/s**3
 6 - kinematic heat conductance, m**2/s
 7 - modulus of horizontal velocity, m/s
 8 - Richardson number, n/d
   -0.000000   30.90674  0.4147E-14  0.5106E-05  0.3281E-06  0.5138E-04  0.1347E-02  0.1183E+05
   -0.049997   30.93946  0.4147E-14  0.8755E-05  0.1461E-06  0.1836E-03  0.7674E-03  0.9294E+04
   -0.099994   30.95185  0.4147E-14  0.1062E-04  0.1007E-06  0.4077E-03  0.5648E-03  0.2751E+02
   -0.149992   30.95530  0.4147E-14  0.1179E-04  0.8444E-07  0.4905E-03  0.4993E-03  0.1356E+02
   -0.199991   30.95804  0.4147E-14  0.1270E-04  0.7491E-07  0.6566E-03  0.4462E-03  0.8668E+01
   -0.249989   30.96003  0.4147E-14  0.1342E-04  0.6868E-07  0.7841E-03  0.4066E-03  0.6399E+01
   -0.299988   30.96164  0.4147E-14  0.1400E-04  0.6423E-07  0.9125E-03  0.3737E-03  0.5084E+01
   -0.349988   30.96299  0.4147E-14  0.1449E-04  0.6090E-07  0.1028E-02  0.3454E-03  0.4344E+01
   -0.399988   30.96416  0.4147E-14  0.1489E-04  0.5831E-07  0.1134E-02  0.3205E-03  0.3865E+01
   -0.449988   30.96520  0.4147E-14  0.1524E-04  0.5619E-07  0.1232E-02  0.2985E-03  0.3624E+01
   -0.499988   30.96614  0.4147E-14  0.1554E-04  0.5445E-07  0.1323E-02  0.2790E-03  0.3519E+01
   -0.549989   30.96699  0.4147E-14  0.1580E-04  0.5298E-07  0.1405E-02  0.2616E-03  0.3469E+01
   -0.599989   30.96778  0.4147E-14  0.1602E-04  0.5174E-07  0.1479E-02  0.2458E-03  0.3463E+01
   -0.649990   30.96852  0.4147E-14  0.1621E-04  0.5069E-07  0.1546E-02  0.2314E-03  0.3503E+01
   -0.699992   30.96921  0.4147E-14  0.1637E-04  0.4981E-07  0.1605E-02  0.2182E-03  0.3574E+01
   -0.749993   30.96987  0.4147E-14  0.1650E-04  0.4906E-07  0.1656E-02  0.2059E-03  0.3689E+01
   -0.799994   30.97050  0.4147E-14  0.1660E-04  0.4844E-07  0.1699E-02  0.1945E-03  0.3835E+01
   -0.849996   30.97110  0.4147E-14  0.1668E-04  0.4794E-07  0.1734E-02  0.1839E-03  0.4032E+01
   -0.899998   30.97169  0.4147E-14  0.1674E-04  0.4755E-07  0.1761E-02  0.1739E-03  0.4265E+01
   -0.949999   30.97226  0.4147E-14  0.1677E-04  0.4727E-07  0.1779E-02  0.1644E-03  0.4567E+01
   -1.000001   30.97282  0.4147E-14  0.1678E-04  0.4709E-07  0.1789E-02  0.1555E-03  0.4920E+01
   -1.050003   30.97337  0.4147E-14  0.1677E-04  0.4704E-07  0.1789E-02  0.1470E-03  0.5575E+01
   -1.100004   30.97392  0.4147E-14  0.1673E-04  0.4711E-07  0.1885E-02  0.1389E-03  0.1825E+02
   -1.150006   30.97443  0.4147E-14  0.1667E-04  0.4733E-07  0.1690E-02  0.1317E-03  0.4282E+02
   -1.200008   30.97500  0.4147E-14  0.1658E-04  0.4770E-07  0.1723E-02  0.1241E-03  0.8100E+01
   -1.250009   30.97556  0.4147E-14  0.1647E-04  0.4826E-07  0.1692E-02  0.1169E-03  0.8609E+01
   -1.300010   30.97612  0.4147E-14  0.1632E-04  0.4905E-07  0.1639E-02  0.1100E-03  0.1011E+02
   -1.350011   30.97670  0.4147E-14  0.1614E-04  0.5015E-07  0.1578E-02  0.1032E-03  0.1215E+02
   -1.400013   30.97729  0.4147E-14  0.1592E-04  0.5165E-07  0.1496E-02  0.9664E-04  0.1512E+02
   -1.450013   30.97792  0.4147E-14  0.1565E-04  0.5372E-07  0.1417E-02  0.9016E-04  0.1947E+02
   -1.500014   30.97859  0.4147E-14  0.1533E-04  0.5664E-07  0.1301E-02  0.8378E-04  0.2693E+02
   -1.550014   30.97932  0.4147E-14  0.1493E-04  0.6082E-07  0.1219E-02  0.7733E-04  0.3994E+02
   -1.600014   30.98012  0.4147E-14  0.1444E-04  0.6738E-07  0.1073E-02  0.7102E-04  0.1612E+04
   -1.650014   30.98112  0.4147E-14  0.1379E-04  0.7770E-07  0.9918E-03  0.6409E-04  0.3538E+04
   -1.700013   30.98228  0.4147E-14  0.1290E-04  0.9606E-07  0.8090E-03  0.5721E-04  0.3696E+03
   -1.750013   30.98433  0.4147E-14  0.1179E-04  0.1254E-06  0.7316E-03  0.4807E-04  0.3250E+05
   -1.800011   30.98578  0.4147E-14  0.1034E-04  0.1907E-06  0.5027E-03  0.4145E-04  0.7813E+05
   -1.850010   30.99316  0.4147E-14  0.8789E-05  0.3124E-06  0.4725E-03  0.2914E-04  0.2579E+09
   -1.900007   30.99096  0.4147E-14  0.7011E-05  0.6543E-06  0.2182E-03  0.2402E-04  0.3770E+06
   -1.950005   31.01169  0.4147E-14  0.4933E-05  0.1603E-05  0.2013E-03  0.1292E-04 -0.5053E+06
   -2.000002   31.01385  0.4147E-14  0.0000E+00  0.0000E+00  0.0000E+00  0.2444E-04  0.0000E+00
