 1 - depth, m
 2 - temperature, C
 3 - salinity, kg/kg
 4 - turbulent kinetic energy, m**2/s**2
 5 - dissipation rate, m**2/s**3
 6 - kinematic heat conductance, m**2/s
 7 - modulus of horizontal velocity, m/s
 8 - Richardson number, n/d
   -0.000000   30.90595  0.1915E-13  0.5198E-05  0.3439E-06  0.5326E-04  0.7405E-03  0.1867E+04
   -0.049997   30.93918  0.1915E-13  0.9039E-05  0.1524E-06  0.1826E-03  0.4282E-03  0.4733E+02
   -0.099994   30.95247  0.1915E-13  0.1099E-04  0.1044E-06  0.4272E-03  0.3098E-03  0.9175E+02
   -0.149992   30.95592  0.1915E-13  0.1219E-04  0.8785E-07  0.4991E-03  0.2750E-03  0.4521E+02
   -0.199990   30.95874  0.1915E-13  0.1313E-04  0.7811E-07  0.6725E-03  0.2460E-03  0.2922E+02
   -0.249989   30.96078  0.1915E-13  0.1388E-04  0.7173E-07  0.8017E-03  0.2244E-03  0.2175E+02
   -0.299988   30.96244  0.1915E-13  0.1448E-04  0.6718E-07  0.9321E-03  0.2064E-03  0.1734E+02
   -0.349988   30.96383  0.1915E-13  0.1498E-04  0.6377E-07  0.1050E-02  0.1910E-03  0.1488E+02
   -0.399987   30.96503  0.1915E-13  0.1540E-04  0.6111E-07  0.1157E-02  0.1773E-03  0.1324E+02
   -0.449987   30.96610  0.1915E-13  0.1577E-04  0.5895E-07  0.1256E-02  0.1653E-03  0.1246E+02
   -0.499988   30.96707  0.1915E-13  0.1608E-04  0.5717E-07  0.1347E-02  0.1547E-03  0.1208E+02
   -0.549988   30.96795  0.1915E-13  0.1635E-04  0.5568E-07  0.1430E-02  0.1451E-03  0.1194E+02
   -0.599989   30.96877  0.1915E-13  0.1658E-04  0.5443E-07  0.1505E-02  0.1365E-03  0.1190E+02
   -0.649990   30.96953  0.1915E-13  0.1677E-04  0.5337E-07  0.1572E-02  0.1286E-03  0.1209E+02
   -0.699991   30.97025  0.1915E-13  0.1694E-04  0.5248E-07  0.1630E-02  0.1213E-03  0.1232E+02
   -0.749992   30.97094  0.1915E-13  0.1707E-04  0.5174E-07  0.1681E-02  0.1145E-03  0.1277E+02
   -0.799994   30.97159  0.1915E-13  0.1718E-04  0.5114E-07  0.1723E-02  0.1083E-03  0.1325E+02
   -0.849995   30.97222  0.1915E-13  0.1727E-04  0.5066E-07  0.1757E-02  0.1024E-03  0.1401E+02
   -0.899997   30.97284  0.1915E-13  0.1733E-04  0.5030E-07  0.1782E-02  0.9689E-04  0.1480E+02
   -0.949999   30.97344  0.1915E-13  0.1736E-04  0.5006E-07  0.1799E-02  0.9168E-04  0.1594E+02
   -1.000000   30.97402  0.1915E-13  0.1737E-04  0.4994E-07  0.1807E-02  0.8675E-04  0.1715E+02
   -1.050002   30.97460  0.1915E-13  0.1736E-04  0.4994E-07  0.1803E-02  0.8204E-04  0.1955E+02
   -1.100004   30.97518  0.1915E-13  0.1732E-04  0.5008E-07  0.1912E-02  0.7756E-04  0.6325E+02
   -1.150005   30.97572  0.1915E-13  0.1725E-04  0.5040E-07  0.1685E-02  0.7360E-04  0.1532E+03
   -1.200007   30.97634  0.1915E-13  0.1716E-04  0.5087E-07  0.1727E-02  0.6936E-04  0.2878E+02
   -1.250008   30.97693  0.1915E-13  0.1703E-04  0.5157E-07  0.1694E-02  0.6535E-04  0.3065E+02
   -1.300009   30.97753  0.1915E-13  0.1688E-04  0.5254E-07  0.1636E-02  0.6148E-04  0.3635E+02
   -1.350010   30.97815  0.1915E-13  0.1668E-04  0.5386E-07  0.1572E-02  0.5772E-04  0.4390E+02
   -1.400011   30.97880  0.1915E-13  0.1644E-04  0.5566E-07  0.1483E-02  0.5404E-04  0.5550E+02
   -1.450012   30.97949  0.1915E-13  0.1615E-04  0.5813E-07  0.1404E-02  0.5040E-04  0.7215E+02
   -1.500013   30.98022  0.1915E-13  0.1579E-04  0.6163E-07  0.1279E-02  0.4682E-04  0.1025E+03
   -1.550013   30.98104  0.1915E-13  0.1535E-04  0.6666E-07  0.1203E-02  0.4317E-04  0.1557E+03
   -1.600013   30.98193  0.1915E-13  0.1479E-04  0.7480E-07  0.1047E-02  0.3962E-04 -0.1508E+04
   -1.650013   30.98314  0.1915E-13  0.1406E-04  0.8744E-07  0.9711E-03  0.3555E-04  0.1379E+04
   -1.700012   30.98445  0.1915E-13  0.1306E-04  0.1099E-06  0.7799E-03  0.3166E-04  0.2280E+06
   -1.750011   30.98706  0.1915E-13  0.1182E-04  0.1466E-06  0.7107E-03  0.2614E-04  0.4876E+06
   -1.800010   30.98861  0.1915E-13  0.1028E-04  0.2261E-06  0.4890E-03  0.2249E-04  0.4056E+05
   -1.850008   30.99820  0.1915E-13  0.8666E-05  0.3773E-06  0.4597E-03  0.1540E-04  0.1287E+10
   -1.900006   30.99435  0.1915E-13  0.6897E-05  0.8048E-06  0.2139E-03  0.1272E-04  0.9395E+06
   -1.950003   31.01934  0.1915E-13  0.4941E-05  0.1905E-05  0.2193E-03  0.6699E-05 -0.8456E+06
   -2.000000   31.01950  0.1915E-13  0.0000E+00  0.0000E+00  0.0000E+00  0.1353E-04  0.0000E+00
