 1 - depth, m
 2 - temperature, C
 3 - salinity, kg/kg
 4 - turbulent kinetic energy, m**2/s**2
 5 - dissipation rate, m**2/s**3
 6 - kinematic heat conductance, m**2/s
 7 - modulus of horizontal velocity, m/s
 8 - Richardson number, n/d
   -0.000000   30.45341  0.1050E-12  0.4613E-05  0.2796E-06  0.4841E-04  0.8446E-03  0.9440E+04
   -0.049997   30.48371  0.1050E-12  0.8051E-05  0.1241E-06  0.1787E-03  0.4744E-03  0.5080E+02
   -0.099994   30.49477  0.1050E-12  0.9743E-05  0.8597E-07  0.4012E-03  0.3480E-03  0.6715E+02
   -0.149992   30.49784  0.1050E-12  0.1080E-04  0.7247E-07  0.4805E-03  0.3077E-03  0.3271E+02
   -0.199991   30.50029  0.1050E-12  0.1162E-04  0.6449E-07  0.6397E-03  0.2749E-03  0.2119E+02
   -0.249989   30.50208  0.1050E-12  0.1227E-04  0.5922E-07  0.7635E-03  0.2503E-03  0.1568E+02
   -0.299988   30.50353  0.1050E-12  0.1280E-04  0.5545E-07  0.8864E-03  0.2298E-03  0.1250E+02
   -0.349988   30.50475  0.1050E-12  0.1324E-04  0.5261E-07  0.9979E-03  0.2122E-03  0.1069E+02
   -0.399988   30.50581  0.1050E-12  0.1362E-04  0.5040E-07  0.1100E-02  0.1966E-03  0.9530E+01
   -0.449988   30.50674  0.1050E-12  0.1394E-04  0.4860E-07  0.1195E-02  0.1829E-03  0.8926E+01
   -0.499988   30.50759  0.1050E-12  0.1421E-04  0.4710E-07  0.1282E-02  0.1707E-03  0.8684E+01
   -0.549989   30.50836  0.1050E-12  0.1445E-04  0.4585E-07  0.1362E-02  0.1599E-03  0.8545E+01
   -0.599990   30.50907  0.1050E-12  0.1466E-04  0.4480E-07  0.1434E-02  0.1500E-03  0.8551E+01
   -0.649991   30.50973  0.1050E-12  0.1484E-04  0.4390E-07  0.1500E-02  0.1411E-03  0.8634E+01
   -0.699992   30.51036  0.1050E-12  0.1499E-04  0.4315E-07  0.1558E-02  0.1328E-03  0.8833E+01
   -0.749993   30.51095  0.1050E-12  0.1512E-04  0.4251E-07  0.1608E-02  0.1252E-03  0.9099E+01
   -0.799995   30.51152  0.1050E-12  0.1522E-04  0.4199E-07  0.1651E-02  0.1181E-03  0.9484E+01
   -0.849996   30.51207  0.1050E-12  0.1531E-04  0.4157E-07  0.1687E-02  0.1115E-03  0.9945E+01
   -0.899998   30.51259  0.1050E-12  0.1537E-04  0.4124E-07  0.1715E-02  0.1053E-03  0.1055E+02
   -0.949999   30.51311  0.1050E-12  0.1541E-04  0.4101E-07  0.1735E-02  0.9949E-04  0.1126E+02
   -1.000001   30.51361  0.1050E-12  0.1544E-04  0.4087E-07  0.1747E-02  0.9396E-04  0.1216E+02
   -1.050003   30.51411  0.1050E-12  0.1544E-04  0.4083E-07  0.1750E-02  0.8872E-04  0.1374E+02
   -1.100005   30.51460  0.1050E-12  0.1542E-04  0.4089E-07  0.1828E-02  0.8373E-04  0.4610E+02
   -1.150006   30.51507  0.1050E-12  0.1538E-04  0.4107E-07  0.1682E-02  0.7926E-04  0.1008E+03
   -1.200008   30.51557  0.1050E-12  0.1533E-04  0.4137E-07  0.1700E-02  0.7467E-04  0.1962E+02
   -1.250009   30.51607  0.1050E-12  0.1524E-04  0.4183E-07  0.1672E-02  0.7026E-04  0.2093E+02
   -1.300011   30.51657  0.1050E-12  0.1513E-04  0.4247E-07  0.1626E-02  0.6602E-04  0.2434E+02
   -1.350012   30.51709  0.1050E-12  0.1500E-04  0.4335E-07  0.1570E-02  0.6191E-04  0.2900E+02
   -1.400013   30.51762  0.1050E-12  0.1483E-04  0.4453E-07  0.1498E-02  0.5792E-04  0.3546E+02
   -1.450014   30.51818  0.1050E-12  0.1462E-04  0.4612E-07  0.1423E-02  0.5400E-04  0.4475E+02
   -1.500014   30.51877  0.1050E-12  0.1437E-04  0.4830E-07  0.1316E-02  0.5016E-04  0.5969E+02
   -1.550015   30.51941  0.1050E-12  0.1406E-04  0.5136E-07  0.1233E-02  0.4632E-04  0.8313E+02
   -1.600015   30.52009  0.1050E-12  0.1367E-04  0.5595E-07  0.1090E-02  0.4256E-04  0.1445E+03
   -1.650014   30.52092  0.1050E-12  0.1318E-04  0.6291E-07  0.1011E-02  0.3857E-04  0.1414E+04
   -1.700014   30.52182  0.1050E-12  0.1252E-04  0.7537E-07  0.8306E-03  0.3475E-04  0.8970E+03
   -1.750013   30.52338  0.1050E-12  0.1161E-04  0.9603E-07  0.7499E-03  0.2972E-04  0.2640E+06
   -1.800012   30.52476  0.1050E-12  0.1037E-04  0.1389E-06  0.5309E-03  0.2564E-04  0.6103E+06
   -1.850010   30.52973  0.1050E-12  0.8901E-05  0.2198E-06  0.4779E-03  0.1885E-04  0.1030E+10
   -1.900008   30.52953  0.1050E-12  0.7097E-05  0.4560E-06  0.2214E-03  0.1526E-04 -0.6894E+06
   -1.950005   30.54622  0.1050E-12  0.4896E-05  0.1166E-05  0.1735E-03  0.8458E-05 -0.2943E+07
   -2.000002   30.55003  0.1050E-12  0.0000E+00  0.0000E+00  0.0000E+00  0.1451E-04  0.0000E+00
