 1 - depth, m
 2 - temperature, C
 3 - salinity, kg/kg
 4 - turbulent kinetic energy, m**2/s**2
 5 - dissipation rate, m**2/s**3
 6 - kinematic heat conductance, m**2/s
 7 - modulus of horizontal velocity, m/s
 8 - Richardson number, n/d
   -0.000000   30.75452  0.2154E-14  0.4994E-05  0.3167E-06  0.5141E-04  0.1505E-02  0.7825E+04
   -0.049997   30.78609  0.2154E-14  0.8534E-05  0.1415E-06  0.1788E-03  0.8620E-03  0.8716E+03
   -0.099994   30.79833  0.2154E-14  0.1035E-04  0.9727E-07  0.4019E-03  0.6325E-03  0.2153E+02
   -0.149992   30.80173  0.2154E-14  0.1149E-04  0.8153E-07  0.4828E-03  0.5588E-03  0.1056E+02
   -0.199991   30.80443  0.2154E-14  0.1238E-04  0.7231E-07  0.6465E-03  0.4990E-03  0.6755E+01
   -0.249989   30.80639  0.2154E-14  0.1308E-04  0.6626E-07  0.7729E-03  0.4544E-03  0.4981E+01
   -0.299988   30.80798  0.2154E-14  0.1365E-04  0.6195E-07  0.8993E-03  0.4173E-03  0.3955E+01
   -0.349988   30.80931  0.2154E-14  0.1412E-04  0.5872E-07  0.1014E-02  0.3855E-03  0.3379E+01
   -0.399988   30.81046  0.2154E-14  0.1451E-04  0.5619E-07  0.1118E-02  0.3574E-03  0.3005E+01
   -0.449988   30.81148  0.2154E-14  0.1485E-04  0.5413E-07  0.1215E-02  0.3327E-03  0.2821E+01
   -0.499988   30.81240  0.2154E-14  0.1514E-04  0.5243E-07  0.1304E-02  0.3108E-03  0.2739E+01
   -0.549989   30.81324  0.2154E-14  0.1539E-04  0.5100E-07  0.1385E-02  0.2912E-03  0.2702E+01
   -0.599989   30.81401  0.2154E-14  0.1560E-04  0.4978E-07  0.1459E-02  0.2735E-03  0.2697E+01
   -0.649990   30.81474  0.2154E-14  0.1578E-04  0.4875E-07  0.1525E-02  0.2573E-03  0.2731E+01
   -0.699992   30.81542  0.2154E-14  0.1593E-04  0.4788E-07  0.1583E-02  0.2425E-03  0.2786E+01
   -0.749993   30.81606  0.2154E-14  0.1606E-04  0.4713E-07  0.1633E-02  0.2287E-03  0.2879E+01
   -0.799994   30.81668  0.2154E-14  0.1615E-04  0.4651E-07  0.1676E-02  0.2159E-03  0.2991E+01
   -0.849996   30.81727  0.2154E-14  0.1623E-04  0.4600E-07  0.1711E-02  0.2040E-03  0.3146E+01
   -0.899998   30.81785  0.2154E-14  0.1628E-04  0.4560E-07  0.1738E-02  0.1928E-03  0.3326E+01
   -0.949999   30.81841  0.2154E-14  0.1631E-04  0.4530E-07  0.1756E-02  0.1822E-03  0.3563E+01
   -1.000001   30.81895  0.2154E-14  0.1631E-04  0.4511E-07  0.1766E-02  0.1722E-03  0.3835E+01
   -1.050003   30.81949  0.2154E-14  0.1630E-04  0.4503E-07  0.1766E-02  0.1627E-03  0.4347E+01
   -1.100004   30.82002  0.2154E-14  0.1626E-04  0.4506E-07  0.1859E-02  0.1537E-03  0.1425E+02
   -1.150006   30.82052  0.2154E-14  0.1619E-04  0.4524E-07  0.1671E-02  0.1456E-03  0.3316E+02
   -1.200008   30.82108  0.2154E-14  0.1611E-04  0.4554E-07  0.1703E-02  0.1372E-03  0.6303E+01
   -1.250009   30.82161  0.2154E-14  0.1599E-04  0.4604E-07  0.1672E-02  0.1291E-03  0.6688E+01
   -1.300010   30.82216  0.2154E-14  0.1584E-04  0.4675E-07  0.1620E-02  0.1214E-03  0.7857E+01
   -1.350012   30.82271  0.2154E-14  0.1567E-04  0.4774E-07  0.1559E-02  0.1139E-03  0.9408E+01
   -1.400013   30.82329  0.2154E-14  0.1545E-04  0.4910E-07  0.1479E-02  0.1065E-03  0.1171E+02
   -1.450014   30.82389  0.2154E-14  0.1519E-04  0.5098E-07  0.1400E-02  0.9934E-04  0.1499E+02
   -1.500014   30.82453  0.2154E-14  0.1487E-04  0.5363E-07  0.1286E-02  0.9225E-04  0.2063E+02
   -1.550014   30.82523  0.2154E-14  0.1449E-04  0.5742E-07  0.1200E-02  0.8512E-04  0.2987E+02
   -1.600015   30.82599  0.2154E-14  0.1401E-04  0.6330E-07  0.1058E-02  0.7811E-04  0.6580E+02
   -1.650014   30.82692  0.2154E-14  0.1340E-04  0.7260E-07  0.9727E-03  0.7058E-04  0.1864E+04
   -1.700014   30.82802  0.2154E-14  0.1255E-04  0.8906E-07  0.8004E-03  0.6299E-04  0.1628E+04
   -1.750013   30.82991  0.2154E-14  0.1146E-04  0.1159E-06  0.7109E-03  0.5316E-04  0.3695E+06
   -1.800012   30.83140  0.2154E-14  0.1001E-04  0.1750E-06  0.5013E-03  0.4551E-04  0.3265E+05
   -1.850010   30.83822  0.2154E-14  0.8436E-05  0.2855E-06  0.4533E-03  0.3212E-04  0.2307E+08
   -1.900008   30.83650  0.2154E-14  0.6629E-05  0.6071E-06  0.2079E-03  0.2602E-04  0.2890E+06
   -1.950005   30.85610  0.2154E-14  0.4681E-05  0.1480E-05  0.1982E-03  0.1380E-04 -0.1157E+07
   -2.000002   30.85740  0.2154E-14  0.0000E+00  0.0000E+00  0.0000E+00  0.2655E-04  0.0000E+00
