 1 - depth, m
 2 - temperature, C
 3 - salinity, kg/kg
 4 - turbulent kinetic energy, m**2/s**2
 5 - dissipation rate, m**2/s**3
 6 - kinematic heat conductance, m**2/s
 7 - modulus of horizontal velocity, m/s
 8 - Richardson number, n/d
   -0.000000   30.29161  0.1498E-14  0.4941E-05  0.3115E-06  0.5074E-04  0.1415E-02  0.6870E+04
   -0.049997   30.32332  0.1498E-14  0.8472E-05  0.1389E-06  0.1805E-03  0.8057E-03  0.1310E+04
   -0.099994   30.33536  0.1498E-14  0.1028E-04  0.9573E-07  0.4019E-03  0.5921E-03  0.2454E+02
   -0.149992   30.33873  0.1498E-14  0.1141E-04  0.8029E-07  0.4844E-03  0.5229E-03  0.1209E+02
   -0.199991   30.34140  0.1498E-14  0.1229E-04  0.7125E-07  0.6480E-03  0.4671E-03  0.7738E+01
   -0.249989   30.34335  0.1498E-14  0.1299E-04  0.6533E-07  0.7744E-03  0.4253E-03  0.5719E+01
   -0.299988   30.34492  0.1498E-14  0.1356E-04  0.6111E-07  0.9011E-03  0.3905E-03  0.4542E+01
   -0.349988   30.34625  0.1498E-14  0.1403E-04  0.5795E-07  0.1016E-02  0.3608E-03  0.3887E+01
   -0.399988   30.34739  0.1498E-14  0.1443E-04  0.5548E-07  0.1120E-02  0.3345E-03  0.3457E+01
   -0.449988   30.34841  0.1498E-14  0.1477E-04  0.5348E-07  0.1217E-02  0.3113E-03  0.3249E+01
   -0.499988   30.34933  0.1498E-14  0.1506E-04  0.5182E-07  0.1307E-02  0.2909E-03  0.3152E+01
   -0.549989   30.35016  0.1498E-14  0.1532E-04  0.5043E-07  0.1388E-02  0.2725E-03  0.3114E+01
   -0.599989   30.35094  0.1498E-14  0.1554E-04  0.4926E-07  0.1463E-02  0.2560E-03  0.3106E+01
   -0.649991   30.35166  0.1498E-14  0.1572E-04  0.4826E-07  0.1529E-02  0.2408E-03  0.3148E+01
   -0.699992   30.35234  0.1498E-14  0.1588E-04  0.4742E-07  0.1588E-02  0.2269E-03  0.3209E+01
   -0.749993   30.35299  0.1498E-14  0.1601E-04  0.4671E-07  0.1639E-02  0.2141E-03  0.3317E+01
   -0.799995   30.35361  0.1498E-14  0.1611E-04  0.4612E-07  0.1682E-02  0.2021E-03  0.3444E+01
   -0.849996   30.35420  0.1498E-14  0.1619E-04  0.4564E-07  0.1717E-02  0.1909E-03  0.3624E+01
   -0.899998   30.35478  0.1498E-14  0.1625E-04  0.4526E-07  0.1745E-02  0.1804E-03  0.3829E+01
   -0.949999   30.35534  0.1498E-14  0.1629E-04  0.4499E-07  0.1764E-02  0.1706E-03  0.4101E+01
   -1.000001   30.35589  0.1498E-14  0.1630E-04  0.4482E-07  0.1775E-02  0.1612E-03  0.4412E+01
   -1.050003   30.35643  0.1498E-14  0.1629E-04  0.4475E-07  0.1775E-02  0.1523E-03  0.5000E+01
   -1.100005   30.35696  0.1498E-14  0.1626E-04  0.4481E-07  0.1865E-02  0.1439E-03  0.1649E+02
   -1.150006   30.35746  0.1498E-14  0.1620E-04  0.4500E-07  0.1688E-02  0.1363E-03  0.3761E+02
   -1.200008   30.35802  0.1498E-14  0.1613E-04  0.4532E-07  0.1716E-02  0.1284E-03  0.7211E+01
   -1.250009   30.35856  0.1498E-14  0.1602E-04  0.4583E-07  0.1686E-02  0.1209E-03  0.7647E+01
   -1.300011   30.35911  0.1498E-14  0.1589E-04  0.4655E-07  0.1636E-02  0.1137E-03  0.8964E+01
   -1.350012   30.35967  0.1498E-14  0.1572E-04  0.4754E-07  0.1576E-02  0.1067E-03  0.1070E+02
   -1.400013   30.36025  0.1498E-14  0.1552E-04  0.4890E-07  0.1498E-02  0.9983E-04  0.1325E+02
   -1.450014   30.36085  0.1498E-14  0.1527E-04  0.5075E-07  0.1420E-02  0.9311E-04  0.1689E+02
   -1.500014   30.36150  0.1498E-14  0.1497E-04  0.5335E-07  0.1308E-02  0.8650E-04  0.2308E+02
   -1.550015   30.36220  0.1498E-14  0.1460E-04  0.5706E-07  0.1225E-02  0.7986E-04  0.3331E+02
   -1.600015   30.36296  0.1498E-14  0.1414E-04  0.6280E-07  0.1078E-02  0.7334E-04  0.7029E+02
   -1.650014   30.36390  0.1498E-14  0.1355E-04  0.7176E-07  0.1001E-02  0.6628E-04  0.5632E+05
   -1.700014   30.36498  0.1498E-14  0.1275E-04  0.8773E-07  0.8143E-03  0.5935E-04 -0.1628E+04
   -1.750013   30.36685  0.1498E-14  0.1171E-04  0.1135E-06  0.7376E-03  0.5017E-04  0.4335E+06
   -1.800012   30.36829  0.1498E-14  0.1034E-04  0.1672E-06  0.5182E-03  0.4325E-04  0.1735E+05
   -1.850010   30.37480  0.1498E-14  0.8814E-05  0.2710E-06  0.4755E-03  0.3090E-04  0.2242E+08
   -1.900008   30.37329  0.1498E-14  0.7027E-05  0.5631E-06  0.2197E-03  0.2533E-04 -0.7338E+05
   -1.950005   30.39243  0.1498E-14  0.4913E-05  0.1404E-05  0.1898E-03  0.1379E-04 -0.1050E+07
   -2.000002   30.39465  0.1498E-14  0.0000E+00  0.0000E+00  0.0000E+00  0.2505E-04  0.0000E+00
