 1 - depth, m
 2 - temperature, C
 3 - salinity, kg/kg
 4 - turbulent kinetic energy, m**2/s**2
 5 - dissipation rate, m**2/s**3
 6 - kinematic heat conductance, m**2/s
 7 - modulus of horizontal velocity, m/s
 8 - Richardson number, n/d
   -0.000000   30.82736  0.5199E-14  0.4813E-05  0.3019E-06  0.5064E-04  0.1175E-02  0.1121E+05
   -0.049997   30.85738  0.5199E-14  0.8320E-05  0.1342E-06  0.1778E-03  0.6714E-03  0.1046E+03
   -0.099994   30.86914  0.5199E-14  0.1011E-04  0.9222E-07  0.4067E-03  0.4890E-03  0.4646E+02
   -0.149992   30.87229  0.5199E-14  0.1122E-04  0.7753E-07  0.4844E-03  0.4323E-03  0.2279E+02
   -0.199991   30.87483  0.5199E-14  0.1209E-04  0.6892E-07  0.6489E-03  0.3860E-03  0.1474E+02
   -0.249989   30.87667  0.5199E-14  0.1278E-04  0.6329E-07  0.7749E-03  0.3514E-03  0.1099E+02
   -0.299988   30.87818  0.5199E-14  0.1335E-04  0.5928E-07  0.9010E-03  0.3226E-03  0.8756E+01
   -0.349988   30.87944  0.5199E-14  0.1382E-04  0.5628E-07  0.1015E-02  0.2979E-03  0.7548E+01
   -0.399988   30.88053  0.5199E-14  0.1422E-04  0.5395E-07  0.1119E-02  0.2762E-03  0.6714E+01
   -0.449988   30.88150  0.5199E-14  0.1456E-04  0.5206E-07  0.1216E-02  0.2570E-03  0.6347E+01
   -0.499988   30.88238  0.5199E-14  0.1486E-04  0.5051E-07  0.1305E-02  0.2401E-03  0.6148E+01
   -0.549989   30.88318  0.5199E-14  0.1511E-04  0.4921E-07  0.1387E-02  0.2249E-03  0.6113E+01
   -0.599989   30.88392  0.5199E-14  0.1534E-04  0.4813E-07  0.1460E-02  0.2112E-03  0.6087E+01
   -0.649990   30.88462  0.5199E-14  0.1553E-04  0.4722E-07  0.1526E-02  0.1986E-03  0.6217E+01
   -0.699992   30.88527  0.5199E-14  0.1569E-04  0.4646E-07  0.1585E-02  0.1872E-03  0.6326E+01
   -0.749993   30.88590  0.5199E-14  0.1583E-04  0.4583E-07  0.1635E-02  0.1765E-03  0.6598E+01
   -0.799994   30.88649  0.5199E-14  0.1595E-04  0.4532E-07  0.1678E-02  0.1666E-03  0.6838E+01
   -0.849996   30.88707  0.5199E-14  0.1604E-04  0.4492E-07  0.1713E-02  0.1573E-03  0.7266E+01
   -0.899998   30.88763  0.5199E-14  0.1611E-04  0.4462E-07  0.1740E-02  0.1487E-03  0.7664E+01
   -0.949999   30.88818  0.5199E-14  0.1616E-04  0.4443E-07  0.1758E-02  0.1405E-03  0.8295E+01
   -1.000001   30.88871  0.5199E-14  0.1618E-04  0.4434E-07  0.1768E-02  0.1328E-03  0.8911E+01
   -1.050003   30.88924  0.5199E-14  0.1619E-04  0.4437E-07  0.1768E-02  0.1254E-03  0.1021E+02
   -1.100004   30.88977  0.5199E-14  0.1617E-04  0.4450E-07  0.1858E-02  0.1184E-03  0.3361E+02
   -1.150006   30.89027  0.5199E-14  0.1613E-04  0.4479E-07  0.1679E-02  0.1122E-03  0.7688E+02
   -1.200008   30.89082  0.5199E-14  0.1606E-04  0.4521E-07  0.1707E-02  0.1057E-03  0.1489E+02
   -1.250009   30.89136  0.5199E-14  0.1597E-04  0.4581E-07  0.1676E-02  0.9947E-04  0.1585E+02
   -1.300010   30.89191  0.5199E-14  0.1585E-04  0.4663E-07  0.1625E-02  0.9346E-04  0.1875E+02
   -1.350012   30.89247  0.5199E-14  0.1569E-04  0.4774E-07  0.1564E-02  0.8767E-04  0.2243E+02
   -1.400013   30.89306  0.5199E-14  0.1550E-04  0.4923E-07  0.1486E-02  0.8199E-04  0.2803E+02
   -1.450013   30.89368  0.5199E-14  0.1527E-04  0.5124E-07  0.1407E-02  0.7644E-04  0.3581E+02
   -1.500014   30.89434  0.5199E-14  0.1497E-04  0.5402E-07  0.1295E-02  0.7095E-04  0.4935E+02
   -1.550014   30.89506  0.5199E-14  0.1462E-04  0.5796E-07  0.1211E-02  0.6546E-04  0.7123E+02
   -1.600014   30.89585  0.5199E-14  0.1417E-04  0.6404E-07  0.1069E-02  0.6004E-04  0.1672E+03
   -1.650014   30.89683  0.5199E-14  0.1358E-04  0.7354E-07  0.9852E-03  0.5421E-04  0.1384E+05
   -1.700014   30.89796  0.5199E-14  0.1276E-04  0.9023E-07  0.8045E-03  0.4832E-04 -0.2536E+04
   -1.750013   30.89993  0.5199E-14  0.1171E-04  0.1172E-06  0.7270E-03  0.4071E-04  0.5266E+06
   -1.800011   30.90150  0.5199E-14  0.1033E-04  0.1772E-06  0.5056E-03  0.3495E-04  0.4350E+06
   -1.850010   30.90838  0.5199E-14  0.8813E-05  0.2877E-06  0.4685E-03  0.2466E-04  0.9379E+09
   -1.900008   30.90678  0.5199E-14  0.7028E-05  0.6027E-06  0.2183E-03  0.2018E-04  0.1195E+07
   -1.950005   30.92741  0.5199E-14  0.4932E-05  0.1488E-05  0.1929E-03  0.1086E-04 -0.6700E+06
   -2.000002   30.93013  0.5199E-14  0.0000E+00  0.0000E+00  0.0000E+00  0.2042E-04  0.0000E+00
