 1 - depth, m
 2 - temperature, C
 3 - salinity, kg/kg
 4 - turbulent kinetic energy, m**2/s**2
 5 - dissipation rate, m**2/s**3
 6 - kinematic heat conductance, m**2/s
 7 - modulus of horizontal velocity, m/s
 8 - Richardson number, n/d
   -0.000000   30.26722  0.5097E-13  0.4922E-05  0.3033E-06  0.4837E-04  0.4104E-03  0.1128E+06
   -0.049997   30.30160  0.5097E-13  0.8735E-05  0.1351E-06  0.1947E-03  0.2275E-03  0.4869E+05
   -0.099994   30.31222  0.5097E-13  0.1050E-04  0.9466E-07  0.4190E-03  0.1685E-03  0.3229E+03
   -0.149992   30.31553  0.5097E-13  0.1163E-04  0.8007E-07  0.5008E-03  0.1494E-03  0.1618E+03
   -0.199991   30.31816  0.5097E-13  0.1250E-04  0.7141E-07  0.6656E-03  0.1338E-03  0.1066E+03
   -0.249989   30.32009  0.5097E-13  0.1319E-04  0.6567E-07  0.7933E-03  0.1220E-03  0.7964E+02
   -0.299988   30.32166  0.5097E-13  0.1376E-04  0.6156E-07  0.9194E-03  0.1122E-03  0.6378E+02
   -0.349988   30.32298  0.5097E-13  0.1423E-04  0.5845E-07  0.1034E-02  0.1038E-03  0.5467E+02
   -0.399988   30.32412  0.5097E-13  0.1462E-04  0.5603E-07  0.1138E-02  0.9634E-04  0.4879E+02
   -0.449988   30.32514  0.5097E-13  0.1496E-04  0.5405E-07  0.1235E-02  0.8976E-04  0.4582E+02
   -0.499988   30.32606  0.5097E-13  0.1525E-04  0.5241E-07  0.1323E-02  0.8393E-04  0.4458E+02
   -0.549989   30.32690  0.5097E-13  0.1550E-04  0.5103E-07  0.1404E-02  0.7869E-04  0.4395E+02
   -0.599989   30.32768  0.5097E-13  0.1571E-04  0.4986E-07  0.1478E-02  0.7395E-04  0.4393E+02
   -0.649990   30.32841  0.5097E-13  0.1589E-04  0.4887E-07  0.1543E-02  0.6962E-04  0.4441E+02
   -0.699992   30.32910  0.5097E-13  0.1605E-04  0.4803E-07  0.1601E-02  0.6564E-04  0.4534E+02
   -0.749993   30.32975  0.5097E-13  0.1617E-04  0.4732E-07  0.1651E-02  0.6195E-04  0.4675E+02
   -0.799994   30.33037  0.5097E-13  0.1627E-04  0.4673E-07  0.1693E-02  0.5852E-04  0.4861E+02
   -0.849996   30.33097  0.5097E-13  0.1635E-04  0.4625E-07  0.1727E-02  0.5531E-04  0.5101E+02
   -0.899998   30.33156  0.5097E-13  0.1640E-04  0.4588E-07  0.1753E-02  0.5229E-04  0.5395E+02
   -0.949999   30.33212  0.5097E-13  0.1643E-04  0.4561E-07  0.1770E-02  0.4944E-04  0.5763E+02
   -1.000001   30.33268  0.5097E-13  0.1644E-04  0.4545E-07  0.1780E-02  0.4675E-04  0.6205E+02
   -1.050003   30.33322  0.5097E-13  0.1642E-04  0.4539E-07  0.1778E-02  0.4419E-04  0.7010E+02
   -1.100004   30.33376  0.5097E-13  0.1638E-04  0.4546E-07  0.1876E-02  0.4174E-04  0.2299E+03
   -1.150006   30.33427  0.5097E-13  0.1632E-04  0.4567E-07  0.1677E-02  0.3957E-04  0.5332E+03
   -1.200008   30.33484  0.5097E-13  0.1623E-04  0.4602E-07  0.1712E-02  0.3728E-04  0.1012E+03
   -1.250009   30.33539  0.5097E-13  0.1612E-04  0.4655E-07  0.1680E-02  0.3511E-04  0.1072E+03
   -1.300010   30.33594  0.5097E-13  0.1597E-04  0.4731E-07  0.1628E-02  0.3301E-04  0.1256E+03
   -1.350012   30.33651  0.5097E-13  0.1579E-04  0.4836E-07  0.1565E-02  0.3097E-04  0.1501E+03
   -1.400013   30.33710  0.5097E-13  0.1558E-04  0.4979E-07  0.1484E-02  0.2899E-04  0.1859E+03
   -1.450013   30.33772  0.5097E-13  0.1531E-04  0.5176E-07  0.1404E-02  0.2703E-04  0.2374E+03
   -1.500014   30.33838  0.5097E-13  0.1499E-04  0.5453E-07  0.1289E-02  0.2510E-04  0.3248E+03
   -1.550014   30.33911  0.5097E-13  0.1460E-04  0.5849E-07  0.1203E-02  0.2316E-04  0.4685E+03
   -1.600014   30.33989  0.5097E-13  0.1412E-04  0.6467E-07  0.1059E-02  0.2125E-04  0.1143E+04
   -1.650014   30.34086  0.5097E-13  0.1349E-04  0.7443E-07  0.9741E-03  0.1917E-04  0.3380E+04
   -1.700014   30.34201  0.5097E-13  0.1262E-04  0.9167E-07  0.7973E-03  0.1710E-04  0.6602E+05
   -1.750013   30.34403  0.5097E-13  0.1151E-04  0.1198E-06  0.7130E-03  0.1435E-04  0.5507E+06
   -1.800011   30.34559  0.5097E-13  0.1006E-04  0.1796E-06  0.4957E-03  0.1229E-04  0.1014E+07
   -1.850010   30.35281  0.5097E-13  0.8478E-05  0.2944E-06  0.4527E-03  0.8612E-05  0.9561E+08
   -1.900008   30.35084  0.5097E-13  0.6686E-05  0.6235E-06  0.2093E-03  0.6992E-05 -0.7870E+06
   -1.950005   30.37162  0.5097E-13  0.4725E-05  0.1517E-05  0.2000E-03  0.3706E-05 -0.5118E+07
   -2.000002   30.37264  0.5097E-13  0.0000E+00  0.0000E+00  0.0000E+00  0.7211E-05  0.0000E+00
