 1 - depth, m
 2 - temperature, C
 3 - salinity, kg/kg
 4 - turbulent kinetic energy, m**2/s**2
 5 - dissipation rate, m**2/s**3
 6 - kinematic heat conductance, m**2/s
 7 - modulus of horizontal velocity, m/s
 8 - Richardson number, n/d
   -0.000000   30.50577  0.6453E-13  0.5081E-05  0.3089E-06  0.5133E-04  0.2259E-02  0.2996E+04
   -0.049997   30.53643  0.6453E-13  0.8517E-05  0.1366E-06  0.1870E-03  0.1248E-02  0.2164E+04
   -0.099994   30.54725  0.6453E-13  0.1023E-04  0.9499E-07  0.3948E-03  0.9409E-03  0.1057E+02
   -0.149992   30.55058  0.6453E-13  0.1132E-04  0.7960E-07  0.4843E-03  0.8310E-03  0.5275E+01
   -0.199991   30.55317  0.6453E-13  0.1218E-04  0.7061E-07  0.6410E-03  0.7438E-03  0.3392E+01
   -0.249989   30.55507  0.6453E-13  0.1286E-04  0.6473E-07  0.7665E-03  0.6779E-03  0.2514E+01
   -0.299988   30.55661  0.6453E-13  0.1342E-04  0.6055E-07  0.8889E-03  0.6231E-03  0.2002E+01
   -0.349988   30.55791  0.6453E-13  0.1388E-04  0.5742E-07  0.9976E-03  0.5760E-03  0.1741E+01
   -0.399988   30.55904  0.6453E-13  0.1428E-04  0.5496E-07  0.1100E-02  0.5340E-03  0.1606E+01
   -0.449988   30.56005  0.6453E-13  0.1463E-04  0.5291E-07  0.1203E-02  0.4959E-03  0.1560E+01
   -0.499988   30.56095  0.6453E-13  0.1494E-04  0.5121E-07  0.1299E-02  0.4615E-03  0.1537E+01
   -0.549989   30.56177  0.6453E-13  0.1521E-04  0.4977E-07  0.1387E-02  0.4305E-03  0.1533E+01
   -0.599989   30.56252  0.6453E-13  0.1545E-04  0.4857E-07  0.1467E-02  0.4024E-03  0.1526E+01
   -0.649990   30.56322  0.6453E-13  0.1565E-04  0.4757E-07  0.1539E-02  0.3768E-03  0.1540E+01
   -0.699992   30.56387  0.6453E-13  0.1581E-04  0.4673E-07  0.1601E-02  0.3535E-03  0.1545E+01
   -0.749993   30.56450  0.6453E-13  0.1595E-04  0.4605E-07  0.1654E-02  0.3322E-03  0.1576E+01
   -0.799994   30.56509  0.6453E-13  0.1606E-04  0.4549E-07  0.1698E-02  0.3128E-03  0.1600E+01
   -0.849996   30.56567  0.6453E-13  0.1615E-04  0.4506E-07  0.1732E-02  0.2950E-03  0.1662E+01
   -0.899998   30.56623  0.6453E-13  0.1621E-04  0.4474E-07  0.1758E-02  0.2785E-03  0.1726E+01
   -0.949999   30.56677  0.6453E-13  0.1625E-04  0.4453E-07  0.1775E-02  0.2631E-03  0.1846E+01
   -1.000001   30.56730  0.6453E-13  0.1626E-04  0.4442E-07  0.1783E-02  0.2487E-03  0.1977E+01
   -1.050003   30.56783  0.6453E-13  0.1626E-04  0.4442E-07  0.1782E-02  0.2351E-03  0.2259E+01
   -1.100004   30.56835  0.6453E-13  0.1623E-04  0.4454E-07  0.1878E-02  0.2221E-03  0.7391E+01
   -1.150006   30.56885  0.6453E-13  0.1618E-04  0.4480E-07  0.1684E-02  0.2105E-03  0.1719E+02
   -1.200008   30.56940  0.6453E-13  0.1611E-04  0.4519E-07  0.1717E-02  0.1984E-03  0.3294E+01
   -1.250009   30.56993  0.6453E-13  0.1601E-04  0.4577E-07  0.1686E-02  0.1868E-03  0.3497E+01
   -1.300010   30.57047  0.6453E-13  0.1588E-04  0.4657E-07  0.1634E-02  0.1756E-03  0.4135E+01
   -1.350012   30.57103  0.6453E-13  0.1572E-04  0.4765E-07  0.1573E-02  0.1648E-03  0.4945E+01
   -1.400013   30.57161  0.6453E-13  0.1552E-04  0.4911E-07  0.1492E-02  0.1543E-03  0.6180E+01
   -1.450013   30.57223  0.6453E-13  0.1527E-04  0.5109E-07  0.1414E-02  0.1439E-03  0.7902E+01
   -1.500014   30.57287  0.6453E-13  0.1498E-04  0.5383E-07  0.1299E-02  0.1337E-03  0.1091E+02
   -1.550014   30.57359  0.6453E-13  0.1461E-04  0.5773E-07  0.1217E-02  0.1234E-03  0.1578E+02
   -1.600014   30.57436  0.6453E-13  0.1415E-04  0.6376E-07  0.1069E-02  0.1133E-03  0.3301E+02
   -1.650014   30.57533  0.6453E-13  0.1356E-04  0.7314E-07  0.9916E-03  0.1023E-03  0.1351E+05
   -1.700014   30.57642  0.6453E-13  0.1274E-04  0.8974E-07  0.8062E-03  0.9160E-04 -0.8816E+03
   -1.750013   30.57838  0.6453E-13  0.1167E-04  0.1167E-06  0.7290E-03  0.7727E-04  0.1044E+06
   -1.800011   30.57990  0.6453E-13  0.1027E-04  0.1742E-06  0.5085E-03  0.6650E-04  0.7824E+04
   -1.850010   30.58685  0.6453E-13  0.8733E-05  0.2833E-06  0.4696E-03  0.4724E-04  0.3914E+08
   -1.900008   30.58508  0.6453E-13  0.6953E-05  0.5873E-06  0.2152E-03  0.3866E-04  0.1967E+05
   -1.950005   30.60580  0.6453E-13  0.4892E-05  0.1458E-05  0.1932E-03  0.2085E-04 -0.2348E+06
   -2.000002   30.60753  0.6453E-13  0.0000E+00  0.0000E+00  0.0000E+00  0.3875E-04  0.0000E+00
