 1 - depth, m
 2 - temperature, C
 3 - salinity, kg/kg
 4 - turbulent kinetic energy, m**2/s**2
 5 - dissipation rate, m**2/s**3
 6 - kinematic heat conductance, m**2/s
 7 - modulus of horizontal velocity, m/s
 8 - Richardson number, n/d
   -0.000000   30.70275  0.4420E-14  0.5167E-05  0.3347E-06  0.5285E-04  0.1915E-02  0.6919E+04
   -0.049997   30.73450  0.4420E-14  0.8727E-05  0.1491E-06  0.1774E-03  0.1109E-02  0.1960E+04
   -0.099994   30.74737  0.4420E-14  0.1060E-04  0.1017E-06  0.4060E-03  0.8089E-03  0.1337E+02
   -0.149992   30.75083  0.4420E-14  0.1177E-04  0.8509E-07  0.4846E-03  0.7151E-03  0.6550E+01
   -0.199991   30.75361  0.4420E-14  0.1268E-04  0.7536E-07  0.6514E-03  0.6386E-03  0.4175E+01
   -0.249989   30.75562  0.4420E-14  0.1340E-04  0.6902E-07  0.7788E-03  0.5816E-03  0.3076E+01
   -0.299988   30.75725  0.4420E-14  0.1399E-04  0.6450E-07  0.9071E-03  0.5342E-03  0.2440E+01
   -0.349988   30.75862  0.4420E-14  0.1448E-04  0.6112E-07  0.1023E-02  0.4936E-03  0.2084E+01
   -0.399988   30.75980  0.4420E-14  0.1488E-04  0.5849E-07  0.1129E-02  0.4578E-03  0.1853E+01
   -0.449988   30.76084  0.4420E-14  0.1523E-04  0.5635E-07  0.1227E-02  0.4263E-03  0.1738E+01
   -0.499988   30.76179  0.4420E-14  0.1553E-04  0.5458E-07  0.1318E-02  0.3984E-03  0.1687E+01
   -0.549989   30.76265  0.4420E-14  0.1579E-04  0.5310E-07  0.1400E-02  0.3734E-03  0.1664E+01
   -0.599989   30.76344  0.4420E-14  0.1602E-04  0.5185E-07  0.1475E-02  0.3509E-03  0.1661E+01
   -0.649990   30.76419  0.4420E-14  0.1620E-04  0.5079E-07  0.1542E-02  0.3302E-03  0.1682E+01
   -0.699992   30.76489  0.4420E-14  0.1636E-04  0.4989E-07  0.1601E-02  0.3113E-03  0.1716E+01
   -0.749993   30.76555  0.4420E-14  0.1649E-04  0.4914E-07  0.1653E-02  0.2938E-03  0.1772E+01
   -0.799994   30.76619  0.4420E-14  0.1660E-04  0.4851E-07  0.1696E-02  0.2775E-03  0.1843E+01
   -0.849996   30.76680  0.4420E-14  0.1668E-04  0.4801E-07  0.1731E-02  0.2622E-03  0.1939E+01
   -0.899998   30.76739  0.4420E-14  0.1674E-04  0.4761E-07  0.1758E-02  0.2479E-03  0.2051E+01
   -0.949999   30.76797  0.4420E-14  0.1677E-04  0.4733E-07  0.1777E-02  0.2344E-03  0.2198E+01
   -1.000001   30.76853  0.4420E-14  0.1678E-04  0.4715E-07  0.1787E-02  0.2217E-03  0.2369E+01
   -1.050003   30.76909  0.4420E-14  0.1677E-04  0.4710E-07  0.1786E-02  0.2095E-03  0.2686E+01
   -1.100004   30.76964  0.4420E-14  0.1673E-04  0.4716E-07  0.1882E-02  0.1980E-03  0.8806E+01
   -1.150006   30.77016  0.4420E-14  0.1667E-04  0.4738E-07  0.1689E-02  0.1877E-03  0.2062E+02
   -1.200007   30.77074  0.4420E-14  0.1659E-04  0.4774E-07  0.1722E-02  0.1769E-03  0.3911E+01
   -1.250009   30.77130  0.4420E-14  0.1647E-04  0.4830E-07  0.1691E-02  0.1666E-03  0.4157E+01
   -1.300010   30.77186  0.4420E-14  0.1633E-04  0.4910E-07  0.1638E-02  0.1567E-03  0.4891E+01
   -1.350011   30.77244  0.4420E-14  0.1615E-04  0.5019E-07  0.1577E-02  0.1471E-03  0.5872E+01
   -1.400012   30.77305  0.4420E-14  0.1593E-04  0.5169E-07  0.1495E-02  0.1376E-03  0.7333E+01
   -1.450013   30.77368  0.4420E-14  0.1566E-04  0.5376E-07  0.1416E-02  0.1284E-03  0.9425E+01
   -1.500014   30.77435  0.4420E-14  0.1533E-04  0.5667E-07  0.1300E-02  0.1193E-03  0.1309E+02
   -1.550014   30.77510  0.4420E-14  0.1494E-04  0.6082E-07  0.1218E-02  0.1101E-03  0.1915E+02
   -1.600014   30.77589  0.4420E-14  0.1444E-04  0.6738E-07  0.1070E-02  0.1011E-03  0.4454E+02
   -1.650014   30.77692  0.4420E-14  0.1380E-04  0.7769E-07  0.9900E-03  0.9120E-04  0.9855E+03
   -1.700013   30.77807  0.4420E-14  0.1291E-04  0.9590E-07  0.8049E-03  0.8144E-04  0.2501E+05
   -1.750013   30.78018  0.4420E-14  0.1180E-04  0.1253E-06  0.7275E-03  0.6832E-04  0.3515E+06
   -1.800011   30.78161  0.4420E-14  0.1035E-04  0.1887E-06  0.4995E-03  0.5899E-04  0.2427E+05
   -1.850010   30.78924  0.4420E-14  0.8794E-05  0.3101E-06  0.4711E-03  0.4140E-04  0.2734E+07
   -1.900007   30.78690  0.4420E-14  0.7015E-05  0.6495E-06  0.2158E-03  0.3412E-04  0.9091E+04
   -1.950005   30.80818  0.4420E-14  0.4940E-05  0.1582E-05  0.2016E-03  0.1835E-04 -0.6315E+06
   -2.000002   30.80917  0.4420E-14  0.0000E+00  0.0000E+00  0.0000E+00  0.3456E-04  0.0000E+00
