 1 - depth, m
 2 - temperature, C
 3 - salinity, kg/kg
 4 - turbulent kinetic energy, m**2/s**2
 5 - dissipation rate, m**2/s**3
 6 - kinematic heat conductance, m**2/s
 7 - modulus of horizontal velocity, m/s
 8 - Richardson number, n/d
   -0.000000   30.47787  0.8402E-13  0.4814E-05  0.2988E-06  0.5068E-04  0.1696E-02  0.6680E+04
   -0.049997   30.50770  0.8402E-13  0.8203E-05  0.1332E-06  0.1751E-03  0.9730E-03  0.3718E+03
   -0.099994   30.51937  0.8402E-13  0.9956E-05  0.9135E-07  0.3970E-03  0.7111E-03  0.1670E+02
   -0.149992   30.52258  0.8402E-13  0.1105E-04  0.7658E-07  0.4767E-03  0.6280E-03  0.8146E+01
   -0.199991   30.52514  0.8402E-13  0.1191E-04  0.6795E-07  0.6381E-03  0.5606E-03  0.5219E+01
   -0.249989   30.52700  0.8402E-13  0.1259E-04  0.6230E-07  0.7632E-03  0.5102E-03  0.3844E+01
   -0.299988   30.52850  0.8402E-13  0.1314E-04  0.5828E-07  0.8879E-03  0.4683E-03  0.3059E+01
   -0.349988   30.52977  0.8402E-13  0.1360E-04  0.5528E-07  0.1001E-02  0.4324E-03  0.2612E+01
   -0.399988   30.53087  0.8402E-13  0.1399E-04  0.5294E-07  0.1104E-02  0.4007E-03  0.2329E+01
   -0.449988   30.53184  0.8402E-13  0.1432E-04  0.5105E-07  0.1200E-02  0.3728E-03  0.2182E+01
   -0.499988   30.53271  0.8402E-13  0.1461E-04  0.4949E-07  0.1289E-02  0.3481E-03  0.2124E+01
   -0.549989   30.53351  0.8402E-13  0.1486E-04  0.4818E-07  0.1370E-02  0.3260E-03  0.2092E+01
   -0.599989   30.53425  0.8402E-13  0.1508E-04  0.4709E-07  0.1443E-02  0.3061E-03  0.2096E+01
   -0.649990   30.53495  0.8402E-13  0.1527E-04  0.4617E-07  0.1509E-02  0.2879E-03  0.2120E+01
   -0.699992   30.53560  0.8402E-13  0.1543E-04  0.4540E-07  0.1567E-02  0.2711E-03  0.2172E+01
   -0.749993   30.53622  0.8402E-13  0.1556E-04  0.4476E-07  0.1617E-02  0.2557E-03  0.2242E+01
   -0.799994   30.53681  0.8402E-13  0.1567E-04  0.4423E-07  0.1660E-02  0.2413E-03  0.2341E+01
   -0.849996   30.53738  0.8402E-13  0.1576E-04  0.4381E-07  0.1695E-02  0.2279E-03  0.2462E+01
   -0.899998   30.53794  0.8402E-13  0.1582E-04  0.4350E-07  0.1722E-02  0.2153E-03  0.2617E+01
   -0.949999   30.53848  0.8402E-13  0.1587E-04  0.4328E-07  0.1741E-02  0.2034E-03  0.2801E+01
   -1.000001   30.53901  0.8402E-13  0.1589E-04  0.4317E-07  0.1752E-02  0.1922E-03  0.3034E+01
   -1.050003   30.53953  0.8402E-13  0.1589E-04  0.4317E-07  0.1753E-02  0.1815E-03  0.3440E+01
   -1.100004   30.54005  0.8402E-13  0.1588E-04  0.4327E-07  0.1839E-02  0.1714E-03  0.1144E+02
   -1.150006   30.54054  0.8402E-13  0.1583E-04  0.4352E-07  0.1669E-02  0.1623E-03  0.2598E+02
   -1.200008   30.54109  0.8402E-13  0.1577E-04  0.4389E-07  0.1695E-02  0.1529E-03  0.4994E+01
   -1.250009   30.54162  0.8402E-13  0.1568E-04  0.4444E-07  0.1664E-02  0.1439E-03  0.5350E+01
   -1.300010   30.54216  0.8402E-13  0.1556E-04  0.4520E-07  0.1614E-02  0.1352E-03  0.6265E+01
   -1.350012   30.54271  0.8402E-13  0.1541E-04  0.4623E-07  0.1555E-02  0.1268E-03  0.7535E+01
   -1.400013   30.54328  0.8402E-13  0.1522E-04  0.4761E-07  0.1478E-02  0.1186E-03  0.9319E+01
   -1.450013   30.54389  0.8402E-13  0.1499E-04  0.4947E-07  0.1400E-02  0.1106E-03  0.1194E+02
   -1.500014   30.54453  0.8402E-13  0.1471E-04  0.5205E-07  0.1288E-02  0.1027E-03  0.1624E+02
   -1.550014   30.54524  0.8402E-13  0.1436E-04  0.5569E-07  0.1206E-02  0.9474E-04  0.2329E+02
   -1.600014   30.54600  0.8402E-13  0.1393E-04  0.6124E-07  0.1059E-02  0.8697E-04  0.4563E+02
   -1.650014   30.54693  0.8402E-13  0.1337E-04  0.6985E-07  0.9860E-03  0.7860E-04  0.2196E+04
   -1.700014   30.54799  0.8402E-13  0.1260E-04  0.8532E-07  0.7973E-03  0.7045E-04  0.1446E+05
   -1.750013   30.54986  0.8402E-13  0.1157E-04  0.1106E-06  0.7263E-03  0.5949E-04  0.5011E+05
   -1.800011   30.55145  0.8402E-13  0.1018E-04  0.1647E-06  0.5006E-03  0.5107E-04  0.3491E+05
   -1.850010   30.55794  0.8402E-13  0.8639E-05  0.2648E-06  0.4669E-03  0.3621E-04  0.4451E+07
   -1.900008   30.55659  0.8402E-13  0.6888E-05  0.5502E-06  0.2131E-03  0.2955E-04  0.2089E+07
   -1.950005   30.57669  0.8402E-13  0.4832E-05  0.1388E-05  0.1882E-03  0.1589E-04 -0.5155E+06
   -2.000002   30.57904  0.8402E-13  0.0000E+00  0.0000E+00  0.0000E+00  0.2936E-04  0.0000E+00
