 1 - depth, m
 2 - temperature, C
 3 - salinity, kg/kg
 4 - turbulent kinetic energy, m**2/s**2
 5 - dissipation rate, m**2/s**3
 6 - kinematic heat conductance, m**2/s
 7 - modulus of horizontal velocity, m/s
 8 - Richardson number, n/d
   -0.000000   31.41707  0.1915E-13  0.5294E-05  0.3489E-06  0.5252E-04  0.5999E-03  0.2726E+05
   -0.049997   31.45153  0.1915E-13  0.9266E-05  0.1548E-06  0.1904E-03  0.3438E-03  0.1165E+05
   -0.099994   31.46407  0.1915E-13  0.1122E-04  0.1068E-06  0.4317E-03  0.2512E-03  0.1514E+03
   -0.149992   31.46753  0.1915E-13  0.1244E-04  0.8998E-07  0.5069E-03  0.2232E-03  0.7521E+02
   -0.199990   31.47035  0.1915E-13  0.1339E-04  0.8007E-07  0.6812E-03  0.1998E-03  0.4901E+02
   -0.249989   31.47238  0.1915E-13  0.1414E-04  0.7355E-07  0.8118E-03  0.1825E-03  0.3643E+02
   -0.299988   31.47404  0.1915E-13  0.1476E-04  0.6890E-07  0.9433E-03  0.1680E-03  0.2916E+02
   -0.349988   31.47543  0.1915E-13  0.1527E-04  0.6540E-07  0.1062E-02  0.1556E-03  0.2490E+02
   -0.399987   31.47664  0.1915E-13  0.1569E-04  0.6268E-07  0.1170E-02  0.1445E-03  0.2226E+02
   -0.449987   31.47771  0.1915E-13  0.1606E-04  0.6047E-07  0.1270E-02  0.1349E-03  0.2080E+02
   -0.499988   31.47868  0.1915E-13  0.1638E-04  0.5864E-07  0.1362E-02  0.1262E-03  0.2028E+02
   -0.549988   31.47956  0.1915E-13  0.1665E-04  0.5711E-07  0.1446E-02  0.1185E-03  0.1990E+02
   -0.599989   31.48038  0.1915E-13  0.1688E-04  0.5582E-07  0.1521E-02  0.1115E-03  0.1996E+02
   -0.649990   31.48114  0.1915E-13  0.1708E-04  0.5473E-07  0.1589E-02  0.1051E-03  0.2010E+02
   -0.699991   31.48187  0.1915E-13  0.1725E-04  0.5382E-07  0.1648E-02  0.9924E-04  0.2061E+02
   -0.749992   31.48255  0.1915E-13  0.1739E-04  0.5305E-07  0.1699E-02  0.9379E-04  0.2118E+02
   -0.799994   31.48321  0.1915E-13  0.1750E-04  0.5243E-07  0.1742E-02  0.8870E-04  0.2215E+02
   -0.849995   31.48384  0.1915E-13  0.1758E-04  0.5193E-07  0.1777E-02  0.8395E-04  0.2318E+02
   -0.899997   31.48445  0.1915E-13  0.1764E-04  0.5155E-07  0.1803E-02  0.7947E-04  0.2468E+02
   -0.949998   31.48505  0.1915E-13  0.1768E-04  0.5130E-07  0.1819E-02  0.7524E-04  0.2632E+02
   -1.000000   31.48564  0.1915E-13  0.1769E-04  0.5116E-07  0.1828E-02  0.7123E-04  0.2856E+02
   -1.050002   31.48622  0.1915E-13  0.1767E-04  0.5116E-07  0.1825E-02  0.6742E-04  0.3224E+02
   -1.100003   31.48680  0.1915E-13  0.1763E-04  0.5130E-07  0.1933E-02  0.6376E-04  0.1050E+03
   -1.150005   31.48734  0.1915E-13  0.1757E-04  0.5161E-07  0.1707E-02  0.6054E-04  0.2556E+03
   -1.200007   31.48795  0.1915E-13  0.1747E-04  0.5208E-07  0.1749E-02  0.5709E-04  0.4747E+02
   -1.250008   31.48854  0.1915E-13  0.1735E-04  0.5278E-07  0.1717E-02  0.5382E-04  0.5083E+02
   -1.300009   31.48914  0.1915E-13  0.1719E-04  0.5375E-07  0.1659E-02  0.5067E-04  0.5981E+02
   -1.350010   31.48975  0.1915E-13  0.1699E-04  0.5509E-07  0.1594E-02  0.4760E-04  0.7271E+02
   -1.400011   31.49040  0.1915E-13  0.1675E-04  0.5691E-07  0.1506E-02  0.4460E-04  0.9133E+02
   -1.450012   31.49108  0.1915E-13  0.1645E-04  0.5941E-07  0.1427E-02  0.4163E-04  0.1195E+03
   -1.500013   31.49180  0.1915E-13  0.1609E-04  0.6295E-07  0.1305E-02  0.3871E-04  0.1692E+03
   -1.550013   31.49261  0.1915E-13  0.1565E-04  0.6806E-07  0.1226E-02  0.3573E-04  0.2630E+03
   -1.600013   31.49348  0.1915E-13  0.1509E-04  0.7629E-07  0.1072E-02  0.3282E-04  0.9377E+03
   -1.650013   31.49467  0.1915E-13  0.1436E-04  0.8911E-07  0.9923E-03  0.2950E-04  0.1793E+05
   -1.700012   31.49598  0.1915E-13  0.1335E-04  0.1117E-06  0.8007E-03  0.2627E-04  0.4979E+05
   -1.750011   31.49844  0.1915E-13  0.1212E-04  0.1479E-06  0.7298E-03  0.2182E-04  0.1421E+07
   -1.800010   31.49995  0.1915E-13  0.1059E-04  0.2286E-06  0.4980E-03  0.1886E-04  0.1519E+06
   -1.850008   31.50904  0.1915E-13  0.9022E-05  0.3787E-06  0.4765E-03  0.1303E-04  0.3581E+09
   -1.900006   31.50539  0.1915E-13  0.7250E-05  0.7895E-06  0.2217E-03  0.1088E-04 -0.1697E+07
   -1.950003   31.52943  0.1915E-13  0.5162E-05  0.1890E-05  0.2164E-03  0.5841E-05 -0.1120E+07
   -2.000000   31.53032  0.1915E-13  0.0000E+00  0.0000E+00  0.0000E+00  0.1141E-04  0.0000E+00
