 1 - depth, m
 2 - temperature, C
 3 - salinity, kg/kg
 4 - turbulent kinetic energy, m**2/s**2
 5 - dissipation rate, m**2/s**3
 6 - kinematic heat conductance, m**2/s
 7 - modulus of horizontal velocity, m/s
 8 - Richardson number, n/d
   -0.000000   31.38399  0.3119E-13  0.5264E-05  0.3455E-06  0.5229E-04  0.6005E-03  0.1114E+05
   -0.049997   31.41831  0.3119E-13  0.9214E-05  0.1532E-06  0.1899E-03  0.3438E-03  0.1888E+05
   -0.099994   31.43076  0.3119E-13  0.1115E-04  0.1057E-06  0.4305E-03  0.2512E-03  0.1510E+03
   -0.149992   31.43420  0.3119E-13  0.1236E-04  0.8912E-07  0.5058E-03  0.2231E-03  0.7493E+02
   -0.199990   31.43700  0.3119E-13  0.1331E-04  0.7931E-07  0.6793E-03  0.1998E-03  0.4885E+02
   -0.249989   31.43902  0.3119E-13  0.1406E-04  0.7285E-07  0.8096E-03  0.1824E-03  0.3630E+02
   -0.299988   31.44067  0.3119E-13  0.1467E-04  0.6824E-07  0.9406E-03  0.1679E-03  0.2905E+02
   -0.349988   31.44206  0.3119E-13  0.1517E-04  0.6477E-07  0.1059E-02  0.1555E-03  0.2481E+02
   -0.399987   31.44326  0.3119E-13  0.1559E-04  0.6207E-07  0.1167E-02  0.1444E-03  0.2217E+02
   -0.449987   31.44432  0.3119E-13  0.1596E-04  0.5988E-07  0.1266E-02  0.1347E-03  0.2072E+02
   -0.499988   31.44528  0.3119E-13  0.1627E-04  0.5806E-07  0.1358E-02  0.1261E-03  0.2019E+02
   -0.549988   31.44616  0.3119E-13  0.1654E-04  0.5654E-07  0.1441E-02  0.1184E-03  0.1981E+02
   -0.599989   31.44697  0.3119E-13  0.1677E-04  0.5526E-07  0.1517E-02  0.1114E-03  0.1987E+02
   -0.649990   31.44773  0.3119E-13  0.1697E-04  0.5418E-07  0.1584E-02  0.1050E-03  0.2000E+02
   -0.699991   31.44845  0.3119E-13  0.1714E-04  0.5327E-07  0.1644E-02  0.9909E-04  0.2051E+02
   -0.749992   31.44913  0.3119E-13  0.1727E-04  0.5251E-07  0.1695E-02  0.9365E-04  0.2106E+02
   -0.799994   31.44978  0.3119E-13  0.1738E-04  0.5188E-07  0.1738E-02  0.8855E-04  0.2202E+02
   -0.849995   31.45041  0.3119E-13  0.1747E-04  0.5138E-07  0.1772E-02  0.8380E-04  0.2304E+02
   -0.899997   31.45102  0.3119E-13  0.1753E-04  0.5101E-07  0.1798E-02  0.7932E-04  0.2453E+02
   -0.949998   31.45161  0.3119E-13  0.1756E-04  0.5075E-07  0.1815E-02  0.7510E-04  0.2614E+02
   -1.000000   31.45219  0.3119E-13  0.1757E-04  0.5061E-07  0.1824E-02  0.7108E-04  0.2836E+02
   -1.050002   31.45277  0.3119E-13  0.1756E-04  0.5060E-07  0.1821E-02  0.6728E-04  0.3198E+02
   -1.100003   31.45334  0.3119E-13  0.1752E-04  0.5073E-07  0.1928E-02  0.6362E-04  0.1045E+03
   -1.150005   31.45387  0.3119E-13  0.1745E-04  0.5103E-07  0.1706E-02  0.6040E-04  0.2511E+03
   -1.200007   31.45448  0.3119E-13  0.1736E-04  0.5148E-07  0.1747E-02  0.5696E-04  0.4690E+02
   -1.250008   31.45506  0.3119E-13  0.1724E-04  0.5216E-07  0.1715E-02  0.5369E-04  0.5020E+02
   -1.300009   31.45565  0.3119E-13  0.1708E-04  0.5311E-07  0.1658E-02  0.5055E-04  0.5897E+02
   -1.350010   31.45626  0.3119E-13  0.1689E-04  0.5440E-07  0.1593E-02  0.4749E-04  0.7149E+02
   -1.400011   31.45690  0.3119E-13  0.1665E-04  0.5616E-07  0.1506E-02  0.4450E-04  0.8943E+02
   -1.450012   31.45757  0.3119E-13  0.1636E-04  0.5858E-07  0.1426E-02  0.4154E-04  0.1164E+03
   -1.500013   31.45829  0.3119E-13  0.1601E-04  0.6198E-07  0.1304E-02  0.3863E-04  0.1633E+03
   -1.550013   31.45908  0.3119E-13  0.1558E-04  0.6690E-07  0.1223E-02  0.3567E-04  0.2495E+03
   -1.600013   31.45995  0.3119E-13  0.1503E-04  0.7472E-07  0.1071E-02  0.3275E-04  0.7168E+03
   -1.650013   31.46109  0.3119E-13  0.1432E-04  0.8692E-07  0.9911E-03  0.2952E-04  0.2673E+04
   -1.700012   31.46235  0.3119E-13  0.1335E-04  0.1084E-06  0.8021E-03  0.2630E-04  0.2052E+06
   -1.750011   31.46473  0.3119E-13  0.1214E-04  0.1431E-06  0.7277E-03  0.2199E-04  0.9318E+06
   -1.800010   31.46629  0.3119E-13  0.1059E-04  0.2162E-06  0.4977E-03  0.1895E-04  0.3373E+07
   -1.850008   31.47490  0.3119E-13  0.8977E-05  0.3589E-06  0.4691E-03  0.1315E-04  0.1452E+09
   -1.900006   31.47204  0.3119E-13  0.7147E-05  0.7540E-06  0.2194E-03  0.1083E-04  0.1356E+07
   -1.950003   31.49572  0.3119E-13  0.5104E-05  0.1817E-05  0.2128E-03  0.5771E-05 -0.9336E+07
   -2.000000   31.49649  0.3119E-13  0.0000E+00  0.0000E+00  0.0000E+00  0.1125E-04  0.0000E+00
