 1 - depth, m
 2 - temperature, C
 3 - salinity, kg/kg
 4 - turbulent kinetic energy, m**2/s**2
 5 - dissipation rate, m**2/s**3
 6 - kinematic heat conductance, m**2/s
 7 - modulus of horizontal velocity, m/s
 8 - Richardson number, n/d
   -0.000000   30.60746  0.3479E-14  0.5440E-05  0.3169E-06  0.5269E-04  0.3268E-02  0.8048E+03
   -0.049997   30.63834  0.3479E-14  0.8850E-05  0.1375E-06  0.2033E-03  0.1765E-02  0.5408E+03
   -0.099994   30.64790  0.3479E-14  0.1044E-04  0.9729E-07  0.3918E-03  0.1379E-02  0.4864E+01
   -0.149992   30.65128  0.3479E-14  0.1149E-04  0.8190E-07  0.4888E-03  0.1227E-02  0.2521E+01
   -0.199991   30.65387  0.3479E-14  0.1232E-04  0.7292E-07  0.6311E-03  0.1109E-02  0.1675E+01
   -0.249989   30.65582  0.3479E-14  0.1299E-04  0.6705E-07  0.7430E-03  0.1017E-02  0.1315E+01
   -0.299988   30.65743  0.3479E-14  0.1357E-04  0.6276E-07  0.8520E-03  0.9390E-03  0.1237E+01
   -0.349988   30.65880  0.3479E-14  0.1409E-04  0.5933E-07  0.9730E-03  0.8662E-03  0.1299E+01
   -0.399988   30.65998  0.3479E-14  0.1457E-04  0.5647E-07  0.1104E-02  0.7954E-03  0.1324E+01
   -0.449988   30.66099  0.3479E-14  0.1500E-04  0.5408E-07  0.1232E-02  0.7297E-03  0.1335E+01
   -0.499988   30.66188  0.3479E-14  0.1539E-04  0.5208E-07  0.1351E-02  0.6704E-03  0.1341E+01
   -0.549989   30.66268  0.3479E-14  0.1572E-04  0.5043E-07  0.1461E-02  0.6171E-03  0.1337E+01
   -0.599989   30.66340  0.3479E-14  0.1600E-04  0.4906E-07  0.1559E-02  0.5692E-03  0.1329E+01
   -0.649990   30.66407  0.3479E-14  0.1624E-04  0.4794E-07  0.1646E-02  0.5261E-03  0.1316E+01
   -0.699992   30.66469  0.3479E-14  0.1643E-04  0.4703E-07  0.1719E-02  0.4873E-03  0.1299E+01
   -0.749993   30.66528  0.3479E-14  0.1658E-04  0.4631E-07  0.1779E-02  0.4525E-03  0.1278E+01
   -0.799994   30.66584  0.3479E-14  0.1669E-04  0.4575E-07  0.1826E-02  0.4211E-03  0.1255E+01
   -0.849996   30.66638  0.3479E-14  0.1677E-04  0.4535E-07  0.1859E-02  0.3928E-03  0.1227E+01
   -0.899998   30.66690  0.3479E-14  0.1681E-04  0.4508E-07  0.1879E-02  0.3674E-03  0.1198E+01
   -0.949999   30.66742  0.3479E-14  0.1683E-04  0.4494E-07  0.1888E-02  0.3446E-03  0.1167E+01
   -1.000001   30.66793  0.3479E-14  0.1682E-04  0.4491E-07  0.1886E-02  0.3240E-03  0.1149E+01
   -1.050003   30.66843  0.3479E-14  0.1679E-04  0.4500E-07  0.1872E-02  0.3055E-03  0.1185E+01
   -1.100005   30.66893  0.3479E-14  0.1674E-04  0.4520E-07  0.2013E-02  0.2885E-03  0.3540E+01
   -1.150006   30.66939  0.3479E-14  0.1666E-04  0.4555E-07  0.1709E-02  0.2744E-03  0.8982E+01
   -1.200008   30.66994  0.3479E-14  0.1656E-04  0.4604E-07  0.1778E-02  0.2587E-03  0.1643E+01
   -1.250009   30.67046  0.3479E-14  0.1643E-04  0.4672E-07  0.1742E-02  0.2440E-03  0.1751E+01
   -1.300011   30.67098  0.3479E-14  0.1627E-04  0.4765E-07  0.1680E-02  0.2299E-03  0.2068E+01
   -1.350012   30.67153  0.3479E-14  0.1607E-04  0.4889E-07  0.1610E-02  0.2161E-03  0.2506E+01
   -1.400013   30.67209  0.3479E-14  0.1584E-04  0.5056E-07  0.1518E-02  0.2026E-03  0.3151E+01
   -1.450014   30.67270  0.3479E-14  0.1555E-04  0.5284E-07  0.1432E-02  0.1892E-03  0.4105E+01
   -1.500014   30.67334  0.3479E-14  0.1521E-04  0.5603E-07  0.1307E-02  0.1759E-03  0.5775E+01
   -1.550015   30.67405  0.3479E-14  0.1479E-04  0.6060E-07  0.1222E-02  0.1625E-03  0.8806E+01
   -1.600015   30.67483  0.3479E-14  0.1426E-04  0.6784E-07  0.1066E-02  0.1493E-03  0.1506E+02
   -1.650014   30.67586  0.3479E-14  0.1357E-04  0.7918E-07  0.9840E-03  0.1344E-03  0.4388E+04
   -1.700014   30.67702  0.3479E-14  0.1263E-04  0.9876E-07  0.7955E-03  0.1197E-03  0.1454E+04
   -1.750013   30.67916  0.3479E-14  0.1147E-04  0.1306E-06  0.7178E-03  0.9995E-04  0.2509E+05
   -1.800012   30.68064  0.3479E-14  0.9952E-05  0.1984E-06  0.4922E-03  0.8587E-04  0.5600E+04
   -1.850010   30.68851  0.3479E-14  0.8379E-05  0.3278E-06  0.4598E-03  0.5922E-04  0.7916E+07
   -1.900008   30.68580  0.3479E-14  0.6603E-05  0.6866E-06  0.2102E-03  0.4870E-04  0.5325E+05
   -1.950005   30.70782  0.3479E-14  0.4709E-05  0.1658E-05  0.2115E-03  0.2541E-04 -0.1885E+06
   -2.000002   30.70759  0.3479E-14  0.0000E+00  0.0000E+00  0.0000E+00  0.5110E-04  0.0000E+00
