 1 - depth, m
 2 - temperature, C
 3 - salinity, kg/kg
 4 - turbulent kinetic energy, m**2/s**2
 5 - dissipation rate, m**2/s**3
 6 - kinematic heat conductance, m**2/s
 7 - modulus of horizontal velocity, m/s
 8 - Richardson number, n/d
   -0.000000   31.61853  0.7337E-14  0.5440E-05  0.3561E-06  0.5145E-04  0.4392E-03  0.4589E+05
   -0.049997   31.65560  0.7337E-14  0.9575E-05  0.1586E-06  0.2003E-03  0.2460E-03  0.9541E+04
   -0.099994   31.66735  0.7337E-14  0.1152E-04  0.1105E-06  0.4332E-03  0.1829E-03  0.2550E+03
   -0.149992   31.67096  0.7337E-14  0.1275E-04  0.9323E-07  0.5140E-03  0.1623E-03  0.1279E+03
   -0.199990   31.67385  0.7337E-14  0.1371E-04  0.8298E-07  0.6873E-03  0.1455E-03  0.8365E+02
   -0.249989   31.67594  0.7337E-14  0.1447E-04  0.7621E-07  0.8190E-03  0.1329E-03  0.6234E+02
   -0.299988   31.67765  0.7337E-14  0.1509E-04  0.7135E-07  0.9504E-03  0.1224E-03  0.4981E+02
   -0.349988   31.67908  0.7337E-14  0.1560E-04  0.6768E-07  0.1069E-02  0.1134E-03  0.4260E+02
   -0.399987   31.68032  0.7337E-14  0.1602E-04  0.6481E-07  0.1177E-02  0.1054E-03  0.3796E+02
   -0.449987   31.68142  0.7337E-14  0.1638E-04  0.6247E-07  0.1278E-02  0.9831E-04  0.3557E+02
   -0.499988   31.68241  0.7337E-14  0.1669E-04  0.6052E-07  0.1369E-02  0.9205E-04  0.3455E+02
   -0.549988   31.68332  0.7337E-14  0.1696E-04  0.5887E-07  0.1453E-02  0.8644E-04  0.3398E+02
   -0.599989   31.68415  0.7337E-14  0.1718E-04  0.5748E-07  0.1528E-02  0.8134E-04  0.3392E+02
   -0.649990   31.68493  0.7337E-14  0.1737E-04  0.5629E-07  0.1596E-02  0.7668E-04  0.3422E+02
   -0.699991   31.68567  0.7337E-14  0.1752E-04  0.5528E-07  0.1655E-02  0.7239E-04  0.3491E+02
   -0.749992   31.68637  0.7337E-14  0.1765E-04  0.5443E-07  0.1706E-02  0.6842E-04  0.3591E+02
   -0.799994   31.68704  0.7337E-14  0.1775E-04  0.5371E-07  0.1748E-02  0.6472E-04  0.3734E+02
   -0.849995   31.68768  0.7337E-14  0.1782E-04  0.5312E-07  0.1783E-02  0.6125E-04  0.3909E+02
   -0.899997   31.68830  0.7337E-14  0.1786E-04  0.5266E-07  0.1808E-02  0.5799E-04  0.4139E+02
   -0.949999   31.68890  0.7337E-14  0.1788E-04  0.5232E-07  0.1825E-02  0.5491E-04  0.4411E+02
   -1.000000   31.68949  0.7337E-14  0.1787E-04  0.5210E-07  0.1833E-02  0.5198E-04  0.4762E+02
   -1.050002   31.69008  0.7337E-14  0.1784E-04  0.5201E-07  0.1829E-02  0.4920E-04  0.5362E+02
   -1.100004   31.69065  0.7337E-14  0.1779E-04  0.5207E-07  0.1942E-02  0.4654E-04  0.1734E+03
   -1.150005   31.69119  0.7337E-14  0.1770E-04  0.5230E-07  0.1704E-02  0.4420E-04  0.4239E+03
   -1.200007   31.69180  0.7337E-14  0.1759E-04  0.5268E-07  0.1752E-02  0.4168E-04  0.7835E+02
   -1.250008   31.69238  0.7337E-14  0.1744E-04  0.5330E-07  0.1719E-02  0.3930E-04  0.8328E+02
   -1.300010   31.69298  0.7337E-14  0.1727E-04  0.5419E-07  0.1661E-02  0.3700E-04  0.9771E+02
   -1.350011   31.69358  0.7337E-14  0.1705E-04  0.5544E-07  0.1594E-02  0.3477E-04  0.1182E+03
   -1.400012   31.69421  0.7337E-14  0.1679E-04  0.5717E-07  0.1507E-02  0.3258E-04  0.1477E+03
   -1.450013   31.69488  0.7337E-14  0.1647E-04  0.5958E-07  0.1422E-02  0.3042E-04  0.1927E+03
   -1.500013   31.69559  0.7337E-14  0.1609E-04  0.6302E-07  0.1305E-02  0.2829E-04  0.2694E+03
   -1.550013   31.69637  0.7337E-14  0.1563E-04  0.6807E-07  0.1216E-02  0.2613E-04  0.4235E+03
   -1.600013   31.69723  0.7337E-14  0.1504E-04  0.7612E-07  0.1074E-02  0.2398E-04  0.1102E+05
   -1.650013   31.69833  0.7337E-14  0.1428E-04  0.8894E-07  0.9820E-03  0.2162E-04  0.2407E+06
   -1.700013   31.69966  0.7337E-14  0.1323E-04  0.1121E-06  0.8075E-03  0.1919E-04  0.1323E+06
   -1.750012   31.70197  0.7337E-14  0.1198E-04  0.1481E-06  0.7175E-03  0.1602E-04  0.2179E+07
   -1.800010   31.70352  0.7337E-14  0.1035E-04  0.2287E-06  0.4938E-03  0.1376E-04  0.2636E+07
   -1.850009   31.71243  0.7337E-14  0.8744E-05  0.3790E-06  0.4667E-03  0.9430E-05  0.5424E+09
   -1.900006   31.70884  0.7337E-14  0.6918E-05  0.7883E-06  0.2103E-03  0.7832E-05 -0.4234E+07
   -1.950004   31.73262  0.7337E-14  0.4971E-05  0.1884E-05  0.2225E-03  0.4101E-05 -0.1824E+07
   -2.000001   31.73155  0.7337E-14  0.0000E+00  0.0000E+00  0.0000E+00  0.8288E-05  0.0000E+00
