 1 - depth, m
 2 - temperature, C
 3 - salinity, kg/kg
 4 - turbulent kinetic energy, m**2/s**2
 5 - dissipation rate, m**2/s**3
 6 - kinematic heat conductance, m**2/s
 7 - modulus of horizontal velocity, m/s
 8 - Richardson number, n/d
   -0.000000   31.32983  0.7299E-14  0.5127E-05  0.3330E-06  0.5233E-04  0.1242E-02  0.1012E+05
   -0.049997   31.36194  0.7299E-14  0.8806E-05  0.1483E-06  0.1814E-03  0.7134E-03  0.4530E+03
   -0.099994   31.37460  0.7299E-14  0.1070E-04  0.1018E-06  0.4122E-03  0.5227E-03  0.3629E+02
   -0.149992   31.37801  0.7299E-14  0.1188E-04  0.8539E-07  0.4910E-03  0.4626E-03  0.1776E+02
   -0.199991   31.38075  0.7299E-14  0.1280E-04  0.7579E-07  0.6592E-03  0.4135E-03  0.1140E+02
   -0.249989   31.38273  0.7299E-14  0.1353E-04  0.6951E-07  0.7871E-03  0.3770E-03  0.8399E+01
   -0.299988   31.38434  0.7299E-14  0.1412E-04  0.6504E-07  0.9159E-03  0.3465E-03  0.6695E+01
   -0.349988   31.38569  0.7299E-14  0.1461E-04  0.6168E-07  0.1032E-02  0.3205E-03  0.5696E+01
   -0.399987   31.38685  0.7299E-14  0.1502E-04  0.5908E-07  0.1138E-02  0.2974E-03  0.5088E+01
   -0.449988   31.38789  0.7299E-14  0.1537E-04  0.5696E-07  0.1236E-02  0.2771E-03  0.4745E+01
   -0.499988   31.38882  0.7299E-14  0.1567E-04  0.5520E-07  0.1326E-02  0.2591E-03  0.4630E+01
   -0.549988   31.38968  0.7299E-14  0.1594E-04  0.5373E-07  0.1409E-02  0.2430E-03  0.4535E+01
   -0.599989   31.39047  0.7299E-14  0.1616E-04  0.5250E-07  0.1483E-02  0.2284E-03  0.4555E+01
   -0.649990   31.39121  0.7299E-14  0.1635E-04  0.5145E-07  0.1549E-02  0.2151E-03  0.4575E+01
   -0.699991   31.39190  0.7299E-14  0.1651E-04  0.5057E-07  0.1608E-02  0.2029E-03  0.4702E+01
   -0.749993   31.39256  0.7299E-14  0.1664E-04  0.4983E-07  0.1658E-02  0.1915E-03  0.4817E+01
   -0.799994   31.39320  0.7299E-14  0.1675E-04  0.4923E-07  0.1701E-02  0.1810E-03  0.5048E+01
   -0.849996   31.39381  0.7299E-14  0.1683E-04  0.4874E-07  0.1735E-02  0.1711E-03  0.5264E+01
   -0.899997   31.39440  0.7299E-14  0.1688E-04  0.4836E-07  0.1761E-02  0.1618E-03  0.5619E+01
   -0.949999   31.39497  0.7299E-14  0.1691E-04  0.4810E-07  0.1778E-02  0.1531E-03  0.5967E+01
   -1.000001   31.39554  0.7299E-14  0.1692E-04  0.4795E-07  0.1787E-02  0.1448E-03  0.6494E+01
   -1.050002   31.39609  0.7299E-14  0.1691E-04  0.4793E-07  0.1784E-02  0.1369E-03  0.7295E+01
   -1.100004   31.39665  0.7299E-14  0.1687E-04  0.4803E-07  0.1887E-02  0.1294E-03  0.2395E+02
   -1.150006   31.39716  0.7299E-14  0.1680E-04  0.4829E-07  0.1675E-02  0.1227E-03  0.5750E+02
   -1.200007   31.39775  0.7299E-14  0.1671E-04  0.4871E-07  0.1713E-02  0.1157E-03  0.1070E+02
   -1.250009   31.39831  0.7299E-14  0.1659E-04  0.4933E-07  0.1680E-02  0.1089E-03  0.1148E+02
   -1.300010   31.39888  0.7299E-14  0.1644E-04  0.5020E-07  0.1625E-02  0.1025E-03  0.1343E+02
   -1.350011   31.39947  0.7299E-14  0.1625E-04  0.5140E-07  0.1561E-02  0.9618E-04  0.1634E+02
   -1.400012   31.40009  0.7299E-14  0.1602E-04  0.5303E-07  0.1478E-02  0.9004E-04  0.2035E+02
   -1.450013   31.40073  0.7299E-14  0.1574E-04  0.5529E-07  0.1396E-02  0.8397E-04  0.2661E+02
   -1.500014   31.40142  0.7299E-14  0.1540E-04  0.5847E-07  0.1279E-02  0.7799E-04  0.3703E+02
   -1.550014   31.40219  0.7299E-14  0.1498E-04  0.6306E-07  0.1196E-02  0.7194E-04  0.5617E+02
   -1.600014   31.40303  0.7299E-14  0.1445E-04  0.7032E-07  0.1052E-02  0.6599E-04  0.1575E+03
   -1.650014   31.40410  0.7299E-14  0.1376E-04  0.8188E-07  0.9669E-03  0.5943E-04  0.2672E+05
   -1.700013   31.40537  0.7299E-14  0.1280E-04  0.1023E-06  0.7877E-03  0.5277E-04  0.9166E+04
   -1.750012   31.40761  0.7299E-14  0.1162E-04  0.1347E-06  0.7071E-03  0.4402E-04  0.2686E+06
   -1.800011   31.40913  0.7299E-14  0.1011E-04  0.2069E-06  0.4835E-03  0.3782E-04  0.1665E+05
   -1.850009   31.41773  0.7299E-14  0.8548E-05  0.3428E-06  0.4605E-03  0.2605E-04  0.5327E+08
   -1.900007   31.41442  0.7299E-14  0.6803E-05  0.7210E-06  0.2096E-03  0.2161E-04 -0.2623E+06
   -1.950005   31.43742  0.7299E-14  0.4851E-05  0.1728E-05  0.2124E-03  0.1143E-04 -0.1515E+07
   -2.000001   31.43766  0.7299E-14  0.0000E+00  0.0000E+00  0.0000E+00  0.2259E-04  0.0000E+00
