 1 - depth, m
 2 - temperature, C
 3 - salinity, kg/kg
 4 - turbulent kinetic energy, m**2/s**2
 5 - dissipation rate, m**2/s**3
 6 - kinematic heat conductance, m**2/s
 7 - modulus of horizontal velocity, m/s
 8 - Richardson number, n/d
   -0.000000   30.44503  0.8422E-13  0.5023E-05  0.3028E-06  0.5097E-04  0.2268E-02  0.4271E+04
   -0.049997   30.47540  0.8422E-13  0.8416E-05  0.1339E-06  0.1858E-03  0.1253E-02  0.6918E+03
   -0.099994   30.48610  0.8422E-13  0.1010E-04  0.9313E-07  0.3926E-03  0.9438E-03  0.1051E+02
   -0.149992   30.48939  0.8422E-13  0.1118E-04  0.7807E-07  0.4817E-03  0.8334E-03  0.5232E+01
   -0.199991   30.49195  0.8422E-13  0.1202E-04  0.6925E-07  0.6370E-03  0.7459E-03  0.3365E+01
   -0.249989   30.49383  0.8422E-13  0.1269E-04  0.6348E-07  0.7616E-03  0.6797E-03  0.2493E+01
   -0.299988   30.49536  0.8422E-13  0.1324E-04  0.5937E-07  0.8829E-03  0.6246E-03  0.1986E+01
   -0.349988   30.49664  0.8422E-13  0.1370E-04  0.5629E-07  0.9906E-03  0.5772E-03  0.1728E+01
   -0.399988   30.49776  0.8422E-13  0.1409E-04  0.5387E-07  0.1093E-02  0.5350E-03  0.1598E+01
   -0.449988   30.49876  0.8422E-13  0.1443E-04  0.5185E-07  0.1195E-02  0.4965E-03  0.1553E+01
   -0.499988   30.49965  0.8422E-13  0.1474E-04  0.5017E-07  0.1290E-02  0.4619E-03  0.1530E+01
   -0.549989   30.50045  0.8422E-13  0.1501E-04  0.4875E-07  0.1378E-02  0.4307E-03  0.1525E+01
   -0.599989   30.50120  0.8422E-13  0.1523E-04  0.4757E-07  0.1458E-02  0.4024E-03  0.1516E+01
   -0.649990   30.50189  0.8422E-13  0.1543E-04  0.4657E-07  0.1529E-02  0.3767E-03  0.1528E+01
   -0.699992   30.50254  0.8422E-13  0.1560E-04  0.4575E-07  0.1591E-02  0.3533E-03  0.1533E+01
   -0.749993   30.50315  0.8422E-13  0.1573E-04  0.4507E-07  0.1644E-02  0.3319E-03  0.1560E+01
   -0.799994   30.50374  0.8422E-13  0.1584E-04  0.4452E-07  0.1688E-02  0.3124E-03  0.1584E+01
   -0.849996   30.50430  0.8422E-13  0.1592E-04  0.4409E-07  0.1722E-02  0.2945E-03  0.1640E+01
   -0.899998   30.50485  0.8422E-13  0.1598E-04  0.4377E-07  0.1748E-02  0.2779E-03  0.1705E+01
   -0.949999   30.50539  0.8422E-13  0.1602E-04  0.4355E-07  0.1765E-02  0.2626E-03  0.1820E+01
   -1.000001   30.50592  0.8422E-13  0.1604E-04  0.4344E-07  0.1774E-02  0.2481E-03  0.1949E+01
   -1.050003   30.50644  0.8422E-13  0.1603E-04  0.4343E-07  0.1773E-02  0.2344E-03  0.2224E+01
   -1.100004   30.50695  0.8422E-13  0.1601E-04  0.4354E-07  0.1866E-02  0.2214E-03  0.7313E+01
   -1.150006   30.50744  0.8422E-13  0.1596E-04  0.4378E-07  0.1679E-02  0.2098E-03  0.1676E+02
   -1.200008   30.50798  0.8422E-13  0.1589E-04  0.4416E-07  0.1710E-02  0.1977E-03  0.3231E+01
   -1.250009   30.50851  0.8422E-13  0.1579E-04  0.4471E-07  0.1679E-02  0.1861E-03  0.3428E+01
   -1.300010   30.50904  0.8422E-13  0.1566E-04  0.4547E-07  0.1628E-02  0.1749E-03  0.4044E+01
   -1.350012   30.50959  0.8422E-13  0.1551E-04  0.4651E-07  0.1567E-02  0.1641E-03  0.4824E+01
   -1.400013   30.51016  0.8422E-13  0.1531E-04  0.4791E-07  0.1488E-02  0.1535E-03  0.6009E+01
   -1.450013   30.51076  0.8422E-13  0.1507E-04  0.4980E-07  0.1410E-02  0.1432E-03  0.7646E+01
   -1.500014   30.51140  0.8422E-13  0.1478E-04  0.5243E-07  0.1296E-02  0.1330E-03  0.1050E+02
   -1.550014   30.51210  0.8422E-13  0.1443E-04  0.5616E-07  0.1213E-02  0.1227E-03  0.1501E+02
   -1.600014   30.51286  0.8422E-13  0.1398E-04  0.6191E-07  0.1065E-02  0.1126E-03  0.3183E+02
   -1.650014   30.51381  0.8422E-13  0.1341E-04  0.7081E-07  0.9864E-03  0.1017E-03  0.1168E+04
   -1.700014   30.51487  0.8422E-13  0.1262E-04  0.8661E-07  0.8012E-03  0.9108E-04  0.3342E+04
   -1.750013   30.51680  0.8422E-13  0.1158E-04  0.1125E-06  0.7268E-03  0.7682E-04  0.6081E+05
   -1.800011   30.51829  0.8422E-13  0.1021E-04  0.1671E-06  0.5065E-03  0.6608E-04  0.3017E+05
   -1.850010   30.52491  0.8422E-13  0.8676E-05  0.2709E-06  0.4657E-03  0.4704E-04  0.5466E+08
   -1.900008   30.52342  0.8422E-13  0.6858E-05  0.5626E-06  0.2116E-03  0.3834E-04 -0.1339E+05
   -1.950005   30.54358  0.8422E-13  0.4813E-05  0.1402E-05  0.1912E-03  0.2047E-04 -0.1042E+06
   -2.000002   30.54565  0.8422E-13  0.0000E+00  0.0000E+00  0.0000E+00  0.3813E-04  0.0000E+00
