 1 - depth, m
 2 - temperature, C
 3 - salinity, kg/kg
 4 - turbulent kinetic energy, m**2/s**2
 5 - dissipation rate, m**2/s**3
 6 - kinematic heat conductance, m**2/s
 7 - modulus of horizontal velocity, m/s
 8 - Richardson number, n/d
   -0.000000   30.69400  0.3613E-13  0.4885E-05  0.3055E-06  0.4986E-04  0.6364E-03  0.3425E+05
   -0.049997   30.72649  0.3613E-13  0.8573E-05  0.1357E-06  0.1847E-03  0.3613E-03  0.2294E+04
   -0.099994   30.73803  0.3614E-13  0.1036E-04  0.9404E-07  0.4152E-03  0.2632E-03  0.1594E+03
   -0.149992   30.74129  0.3614E-13  0.1148E-04  0.7937E-07  0.4920E-03  0.2332E-03  0.7923E+02
   -0.199991   30.74392  0.3614E-13  0.1235E-04  0.7067E-07  0.6567E-03  0.2084E-03  0.5190E+02
   -0.249989   30.74583  0.3614E-13  0.1303E-04  0.6492E-07  0.7831E-03  0.1899E-03  0.3880E+02
   -0.299988   30.74738  0.3614E-13  0.1359E-04  0.6080E-07  0.9085E-03  0.1745E-03  0.3097E+02
   -0.349988   30.74869  0.3614E-13  0.1405E-04  0.5769E-07  0.1022E-02  0.1612E-03  0.2664E+02
   -0.399988   30.74982  0.3614E-13  0.1444E-04  0.5526E-07  0.1126E-02  0.1495E-03  0.2370E+02
   -0.449988   30.75082  0.3614E-13  0.1477E-04  0.5328E-07  0.1222E-02  0.1392E-03  0.2236E+02
   -0.499988   30.75172  0.3614E-13  0.1506E-04  0.5163E-07  0.1310E-02  0.1301E-03  0.2168E+02
   -0.549989   30.75255  0.3614E-13  0.1530E-04  0.5024E-07  0.1390E-02  0.1219E-03  0.2149E+02
   -0.599990   30.75332  0.3614E-13  0.1551E-04  0.4907E-07  0.1463E-02  0.1145E-03  0.2140E+02
   -0.649991   30.75403  0.3614E-13  0.1569E-04  0.4807E-07  0.1529E-02  0.1077E-03  0.2176E+02
   -0.699992   30.75470  0.3614E-13  0.1584E-04  0.4722E-07  0.1586E-02  0.1015E-03  0.2213E+02
   -0.749993   30.75534  0.3614E-13  0.1596E-04  0.4650E-07  0.1636E-02  0.9571E-04  0.2297E+02
   -0.799995   30.75595  0.3614E-13  0.1605E-04  0.4590E-07  0.1678E-02  0.9037E-04  0.2378E+02
   -0.849996   30.75654  0.3614E-13  0.1612E-04  0.4540E-07  0.1712E-02  0.8535E-04  0.2513E+02
   -0.899998   30.75711  0.3614E-13  0.1617E-04  0.4502E-07  0.1738E-02  0.8066E-04  0.2647E+02
   -0.949999   30.75766  0.3614E-13  0.1620E-04  0.4473E-07  0.1756E-02  0.7622E-04  0.2848E+02
   -1.000001   30.75820  0.3614E-13  0.1620E-04  0.4455E-07  0.1765E-02  0.7204E-04  0.3056E+02
   -1.050003   30.75873  0.3614E-13  0.1619E-04  0.4447E-07  0.1764E-02  0.6805E-04  0.3475E+02
   -1.100005   30.75926  0.3614E-13  0.1615E-04  0.4451E-07  0.1860E-02  0.6426E-04  0.1132E+03
   -1.150006   30.75975  0.3614E-13  0.1608E-04  0.4470E-07  0.1666E-02  0.6088E-04  0.2662E+03
   -1.200008   30.76030  0.3614E-13  0.1600E-04  0.4501E-07  0.1700E-02  0.5734E-04  0.5051E+02
   -1.250009   30.76083  0.3614E-13  0.1588E-04  0.4551E-07  0.1668E-02  0.5398E-04  0.5345E+02
   -1.300011   30.76137  0.3614E-13  0.1573E-04  0.4622E-07  0.1616E-02  0.5073E-04  0.6297E+02
   -1.350012   30.76192  0.3614E-13  0.1556E-04  0.4721E-07  0.1555E-02  0.4758E-04  0.7530E+02
   -1.400013   30.76249  0.3614E-13  0.1534E-04  0.4857E-07  0.1475E-02  0.4451E-04  0.9389E+02
   -1.450014   30.76309  0.3614E-13  0.1508E-04  0.5044E-07  0.1395E-02  0.4150E-04  0.1202E+03
   -1.500014   30.76373  0.3614E-13  0.1476E-04  0.5308E-07  0.1280E-02  0.3853E-04  0.1654E+03
   -1.550015   30.76443  0.3614E-13  0.1438E-04  0.5684E-07  0.1196E-02  0.3554E-04  0.2396E+03
   -1.600015   30.76518  0.3614E-13  0.1390E-04  0.6272E-07  0.1051E-02  0.3261E-04  0.5014E+03
   -1.650014   30.76611  0.3614E-13  0.1329E-04  0.7200E-07  0.9695E-03  0.2944E-04  0.2213E+04
   -1.700014   30.76718  0.3614E-13  0.1244E-04  0.8851E-07  0.7884E-03  0.2631E-04  0.1592E+06
   -1.750013   30.76908  0.3614E-13  0.1134E-04  0.1156E-06  0.7090E-03  0.2212E-04  0.1010E+07
   -1.800012   30.77063  0.3614E-13  0.9863E-05  0.1751E-06  0.4846E-03  0.1893E-04  0.5574E+06
   -1.850010   30.77744  0.3614E-13  0.8297E-05  0.2841E-06  0.4525E-03  0.1322E-04  0.1349E+09
   -1.900008   30.77554  0.3614E-13  0.6533E-05  0.5904E-06  0.2045E-03  0.1081E-04 -0.6536E+06
   -1.950005   30.79569  0.3614E-13  0.4620E-05  0.1457E-05  0.1992E-03  0.5674E-05 -0.2275E+08
   -2.000002   30.79579  0.3614E-13  0.0000E+00  0.0000E+00  0.0000E+00  0.1103E-04  0.0000E+00
