 1 - depth, m
 2 - temperature, C
 3 - salinity, kg/kg
 4 - turbulent kinetic energy, m**2/s**2
 5 - dissipation rate, m**2/s**3
 6 - kinematic heat conductance, m**2/s
 7 - modulus of horizontal velocity, m/s
 8 - Richardson number, n/d
   -0.000000   30.80569  0.8695E-13  0.5208E-05  0.3252E-06  0.5195E-04  0.2029E-02  0.4502E+04
   -0.049997   30.83775  0.8695E-13  0.8778E-05  0.1440E-06  0.1883E-03  0.1130E-02  0.2327E+04
   -0.099994   30.84917  0.8695E-13  0.1056E-04  0.9984E-07  0.4017E-03  0.8511E-03  0.2295E+02
   -0.149992   30.85261  0.8695E-13  0.1169E-04  0.8370E-07  0.4891E-03  0.7530E-03  0.1124E+02
   -0.199991   30.85531  0.8695E-13  0.1257E-04  0.7425E-07  0.6491E-03  0.6747E-03  0.7282E+01
   -0.249989   30.85728  0.8695E-13  0.1328E-04  0.6808E-07  0.7749E-03  0.6156E-03  0.5329E+01
   -0.299988   30.85889  0.8695E-13  0.1385E-04  0.6368E-07  0.8980E-03  0.5664E-03  0.4283E+01
   -0.349988   30.86024  0.8695E-13  0.1433E-04  0.6036E-07  0.1010E-02  0.5239E-03  0.3641E+01
   -0.399987   30.86141  0.8695E-13  0.1474E-04  0.5775E-07  0.1117E-02  0.4854E-03  0.3317E+01
   -0.449987   30.86245  0.8695E-13  0.1510E-04  0.5561E-07  0.1219E-02  0.4509E-03  0.3088E+01
   -0.499988   30.86338  0.8695E-13  0.1541E-04  0.5383E-07  0.1313E-02  0.4199E-03  0.3061E+01
   -0.549988   30.86423  0.8695E-13  0.1568E-04  0.5234E-07  0.1400E-02  0.3921E-03  0.2966E+01
   -0.599989   30.86501  0.8695E-13  0.1591E-04  0.5109E-07  0.1479E-02  0.3668E-03  0.3013E+01
   -0.649990   30.86573  0.8695E-13  0.1611E-04  0.5004E-07  0.1549E-02  0.3438E-03  0.2973E+01
   -0.699991   30.86642  0.8695E-13  0.1627E-04  0.4917E-07  0.1610E-02  0.3229E-03  0.3081E+01
   -0.749993   30.86707  0.8695E-13  0.1640E-04  0.4845E-07  0.1661E-02  0.3038E-03  0.3084E+01
   -0.799994   30.86769  0.8695E-13  0.1651E-04  0.4787E-07  0.1703E-02  0.2862E-03  0.3262E+01
   -0.849996   30.86829  0.8695E-13  0.1659E-04  0.4741E-07  0.1736E-02  0.2701E-03  0.3316E+01
   -0.899997   30.86887  0.8695E-13  0.1664E-04  0.4706E-07  0.1760E-02  0.2550E-03  0.3586E+01
   -0.949999   30.86943  0.8695E-13  0.1667E-04  0.4683E-07  0.1775E-02  0.2411E-03  0.3722E+01
   -1.000001   30.86999  0.8695E-13  0.1668E-04  0.4671E-07  0.1783E-02  0.2280E-03  0.4124E+01
   -1.050002   30.87054  0.8695E-13  0.1666E-04  0.4671E-07  0.1778E-02  0.2156E-03  0.4552E+01
   -1.100004   30.87109  0.8695E-13  0.1662E-04  0.4684E-07  0.1885E-02  0.2037E-03  0.1507E+02
   -1.150006   30.87160  0.8695E-13  0.1655E-04  0.4713E-07  0.1662E-02  0.1933E-03  0.3745E+02
   -1.200007   30.87218  0.8695E-13  0.1646E-04  0.4756E-07  0.1703E-02  0.1821E-03  0.6771E+01
   -1.250009   30.87274  0.8695E-13  0.1634E-04  0.4820E-07  0.1670E-02  0.1715E-03  0.7363E+01
   -1.300010   30.87331  0.8695E-13  0.1619E-04  0.4910E-07  0.1613E-02  0.1613E-03  0.8541E+01
   -1.350011   30.87390  0.8695E-13  0.1600E-04  0.5032E-07  0.1549E-02  0.1514E-03  0.1058E+02
   -1.400012   30.87451  0.8695E-13  0.1577E-04  0.5198E-07  0.1463E-02  0.1417E-03  0.1316E+02
   -1.450013   30.87516  0.8695E-13  0.1549E-04  0.5427E-07  0.1384E-02  0.1321E-03  0.1749E+02
   -1.500013   30.87585  0.8695E-13  0.1515E-04  0.5749E-07  0.1263E-02  0.1227E-03  0.2472E+02
   -1.550014   30.87662  0.8695E-13  0.1473E-04  0.6214E-07  0.1186E-02  0.1131E-03  0.3813E+02
   -1.600014   30.87746  0.8695E-13  0.1421E-04  0.6963E-07  0.1034E-02  0.1037E-03  0.1922E+03
   -1.650014   30.87858  0.8695E-13  0.1351E-04  0.8140E-07  0.9562E-03  0.9315E-04  0.1929E+04
   -1.700013   30.87985  0.8695E-13  0.1255E-04  0.1019E-06  0.7712E-03  0.8270E-04  0.4226E+04
   -1.750012   30.88222  0.8695E-13  0.1137E-04  0.1352E-06  0.6969E-03  0.6862E-04  0.1952E+06
   -1.800011   30.88373  0.8695E-13  0.9902E-05  0.2064E-06  0.4761E-03  0.5895E-04  0.1864E+05
   -1.850009   30.89254  0.8695E-13  0.8359E-05  0.3440E-06  0.4514E-03  0.4042E-04  0.4450E+08
   -1.900007   30.88905  0.8695E-13  0.6657E-05  0.7184E-06  0.2099E-03  0.3340E-04  0.4909E+06
   -1.950004   30.91278  0.8695E-13  0.4733E-05  0.1734E-05  0.2099E-03  0.1754E-04 -0.1426E+06
   -2.000001   30.91369  0.8695E-13  0.0000E+00  0.0000E+00  0.0000E+00  0.3508E-04  0.0000E+00
