 1 - depth, m
 2 - temperature, C
 3 - salinity, kg/kg
 4 - turbulent kinetic energy, m**2/s**2
 5 - dissipation rate, m**2/s**3
 6 - kinematic heat conductance, m**2/s
 7 - modulus of horizontal velocity, m/s
 8 - Richardson number, n/d
   -0.000000   30.42864  0.1152E-13  0.4847E-05  0.3025E-06  0.5069E-04  0.1451E-02  0.6735E+04
   -0.049997   30.45934  0.1152E-13  0.8307E-05  0.1350E-06  0.1770E-03  0.8297E-03  0.2232E+04
   -0.099994   30.47124  0.1152E-13  0.1008E-04  0.9290E-07  0.3992E-03  0.6077E-03  0.2259E+02
   -0.149992   30.47453  0.1152E-13  0.1119E-04  0.7795E-07  0.4793E-03  0.5368E-03  0.1105E+02
   -0.199991   30.47715  0.1152E-13  0.1205E-04  0.6919E-07  0.6411E-03  0.4793E-03  0.7087E+01
   -0.249989   30.47905  0.1152E-13  0.1274E-04  0.6344E-07  0.7664E-03  0.4363E-03  0.5227E+01
   -0.299988   30.48060  0.1152E-13  0.1329E-04  0.5934E-07  0.8913E-03  0.4006E-03  0.4155E+01
   -0.349988   30.48190  0.1152E-13  0.1375E-04  0.5627E-07  0.1004E-02  0.3699E-03  0.3551E+01
   -0.399988   30.48302  0.1152E-13  0.1414E-04  0.5387E-07  0.1108E-02  0.3429E-03  0.3162E+01
   -0.449988   30.48401  0.1152E-13  0.1447E-04  0.5192E-07  0.1204E-02  0.3190E-03  0.2968E+01
   -0.499988   30.48491  0.1152E-13  0.1475E-04  0.5030E-07  0.1292E-02  0.2979E-03  0.2886E+01
   -0.549989   30.48573  0.1152E-13  0.1500E-04  0.4895E-07  0.1372E-02  0.2791E-03  0.2847E+01
   -0.599990   30.48649  0.1152E-13  0.1521E-04  0.4780E-07  0.1445E-02  0.2620E-03  0.2847E+01
   -0.649991   30.48719  0.1152E-13  0.1539E-04  0.4683E-07  0.1510E-02  0.2464E-03  0.2881E+01
   -0.699992   30.48786  0.1152E-13  0.1554E-04  0.4600E-07  0.1568E-02  0.2321E-03  0.2945E+01
   -0.749993   30.48849  0.1152E-13  0.1566E-04  0.4531E-07  0.1618E-02  0.2189E-03  0.3041E+01
   -0.799995   30.48910  0.1152E-13  0.1576E-04  0.4473E-07  0.1661E-02  0.2066E-03  0.3166E+01
   -0.849996   30.48968  0.1152E-13  0.1584E-04  0.4425E-07  0.1695E-02  0.1951E-03  0.3329E+01
   -0.899998   30.49024  0.1152E-13  0.1589E-04  0.4388E-07  0.1722E-02  0.1843E-03  0.3526E+01
   -0.949999   30.49079  0.1152E-13  0.1593E-04  0.4361E-07  0.1740E-02  0.1742E-03  0.3776E+01
   -1.000001   30.49132  0.1152E-13  0.1593E-04  0.4344E-07  0.1750E-02  0.1645E-03  0.4073E+01
   -1.050003   30.49185  0.1152E-13  0.1592E-04  0.4338E-07  0.1751E-02  0.1554E-03  0.4616E+01
   -1.100005   30.49237  0.1152E-13  0.1589E-04  0.4343E-07  0.1841E-02  0.1467E-03  0.1520E+02
   -1.150006   30.49286  0.1152E-13  0.1583E-04  0.4361E-07  0.1661E-02  0.1390E-03  0.3516E+02
   -1.200008   30.49341  0.1152E-13  0.1575E-04  0.4392E-07  0.1690E-02  0.1309E-03  0.6697E+01
   -1.250009   30.49394  0.1152E-13  0.1564E-04  0.4441E-07  0.1659E-02  0.1232E-03  0.7124E+01
   -1.300011   30.49447  0.1152E-13  0.1551E-04  0.4510E-07  0.1609E-02  0.1158E-03  0.8360E+01
   -1.350012   30.49502  0.1152E-13  0.1534E-04  0.4607E-07  0.1549E-02  0.1085E-03  0.1002E+02
   -1.400013   30.49558  0.1152E-13  0.1513E-04  0.4739E-07  0.1470E-02  0.1015E-03  0.1245E+02
   -1.450014   30.49618  0.1152E-13  0.1488E-04  0.4920E-07  0.1393E-02  0.9463E-04  0.1595E+02
   -1.500014   30.49681  0.1152E-13  0.1458E-04  0.5175E-07  0.1280E-02  0.8786E-04  0.2190E+02
   -1.550015   30.49750  0.1152E-13  0.1421E-04  0.5537E-07  0.1197E-02  0.8104E-04  0.3155E+02
   -1.600015   30.49825  0.1152E-13  0.1376E-04  0.6102E-07  0.1053E-02  0.7436E-04  0.6540E+02
   -1.650015   30.49917  0.1152E-13  0.1317E-04  0.6985E-07  0.9745E-03  0.6714E-04  0.1505E+05
   -1.700014   30.50022  0.1152E-13  0.1236E-04  0.8573E-07  0.7938E-03  0.6004E-04  0.1864E+04
   -1.750013   30.50212  0.1152E-13  0.1128E-04  0.1119E-06  0.7150E-03  0.5052E-04  0.4968E+06
   -1.800012   30.50367  0.1152E-13  0.9872E-05  0.1679E-06  0.4955E-03  0.4318E-04 -0.4636E+05
   -1.850010   30.51020  0.1152E-13  0.8352E-05  0.2716E-06  0.4590E-03  0.3052E-04  0.1034E+08
   -1.900008   30.50852  0.1152E-13  0.6634E-05  0.5708E-06  0.2105E-03  0.2493E-04  0.9662E+05
   -1.950005   30.52787  0.1152E-13  0.4664E-05  0.1412E-05  0.1934E-03  0.1338E-04 -0.2322E+06
   -2.000002   30.52959  0.1152E-13  0.0000E+00  0.0000E+00  0.0000E+00  0.2526E-04  0.0000E+00
