 1 - depth, m
 2 - temperature, C
 3 - salinity, kg/kg
 4 - turbulent kinetic energy, m**2/s**2
 5 - dissipation rate, m**2/s**3
 6 - kinematic heat conductance, m**2/s
 7 - modulus of horizontal velocity, m/s
 8 - Richardson number, n/d
   -0.000000   30.92258  0.1384E-13  0.4912E-05  0.3102E-06  0.5038E-04  0.6320E-03  0.2652E+05
   -0.049997   30.95446  0.1384E-13  0.8624E-05  0.1376E-06  0.1849E-03  0.3589E-03  0.4084E+04
   -0.099994   30.96610  0.1384E-13  0.1045E-04  0.9515E-07  0.4190E-03  0.2621E-03  0.1389E+03
   -0.149992   30.96930  0.1384E-13  0.1158E-04  0.8029E-07  0.4955E-03  0.2324E-03  0.6853E+02
   -0.199991   30.97189  0.1384E-13  0.1247E-04  0.7152E-07  0.6631E-03  0.2080E-03  0.4479E+02
   -0.249989   30.97377  0.1384E-13  0.1318E-04  0.6575E-07  0.7906E-03  0.1897E-03  0.3322E+02
   -0.299988   30.97531  0.1384E-13  0.1375E-04  0.6163E-07  0.9181E-03  0.1744E-03  0.2664E+02
   -0.349988   30.97660  0.1384E-13  0.1423E-04  0.5854E-07  0.1033E-02  0.1613E-03  0.2272E+02
   -0.399988   30.97772  0.1384E-13  0.1464E-04  0.5614E-07  0.1139E-02  0.1497E-03  0.2036E+02
   -0.449988   30.97872  0.1384E-13  0.1498E-04  0.5419E-07  0.1236E-02  0.1395E-03  0.1900E+02
   -0.499988   30.97962  0.1384E-13  0.1529E-04  0.5258E-07  0.1326E-02  0.1305E-03  0.1858E+02
   -0.549989   30.98045  0.1384E-13  0.1555E-04  0.5123E-07  0.1408E-02  0.1224E-03  0.1820E+02
   -0.599989   30.98121  0.1384E-13  0.1577E-04  0.5011E-07  0.1482E-02  0.1150E-03  0.1832E+02
   -0.649990   30.98192  0.1384E-13  0.1597E-04  0.4916E-07  0.1548E-02  0.1083E-03  0.1840E+02
   -0.699992   30.98259  0.1384E-13  0.1613E-04  0.4836E-07  0.1606E-02  0.1021E-03  0.1896E+02
   -0.749993   30.98323  0.1384E-13  0.1627E-04  0.4771E-07  0.1657E-02  0.9642E-04  0.1942E+02
   -0.799994   30.98385  0.1384E-13  0.1638E-04  0.4717E-07  0.1700E-02  0.9110E-04  0.2040E+02
   -0.849996   30.98444  0.1384E-13  0.1647E-04  0.4675E-07  0.1734E-02  0.8613E-04  0.2128E+02
   -0.899997   30.98501  0.1384E-13  0.1654E-04  0.4643E-07  0.1761E-02  0.8145E-04  0.2276E+02
   -0.949999   30.98557  0.1384E-13  0.1658E-04  0.4622E-07  0.1778E-02  0.7704E-04  0.2418E+02
   -1.000001   30.98612  0.1384E-13  0.1660E-04  0.4613E-07  0.1788E-02  0.7286E-04  0.2635E+02
   -1.050003   30.98667  0.1384E-13  0.1660E-04  0.4614E-07  0.1787E-02  0.6890E-04  0.2964E+02
   -1.100004   30.98721  0.1384E-13  0.1657E-04  0.4628E-07  0.1883E-02  0.6510E-04  0.9811E+02
   -1.150006   30.98772  0.1384E-13  0.1653E-04  0.4657E-07  0.1688E-02  0.6173E-04  0.2296E+03
   -1.200007   30.98828  0.1384E-13  0.1645E-04  0.4700E-07  0.1721E-02  0.5818E-04  0.4331E+02
   -1.250009   30.98884  0.1384E-13  0.1635E-04  0.4762E-07  0.1689E-02  0.5480E-04  0.4658E+02
   -1.300010   30.98940  0.1384E-13  0.1622E-04  0.4847E-07  0.1636E-02  0.5156E-04  0.5443E+02
   -1.350011   30.98998  0.1384E-13  0.1605E-04  0.4963E-07  0.1574E-02  0.4839E-04  0.6596E+02
   -1.400012   30.99058  0.1384E-13  0.1585E-04  0.5118E-07  0.1491E-02  0.4531E-04  0.8189E+02
   -1.450013   30.99121  0.1384E-13  0.1559E-04  0.5329E-07  0.1414E-02  0.4227E-04  0.1059E+03
   -1.500014   30.99188  0.1384E-13  0.1528E-04  0.5622E-07  0.1294E-02  0.3928E-04  0.1464E+03
   -1.550014   30.99263  0.1384E-13  0.1490E-04  0.6036E-07  0.1215E-02  0.3625E-04  0.2131E+03
   -1.600014   30.99343  0.1384E-13  0.1443E-04  0.6684E-07  0.1061E-02  0.3331E-04  0.5092E+03
   -1.650014   30.99446  0.1384E-13  0.1380E-04  0.7685E-07  0.9872E-03  0.3005E-04  0.2552E+04
   -1.700013   30.99559  0.1384E-13  0.1295E-04  0.9467E-07  0.7957E-03  0.2693E-04  0.7841E+06
   -1.750012   30.99773  0.1384E-13  0.1183E-04  0.1239E-06  0.7271E-03  0.2262E-04  0.1681E+07
   -1.800011   30.99928  0.1384E-13  0.1038E-04  0.1858E-06  0.5022E-03  0.1947E-04  0.2913E+06
   -1.850009   31.00675  0.1384E-13  0.8786E-05  0.3036E-06  0.4630E-03  0.1372E-04  0.1168E+09
   -1.900007   31.00480  0.1384E-13  0.6951E-05  0.6385E-06  0.2105E-03  0.1119E-04 -0.3272E+07
   -1.950005   31.02677  0.1384E-13  0.4917E-05  0.1570E-05  0.2003E-03  0.5937E-05 -0.4368E+07
   -2.000002   31.02824  0.1384E-13  0.0000E+00  0.0000E+00  0.0000E+00  0.1127E-04  0.0000E+00
