 1 - depth, m
 2 - temperature, C
 3 - salinity, kg/kg
 4 - turbulent kinetic energy, m**2/s**2
 5 - dissipation rate, m**2/s**3
 6 - kinematic heat conductance, m**2/s
 7 - modulus of horizontal velocity, m/s
 8 - Richardson number, n/d
   -0.000000   30.42371  0.1464E-13  0.4846E-05  0.3022E-06  0.5061E-04  0.1450E-02  0.6822E+04
   -0.049997   30.45442  0.1464E-13  0.8308E-05  0.1349E-06  0.1773E-03  0.8279E-03  0.7922E+03
   -0.099994   30.46628  0.1464E-13  0.1008E-04  0.9289E-07  0.3989E-03  0.6071E-03  0.2253E+02
   -0.149992   30.46957  0.1464E-13  0.1119E-04  0.7792E-07  0.4797E-03  0.5361E-03  0.1103E+02
   -0.199991   30.47219  0.1464E-13  0.1205E-04  0.6915E-07  0.6417E-03  0.4787E-03  0.7067E+01
   -0.249989   30.47409  0.1464E-13  0.1274E-04  0.6341E-07  0.7672E-03  0.4357E-03  0.5210E+01
   -0.299988   30.47563  0.1464E-13  0.1330E-04  0.5930E-07  0.8925E-03  0.4000E-03  0.4140E+01
   -0.349988   30.47692  0.1464E-13  0.1376E-04  0.5623E-07  0.1006E-02  0.3694E-03  0.3537E+01
   -0.399988   30.47804  0.1464E-13  0.1414E-04  0.5383E-07  0.1110E-02  0.3424E-03  0.3148E+01
   -0.449988   30.47903  0.1464E-13  0.1448E-04  0.5187E-07  0.1206E-02  0.3186E-03  0.2953E+01
   -0.499988   30.47992  0.1464E-13  0.1476E-04  0.5026E-07  0.1295E-02  0.2975E-03  0.2869E+01
   -0.549989   30.48074  0.1464E-13  0.1501E-04  0.4890E-07  0.1376E-02  0.2787E-03  0.2829E+01
   -0.599990   30.48149  0.1464E-13  0.1522E-04  0.4775E-07  0.1449E-02  0.2616E-03  0.2826E+01
   -0.649991   30.48220  0.1464E-13  0.1540E-04  0.4677E-07  0.1515E-02  0.2461E-03  0.2859E+01
   -0.699992   30.48286  0.1464E-13  0.1556E-04  0.4595E-07  0.1574E-02  0.2318E-03  0.2918E+01
   -0.749993   30.48349  0.1464E-13  0.1568E-04  0.4525E-07  0.1624E-02  0.2186E-03  0.3012E+01
   -0.799995   30.48409  0.1464E-13  0.1579E-04  0.4467E-07  0.1668E-02  0.2063E-03  0.3131E+01
   -0.849996   30.48467  0.1464E-13  0.1586E-04  0.4419E-07  0.1703E-02  0.1949E-03  0.3290E+01
   -0.899998   30.48523  0.1464E-13  0.1592E-04  0.4381E-07  0.1731E-02  0.1841E-03  0.3479E+01
   -0.949999   30.48577  0.1464E-13  0.1595E-04  0.4354E-07  0.1750E-02  0.1740E-03  0.3720E+01
   -1.000001   30.48630  0.1464E-13  0.1597E-04  0.4336E-07  0.1761E-02  0.1644E-03  0.4005E+01
   -1.050003   30.48683  0.1464E-13  0.1596E-04  0.4329E-07  0.1763E-02  0.1553E-03  0.4532E+01
   -1.100005   30.48735  0.1464E-13  0.1593E-04  0.4332E-07  0.1849E-02  0.1466E-03  0.1501E+02
   -1.150006   30.48784  0.1464E-13  0.1588E-04  0.4350E-07  0.1681E-02  0.1388E-03  0.3388E+02
   -1.200008   30.48837  0.1464E-13  0.1580E-04  0.4379E-07  0.1706E-02  0.1308E-03  0.6510E+01
   -1.250009   30.48889  0.1464E-13  0.1570E-04  0.4426E-07  0.1677E-02  0.1231E-03  0.6912E+01
   -1.300011   30.48942  0.1464E-13  0.1557E-04  0.4493E-07  0.1628E-02  0.1157E-03  0.8075E+01
   -1.350012   30.48996  0.1464E-13  0.1541E-04  0.4585E-07  0.1570E-02  0.1085E-03  0.9634E+01
   -1.400013   30.49052  0.1464E-13  0.1521E-04  0.4712E-07  0.1494E-02  0.1016E-03  0.1188E+02
   -1.450014   30.49111  0.1464E-13  0.1498E-04  0.4886E-07  0.1417E-02  0.9470E-04  0.1510E+02
   -1.500014   30.49173  0.1464E-13  0.1469E-04  0.5128E-07  0.1307E-02  0.8796E-04  0.2049E+02
   -1.550015   30.49240  0.1464E-13  0.1434E-04  0.5472E-07  0.1222E-02  0.8120E-04  0.2921E+02
   -1.600015   30.49313  0.1464E-13  0.1390E-04  0.6002E-07  0.1080E-02  0.7457E-04  0.3813E+03
   -1.650015   30.49401  0.1464E-13  0.1334E-04  0.6825E-07  0.9953E-03  0.6746E-04  0.8345E+03
   -1.700014   30.49502  0.1464E-13  0.1258E-04  0.8281E-07  0.8192E-03  0.6047E-04  0.8817E+04
   -1.750013   30.49675  0.1464E-13  0.1157E-04  0.1069E-06  0.7348E-03  0.5137E-04  0.3407E+05
   -1.800012   30.49819  0.1464E-13  0.1022E-04  0.1613E-06  0.5163E-03  0.4415E-04  0.3028E+06
   -1.850010   30.50414  0.1464E-13  0.8714E-05  0.2589E-06  0.4713E-03  0.3181E-04  0.1758E+09
   -1.900008   30.50294  0.1464E-13  0.6906E-05  0.5434E-06  0.2193E-03  0.2586E-04 -0.8787E+05
   -1.950005   30.52095  0.1464E-13  0.4820E-05  0.1346E-05  0.1873E-03  0.1407E-04 -0.3305E+06
   -2.000002   30.52319  0.1464E-13  0.0000E+00  0.0000E+00  0.0000E+00  0.2557E-04  0.0000E+00
