 1 - depth, m
 2 - temperature, C
 3 - salinity, kg/kg
 4 - turbulent kinetic energy, m**2/s**2
 5 - dissipation rate, m**2/s**3
 6 - kinematic heat conductance, m**2/s
 7 - modulus of horizontal velocity, m/s
 8 - Richardson number, n/d
   -0.000000   30.30986  0.1748E-14  0.4896E-05  0.3104E-06  0.5124E-04  0.1249E-02  0.7790E+04
   -0.049997   30.34070  0.1748E-14  0.8442E-05  0.1381E-06  0.1787E-03  0.7137E-03  0.5301E+03
   -0.099994   30.35288  0.1748E-14  0.1026E-04  0.9484E-07  0.4077E-03  0.5209E-03  0.3673E+02
   -0.149992   30.35615  0.1748E-14  0.1140E-04  0.7965E-07  0.4865E-03  0.4603E-03  0.1805E+02
   -0.199991   30.35878  0.1748E-14  0.1229E-04  0.7075E-07  0.6527E-03  0.4111E-03  0.1160E+02
   -0.249989   30.36069  0.1748E-14  0.1300E-04  0.6493E-07  0.7798E-03  0.3743E-03  0.8626E+01
   -0.299988   30.36224  0.1748E-14  0.1357E-04  0.6080E-07  0.9075E-03  0.3438E-03  0.6858E+01
   -0.349988   30.36354  0.1748E-14  0.1405E-04  0.5770E-07  0.1023E-02  0.3176E-03  0.5899E+01
   -0.399988   30.36467  0.1748E-14  0.1446E-04  0.5530E-07  0.1129E-02  0.2945E-03  0.5240E+01
   -0.449988   30.36567  0.1748E-14  0.1481E-04  0.5335E-07  0.1227E-02  0.2741E-03  0.4946E+01
   -0.499988   30.36657  0.1748E-14  0.1511E-04  0.5174E-07  0.1317E-02  0.2562E-03  0.4785E+01
   -0.549989   30.36740  0.1748E-14  0.1537E-04  0.5040E-07  0.1399E-02  0.2400E-03  0.4749E+01
   -0.599989   30.36817  0.1748E-14  0.1560E-04  0.4927E-07  0.1474E-02  0.2255E-03  0.4722E+01
   -0.649990   30.36888  0.1748E-14  0.1580E-04  0.4832E-07  0.1542E-02  0.2121E-03  0.4811E+01
   -0.699992   30.36956  0.1748E-14  0.1596E-04  0.4752E-07  0.1601E-02  0.1999E-03  0.4886E+01
   -0.749993   30.37020  0.1748E-14  0.1610E-04  0.4686E-07  0.1653E-02  0.1886E-03  0.5082E+01
   -0.799994   30.37081  0.1748E-14  0.1622E-04  0.4631E-07  0.1697E-02  0.1781E-03  0.5254E+01
   -0.849996   30.37140  0.1748E-14  0.1631E-04  0.4587E-07  0.1733E-02  0.1683E-03  0.5566E+01
   -0.899998   30.37198  0.1748E-14  0.1638E-04  0.4554E-07  0.1761E-02  0.1591E-03  0.5852E+01
   -0.949999   30.37253  0.1748E-14  0.1643E-04  0.4532E-07  0.1781E-02  0.1504E-03  0.6311E+01
   -1.000001   30.37308  0.1748E-14  0.1645E-04  0.4519E-07  0.1792E-02  0.1422E-03  0.6753E+01
   -1.050003   30.37362  0.1748E-14  0.1646E-04  0.4518E-07  0.1794E-02  0.1343E-03  0.7707E+01
   -1.100004   30.37416  0.1748E-14  0.1644E-04  0.4528E-07  0.1881E-02  0.1269E-03  0.2541E+02
   -1.150006   30.37466  0.1748E-14  0.1639E-04  0.4552E-07  0.1712E-02  0.1203E-03  0.5698E+02
   -1.200008   30.37522  0.1748E-14  0.1633E-04  0.4589E-07  0.1737E-02  0.1134E-03  0.1107E+02
   -1.250009   30.37577  0.1748E-14  0.1624E-04  0.4645E-07  0.1707E-02  0.1068E-03  0.1172E+02
   -1.300010   30.37632  0.1748E-14  0.1612E-04  0.4721E-07  0.1657E-02  0.1004E-03  0.1378E+02
   -1.350012   30.37688  0.1748E-14  0.1596E-04  0.4825E-07  0.1598E-02  0.9424E-04  0.1636E+02
   -1.400013   30.37747  0.1748E-14  0.1577E-04  0.4965E-07  0.1521E-02  0.8822E-04  0.2029E+02
   -1.450013   30.37809  0.1748E-14  0.1554E-04  0.5155E-07  0.1444E-02  0.8232E-04  0.2567E+02
   -1.500014   30.37874  0.1748E-14  0.1525E-04  0.5417E-07  0.1331E-02  0.7652E-04  0.3500E+02
   -1.550014   30.37945  0.1748E-14  0.1490E-04  0.5785E-07  0.1247E-02  0.7069E-04  0.4962E+02
   -1.600014   30.38022  0.1748E-14  0.1447E-04  0.6350E-07  0.1100E-02  0.6499E-04  0.1045E+03
   -1.650014   30.38117  0.1748E-14  0.1390E-04  0.7217E-07  0.1020E-02  0.5883E-04  0.9545E+05
   -1.700014   30.38222  0.1748E-14  0.1314E-04  0.8744E-07  0.8336E-03  0.5286E-04 -0.6676E+04
   -1.750013   30.38406  0.1748E-14  0.1212E-04  0.1126E-06  0.7538E-03  0.4497E-04  0.3112E+06
   -1.800011   30.38558  0.1748E-14  0.1076E-04  0.1664E-06  0.5331E-03  0.3879E-04  0.2031E+05
   -1.850010   30.39170  0.1748E-14  0.9240E-05  0.2659E-06  0.4872E-03  0.2821E-04  0.9111E+07
   -1.900008   30.39064  0.1748E-14  0.7348E-05  0.5500E-06  0.2203E-03  0.2307E-04  0.3870E+06
   -1.950005   30.41000  0.1748E-14  0.5136E-05  0.1384E-05  0.1869E-03  0.1265E-04 -0.2434E+07
   -2.000002   30.41292  0.1748E-14  0.0000E+00  0.0000E+00  0.0000E+00  0.2234E-04  0.0000E+00
