 1 - depth, m
 2 - temperature, C
 3 - salinity, kg/kg
 4 - turbulent kinetic energy, m**2/s**2
 5 - dissipation rate, m**2/s**3
 6 - kinematic heat conductance, m**2/s
 7 - modulus of horizontal velocity, m/s
 8 - Richardson number, n/d
   -0.000000   30.22060  0.3523E-14  0.4810E-05  0.2865E-06  0.5025E-04  0.2212E-02  0.4247E+04
   -0.049997   30.24943  0.3523E-14  0.8099E-05  0.1270E-06  0.1807E-03  0.1229E-02  0.5091E+04
   -0.099994   30.25977  0.3523E-14  0.9745E-05  0.8812E-07  0.3881E-03  0.9184E-03  0.9663E+01
   -0.149992   30.26292  0.3523E-14  0.1080E-04  0.7384E-07  0.4754E-03  0.8095E-03  0.4795E+01
   -0.199991   30.26538  0.3523E-14  0.1162E-04  0.6551E-07  0.6303E-03  0.7231E-03  0.3087E+01
   -0.249989   30.26718  0.3523E-14  0.1228E-04  0.6005E-07  0.7547E-03  0.6579E-03  0.2280E+01
   -0.299988   30.26865  0.3523E-14  0.1281E-04  0.5617E-07  0.8769E-03  0.6038E-03  0.1814E+01
   -0.349988   30.26988  0.3523E-14  0.1326E-04  0.5327E-07  0.9875E-03  0.5573E-03  0.1556E+01
   -0.399988   30.27095  0.3523E-14  0.1364E-04  0.5101E-07  0.1088E-02  0.5163E-03  0.1399E+01
   -0.449988   30.27190  0.3523E-14  0.1397E-04  0.4916E-07  0.1183E-02  0.4799E-03  0.1343E+01
   -0.499988   30.27276  0.3523E-14  0.1426E-04  0.4763E-07  0.1274E-02  0.4474E-03  0.1325E+01
   -0.549989   30.27354  0.3523E-14  0.1451E-04  0.4634E-07  0.1358E-02  0.4181E-03  0.1318E+01
   -0.599990   30.27426  0.3523E-14  0.1473E-04  0.4525E-07  0.1434E-02  0.3915E-03  0.1316E+01
   -0.649991   30.27494  0.3523E-14  0.1492E-04  0.4434E-07  0.1502E-02  0.3674E-03  0.1324E+01
   -0.699992   30.27557  0.3523E-14  0.1508E-04  0.4358E-07  0.1562E-02  0.3453E-03  0.1335E+01
   -0.749993   30.27617  0.3523E-14  0.1521E-04  0.4295E-07  0.1613E-02  0.3251E-03  0.1364E+01
   -0.799995   30.27675  0.3523E-14  0.1532E-04  0.4243E-07  0.1656E-02  0.3065E-03  0.1402E+01
   -0.849996   30.27730  0.3523E-14  0.1541E-04  0.4202E-07  0.1691E-02  0.2893E-03  0.1468E+01
   -0.899998   30.27784  0.3523E-14  0.1547E-04  0.4171E-07  0.1717E-02  0.2732E-03  0.1550E+01
   -0.950000   30.27836  0.3523E-14  0.1551E-04  0.4149E-07  0.1737E-02  0.2580E-03  0.1662E+01
   -1.000001   30.27888  0.3523E-14  0.1554E-04  0.4137E-07  0.1748E-02  0.2437E-03  0.1791E+01
   -1.050003   30.27938  0.3523E-14  0.1554E-04  0.4135E-07  0.1750E-02  0.2301E-03  0.2035E+01
   -1.100005   30.27989  0.3523E-14  0.1552E-04  0.4143E-07  0.1832E-02  0.2172E-03  0.6776E+01
   -1.150006   30.28036  0.3523E-14  0.1548E-04  0.4163E-07  0.1674E-02  0.2056E-03  0.1506E+02
   -1.200008   30.28088  0.3523E-14  0.1542E-04  0.4196E-07  0.1696E-02  0.1937E-03  0.2926E+01
   -1.250009   30.28139  0.3523E-14  0.1533E-04  0.4245E-07  0.1666E-02  0.1822E-03  0.3112E+01
   -1.300011   30.28191  0.3523E-14  0.1522E-04  0.4313E-07  0.1619E-02  0.1712E-03  0.3640E+01
   -1.350012   30.28244  0.3523E-14  0.1507E-04  0.4405E-07  0.1561E-02  0.1605E-03  0.4333E+01
   -1.400013   30.28299  0.3523E-14  0.1490E-04  0.4529E-07  0.1487E-02  0.1501E-03  0.5337E+01
   -1.450014   30.28356  0.3523E-14  0.1468E-04  0.4697E-07  0.1410E-02  0.1399E-03  0.6747E+01
   -1.500014   30.28417  0.3523E-14  0.1441E-04  0.4928E-07  0.1302E-02  0.1300E-03  0.9070E+01
   -1.550015   30.28483  0.3523E-14  0.1409E-04  0.5253E-07  0.1216E-02  0.1199E-03  0.1277E+02
   -1.600015   30.28555  0.3523E-14  0.1368E-04  0.5741E-07  0.1075E-02  0.1101E-03  0.2230E+02
   -1.650015   30.28640  0.3523E-14  0.1317E-04  0.6492E-07  0.9919E-03  0.9971E-04  0.3884E+03
   -1.700014   30.28738  0.3523E-14  0.1246E-04  0.7832E-07  0.8165E-03  0.8947E-04  0.2178E+04
   -1.750013   30.28901  0.3523E-14  0.1152E-04  0.1003E-06  0.7305E-03  0.7629E-04  0.7806E+05
   -1.800012   30.29050  0.3523E-14  0.1022E-04  0.1459E-06  0.5224E-03  0.6552E-04  0.1099E+05
   -1.850010   30.29590  0.3523E-14  0.8710E-05  0.2326E-06  0.4645E-03  0.4770E-04  0.7150E+06
   -1.900008   30.29546  0.3523E-14  0.6855E-05  0.4853E-06  0.2142E-03  0.3832E-04 -0.2690E+06
   -1.950006   30.31319  0.3523E-14  0.4769E-05  0.1221E-05  0.1789E-03  0.2076E-04 -0.3126E+06
   -2.000003   30.31547  0.3523E-14  0.0000E+00  0.0000E+00  0.0000E+00  0.3732E-04  0.0000E+00
