 1 - depth, m
 2 - temperature, C
 3 - salinity, kg/kg
 4 - turbulent kinetic energy, m**2/s**2
 5 - dissipation rate, m**2/s**3
 6 - kinematic heat conductance, m**2/s
 7 - modulus of horizontal velocity, m/s
 8 - Richardson number, n/d
   -0.000000   30.73132  0.3535E-13  0.4802E-05  0.2977E-06  0.4936E-04  0.6708E-03  0.2575E+05
   -0.049997   30.76293  0.3535E-13  0.8423E-05  0.1321E-06  0.1833E-03  0.3776E-03  0.7468E+02
   -0.099994   30.77427  0.3535E-13  0.1019E-04  0.9154E-07  0.4126E-03  0.2772E-03  0.1156E+03
   -0.149992   30.77744  0.3535E-13  0.1129E-04  0.7724E-07  0.4904E-03  0.2455E-03  0.5675E+02
   -0.199991   30.77999  0.3535E-13  0.1215E-04  0.6878E-07  0.6542E-03  0.2196E-03  0.3698E+02
   -0.249989   30.78184  0.3535E-13  0.1283E-04  0.6319E-07  0.7802E-03  0.2002E-03  0.2746E+02
   -0.299988   30.78335  0.3535E-13  0.1338E-04  0.5919E-07  0.9056E-03  0.1839E-03  0.2195E+02
   -0.349988   30.78462  0.3535E-13  0.1384E-04  0.5618E-07  0.1019E-02  0.1700E-03  0.1878E+02
   -0.399988   30.78572  0.3535E-13  0.1423E-04  0.5383E-07  0.1123E-02  0.1577E-03  0.1677E+02
   -0.449988   30.78670  0.3535E-13  0.1456E-04  0.5191E-07  0.1219E-02  0.1468E-03  0.1571E+02
   -0.499988   30.78758  0.3535E-13  0.1485E-04  0.5032E-07  0.1308E-02  0.1372E-03  0.1529E+02
   -0.549989   30.78838  0.3535E-13  0.1509E-04  0.4899E-07  0.1389E-02  0.1286E-03  0.1504E+02
   -0.599989   30.78912  0.3535E-13  0.1531E-04  0.4787E-07  0.1462E-02  0.1208E-03  0.1506E+02
   -0.649990   30.78982  0.3535E-13  0.1549E-04  0.4691E-07  0.1528E-02  0.1137E-03  0.1520E+02
   -0.699992   30.79047  0.3535E-13  0.1565E-04  0.4610E-07  0.1586E-02  0.1071E-03  0.1555E+02
   -0.749993   30.79109  0.3535E-13  0.1577E-04  0.4543E-07  0.1637E-02  0.1010E-03  0.1600E+02
   -0.799994   30.79169  0.3535E-13  0.1588E-04  0.4486E-07  0.1680E-02  0.9540E-04  0.1668E+02
   -0.849996   30.79226  0.3535E-13  0.1596E-04  0.4441E-07  0.1715E-02  0.9014E-04  0.1748E+02
   -0.899998   30.79281  0.3535E-13  0.1602E-04  0.4405E-07  0.1743E-02  0.8519E-04  0.1854E+02
   -0.949999   30.79335  0.3535E-13  0.1606E-04  0.4380E-07  0.1762E-02  0.8053E-04  0.1977E+02
   -1.000001   30.79388  0.3535E-13  0.1607E-04  0.4364E-07  0.1773E-02  0.7611E-04  0.2135E+02
   -1.050003   30.79440  0.3535E-13  0.1607E-04  0.4359E-07  0.1774E-02  0.7192E-04  0.2409E+02
   -1.100005   30.79491  0.3535E-13  0.1604E-04  0.4365E-07  0.1861E-02  0.6792E-04  0.8027E+02
   -1.150006   30.79540  0.3535E-13  0.1599E-04  0.4384E-07  0.1691E-02  0.6435E-04  0.1789E+03
   -1.200008   30.79593  0.3535E-13  0.1592E-04  0.4417E-07  0.1717E-02  0.6064E-04  0.3450E+02
   -1.250009   30.79645  0.3535E-13  0.1582E-04  0.4466E-07  0.1687E-02  0.5709E-04  0.3679E+02
   -1.300011   30.79698  0.3535E-13  0.1570E-04  0.4535E-07  0.1638E-02  0.5368E-04  0.4281E+02
   -1.350012   30.79752  0.3535E-13  0.1554E-04  0.4631E-07  0.1579E-02  0.5036E-04  0.5113E+02
   -1.400013   30.79808  0.3535E-13  0.1535E-04  0.4761E-07  0.1502E-02  0.4714E-04  0.6275E+02
   -1.450014   30.79866  0.3535E-13  0.1512E-04  0.4937E-07  0.1426E-02  0.4396E-04  0.7959E+02
   -1.500014   30.79928  0.3535E-13  0.1483E-04  0.5182E-07  0.1312E-02  0.4085E-04  0.1073E+03
   -1.550014   30.79996  0.3535E-13  0.1448E-04  0.5527E-07  0.1230E-02  0.3772E-04  0.1512E+03
   -1.600015   30.80069  0.3535E-13  0.1405E-04  0.6056E-07  0.1081E-02  0.3466E-04  0.3013E+03
   -1.650014   30.80158  0.3535E-13  0.1350E-04  0.6863E-07  0.1005E-02  0.3135E-04  0.8293E+03
   -1.700014   30.80255  0.3535E-13  0.1275E-04  0.8316E-07  0.8175E-03  0.2819E-04  0.2045E+05
   -1.750013   30.80430  0.3535E-13  0.1174E-04  0.1072E-06  0.7421E-03  0.2388E-04  0.1863E+06
   -1.800012   30.80574  0.3535E-13  0.1039E-04  0.1571E-06  0.5180E-03  0.2058E-04  0.4148E+06
   -1.850010   30.81154  0.3535E-13  0.8844E-05  0.2519E-06  0.4758E-03  0.1476E-04  0.1317E+09
   -1.900008   30.81073  0.3535E-13  0.7004E-05  0.5277E-06  0.2163E-03  0.1201E-04  0.5001E+07
   -1.950005   30.82907  0.3535E-13  0.4889E-05  0.1317E-05  0.1865E-03  0.6484E-05 -0.4199E+07
   -2.000002   30.83095  0.3535E-13  0.0000E+00  0.0000E+00  0.0000E+00  0.1181E-04  0.0000E+00
