 1 - depth, m
 2 - temperature, C
 3 - salinity, kg/kg
 4 - turbulent kinetic energy, m**2/s**2
 5 - dissipation rate, m**2/s**3
 6 - kinematic heat conductance, m**2/s
 7 - modulus of horizontal velocity, m/s
 8 - Richardson number, n/d
   -0.000000   31.48533  0.1392E-14  0.5669E-05  0.3872E-06  0.5360E-04  0.1205E-02  0.1067E+05
   -0.049997   31.52254  0.1392E-14  0.9716E-05  0.1722E-06  0.1949E-03  0.6861E-03  0.8590E+04
   -0.099994   31.53613  0.1392E-14  0.1177E-04  0.1187E-06  0.4245E-03  0.5087E-03  0.3554E+02
   -0.149992   31.53999  0.1392E-14  0.1307E-04  0.9942E-07  0.5104E-03  0.4506E-03  0.1766E+02
   -0.199990   31.54305  0.1392E-14  0.1408E-04  0.8812E-07  0.6849E-03  0.4034E-03  0.1127E+02
   -0.249989   31.54527  0.1392E-14  0.1488E-04  0.8076E-07  0.8168E-03  0.3683E-03  0.8344E+01
   -0.299988   31.54707  0.1392E-14  0.1553E-04  0.7551E-07  0.9514E-03  0.3390E-03  0.6626E+01
   -0.349987   31.54858  0.1392E-14  0.1606E-04  0.7158E-07  0.1072E-02  0.3140E-03  0.5667E+01
   -0.399987   31.54988  0.1392E-14  0.1651E-04  0.6852E-07  0.1182E-02  0.2918E-03  0.5039E+01
   -0.449987   31.55103  0.1392E-14  0.1689E-04  0.6603E-07  0.1284E-02  0.2723E-03  0.4730E+01
   -0.499987   31.55208  0.1392E-14  0.1721E-04  0.6397E-07  0.1377E-02  0.2550E-03  0.4585E+01
   -0.549988   31.55303  0.1392E-14  0.1749E-04  0.6224E-07  0.1462E-02  0.2395E-03  0.4524E+01
   -0.599989   31.55391  0.1392E-14  0.1773E-04  0.6078E-07  0.1538E-02  0.2254E-03  0.4510E+01
   -0.649990   31.55473  0.1392E-14  0.1793E-04  0.5955E-07  0.1606E-02  0.2125E-03  0.4568E+01
   -0.699991   31.55551  0.1392E-14  0.1810E-04  0.5851E-07  0.1666E-02  0.2007E-03  0.4657E+01
   -0.749992   31.55624  0.1392E-14  0.1823E-04  0.5763E-07  0.1717E-02  0.1897E-03  0.4815E+01
   -0.799994   31.55695  0.1392E-14  0.1833E-04  0.5690E-07  0.1760E-02  0.1795E-03  0.5003E+01
   -0.849995   31.55763  0.1392E-14  0.1841E-04  0.5632E-07  0.1794E-02  0.1699E-03  0.5272E+01
   -0.899997   31.55828  0.1392E-14  0.1846E-04  0.5586E-07  0.1819E-02  0.1609E-03  0.5579E+01
   -0.949998   31.55892  0.1392E-14  0.1848E-04  0.5555E-07  0.1834E-02  0.1524E-03  0.5994E+01
   -1.000000   31.55955  0.1392E-14  0.1847E-04  0.5536E-07  0.1841E-02  0.1443E-03  0.6468E+01
   -1.050002   31.56017  0.1392E-14  0.1844E-04  0.5532E-07  0.1836E-02  0.1367E-03  0.7352E+01
   -1.100003   31.56079  0.1392E-14  0.1838E-04  0.5544E-07  0.1957E-02  0.1293E-03  0.2347E+02
   -1.150005   31.56136  0.1392E-14  0.1829E-04  0.5576E-07  0.1697E-02  0.1228E-03  0.5981E+02
   -1.200006   31.56202  0.1392E-14  0.1817E-04  0.5625E-07  0.1750E-02  0.1158E-03  0.1097E+02
   -1.250008   31.56265  0.1392E-14  0.1802E-04  0.5701E-07  0.1716E-02  0.1092E-03  0.1167E+02
   -1.300009   31.56329  0.1392E-14  0.1783E-04  0.5808E-07  0.1654E-02  0.1028E-03  0.1391E+02
   -1.350010   31.56395  0.1392E-14  0.1759E-04  0.5957E-07  0.1586E-02  0.9664E-04  0.1694E+02
   -1.400011   31.56463  0.1392E-14  0.1731E-04  0.6163E-07  0.1492E-02  0.9055E-04  0.2167E+02
   -1.450012   31.56537  0.1392E-14  0.1697E-04  0.6452E-07  0.1411E-02  0.8451E-04  0.2862E+02
   -1.500012   31.56615  0.1392E-14  0.1655E-04  0.6867E-07  0.1285E-02  0.7855E-04  0.4179E+02
   -1.550013   31.56703  0.1392E-14  0.1604E-04  0.7477E-07  0.1208E-02  0.7246E-04  0.6903E+02
   -1.600013   31.56799  0.1392E-14  0.1539E-04  0.8483E-07  0.1052E-02  0.6647E-04  0.8858E+03
   -1.650012   31.56937  0.1392E-14  0.1453E-04  0.1006E-06  0.9722E-03  0.5951E-04  0.4822E+05
   -1.700012   31.57085  0.1392E-14  0.1335E-04  0.1298E-06  0.7731E-03  0.5268E-04  0.1413E+06
   -1.750011   31.57384  0.1392E-14  0.1200E-04  0.1747E-06  0.7099E-03  0.4310E-04  0.3046E+06
   -1.800010   31.57521  0.1392E-14  0.1036E-04  0.2741E-06  0.4736E-03  0.3734E-04  0.2991E+06
   -1.850008   31.58665  0.1392E-14  0.8788E-05  0.4635E-06  0.4691E-03  0.2492E-04  0.1021E+09
   -1.900006   31.58079  0.1392E-14  0.7062E-05  0.9743E-06  0.2181E-03  0.2115E-04 -0.4976E+06
   -1.950003   31.60843  0.1392E-14  0.5102E-05  0.2265E-05  0.2379E-03  0.1105E-04 -0.8536E+06
   -2.000000   31.60668  0.1392E-14  0.0000E+00  0.0000E+00  0.0000E+00  0.2302E-04  0.0000E+00
