 1 - depth, m
 2 - temperature, C
 3 - salinity, kg/kg
 4 - turbulent kinetic energy, m**2/s**2
 5 - dissipation rate, m**2/s**3
 6 - kinematic heat conductance, m**2/s
 7 - modulus of horizontal velocity, m/s
 8 - Richardson number, n/d
   -0.000000   29.22971  0.4074E-14  0.4543E-05  0.2533E-06  0.4791E-04  0.2361E-02  0.2408E+04
   -0.049997   29.25689  0.4074E-14  0.7622E-05  0.1117E-06  0.1821E-03  0.1285E-02  0.2740E+02
   -0.099994   29.26609  0.4074E-14  0.9117E-05  0.7822E-07  0.3789E-03  0.9724E-03  0.8832E+01
   -0.149992   29.26901  0.4074E-14  0.1008E-04  0.6582E-07  0.4685E-03  0.8586E-03  0.4389E+01
   -0.199991   29.27128  0.4074E-14  0.1084E-04  0.5855E-07  0.6147E-03  0.7688E-03  0.2853E+01
   -0.249989   29.27296  0.4074E-14  0.1145E-04  0.5379E-07  0.7341E-03  0.7005E-03  0.2113E+01
   -0.299989   29.27434  0.4074E-14  0.1195E-04  0.5041E-07  0.8472E-03  0.6435E-03  0.1707E+01
   -0.349988   29.27550  0.4074E-14  0.1237E-04  0.4785E-07  0.9507E-03  0.5942E-03  0.1528E+01
   -0.399988   29.27652  0.4074E-14  0.1274E-04  0.4581E-07  0.1054E-02  0.5491E-03  0.1449E+01
   -0.449988   29.27742  0.4074E-14  0.1308E-04  0.4412E-07  0.1156E-02  0.5080E-03  0.1411E+01
   -0.499988   29.27823  0.4074E-14  0.1337E-04  0.4271E-07  0.1251E-02  0.4710E-03  0.1403E+01
   -0.549989   29.27897  0.4074E-14  0.1363E-04  0.4154E-07  0.1338E-02  0.4377E-03  0.1391E+01
   -0.599990   29.27964  0.4074E-14  0.1385E-04  0.4056E-07  0.1417E-02  0.4076E-03  0.1393E+01
   -0.649991   29.28027  0.4074E-14  0.1404E-04  0.3975E-07  0.1488E-02  0.3804E-03  0.1392E+01
   -0.699992   29.28086  0.4074E-14  0.1421E-04  0.3908E-07  0.1550E-02  0.3556E-03  0.1404E+01
   -0.749993   29.28142  0.4074E-14  0.1434E-04  0.3853E-07  0.1603E-02  0.3332E-03  0.1411E+01
   -0.799995   29.28196  0.4074E-14  0.1445E-04  0.3809E-07  0.1646E-02  0.3127E-03  0.1436E+01
   -0.849997   29.28247  0.4074E-14  0.1454E-04  0.3776E-07  0.1681E-02  0.2940E-03  0.1460E+01
   -0.899998   29.28298  0.4074E-14  0.1461E-04  0.3751E-07  0.1706E-02  0.2768E-03  0.1515E+01
   -0.950000   29.28347  0.4074E-14  0.1465E-04  0.3736E-07  0.1723E-02  0.2611E-03  0.1583E+01
   -1.000002   29.28395  0.4074E-14  0.1468E-04  0.3729E-07  0.1733E-02  0.2463E-03  0.1701E+01
   -1.050003   29.28443  0.4074E-14  0.1468E-04  0.3730E-07  0.1733E-02  0.2325E-03  0.1914E+01
   -1.100005   29.28490  0.4074E-14  0.1467E-04  0.3741E-07  0.1816E-02  0.2194E-03  0.6436E+01
   -1.150007   29.28535  0.4074E-14  0.1464E-04  0.3763E-07  0.1656E-02  0.2077E-03  0.1423E+02
   -1.200008   29.28584  0.4074E-14  0.1458E-04  0.3795E-07  0.1679E-02  0.1955E-03  0.2753E+01
   -1.250010   29.28632  0.4074E-14  0.1451E-04  0.3842E-07  0.1649E-02  0.1839E-03  0.2954E+01
   -1.300011   29.28681  0.4074E-14  0.1441E-04  0.3906E-07  0.1603E-02  0.1727E-03  0.3428E+01
   -1.350013   29.28731  0.4074E-14  0.1428E-04  0.3991E-07  0.1546E-02  0.1619E-03  0.4107E+01
   -1.400014   29.28783  0.4074E-14  0.1412E-04  0.4104E-07  0.1474E-02  0.1514E-03  0.5010E+01
   -1.450014   29.28838  0.4074E-14  0.1392E-04  0.4255E-07  0.1399E-02  0.1410E-03  0.6349E+01
   -1.500015   29.28895  0.4074E-14  0.1368E-04  0.4460E-07  0.1292E-02  0.1309E-03  0.8430E+01
   -1.550015   29.28958  0.4074E-14  0.1339E-04  0.4746E-07  0.1208E-02  0.1208E-03  0.1175E+02
   -1.600016   29.29025  0.4074E-14  0.1302E-04  0.5169E-07  0.1066E-02  0.1109E-03  0.1923E+02
   -1.650015   29.29105  0.4074E-14  0.1256E-04  0.5811E-07  0.9905E-03  0.1004E-03  0.4805E+03
   -1.700015   29.29193  0.4074E-14  0.1193E-04  0.6971E-07  0.8059E-03  0.9033E-04 -0.3656E+04
   -1.750014   29.29345  0.4074E-14  0.1105E-04  0.8882E-07  0.7312E-03  0.7707E-04  0.4227E+04
   -1.800013   29.29484  0.4074E-14  0.9842E-05  0.1273E-06  0.5148E-03  0.6630E-04  0.1584E+03
   -1.850011   29.29963  0.4074E-14  0.8404E-05  0.2010E-06  0.4680E-03  0.4834E-04  0.4317E+07
   -1.900009   29.29953  0.4074E-14  0.6650E-05  0.4150E-06  0.2060E-03  0.3901E-04  0.9788E+05
   -1.950006   29.31607  0.4075E-14  0.4583E-05  0.1068E-05  0.1712E-03  0.2115E-04 -0.2880E+06
   -2.000003   29.31883  0.4074E-14  0.0000E+00  0.0000E+00  0.0000E+00  0.3700E-04  0.0000E+00
