 1 - depth, m
 2 - temperature, C
 3 - salinity, kg/kg
 4 - turbulent kinetic energy, m**2/s**2
 5 - dissipation rate, m**2/s**3
 6 - kinematic heat conductance, m**2/s
 7 - modulus of horizontal velocity, m/s
 8 - Richardson number, n/d
   -0.000000   30.37614  0.2739E-14  0.4832E-05  0.3000E-06  0.5092E-04  0.1912E-02  0.9532E+04
   -0.049997   30.40562  0.2739E-14  0.8185E-05  0.1336E-06  0.1734E-03  0.1100E-02  0.1199E+03
   -0.099994   30.41741  0.2739E-14  0.9937E-05  0.9134E-07  0.3962E-03  0.8019E-03  0.1302E+02
   -0.149992   30.42061  0.2739E-14  0.1103E-04  0.7653E-07  0.4750E-03  0.7082E-03  0.6341E+01
   -0.199991   30.42318  0.2739E-14  0.1188E-04  0.6788E-07  0.6358E-03  0.6321E-03  0.4060E+01
   -0.249989   30.42505  0.2739E-14  0.1256E-04  0.6222E-07  0.7604E-03  0.5752E-03  0.2989E+01
   -0.299988   30.42656  0.2739E-14  0.1311E-04  0.5819E-07  0.8848E-03  0.5279E-03  0.2376E+01
   -0.349988   30.42783  0.2739E-14  0.1357E-04  0.5517E-07  0.9974E-03  0.4873E-03  0.2029E+01
   -0.399988   30.42893  0.2739E-14  0.1395E-04  0.5283E-07  0.1101E-02  0.4515E-03  0.1809E+01
   -0.449988   30.42991  0.2739E-14  0.1428E-04  0.5092E-07  0.1196E-02  0.4200E-03  0.1696E+01
   -0.499988   30.43079  0.2739E-14  0.1457E-04  0.4935E-07  0.1284E-02  0.3922E-03  0.1652E+01
   -0.549989   30.43160  0.2739E-14  0.1482E-04  0.4803E-07  0.1365E-02  0.3673E-03  0.1629E+01
   -0.599990   30.43234  0.2739E-14  0.1503E-04  0.4693E-07  0.1438E-02  0.3447E-03  0.1631E+01
   -0.649991   30.43304  0.2739E-14  0.1521E-04  0.4599E-07  0.1503E-02  0.3242E-03  0.1650E+01
   -0.699992   30.43369  0.2739E-14  0.1537E-04  0.4520E-07  0.1561E-02  0.3053E-03  0.1690E+01
   -0.749993   30.43432  0.2739E-14  0.1550E-04  0.4454E-07  0.1611E-02  0.2878E-03  0.1744E+01
   -0.799995   30.43491  0.2739E-14  0.1560E-04  0.4399E-07  0.1654E-02  0.2716E-03  0.1821E+01
   -0.849996   30.43549  0.2739E-14  0.1568E-04  0.4355E-07  0.1689E-02  0.2565E-03  0.1913E+01
   -0.899998   30.43605  0.2739E-14  0.1574E-04  0.4321E-07  0.1716E-02  0.2423E-03  0.2032E+01
   -0.950000   30.43659  0.2739E-14  0.1578E-04  0.4297E-07  0.1734E-02  0.2289E-03  0.2174E+01
   -1.000001   30.43712  0.2739E-14  0.1580E-04  0.4283E-07  0.1745E-02  0.2162E-03  0.2351E+01
   -1.050003   30.43764  0.2739E-14  0.1579E-04  0.4279E-07  0.1745E-02  0.2042E-03  0.2664E+01
   -1.100005   30.43816  0.2739E-14  0.1576E-04  0.4286E-07  0.1833E-02  0.1927E-03  0.8821E+01
   -1.150006   30.43865  0.2739E-14  0.1571E-04  0.4307E-07  0.1660E-02  0.1825E-03  0.2021E+02
   -1.200008   30.43919  0.2739E-14  0.1564E-04  0.4341E-07  0.1686E-02  0.1719E-03  0.3867E+01
   -1.250009   30.43972  0.2739E-14  0.1554E-04  0.4391E-07  0.1656E-02  0.1617E-03  0.4128E+01
   -1.300011   30.44025  0.2739E-14  0.1542E-04  0.4463E-07  0.1606E-02  0.1520E-03  0.4837E+01
   -1.350012   30.44080  0.2739E-14  0.1526E-04  0.4560E-07  0.1547E-02  0.1425E-03  0.5809E+01
   -1.400013   30.44137  0.2739E-14  0.1506E-04  0.4693E-07  0.1469E-02  0.1333E-03  0.7199E+01
   -1.450014   30.44196  0.2739E-14  0.1482E-04  0.4873E-07  0.1392E-02  0.1242E-03  0.9222E+01
   -1.500014   30.44260  0.2739E-14  0.1453E-04  0.5125E-07  0.1279E-02  0.1153E-03  0.1262E+02
   -1.550015   30.44329  0.2739E-14  0.1417E-04  0.5481E-07  0.1198E-02  0.1064E-03  0.1811E+02
   -1.600015   30.44404  0.2739E-14  0.1373E-04  0.6034E-07  0.1051E-02  0.9762E-04  0.3567E+02
   -1.650015   30.44496  0.2739E-14  0.1316E-04  0.6890E-07  0.9751E-03  0.8813E-04  0.1336E+03
   -1.700014   30.44599  0.2739E-14  0.1238E-04  0.8429E-07  0.7919E-03  0.7896E-04 -0.3490E+04
   -1.750013   30.44789  0.2739E-14  0.1133E-04  0.1096E-06  0.7174E-03  0.6656E-04  0.2082E+05
   -1.800012   30.44941  0.2739E-14  0.9949E-05  0.1629E-06  0.4970E-03  0.5710E-04  0.2317E+06
   -1.850010   30.45592  0.2739E-14  0.8411E-05  0.2638E-06  0.4579E-03  0.4042E-04  0.7403E+07
   -1.900008   30.45435  0.2739E-14  0.6643E-05  0.5469E-06  0.2066E-03  0.3295E-04  0.4813E+05
   -1.950006   30.47407  0.2739E-14  0.4659E-05  0.1366E-05  0.1907E-03  0.1750E-04 -0.3242E+06
   -2.000002   30.47547  0.2739E-14  0.0000E+00  0.0000E+00  0.0000E+00  0.3286E-04  0.0000E+00
