 1 - depth, m
 2 - temperature, C
 3 - salinity, kg/kg
 4 - turbulent kinetic energy, m**2/s**2
 5 - dissipation rate, m**2/s**3
 6 - kinematic heat conductance, m**2/s
 7 - modulus of horizontal velocity, m/s
 8 - Richardson number, n/d
   -0.000000   30.39661  0.2801E-14  0.4931E-05  0.2964E-06  0.5080E-04  0.2283E-02  0.4396E+04
   -0.049997   30.42594  0.2801E-14  0.8282E-05  0.1311E-06  0.1839E-03  0.1264E-02  0.1409E+03
   -0.099994   30.43635  0.2801E-14  0.9957E-05  0.9107E-07  0.3913E-03  0.9482E-03  0.8936E+01
   -0.149992   30.43955  0.2801E-14  0.1103E-04  0.7629E-07  0.4805E-03  0.8362E-03  0.4468E+01
   -0.199991   30.44204  0.2801E-14  0.1187E-04  0.6767E-07  0.6367E-03  0.7474E-03  0.2876E+01
   -0.249989   30.44387  0.2801E-14  0.1254E-04  0.6203E-07  0.7624E-03  0.6804E-03  0.2125E+01
   -0.299988   30.44536  0.2801E-14  0.1309E-04  0.5802E-07  0.8858E-03  0.6248E-03  0.1692E+01
   -0.349988   30.44661  0.2801E-14  0.1355E-04  0.5503E-07  0.9971E-03  0.5770E-03  0.1452E+01
   -0.399988   30.44769  0.2801E-14  0.1394E-04  0.5270E-07  0.1098E-02  0.5348E-03  0.1314E+01
   -0.449988   30.44866  0.2801E-14  0.1428E-04  0.5079E-07  0.1195E-02  0.4973E-03  0.1271E+01
   -0.499988   30.44953  0.2801E-14  0.1458E-04  0.4920E-07  0.1288E-02  0.4636E-03  0.1259E+01
   -0.549989   30.45033  0.2801E-14  0.1484E-04  0.4787E-07  0.1374E-02  0.4332E-03  0.1253E+01
   -0.599989   30.45106  0.2801E-14  0.1507E-04  0.4674E-07  0.1453E-02  0.4056E-03  0.1251E+01
   -0.649991   30.45174  0.2801E-14  0.1527E-04  0.4580E-07  0.1523E-02  0.3805E-03  0.1255E+01
   -0.699992   30.45238  0.2801E-14  0.1543E-04  0.4502E-07  0.1584E-02  0.3576E-03  0.1262E+01
   -0.749993   30.45299  0.2801E-14  0.1557E-04  0.4438E-07  0.1636E-02  0.3367E-03  0.1282E+01
   -0.799995   30.45357  0.2801E-14  0.1569E-04  0.4385E-07  0.1680E-02  0.3174E-03  0.1311E+01
   -0.849996   30.45414  0.2801E-14  0.1578E-04  0.4344E-07  0.1715E-02  0.2996E-03  0.1365E+01
   -0.899998   30.45468  0.2801E-14  0.1584E-04  0.4313E-07  0.1742E-02  0.2831E-03  0.1438E+01
   -0.949999   30.45521  0.2801E-14  0.1589E-04  0.4291E-07  0.1761E-02  0.2675E-03  0.1539E+01
   -1.000001   30.45574  0.2801E-14  0.1592E-04  0.4280E-07  0.1773E-02  0.2528E-03  0.1659E+01
   -1.050003   30.45625  0.2801E-14  0.1592E-04  0.4279E-07  0.1775E-02  0.2388E-03  0.1883E+01
   -1.100005   30.45676  0.2801E-14  0.1591E-04  0.4288E-07  0.1859E-02  0.2255E-03  0.6276E+01
   -1.150006   30.45725  0.2801E-14  0.1587E-04  0.4311E-07  0.1697E-02  0.2136E-03  0.1387E+02
   -1.200008   30.45778  0.2801E-14  0.1581E-04  0.4346E-07  0.1720E-02  0.2013E-03  0.2700E+01
   -1.250009   30.45830  0.2801E-14  0.1572E-04  0.4397E-07  0.1691E-02  0.1895E-03  0.2875E+01
   -1.300011   30.45882  0.2801E-14  0.1561E-04  0.4469E-07  0.1643E-02  0.1781E-03  0.3359E+01
   -1.350012   30.45936  0.2801E-14  0.1547E-04  0.4565E-07  0.1585E-02  0.1671E-03  0.3997E+01
   -1.400013   30.45992  0.2801E-14  0.1529E-04  0.4694E-07  0.1510E-02  0.1564E-03  0.4914E+01
   -1.450014   30.46051  0.2801E-14  0.1507E-04  0.4868E-07  0.1432E-02  0.1459E-03  0.6202E+01
   -1.500014   30.46113  0.2801E-14  0.1481E-04  0.5106E-07  0.1323E-02  0.1356E-03  0.8323E+01
   -1.550015   30.46180  0.2801E-14  0.1448E-04  0.5439E-07  0.1235E-02  0.1252E-03  0.1164E+02
   -1.600015   30.46254  0.2801E-14  0.1407E-04  0.5937E-07  0.1091E-02  0.1151E-03  0.2071E+02
   -1.650014   30.46341  0.2801E-14  0.1355E-04  0.6692E-07  0.1010E-02  0.1044E-03  0.3151E+04
   -1.700014   30.46438  0.2801E-14  0.1285E-04  0.8041E-07  0.8274E-03  0.9393E-04  0.7156E+03
   -1.750013   30.46603  0.2801E-14  0.1189E-04  0.1028E-06  0.7471E-03  0.8040E-04  0.1031E+05
   -1.800012   30.46755  0.2801E-14  0.1055E-04  0.1513E-06  0.5235E-03  0.6919E-04  0.3165E+05
   -1.850010   30.47303  0.2801E-14  0.9006E-05  0.2392E-06  0.4756E-03  0.5059E-04  0.1577E+08
   -1.900008   30.47260  0.2801E-14  0.7091E-05  0.4961E-06  0.2085E-03  0.4084E-04 -0.2004E+05
   -1.950005   30.49099  0.2801E-14  0.4939E-05  0.1262E-05  0.1817E-03  0.2211E-04 -0.1046E+06
   -2.000002   30.49338  0.2801E-14  0.0000E+00  0.0000E+00  0.0000E+00  0.3894E-04  0.0000E+00
