 1 - depth, m
 2 - temperature, C
 3 - salinity, kg/kg
 4 - turbulent kinetic energy, m**2/s**2
 5 - dissipation rate, m**2/s**3
 6 - kinematic heat conductance, m**2/s
 7 - modulus of horizontal velocity, m/s
 8 - Richardson number, n/d
   -0.000000   30.12361  0.1338E-13  0.4399E-05  0.2594E-06  0.4835E-04  0.1657E-02  0.7032E+04
   -0.049997   30.15009  0.1338E-13  0.7549E-05  0.1154E-06  0.1709E-03  0.9401E-03  0.2743E+04
   -0.099994   30.16036  0.1338E-13  0.9171E-05  0.7934E-07  0.3885E-03  0.6843E-03  0.1616E+02
   -0.149992   30.16318  0.1338E-13  0.1019E-04  0.6669E-07  0.4686E-03  0.6035E-03  0.7873E+01
   -0.199991   30.16542  0.1338E-13  0.1099E-04  0.5931E-07  0.6252E-03  0.5382E-03  0.5069E+01
   -0.249989   30.16706  0.1338E-13  0.1163E-04  0.5450E-07  0.7479E-03  0.4893E-03  0.3748E+01
   -0.299989   30.16840  0.1338E-13  0.1215E-04  0.5109E-07  0.8698E-03  0.4487E-03  0.2990E+01
   -0.349988   30.16953  0.1338E-13  0.1259E-04  0.4855E-07  0.9806E-03  0.4138E-03  0.2566E+01
   -0.399988   30.17052  0.1338E-13  0.1297E-04  0.4659E-07  0.1082E-02  0.3831E-03  0.2290E+01
   -0.449988   30.17139  0.1338E-13  0.1330E-04  0.4502E-07  0.1177E-02  0.3560E-03  0.2156E+01
   -0.499988   30.17218  0.1338E-13  0.1358E-04  0.4372E-07  0.1264E-02  0.3321E-03  0.2099E+01
   -0.549989   30.17290  0.1338E-13  0.1384E-04  0.4266E-07  0.1344E-02  0.3108E-03  0.2078E+01
   -0.599990   30.17357  0.1338E-13  0.1406E-04  0.4178E-07  0.1417E-02  0.2914E-03  0.2082E+01
   -0.649991   30.17420  0.1338E-13  0.1425E-04  0.4105E-07  0.1482E-02  0.2738E-03  0.2116E+01
   -0.699992   30.17479  0.1338E-13  0.1442E-04  0.4044E-07  0.1540E-02  0.2577E-03  0.2169E+01
   -0.749993   30.17536  0.1338E-13  0.1457E-04  0.3996E-07  0.1591E-02  0.2428E-03  0.2250E+01
   -0.799995   30.17590  0.1338E-13  0.1470E-04  0.3957E-07  0.1635E-02  0.2289E-03  0.2350E+01
   -0.849996   30.17643  0.1338E-13  0.1480E-04  0.3928E-07  0.1671E-02  0.2160E-03  0.2482E+01
   -0.899998   30.17694  0.1338E-13  0.1489E-04  0.3908E-07  0.1699E-02  0.2039E-03  0.2638E+01
   -0.950000   30.17744  0.1338E-13  0.1495E-04  0.3897E-07  0.1720E-02  0.1925E-03  0.2838E+01
   -1.000001   30.17793  0.1338E-13  0.1500E-04  0.3895E-07  0.1732E-02  0.1817E-03  0.3069E+01
   -1.050003   30.17842  0.1338E-13  0.1503E-04  0.3902E-07  0.1736E-02  0.1715E-03  0.3502E+01
   -1.100005   30.17890  0.1338E-13  0.1504E-04  0.3919E-07  0.1807E-02  0.1618E-03  0.1182E+02
   -1.150007   30.17937  0.1338E-13  0.1503E-04  0.3948E-07  0.1678E-02  0.1530E-03  0.2551E+02
   -1.200008   30.17987  0.1338E-13  0.1500E-04  0.3989E-07  0.1690E-02  0.1441E-03  0.5046E+01
   -1.250010   30.18037  0.1338E-13  0.1495E-04  0.4044E-07  0.1662E-02  0.1356E-03  0.5405E+01
   -1.300011   30.18088  0.1338E-13  0.1487E-04  0.4117E-07  0.1617E-02  0.1273E-03  0.6328E+01
   -1.350012   30.18140  0.1338E-13  0.1476E-04  0.4213E-07  0.1563E-02  0.1193E-03  0.7541E+01
   -1.400013   30.18194  0.1338E-13  0.1463E-04  0.4338E-07  0.1493E-02  0.1116E-03  0.9264E+01
   -1.450014   30.18251  0.1338E-13  0.1445E-04  0.4502E-07  0.1418E-02  0.1040E-03  0.1169E+02
   -1.500015   30.18312  0.1338E-13  0.1423E-04  0.4722E-07  0.1316E-02  0.9655E-04  0.1558E+02
   -1.550015   30.18378  0.1338E-13  0.1396E-04  0.5026E-07  0.1230E-02  0.8913E-04  0.2168E+02
   -1.600015   30.18449  0.1338E-13  0.1361E-04  0.5469E-07  0.1093E-02  0.8184E-04  0.3600E+02
   -1.650015   30.18533  0.1338E-13  0.1316E-04  0.6136E-07  0.1009E-02  0.7423E-04  0.9427E+02
   -1.700014   30.18628  0.1338E-13  0.1256E-04  0.7300E-07  0.8340E-03  0.6678E-04  0.7168E+04
   -1.750013   30.18781  0.1338E-13  0.1172E-04  0.9224E-07  0.7506E-03  0.5749E-04  0.3073E+05
   -1.800012   30.18931  0.1338E-13  0.1053E-04  0.1325E-06  0.5364E-03  0.4954E-04  0.3459E+04
   -1.850010   30.19420  0.1338E-13  0.9105E-05  0.2070E-06  0.4789E-03  0.3693E-04  0.2471E+08
   -1.900008   30.19429  0.1338E-13  0.7272E-05  0.4261E-06  0.2188E-03  0.2978E-04  0.2974E+05
   -1.950006   30.21155  0.1338E-13  0.5006E-05  0.1102E-05  0.1662E-03  0.1664E-04 -0.3528E+06
   -2.000003   30.21580  0.1338E-13  0.0000E+00  0.0000E+00  0.0000E+00  0.2766E-04  0.0000E+00
