 1 - depth, m
 2 - temperature, C
 3 - salinity, kg/kg
 4 - turbulent kinetic energy, m**2/s**2
 5 - dissipation rate, m**2/s**3
 6 - kinematic heat conductance, m**2/s
 7 - modulus of horizontal velocity, m/s
 8 - Richardson number, n/d
   -0.000000   30.48552  0.2014E-14  0.4477E-05  0.2664E-06  0.4723E-04  0.4680E-03  0.8252E+05
   -0.049997   30.51458  0.2014E-14  0.7975E-05  0.1179E-06  0.1830E-03  0.2600E-03  0.1224E+03
   -0.099994   30.52460  0.2014E-14  0.9642E-05  0.8219E-07  0.4122E-03  0.1901E-03  0.1975E+03
   -0.149992   30.52742  0.2014E-14  0.1069E-04  0.6965E-07  0.4895E-03  0.1684E-03  0.9752E+02
   -0.199991   30.52970  0.2014E-14  0.1151E-04  0.6224E-07  0.6512E-03  0.1507E-03  0.6421E+02
   -0.249989   30.53137  0.2014E-14  0.1217E-04  0.5736E-07  0.7763E-03  0.1373E-03  0.4803E+02
   -0.299988   30.53274  0.2014E-14  0.1271E-04  0.5388E-07  0.9000E-03  0.1261E-03  0.3864E+02
   -0.349988   30.53390  0.2014E-14  0.1316E-04  0.5128E-07  0.1012E-02  0.1165E-03  0.3328E+02
   -0.399988   30.53491  0.2014E-14  0.1355E-04  0.4927E-07  0.1115E-02  0.1081E-03  0.2983E+02
   -0.449988   30.53580  0.2014E-14  0.1388E-04  0.4764E-07  0.1211E-02  0.1006E-03  0.2810E+02
   -0.499988   30.53662  0.2014E-14  0.1418E-04  0.4631E-07  0.1298E-02  0.9395E-04  0.2742E+02
   -0.549989   30.53736  0.2014E-14  0.1443E-04  0.4520E-07  0.1379E-02  0.8802E-04  0.2714E+02
   -0.599989   30.53805  0.2014E-14  0.1466E-04  0.4429E-07  0.1452E-02  0.8264E-04  0.2725E+02
   -0.649991   30.53870  0.2014E-14  0.1486E-04  0.4353E-07  0.1517E-02  0.7774E-04  0.2769E+02
   -0.699992   30.53931  0.2014E-14  0.1503E-04  0.4290E-07  0.1575E-02  0.7323E-04  0.2843E+02
   -0.749993   30.53990  0.2014E-14  0.1517E-04  0.4239E-07  0.1625E-02  0.6907E-04  0.2949E+02
   -0.799995   30.54046  0.2014E-14  0.1530E-04  0.4199E-07  0.1668E-02  0.6519E-04  0.3086E+02
   -0.849996   30.54100  0.2014E-14  0.1540E-04  0.4169E-07  0.1703E-02  0.6157E-04  0.3260E+02
   -0.899998   30.54153  0.2014E-14  0.1549E-04  0.4149E-07  0.1731E-02  0.5817E-04  0.3474E+02
   -0.949999   30.54204  0.2014E-14  0.1555E-04  0.4138E-07  0.1750E-02  0.5497E-04  0.3737E+02
   -1.000001   30.54255  0.2014E-14  0.1559E-04  0.4136E-07  0.1761E-02  0.5193E-04  0.4055E+02
   -1.050003   30.54306  0.2014E-14  0.1561E-04  0.4145E-07  0.1762E-02  0.4906E-04  0.4625E+02
   -1.100005   30.54356  0.2014E-14  0.1562E-04  0.4164E-07  0.1844E-02  0.4631E-04  0.1549E+03
   -1.150006   30.54404  0.2014E-14  0.1560E-04  0.4196E-07  0.1688E-02  0.4386E-04  0.3445E+03
   -1.200008   30.54456  0.2014E-14  0.1556E-04  0.4241E-07  0.1708E-02  0.4132E-04  0.6735E+02
   -1.250009   30.54508  0.2014E-14  0.1549E-04  0.4302E-07  0.1677E-02  0.3889E-04  0.7245E+02
   -1.300011   30.54561  0.2014E-14  0.1540E-04  0.4383E-07  0.1629E-02  0.3656E-04  0.8510E+02
   -1.350012   30.54615  0.2014E-14  0.1527E-04  0.4490E-07  0.1572E-02  0.3429E-04  0.1022E+03
   -1.400013   30.54671  0.2014E-14  0.1511E-04  0.4629E-07  0.1497E-02  0.3208E-04  0.1264E+03
   -1.450014   30.54731  0.2014E-14  0.1492E-04  0.4815E-07  0.1421E-02  0.2991E-04  0.1612E+03
   -1.500014   30.54794  0.2014E-14  0.1467E-04  0.5066E-07  0.1311E-02  0.2779E-04  0.2183E+03
   -1.550015   30.54864  0.2014E-14  0.1436E-04  0.5415E-07  0.1229E-02  0.2565E-04  0.3097E+03
   -1.600015   30.54939  0.2014E-14  0.1397E-04  0.5941E-07  0.1083E-02  0.2357E-04  0.5700E+03
   -1.650014   30.55031  0.2014E-14  0.1346E-04  0.6734E-07  0.1005E-02  0.2132E-04  0.2998E+04
   -1.700014   30.55132  0.2014E-14  0.1276E-04  0.8143E-07  0.8182E-03  0.1918E-04  0.3898E+04
   -1.750013   30.55312  0.2014E-14  0.1182E-04  0.1046E-06  0.7451E-03  0.1632E-04  0.1331E+06
   -1.800012   30.55462  0.2014E-14  0.1055E-04  0.1529E-06  0.5204E-03  0.1410E-04  0.2684E+06
   -1.850010   30.56047  0.2014E-14  0.9066E-05  0.2441E-06  0.4782E-03  0.1029E-04  0.1041E+09
   -1.900008   30.55988  0.2014E-14  0.7251E-05  0.5072E-06  0.2160E-03  0.8368E-05  0.7748E+07
   -1.950005   30.57917  0.2014E-14  0.5049E-05  0.1279E-05  0.1799E-03  0.4611E-05 -0.8488E+07
   -2.000002   30.58271  0.2014E-14  0.0000E+00  0.0000E+00  0.0000E+00  0.7958E-05  0.0000E+00
