 1 - depth, m
 2 - temperature, C
 3 - salinity, kg/kg
 4 - turbulent kinetic energy, m**2/s**2
 5 - dissipation rate, m**2/s**3
 6 - kinematic heat conductance, m**2/s
 7 - modulus of horizontal velocity, m/s
 8 - Richardson number, n/d
   -0.000000   29.77752  0.1413E-13  0.4744E-05  0.2674E-06  0.4884E-04  0.2552E-02  0.1976E+04
   -0.049997   29.80575  0.1413E-13  0.7893E-05  0.1178E-06  0.1859E-03  0.1386E-02  0.4570E+02
   -0.099994   29.81508  0.1413E-13  0.9411E-05  0.8267E-07  0.3795E-03  0.1056E-02  0.7400E+01
   -0.149992   29.81814  0.1413E-13  0.1039E-04  0.6947E-07  0.4713E-03  0.9326E-03  0.3716E+01
   -0.199991   29.82049  0.1413E-13  0.1116E-04  0.6173E-07  0.6169E-03  0.8357E-03  0.2417E+01
   -0.249989   29.82224  0.1413E-13  0.1178E-04  0.5665E-07  0.7365E-03  0.7618E-03  0.1792E+01
   -0.299989   29.82367  0.1413E-13  0.1228E-04  0.5304E-07  0.8482E-03  0.7002E-03  0.1453E+01
   -0.349988   29.82488  0.1413E-13  0.1271E-04  0.5029E-07  0.9513E-03  0.6469E-03  0.1331E+01
   -0.399988   29.82593  0.1413E-13  0.1309E-04  0.4808E-07  0.1056E-02  0.5977E-03  0.1287E+01
   -0.449988   29.82686  0.1413E-13  0.1343E-04  0.4623E-07  0.1160E-02  0.5527E-03  0.1271E+01
   -0.499988   29.82769  0.1413E-13  0.1373E-04  0.4468E-07  0.1258E-02  0.5120E-03  0.1270E+01
   -0.549989   29.82844  0.1413E-13  0.1399E-04  0.4339E-07  0.1348E-02  0.4754E-03  0.1264E+01
   -0.599990   29.82913  0.1413E-13  0.1421E-04  0.4230E-07  0.1429E-02  0.4423E-03  0.1262E+01
   -0.649991   29.82977  0.1413E-13  0.1440E-04  0.4139E-07  0.1502E-02  0.4123E-03  0.1257E+01
   -0.699992   29.83037  0.1413E-13  0.1456E-04  0.4063E-07  0.1565E-02  0.3852E-03  0.1257E+01
   -0.749993   29.83094  0.1413E-13  0.1469E-04  0.4001E-07  0.1619E-02  0.3605E-03  0.1255E+01
   -0.799995   29.83148  0.1413E-13  0.1480E-04  0.3951E-07  0.1663E-02  0.3381E-03  0.1260E+01
   -0.849996   29.83200  0.1413E-13  0.1487E-04  0.3912E-07  0.1698E-02  0.3177E-03  0.1267E+01
   -0.899998   29.83251  0.1413E-13  0.1493E-04  0.3884E-07  0.1723E-02  0.2990E-03  0.1290E+01
   -0.950000   29.83300  0.1413E-13  0.1496E-04  0.3864E-07  0.1739E-02  0.2819E-03  0.1330E+01
   -1.000002   29.83349  0.1413E-13  0.1498E-04  0.3853E-07  0.1747E-02  0.2661E-03  0.1413E+01
   -1.050003   29.83396  0.1413E-13  0.1497E-04  0.3851E-07  0.1746E-02  0.2512E-03  0.1589E+01
   -1.100005   29.83444  0.1413E-13  0.1495E-04  0.3859E-07  0.1835E-02  0.2371E-03  0.5276E+01
   -1.150007   29.83489  0.1413E-13  0.1490E-04  0.3878E-07  0.1657E-02  0.2246E-03  0.1199E+02
   -1.200008   29.83538  0.1413E-13  0.1483E-04  0.3909E-07  0.1686E-02  0.2114E-03  0.2296E+01
   -1.250010   29.83586  0.1413E-13  0.1474E-04  0.3954E-07  0.1656E-02  0.1989E-03  0.2451E+01
   -1.300011   29.83635  0.1413E-13  0.1463E-04  0.4017E-07  0.1607E-02  0.1869E-03  0.2857E+01
   -1.350012   29.83685  0.1413E-13  0.1448E-04  0.4103E-07  0.1549E-02  0.1752E-03  0.3421E+01
   -1.400013   29.83737  0.1413E-13  0.1430E-04  0.4218E-07  0.1473E-02  0.1638E-03  0.4202E+01
   -1.450014   29.83791  0.1413E-13  0.1409E-04  0.4374E-07  0.1397E-02  0.1527E-03  0.5342E+01
   -1.500015   29.83848  0.1413E-13  0.1383E-04  0.4588E-07  0.1287E-02  0.1418E-03  0.7177E+01
   -1.550015   29.83911  0.1413E-13  0.1351E-04  0.4888E-07  0.1203E-02  0.1308E-03  0.1011E+02
   -1.600015   29.83978  0.1413E-13  0.1312E-04  0.5343E-07  0.1058E-02  0.1200E-03  0.1787E+02
   -1.650015   29.84060  0.1413E-13  0.1262E-04  0.6036E-07  0.9816E-03  0.1086E-03  0.9946E+02
   -1.700015   29.84148  0.1413E-13  0.1193E-04  0.7286E-07  0.8015E-03  0.9761E-04  0.1365E+03
   -1.750014   29.84306  0.1413E-13  0.1100E-04  0.9366E-07  0.7243E-03  0.8300E-04  0.1468E+04
   -1.800012   29.84444  0.1413E-13  0.9721E-05  0.1372E-06  0.5034E-03  0.7127E-04  0.2380E+05
   -1.850011   29.84968  0.1413E-13  0.8235E-05  0.2183E-06  0.4592E-03  0.5136E-04  0.3326E+07
   -1.900009   29.84903  0.1413E-13  0.6480E-05  0.4504E-06  0.2067E-03  0.4148E-04  0.2951E+05
   -1.950006   29.86606  0.1413E-13  0.4485E-05  0.1153E-05  0.1771E-03  0.2219E-04 -0.2020E+06
   -2.000003   29.86823  0.1413E-13  0.0000E+00  0.0000E+00  0.0000E+00  0.4021E-04  0.0000E+00
