 1 - depth, m
 2 - temperature, C
 3 - salinity, kg/kg
 4 - turbulent kinetic energy, m**2/s**2
 5 - dissipation rate, m**2/s**3
 6 - kinematic heat conductance, m**2/s
 7 - modulus of horizontal velocity, m/s
 8 - Richardson number, n/d
   -0.000000   30.20932  0.2148E-14  0.4696E-05  0.2868E-06  0.4952E-04  0.1588E-02  0.6489E+04
   -0.049997   30.23863  0.2148E-14  0.8047E-05  0.1278E-06  0.1763E-03  0.9053E-03  0.9803E+03
   -0.099994   30.24981  0.2148E-14  0.9763E-05  0.8798E-07  0.3953E-03  0.6628E-03  0.2062E+02
   -0.149992   30.25293  0.2148E-14  0.1084E-04  0.7387E-07  0.4768E-03  0.5854E-03  0.1010E+02
   -0.199991   30.25541  0.2148E-14  0.1168E-04  0.6562E-07  0.6366E-03  0.5226E-03  0.6497E+01
   -0.249989   30.25721  0.2148E-14  0.1235E-04  0.6023E-07  0.7610E-03  0.4757E-03  0.4785E+01
   -0.299989   30.25868  0.2148E-14  0.1290E-04  0.5639E-07  0.8852E-03  0.4366E-03  0.3819E+01
   -0.349988   30.25992  0.2148E-14  0.1336E-04  0.5352E-07  0.9975E-03  0.4032E-03  0.3257E+01
   -0.399988   30.26099  0.2148E-14  0.1374E-04  0.5130E-07  0.1100E-02  0.3736E-03  0.2914E+01
   -0.449988   30.26195  0.2148E-14  0.1407E-04  0.4950E-07  0.1196E-02  0.3476E-03  0.2724E+01
   -0.499988   30.26281  0.2148E-14  0.1436E-04  0.4801E-07  0.1284E-02  0.3245E-03  0.2664E+01
   -0.549989   30.26359  0.2148E-14  0.1461E-04  0.4677E-07  0.1364E-02  0.3039E-03  0.2615E+01
   -0.599990   30.26432  0.2148E-14  0.1483E-04  0.4573E-07  0.1437E-02  0.2853E-03  0.2634E+01
   -0.649991   30.26500  0.2148E-14  0.1502E-04  0.4486E-07  0.1503E-02  0.2683E-03  0.2652E+01
   -0.699992   30.26565  0.2148E-14  0.1518E-04  0.4413E-07  0.1561E-02  0.2527E-03  0.2732E+01
   -0.749993   30.26626  0.2148E-14  0.1531E-04  0.4352E-07  0.1611E-02  0.2383E-03  0.2806E+01
   -0.799995   30.26684  0.2148E-14  0.1542E-04  0.4302E-07  0.1654E-02  0.2249E-03  0.2947E+01
   -0.849996   30.26741  0.2148E-14  0.1551E-04  0.4263E-07  0.1689E-02  0.2123E-03  0.3082E+01
   -0.899998   30.26796  0.2148E-14  0.1558E-04  0.4234E-07  0.1716E-02  0.2006E-03  0.3293E+01
   -0.950000   30.26849  0.2148E-14  0.1563E-04  0.4214E-07  0.1735E-02  0.1895E-03  0.3509E+01
   -1.000001   30.26902  0.2148E-14  0.1565E-04  0.4204E-07  0.1746E-02  0.1790E-03  0.3817E+01
   -1.050003   30.26953  0.2148E-14  0.1566E-04  0.4203E-07  0.1747E-02  0.1691E-03  0.4308E+01
   -1.100005   30.27005  0.2148E-14  0.1564E-04  0.4214E-07  0.1831E-02  0.1596E-03  0.1441E+02
   -1.150006   30.27053  0.2148E-14  0.1560E-04  0.4238E-07  0.1667E-02  0.1512E-03  0.3256E+02
   -1.200008   30.27107  0.2148E-14  0.1554E-04  0.4275E-07  0.1690E-02  0.1424E-03  0.6244E+01
   -1.250010   30.27159  0.2148E-14  0.1545E-04  0.4328E-07  0.1660E-02  0.1340E-03  0.6714E+01
   -1.300011   30.27212  0.2148E-14  0.1534E-04  0.4401E-07  0.1611E-02  0.1259E-03  0.7824E+01
   -1.350012   30.27267  0.2148E-14  0.1519E-04  0.4500E-07  0.1553E-02  0.1181E-03  0.9440E+01
   -1.400013   30.27324  0.2148E-14  0.1501E-04  0.4633E-07  0.1477E-02  0.1104E-03  0.1162E+02
   -1.450014   30.27383  0.2148E-14  0.1478E-04  0.4812E-07  0.1400E-02  0.1029E-03  0.1493E+02
   -1.500015   30.27446  0.2148E-14  0.1451E-04  0.5059E-07  0.1290E-02  0.9559E-04  0.2023E+02
   -1.550015   30.27515  0.2148E-14  0.1417E-04  0.5408E-07  0.1206E-02  0.8819E-04  0.2903E+02
   -1.600015   30.27590  0.2148E-14  0.1375E-04  0.5940E-07  0.1063E-02  0.8096E-04  0.5642E+02
   -1.650015   30.27682  0.2148E-14  0.1321E-04  0.6763E-07  0.9836E-03  0.7319E-04  0.9953E+03
   -1.700014   30.27785  0.2148E-14  0.1246E-04  0.8229E-07  0.8047E-03  0.6559E-04  0.1412E+05
   -1.750013   30.27966  0.2148E-14  0.1147E-04  0.1063E-06  0.7240E-03  0.5559E-04  0.2495E+06
   -1.800012   30.28119  0.2148E-14  0.1013E-04  0.1566E-06  0.5117E-03  0.4774E-04  0.8484E+06
   -1.850010   30.28743  0.2148E-14  0.8618E-05  0.2524E-06  0.4657E-03  0.3423E-04  0.5359E+07
   -1.900008   30.28627  0.2148E-14  0.6812E-05  0.5300E-06  0.2086E-03  0.2778E-04 -0.5820E+04
   -1.950006   30.30571  0.2148E-14  0.4770E-05  0.1323E-05  0.1866E-03  0.1494E-04 -0.5198E+06
   -2.000003   30.30751  0.2148E-14  0.0000E+00  0.0000E+00  0.0000E+00  0.2730E-04  0.0000E+00
