 1 - depth, m
 2 - temperature, C
 3 - salinity, kg/kg
 4 - turbulent kinetic energy, m**2/s**2
 5 - dissipation rate, m**2/s**3
 6 - kinematic heat conductance, m**2/s
 7 - modulus of horizontal velocity, m/s
 8 - Richardson number, n/d
   -0.000000   30.32658  0.1766E-13  0.4567E-05  0.2762E-06  0.4913E-04  0.1309E-02  0.1651E+05
   -0.049997   30.35498  0.1766E-13  0.7894E-05  0.1231E-06  0.1755E-03  0.7419E-03  0.2219E+04
   -0.099994   30.36585  0.1766E-13  0.9589E-05  0.8496E-07  0.3954E-03  0.5426E-03  0.2628E+02
   -0.149992   30.36885  0.1766E-13  0.1065E-04  0.7143E-07  0.4765E-03  0.4789E-03  0.1287E+02
   -0.199991   30.37123  0.1766E-13  0.1149E-04  0.6353E-07  0.6364E-03  0.4275E-03  0.8282E+01
   -0.249989   30.37297  0.1766E-13  0.1215E-04  0.5837E-07  0.7610E-03  0.3890E-03  0.6127E+01
   -0.299988   30.37438  0.1766E-13  0.1270E-04  0.5471E-07  0.8849E-03  0.3570E-03  0.4888E+01
   -0.349988   30.37557  0.1766E-13  0.1315E-04  0.5198E-07  0.9973E-03  0.3296E-03  0.4191E+01
   -0.399988   30.37661  0.1766E-13  0.1354E-04  0.4987E-07  0.1100E-02  0.3053E-03  0.3741E+01
   -0.449988   30.37753  0.1766E-13  0.1388E-04  0.4816E-07  0.1196E-02  0.2840E-03  0.3517E+01
   -0.499988   30.37836  0.1766E-13  0.1417E-04  0.4676E-07  0.1284E-02  0.2651E-03  0.3424E+01
   -0.549989   30.37913  0.1766E-13  0.1442E-04  0.4560E-07  0.1365E-02  0.2482E-03  0.3385E+01
   -0.599989   30.37983  0.1766E-13  0.1465E-04  0.4463E-07  0.1438E-02  0.2330E-03  0.3390E+01
   -0.649991   30.38049  0.1766E-13  0.1484E-04  0.4383E-07  0.1504E-02  0.2191E-03  0.3442E+01
   -0.699992   30.38112  0.1766E-13  0.1501E-04  0.4317E-07  0.1562E-02  0.2063E-03  0.3526E+01
   -0.749993   30.38171  0.1766E-13  0.1516E-04  0.4262E-07  0.1613E-02  0.1945E-03  0.3655E+01
   -0.799995   30.38228  0.1766E-13  0.1528E-04  0.4219E-07  0.1656E-02  0.1835E-03  0.3816E+01
   -0.849996   30.38283  0.1766E-13  0.1538E-04  0.4186E-07  0.1691E-02  0.1733E-03  0.4028E+01
   -0.899998   30.38336  0.1766E-13  0.1546E-04  0.4162E-07  0.1719E-02  0.1636E-03  0.4281E+01
   -0.949999   30.38389  0.1766E-13  0.1552E-04  0.4148E-07  0.1738E-02  0.1546E-03  0.4601E+01
   -1.000001   30.38440  0.1766E-13  0.1556E-04  0.4144E-07  0.1750E-02  0.1460E-03  0.4980E+01
   -1.050003   30.38491  0.1766E-13  0.1558E-04  0.4150E-07  0.1752E-02  0.1379E-03  0.5675E+01
   -1.100005   30.38542  0.1766E-13  0.1558E-04  0.4166E-07  0.1832E-02  0.1301E-03  0.1898E+02
   -1.150006   30.38590  0.1766E-13  0.1555E-04  0.4196E-07  0.1680E-02  0.1232E-03  0.4223E+02
   -1.200008   30.38643  0.1767E-13  0.1551E-04  0.4237E-07  0.1698E-02  0.1161E-03  0.8234E+01
   -1.250009   30.38695  0.1767E-13  0.1544E-04  0.4296E-07  0.1669E-02  0.1092E-03  0.8827E+01
   -1.300011   30.38748  0.1767E-13  0.1534E-04  0.4374E-07  0.1621E-02  0.1026E-03  0.1036E+02
   -1.350012   30.38803  0.1767E-13  0.1521E-04  0.4478E-07  0.1564E-02  0.9622E-04  0.1241E+02
   -1.400013   30.38860  0.1767E-13  0.1505E-04  0.4614E-07  0.1490E-02  0.8999E-04  0.1535E+02
   -1.450014   30.38919  0.1767E-13  0.1485E-04  0.4796E-07  0.1415E-02  0.8389E-04  0.1954E+02
   -1.500014   30.38983  0.1767E-13  0.1460E-04  0.5044E-07  0.1305E-02  0.7790E-04  0.2651E+02
   -1.550015   30.39052  0.1767E-13  0.1429E-04  0.5388E-07  0.1224E-02  0.7189E-04  0.3752E+02
   -1.600015   30.39128  0.1767E-13  0.1389E-04  0.5911E-07  0.1079E-02  0.6602E-04  0.7506E+02
   -1.650014   30.39220  0.1767E-13  0.1338E-04  0.6703E-07  0.1003E-02  0.5970E-04  0.2642E+03
   -1.700014   30.39321  0.1767E-13  0.1268E-04  0.8106E-07  0.8159E-03  0.5365E-04  0.2182E+04
   -1.750013   30.39501  0.1767E-13  0.1174E-04  0.1040E-06  0.7455E-03  0.4562E-04  0.1122E+06
   -1.800012   30.39650  0.1767E-13  0.1046E-04  0.1523E-06  0.5176E-03  0.3938E-04  0.4272E+06
   -1.850010   30.40240  0.1767E-13  0.8982E-05  0.2436E-06  0.4835E-03  0.2859E-04  0.2922E+08
   -1.900008   30.40171  0.1767E-13  0.7193E-05  0.5089E-06  0.2167E-03  0.2331E-04  0.3139E+06
   -1.950005   30.42097  0.1767E-13  0.4996E-05  0.1292E-05  0.1802E-03  0.1279E-04 -0.7837E+06
   -2.000002   30.42472  0.1767E-13  0.0000E+00  0.0000E+00  0.0000E+00  0.2230E-04  0.0000E+00
