 1 - depth, m
 2 - temperature, C
 3 - salinity, kg/kg
 4 - turbulent kinetic energy, m**2/s**2
 5 - dissipation rate, m**2/s**3
 6 - kinematic heat conductance, m**2/s
 7 - modulus of horizontal velocity, m/s
 8 - Richardson number, n/d
   -0.000000   30.45044  0.6333E-13  0.4702E-05  0.2849E-06  0.4997E-04  0.1883E-02  0.5232E+04
   -0.049997   30.47895  0.6333E-13  0.7983E-05  0.1267E-06  0.1744E-03  0.1069E-02  0.6333E+04
   -0.099994   30.48993  0.6333E-13  0.9670E-05  0.8700E-07  0.3920E-03  0.7833E-03  0.1390E+02
   -0.149992   30.49300  0.6333E-13  0.1073E-04  0.7295E-07  0.4732E-03  0.6910E-03  0.6790E+01
   -0.199991   30.49543  0.6333E-13  0.1156E-04  0.6473E-07  0.6315E-03  0.6165E-03  0.4357E+01
   -0.249989   30.49721  0.6333E-13  0.1221E-04  0.5935E-07  0.7556E-03  0.5607E-03  0.3216E+01
   -0.299988   30.49865  0.6333E-13  0.1275E-04  0.5553E-07  0.8790E-03  0.5143E-03  0.2556E+01
   -0.349988   30.49986  0.6333E-13  0.1320E-04  0.5267E-07  0.9910E-03  0.4746E-03  0.2189E+01
   -0.399988   30.50091  0.6333E-13  0.1358E-04  0.5045E-07  0.1094E-02  0.4395E-03  0.1948E+01
   -0.449988   30.50184  0.6333E-13  0.1391E-04  0.4864E-07  0.1189E-02  0.4087E-03  0.1835E+01
   -0.499988   30.50268  0.6333E-13  0.1420E-04  0.4715E-07  0.1277E-02  0.3813E-03  0.1784E+01
   -0.549989   30.50345  0.6333E-13  0.1445E-04  0.4591E-07  0.1359E-02  0.3568E-03  0.1765E+01
   -0.599990   30.50416  0.6333E-13  0.1466E-04  0.4487E-07  0.1433E-02  0.3347E-03  0.1762E+01
   -0.649991   30.50482  0.6333E-13  0.1485E-04  0.4400E-07  0.1499E-02  0.3145E-03  0.1787E+01
   -0.699992   30.50545  0.6333E-13  0.1501E-04  0.4326E-07  0.1558E-02  0.2961E-03  0.1821E+01
   -0.749993   30.50604  0.6333E-13  0.1515E-04  0.4265E-07  0.1610E-02  0.2790E-03  0.1884E+01
   -0.799995   30.50661  0.6333E-13  0.1526E-04  0.4216E-07  0.1653E-02  0.2632E-03  0.1956E+01
   -0.849996   30.50716  0.6333E-13  0.1535E-04  0.4176E-07  0.1690E-02  0.2484E-03  0.2063E+01
   -0.899998   30.50769  0.6333E-13  0.1543E-04  0.4146E-07  0.1718E-02  0.2346E-03  0.2181E+01
   -0.949999   30.50821  0.6333E-13  0.1548E-04  0.4125E-07  0.1739E-02  0.2215E-03  0.2342E+01
   -1.000001   30.50871  0.6333E-13  0.1551E-04  0.4114E-07  0.1751E-02  0.2092E-03  0.2520E+01
   -1.050003   30.50921  0.6333E-13  0.1552E-04  0.4113E-07  0.1755E-02  0.1975E-03  0.2867E+01
   -1.100005   30.50971  0.6333E-13  0.1551E-04  0.4122E-07  0.1831E-02  0.1864E-03  0.9587E+01
   -1.150006   30.51018  0.6333E-13  0.1548E-04  0.4144E-07  0.1691E-02  0.1764E-03  0.2100E+02
   -1.200008   30.51069  0.6333E-13  0.1543E-04  0.4177E-07  0.1707E-02  0.1662E-03  0.4111E+01
   -1.250009   30.51120  0.6333E-13  0.1536E-04  0.4226E-07  0.1678E-02  0.1564E-03  0.4373E+01
   -1.300011   30.51171  0.6333E-13  0.1525E-04  0.4294E-07  0.1633E-02  0.1470E-03  0.5121E+01
   -1.350012   30.51223  0.6333E-13  0.1513E-04  0.4385E-07  0.1578E-02  0.1379E-03  0.6082E+01
   -1.400013   30.51277  0.6333E-13  0.1496E-04  0.4507E-07  0.1506E-02  0.1290E-03  0.7494E+01
   -1.450014   30.51334  0.6333E-13  0.1476E-04  0.4670E-07  0.1431E-02  0.1202E-03  0.9443E+01
   -1.500014   30.51394  0.6333E-13  0.1452E-04  0.4893E-07  0.1326E-02  0.1117E-03  0.1271E+02
   -1.550015   30.51460  0.6333E-13  0.1421E-04  0.5204E-07  0.1240E-02  0.1032E-03  0.1776E+02
   -1.600015   30.51530  0.6333E-13  0.1383E-04  0.5667E-07  0.1101E-02  0.9480E-04  0.3138E+02
   -1.650014   30.51614  0.6333E-13  0.1335E-04  0.6371E-07  0.1017E-02  0.8599E-04  0.7173E+02
   -1.700014   30.51707  0.6333E-13  0.1269E-04  0.7613E-07  0.8372E-03  0.7741E-04  0.2241E+03
   -1.750013   30.51865  0.6333E-13  0.1180E-04  0.9670E-07  0.7554E-03  0.6649E-04  0.2935E+05
   -1.800012   30.52011  0.6333E-13  0.1058E-04  0.1388E-06  0.5371E-03  0.5731E-04  0.5045E+06
   -1.850010   30.52500  0.6333E-13  0.9136E-05  0.2179E-06  0.4845E-03  0.4273E-04  0.2023E+07
   -1.900008   30.52481  0.6333E-13  0.7297E-05  0.4478E-06  0.2206E-03  0.3465E-04 -0.2830E+04
   -1.950005   30.54183  0.6333E-13  0.5030E-05  0.1145E-05  0.1725E-03  0.1935E-04 -0.1590E+06
   -2.000002   30.54543  0.6333E-13  0.0000E+00  0.0000E+00  0.0000E+00  0.3230E-04  0.0000E+00
