 1 - depth, m
 2 - temperature, C
 3 - salinity, kg/kg
 4 - turbulent kinetic energy, m**2/s**2
 5 - dissipation rate, m**2/s**3
 6 - kinematic heat conductance, m**2/s
 7 - modulus of horizontal velocity, m/s
 8 - Richardson number, n/d
   -0.000000   30.36818  0.4000E-14  0.4591E-05  0.2698E-06  0.4587E-04  0.3298E-03  0.3469E+06
   -0.049997   30.40009  0.4001E-14  0.8221E-05  0.1201E-06  0.1934E-03  0.1792E-03  0.2397E+05
   -0.099994   30.40941  0.4001E-14  0.9865E-05  0.8474E-07  0.4112E-03  0.1335E-03  0.4018E+03
   -0.149992   30.41241  0.4001E-14  0.1092E-04  0.7187E-07  0.4947E-03  0.1182E-03  0.2008E+03
   -0.199991   30.41478  0.4001E-14  0.1174E-04  0.6423E-07  0.6540E-03  0.1058E-03  0.1330E+03
   -0.249989   30.41653  0.4001E-14  0.1239E-04  0.5916E-07  0.7794E-03  0.9649E-04  0.9952E+02
   -0.299989   30.41796  0.4001E-14  0.1293E-04  0.5553E-07  0.9022E-03  0.8868E-04  0.7992E+02
   -0.349988   30.41916  0.4001E-14  0.1337E-04  0.5279E-07  0.1014E-02  0.8196E-04  0.6869E+02
   -0.399988   30.42021  0.4001E-14  0.1375E-04  0.5065E-07  0.1116E-02  0.7601E-04  0.6144E+02
   -0.449988   30.42114  0.4001E-14  0.1408E-04  0.4892E-07  0.1211E-02  0.7076E-04  0.5782E+02
   -0.499988   30.42199  0.4001E-14  0.1436E-04  0.4748E-07  0.1298E-02  0.6611E-04  0.5637E+02
   -0.549989   30.42276  0.4001E-14  0.1460E-04  0.4628E-07  0.1377E-02  0.6193E-04  0.5570E+02
   -0.599990   30.42348  0.4001E-14  0.1481E-04  0.4527E-07  0.1449E-02  0.5816E-04  0.5580E+02
   -0.649991   30.42415  0.4001E-14  0.1499E-04  0.4442E-07  0.1513E-02  0.5471E-04  0.5657E+02
   -0.699992   30.42478  0.4001E-14  0.1515E-04  0.4370E-07  0.1570E-02  0.5154E-04  0.5791E+02
   -0.749993   30.42538  0.4001E-14  0.1528E-04  0.4311E-07  0.1620E-02  0.4860E-04  0.5988E+02
   -0.799995   30.42596  0.4001E-14  0.1539E-04  0.4262E-07  0.1662E-02  0.4588E-04  0.6244E+02
   -0.849996   30.42651  0.4001E-14  0.1547E-04  0.4223E-07  0.1696E-02  0.4332E-04  0.6572E+02
   -0.899998   30.42705  0.4001E-14  0.1553E-04  0.4194E-07  0.1722E-02  0.4093E-04  0.6972E+02
   -0.950000   30.42758  0.4001E-14  0.1558E-04  0.4174E-07  0.1740E-02  0.3867E-04  0.7471E+02
   -1.000001   30.42809  0.4001E-14  0.1560E-04  0.4164E-07  0.1750E-02  0.3654E-04  0.8069E+02
   -1.050003   30.42860  0.4001E-14  0.1560E-04  0.4164E-07  0.1750E-02  0.3451E-04  0.9152E+02
   -1.100005   30.42911  0.4001E-14  0.1558E-04  0.4174E-07  0.1838E-02  0.3257E-04  0.3030E+03
   -1.150006   30.42959  0.4001E-14  0.1553E-04  0.4198E-07  0.1664E-02  0.3085E-04  0.6896E+03
   -1.200008   30.43011  0.4001E-14  0.1547E-04  0.4234E-07  0.1691E-02  0.2906E-04  0.1324E+03
   -1.250010   30.43063  0.4001E-14  0.1538E-04  0.4286E-07  0.1660E-02  0.2734E-04  0.1413E+03
   -1.300011   30.43115  0.4001E-14  0.1526E-04  0.4358E-07  0.1611E-02  0.2570E-04  0.1654E+03
   -1.350012   30.43169  0.4001E-14  0.1511E-04  0.4456E-07  0.1551E-02  0.2409E-04  0.1982E+03
   -1.400013   30.43224  0.4001E-14  0.1492E-04  0.4587E-07  0.1475E-02  0.2254E-04  0.2447E+03
   -1.450014   30.43283  0.4001E-14  0.1470E-04  0.4764E-07  0.1397E-02  0.2101E-04  0.3122E+03
   -1.500015   30.43345  0.4001E-14  0.1442E-04  0.5008E-07  0.1285E-02  0.1950E-04  0.4232E+03
   -1.550015   30.43413  0.4001E-14  0.1408E-04  0.5352E-07  0.1200E-02  0.1799E-04  0.6028E+03
   -1.600015   30.43486  0.4001E-14  0.1366E-04  0.5873E-07  0.1056E-02  0.1651E-04  0.1124E+04
   -1.650015   30.43575  0.4001E-14  0.1311E-04  0.6682E-07  0.9784E-03  0.1494E-04  0.8529E+04
   -1.700014   30.43676  0.4001E-14  0.1236E-04  0.8137E-07  0.7962E-03  0.1339E-04  0.4907E+04
   -1.750013   30.43853  0.4001E-14  0.1136E-04  0.1051E-06  0.7196E-03  0.1134E-04  0.3466E+07
   -1.800012   30.44005  0.4001E-14  0.9989E-05  0.1542E-06  0.4963E-03  0.9729E-05  0.6114E+06
   -1.850010   30.44609  0.4001E-14  0.8439E-05  0.2484E-06  0.4565E-03  0.6938E-05  0.1058E+10
   -1.900008   30.44517  0.4001E-14  0.6644E-05  0.5201E-06  0.2016E-03  0.5614E-05 -0.2250E+08
   -1.950006   30.46441  0.4001E-14  0.4656E-05  0.1303E-05  0.1871E-03  0.2984E-05 -0.1265E+08
   -2.000003   30.46597  0.4001E-14  0.0000E+00  0.0000E+00  0.0000E+00  0.5508E-05  0.0000E+00
