 1 - depth, m
 2 - temperature, C
 3 - salinity, kg/kg
 4 - turbulent kinetic energy, m**2/s**2
 5 - dissipation rate, m**2/s**3
 6 - kinematic heat conductance, m**2/s
 7 - modulus of horizontal velocity, m/s
 8 - Richardson number, n/d
   -0.000000   30.28909  0.4507E-14  0.4805E-05  0.2985E-06  0.5081E-04  0.1799E-02  0.6698E+04
   -0.049997   30.31848  0.4507E-14  0.8170E-05  0.1330E-06  0.1740E-03  0.1034E-02  0.1098E+04
   -0.099994   30.33022  0.4507E-14  0.9928E-05  0.9099E-07  0.3975E-03  0.7534E-03  0.1440E+02
   -0.149992   30.33340  0.4507E-14  0.1103E-04  0.7627E-07  0.4766E-03  0.6654E-03  0.7030E+01
   -0.199991   30.33595  0.4507E-14  0.1188E-04  0.6767E-07  0.6384E-03  0.5938E-03  0.4502E+01
   -0.249989   30.33780  0.4507E-14  0.1256E-04  0.6205E-07  0.7635E-03  0.5404E-03  0.3319E+01
   -0.299988   30.33931  0.4507E-14  0.1312E-04  0.5806E-07  0.8887E-03  0.4960E-03  0.2640E+01
   -0.349988   30.34057  0.4507E-14  0.1358E-04  0.5507E-07  0.1002E-02  0.4580E-03  0.2257E+01
   -0.399988   30.34167  0.4507E-14  0.1397E-04  0.5276E-07  0.1106E-02  0.4244E-03  0.2012E+01
   -0.449988   30.34264  0.4507E-14  0.1431E-04  0.5088E-07  0.1202E-02  0.3948E-03  0.1888E+01
   -0.499988   30.34351  0.4507E-14  0.1460E-04  0.4933E-07  0.1291E-02  0.3687E-03  0.1837E+01
   -0.549989   30.34432  0.4507E-14  0.1485E-04  0.4803E-07  0.1372E-02  0.3453E-03  0.1813E+01
   -0.599990   30.34506  0.4507E-14  0.1507E-04  0.4695E-07  0.1446E-02  0.3241E-03  0.1814E+01
   -0.649991   30.34575  0.4507E-14  0.1526E-04  0.4603E-07  0.1512E-02  0.3048E-03  0.1838E+01
   -0.699992   30.34641  0.4507E-14  0.1542E-04  0.4527E-07  0.1570E-02  0.2871E-03  0.1880E+01
   -0.749993   30.34703  0.4507E-14  0.1556E-04  0.4463E-07  0.1621E-02  0.2707E-03  0.1943E+01
   -0.799995   30.34762  0.4507E-14  0.1567E-04  0.4410E-07  0.1665E-02  0.2555E-03  0.2025E+01
   -0.849996   30.34820  0.4507E-14  0.1576E-04  0.4368E-07  0.1700E-02  0.2413E-03  0.2131E+01
   -0.899998   30.34875  0.4507E-14  0.1582E-04  0.4336E-07  0.1728E-02  0.2279E-03  0.2260E+01
   -0.949999   30.34929  0.4507E-14  0.1587E-04  0.4314E-07  0.1747E-02  0.2154E-03  0.2421E+01
   -1.000001   30.34982  0.4507E-14  0.1589E-04  0.4302E-07  0.1759E-02  0.2035E-03  0.2614E+01
   -1.050003   30.35035  0.4507E-14  0.1590E-04  0.4300E-07  0.1760E-02  0.1922E-03  0.2965E+01
   -1.100005   30.35087  0.4507E-14  0.1588E-04  0.4309E-07  0.1845E-02  0.1815E-03  0.9872E+01
   -1.150006   30.35136  0.4507E-14  0.1584E-04  0.4332E-07  0.1681E-02  0.1719E-03  0.2209E+02
   -1.200008   30.35190  0.4507E-14  0.1577E-04  0.4367E-07  0.1705E-02  0.1619E-03  0.4276E+01
   -1.250009   30.35243  0.4507E-14  0.1568E-04  0.4420E-07  0.1674E-02  0.1524E-03  0.4561E+01
   -1.300011   30.35296  0.4507E-14  0.1557E-04  0.4492E-07  0.1626E-02  0.1432E-03  0.5335E+01
   -1.350012   30.35351  0.4507E-14  0.1542E-04  0.4591E-07  0.1568E-02  0.1343E-03  0.6376E+01
   -1.400013   30.35408  0.4507E-14  0.1523E-04  0.4723E-07  0.1491E-02  0.1257E-03  0.7862E+01
   -1.450014   30.35468  0.4507E-14  0.1501E-04  0.4902E-07  0.1415E-02  0.1172E-03  0.9991E+01
   -1.500014   30.35531  0.4507E-14  0.1473E-04  0.5150E-07  0.1303E-02  0.1088E-03  0.1351E+02
   -1.550015   30.35600  0.4507E-14  0.1439E-04  0.5499E-07  0.1219E-02  0.1005E-03  0.1912E+02
   -1.600015   30.35675  0.4507E-14  0.1396E-04  0.6026E-07  0.1074E-02  0.9226E-04  0.3571E+02
   -1.650014   30.35765  0.4507E-14  0.1342E-04  0.6837E-07  0.9974E-03  0.8351E-04  0.5852E+03
   -1.700014   30.35866  0.4507E-14  0.1267E-04  0.8300E-07  0.8124E-03  0.7497E-04 -0.2362E+03
   -1.750013   30.36047  0.4507E-14  0.1167E-04  0.1068E-06  0.7363E-03  0.6357E-04  0.3944E+05
   -1.800012   30.36195  0.4507E-14  0.1032E-04  0.1566E-06  0.5088E-03  0.5480E-04  0.1441E+05
   -1.850010   30.36808  0.4507E-14  0.8786E-05  0.2518E-06  0.4722E-03  0.3934E-04  0.3506E+07
   -1.900008   30.36712  0.4507E-14  0.6975E-05  0.5247E-06  0.2115E-03  0.3200E-04  0.1547E+06
   -1.950005   30.38634  0.4507E-14  0.4871E-05  0.1314E-05  0.1858E-03  0.1733E-04 -0.3446E+06
   -2.000002   30.38771  0.4507E-14  0.0000E+00  0.0000E+00  0.0000E+00  0.3123E-04  0.0000E+00
