 1 - depth, m
 2 - temperature, C
 3 - salinity, kg/kg
 4 - turbulent kinetic energy, m**2/s**2
 5 - dissipation rate, m**2/s**3
 6 - kinematic heat conductance, m**2/s
 7 - modulus of horizontal velocity, m/s
 8 - Richardson number, n/d
   -0.000000   30.24597  0.4523E-13  0.4837E-05  0.3023E-06  0.4988E-04  0.1016E-02  0.1552E+04
   -0.049997   30.27791  0.4523E-13  0.8379E-05  0.1343E-06  0.1801E-03  0.5762E-03  0.4002E+02
   -0.099994   30.28994  0.4523E-13  0.1015E-04  0.9268E-07  0.4047E-03  0.4221E-03  0.4660E+02
   -0.149992   30.29325  0.4523E-13  0.1126E-04  0.7798E-07  0.4840E-03  0.3735E-03  0.2278E+02
   -0.199991   30.29590  0.4523E-13  0.1211E-04  0.6930E-07  0.6457E-03  0.3338E-03  0.1469E+02
   -0.249989   30.29782  0.4523E-13  0.1279E-04  0.6358E-07  0.7703E-03  0.3040E-03  0.1086E+02
   -0.299988   30.29939  0.4523E-13  0.1334E-04  0.5948E-07  0.8948E-03  0.2792E-03  0.8646E+01
   -0.349988   30.30070  0.4523E-13  0.1379E-04  0.5640E-07  0.1007E-02  0.2579E-03  0.7389E+01
   -0.399988   30.30183  0.4523E-13  0.1417E-04  0.5398E-07  0.1110E-02  0.2391E-03  0.6583E+01
   -0.449988   30.30284  0.4523E-13  0.1449E-04  0.5201E-07  0.1205E-02  0.2226E-03  0.6176E+01
   -0.499988   30.30374  0.4523E-13  0.1477E-04  0.5037E-07  0.1293E-02  0.2079E-03  0.6007E+01
   -0.549989   30.30457  0.4523E-13  0.1501E-04  0.4899E-07  0.1373E-02  0.1947E-03  0.5920E+01
   -0.599990   30.30534  0.4523E-13  0.1521E-04  0.4782E-07  0.1445E-02  0.1828E-03  0.5920E+01
   -0.649991   30.30605  0.4523E-13  0.1538E-04  0.4682E-07  0.1510E-02  0.1720E-03  0.5984E+01
   -0.699992   30.30672  0.4523E-13  0.1553E-04  0.4596E-07  0.1567E-02  0.1620E-03  0.6114E+01
   -0.749993   30.30736  0.4523E-13  0.1564E-04  0.4524E-07  0.1617E-02  0.1528E-03  0.6303E+01
   -0.799995   30.30797  0.4523E-13  0.1573E-04  0.4462E-07  0.1659E-02  0.1442E-03  0.6560E+01
   -0.849996   30.30855  0.4523E-13  0.1580E-04  0.4412E-07  0.1693E-02  0.1362E-03  0.6882E+01
   -0.899998   30.30912  0.4523E-13  0.1585E-04  0.4372E-07  0.1719E-02  0.1286E-03  0.7289E+01
   -0.950000   30.30967  0.4523E-13  0.1587E-04  0.4341E-07  0.1737E-02  0.1216E-03  0.7783E+01
   -1.000001   30.31021  0.4523E-13  0.1587E-04  0.4321E-07  0.1747E-02  0.1148E-03  0.8394E+01
   -1.050003   30.31073  0.4523E-13  0.1585E-04  0.4311E-07  0.1746E-02  0.1085E-03  0.9481E+01
   -1.100005   30.31125  0.4523E-13  0.1581E-04  0.4311E-07  0.1839E-02  0.1024E-03  0.3121E+02
   -1.150006   30.31174  0.4523E-13  0.1574E-04  0.4326E-07  0.1654E-02  0.9699E-04  0.7215E+02
   -1.200008   30.31229  0.4523E-13  0.1566E-04  0.4353E-07  0.1685E-02  0.9133E-04  0.1369E+02
   -1.250009   30.31281  0.4523E-13  0.1554E-04  0.4397E-07  0.1654E-02  0.8595E-04  0.1455E+02
   -1.300011   30.31334  0.4523E-13  0.1539E-04  0.4462E-07  0.1603E-02  0.8076E-04  0.1700E+02
   -1.350012   30.31388  0.4523E-13  0.1522E-04  0.4554E-07  0.1543E-02  0.7573E-04  0.2037E+02
   -1.400013   30.31444  0.4523E-13  0.1500E-04  0.4680E-07  0.1465E-02  0.7083E-04  0.2517E+02
   -1.450014   30.31503  0.4523E-13  0.1475E-04  0.4855E-07  0.1386E-02  0.6602E-04  0.3218E+02
   -1.500014   30.31565  0.4523E-13  0.1444E-04  0.5102E-07  0.1274E-02  0.6129E-04  0.4383E+02
   -1.550015   30.31632  0.4523E-13  0.1406E-04  0.5455E-07  0.1188E-02  0.5653E-04  0.6293E+02
   -1.600015   30.31705  0.4523E-13  0.1360E-04  0.6003E-07  0.1048E-02  0.5186E-04  0.1235E+03
   -1.650015   30.31794  0.4523E-13  0.1301E-04  0.6872E-07  0.9664E-03  0.4685E-04  0.2636E+04
   -1.700014   30.31897  0.4523E-13  0.1219E-04  0.8432E-07  0.7887E-03  0.4185E-04 -0.9962E+04
   -1.750013   30.32078  0.4523E-13  0.1110E-04  0.1100E-06  0.7099E-03  0.3525E-04  0.1517E+06
   -1.800012   30.32232  0.4523E-13  0.9656E-05  0.1675E-06  0.4824E-03  0.3006E-04  0.1841E+06
   -1.850010   30.32863  0.4523E-13  0.8119E-05  0.2703E-06  0.4541E-03  0.2104E-04  0.3340E+08
   -1.900008   30.32695  0.4523E-13  0.6408E-05  0.5681E-06  0.2063E-03  0.1721E-04  0.7031E+06
   -1.950006   30.34596  0.4523E-13  0.4505E-05  0.1405E-05  0.1965E-03  0.9030E-05 -0.6767E+05
   -2.000003   30.34675  0.4523E-13  0.0000E+00  0.0000E+00  0.0000E+00  0.1761E-04  0.0000E+00
