 1 - depth, m
 2 - temperature, C
 3 - salinity, kg/kg
 4 - turbulent kinetic energy, m**2/s**2
 5 - dissipation rate, m**2/s**3
 6 - kinematic heat conductance, m**2/s
 7 - modulus of horizontal velocity, m/s
 8 - Richardson number, n/d
   -0.000000   30.28148  0.2705E-13  0.4790E-05  0.2950E-06  0.5043E-04  0.1848E-02  0.8178E+04
   -0.049997   30.31111  0.2705E-13  0.8130E-05  0.1314E-06  0.1740E-03  0.1058E-02  0.7859E+03
   -0.099994   30.32269  0.2705E-13  0.9857E-05  0.9012E-07  0.3939E-03  0.7735E-03  0.1421E+02
   -0.149992   30.32590  0.2705E-13  0.1094E-04  0.7553E-07  0.4738E-03  0.6828E-03  0.6922E+01
   -0.199991   30.32846  0.2705E-13  0.1178E-04  0.6699E-07  0.6332E-03  0.6093E-03  0.4435E+01
   -0.249989   30.33031  0.2705E-13  0.1244E-04  0.6139E-07  0.7573E-03  0.5543E-03  0.3264E+01
   -0.299989   30.33182  0.2705E-13  0.1299E-04  0.5740E-07  0.8809E-03  0.5086E-03  0.2593E+01
   -0.349988   30.33309  0.2705E-13  0.1344E-04  0.5441E-07  0.9930E-03  0.4694E-03  0.2214E+01
   -0.399988   30.33418  0.2705E-13  0.1382E-04  0.5208E-07  0.1096E-02  0.4348E-03  0.1970E+01
   -0.449988   30.33515  0.2705E-13  0.1414E-04  0.5018E-07  0.1191E-02  0.4044E-03  0.1848E+01
   -0.499988   30.33603  0.2705E-13  0.1442E-04  0.4861E-07  0.1278E-02  0.3775E-03  0.1797E+01
   -0.549989   30.33683  0.2705E-13  0.1467E-04  0.4730E-07  0.1359E-02  0.3534E-03  0.1772E+01
   -0.599990   30.33757  0.2705E-13  0.1487E-04  0.4618E-07  0.1431E-02  0.3316E-03  0.1772E+01
   -0.649991   30.33826  0.2705E-13  0.1505E-04  0.4524E-07  0.1497E-02  0.3118E-03  0.1792E+01
   -0.699992   30.33891  0.2705E-13  0.1520E-04  0.4444E-07  0.1554E-02  0.2935E-03  0.1831E+01
   -0.749993   30.33953  0.2705E-13  0.1533E-04  0.4377E-07  0.1605E-02  0.2767E-03  0.1889E+01
   -0.799995   30.34012  0.2705E-13  0.1543E-04  0.4321E-07  0.1648E-02  0.2610E-03  0.1966E+01
   -0.849996   30.34068  0.2705E-13  0.1551E-04  0.4275E-07  0.1683E-02  0.2464E-03  0.2064E+01
   -0.899998   30.34123  0.2705E-13  0.1556E-04  0.4239E-07  0.1710E-02  0.2327E-03  0.2186E+01
   -0.950000   30.34177  0.2705E-13  0.1560E-04  0.4213E-07  0.1729E-02  0.2198E-03  0.2335E+01
   -1.000001   30.34229  0.2705E-13  0.1561E-04  0.4196E-07  0.1740E-02  0.2076E-03  0.2519E+01
   -1.050003   30.34280  0.2705E-13  0.1561E-04  0.4190E-07  0.1742E-02  0.1960E-03  0.2846E+01
   -1.100005   30.34331  0.2705E-13  0.1558E-04  0.4194E-07  0.1826E-02  0.1850E-03  0.9449E+01
   -1.150006   30.34380  0.2705E-13  0.1553E-04  0.4211E-07  0.1663E-02  0.1751E-03  0.2130E+02
   -1.200008   30.34432  0.2705E-13  0.1546E-04  0.4240E-07  0.1687E-02  0.1649E-03  0.4090E+01
   -1.250009   30.34484  0.2705E-13  0.1536E-04  0.4285E-07  0.1657E-02  0.1552E-03  0.4350E+01
   -1.300011   30.34536  0.2705E-13  0.1523E-04  0.4350E-07  0.1609E-02  0.1458E-03  0.5075E+01
   -1.350012   30.34589  0.2705E-13  0.1508E-04  0.4440E-07  0.1551E-02  0.1367E-03  0.6060E+01
   -1.400013   30.34644  0.2705E-13  0.1489E-04  0.4563E-07  0.1475E-02  0.1278E-03  0.7463E+01
   -1.450014   30.34702  0.2705E-13  0.1466E-04  0.4730E-07  0.1399E-02  0.1191E-03  0.9478E+01
   -1.500014   30.34763  0.2705E-13  0.1437E-04  0.4963E-07  0.1289E-02  0.1106E-03  0.1282E+02
   -1.550015   30.34829  0.2705E-13  0.1403E-04  0.5292E-07  0.1206E-02  0.1020E-03  0.1814E+02
   -1.600015   30.34901  0.2705E-13  0.1361E-04  0.5798E-07  0.1061E-02  0.9368E-04  0.3392E+02
   -1.650015   30.34987  0.2705E-13  0.1306E-04  0.6580E-07  0.9846E-03  0.8470E-04  0.8700E+02
   -1.700014   30.35084  0.2705E-13  0.1232E-04  0.7988E-07  0.8018E-03  0.7602E-04  0.4824E+04
   -1.750013   30.35257  0.2705E-13  0.1133E-04  0.1031E-06  0.7245E-03  0.6443E-04  0.9782E+04
   -1.800012   30.35404  0.2705E-13  0.9995E-05  0.1509E-06  0.5091E-03  0.5530E-04  0.7629E+04
   -1.850010   30.35966  0.2705E-13  0.8470E-05  0.2421E-06  0.4604E-03  0.3979E-04  0.1103E+08
   -1.900008   30.35886  0.2705E-13  0.6662E-05  0.5053E-06  0.2090E-03  0.3215E-04  0.9575E+05
   -1.950006   30.37687  0.2705E-13  0.4654E-05  0.1269E-05  0.1849E-03  0.1722E-04 -0.3450E+06
   -2.000003   30.37882  0.2705E-13  0.0000E+00  0.0000E+00  0.0000E+00  0.3158E-04  0.0000E+00
