 1 - depth, m
 2 - temperature, C
 3 - salinity, kg/kg
 4 - turbulent kinetic energy, m**2/s**2
 5 - dissipation rate, m**2/s**3
 6 - kinematic heat conductance, m**2/s
 7 - modulus of horizontal velocity, m/s
 8 - Richardson number, n/d
   -0.000000   30.62080  0.1986E-14  0.5105E-05  0.3273E-06  0.5233E-04  0.1866E-02  0.5523E+04
   -0.049997   30.65252  0.1986E-14  0.8635E-05  0.1459E-06  0.1775E-03  0.1076E-02  0.2047E+04
   -0.099994   30.66510  0.1986E-14  0.1048E-04  0.9979E-07  0.4027E-03  0.7872E-03  0.1447E+02
   -0.149992   30.66856  0.1986E-14  0.1163E-04  0.8350E-07  0.4822E-03  0.6956E-03  0.7088E+01
   -0.199991   30.67132  0.1986E-14  0.1252E-04  0.7397E-07  0.6468E-03  0.6211E-03  0.4524E+01
   -0.249989   30.67332  0.1986E-14  0.1323E-04  0.6773E-07  0.7734E-03  0.5655E-03  0.3333E+01
   -0.299988   30.67494  0.1986E-14  0.1380E-04  0.6329E-07  0.9003E-03  0.5193E-03  0.2643E+01
   -0.349988   30.67630  0.1986E-14  0.1428E-04  0.5995E-07  0.1015E-02  0.4798E-03  0.2257E+01
   -0.399988   30.67747  0.1986E-14  0.1468E-04  0.5735E-07  0.1120E-02  0.4448E-03  0.2006E+01
   -0.449988   30.67851  0.1986E-14  0.1502E-04  0.5523E-07  0.1217E-02  0.4141E-03  0.1883E+01
   -0.499988   30.67945  0.1986E-14  0.1531E-04  0.5348E-07  0.1306E-02  0.3869E-03  0.1827E+01
   -0.549989   30.68030  0.1986E-14  0.1556E-04  0.5201E-07  0.1388E-02  0.3625E-03  0.1803E+01
   -0.599989   30.68109  0.1986E-14  0.1577E-04  0.5076E-07  0.1462E-02  0.3405E-03  0.1799E+01
   -0.649990   30.68183  0.1986E-14  0.1595E-04  0.4970E-07  0.1528E-02  0.3204E-03  0.1822E+01
   -0.699992   30.68252  0.1986E-14  0.1611E-04  0.4880E-07  0.1587E-02  0.3019E-03  0.1857E+01
   -0.749993   30.68318  0.1986E-14  0.1623E-04  0.4803E-07  0.1637E-02  0.2848E-03  0.1919E+01
   -0.799994   30.68381  0.1986E-14  0.1633E-04  0.4739E-07  0.1680E-02  0.2690E-03  0.1992E+01
   -0.849996   30.68441  0.1986E-14  0.1640E-04  0.4687E-07  0.1715E-02  0.2541E-03  0.2096E+01
   -0.899998   30.68500  0.1986E-14  0.1645E-04  0.4646E-07  0.1741E-02  0.2402E-03  0.2214E+01
   -0.949999   30.68557  0.1986E-14  0.1648E-04  0.4615E-07  0.1759E-02  0.2270E-03  0.2371E+01
   -1.000001   30.68612  0.1986E-14  0.1648E-04  0.4595E-07  0.1769E-02  0.2146E-03  0.2552E+01
   -1.050003   30.68667  0.1986E-14  0.1646E-04  0.4586E-07  0.1769E-02  0.2028E-03  0.2890E+01
   -1.100004   30.68721  0.1986E-14  0.1642E-04  0.4589E-07  0.1864E-02  0.1915E-03  0.9455E+01
   -1.150006   30.68772  0.1986E-14  0.1635E-04  0.4608E-07  0.1671E-02  0.1815E-03  0.2222E+02
   -1.200008   30.68829  0.1986E-14  0.1626E-04  0.4639E-07  0.1704E-02  0.1710E-03  0.4197E+01
   -1.250009   30.68883  0.1986E-14  0.1614E-04  0.4690E-07  0.1673E-02  0.1610E-03  0.4452E+01
   -1.300010   30.68939  0.1986E-14  0.1599E-04  0.4764E-07  0.1621E-02  0.1514E-03  0.5227E+01
   -1.350012   30.68995  0.1986E-14  0.1581E-04  0.4866E-07  0.1560E-02  0.1420E-03  0.6271E+01
   -1.400013   30.69054  0.1986E-14  0.1559E-04  0.5008E-07  0.1478E-02  0.1329E-03  0.7808E+01
   -1.450013   30.69116  0.1986E-14  0.1532E-04  0.5204E-07  0.1400E-02  0.1239E-03  0.1002E+02
   -1.500014   30.69181  0.1986E-14  0.1499E-04  0.5482E-07  0.1284E-02  0.1151E-03  0.1386E+02
   -1.550014   30.69253  0.1986E-14  0.1460E-04  0.5880E-07  0.1204E-02  0.1062E-03  0.2022E+02
   -1.600014   30.69330  0.1986E-14  0.1410E-04  0.6512E-07  0.1056E-02  0.9748E-04  0.4812E+02
   -1.650014   30.69429  0.1986E-14  0.1346E-04  0.7509E-07  0.9799E-03  0.8786E-04  0.1118E+04
   -1.700014   30.69540  0.1986E-14  0.1258E-04  0.9281E-07  0.7929E-03  0.7844E-04  0.1193E+03
   -1.750013   30.69743  0.1986E-14  0.1146E-04  0.1214E-06  0.7188E-03  0.6567E-04  0.1308E+06
   -1.800011   30.69885  0.1986E-14  0.1001E-04  0.1824E-06  0.4932E-03  0.5654E-04  0.2322E+04
   -1.850010   30.70605  0.1986E-14  0.8470E-05  0.2996E-06  0.4639E-03  0.3939E-04  0.1808E+08
   -1.900008   30.70375  0.1986E-14  0.6747E-05  0.6281E-06  0.2150E-03  0.3254E-04 -0.1476E+07
   -1.950005   30.72394  0.1986E-14  0.4750E-05  0.1548E-05  0.2005E-03  0.1732E-04 -0.2164E+06
   -2.000002   30.72534  0.1986E-14  0.0000E+00  0.0000E+00  0.0000E+00  0.3321E-04  0.0000E+00
