 1 - depth, m
 2 - temperature, C
 3 - salinity, kg/kg
 4 - turbulent kinetic energy, m**2/s**2
 5 - dissipation rate, m**2/s**3
 6 - kinematic heat conductance, m**2/s
 7 - modulus of horizontal velocity, m/s
 8 - Richardson number, n/d
   -0.000000   29.70369  0.4556E-13  0.4277E-05  0.2479E-06  0.4727E-04  0.1289E-02  0.8360E+04
   -0.049997   29.73065  0.4557E-13  0.7418E-05  0.1104E-06  0.1713E-03  0.7257E-03  0.2073E+04
   -0.099994   29.74078  0.4557E-13  0.8997E-05  0.7644E-07  0.3858E-03  0.5302E-03  0.2651E+02
   -0.149992   29.74360  0.4557E-13  0.9988E-05  0.6438E-07  0.4662E-03  0.4675E-03  0.1288E+02
   -0.199991   29.74585  0.4557E-13  0.1076E-04  0.5732E-07  0.6199E-03  0.4170E-03  0.8330E+01
   -0.249989   29.74749  0.4557E-13  0.1138E-04  0.5268E-07  0.7413E-03  0.3790E-03  0.6162E+01
   -0.299989   29.74883  0.4557E-13  0.1189E-04  0.4938E-07  0.8610E-03  0.3475E-03  0.4919E+01
   -0.349988   29.74995  0.4557E-13  0.1231E-04  0.4692E-07  0.9700E-03  0.3204E-03  0.4219E+01
   -0.399988   29.75093  0.4557E-13  0.1267E-04  0.4500E-07  0.1070E-02  0.2965E-03  0.3767E+01
   -0.449988   29.75180  0.4557E-13  0.1298E-04  0.4345E-07  0.1163E-02  0.2754E-03  0.3544E+01
   -0.499988   29.75259  0.4557E-13  0.1326E-04  0.4218E-07  0.1248E-02  0.2568E-03  0.3453E+01
   -0.549989   29.75331  0.4557E-13  0.1349E-04  0.4112E-07  0.1327E-02  0.2402E-03  0.3416E+01
   -0.599990   29.75398  0.4557E-13  0.1370E-04  0.4024E-07  0.1398E-02  0.2252E-03  0.3424E+01
   -0.649991   29.75460  0.4557E-13  0.1388E-04  0.3950E-07  0.1462E-02  0.2115E-03  0.3477E+01
   -0.699992   29.75519  0.4557E-13  0.1404E-04  0.3888E-07  0.1519E-02  0.1989E-03  0.3562E+01
   -0.749993   29.75575  0.4557E-13  0.1418E-04  0.3837E-07  0.1569E-02  0.1873E-03  0.3692E+01
   -0.799995   29.75629  0.4557E-13  0.1429E-04  0.3797E-07  0.1612E-02  0.1765E-03  0.3854E+01
   -0.849996   29.75680  0.4557E-13  0.1438E-04  0.3765E-07  0.1647E-02  0.1665E-03  0.4066E+01
   -0.899998   29.75731  0.4557E-13  0.1446E-04  0.3741E-07  0.1675E-02  0.1571E-03  0.4319E+01
   -0.950000   29.75780  0.4557E-13  0.1451E-04  0.3726E-07  0.1695E-02  0.1482E-03  0.4637E+01
   -1.000002   29.75828  0.4557E-13  0.1455E-04  0.3720E-07  0.1708E-02  0.1398E-03  0.5014E+01
   -1.050003   29.75876  0.4557E-13  0.1457E-04  0.3722E-07  0.1711E-02  0.1319E-03  0.5707E+01
   -1.100005   29.75923  0.4557E-13  0.1457E-04  0.3734E-07  0.1782E-02  0.1243E-03  0.1926E+02
   -1.150007   29.75968  0.4557E-13  0.1455E-04  0.3756E-07  0.1655E-02  0.1176E-03  0.4162E+02
   -1.200008   29.76017  0.4557E-13  0.1451E-04  0.3790E-07  0.1666E-02  0.1107E-03  0.8200E+01
   -1.250010   29.76065  0.4557E-13  0.1445E-04  0.3837E-07  0.1638E-02  0.1040E-03  0.8770E+01
   -1.300011   29.76114  0.4557E-13  0.1437E-04  0.3901E-07  0.1595E-02  0.9764E-04  0.1024E+02
   -1.350012   29.76165  0.4557E-13  0.1425E-04  0.3986E-07  0.1541E-02  0.9146E-04  0.1220E+02
   -1.400013   29.76217  0.4557E-13  0.1411E-04  0.4098E-07  0.1473E-02  0.8546E-04  0.1495E+02
   -1.450014   29.76271  0.4557E-13  0.1393E-04  0.4247E-07  0.1399E-02  0.7959E-04  0.1884E+02
   -1.500015   29.76329  0.4557E-13  0.1371E-04  0.4448E-07  0.1299E-02  0.7384E-04  0.2503E+02
   -1.550015   29.76392  0.4557E-13  0.1344E-04  0.4727E-07  0.1213E-02  0.6812E-04  0.3478E+02
   -1.600015   29.76460  0.4557E-13  0.1310E-04  0.5135E-07  0.1080E-02  0.6249E-04  0.5639E+02
   -1.650015   29.76539  0.4557E-13  0.1266E-04  0.5754E-07  0.9945E-03  0.5665E-04  0.1901E+03
   -1.700015   29.76629  0.4557E-13  0.1207E-04  0.6842E-07  0.8228E-03  0.5091E-04  0.1632E+04
   -1.750014   29.76773  0.4557E-13  0.1125E-04  0.8639E-07  0.7402E-03  0.4377E-04  0.4807E+05
   -1.800013   29.76916  0.4557E-13  0.1010E-04  0.1236E-06  0.5227E-03  0.3766E-04  0.4054E+06
   -1.850011   29.77366  0.4557E-13  0.8720E-05  0.1927E-06  0.4736E-03  0.2798E-04  0.6577E+08
   -1.900009   29.77373  0.4557E-13  0.6966E-05  0.3933E-06  0.2134E-03  0.2262E-04 -0.1821E+07
   -1.950006   29.78994  0.4557E-13  0.4769E-05  0.1019E-05  0.1644E-03  0.1257E-04 -0.6366E+06
   -2.000003   29.79340  0.4557E-13  0.0000E+00  0.0000E+00  0.0000E+00  0.2095E-04  0.0000E+00
