 1 - depth, m
 2 - temperature, C
 3 - salinity, kg/kg
 4 - turbulent kinetic energy, m**2/s**2
 5 - dissipation rate, m**2/s**3
 6 - kinematic heat conductance, m**2/s
 7 - modulus of horizontal velocity, m/s
 8 - Richardson number, n/d
   -0.000000   31.42097  0.2438E-13  0.5611E-05  0.3823E-06  0.5378E-04  0.1206E-02  0.8643E+04
   -0.049997   31.45745  0.2438E-13  0.9609E-05  0.1699E-06  0.1917E-03  0.6900E-03  0.4243E+03
   -0.099994   31.47123  0.2438E-13  0.1166E-04  0.1168E-06  0.4243E-03  0.5092E-03  0.3546E+02
   -0.149992   31.47504  0.2438E-13  0.1294E-04  0.9787E-07  0.5072E-03  0.4512E-03  0.1758E+02
   -0.199990   31.47809  0.2438E-13  0.1394E-04  0.8675E-07  0.6815E-03  0.4039E-03  0.1121E+02
   -0.249989   31.48028  0.2438E-13  0.1472E-04  0.7950E-07  0.8126E-03  0.3686E-03  0.8304E+01
   -0.299988   31.48207  0.2438E-13  0.1536E-04  0.7433E-07  0.9464E-03  0.3393E-03  0.6594E+01
   -0.349988   31.48357  0.2438E-13  0.1589E-04  0.7046E-07  0.1066E-02  0.3141E-03  0.5641E+01
   -0.399987   31.48486  0.2438E-13  0.1633E-04  0.6744E-07  0.1176E-02  0.2919E-03  0.5014E+01
   -0.449987   31.48600  0.2438E-13  0.1671E-04  0.6499E-07  0.1277E-02  0.2723E-03  0.4707E+01
   -0.499988   31.48704  0.2438E-13  0.1703E-04  0.6296E-07  0.1369E-02  0.2550E-03  0.4563E+01
   -0.549988   31.48798  0.2438E-13  0.1730E-04  0.6125E-07  0.1454E-02  0.2394E-03  0.4502E+01
   -0.599989   31.48885  0.2438E-13  0.1754E-04  0.5981E-07  0.1530E-02  0.2253E-03  0.4488E+01
   -0.649990   31.48967  0.2438E-13  0.1773E-04  0.5859E-07  0.1597E-02  0.2124E-03  0.4546E+01
   -0.699991   31.49044  0.2438E-13  0.1790E-04  0.5756E-07  0.1657E-02  0.2006E-03  0.4634E+01
   -0.749992   31.49117  0.2438E-13  0.1803E-04  0.5669E-07  0.1708E-02  0.1895E-03  0.4793E+01
   -0.799994   31.49187  0.2438E-13  0.1813E-04  0.5597E-07  0.1750E-02  0.1793E-03  0.4979E+01
   -0.849995   31.49254  0.2438E-13  0.1820E-04  0.5539E-07  0.1784E-02  0.1697E-03  0.5248E+01
   -0.899997   31.49319  0.2438E-13  0.1825E-04  0.5494E-07  0.1808E-02  0.1607E-03  0.5551E+01
   -0.949998   31.49382  0.2438E-13  0.1827E-04  0.5463E-07  0.1824E-02  0.1522E-03  0.5965E+01
   -1.000000   31.49445  0.2438E-13  0.1826E-04  0.5444E-07  0.1830E-02  0.1441E-03  0.6433E+01
   -1.050002   31.49506  0.2438E-13  0.1823E-04  0.5440E-07  0.1825E-02  0.1364E-03  0.7311E+01
   -1.100003   31.49567  0.2438E-13  0.1817E-04  0.5451E-07  0.1945E-02  0.1290E-03  0.2338E+02
   -1.150005   31.49623  0.2438E-13  0.1808E-04  0.5482E-07  0.1686E-02  0.1225E-03  0.5918E+02
   -1.200006   31.49688  0.2438E-13  0.1796E-04  0.5530E-07  0.1739E-02  0.1155E-03  0.1088E+02
   -1.250008   31.49751  0.2438E-13  0.1781E-04  0.5603E-07  0.1705E-02  0.1089E-03  0.1157E+02
   -1.300009   31.49814  0.2438E-13  0.1762E-04  0.5708E-07  0.1644E-02  0.1025E-03  0.1377E+02
   -1.350010   31.49879  0.2438E-13  0.1738E-04  0.5854E-07  0.1575E-02  0.9631E-04  0.1675E+02
   -1.400011   31.49947  0.2438E-13  0.1710E-04  0.6056E-07  0.1483E-02  0.9021E-04  0.2133E+02
   -1.450012   31.50019  0.2438E-13  0.1676E-04  0.6338E-07  0.1399E-02  0.8418E-04  0.2816E+02
   -1.500013   31.50096  0.2438E-13  0.1635E-04  0.6743E-07  0.1277E-02  0.7821E-04  0.4066E+02
   -1.550013   31.50183  0.2438E-13  0.1584E-04  0.7342E-07  0.1194E-02  0.7214E-04  0.6847E+02
   -1.600013   31.50278  0.2438E-13  0.1520E-04  0.8317E-07  0.1048E-02  0.6612E-04 -0.8341E+03
   -1.650013   31.50409  0.2438E-13  0.1435E-04  0.9860E-07  0.9587E-03  0.5925E-04  0.8202E+04
   -1.700012   31.50561  0.2438E-13  0.1317E-04  0.1275E-06  0.7752E-03  0.5229E-04  0.1540E+05
   -1.750011   31.50846  0.2438E-13  0.1183E-04  0.1711E-06  0.6976E-03  0.4287E-04  0.7426E+06
   -1.800010   31.50994  0.2438E-13  0.1017E-04  0.2699E-06  0.4714E-03  0.3696E-04  0.7761E+05
   -1.850008   31.52119  0.2438E-13  0.8582E-05  0.4561E-06  0.4568E-03  0.2453E-04  0.6295E+09
   -1.900006   31.51566  0.2438E-13  0.6869E-05  0.9675E-06  0.2154E-03  0.2065E-04 -0.5376E+06
   -1.950003   31.54296  0.2438E-13  0.4979E-05  0.2252E-05  0.2365E-03  0.1067E-04 -0.3747E+05
   -2.000000   31.54181  0.2438E-13  0.0000E+00  0.0000E+00  0.0000E+00  0.2287E-04  0.0000E+00
