 1 - depth, m
 2 - temperature, C
 3 - salinity, kg/kg
 4 - turbulent kinetic energy, m**2/s**2
 5 - dissipation rate, m**2/s**3
 6 - kinematic heat conductance, m**2/s
 7 - modulus of horizontal velocity, m/s
 8 - Richardson number, n/d
   -0.000000   30.36505  0.5636E-13  0.4660E-05  0.2835E-06  0.4847E-04  0.5515E-03  0.6396E+05
   -0.049997   30.39597  0.5636E-13  0.8228E-05  0.1258E-06  0.1825E-03  0.3096E-03  0.9155E+02
   -0.099994   30.40685  0.5636E-13  0.9944E-05  0.8737E-07  0.4117E-03  0.2265E-03  0.1496E+03
   -0.149992   30.40992  0.5636E-13  0.1102E-04  0.7390E-07  0.4884E-03  0.2007E-03  0.7350E+02
   -0.199991   30.41239  0.5636E-13  0.1185E-04  0.6591E-07  0.6502E-03  0.1796E-03  0.4815E+02
   -0.249989   30.41420  0.5636E-13  0.1251E-04  0.6063E-07  0.7751E-03  0.1637E-03  0.3586E+02
   -0.299988   30.41567  0.5636E-13  0.1306E-04  0.5685E-07  0.8986E-03  0.1504E-03  0.2873E+02
   -0.349988   30.41691  0.5636E-13  0.1351E-04  0.5401E-07  0.1011E-02  0.1390E-03  0.2464E+02
   -0.399988   30.41799  0.5636E-13  0.1389E-04  0.5179E-07  0.1113E-02  0.1289E-03  0.2203E+02
   -0.449988   30.41894  0.5636E-13  0.1421E-04  0.4999E-07  0.1208E-02  0.1200E-03  0.2070E+02
   -0.499988   30.41981  0.5636E-13  0.1450E-04  0.4850E-07  0.1295E-02  0.1121E-03  0.2019E+02
   -0.549989   30.42060  0.5636E-13  0.1474E-04  0.4725E-07  0.1374E-02  0.1050E-03  0.1992E+02
   -0.599990   30.42133  0.5636E-13  0.1495E-04  0.4620E-07  0.1446E-02  0.9859E-04  0.1998E+02
   -0.649991   30.42202  0.5636E-13  0.1513E-04  0.4531E-07  0.1510E-02  0.9275E-04  0.2023E+02
   -0.699992   30.42266  0.5636E-13  0.1529E-04  0.4457E-07  0.1567E-02  0.8737E-04  0.2074E+02
   -0.749993   30.42328  0.5636E-13  0.1541E-04  0.4395E-07  0.1617E-02  0.8240E-04  0.2143E+02
   -0.799995   30.42387  0.5636E-13  0.1552E-04  0.4344E-07  0.1658E-02  0.7778E-04  0.2239E+02
   -0.849996   30.42444  0.5636E-13  0.1560E-04  0.4303E-07  0.1692E-02  0.7346E-04  0.2355E+02
   -0.899998   30.42499  0.5636E-13  0.1566E-04  0.4272E-07  0.1718E-02  0.6940E-04  0.2505E+02
   -0.950000   30.42552  0.5636E-13  0.1570E-04  0.4251E-07  0.1735E-02  0.6557E-04  0.2683E+02
   -1.000001   30.42605  0.5636E-13  0.1571E-04  0.4240E-07  0.1745E-02  0.6195E-04  0.2907E+02
   -1.050003   30.42657  0.5636E-13  0.1571E-04  0.4239E-07  0.1744E-02  0.5851E-04  0.3297E+02
   -1.100005   30.42709  0.5636E-13  0.1568E-04  0.4250E-07  0.1836E-02  0.5523E-04  0.1089E+03
   -1.150006   30.42757  0.5636E-13  0.1564E-04  0.4274E-07  0.1651E-02  0.5232E-04  0.2516E+03
   -1.200008   30.42812  0.5636E-13  0.1556E-04  0.4310E-07  0.1681E-02  0.4927E-04  0.4809E+02
   -1.250009   30.42864  0.5636E-13  0.1547E-04  0.4364E-07  0.1650E-02  0.4636E-04  0.5147E+02
   -1.300011   30.42918  0.5636E-13  0.1534E-04  0.4438E-07  0.1599E-02  0.4356E-04  0.6043E+02
   -1.350012   30.42972  0.5636E-13  0.1518E-04  0.4540E-07  0.1539E-02  0.4084E-04  0.7268E+02
   -1.400013   30.43029  0.5636E-13  0.1499E-04  0.4676E-07  0.1460E-02  0.3819E-04  0.9026E+02
   -1.450014   30.43089  0.5636E-13  0.1475E-04  0.4861E-07  0.1382E-02  0.3559E-04  0.1156E+03
   -1.500014   30.43153  0.5636E-13  0.1446E-04  0.5118E-07  0.1267E-02  0.3303E-04  0.1584E+03
   -1.550015   30.43223  0.5636E-13  0.1410E-04  0.5481E-07  0.1186E-02  0.3045E-04  0.2266E+03
   -1.600015   30.43299  0.5636E-13  0.1366E-04  0.6038E-07  0.1036E-02  0.2794E-04  0.4365E+03
   -1.650015   30.43392  0.5636E-13  0.1309E-04  0.6898E-07  0.9675E-03  0.2522E-04  0.2734E+04
   -1.700014   30.43496  0.5636E-13  0.1229E-04  0.8471E-07  0.7772E-03  0.2260E-04  0.1424E+06
   -1.750013   30.43689  0.5636E-13  0.1123E-04  0.1106E-06  0.7094E-03  0.1898E-04  0.3502E+05
   -1.800012   30.43846  0.5636E-13  0.9802E-05  0.1662E-06  0.4829E-03  0.1625E-04  0.1783E+07
   -1.850010   30.44511  0.5636E-13  0.8224E-05  0.2689E-06  0.4496E-03  0.1136E-04  0.1758E+09
   -1.900008   30.44367  0.5636E-13  0.6483E-05  0.5595E-06  0.2054E-03  0.9217E-05  0.1597E+07
   -1.950005   30.46406  0.5636E-13  0.4576E-05  0.1400E-05  0.1929E-03  0.4842E-05 -0.1463E+07
   -2.000002   30.46568  0.5636E-13  0.0000E+00  0.0000E+00  0.0000E+00  0.9318E-05  0.0000E+00
