 1 - depth, m
 2 - temperature, C
 3 - salinity, kg/kg
 4 - turbulent kinetic energy, m**2/s**2
 5 - dissipation rate, m**2/s**3
 6 - kinematic heat conductance, m**2/s
 7 - modulus of horizontal velocity, m/s
 8 - Richardson number, n/d
   -0.000000   30.02275  0.1024E-13  0.4741E-05  0.2956E-06  0.5042E-04  0.8754E-03  0.1033E+05
   -0.049997   30.05345  0.1024E-13  0.8253E-05  0.1313E-06  0.1759E-03  0.5014E-03  0.6528E+02
   -0.099994   30.06555  0.1024E-13  0.1002E-04  0.9022E-07  0.4087E-03  0.3631E-03  0.7271E+02
   -0.149992   30.06875  0.1024E-13  0.1111E-04  0.7603E-07  0.4825E-03  0.3214E-03  0.3549E+02
   -0.199991   30.07136  0.1024E-13  0.1196E-04  0.6764E-07  0.6456E-03  0.2870E-03  0.2304E+02
   -0.249989   30.07324  0.1024E-13  0.1263E-04  0.6212E-07  0.7704E-03  0.2613E-03  0.1714E+02
   -0.299989   30.07478  0.1024E-13  0.1318E-04  0.5816E-07  0.8946E-03  0.2399E-03  0.1367E+02
   -0.349988   30.07607  0.1024E-13  0.1363E-04  0.5518E-07  0.1007E-02  0.2216E-03  0.1174E+02
   -0.399988   30.07718  0.1024E-13  0.1401E-04  0.5286E-07  0.1110E-02  0.2053E-03  0.1046E+02
   -0.449988   30.07817  0.1024E-13  0.1434E-04  0.5096E-07  0.1205E-02  0.1910E-03  0.9853E+01
   -0.499988   30.07907  0.1024E-13  0.1462E-04  0.4938E-07  0.1293E-02  0.1784E-03  0.9571E+01
   -0.549989   30.07988  0.1024E-13  0.1486E-04  0.4806E-07  0.1372E-02  0.1671E-03  0.9476E+01
   -0.599990   30.08064  0.1024E-13  0.1507E-04  0.4694E-07  0.1445E-02  0.1568E-03  0.9459E+01
   -0.649991   30.08134  0.1024E-13  0.1524E-04  0.4598E-07  0.1510E-02  0.1475E-03  0.9610E+01
   -0.699992   30.08201  0.1024E-13  0.1539E-04  0.4517E-07  0.1567E-02  0.1389E-03  0.9799E+01
   -0.749993   30.08264  0.1024E-13  0.1551E-04  0.4448E-07  0.1617E-02  0.1309E-03  0.1016E+02
   -0.799995   30.08324  0.1024E-13  0.1561E-04  0.4391E-07  0.1659E-02  0.1236E-03  0.1055E+02
   -0.849996   30.08382  0.1024E-13  0.1568E-04  0.4344E-07  0.1694E-02  0.1166E-03  0.1113E+02
   -0.899998   30.08438  0.1024E-13  0.1573E-04  0.4307E-07  0.1720E-02  0.1102E-03  0.1176E+02
   -0.950000   30.08493  0.1024E-13  0.1576E-04  0.4279E-07  0.1738E-02  0.1041E-03  0.1263E+02
   -1.000001   30.08546  0.1024E-13  0.1577E-04  0.4261E-07  0.1748E-02  0.9831E-04  0.1359E+02
   -1.050003   30.08599  0.1024E-13  0.1576E-04  0.4253E-07  0.1749E-02  0.9282E-04  0.1544E+02
   -1.100005   30.08651  0.1024E-13  0.1572E-04  0.4257E-07  0.1839E-02  0.8761E-04  0.5076E+02
   -1.150006   30.08699  0.1024E-13  0.1566E-04  0.4273E-07  0.1660E-02  0.8297E-04  0.1168E+03
   -1.200008   30.08753  0.1024E-13  0.1558E-04  0.4302E-07  0.1689E-02  0.7813E-04  0.2235E+02
   -1.250009   30.08806  0.1024E-13  0.1548E-04  0.4347E-07  0.1659E-02  0.7352E-04  0.2374E+02
   -1.300011   30.08858  0.1024E-13  0.1534E-04  0.4413E-07  0.1609E-02  0.6907E-04  0.2789E+02
   -1.350012   30.08913  0.1024E-13  0.1517E-04  0.4504E-07  0.1550E-02  0.6477E-04  0.3334E+02
   -1.400013   30.08969  0.1024E-13  0.1497E-04  0.4629E-07  0.1472E-02  0.6056E-04  0.4138E+02
   -1.450014   30.09027  0.1024E-13  0.1472E-04  0.4801E-07  0.1395E-02  0.5645E-04  0.5278E+02
   -1.500015   30.09089  0.1024E-13  0.1443E-04  0.5041E-07  0.1283E-02  0.5240E-04  0.7220E+02
   -1.550015   30.09157  0.1024E-13  0.1407E-04  0.5383E-07  0.1199E-02  0.4835E-04  0.1034E+03
   -1.600015   30.09230  0.1024E-13  0.1362E-04  0.5912E-07  0.1054E-02  0.4437E-04  0.2141E+03
   -1.650015   30.09319  0.1024E-13  0.1305E-04  0.6737E-07  0.9778E-03  0.4011E-04  0.2068E+04
   -1.700014   30.09419  0.1024E-13  0.1227E-04  0.8221E-07  0.7951E-03  0.3594E-04 -0.7919E+03
   -1.750013   30.09596  0.1024E-13  0.1123E-04  0.1068E-06  0.7161E-03  0.3041E-04  0.4501E+06
   -1.800012   30.09753  0.1024E-13  0.9844E-05  0.1578E-06  0.5006E-03  0.2598E-04  0.7504E+05
   -1.850010   30.10342  0.1024E-13  0.8300E-05  0.2537E-06  0.4557E-03  0.1851E-04  0.2007E+08
   -1.900008   30.10230  0.1024E-13  0.6532E-05  0.5337E-06  0.2092E-03  0.1502E-04 -0.3118E+06
   -1.950006   30.12090  0.1024E-13  0.4579E-05  0.1329E-05  0.1903E-03  0.8003E-05 -0.2261E+07
   -2.000003   30.12233  0.1024E-13  0.0000E+00  0.0000E+00  0.0000E+00  0.1500E-04  0.0000E+00
