 1 - depth, m
 2 - temperature, C
 3 - salinity, kg/kg
 4 - turbulent kinetic energy, m**2/s**2
 5 - dissipation rate, m**2/s**3
 6 - kinematic heat conductance, m**2/s
 7 - modulus of horizontal velocity, m/s
 8 - Richardson number, n/d
   -0.000000   30.45939  0.4474E-13  0.4610E-05  0.2820E-06  0.4928E-04  0.7302E-03  0.4655E+05
   -0.049997   30.48912  0.4474E-13  0.8078E-05  0.1251E-06  0.1763E-03  0.4156E-03  0.5704E+02
   -0.099994   30.50043  0.4474E-13  0.9796E-05  0.8627E-07  0.4073E-03  0.3008E-03  0.9687E+02
   -0.149992   30.50347  0.4474E-13  0.1086E-04  0.7283E-07  0.4816E-03  0.2663E-03  0.4740E+02
   -0.199991   30.50593  0.4474E-13  0.1169E-04  0.6487E-07  0.6429E-03  0.2379E-03  0.3090E+02
   -0.249989   30.50772  0.4474E-13  0.1234E-04  0.5962E-07  0.7670E-03  0.2166E-03  0.2304E+02
   -0.299988   30.50918  0.4474E-13  0.1288E-04  0.5586E-07  0.8900E-03  0.1988E-03  0.1837E+02
   -0.349988   30.51041  0.4474E-13  0.1332E-04  0.5304E-07  0.1002E-02  0.1836E-03  0.1580E+02
   -0.399988   30.51147  0.4474E-13  0.1370E-04  0.5083E-07  0.1104E-02  0.1701E-03  0.1406E+02
   -0.449988   30.51241  0.4474E-13  0.1402E-04  0.4903E-07  0.1198E-02  0.1583E-03  0.1327E+02
   -0.499988   30.51327  0.4474E-13  0.1430E-04  0.4754E-07  0.1285E-02  0.1478E-03  0.1287E+02
   -0.549989   30.51404  0.4474E-13  0.1454E-04  0.4630E-07  0.1365E-02  0.1384E-03  0.1277E+02
   -0.599990   30.51477  0.4474E-13  0.1475E-04  0.4524E-07  0.1437E-02  0.1299E-03  0.1271E+02
   -0.649991   30.51544  0.4474E-13  0.1492E-04  0.4435E-07  0.1501E-02  0.1221E-03  0.1295E+02
   -0.699992   30.51607  0.4474E-13  0.1508E-04  0.4360E-07  0.1559E-02  0.1150E-03  0.1317E+02
   -0.749993   30.51668  0.4474E-13  0.1520E-04  0.4297E-07  0.1608E-02  0.1084E-03  0.1369E+02
   -0.799995   30.51725  0.4474E-13  0.1530E-04  0.4245E-07  0.1651E-02  0.1023E-03  0.1417E+02
   -0.849996   30.51781  0.4474E-13  0.1538E-04  0.4203E-07  0.1685E-02  0.9654E-04  0.1499E+02
   -0.899998   30.51834  0.4474E-13  0.1544E-04  0.4170E-07  0.1712E-02  0.9117E-04  0.1578E+02
   -0.950000   30.51887  0.4474E-13  0.1548E-04  0.4147E-07  0.1730E-02  0.8611E-04  0.1700E+02
   -1.000001   30.51938  0.4474E-13  0.1550E-04  0.4133E-07  0.1741E-02  0.8133E-04  0.1821E+02
   -1.050003   30.51989  0.4474E-13  0.1549E-04  0.4129E-07  0.1742E-02  0.7678E-04  0.2075E+02
   -1.100005   30.52039  0.4474E-13  0.1547E-04  0.4136E-07  0.1828E-02  0.7246E-04  0.6834E+02
   -1.150006   30.52086  0.4474E-13  0.1542E-04  0.4155E-07  0.1661E-02  0.6860E-04  0.1547E+03
   -1.200008   30.52138  0.4474E-13  0.1536E-04  0.4187E-07  0.1686E-02  0.6459E-04  0.2987E+02
   -1.250009   30.52189  0.4474E-13  0.1526E-04  0.4235E-07  0.1656E-02  0.6077E-04  0.3162E+02
   -1.300011   30.52240  0.4474E-13  0.1514E-04  0.4302E-07  0.1607E-02  0.5708E-04  0.3714E+02
   -1.350012   30.52293  0.4474E-13  0.1499E-04  0.4394E-07  0.1549E-02  0.5352E-04  0.4414E+02
   -1.400013   30.52347  0.4474E-13  0.1481E-04  0.4518E-07  0.1474E-02  0.5004E-04  0.5464E+02
   -1.450014   30.52405  0.4474E-13  0.1458E-04  0.4686E-07  0.1397E-02  0.4663E-04  0.6911E+02
   -1.500014   30.52465  0.4474E-13  0.1430E-04  0.4920E-07  0.1286E-02  0.4329E-04  0.9378E+02
   -1.550015   30.52531  0.4474E-13  0.1397E-04  0.5249E-07  0.1204E-02  0.3993E-04  0.1321E+03
   -1.600015   30.52602  0.4474E-13  0.1355E-04  0.5752E-07  0.1058E-02  0.3665E-04  0.2471E+03
   -1.650015   30.52689  0.4474E-13  0.1302E-04  0.6529E-07  0.9820E-03  0.3313E-04  0.1228E+05
   -1.700014   30.52786  0.4474E-13  0.1228E-04  0.7920E-07  0.7968E-03  0.2972E-04 -0.2909E+04
   -1.750013   30.52955  0.4474E-13  0.1131E-04  0.1020E-06  0.7237E-03  0.2521E-04  0.4066E+07
   -1.800012   30.53097  0.4474E-13  0.9980E-05  0.1491E-06  0.5028E-03  0.2169E-04  0.4449E+05
   -1.850010   30.53668  0.4474E-13  0.8445E-05  0.2396E-06  0.4593E-03  0.1554E-04  0.1771E+08
   -1.900008   30.53584  0.4474E-13  0.6655E-05  0.4948E-06  0.2107E-03  0.1257E-04  0.1320E+07
   -1.950006   30.55392  0.4474E-13  0.4641E-05  0.1252E-05  0.1837E-03  0.6734E-05 -0.4107E+07
   -2.000003   30.55597  0.4474E-13  0.0000E+00  0.0000E+00  0.0000E+00  0.1234E-04  0.0000E+00
