 1 - depth, m
 2 - temperature, C
 3 - salinity, kg/kg
 4 - turbulent kinetic energy, m**2/s**2
 5 - dissipation rate, m**2/s**3
 6 - kinematic heat conductance, m**2/s
 7 - modulus of horizontal velocity, m/s
 8 - Richardson number, n/d
   -0.000000   29.99222  0.1098E-12  0.4728E-05  0.2824E-06  0.4968E-04  0.2170E-02  0.5553E+04
   -0.049997   30.02166  0.1098E-12  0.7941E-05  0.1256E-06  0.1736E-03  0.1230E-02  0.6077E+03
   -0.099994   30.03260  0.1098E-12  0.9570E-05  0.8640E-07  0.3834E-03  0.9068E-03  0.1031E+02
   -0.149992   30.03581  0.1098E-12  0.1059E-04  0.7235E-07  0.4654E-03  0.7993E-03  0.5017E+01
   -0.199991   30.03833  0.1098E-12  0.1139E-04  0.6409E-07  0.6183E-03  0.7130E-03  0.3220E+01
   -0.249989   30.04018  0.1098E-12  0.1202E-04  0.5864E-07  0.7400E-03  0.6481E-03  0.2364E+01
   -0.299989   30.04167  0.1098E-12  0.1253E-04  0.5474E-07  0.8598E-03  0.5941E-03  0.1874E+01
   -0.349988   30.04292  0.1098E-12  0.1295E-04  0.5180E-07  0.9688E-03  0.5478E-03  0.1597E+01
   -0.399988   30.04399  0.1098E-12  0.1330E-04  0.4951E-07  0.1068E-02  0.5069E-03  0.1421E+01
   -0.449988   30.04495  0.1098E-12  0.1360E-04  0.4763E-07  0.1161E-02  0.4709E-03  0.1336E+01
   -0.499988   30.04580  0.1098E-12  0.1386E-04  0.4606E-07  0.1247E-02  0.4391E-03  0.1304E+01
   -0.549989   30.04659  0.1098E-12  0.1409E-04  0.4473E-07  0.1326E-02  0.4105E-03  0.1288E+01
   -0.599990   30.04731  0.1098E-12  0.1428E-04  0.4360E-07  0.1398E-02  0.3847E-03  0.1286E+01
   -0.649991   30.04798  0.1098E-12  0.1444E-04  0.4264E-07  0.1463E-02  0.3612E-03  0.1296E+01
   -0.699992   30.04861  0.1098E-12  0.1457E-04  0.4181E-07  0.1520E-02  0.3396E-03  0.1319E+01
   -0.749993   30.04921  0.1098E-12  0.1468E-04  0.4111E-07  0.1570E-02  0.3198E-03  0.1354E+01
   -0.799995   30.04977  0.1098E-12  0.1477E-04  0.4052E-07  0.1612E-02  0.3014E-03  0.1405E+01
   -0.849996   30.05032  0.1098E-12  0.1483E-04  0.4002E-07  0.1647E-02  0.2842E-03  0.1472E+01
   -0.899998   30.05085  0.1098E-12  0.1488E-04  0.3961E-07  0.1674E-02  0.2682E-03  0.1556E+01
   -0.950000   30.05136  0.1098E-12  0.1490E-04  0.3930E-07  0.1694E-02  0.2531E-03  0.1660E+01
   -1.000002   30.05186  0.1098E-12  0.1491E-04  0.3907E-07  0.1706E-02  0.2388E-03  0.1785E+01
   -1.050003   30.05234  0.1098E-12  0.1489E-04  0.3894E-07  0.1709E-02  0.2253E-03  0.2016E+01
   -1.100005   30.05283  0.1098E-12  0.1486E-04  0.3890E-07  0.1786E-02  0.2124E-03  0.6723E+01
   -1.150007   30.05328  0.1098E-12  0.1481E-04  0.3897E-07  0.1643E-02  0.2009E-03  0.1483E+02
   -1.200008   30.05377  0.1098E-12  0.1473E-04  0.3916E-07  0.1661E-02  0.1890E-03  0.2868E+01
   -1.250010   30.05425  0.1098E-12  0.1463E-04  0.3949E-07  0.1633E-02  0.1777E-03  0.3034E+01
   -1.300011   30.05474  0.1098E-12  0.1451E-04  0.4000E-07  0.1589E-02  0.1668E-03  0.3526E+01
   -1.350012   30.05523  0.1098E-12  0.1436E-04  0.4071E-07  0.1534E-02  0.1563E-03  0.4181E+01
   -1.400013   30.05574  0.1098E-12  0.1417E-04  0.4171E-07  0.1463E-02  0.1460E-03  0.5110E+01
   -1.450014   30.05627  0.1098E-12  0.1396E-04  0.4309E-07  0.1389E-02  0.1360E-03  0.6426E+01
   -1.500015   30.05682  0.1098E-12  0.1369E-04  0.4501E-07  0.1285E-02  0.1262E-03  0.8555E+01
   -1.550015   30.05742  0.1098E-12  0.1338E-04  0.4774E-07  0.1201E-02  0.1164E-03  0.1190E+02
   -1.600015   30.05807  0.1098E-12  0.1299E-04  0.5186E-07  0.1062E-02  0.1068E-03  0.1982E+02
   -1.650015   30.05882  0.1098E-12  0.1250E-04  0.5823E-07  0.9848E-03  0.9673E-04  0.1508E+04
   -1.700014   30.05967  0.1098E-12  0.1183E-04  0.6979E-07  0.8065E-03  0.8692E-04 -0.3373E+04
   -1.750014   30.06110  0.1098E-12  0.1093E-04  0.8908E-07  0.7293E-03  0.7420E-04  0.4171E+05
   -1.800012   30.06246  0.1098E-12  0.9677E-05  0.1290E-06  0.5080E-03  0.6363E-04  0.7308E+04
   -1.850011   30.06704  0.1098E-12  0.8220E-05  0.2037E-06  0.4651E-03  0.4622E-04  0.3227E+07
   -1.900009   30.06668  0.1098E-12  0.6493E-05  0.4234E-06  0.2085E-03  0.3737E-04  0.1576E+07
   -1.950006   30.08222  0.1098E-12  0.4468E-05  0.1087E-05  0.1736E-03  0.2020E-04 -0.2597E+06
   -2.000003   30.08442  0.1098E-12  0.0000E+00  0.0000E+00  0.0000E+00  0.3590E-04  0.0000E+00
