 1 - depth, m
 2 - temperature, C
 3 - salinity, kg/kg
 4 - turbulent kinetic energy, m**2/s**2
 5 - dissipation rate, m**2/s**3
 6 - kinematic heat conductance, m**2/s
 7 - modulus of horizontal velocity, m/s
 8 - Richardson number, n/d
   -0.000000   30.70731  0.9173E-14  0.5087E-05  0.3129E-06  0.5162E-04  0.2214E-02  0.4216E+04
   -0.049997   30.73789  0.9173E-14  0.8547E-05  0.1386E-06  0.1856E-03  0.1233E-02  0.1636E+03
   -0.099994   30.74888  0.9173E-14  0.1028E-04  0.9608E-07  0.3963E-03  0.9262E-03  0.1044E+02
   -0.149992   30.75221  0.9173E-14  0.1139E-04  0.8047E-07  0.4844E-03  0.8181E-03  0.5189E+01
   -0.199991   30.75481  0.9173E-14  0.1226E-04  0.7136E-07  0.6430E-03  0.7320E-03  0.3334E+01
   -0.249989   30.75672  0.9173E-14  0.1295E-04  0.6541E-07  0.7692E-03  0.6672E-03  0.2455E+01
   -0.299988   30.75827  0.9173E-14  0.1351E-04  0.6117E-07  0.8932E-03  0.6132E-03  0.1958E+01
   -0.349988   30.75957  0.9173E-14  0.1398E-04  0.5800E-07  0.1004E-02  0.5669E-03  0.1682E+01
   -0.399988   30.76070  0.9173E-14  0.1438E-04  0.5552E-07  0.1107E-02  0.5256E-03  0.1536E+01
   -0.449988   30.76171  0.9173E-14  0.1473E-04  0.5348E-07  0.1207E-02  0.4888E-03  0.1474E+01
   -0.499988   30.76261  0.9173E-14  0.1504E-04  0.5178E-07  0.1301E-02  0.4556E-03  0.1458E+01
   -0.549989   30.76343  0.9173E-14  0.1531E-04  0.5036E-07  0.1388E-02  0.4256E-03  0.1442E+01
   -0.599989   30.76419  0.9173E-14  0.1554E-04  0.4916E-07  0.1467E-02  0.3985E-03  0.1445E+01
   -0.649990   30.76490  0.9173E-14  0.1573E-04  0.4815E-07  0.1537E-02  0.3738E-03  0.1447E+01
   -0.699992   30.76556  0.9173E-14  0.1590E-04  0.4731E-07  0.1599E-02  0.3512E-03  0.1466E+01
   -0.749993   30.76619  0.9173E-14  0.1604E-04  0.4662E-07  0.1651E-02  0.3305E-03  0.1484E+01
   -0.799994   30.76679  0.9173E-14  0.1615E-04  0.4605E-07  0.1694E-02  0.3116E-03  0.1526E+01
   -0.849996   30.76738  0.9173E-14  0.1623E-04  0.4561E-07  0.1729E-02  0.2941E-03  0.1576E+01
   -0.899998   30.76794  0.9173E-14  0.1629E-04  0.4527E-07  0.1754E-02  0.2778E-03  0.1661E+01
   -0.949999   30.76849  0.9173E-14  0.1633E-04  0.4505E-07  0.1771E-02  0.2626E-03  0.1763E+01
   -1.000001   30.76903  0.9173E-14  0.1635E-04  0.4492E-07  0.1781E-02  0.2483E-03  0.1908E+01
   -1.050003   30.76956  0.9173E-14  0.1634E-04  0.4491E-07  0.1780E-02  0.2347E-03  0.2154E+01
   -1.100004   30.77009  0.9173E-14  0.1631E-04  0.4502E-07  0.1875E-02  0.2217E-03  0.7112E+01
   -1.150006   30.77059  0.9173E-14  0.1626E-04  0.4527E-07  0.1683E-02  0.2102E-03  0.1655E+02
   -1.200007   30.77114  0.9173E-14  0.1619E-04  0.4566E-07  0.1715E-02  0.1981E-03  0.3139E+01
   -1.250009   30.77168  0.9173E-14  0.1608E-04  0.4623E-07  0.1684E-02  0.1865E-03  0.3354E+01
   -1.300010   30.77223  0.9173E-14  0.1595E-04  0.4702E-07  0.1632E-02  0.1754E-03  0.3929E+01
   -1.350011   30.77279  0.9173E-14  0.1578E-04  0.4810E-07  0.1570E-02  0.1646E-03  0.4733E+01
   -1.400012   30.77337  0.9173E-14  0.1558E-04  0.4956E-07  0.1490E-02  0.1541E-03  0.5872E+01
   -1.450013   30.77399  0.9173E-14  0.1533E-04  0.5155E-07  0.1411E-02  0.1437E-03  0.7557E+01
   -1.500014   30.77464  0.9173E-14  0.1503E-04  0.5432E-07  0.1295E-02  0.1335E-03  0.1038E+02
   -1.550014   30.77536  0.9173E-14  0.1465E-04  0.5826E-07  0.1213E-02  0.1232E-03  0.1512E+02
   -1.600014   30.77613  0.9173E-14  0.1419E-04  0.6438E-07  0.1066E-02  0.1132E-03  0.8159E+02
   -1.650014   30.77710  0.9173E-14  0.1358E-04  0.7391E-07  0.9866E-03  0.1022E-03  0.1973E+03
   -1.700013   30.77820  0.9173E-14  0.1275E-04  0.9084E-07  0.8017E-03  0.9151E-04 -0.3923E+04
   -1.750013   30.78020  0.9173E-14  0.1166E-04  0.1186E-06  0.7257E-03  0.7701E-04  0.3749E+05
   -1.800011   30.78175  0.9173E-14  0.1024E-04  0.1802E-06  0.5034E-03  0.6617E-04  0.2759E+06
   -1.850010   30.78873  0.9173E-14  0.8691E-05  0.2931E-06  0.4666E-03  0.4684E-04  0.2622E+08
   -1.900007   30.78700  0.9173E-14  0.6897E-05  0.6159E-06  0.2163E-03  0.3822E-04  0.5618E+04
   -1.950005   30.80738  0.9173E-14  0.4860E-05  0.1509E-05  0.1981E-03  0.2051E-04 -0.1705E+06
   -2.000002   30.80924  0.9173E-14  0.0000E+00  0.0000E+00  0.0000E+00  0.3874E-04  0.0000E+00
