 1 - depth, m
 2 - temperature, C
 3 - salinity, kg/kg
 4 - turbulent kinetic energy, m**2/s**2
 5 - dissipation rate, m**2/s**3
 6 - kinematic heat conductance, m**2/s
 7 - modulus of horizontal velocity, m/s
 8 - Richardson number, n/d
   -0.000000   30.41170  0.2964E-13  0.4767E-05  0.2934E-06  0.5022E-04  0.1644E-02  0.6798E+04
   -0.049997   30.44160  0.2964E-13  0.8129E-05  0.1309E-06  0.1745E-03  0.9404E-03  0.2482E+04
   -0.099994   30.45319  0.2964E-13  0.9857E-05  0.8994E-07  0.3939E-03  0.6875E-03  0.1830E+02
   -0.149992   30.45641  0.2964E-13  0.1094E-04  0.7542E-07  0.4737E-03  0.6068E-03  0.8924E+01
   -0.199991   30.45898  0.2964E-13  0.1177E-04  0.6691E-07  0.6329E-03  0.5414E-03  0.5722E+01
   -0.249989   30.46084  0.2964E-13  0.1244E-04  0.6132E-07  0.7569E-03  0.4925E-03  0.4219E+01
   -0.299989   30.46235  0.2964E-13  0.1298E-04  0.5732E-07  0.8801E-03  0.4518E-03  0.3349E+01
   -0.349988   30.46362  0.2964E-13  0.1342E-04  0.5432E-07  0.9919E-03  0.4170E-03  0.2863E+01
   -0.399988   30.46471  0.2964E-13  0.1380E-04  0.5197E-07  0.1094E-02  0.3862E-03  0.2545E+01
   -0.449988   30.46568  0.2964E-13  0.1412E-04  0.5006E-07  0.1189E-02  0.3591E-03  0.2392E+01
   -0.499988   30.46656  0.2964E-13  0.1439E-04  0.4847E-07  0.1276E-02  0.3351E-03  0.2322E+01
   -0.549989   30.46735  0.2964E-13  0.1463E-04  0.4714E-07  0.1356E-02  0.3137E-03  0.2293E+01
   -0.599990   30.46809  0.2964E-13  0.1483E-04  0.4601E-07  0.1429E-02  0.2943E-03  0.2288E+01
   -0.649991   30.46878  0.2964E-13  0.1501E-04  0.4504E-07  0.1494E-02  0.2767E-03  0.2318E+01
   -0.699992   30.46943  0.2964E-13  0.1515E-04  0.4422E-07  0.1552E-02  0.2604E-03  0.2362E+01
   -0.749993   30.47004  0.2964E-13  0.1527E-04  0.4352E-07  0.1602E-02  0.2454E-03  0.2442E+01
   -0.799995   30.47063  0.2964E-13  0.1537E-04  0.4294E-07  0.1645E-02  0.2315E-03  0.2534E+01
   -0.849996   30.47119  0.2964E-13  0.1544E-04  0.4245E-07  0.1680E-02  0.2185E-03  0.2666E+01
   -0.899998   30.47173  0.2964E-13  0.1549E-04  0.4207E-07  0.1707E-02  0.2063E-03  0.2814E+01
   -0.950000   30.47226  0.2964E-13  0.1552E-04  0.4178E-07  0.1727E-02  0.1948E-03  0.3011E+01
   -1.000001   30.47278  0.2964E-13  0.1553E-04  0.4158E-07  0.1738E-02  0.1840E-03  0.3236E+01
   -1.050003   30.47329  0.2964E-13  0.1552E-04  0.4148E-07  0.1740E-02  0.1737E-03  0.3664E+01
   -1.100005   30.47379  0.2964E-13  0.1549E-04  0.4148E-07  0.1823E-02  0.1639E-03  0.1214E+02
   -1.150007   30.47426  0.2964E-13  0.1543E-04  0.4161E-07  0.1663E-02  0.1551E-03  0.2720E+02
   -1.200008   30.47478  0.2964E-13  0.1535E-04  0.4186E-07  0.1686E-02  0.1461E-03  0.5244E+01
   -1.250010   30.47528  0.2964E-13  0.1525E-04  0.4227E-07  0.1657E-02  0.1374E-03  0.5554E+01
   -1.300011   30.47579  0.2964E-13  0.1512E-04  0.4287E-07  0.1610E-02  0.1291E-03  0.6484E+01
   -1.350012   30.47631  0.2964E-13  0.1496E-04  0.4371E-07  0.1553E-02  0.1210E-03  0.7707E+01
   -1.400013   30.47684  0.2964E-13  0.1477E-04  0.4486E-07  0.1478E-02  0.1132E-03  0.9487E+01
   -1.450014   30.47740  0.2964E-13  0.1454E-04  0.4644E-07  0.1402E-02  0.1055E-03  0.1199E+02
   -1.500015   30.47799  0.2964E-13  0.1426E-04  0.4866E-07  0.1293E-02  0.9791E-04  0.1617E+02
   -1.550015   30.47863  0.2964E-13  0.1392E-04  0.5180E-07  0.1209E-02  0.9035E-04  0.2274E+02
   -1.600015   30.47932  0.2964E-13  0.1350E-04  0.5663E-07  0.1067E-02  0.8294E-04  0.4232E+02
   -1.650015   30.48015  0.2964E-13  0.1296E-04  0.6407E-07  0.9886E-03  0.7503E-04  0.8858E+03
   -1.700014   30.48106  0.2964E-13  0.1223E-04  0.7753E-07  0.8090E-03  0.6739E-04  0.1775E+04
   -1.750013   30.48269  0.2964E-13  0.1125E-04  0.1000E-06  0.7286E-03  0.5721E-04  0.4182E+05
   -1.800012   30.48411  0.2964E-13  0.9918E-05  0.1478E-06  0.5092E-03  0.4905E-04  0.7456E+05
   -1.850010   30.48939  0.2964E-13  0.8415E-05  0.2358E-06  0.4626E-03  0.3537E-04  0.1866E+08
   -1.900008   30.48862  0.2964E-13  0.6619E-05  0.4939E-06  0.2102E-03  0.2864E-04  0.7505E+05
   -1.950006   30.50558  0.2964E-13  0.4611E-05  0.1241E-05  0.1843E-03  0.1536E-04 -0.3640E+06
   -2.000003   30.50752  0.2964E-13  0.0000E+00  0.0000E+00  0.0000E+00  0.2812E-04  0.0000E+00
