 1 - depth, m
 2 - temperature, C
 3 - salinity, kg/kg
 4 - turbulent kinetic energy, m**2/s**2
 5 - dissipation rate, m**2/s**3
 6 - kinematic heat conductance, m**2/s
 7 - modulus of horizontal velocity, m/s
 8 - Richardson number, n/d
   -0.000000   29.83990  0.2107E-13  0.5021E-05  0.2983E-06  0.5088E-04  0.2449E-02  0.4171E+04
   -0.049997   29.87028  0.2107E-13  0.8369E-05  0.1314E-06  0.1880E-03  0.1344E-02  0.3481E+04
   -0.099994   29.88076  0.2107E-13  0.1001E-04  0.9169E-07  0.3901E-03  0.1019E-02  0.9201E+01
   -0.149992   29.88407  0.2107E-13  0.1107E-04  0.7695E-07  0.4803E-03  0.9015E-03  0.4596E+01
   -0.199991   29.88664  0.2107E-13  0.1189E-04  0.6831E-07  0.6322E-03  0.8082E-03  0.2968E+01
   -0.249989   29.88854  0.2107E-13  0.1255E-04  0.6266E-07  0.7544E-03  0.7373E-03  0.2207E+01
   -0.299989   29.89009  0.2107E-13  0.1309E-04  0.5863E-07  0.8699E-03  0.6782E-03  0.1779E+01
   -0.349988   29.89140  0.2107E-13  0.1355E-04  0.5557E-07  0.9769E-03  0.6269E-03  0.1612E+01
   -0.399988   29.89254  0.2107E-13  0.1395E-04  0.5311E-07  0.1085E-02  0.5797E-03  0.1520E+01
   -0.449988   29.89354  0.2107E-13  0.1430E-04  0.5106E-07  0.1191E-02  0.5364E-03  0.1486E+01
   -0.499988   29.89443  0.2107E-13  0.1461E-04  0.4934E-07  0.1290E-02  0.4975E-03  0.1468E+01
   -0.549989   29.89524  0.2107E-13  0.1489E-04  0.4790E-07  0.1380E-02  0.4623E-03  0.1464E+01
   -0.599990   29.89599  0.2107E-13  0.1512E-04  0.4669E-07  0.1463E-02  0.4306E-03  0.1456E+01
   -0.649991   29.89668  0.2107E-13  0.1531E-04  0.4568E-07  0.1536E-02  0.4018E-03  0.1463E+01
   -0.699992   29.89733  0.2107E-13  0.1548E-04  0.4483E-07  0.1599E-02  0.3757E-03  0.1464E+01
   -0.749993   29.89794  0.2107E-13  0.1561E-04  0.4414E-07  0.1653E-02  0.3520E-03  0.1483E+01
   -0.799995   29.89853  0.2107E-13  0.1571E-04  0.4357E-07  0.1697E-02  0.3304E-03  0.1495E+01
   -0.849996   29.89909  0.2107E-13  0.1578E-04  0.4312E-07  0.1731E-02  0.3106E-03  0.1530E+01
   -0.899998   29.89964  0.2107E-13  0.1584E-04  0.4279E-07  0.1756E-02  0.2925E-03  0.1564E+01
   -0.950000   29.90017  0.2107E-13  0.1586E-04  0.4256E-07  0.1772E-02  0.2759E-03  0.1639E+01
   -1.000001   29.90069  0.2107E-13  0.1587E-04  0.4242E-07  0.1779E-02  0.2605E-03  0.1729E+01
   -1.050003   29.90121  0.2107E-13  0.1585E-04  0.4240E-07  0.1776E-02  0.2461E-03  0.1952E+01
   -1.100005   29.90172  0.2107E-13  0.1582E-04  0.4247E-07  0.1876E-02  0.2324E-03  0.6366E+01
   -1.150006   29.90220  0.2107E-13  0.1576E-04  0.4269E-07  0.1671E-02  0.2204E-03  0.1490E+02
   -1.200008   29.90274  0.2107E-13  0.1567E-04  0.4303E-07  0.1708E-02  0.2075E-03  0.2832E+01
   -1.250010   29.90325  0.2107E-13  0.1556E-04  0.4354E-07  0.1677E-02  0.1954E-03  0.2997E+01
   -1.300011   29.90378  0.2107E-13  0.1543E-04  0.4425E-07  0.1624E-02  0.1837E-03  0.3529E+01
   -1.350012   29.90432  0.2107E-13  0.1526E-04  0.4524E-07  0.1563E-02  0.1723E-03  0.4214E+01
   -1.400013   29.90488  0.2107E-13  0.1505E-04  0.4658E-07  0.1482E-02  0.1612E-03  0.5253E+01
   -1.450014   29.90547  0.2107E-13  0.1480E-04  0.4841E-07  0.1403E-02  0.1503E-03  0.6701E+01
   -1.500015   29.90609  0.2107E-13  0.1450E-04  0.5097E-07  0.1290E-02  0.1396E-03  0.9225E+01
   -1.550015   29.90678  0.2107E-13  0.1413E-04  0.5463E-07  0.1205E-02  0.1288E-03  0.1334E+02
   -1.600015   29.90752  0.2107E-13  0.1367E-04  0.6033E-07  0.1062E-02  0.1182E-03  0.2997E+02
   -1.650015   29.90844  0.2107E-13  0.1308E-04  0.6927E-07  0.9778E-03  0.1067E-03  0.1112E+04
   -1.700014   29.90950  0.2107E-13  0.1227E-04  0.8501E-07  0.7997E-03  0.9523E-04 -0.1450E+04
   -1.750013   29.91136  0.2107E-13  0.1122E-04  0.1107E-06  0.7157E-03  0.8013E-04 -0.3938E+05
   -1.800012   29.91281  0.2107E-13  0.9842E-05  0.1676E-06  0.4964E-03  0.6878E-04  0.2753E+05
   -1.850010   29.91947  0.2107E-13  0.8356E-05  0.2723E-06  0.4619E-03  0.4857E-04  0.9642E+07
   -1.900008   29.91756  0.2107E-13  0.6610E-05  0.5703E-06  0.2067E-03  0.3989E-04 -0.4234E+05
   -1.950006   29.93686  0.2107E-13  0.4640E-05  0.1385E-05  0.1971E-03  0.2128E-04 -0.1256E+06
   -2.000003   29.93778  0.2107E-13  0.0000E+00  0.0000E+00  0.0000E+00  0.4025E-04  0.0000E+00
