 1 - depth, m
 2 - temperature, C
 3 - salinity, kg/kg
 4 - turbulent kinetic energy, m**2/s**2
 5 - dissipation rate, m**2/s**3
 6 - kinematic heat conductance, m**2/s
 7 - modulus of horizontal velocity, m/s
 8 - Richardson number, n/d
   -0.000000   30.25284  0.8349E-14  0.5435E-05  0.3153E-06  0.5226E-04  0.3302E-02  0.7517E+03
   -0.049997   30.28463  0.8349E-14  0.8813E-05  0.1371E-06  0.2014E-03  0.1790E-02  0.3104E+03
   -0.099994   30.29442  0.8349E-14  0.1039E-04  0.9704E-07  0.3872E-03  0.1400E-02  0.4951E+01
   -0.149992   30.29791  0.8349E-14  0.1142E-04  0.8165E-07  0.4834E-03  0.1247E-02  0.2556E+01
   -0.199991   30.30059  0.8349E-14  0.1223E-04  0.7263E-07  0.6233E-03  0.1126E-02  0.1696E+01
   -0.249989   30.30260  0.8349E-14  0.1288E-04  0.6671E-07  0.7333E-03  0.1033E-02  0.1327E+01
   -0.299989   30.30426  0.8349E-14  0.1343E-04  0.6235E-07  0.8402E-03  0.9536E-03  0.1251E+01
   -0.349988   30.30567  0.8349E-14  0.1393E-04  0.5883E-07  0.9596E-03  0.8794E-03  0.1314E+01
   -0.399988   30.30687  0.8349E-14  0.1439E-04  0.5589E-07  0.1088E-02  0.8071E-03  0.1339E+01
   -0.449988   30.30790  0.8349E-14  0.1480E-04  0.5339E-07  0.1213E-02  0.7400E-03  0.1350E+01
   -0.499988   30.30880  0.8349E-14  0.1516E-04  0.5130E-07  0.1331E-02  0.6794E-03  0.1357E+01
   -0.549989   30.30961  0.8349E-14  0.1546E-04  0.4954E-07  0.1438E-02  0.6249E-03  0.1353E+01
   -0.599990   30.31035  0.8349E-14  0.1572E-04  0.4806E-07  0.1535E-02  0.5759E-03  0.1345E+01
   -0.649991   30.31102  0.8349E-14  0.1593E-04  0.4683E-07  0.1621E-02  0.5319E-03  0.1332E+01
   -0.699992   30.31165  0.8349E-14  0.1609E-04  0.4580E-07  0.1693E-02  0.4922E-03  0.1314E+01
   -0.749993   30.31224  0.8349E-14  0.1621E-04  0.4496E-07  0.1752E-02  0.4565E-03  0.1292E+01
   -0.799995   30.31280  0.8349E-14  0.1630E-04  0.4428E-07  0.1798E-02  0.4244E-03  0.1268E+01
   -0.849996   30.31334  0.8349E-14  0.1635E-04  0.4375E-07  0.1831E-02  0.3954E-03  0.1238E+01
   -0.899998   30.31386  0.8349E-14  0.1637E-04  0.4335E-07  0.1852E-02  0.3694E-03  0.1207E+01
   -0.950000   30.31436  0.8349E-14  0.1636E-04  0.4308E-07  0.1860E-02  0.3460E-03  0.1172E+01
   -1.000001   30.31486  0.8349E-14  0.1632E-04  0.4293E-07  0.1859E-02  0.3249E-03  0.1146E+01
   -1.050003   30.31535  0.8349E-14  0.1627E-04  0.4289E-07  0.1845E-02  0.3059E-03  0.1167E+01
   -1.100005   30.31584  0.8349E-14  0.1620E-04  0.4295E-07  0.1984E-02  0.2886E-03  0.3424E+01
   -1.150007   30.31628  0.8349E-14  0.1610E-04  0.4316E-07  0.1684E-02  0.2743E-03  0.8643E+01
   -1.200008   30.31680  0.8349E-14  0.1598E-04  0.4348E-07  0.1754E-02  0.2585E-03  0.1570E+01
   -1.250010   30.31729  0.8349E-14  0.1583E-04  0.4399E-07  0.1719E-02  0.2438E-03  0.1658E+01
   -1.300011   30.31779  0.8349E-14  0.1565E-04  0.4471E-07  0.1658E-02  0.2295E-03  0.1943E+01
   -1.350012   30.31830  0.8349E-14  0.1543E-04  0.4572E-07  0.1589E-02  0.2156E-03  0.2340E+01
   -1.400013   30.31883  0.8349E-14  0.1518E-04  0.4712E-07  0.1499E-02  0.2021E-03  0.2915E+01
   -1.450014   30.31938  0.8349E-14  0.1489E-04  0.4906E-07  0.1413E-02  0.1886E-03  0.3767E+01
   -1.500015   30.31997  0.8349E-14  0.1453E-04  0.5181E-07  0.1290E-02  0.1754E-03  0.5219E+01
   -1.550015   30.32061  0.8349E-14  0.1411E-04  0.5582E-07  0.1204E-02  0.1619E-03  0.7838E+01
   -1.600015   30.32131  0.8349E-14  0.1358E-04  0.6215E-07  0.1055E-02  0.1486E-03  0.2067E+02
   -1.650015   30.32219  0.8349E-14  0.1290E-04  0.7230E-07  0.9725E-03  0.1341E-03  0.3371E+03
   -1.700014   30.32326  0.8349E-14  0.1197E-04  0.9015E-07  0.7872E-03  0.1191E-03 -0.8960E+03
   -1.750013   30.32509  0.8349E-14  0.1081E-04  0.1187E-06  0.7048E-03  0.9936E-04  0.1437E+05
   -1.800012   30.32639  0.8349E-14  0.9285E-05  0.1824E-06  0.4711E-03  0.8518E-04  0.4802E+04
   -1.850011   30.33335  0.8349E-14  0.7740E-05  0.3009E-06  0.4523E-03  0.5779E-04  0.3191E+07
   -1.900008   30.33080  0.8349E-14  0.6096E-05  0.6295E-06  0.2078E-03  0.4789E-04 -0.9191E+04
   -1.950006   30.34954  0.8349E-14  0.4314E-05  0.1524E-05  0.2099E-03  0.2472E-04 -0.1275E+06
   -2.000003   30.34858  0.8349E-14  0.0000E+00  0.0000E+00  0.0000E+00  0.5110E-04  0.0000E+00
