 1 - depth, m
 2 - temperature, C
 3 - salinity, kg/kg
 4 - turbulent kinetic energy, m**2/s**2
 5 - dissipation rate, m**2/s**3
 6 - kinematic heat conductance, m**2/s
 7 - modulus of horizontal velocity, m/s
 8 - Richardson number, n/d
   -0.000000   31.58111  0.2439E-13  0.5399E-05  0.3508E-06  0.5103E-04  0.4406E-03  0.1763E+06
   -0.049997   31.61818  0.2439E-13  0.9504E-05  0.1564E-06  0.2002E-03  0.2463E-03  0.2509E+05
   -0.099994   31.62974  0.2439E-13  0.1142E-04  0.1092E-06  0.4304E-03  0.1834E-03  0.2550E+03
   -0.149992   31.63335  0.2439E-13  0.1265E-04  0.9212E-07  0.5119E-03  0.1628E-03  0.1279E+03
   -0.199990   31.63622  0.2439E-13  0.1360E-04  0.8201E-07  0.6835E-03  0.1459E-03  0.8375E+02
   -0.249989   31.63831  0.2439E-13  0.1434E-04  0.7532E-07  0.8143E-03  0.1333E-03  0.6244E+02
   -0.299988   31.64001  0.2439E-13  0.1495E-04  0.7052E-07  0.9445E-03  0.1227E-03  0.4991E+02
   -0.349988   31.64144  0.2439E-13  0.1545E-04  0.6690E-07  0.1062E-02  0.1137E-03  0.4272E+02
   -0.399987   31.64268  0.2439E-13  0.1587E-04  0.6406E-07  0.1169E-02  0.1056E-03  0.3808E+02
   -0.449987   31.64378  0.2439E-13  0.1623E-04  0.6175E-07  0.1268E-02  0.9854E-04  0.3573E+02
   -0.499988   31.64477  0.2439E-13  0.1653E-04  0.5982E-07  0.1359E-02  0.9225E-04  0.3473E+02
   -0.549988   31.64567  0.2439E-13  0.1679E-04  0.5820E-07  0.1441E-02  0.8660E-04  0.3422E+02
   -0.599989   31.64651  0.2439E-13  0.1701E-04  0.5682E-07  0.1516E-02  0.8148E-04  0.3419E+02
   -0.649990   31.64729  0.2439E-13  0.1719E-04  0.5565E-07  0.1582E-02  0.7680E-04  0.3456E+02
   -0.699991   31.64802  0.2439E-13  0.1734E-04  0.5465E-07  0.1640E-02  0.7249E-04  0.3530E+02
   -0.749993   31.64872  0.2439E-13  0.1746E-04  0.5381E-07  0.1689E-02  0.6850E-04  0.3640E+02
   -0.799994   31.64939  0.2439E-13  0.1755E-04  0.5310E-07  0.1731E-02  0.6478E-04  0.3789E+02
   -0.849995   31.65003  0.2439E-13  0.1762E-04  0.5253E-07  0.1763E-02  0.6129E-04  0.3979E+02
   -0.899997   31.65065  0.2439E-13  0.1766E-04  0.5208E-07  0.1788E-02  0.5801E-04  0.4218E+02
   -0.949999   31.65126  0.2439E-13  0.1767E-04  0.5175E-07  0.1803E-02  0.5492E-04  0.4514E+02
   -1.000000   31.65185  0.2439E-13  0.1766E-04  0.5154E-07  0.1809E-02  0.5198E-04  0.4880E+02
   -1.050002   31.65244  0.2439E-13  0.1762E-04  0.5147E-07  0.1803E-02  0.4919E-04  0.5522E+02
   -1.100004   31.65302  0.2439E-13  0.1756E-04  0.5154E-07  0.1921E-02  0.4651E-04  0.1765E+03
   -1.150005   31.65355  0.2439E-13  0.1747E-04  0.5179E-07  0.1668E-02  0.4416E-04  0.4513E+03
   -1.200007   31.65417  0.2439E-13  0.1735E-04  0.5221E-07  0.1720E-02  0.4162E-04  0.8218E+02
   -1.250008   31.65476  0.2439E-13  0.1719E-04  0.5286E-07  0.1686E-02  0.3922E-04  0.8745E+02
   -1.300010   31.65536  0.2439E-13  0.1701E-04  0.5380E-07  0.1625E-02  0.3691E-04  0.1037E+03
   -1.350011   31.65597  0.2439E-13  0.1678E-04  0.5511E-07  0.1559E-02  0.3466E-04  0.1263E+03
   -1.400012   31.65661  0.2439E-13  0.1650E-04  0.5695E-07  0.1465E-02  0.3246E-04  0.1608E+03
   -1.450013   31.65729  0.2439E-13  0.1617E-04  0.5952E-07  0.1387E-02  0.3027E-04  0.2117E+03
   -1.500013   31.65801  0.2439E-13  0.1577E-04  0.6322E-07  0.1259E-02  0.2813E-04  0.3075E+03
   -1.550013   31.65883  0.2439E-13  0.1528E-04  0.6864E-07  0.1187E-02  0.2593E-04  0.4866E+03
   -1.600013   31.65971  0.2439E-13  0.1467E-04  0.7766E-07  0.1029E-02  0.2378E-04  0.8691E+03
   -1.650013   31.66095  0.2439E-13  0.1385E-04  0.9172E-07  0.9558E-03  0.2129E-04  0.4530E+05
   -1.700013   31.66228  0.2439E-13  0.1274E-04  0.1168E-06  0.7619E-03  0.1888E-04  0.1104E+06
   -1.750012   31.66500  0.2439E-13  0.1141E-04  0.1573E-06  0.6982E-03  0.1543E-04  0.1632E+08
   -1.800010   31.66632  0.2439E-13  0.9816E-05  0.2499E-06  0.4690E-03  0.1333E-04  0.1868E+06
   -1.850009   31.67663  0.2439E-13  0.8249E-05  0.4212E-06  0.4550E-03  0.8864E-05  0.6717E+09
   -1.900007   31.67140  0.2439E-13  0.6610E-05  0.8811E-06  0.2191E-03  0.7486E-05  0.8367E+07
   -1.950004   31.69599  0.2439E-13  0.4753E-05  0.2087E-05  0.2294E-03  0.3895E-05 -0.2635E+07
   -2.000001   31.69645  0.2439E-13  0.0000E+00  0.0000E+00  0.0000E+00  0.8247E-05  0.0000E+00
