 1 - depth, m
 2 - temperature, C
 3 - salinity, kg/kg
 4 - turbulent kinetic energy, m**2/s**2
 5 - dissipation rate, m**2/s**3
 6 - kinematic heat conductance, m**2/s
 7 - modulus of horizontal velocity, m/s
 8 - Richardson number, n/d
   -0.000000   30.81473  0.2057E-14  0.5446E-05  0.3333E-06  0.5324E-04  0.2798E-02  0.1038E+04
   -0.049997   30.84683  0.2057E-14  0.8971E-05  0.1462E-06  0.1953E-03  0.1538E-02  0.2569E+02
   -0.099994   30.85772  0.2057E-14  0.1069E-04  0.1021E-06  0.3971E-03  0.1180E-02  0.7327E+01
   -0.149992   30.86125  0.2057E-14  0.1180E-04  0.8564E-07  0.4889E-03  0.1047E-02  0.3699E+01
   -0.199991   30.86399  0.2057E-14  0.1267E-04  0.7601E-07  0.6409E-03  0.9421E-03  0.2399E+01
   -0.249989   30.86601  0.2057E-14  0.1336E-04  0.6970E-07  0.7607E-03  0.8620E-03  0.1814E+01
   -0.299988   30.86767  0.2057E-14  0.1394E-04  0.6514E-07  0.8785E-03  0.7943E-03  0.1532E+01
   -0.349988   30.86907  0.2057E-14  0.1444E-04  0.6160E-07  0.9950E-03  0.7333E-03  0.1435E+01
   -0.399988   30.87028  0.2057E-14  0.1488E-04  0.5873E-07  0.1112E-02  0.6762E-03  0.1375E+01
   -0.449988   30.87133  0.2057E-14  0.1527E-04  0.5634E-07  0.1226E-02  0.6238E-03  0.1354E+01
   -0.499988   30.87226  0.2057E-14  0.1561E-04  0.5434E-07  0.1333E-02  0.5767E-03  0.1344E+01
   -0.549989   30.87311  0.2057E-14  0.1590E-04  0.5266E-07  0.1431E-02  0.5342E-03  0.1339E+01
   -0.599989   30.87388  0.2057E-14  0.1615E-04  0.5126E-07  0.1519E-02  0.4960E-03  0.1332E+01
   -0.649990   30.87459  0.2057E-14  0.1636E-04  0.5007E-07  0.1598E-02  0.4614E-03  0.1332E+01
   -0.699992   30.87526  0.2057E-14  0.1653E-04  0.4909E-07  0.1665E-02  0.4302E-03  0.1327E+01
   -0.749993   30.87589  0.2057E-14  0.1666E-04  0.4828E-07  0.1721E-02  0.4018E-03  0.1332E+01
   -0.799994   30.87649  0.2057E-14  0.1675E-04  0.4762E-07  0.1766E-02  0.3760E-03  0.1335E+01
   -0.849996   30.87707  0.2057E-14  0.1682E-04  0.4710E-07  0.1800E-02  0.3525E-03  0.1350E+01
   -0.899998   30.87763  0.2057E-14  0.1686E-04  0.4670E-07  0.1823E-02  0.3312E-03  0.1366E+01
   -0.949999   30.87818  0.2057E-14  0.1687E-04  0.4643E-07  0.1835E-02  0.3116E-03  0.1407E+01
   -1.000001   30.87871  0.2057E-14  0.1686E-04  0.4628E-07  0.1839E-02  0.2937E-03  0.1459E+01
   -1.050003   30.87924  0.2057E-14  0.1682E-04  0.4624E-07  0.1830E-02  0.2770E-03  0.1601E+01
   -1.100004   30.87977  0.2057E-14  0.1676E-04  0.4632E-07  0.1953E-02  0.2616E-03  0.4986E+01
   -1.150006   30.88025  0.2057E-14  0.1668E-04  0.4655E-07  0.1691E-02  0.2485E-03  0.1223E+02
   -1.200008   30.88081  0.2057E-14  0.1657E-04  0.4692E-07  0.1747E-02  0.2342E-03  0.2275E+01
   -1.250009   30.88134  0.2057E-14  0.1643E-04  0.4749E-07  0.1713E-02  0.2208E-03  0.2403E+01
   -1.300011   30.88188  0.2057E-14  0.1626E-04  0.4829E-07  0.1655E-02  0.2078E-03  0.2838E+01
   -1.350012   30.88244  0.2057E-14  0.1606E-04  0.4941E-07  0.1587E-02  0.1952E-03  0.3409E+01
   -1.400013   30.88301  0.2057E-14  0.1581E-04  0.5093E-07  0.1501E-02  0.1829E-03  0.4274E+01
   -1.450014   30.88362  0.2057E-14  0.1552E-04  0.5305E-07  0.1413E-02  0.1707E-03  0.5521E+01
   -1.500014   30.88426  0.2057E-14  0.1517E-04  0.5603E-07  0.1296E-02  0.1587E-03  0.7689E+01
   -1.550014   30.88497  0.2057E-14  0.1474E-04  0.6036E-07  0.1204E-02  0.1466E-03  0.1153E+02
   -1.600015   30.88574  0.2057E-14  0.1421E-04  0.6715E-07  0.1061E-02  0.1345E-03  0.6799E+02
   -1.650014   30.88671  0.2057E-14  0.1352E-04  0.7801E-07  0.9704E-03  0.1214E-03  0.1740E+04
   -1.700014   30.88789  0.2057E-14  0.1257E-04  0.9701E-07  0.7955E-03  0.1079E-03 -0.2835E+04
   -1.750013   30.88987  0.2057E-14  0.1139E-04  0.1276E-06  0.7047E-03  0.9059E-04  0.4822E+05
   -1.800012   30.89146  0.2057E-14  0.9812E-05  0.1966E-06  0.4785E-03  0.7732E-04  0.2013E+05
   -1.850010   30.89909  0.2057E-14  0.8213E-05  0.3228E-06  0.4487E-03  0.5315E-04  0.8532E+07
   -1.900008   30.89641  0.2057E-14  0.6467E-05  0.6728E-06  0.2092E-03  0.4368E-04 -0.5483E+08
   -1.950005   30.91769  0.2057E-14  0.4601E-05  0.1629E-05  0.2107E-03  0.2267E-04 -0.1354E+06
   -2.000002   30.91693  0.2057E-14  0.0000E+00  0.0000E+00  0.0000E+00  0.4617E-04  0.0000E+00
