 1 - depth, m
 2 - temperature, C
 3 - salinity, kg/kg
 4 - turbulent kinetic energy, m**2/s**2
 5 - dissipation rate, m**2/s**3
 6 - kinematic heat conductance, m**2/s
 7 - modulus of horizontal velocity, m/s
 8 - Richardson number, n/d
   -0.000000   30.56227  0.8479E-14  0.4569E-05  0.2782E-06  0.4877E-04  0.5890E-03  0.7700E+05
   -0.049997   30.59137  0.8479E-14  0.8077E-05  0.1231E-06  0.1794E-03  0.3321E-03  0.6169E+02
   -0.099994   30.60219  0.8479E-14  0.9796E-05  0.8519E-07  0.4131E-03  0.2411E-03  0.1250E+03
   -0.149992   30.60510  0.8479E-14  0.1087E-04  0.7206E-07  0.4880E-03  0.2137E-03  0.6137E+02
   -0.199991   30.60746  0.8479E-14  0.1170E-04  0.6430E-07  0.6518E-03  0.1910E-03  0.4011E+02
   -0.249989   30.60918  0.8479E-14  0.1238E-04  0.5921E-07  0.7773E-03  0.1740E-03  0.2992E+02
   -0.299988   30.61059  0.8479E-14  0.1293E-04  0.5558E-07  0.9022E-03  0.1599E-03  0.2399E+02
   -0.349988   30.61178  0.8479E-14  0.1339E-04  0.5287E-07  0.1015E-02  0.1477E-03  0.2064E+02
   -0.399988   30.61281  0.8479E-14  0.1378E-04  0.5077E-07  0.1119E-02  0.1370E-03  0.1846E+02
   -0.449988   30.61373  0.8479E-14  0.1412E-04  0.4907E-07  0.1215E-02  0.1275E-03  0.1738E+02
   -0.499988   30.61457  0.8479E-14  0.1442E-04  0.4768E-07  0.1303E-02  0.1191E-03  0.1693E+02
   -0.549989   30.61533  0.8479E-14  0.1468E-04  0.4653E-07  0.1384E-02  0.1116E-03  0.1675E+02
   -0.599989   30.61604  0.8479E-14  0.1490E-04  0.4557E-07  0.1457E-02  0.1048E-03  0.1678E+02
   -0.649990   30.61670  0.8479E-14  0.1510E-04  0.4477E-07  0.1523E-02  0.9862E-04  0.1705E+02
   -0.699992   30.61733  0.8479E-14  0.1527E-04  0.4412E-07  0.1581E-02  0.9292E-04  0.1747E+02
   -0.749993   30.61793  0.8479E-14  0.1542E-04  0.4358E-07  0.1632E-02  0.8764E-04  0.1812E+02
   -0.799994   30.61850  0.8479E-14  0.1555E-04  0.4316E-07  0.1675E-02  0.8274E-04  0.1893E+02
   -0.849996   30.61905  0.8480E-14  0.1565E-04  0.4284E-07  0.1710E-02  0.7815E-04  0.1999E+02
   -0.899998   30.61959  0.8480E-14  0.1573E-04  0.4262E-07  0.1737E-02  0.7385E-04  0.2126E+02
   -0.949999   30.62012  0.8480E-14  0.1579E-04  0.4250E-07  0.1756E-02  0.6979E-04  0.2287E+02
   -1.000001   30.62064  0.8480E-14  0.1583E-04  0.4247E-07  0.1767E-02  0.6595E-04  0.2477E+02
   -1.050003   30.62116  0.8480E-14  0.1585E-04  0.4255E-07  0.1768E-02  0.6230E-04  0.2824E+02
   -1.100005   30.62167  0.8480E-14  0.1585E-04  0.4274E-07  0.1852E-02  0.5882E-04  0.9408E+02
   -1.150006   30.62216  0.8480E-14  0.1583E-04  0.4307E-07  0.1689E-02  0.5572E-04  0.2117E+03
   -1.200008   30.62270  0.8480E-14  0.1578E-04  0.4352E-07  0.1711E-02  0.5250E-04  0.4115E+02
   -1.250009   30.62322  0.8480E-14  0.1571E-04  0.4414E-07  0.1681E-02  0.4942E-04  0.4416E+02
   -1.300011   30.62376  0.8480E-14  0.1561E-04  0.4498E-07  0.1632E-02  0.4645E-04  0.5194E+02
   -1.350012   30.62432  0.8480E-14  0.1548E-04  0.4607E-07  0.1573E-02  0.4358E-04  0.6238E+02
   -1.400013   30.62489  0.8480E-14  0.1531E-04  0.4751E-07  0.1497E-02  0.4077E-04  0.7739E+02
   -1.450014   30.62550  0.8480E-14  0.1511E-04  0.4943E-07  0.1419E-02  0.3802E-04  0.9896E+02
   -1.500014   30.62615  0.8480E-14  0.1485E-04  0.5204E-07  0.1310E-02  0.3531E-04  0.1347E+03
   -1.550014   30.62686  0.8480E-14  0.1453E-04  0.5568E-07  0.1222E-02  0.3260E-04  0.1932E+03
   -1.600015   30.62764  0.8480E-14  0.1412E-04  0.6113E-07  0.1082E-02  0.2993E-04  0.6379E+03
   -1.650014   30.62857  0.8480E-14  0.1359E-04  0.6949E-07  0.9955E-03  0.2710E-04  0.1865E+05
   -1.700014   30.62965  0.8480E-14  0.1287E-04  0.8426E-07  0.8181E-03  0.2430E-04  0.2133E+06
   -1.750013   30.63147  0.8480E-14  0.1190E-04  0.1083E-06  0.7352E-03  0.2071E-04  0.3014E+06
   -1.800012   30.63310  0.8480E-14  0.1057E-04  0.1587E-06  0.5152E-03  0.1780E-04  0.1177E+07
   -1.850010   30.63926  0.8480E-14  0.9060E-05  0.2543E-06  0.4731E-03  0.1296E-04  0.1579E+09
   -1.900008   30.63857  0.8480E-14  0.7225E-05  0.5320E-06  0.2172E-03  0.1049E-04 -0.3492E+10
   -1.950005   30.65856  0.8480E-14  0.5042E-05  0.1336E-05  0.1828E-03  0.5767E-05 -0.7130E+07
   -2.000002   30.66173  0.8480E-14  0.0000E+00  0.0000E+00  0.0000E+00  0.1011E-04  0.0000E+00
