 1 - depth, m
 2 - temperature, C
 3 - salinity, kg/kg
 4 - turbulent kinetic energy, m**2/s**2
 5 - dissipation rate, m**2/s**3
 6 - kinematic heat conductance, m**2/s
 7 - modulus of horizontal velocity, m/s
 8 - Richardson number, n/d
   -0.000000   30.17957  0.4107E-14  0.4530E-05  0.2740E-06  0.4863E-04  0.8784E-03  0.1183E+05
   -0.049997   30.20854  0.4107E-14  0.7922E-05  0.1216E-06  0.1765E-03  0.4959E-03  0.4700E+02
   -0.099994   30.21955  0.4107E-14  0.9615E-05  0.8407E-07  0.4017E-03  0.3617E-03  0.6355E+02
   -0.149992   30.22253  0.4107E-14  0.1067E-04  0.7092E-07  0.4797E-03  0.3199E-03  0.3099E+02
   -0.199991   30.22493  0.4107E-14  0.1149E-04  0.6318E-07  0.6397E-03  0.2857E-03  0.2012E+02
   -0.249989   30.22668  0.4107E-14  0.1215E-04  0.5809E-07  0.7636E-03  0.2601E-03  0.1491E+02
   -0.299989   30.22810  0.4107E-14  0.1269E-04  0.5447E-07  0.8867E-03  0.2388E-03  0.1192E+02
   -0.349988   30.22930  0.4107E-14  0.1313E-04  0.5175E-07  0.9983E-03  0.2205E-03  0.1020E+02
   -0.399988   30.23035  0.4107E-14  0.1351E-04  0.4964E-07  0.1100E-02  0.2044E-03  0.9126E+01
   -0.449988   30.23128  0.4107E-14  0.1384E-04  0.4793E-07  0.1195E-02  0.1901E-03  0.8560E+01
   -0.499988   30.23211  0.4107E-14  0.1412E-04  0.4652E-07  0.1282E-02  0.1775E-03  0.8356E+01
   -0.549989   30.23288  0.4107E-14  0.1437E-04  0.4535E-07  0.1362E-02  0.1662E-03  0.8233E+01
   -0.599990   30.23359  0.4107E-14  0.1459E-04  0.4436E-07  0.1434E-02  0.1560E-03  0.8268E+01
   -0.649991   30.23426  0.4107E-14  0.1477E-04  0.4353E-07  0.1499E-02  0.1467E-03  0.8357E+01
   -0.699992   30.23489  0.4107E-14  0.1493E-04  0.4284E-07  0.1556E-02  0.1381E-03  0.8581E+01
   -0.749993   30.23548  0.4107E-14  0.1507E-04  0.4227E-07  0.1606E-02  0.1302E-03  0.8848E+01
   -0.799995   30.23606  0.4107E-14  0.1518E-04  0.4180E-07  0.1649E-02  0.1229E-03  0.9257E+01
   -0.849996   30.23661  0.4107E-14  0.1527E-04  0.4144E-07  0.1683E-02  0.1160E-03  0.9718E+01
   -0.899998   30.23714  0.4107E-14  0.1533E-04  0.4117E-07  0.1710E-02  0.1096E-03  0.1035E+02
   -0.950000   30.23767  0.4107E-14  0.1538E-04  0.4099E-07  0.1729E-02  0.1035E-03  0.1106E+02
   -1.000001   30.23818  0.4107E-14  0.1541E-04  0.4090E-07  0.1739E-02  0.9776E-04  0.1199E+02
   -1.050003   30.23869  0.4107E-14  0.1542E-04  0.4091E-07  0.1741E-02  0.9231E-04  0.1357E+02
   -1.100005   30.23919  0.4107E-14  0.1540E-04  0.4103E-07  0.1824E-02  0.8711E-04  0.4524E+02
   -1.150006   30.23967  0.4107E-14  0.1537E-04  0.4128E-07  0.1661E-02  0.8247E-04  0.1020E+03
   -1.200008   30.24019  0.4107E-14  0.1531E-04  0.4164E-07  0.1685E-02  0.7767E-04  0.1964E+02
   -1.250010   30.24071  0.4107E-14  0.1523E-04  0.4217E-07  0.1654E-02  0.7308E-04  0.2104E+02
   -1.300011   30.24123  0.4107E-14  0.1512E-04  0.4289E-07  0.1606E-02  0.6866E-04  0.2457E+02
   -1.350012   30.24176  0.4107E-14  0.1498E-04  0.4386E-07  0.1547E-02  0.6437E-04  0.2950E+02
   -1.400013   30.24232  0.4107E-14  0.1480E-04  0.4515E-07  0.1472E-02  0.6020E-04  0.3631E+02
   -1.450014   30.24290  0.4107E-14  0.1459E-04  0.4688E-07  0.1395E-02  0.5610E-04  0.4639E+02
   -1.500015   30.24352  0.4107E-14  0.1432E-04  0.4925E-07  0.1285E-02  0.5208E-04  0.6255E+02
   -1.550015   30.24420  0.4107E-14  0.1400E-04  0.5258E-07  0.1199E-02  0.4805E-04  0.8885E+02
   -1.600015   30.24493  0.4107E-14  0.1359E-04  0.5758E-07  0.1057E-02  0.4410E-04  0.1552E+03
   -1.650015   30.24581  0.4107E-14  0.1307E-04  0.6527E-07  0.9776E-03  0.3991E-04  0.4980E+05
   -1.700014   30.24680  0.4107E-14  0.1235E-04  0.7910E-07  0.7979E-03  0.3582E-04 -0.3755E+05
   -1.750013   30.24853  0.4107E-14  0.1138E-04  0.1019E-06  0.7194E-03  0.3047E-04  0.1113E+06
   -1.800012   30.25011  0.4107E-14  0.1004E-04  0.1497E-06  0.5013E-03  0.2611E-04  0.2366E+06
   -1.850010   30.25592  0.4107E-14  0.8493E-05  0.2389E-06  0.4564E-03  0.1879E-04  0.4418E+08
   -1.900008   30.25525  0.4107E-14  0.6697E-05  0.4953E-06  0.2068E-03  0.1512E-04 -0.5103E+06
   -1.950006   30.27420  0.4107E-14  0.4674E-05  0.1254E-05  0.1826E-03  0.8108E-05 -0.1826E+07
   -2.000003   30.27594  0.4107E-14  0.0000E+00  0.0000E+00  0.0000E+00  0.1474E-04  0.0000E+00
