 1 - depth, m
 2 - temperature, C
 3 - salinity, kg/kg
 4 - turbulent kinetic energy, m**2/s**2
 5 - dissipation rate, m**2/s**3
 6 - kinematic heat conductance, m**2/s
 7 - modulus of horizontal velocity, m/s
 8 - Richardson number, n/d
   -0.000000   30.45063  0.3580E-13  0.4428E-05  0.2610E-06  0.4675E-04  0.4699E-03  0.1075E+06
   -0.049997   30.47957  0.3580E-13  0.7890E-05  0.1156E-06  0.1826E-03  0.2604E-03  0.1179E+03
   -0.099994   30.48941  0.3580E-13  0.9530E-05  0.8067E-07  0.4094E-03  0.1906E-03  0.1963E+03
   -0.149992   30.49221  0.3580E-13  0.1056E-04  0.6839E-07  0.4872E-03  0.1688E-03  0.9682E+02
   -0.199991   30.49447  0.3580E-13  0.1137E-04  0.6111E-07  0.6471E-03  0.1510E-03  0.6380E+02
   -0.249989   30.49612  0.3580E-13  0.1202E-04  0.5632E-07  0.7715E-03  0.1376E-03  0.4772E+02
   -0.299988   30.49748  0.3580E-13  0.1255E-04  0.5290E-07  0.8941E-03  0.1264E-03  0.3839E+02
   -0.349988   30.49862  0.3580E-13  0.1299E-04  0.5034E-07  0.1006E-02  0.1167E-03  0.3307E+02
   -0.399988   30.49962  0.3580E-13  0.1337E-04  0.4836E-07  0.1108E-02  0.1082E-03  0.2963E+02
   -0.449988   30.50051  0.3580E-13  0.1370E-04  0.4675E-07  0.1202E-02  0.1007E-03  0.2792E+02
   -0.499988   30.50131  0.3580E-13  0.1399E-04  0.4544E-07  0.1289E-02  0.9403E-04  0.2724E+02
   -0.549989   30.50205  0.3580E-13  0.1424E-04  0.4435E-07  0.1369E-02  0.8806E-04  0.2697E+02
   -0.599990   30.50274  0.3580E-13  0.1446E-04  0.4344E-07  0.1441E-02  0.8267E-04  0.2708E+02
   -0.649991   30.50338  0.3580E-13  0.1466E-04  0.4269E-07  0.1506E-02  0.7774E-04  0.2752E+02
   -0.699992   30.50398  0.3580E-13  0.1482E-04  0.4207E-07  0.1563E-02  0.7321E-04  0.2827E+02
   -0.749993   30.50456  0.3580E-13  0.1497E-04  0.4157E-07  0.1613E-02  0.6903E-04  0.2932E+02
   -0.799995   30.50512  0.3580E-13  0.1509E-04  0.4118E-07  0.1656E-02  0.6514E-04  0.3070E+02
   -0.849996   30.50565  0.3580E-13  0.1519E-04  0.4088E-07  0.1691E-02  0.6150E-04  0.3243E+02
   -0.899998   30.50618  0.3580E-13  0.1527E-04  0.4067E-07  0.1718E-02  0.5809E-04  0.3458E+02
   -0.949999   30.50669  0.3580E-13  0.1533E-04  0.4056E-07  0.1736E-02  0.5487E-04  0.3720E+02
   -1.000001   30.50719  0.3580E-13  0.1538E-04  0.4054E-07  0.1747E-02  0.5183E-04  0.4039E+02
   -1.050003   30.50769  0.3580E-13  0.1540E-04  0.4063E-07  0.1749E-02  0.4894E-04  0.4609E+02
   -1.100005   30.50819  0.3580E-13  0.1540E-04  0.4081E-07  0.1830E-02  0.4619E-04  0.1544E+03
   -1.150006   30.50866  0.3580E-13  0.1538E-04  0.4112E-07  0.1675E-02  0.4373E-04  0.3438E+03
   -1.200008   30.50918  0.3580E-13  0.1534E-04  0.4156E-07  0.1694E-02  0.4119E-04  0.6722E+02
   -1.250009   30.50969  0.3580E-13  0.1527E-04  0.4215E-07  0.1664E-02  0.3876E-04  0.7236E+02
   -1.300011   30.51021  0.3580E-13  0.1518E-04  0.4295E-07  0.1616E-02  0.3641E-04  0.8505E+02
   -1.350012   30.51075  0.3580E-13  0.1506E-04  0.4399E-07  0.1559E-02  0.3414E-04  0.1022E+03
   -1.400013   30.51131  0.3580E-13  0.1490E-04  0.4535E-07  0.1484E-02  0.3193E-04  0.1265E+03
   -1.450014   30.51190  0.3580E-13  0.1470E-04  0.4716E-07  0.1408E-02  0.2976E-04  0.1615E+03
   -1.500014   30.51253  0.3580E-13  0.1446E-04  0.4961E-07  0.1299E-02  0.2763E-04  0.2190E+03
   -1.550015   30.51322  0.3580E-13  0.1415E-04  0.5302E-07  0.1215E-02  0.2550E-04  0.3103E+03
   -1.600015   30.51396  0.3580E-13  0.1376E-04  0.5813E-07  0.1073E-02  0.2341E-04  0.5864E+03
   -1.650014   30.51487  0.3580E-13  0.1326E-04  0.6586E-07  0.9927E-03  0.2118E-04  0.1241E+05
   -1.700014   30.51587  0.3580E-13  0.1258E-04  0.7966E-07  0.8121E-03  0.1903E-04  0.3298E+04
   -1.750013   30.51765  0.3580E-13  0.1164E-04  0.1026E-06  0.7343E-03  0.1619E-04  0.3688E+06
   -1.800012   30.51928  0.3580E-13  0.1035E-04  0.1502E-06  0.5176E-03  0.1389E-04  0.6347E+06
   -1.850010   30.52508  0.3580E-13  0.8872E-05  0.2387E-06  0.4727E-03  0.1013E-04  0.1329E+08
   -1.900008   30.52445  0.3580E-13  0.7074E-05  0.4968E-06  0.2120E-03  0.8201E-05  0.3758E+07
   -1.950005   30.54385  0.3580E-13  0.4928E-05  0.1251E-05  0.1792E-03  0.4495E-05 -0.9589E+07
   -2.000002   30.54651  0.3580E-13  0.0000E+00  0.0000E+00  0.0000E+00  0.7892E-05  0.0000E+00
