 1 - depth, m
 2 - temperature, C
 3 - salinity, kg/kg
 4 - turbulent kinetic energy, m**2/s**2
 5 - dissipation rate, m**2/s**3
 6 - kinematic heat conductance, m**2/s
 7 - modulus of horizontal velocity, m/s
 8 - Richardson number, n/d
   -0.000000   29.93567  0.1001E-12  0.4605E-05  0.2753E-06  0.4790E-04  0.1293E-02  0.3266E+04
   -0.049997   29.96613  0.1001E-12  0.7946E-05  0.1228E-06  0.1787E-03  0.7245E-03  0.3317E+04
   -0.099994   29.97700  0.1001E-12  0.9603E-05  0.8533E-07  0.3899E-03  0.5355E-03  0.2877E+02
   -0.149992   29.98017  0.1001E-12  0.1065E-04  0.7173E-07  0.4745E-03  0.4723E-03  0.1410E+02
   -0.199991   29.98265  0.1001E-12  0.1146E-04  0.6374E-07  0.6300E-03  0.4216E-03  0.9069E+01
   -0.249989   29.98446  0.1001E-12  0.1210E-04  0.5847E-07  0.7530E-03  0.3836E-03  0.6691E+01
   -0.299989   29.98593  0.1001E-12  0.1263E-04  0.5471E-07  0.8746E-03  0.3519E-03  0.5320E+01
   -0.349988   29.98717  0.1001E-12  0.1306E-04  0.5187E-07  0.9850E-03  0.3247E-03  0.4544E+01
   -0.399988   29.98823  0.1001E-12  0.1343E-04  0.4966E-07  0.1086E-02  0.3007E-03  0.4046E+01
   -0.449988   29.98918  0.1001E-12  0.1374E-04  0.4786E-07  0.1180E-02  0.2796E-03  0.3796E+01
   -0.499988   29.99004  0.1001E-12  0.1401E-04  0.4636E-07  0.1266E-02  0.2609E-03  0.3690E+01
   -0.549989   29.99082  0.1001E-12  0.1424E-04  0.4511E-07  0.1345E-02  0.2441E-03  0.3639E+01
   -0.599990   29.99154  0.1001E-12  0.1445E-04  0.4405E-07  0.1417E-02  0.2290E-03  0.3636E+01
   -0.649991   29.99221  0.1001E-12  0.1462E-04  0.4314E-07  0.1481E-02  0.2152E-03  0.3679E+01
   -0.699992   29.99284  0.1001E-12  0.1476E-04  0.4238E-07  0.1538E-02  0.2025E-03  0.3756E+01
   -0.749993   29.99344  0.1001E-12  0.1488E-04  0.4173E-07  0.1588E-02  0.1908E-03  0.3875E+01
   -0.799995   29.99401  0.1001E-12  0.1498E-04  0.4119E-07  0.1631E-02  0.1800E-03  0.4029E+01
   -0.849996   29.99456  0.1001E-12  0.1506E-04  0.4075E-07  0.1666E-02  0.1698E-03  0.4230E+01
   -0.899998   29.99510  0.1001E-12  0.1511E-04  0.4041E-07  0.1693E-02  0.1603E-03  0.4476E+01
   -0.950000   29.99562  0.1001E-12  0.1515E-04  0.4015E-07  0.1712E-02  0.1513E-03  0.4779E+01
   -1.000001   29.99612  0.1001E-12  0.1516E-04  0.3999E-07  0.1724E-02  0.1429E-03  0.5149E+01
   -1.050003   29.99662  0.1001E-12  0.1516E-04  0.3992E-07  0.1726E-02  0.1348E-03  0.5819E+01
   -1.100005   29.99712  0.1001E-12  0.1514E-04  0.3995E-07  0.1806E-02  0.1272E-03  0.1941E+02
   -1.150007   29.99759  0.1001E-12  0.1509E-04  0.4010E-07  0.1654E-02  0.1204E-03  0.4301E+02
   -1.200008   29.99809  0.1001E-12  0.1502E-04  0.4037E-07  0.1675E-02  0.1133E-03  0.8312E+01
   -1.250010   29.99859  0.1001E-12  0.1493E-04  0.4079E-07  0.1646E-02  0.1066E-03  0.8831E+01
   -1.300011   29.99909  0.1001E-12  0.1482E-04  0.4139E-07  0.1600E-02  0.1001E-03  0.1027E+02
   -1.350012   29.99961  0.1001E-12  0.1467E-04  0.4222E-07  0.1544E-02  0.9380E-04  0.1223E+02
   -1.400013   30.00014  0.1001E-12  0.1449E-04  0.4335E-07  0.1471E-02  0.8768E-04  0.1497E+02
   -1.450014   30.00070  0.1001E-12  0.1428E-04  0.4489E-07  0.1396E-02  0.8170E-04  0.1890E+02
   -1.500015   30.00128  0.1001E-12  0.1401E-04  0.4702E-07  0.1290E-02  0.7583E-04  0.2523E+02
   -1.550015   30.00192  0.1001E-12  0.1369E-04  0.5002E-07  0.1206E-02  0.6995E-04  0.3529E+02
   -1.600015   30.00260  0.1001E-12  0.1330E-04  0.5455E-07  0.1065E-02  0.6420E-04  0.6125E+02
   -1.650015   30.00341  0.1001E-12  0.1279E-04  0.6155E-07  0.9875E-03  0.5812E-04  0.1119E+03
   -1.700014   30.00433  0.1001E-12  0.1211E-04  0.7409E-07  0.8066E-03  0.5218E-04  0.4503E+05
   -1.750013   30.00587  0.1001E-12  0.1118E-04  0.9482E-07  0.7287E-03  0.4449E-04  0.2769E+05
   -1.800012   30.00730  0.1001E-12  0.9906E-05  0.1382E-06  0.5107E-03  0.3819E-04  0.6982E+05
   -1.850011   30.01233  0.1001E-12  0.8428E-05  0.2190E-06  0.4655E-03  0.2771E-04  0.1013E+08
   -1.900008   30.01191  0.1001E-12  0.6657E-05  0.4549E-06  0.2077E-03  0.2240E-04  0.8318E+06
   -1.950006   30.02885  0.1001E-12  0.4611E-05  0.1158E-05  0.1774E-03  0.1208E-04 -0.5349E+06
   -2.000003   30.03131  0.1001E-12  0.0000E+00  0.0000E+00  0.0000E+00  0.2164E-04  0.0000E+00
