 1 - depth, m
 2 - temperature, C
 3 - salinity, kg/kg
 4 - turbulent kinetic energy, m**2/s**2
 5 - dissipation rate, m**2/s**3
 6 - kinematic heat conductance, m**2/s
 7 - modulus of horizontal velocity, m/s
 8 - Richardson number, n/d
   -0.000000   29.77150  0.3378E-14  0.4529E-05  0.2698E-06  0.4896E-04  0.1827E-02  0.3361E+04
   -0.049997   29.79950  0.3378E-14  0.7710E-05  0.1201E-06  0.1705E-03  0.1043E-02  0.9212E+04
   -0.099994   29.81039  0.3378E-14  0.9348E-05  0.8244E-07  0.3871E-03  0.7600E-03  0.1394E+02
   -0.149992   29.81340  0.3378E-14  0.1037E-04  0.6920E-07  0.4663E-03  0.6704E-03  0.6763E+01
   -0.199991   29.81581  0.3378E-14  0.1117E-04  0.6144E-07  0.6215E-03  0.5978E-03  0.4350E+01
   -0.249989   29.81756  0.3378E-14  0.1180E-04  0.5635E-07  0.7435E-03  0.5434E-03  0.3207E+01
   -0.299989   29.81899  0.3378E-14  0.1232E-04  0.5273E-07  0.8642E-03  0.4982E-03  0.2551E+01
   -0.349988   29.82019  0.3378E-14  0.1275E-04  0.5001E-07  0.9740E-03  0.4595E-03  0.2182E+01
   -0.399988   29.82123  0.3378E-14  0.1311E-04  0.4789E-07  0.1075E-02  0.4252E-03  0.1946E+01
   -0.449988   29.82215  0.3378E-14  0.1343E-04  0.4617E-07  0.1168E-02  0.3951E-03  0.1828E+01
   -0.499988   29.82298  0.3378E-14  0.1370E-04  0.4475E-07  0.1254E-02  0.3685E-03  0.1780E+01
   -0.549989   29.82374  0.3378E-14  0.1393E-04  0.4356E-07  0.1333E-02  0.3447E-03  0.1758E+01
   -0.599990   29.82445  0.3378E-14  0.1413E-04  0.4256E-07  0.1404E-02  0.3232E-03  0.1761E+01
   -0.649991   29.82510  0.3378E-14  0.1431E-04  0.4171E-07  0.1469E-02  0.3036E-03  0.1784E+01
   -0.699992   29.82572  0.3378E-14  0.1446E-04  0.4099E-07  0.1526E-02  0.2856E-03  0.1826E+01
   -0.749993   29.82631  0.3378E-14  0.1458E-04  0.4039E-07  0.1576E-02  0.2690E-03  0.1887E+01
   -0.799995   29.82687  0.3378E-14  0.1469E-04  0.3990E-07  0.1618E-02  0.2536E-03  0.1967E+01
   -0.849996   29.82742  0.3378E-14  0.1477E-04  0.3949E-07  0.1654E-02  0.2392E-03  0.2069E+01
   -0.899998   29.82794  0.3378E-14  0.1483E-04  0.3918E-07  0.1681E-02  0.2257E-03  0.2195E+01
   -0.950000   29.82845  0.3378E-14  0.1487E-04  0.3895E-07  0.1701E-02  0.2131E-03  0.2349E+01
   -1.000002   29.82895  0.3378E-14  0.1489E-04  0.3882E-07  0.1713E-02  0.2011E-03  0.2536E+01
   -1.050003   29.82944  0.3378E-14  0.1489E-04  0.3877E-07  0.1715E-02  0.1897E-03  0.2874E+01
   -1.100005   29.82993  0.3378E-14  0.1487E-04  0.3882E-07  0.1792E-02  0.1789E-03  0.9624E+01
   -1.150007   29.83039  0.3378E-14  0.1484E-04  0.3899E-07  0.1649E-02  0.1692E-03  0.2119E+02
   -1.200008   29.83089  0.3378E-14  0.1478E-04  0.3926E-07  0.1666E-02  0.1593E-03  0.4121E+01
   -1.250010   29.83139  0.3378E-14  0.1469E-04  0.3969E-07  0.1638E-02  0.1497E-03  0.4391E+01
   -1.300011   29.83188  0.3378E-14  0.1459E-04  0.4029E-07  0.1592E-02  0.1406E-03  0.5118E+01
   -1.350012   29.83239  0.3378E-14  0.1445E-04  0.4110E-07  0.1537E-02  0.1317E-03  0.6098E+01
   -1.400013   29.83292  0.3378E-14  0.1428E-04  0.4221E-07  0.1466E-02  0.1231E-03  0.7474E+01
   -1.450014   29.83347  0.3378E-14  0.1407E-04  0.4370E-07  0.1391E-02  0.1147E-03  0.9442E+01
   -1.500015   29.83405  0.3378E-14  0.1382E-04  0.4576E-07  0.1285E-02  0.1064E-03  0.1262E+02
   -1.550015   29.83468  0.3378E-14  0.1352E-04  0.4864E-07  0.1202E-02  0.9814E-04  0.1760E+02
   -1.600015   29.83536  0.3378E-14  0.1314E-04  0.5297E-07  0.1060E-02  0.9006E-04  0.2998E+02
   -1.650015   29.83617  0.3378E-14  0.1266E-04  0.5952E-07  0.9852E-03  0.8151E-04  0.5818E+02
   -1.700015   29.83705  0.3378E-14  0.1200E-04  0.7144E-07  0.8036E-03  0.7335E-04 -0.2674E+04
   -1.750014   29.83860  0.3378E-14  0.1110E-04  0.9139E-07  0.7280E-03  0.6254E-04  0.1519E+05
   -1.800012   29.83998  0.3378E-14  0.9846E-05  0.1335E-06  0.5055E-03  0.5376E-04  0.7419E+05
   -1.850011   29.84502  0.3378E-14  0.8372E-05  0.2111E-06  0.4629E-03  0.3905E-04  0.2691E+07
   -1.900009   29.84461  0.3378E-14  0.6613E-05  0.4344E-06  0.2092E-03  0.3154E-04  0.9437E+05
   -1.950006   29.86121  0.3378E-14  0.4560E-05  0.1114E-05  0.1745E-03  0.1703E-04 -0.5065E+06
   -2.000003   29.86367  0.3378E-14  0.0000E+00  0.0000E+00  0.0000E+00  0.3013E-04  0.0000E+00
