 1 - depth, m
 2 - temperature, C
 3 - salinity, kg/kg
 4 - turbulent kinetic energy, m**2/s**2
 5 - dissipation rate, m**2/s**3
 6 - kinematic heat conductance, m**2/s
 7 - modulus of horizontal velocity, m/s
 8 - Richardson number, n/d
   -0.000000   30.44640  0.8534E-14  0.5693E-05  0.3227E-06  0.5452E-04  0.3876E-02  0.4871E+03
   -0.049997   30.47740  0.8534E-14  0.9059E-05  0.1387E-06  0.2097E-03  0.2088E-02  0.9758E+02
   -0.099994   30.48651  0.8534E-14  0.1058E-04  0.9921E-07  0.3889E-03  0.1665E-02  0.3712E+01
   -0.149992   30.48999  0.8534E-14  0.1160E-04  0.8382E-07  0.4859E-03  0.1491E-02  0.1965E+01
   -0.199991   30.49266  0.8534E-14  0.1241E-04  0.7484E-07  0.6136E-03  0.1354E-02  0.1371E+01
   -0.249989   30.49471  0.8534E-14  0.1309E-04  0.6881E-07  0.7190E-03  0.1247E-02  0.1251E+01
   -0.299988   30.49641  0.8534E-14  0.1371E-04  0.6417E-07  0.8412E-03  0.1149E-02  0.1328E+01
   -0.349988   30.49782  0.8534E-14  0.1429E-04  0.6035E-07  0.9824E-03  0.1053E-02  0.1419E+01
   -0.399988   30.49900  0.8534E-14  0.1483E-04  0.5718E-07  0.1129E-02  0.9600E-03  0.1444E+01
   -0.449988   30.50001  0.8534E-14  0.1531E-04  0.5453E-07  0.1272E-02  0.8737E-03  0.1449E+01
   -0.499988   30.50088  0.8534E-14  0.1574E-04  0.5234E-07  0.1406E-02  0.7962E-03  0.1450E+01
   -0.549989   30.50166  0.8534E-14  0.1610E-04  0.5054E-07  0.1528E-02  0.7270E-03  0.1439E+01
   -0.599989   30.50236  0.8534E-14  0.1640E-04  0.4905E-07  0.1637E-02  0.6653E-03  0.1424E+01
   -0.649991   30.50300  0.8534E-14  0.1664E-04  0.4784E-07  0.1732E-02  0.6101E-03  0.1405E+01
   -0.699992   30.50360  0.8534E-14  0.1683E-04  0.4686E-07  0.1810E-02  0.5608E-03  0.1382E+01
   -0.749993   30.50416  0.8534E-14  0.1697E-04  0.4608E-07  0.1873E-02  0.5167E-03  0.1355E+01
   -0.799995   30.50469  0.8534E-14  0.1707E-04  0.4549E-07  0.1919E-02  0.4772E-03  0.1325E+01
   -0.849996   30.50521  0.8534E-14  0.1712E-04  0.4506E-07  0.1950E-02  0.4419E-03  0.1292E+01
   -0.899998   30.50571  0.8534E-14  0.1714E-04  0.4478E-07  0.1966E-02  0.4104E-03  0.1257E+01
   -0.949999   30.50620  0.8534E-14  0.1713E-04  0.4463E-07  0.1968E-02  0.3821E-03  0.1218E+01
   -1.000001   30.50669  0.8534E-14  0.1710E-04  0.4462E-07  0.1958E-02  0.3568E-03  0.1176E+01
   -1.050003   30.50717  0.8534E-14  0.1703E-04  0.4472E-07  0.1929E-02  0.3342E-03  0.1142E+01
   -1.100005   30.50765  0.8534E-14  0.1696E-04  0.4494E-07  0.2100E-02  0.3141E-03  0.2794E+01
   -1.150006   30.50809  0.8534E-14  0.1686E-04  0.4529E-07  0.1731E-02  0.2993E-03  0.7346E+01
   -1.200008   30.50862  0.8534E-14  0.1673E-04  0.4578E-07  0.1824E-02  0.2823E-03  0.1326E+01
   -1.250009   30.50912  0.8534E-14  0.1658E-04  0.4647E-07  0.1785E-02  0.2664E-03  0.1391E+01
   -1.300011   30.50962  0.8534E-14  0.1639E-04  0.4740E-07  0.1719E-02  0.2513E-03  0.1640E+01
   -1.350012   30.51014  0.8534E-14  0.1617E-04  0.4866E-07  0.1643E-02  0.2365E-03  0.1992E+01
   -1.400013   30.51068  0.8534E-14  0.1591E-04  0.5037E-07  0.1546E-02  0.2219E-03  0.2517E+01
   -1.450014   30.51126  0.8534E-14  0.1560E-04  0.5271E-07  0.1454E-02  0.2074E-03  0.3301E+01
   -1.500014   30.51187  0.8534E-14  0.1523E-04  0.5600E-07  0.1329E-02  0.1931E-03  0.4695E+01
   -1.550015   30.51255  0.8534E-14  0.1478E-04  0.6081E-07  0.1237E-02  0.1785E-03  0.7657E+01
   -1.600015   30.51331  0.8534E-14  0.1421E-04  0.6850E-07  0.1086E-02  0.1640E-03  0.3433E+02
   -1.650014   30.51431  0.8534E-14  0.1347E-04  0.8063E-07  0.9926E-03  0.1477E-03  0.1398E+04
   -1.700014   30.51550  0.8534E-14  0.1246E-04  0.1019E-06  0.8054E-03  0.1309E-03  0.1938E+04
   -1.750013   30.51757  0.8534E-14  0.1126E-04  0.1352E-06  0.7185E-03  0.1091E-03  0.6771E+05
   -1.800012   30.51896  0.8534E-14  0.9731E-05  0.2075E-06  0.4948E-03  0.9371E-04  0.6892E+04
   -1.850010   30.52680  0.8534E-14  0.8202E-05  0.3444E-06  0.4616E-03  0.6433E-04  0.7748E+07
   -1.900008   30.52355  0.8534E-14  0.6455E-05  0.7289E-06  0.2107E-03  0.5341E-04 -0.2190E+06
   -1.950005   30.54478  0.8534E-14  0.4608E-05  0.1726E-05  0.2207E-03  0.2774E-04 -0.3949E+05
   -2.000002   30.54379  0.8534E-14  0.0000E+00  0.0000E+00  0.0000E+00  0.5715E-04  0.0000E+00
