 1 - depth, m
 2 - temperature, C
 3 - salinity, kg/kg
 4 - turbulent kinetic energy, m**2/s**2
 5 - dissipation rate, m**2/s**3
 6 - kinematic heat conductance, m**2/s
 7 - modulus of horizontal velocity, m/s
 8 - Richardson number, n/d
   -0.000000   30.40024  0.3073E-13  0.5145E-05  0.2980E-06  0.5104E-04  0.2843E-02  0.2490E+04
   -0.049997   30.43010  0.3073E-13  0.8484E-05  0.1303E-06  0.1964E-03  0.1535E-02  0.2381E+04
   -0.099994   30.43960  0.3073E-13  0.1007E-04  0.9184E-07  0.3887E-03  0.1183E-02  0.5981E+01
   -0.149992   30.44284  0.3073E-13  0.1111E-04  0.7717E-07  0.4847E-03  0.1048E-02  0.3075E+01
   -0.199991   30.44533  0.3073E-13  0.1192E-04  0.6860E-07  0.6318E-03  0.9422E-03  0.2011E+01
   -0.249989   30.44718  0.3073E-13  0.1258E-04  0.6299E-07  0.7514E-03  0.8612E-03  0.1511E+01
   -0.299988   30.44870  0.3073E-13  0.1312E-04  0.5900E-07  0.8618E-03  0.7935E-03  0.1268E+01
   -0.349988   30.44999  0.3073E-13  0.1359E-04  0.5592E-07  0.9683E-03  0.7338E-03  0.1237E+01
   -0.399988   30.45112  0.3073E-13  0.1401E-04  0.5340E-07  0.1083E-02  0.6774E-03  0.1247E+01
   -0.449988   30.45210  0.3073E-13  0.1439E-04  0.5127E-07  0.1198E-02  0.6251E-03  0.1259E+01
   -0.499988   30.45297  0.3073E-13  0.1474E-04  0.4949E-07  0.1305E-02  0.5776E-03  0.1267E+01
   -0.549989   30.45376  0.3073E-13  0.1503E-04  0.4800E-07  0.1405E-02  0.5348E-03  0.1266E+01
   -0.599989   30.45448  0.3073E-13  0.1529E-04  0.4676E-07  0.1495E-02  0.4961E-03  0.1261E+01
   -0.649991   30.45514  0.3073E-13  0.1551E-04  0.4574E-07  0.1575E-02  0.4612E-03  0.1252E+01
   -0.699992   30.45576  0.3073E-13  0.1569E-04  0.4490E-07  0.1643E-02  0.4296E-03  0.1238E+01
   -0.749993   30.45635  0.3073E-13  0.1583E-04  0.4422E-07  0.1701E-02  0.4010E-03  0.1223E+01
   -0.799995   30.45691  0.3073E-13  0.1595E-04  0.4370E-07  0.1747E-02  0.3752E-03  0.1203E+01
   -0.849996   30.45745  0.3073E-13  0.1603E-04  0.4330E-07  0.1781E-02  0.3519E-03  0.1187E+01
   -0.899998   30.45797  0.3073E-13  0.1609E-04  0.4302E-07  0.1805E-02  0.3308E-03  0.1174E+01
   -0.949999   30.45849  0.3073E-13  0.1612E-04  0.4285E-07  0.1818E-02  0.3116E-03  0.1183E+01
   -1.000001   30.45899  0.3073E-13  0.1613E-04  0.4279E-07  0.1823E-02  0.2941E-03  0.1220E+01
   -1.050003   30.45949  0.3073E-13  0.1612E-04  0.4282E-07  0.1818E-02  0.2778E-03  0.1345E+01
   -1.100005   30.45999  0.3073E-13  0.1609E-04  0.4297E-07  0.1927E-02  0.2626E-03  0.4347E+01
   -1.150006   30.46045  0.3073E-13  0.1603E-04  0.4325E-07  0.1698E-02  0.2492E-03  0.1033E+02
   -1.200008   30.46098  0.3073E-13  0.1595E-04  0.4366E-07  0.1743E-02  0.2348E-03  0.1952E+01
   -1.250009   30.46149  0.3073E-13  0.1585E-04  0.4425E-07  0.1710E-02  0.2213E-03  0.2078E+01
   -1.300011   30.46201  0.3073E-13  0.1572E-04  0.4505E-07  0.1655E-02  0.2082E-03  0.2446E+01
   -1.350012   30.46254  0.3073E-13  0.1555E-04  0.4612E-07  0.1591E-02  0.1955E-03  0.2936E+01
   -1.400013   30.46310  0.3073E-13  0.1535E-04  0.4756E-07  0.1509E-02  0.1830E-03  0.3655E+01
   -1.450014   30.46368  0.3073E-13  0.1510E-04  0.4951E-07  0.1427E-02  0.1708E-03  0.4688E+01
   -1.500014   30.46430  0.3073E-13  0.1481E-04  0.5220E-07  0.1312E-02  0.1588E-03  0.6440E+01
   -1.550015   30.46499  0.3073E-13  0.1444E-04  0.5603E-07  0.1224E-02  0.1466E-03  0.9439E+01
   -1.600015   30.46573  0.3073E-13  0.1399E-04  0.6190E-07  0.1080E-02  0.1346E-03  0.1907E+02
   -1.650014   30.46665  0.3073E-13  0.1340E-04  0.7108E-07  0.9922E-03  0.1217E-03  0.1218E+03
   -1.700014   30.46773  0.3073E-13  0.1259E-04  0.8717E-07  0.8151E-03  0.1088E-03 -0.1939E+04
   -1.750013   30.46955  0.3073E-13  0.1154E-04  0.1133E-06  0.7270E-03  0.9214E-04  0.2094E+05
   -1.800012   30.47110  0.3073E-13  0.1015E-04  0.1706E-06  0.5172E-03  0.7887E-04  0.2116E+05
   -1.850010   30.47744  0.3073E-13  0.8628E-05  0.2756E-06  0.4653E-03  0.5636E-04  0.3280E+07
   -1.900008   30.47605  0.3073E-13  0.6821E-05  0.5799E-06  0.2157E-03  0.4579E-04  0.3406E+06
   -1.950005   30.49542  0.3073E-13  0.4793E-05  0.1434E-05  0.1934E-03  0.2458E-04 -0.2460E+06
   -2.000002   30.49797  0.3073E-13  0.0000E+00  0.0000E+00  0.0000E+00  0.4600E-04  0.0000E+00
