 1 - depth, m
 2 - temperature, C
 3 - salinity, kg/kg
 4 - turbulent kinetic energy, m**2/s**2
 5 - dissipation rate, m**2/s**3
 6 - kinematic heat conductance, m**2/s
 7 - modulus of horizontal velocity, m/s
 8 - Richardson number, n/d
   -0.000000   29.89728  0.1388E-12  0.4747E-05  0.2398E-06  0.4669E-04  0.3559E-02  0.1464E+03
   -0.049997   29.92516  0.1388E-12  0.7486E-05  0.1047E-06  0.1854E-03  0.1913E-02  0.1878E+03
   -0.099994   29.93326  0.1388E-12  0.8725E-05  0.7473E-07  0.3503E-03  0.1512E-02  0.5121E+01
   -0.149992   29.93631  0.1388E-12  0.9540E-05  0.6299E-07  0.4405E-03  0.1344E-02  0.2576E+01
   -0.199991   29.93861  0.1388E-12  0.1018E-04  0.5601E-07  0.5570E-03  0.1214E-02  0.1761E+01
   -0.249989   29.94036  0.1388E-12  0.1071E-04  0.5125E-07  0.6593E-03  0.1111E-02  0.1507E+01
   -0.299989   29.94179  0.1388E-12  0.1117E-04  0.4760E-07  0.7696E-03  0.1018E-02  0.1447E+01
   -0.349988   29.94297  0.1388E-12  0.1159E-04  0.4464E-07  0.8870E-03  0.9296E-03  0.1470E+01
   -0.399988   29.94396  0.1388E-12  0.1197E-04  0.4218E-07  0.1008E-02  0.8442E-03  0.1458E+01
   -0.449988   29.94480  0.1388E-12  0.1230E-04  0.4010E-07  0.1125E-02  0.7658E-03  0.1447E+01
   -0.499988   29.94554  0.1388E-12  0.1259E-04  0.3836E-07  0.1236E-02  0.6959E-03  0.1434E+01
   -0.549989   29.94619  0.1388E-12  0.1282E-04  0.3690E-07  0.1337E-02  0.6338E-03  0.1418E+01
   -0.599990   29.94678  0.1388E-12  0.1302E-04  0.3566E-07  0.1428E-02  0.5787E-03  0.1397E+01
   -0.649991   29.94731  0.1388E-12  0.1317E-04  0.3463E-07  0.1509E-02  0.5295E-03  0.1377E+01
   -0.699992   29.94781  0.1388E-12  0.1329E-04  0.3376E-07  0.1577E-02  0.4857E-03  0.1351E+01
   -0.749993   29.94828  0.1388E-12  0.1338E-04  0.3304E-07  0.1633E-02  0.4466E-03  0.1329E+01
   -0.799995   29.94872  0.1388E-12  0.1344E-04  0.3245E-07  0.1677E-02  0.4117E-03  0.1303E+01
   -0.849997   29.94914  0.1388E-12  0.1346E-04  0.3197E-07  0.1709E-02  0.3804E-03  0.1283E+01
   -0.899998   29.94954  0.1388E-12  0.1347E-04  0.3160E-07  0.1730E-02  0.3525E-03  0.1258E+01
   -0.950000   29.94993  0.1388E-12  0.1346E-04  0.3133E-07  0.1740E-02  0.3274E-03  0.1243E+01
   -1.000002   29.95032  0.1388E-12  0.1342E-04  0.3115E-07  0.1740E-02  0.3048E-03  0.1228E+01
   -1.050003   29.95069  0.1388E-12  0.1337E-04  0.3105E-07  0.1727E-02  0.2845E-03  0.1255E+01
   -1.100005   29.95107  0.1388E-12  0.1331E-04  0.3104E-07  0.1834E-02  0.2663E-03  0.3461E+01
   -1.150007   29.95141  0.1388E-12  0.1324E-04  0.3111E-07  0.1616E-02  0.2523E-03  0.7947E+01
   -1.200008   29.95180  0.1388E-12  0.1315E-04  0.3127E-07  0.1661E-02  0.2373E-03  0.1513E+01
   -1.250010   29.95217  0.1388E-12  0.1304E-04  0.3154E-07  0.1629E-02  0.2230E-03  0.1575E+01
   -1.300011   29.95255  0.1388E-12  0.1291E-04  0.3195E-07  0.1580E-02  0.2093E-03  0.1831E+01
   -1.350013   29.95293  0.1388E-12  0.1275E-04  0.3253E-07  0.1521E-02  0.1961E-03  0.2164E+01
   -1.400014   29.95332  0.1388E-12  0.1257E-04  0.3333E-07  0.1447E-02  0.1833E-03  0.2651E+01
   -1.450014   29.95372  0.1388E-12  0.1236E-04  0.3444E-07  0.1369E-02  0.1707E-03  0.3319E+01
   -1.500015   29.95415  0.1388E-12  0.1212E-04  0.3599E-07  0.1263E-02  0.1583E-03  0.4416E+01
   -1.550015   29.95461  0.1388E-12  0.1182E-04  0.3818E-07  0.1177E-02  0.1459E-03  0.6094E+01
   -1.600016   29.95511  0.1388E-12  0.1147E-04  0.4147E-07  0.1039E-02  0.1338E-03  0.9940E+01
   -1.650015   29.95568  0.1388E-12  0.1103E-04  0.4655E-07  0.9586E-03  0.1211E-03  0.2760E+02
   -1.700015   29.95632  0.1388E-12  0.1044E-04  0.5580E-07  0.7883E-03  0.1087E-03  0.4091E+03
   -1.750014   29.95741  0.1388E-12  0.9627E-05  0.7147E-07  0.7028E-03  0.9275E-04  0.1066E+05
   -1.800013   29.95849  0.1388E-12  0.8470E-05  0.1050E-06  0.4929E-03  0.7898E-04  0.2513E+05
   -1.850011   29.96205  0.1388E-12  0.7118E-05  0.1647E-06  0.4358E-03  0.5678E-04  0.1122E+07
   -1.900009   29.96178  0.1388E-12  0.5532E-05  0.3401E-06  0.1979E-03  0.4527E-04  0.1497E+07
   -1.950006   29.97411  0.1388E-12  0.3787E-05  0.8777E-06  0.1636E-03  0.2382E-04 -0.6539E+06
   -2.000003   29.97653  0.1388E-12  0.0000E+00  0.0000E+00  0.0000E+00  0.4454E-04  0.0000E+00
