 1 - depth, m
 2 - temperature, C
 3 - salinity, kg/kg
 4 - turbulent kinetic energy, m**2/s**2
 5 - dissipation rate, m**2/s**3
 6 - kinematic heat conductance, m**2/s
 7 - modulus of horizontal velocity, m/s
 8 - Richardson number, n/d
   -0.000000   29.35824  0.6167E-13  0.4311E-05  0.2440E-06  0.4727E-04  0.1867E-02  0.3468E+04
   -0.049997   29.38494  0.6167E-13  0.7334E-05  0.1084E-06  0.1707E-03  0.1044E-02  0.7568E+02
   -0.099994   29.39475  0.6167E-13  0.8848E-05  0.7505E-07  0.3773E-03  0.7715E-03  0.1491E+02
   -0.149992   29.39761  0.6167E-13  0.9801E-05  0.6313E-07  0.4591E-03  0.6802E-03  0.7207E+01
   -0.199991   29.39986  0.6167E-13  0.1054E-04  0.5613E-07  0.6074E-03  0.6072E-03  0.4663E+01
   -0.249989   29.40151  0.6167E-13  0.1114E-04  0.5153E-07  0.7263E-03  0.5520E-03  0.3434E+01
   -0.299989   29.40286  0.6167E-13  0.1163E-04  0.4824E-07  0.8421E-03  0.5060E-03  0.2744E+01
   -0.349988   29.40399  0.6167E-13  0.1203E-04  0.4578E-07  0.9475E-03  0.4666E-03  0.2356E+01
   -0.399988   29.40498  0.6167E-13  0.1238E-04  0.4385E-07  0.1045E-02  0.4314E-03  0.2127E+01
   -0.449988   29.40585  0.6167E-13  0.1268E-04  0.4227E-07  0.1138E-02  0.4001E-03  0.2009E+01
   -0.499988   29.40664  0.6167E-13  0.1294E-04  0.4097E-07  0.1224E-02  0.3722E-03  0.1972E+01
   -0.549989   29.40736  0.6167E-13  0.1317E-04  0.3987E-07  0.1303E-02  0.3472E-03  0.1946E+01
   -0.599990   29.40803  0.6167E-13  0.1337E-04  0.3896E-07  0.1375E-02  0.3246E-03  0.1956E+01
   -0.649991   29.40865  0.6167E-13  0.1354E-04  0.3819E-07  0.1439E-02  0.3041E-03  0.1971E+01
   -0.699992   29.40923  0.6167E-13  0.1369E-04  0.3754E-07  0.1496E-02  0.2854E-03  0.2019E+01
   -0.749993   29.40979  0.6167E-13  0.1381E-04  0.3701E-07  0.1546E-02  0.2682E-03  0.2071E+01
   -0.799995   29.41032  0.6167E-13  0.1391E-04  0.3657E-07  0.1587E-02  0.2523E-03  0.2160E+01
   -0.849997   29.41083  0.6167E-13  0.1399E-04  0.3622E-07  0.1621E-02  0.2376E-03  0.2254E+01
   -0.899998   29.41132  0.6167E-13  0.1405E-04  0.3596E-07  0.1648E-02  0.2239E-03  0.2396E+01
   -0.950000   29.41181  0.6167E-13  0.1410E-04  0.3578E-07  0.1666E-02  0.2112E-03  0.2551E+01
   -1.000002   29.41228  0.6167E-13  0.1412E-04  0.3568E-07  0.1677E-02  0.1991E-03  0.2768E+01
   -1.050003   29.41275  0.6167E-13  0.1413E-04  0.3567E-07  0.1680E-02  0.1878E-03  0.3132E+01
   -1.100005   29.41322  0.6167E-13  0.1411E-04  0.3574E-07  0.1754E-02  0.1769E-03  0.1056E+02
   -1.150007   29.41366  0.6167E-13  0.1408E-04  0.3593E-07  0.1615E-02  0.1673E-03  0.2321E+02
   -1.200008   29.41414  0.6167E-13  0.1403E-04  0.3621E-07  0.1631E-02  0.1573E-03  0.4511E+01
   -1.250010   29.41461  0.6167E-13  0.1396E-04  0.3663E-07  0.1603E-02  0.1478E-03  0.4837E+01
   -1.300011   29.41509  0.6167E-13  0.1386E-04  0.3721E-07  0.1558E-02  0.1387E-03  0.5626E+01
   -1.350013   29.41557  0.6167E-13  0.1374E-04  0.3800E-07  0.1504E-02  0.1298E-03  0.6736E+01
   -1.400014   29.41608  0.6167E-13  0.1359E-04  0.3904E-07  0.1434E-02  0.1212E-03  0.8237E+01
   -1.450014   29.41661  0.6167E-13  0.1340E-04  0.4045E-07  0.1361E-02  0.1128E-03  0.1044E+02
   -1.500015   29.41717  0.6167E-13  0.1316E-04  0.4237E-07  0.1258E-02  0.1045E-03  0.1388E+02
   -1.550015   29.41778  0.6167E-13  0.1288E-04  0.4504E-07  0.1175E-02  0.9630E-04  0.1935E+02
   -1.600016   29.41844  0.6167E-13  0.1253E-04  0.4900E-07  0.1036E-02  0.8825E-04  0.3166E+02
   -1.650015   29.41921  0.6167E-13  0.1208E-04  0.5502E-07  0.9619E-03  0.7982E-04  0.1426E+03
   -1.700015   29.42007  0.6167E-13  0.1147E-04  0.6597E-07  0.7848E-03  0.7167E-04 -0.3802E+02
   -1.750014   29.42154  0.6167E-13  0.1062E-04  0.8420E-07  0.7082E-03  0.6109E-04  0.2114E+05
   -1.800013   29.42294  0.6167E-13  0.9428E-05  0.1213E-06  0.4953E-03  0.5230E-04  0.1275E+06
   -1.850011   29.42772  0.6167E-13  0.7997E-05  0.1914E-06  0.4495E-03  0.3779E-04  0.3486E+07
   -1.900009   29.42749  0.6167E-13  0.6310E-05  0.3947E-06  0.1981E-03  0.3035E-04 -0.2874E+04
   -1.950006   29.44387  0.6167E-13  0.4348E-05  0.1012E-05  0.1692E-03  0.1628E-04 -0.1926E+06
   -2.000003   29.44599  0.6167E-13  0.0000E+00  0.0000E+00  0.0000E+00  0.2900E-04  0.0000E+00
