 1 - depth, m
 2 - temperature, C
 3 - salinity, kg/kg
 4 - turbulent kinetic energy, m**2/s**2
 5 - dissipation rate, m**2/s**3
 6 - kinematic heat conductance, m**2/s
 7 - modulus of horizontal velocity, m/s
 8 - Richardson number, n/d
   -0.000000   30.58268  0.3199E-14  0.4601E-05  0.2783E-06  0.4922E-04  0.1589E-02  0.7297E+04
   -0.049997   30.61068  0.3199E-14  0.7890E-05  0.1239E-06  0.1747E-03  0.9032E-03  0.3832E+04
   -0.099994   30.62144  0.3199E-14  0.9581E-05  0.8526E-07  0.3940E-03  0.6596E-03  0.1926E+02
   -0.149992   30.62441  0.3199E-14  0.1064E-04  0.7161E-07  0.4754E-03  0.5822E-03  0.9419E+01
   -0.199991   30.62677  0.3199E-14  0.1148E-04  0.6364E-07  0.6350E-03  0.5196E-03  0.6048E+01
   -0.249989   30.62849  0.3199E-14  0.1214E-04  0.5845E-07  0.7593E-03  0.4728E-03  0.4454E+01
   -0.299988   30.62990  0.3199E-14  0.1269E-04  0.5476E-07  0.8834E-03  0.4338E-03  0.3555E+01
   -0.349988   30.63108  0.3199E-14  0.1315E-04  0.5202E-07  0.9958E-03  0.4005E-03  0.3034E+01
   -0.399988   30.63211  0.3199E-14  0.1353E-04  0.4990E-07  0.1099E-02  0.3710E-03  0.2713E+01
   -0.449988   30.63302  0.3199E-14  0.1387E-04  0.4819E-07  0.1195E-02  0.3451E-03  0.2539E+01
   -0.499988   30.63384  0.3199E-14  0.1416E-04  0.4679E-07  0.1283E-02  0.3221E-03  0.2478E+01
   -0.549989   30.63460  0.3199E-14  0.1442E-04  0.4563E-07  0.1364E-02  0.3016E-03  0.2437E+01
   -0.599989   30.63530  0.3199E-14  0.1465E-04  0.4467E-07  0.1437E-02  0.2831E-03  0.2449E+01
   -0.649990   30.63595  0.3199E-14  0.1484E-04  0.4387E-07  0.1503E-02  0.2662E-03  0.2473E+01
   -0.699992   30.63657  0.3199E-14  0.1501E-04  0.4321E-07  0.1561E-02  0.2507E-03  0.2542E+01
   -0.749993   30.63716  0.3199E-14  0.1516E-04  0.4267E-07  0.1612E-02  0.2363E-03  0.2619E+01
   -0.799994   30.63773  0.3199E-14  0.1529E-04  0.4224E-07  0.1656E-02  0.2230E-03  0.2745E+01
   -0.849996   30.63827  0.3199E-14  0.1539E-04  0.4192E-07  0.1691E-02  0.2106E-03  0.2880E+01
   -0.899998   30.63881  0.3199E-14  0.1547E-04  0.4169E-07  0.1719E-02  0.1989E-03  0.3073E+01
   -0.949999   30.63933  0.3199E-14  0.1553E-04  0.4156E-07  0.1739E-02  0.1879E-03  0.3283E+01
   -1.000001   30.63984  0.3199E-14  0.1558E-04  0.4153E-07  0.1750E-02  0.1775E-03  0.3568E+01
   -1.050003   30.64034  0.3199E-14  0.1560E-04  0.4159E-07  0.1752E-02  0.1676E-03  0.4042E+01
   -1.100005   30.64085  0.3199E-14  0.1560E-04  0.4177E-07  0.1832E-02  0.1582E-03  0.1356E+02
   -1.150006   30.64133  0.3199E-14  0.1558E-04  0.4208E-07  0.1681E-02  0.1498E-03  0.3016E+02
   -1.200008   30.64186  0.3199E-14  0.1554E-04  0.4250E-07  0.1699E-02  0.1411E-03  0.5852E+01
   -1.250009   30.64237  0.3199E-14  0.1547E-04  0.4310E-07  0.1669E-02  0.1328E-03  0.6291E+01
   -1.300011   30.64290  0.3199E-14  0.1537E-04  0.4390E-07  0.1622E-02  0.1248E-03  0.7345E+01
   -1.350012   30.64345  0.3199E-14  0.1525E-04  0.4495E-07  0.1565E-02  0.1170E-03  0.8826E+01
   -1.400013   30.64401  0.3199E-14  0.1509E-04  0.4632E-07  0.1490E-02  0.1094E-03  0.1086E+02
   -1.450014   30.64461  0.3199E-14  0.1489E-04  0.4815E-07  0.1415E-02  0.1020E-03  0.1386E+02
   -1.500014   30.64524  0.3199E-14  0.1464E-04  0.5064E-07  0.1305E-02  0.9475E-04  0.1868E+02
   -1.550015   30.64594  0.3199E-14  0.1433E-04  0.5409E-07  0.1223E-02  0.8745E-04  0.2645E+02
   -1.600015   30.64669  0.3199E-14  0.1394E-04  0.5927E-07  0.1076E-02  0.8032E-04  0.4861E+02
   -1.650014   30.64760  0.3199E-14  0.1344E-04  0.6710E-07  0.1002E-02  0.7267E-04  0.1373E+03
   -1.700014   30.64861  0.3199E-14  0.1274E-04  0.8107E-07  0.8122E-03  0.6536E-04 -0.2207E+05
   -1.750013   30.65040  0.3199E-14  0.1180E-04  0.1039E-06  0.7421E-03  0.5563E-04  0.6446E+06
   -1.800012   30.65190  0.3199E-14  0.1052E-04  0.1502E-06  0.5171E-03  0.4804E-04  0.2180E+05
   -1.850010   30.65778  0.3199E-14  0.9024E-05  0.2397E-06  0.4751E-03  0.3498E-04  0.7768E+08
   -1.900008   30.65715  0.3199E-14  0.7199E-05  0.4924E-06  0.2126E-03  0.2846E-04 -0.8194E+05
   -1.950005   30.67664  0.3199E-14  0.5006E-05  0.1253E-05  0.1794E-03  0.1562E-04 -0.7036E+06
   -2.000002   30.67920  0.3199E-14  0.0000E+00  0.0000E+00  0.0000E+00  0.2697E-04  0.0000E+00
