 1 - depth, m
 2 - temperature, C
 3 - salinity, kg/kg
 4 - turbulent kinetic energy, m**2/s**2
 5 - dissipation rate, m**2/s**3
 6 - kinematic heat conductance, m**2/s
 7 - modulus of horizontal velocity, m/s
 8 - Richardson number, n/d
   -0.000000   31.44168  0.1182E-13  0.5633E-05  0.3853E-06  0.5412E-04  0.1203E-02  0.6199E+04
   -0.049997   31.47813  0.1182E-13  0.9646E-05  0.1713E-06  0.1916E-03  0.6900E-03  0.3709E+03
   -0.099994   31.49201  0.1182E-13  0.1171E-04  0.1177E-06  0.4256E-03  0.5084E-03  0.3553E+02
   -0.149992   31.49583  0.1182E-13  0.1300E-04  0.9855E-07  0.5079E-03  0.4506E-03  0.1761E+02
   -0.199990   31.49889  0.1182E-13  0.1400E-04  0.8734E-07  0.6832E-03  0.4033E-03  0.1124E+02
   -0.249989   31.50109  0.1182E-13  0.1479E-04  0.8004E-07  0.8147E-03  0.3681E-03  0.8321E+01
   -0.299988   31.50288  0.1182E-13  0.1544E-04  0.7484E-07  0.9491E-03  0.3388E-03  0.6607E+01
   -0.349987   31.50438  0.1182E-13  0.1597E-04  0.7094E-07  0.1069E-02  0.3137E-03  0.5652E+01
   -0.399987   31.50568  0.1182E-13  0.1641E-04  0.6790E-07  0.1179E-02  0.2916E-03  0.5024E+01
   -0.449987   31.50683  0.1182E-13  0.1679E-04  0.6543E-07  0.1281E-02  0.2720E-03  0.4714E+01
   -0.499988   31.50786  0.1182E-13  0.1712E-04  0.6339E-07  0.1374E-02  0.2547E-03  0.4570E+01
   -0.549988   31.50881  0.1182E-13  0.1739E-04  0.6168E-07  0.1459E-02  0.2392E-03  0.4508E+01
   -0.599989   31.50968  0.1182E-13  0.1763E-04  0.6023E-07  0.1535E-02  0.2251E-03  0.4495E+01
   -0.649990   31.51050  0.1182E-13  0.1783E-04  0.5900E-07  0.1603E-02  0.2123E-03  0.4552E+01
   -0.699991   31.51127  0.1182E-13  0.1799E-04  0.5797E-07  0.1663E-02  0.2004E-03  0.4639E+01
   -0.749992   31.51200  0.1182E-13  0.1813E-04  0.5709E-07  0.1714E-02  0.1895E-03  0.4796E+01
   -0.799994   31.51270  0.1182E-13  0.1823E-04  0.5637E-07  0.1757E-02  0.1792E-03  0.4983E+01
   -0.849995   31.51338  0.1182E-13  0.1831E-04  0.5579E-07  0.1791E-02  0.1697E-03  0.5248E+01
   -0.899997   31.51403  0.1182E-13  0.1836E-04  0.5534E-07  0.1816E-02  0.1607E-03  0.5553E+01
   -0.949998   31.51466  0.1182E-13  0.1838E-04  0.5502E-07  0.1832E-02  0.1521E-03  0.5961E+01
   -1.000000   31.51529  0.1182E-13  0.1837E-04  0.5483E-07  0.1839E-02  0.1441E-03  0.6432E+01
   -1.050002   31.51590  0.1182E-13  0.1834E-04  0.5479E-07  0.1834E-02  0.1364E-03  0.7302E+01
   -1.100003   31.51651  0.1182E-13  0.1828E-04  0.5490E-07  0.1953E-02  0.1291E-03  0.2338E+02
   -1.150005   31.51708  0.1182E-13  0.1820E-04  0.5520E-07  0.1698E-02  0.1226E-03  0.5906E+02
   -1.200006   31.51773  0.1182E-13  0.1808E-04  0.5568E-07  0.1750E-02  0.1156E-03  0.1086E+02
   -1.250008   31.51835  0.1182E-13  0.1793E-04  0.5642E-07  0.1716E-02  0.1090E-03  0.1155E+02
   -1.300009   31.51898  0.1182E-13  0.1774E-04  0.5746E-07  0.1655E-02  0.1026E-03  0.1372E+02
   -1.350010   31.51964  0.1182E-13  0.1751E-04  0.5891E-07  0.1587E-02  0.9645E-04  0.1668E+02
   -1.400011   31.52031  0.1182E-13  0.1723E-04  0.6092E-07  0.1494E-02  0.9038E-04  0.2124E+02
   -1.450012   31.52103  0.1182E-13  0.1689E-04  0.6373E-07  0.1413E-02  0.8436E-04  0.2795E+02
   -1.500013   31.52180  0.1182E-13  0.1648E-04  0.6776E-07  0.1287E-02  0.7842E-04  0.4045E+02
   -1.550013   31.52266  0.1182E-13  0.1598E-04  0.7365E-07  0.1210E-02  0.7236E-04  0.6543E+02
   -1.600013   31.52360  0.1182E-13  0.1534E-04  0.8337E-07  0.1055E-02  0.6642E-04 -0.3217E+04
   -1.650013   31.52492  0.1182E-13  0.1449E-04  0.9867E-07  0.9772E-03  0.5951E-04  0.1280E+03
   -1.700012   31.52639  0.1182E-13  0.1334E-04  0.1262E-06  0.7785E-03  0.5268E-04  0.1156E+05
   -1.750011   31.52924  0.1182E-13  0.1201E-04  0.1691E-06  0.7082E-03  0.4330E-04  0.2562E+06
   -1.800010   31.53067  0.1182E-13  0.1039E-04  0.2639E-06  0.4750E-03  0.3746E-04  0.1614E+05
   -1.850008   31.54151  0.1182E-13  0.8773E-05  0.4453E-06  0.4665E-03  0.2512E-04  0.5656E+09
   -1.900006   31.53636  0.1182E-13  0.7006E-05  0.9395E-06  0.2164E-03  0.2116E-04  0.2831E+06
   -1.950003   31.56309  0.1182E-13  0.5057E-05  0.2196E-05  0.2344E-03  0.1099E-04 -0.1717E+07
   -2.000000   31.56212  0.1182E-13  0.0000E+00  0.0000E+00  0.0000E+00  0.2314E-04  0.0000E+00
