 1 - depth, m
 2 - temperature, C
 3 - salinity, kg/kg
 4 - turbulent kinetic energy, m**2/s**2
 5 - dissipation rate, m**2/s**3
 6 - kinematic heat conductance, m**2/s
 7 - modulus of horizontal velocity, m/s
 8 - Richardson number, n/d
   -0.000000   30.12359  0.6377E-14  0.4674E-05  0.2910E-06  0.5024E-04  0.7222E-03  0.3236E+05
   -0.049997   30.15335  0.6377E-14  0.8197E-05  0.1288E-06  0.1765E-03  0.4131E-03  0.4288E+02
   -0.099994   30.16514  0.6377E-14  0.9968E-05  0.8860E-07  0.4133E-03  0.2980E-03  0.9104E+02
   -0.149992   30.16820  0.6377E-14  0.1106E-04  0.7477E-07  0.4863E-03  0.2640E-03  0.4456E+02
   -0.199991   30.17070  0.6377E-14  0.1192E-04  0.6661E-07  0.6516E-03  0.2359E-03  0.2897E+02
   -0.249989   30.17252  0.6377E-14  0.1260E-04  0.6126E-07  0.7774E-03  0.2149E-03  0.2156E+02
   -0.299988   30.17400  0.6377E-14  0.1315E-04  0.5743E-07  0.9031E-03  0.1974E-03  0.1722E+02
   -0.349988   30.17525  0.6377E-14  0.1362E-04  0.5457E-07  0.1017E-02  0.1824E-03  0.1479E+02
   -0.399988   30.17633  0.6377E-14  0.1401E-04  0.5234E-07  0.1121E-02  0.1691E-03  0.1319E+02
   -0.449988   30.17729  0.6377E-14  0.1435E-04  0.5053E-07  0.1218E-02  0.1574E-03  0.1242E+02
   -0.499988   30.17816  0.6377E-14  0.1464E-04  0.4904E-07  0.1306E-02  0.1471E-03  0.1207E+02
   -0.549989   30.17896  0.6377E-14  0.1490E-04  0.4780E-07  0.1388E-02  0.1378E-03  0.1193E+02
   -0.599990   30.17970  0.6377E-14  0.1512E-04  0.4675E-07  0.1461E-02  0.1294E-03  0.1193E+02
   -0.649991   30.18039  0.6377E-14  0.1531E-04  0.4588E-07  0.1528E-02  0.1217E-03  0.1210E+02
   -0.699992   30.18104  0.6377E-14  0.1548E-04  0.4514E-07  0.1586E-02  0.1147E-03  0.1236E+02
   -0.749993   30.18166  0.6377E-14  0.1562E-04  0.4453E-07  0.1637E-02  0.1082E-03  0.1279E+02
   -0.799995   30.18225  0.6377E-14  0.1573E-04  0.4403E-07  0.1681E-02  0.1021E-03  0.1330E+02
   -0.849996   30.18282  0.6377E-14  0.1582E-04  0.4364E-07  0.1717E-02  0.9649E-04  0.1401E+02
   -0.899998   30.18338  0.6377E-14  0.1590E-04  0.4334E-07  0.1744E-02  0.9118E-04  0.1483E+02
   -0.950000   30.18392  0.6377E-14  0.1594E-04  0.4314E-07  0.1764E-02  0.8617E-04  0.1590E+02
   -1.000001   30.18445  0.6377E-14  0.1597E-04  0.4304E-07  0.1775E-02  0.8144E-04  0.1714E+02
   -1.050003   30.18497  0.6377E-14  0.1598E-04  0.4304E-07  0.1777E-02  0.7694E-04  0.1944E+02
   -1.100005   30.18549  0.6377E-14  0.1597E-04  0.4315E-07  0.1861E-02  0.7266E-04  0.6465E+02
   -1.150006   30.18599  0.6377E-14  0.1593E-04  0.4340E-07  0.1699E-02  0.6883E-04  0.1442E+03
   -1.200008   30.18653  0.6377E-14  0.1587E-04  0.4376E-07  0.1722E-02  0.6486E-04  0.2796E+02
   -1.250009   30.18706  0.6377E-14  0.1579E-04  0.4430E-07  0.1692E-02  0.6107E-04  0.2978E+02
   -1.300011   30.18759  0.6377E-14  0.1567E-04  0.4504E-07  0.1644E-02  0.5742E-04  0.3484E+02
   -1.350012   30.18814  0.6377E-14  0.1553E-04  0.4603E-07  0.1586E-02  0.5387E-04  0.4155E+02
   -1.400013   30.18871  0.6377E-14  0.1535E-04  0.4736E-07  0.1510E-02  0.5042E-04  0.5125E+02
   -1.450014   30.18931  0.6377E-14  0.1513E-04  0.4915E-07  0.1433E-02  0.4703E-04  0.6498E+02
   -1.500014   30.18994  0.6377E-14  0.1486E-04  0.5161E-07  0.1323E-02  0.4371E-04  0.8786E+02
   -1.550015   30.19063  0.6377E-14  0.1453E-04  0.5506E-07  0.1239E-02  0.4037E-04  0.1242E+03
   -1.600015   30.19138  0.6377E-14  0.1412E-04  0.6026E-07  0.1094E-02  0.3710E-04  0.2306E+03
   -1.650015   30.19228  0.6377E-14  0.1359E-04  0.6826E-07  0.1016E-02  0.3362E-04  0.5437E+03
   -1.700014   30.19329  0.6377E-14  0.1286E-04  0.8253E-07  0.8285E-03  0.3023E-04 -0.8301E+04
   -1.750013   30.19505  0.6377E-14  0.1189E-04  0.1059E-06  0.7525E-03  0.2576E-04  0.2200E+06
   -1.800012   30.19659  0.6377E-14  0.1058E-04  0.1537E-06  0.5285E-03  0.2221E-04  0.9849E+05
   -1.850010   30.20227  0.6377E-14  0.9071E-05  0.2450E-06  0.4814E-03  0.1624E-04  0.4712E+08
   -1.900008   30.20159  0.6377E-14  0.7248E-05  0.5101E-06  0.2240E-03  0.1322E-04  0.1737E+06
   -1.950006   30.22007  0.6377E-14  0.5042E-05  0.1289E-05  0.1813E-03  0.7344E-05 -0.3224E+07
   -2.000003   30.22305  0.6377E-14  0.0000E+00  0.0000E+00  0.0000E+00  0.1270E-04  0.0000E+00
