 1 - depth, m
 2 - temperature, C
 3 - salinity, kg/kg
 4 - turbulent kinetic energy, m**2/s**2
 5 - dissipation rate, m**2/s**3
 6 - kinematic heat conductance, m**2/s
 7 - modulus of horizontal velocity, m/s
 8 - Richardson number, n/d
   -0.000000   30.15697  0.1876E-13  0.4610E-05  0.2792E-06  0.4950E-04  0.1573E-02  0.8501E+04
   -0.049997   30.18567  0.1876E-13  0.7897E-05  0.1245E-06  0.1731E-03  0.8970E-03  0.5744E+04
   -0.099994   30.19681  0.1876E-13  0.9585E-05  0.8554E-07  0.3923E-03  0.6542E-03  0.1942E+02
   -0.149992   30.19989  0.1876E-13  0.1064E-04  0.7183E-07  0.4718E-03  0.5773E-03  0.9467E+01
   -0.199991   30.20234  0.1876E-13  0.1146E-04  0.6379E-07  0.6299E-03  0.5150E-03  0.6084E+01
   -0.249989   30.20413  0.1876E-13  0.1211E-04  0.5852E-07  0.7533E-03  0.4683E-03  0.4495E+01
   -0.299989   30.20558  0.1876E-13  0.1264E-04  0.5476E-07  0.8759E-03  0.4296E-03  0.3573E+01
   -0.349988   30.20680  0.1876E-13  0.1309E-04  0.5194E-07  0.9872E-03  0.3963E-03  0.3060E+01
   -0.399988   30.20785  0.1876E-13  0.1346E-04  0.4975E-07  0.1089E-02  0.3670E-03  0.2723E+01
   -0.449988   30.20879  0.1876E-13  0.1378E-04  0.4796E-07  0.1184E-02  0.3412E-03  0.2562E+01
   -0.499988   30.20964  0.1876E-13  0.1406E-04  0.4649E-07  0.1271E-02  0.3183E-03  0.2488E+01
   -0.549989   30.21041  0.1876E-13  0.1430E-04  0.4525E-07  0.1351E-02  0.2979E-03  0.2462E+01
   -0.599990   30.21112  0.1876E-13  0.1451E-04  0.4421E-07  0.1423E-02  0.2795E-03  0.2456E+01
   -0.649991   30.21179  0.1876E-13  0.1469E-04  0.4333E-07  0.1489E-02  0.2626E-03  0.2494E+01
   -0.699992   30.21242  0.1876E-13  0.1484E-04  0.4259E-07  0.1546E-02  0.2472E-03  0.2542E+01
   -0.749993   30.21302  0.1876E-13  0.1497E-04  0.4196E-07  0.1597E-02  0.2329E-03  0.2632E+01
   -0.799995   30.21359  0.1876E-13  0.1507E-04  0.4144E-07  0.1640E-02  0.2197E-03  0.2733E+01
   -0.849996   30.21414  0.1876E-13  0.1515E-04  0.4102E-07  0.1676E-02  0.2073E-03  0.2879E+01
   -0.899998   30.21467  0.1876E-13  0.1522E-04  0.4069E-07  0.1704E-02  0.1957E-03  0.3042E+01
   -0.950000   30.21519  0.1876E-13  0.1526E-04  0.4045E-07  0.1724E-02  0.1848E-03  0.3260E+01
   -1.000001   30.21569  0.1876E-13  0.1528E-04  0.4031E-07  0.1736E-02  0.1745E-03  0.3505E+01
   -1.050003   30.21619  0.1876E-13  0.1528E-04  0.4026E-07  0.1739E-02  0.1647E-03  0.3976E+01
   -1.100005   30.21669  0.1876E-13  0.1526E-04  0.4031E-07  0.1817E-02  0.1553E-03  0.1327E+02
   -1.150007   30.21716  0.1876E-13  0.1522E-04  0.4048E-07  0.1670E-02  0.1470E-03  0.2914E+02
   -1.200008   30.21767  0.1876E-13  0.1516E-04  0.4076E-07  0.1689E-02  0.1384E-03  0.5677E+01
   -1.250010   30.21816  0.1876E-13  0.1508E-04  0.4120E-07  0.1660E-02  0.1302E-03  0.6025E+01
   -1.300011   30.21867  0.1876E-13  0.1496E-04  0.4181E-07  0.1615E-02  0.1223E-03  0.7027E+01
   -1.350012   30.21918  0.1876E-13  0.1482E-04  0.4266E-07  0.1559E-02  0.1146E-03  0.8341E+01
   -1.400013   30.21972  0.1876E-13  0.1465E-04  0.4380E-07  0.1487E-02  0.1072E-03  0.1023E+02
   -1.450014   30.22028  0.1876E-13  0.1444E-04  0.4535E-07  0.1412E-02  0.9991E-04  0.1288E+02
   -1.500015   30.22086  0.1876E-13  0.1418E-04  0.4748E-07  0.1306E-02  0.9276E-04  0.1723E+02
   -1.550015   30.22150  0.1876E-13  0.1387E-04  0.5048E-07  0.1222E-02  0.8561E-04  0.2399E+02
   -1.600015   30.22219  0.1876E-13  0.1348E-04  0.5499E-07  0.1079E-02  0.7861E-04  0.4196E+02
   -1.650015   30.22301  0.1876E-13  0.1299E-04  0.6187E-07  0.1000E-02  0.7119E-04  0.1439E+03
   -1.700014   30.22391  0.1876E-13  0.1232E-04  0.7416E-07  0.8189E-03  0.6404E-04 -0.7687E+02
   -1.750013   30.22546  0.1876E-13  0.1141E-04  0.9450E-07  0.7415E-03  0.5473E-04  0.1722E+06
   -1.800012   30.22685  0.1876E-13  0.1017E-04  0.1358E-06  0.5279E-03  0.4713E-04  0.4270E+05
   -1.850010   30.23178  0.1876E-13  0.8691E-05  0.2151E-06  0.4730E-03  0.3461E-04  0.2583E+08
   -1.900008   30.23153  0.1876E-13  0.6863E-05  0.4498E-06  0.2113E-03  0.2790E-04  0.2027E+07
   -1.950006   30.24809  0.1876E-13  0.4738E-05  0.1145E-05  0.1742E-03  0.1524E-04 -0.9295E+06
   -2.000003   30.25073  0.1876E-13  0.0000E+00  0.0000E+00  0.0000E+00  0.2666E-04  0.0000E+00
