 1 - depth, m
 2 - temperature, C
 3 - salinity, kg/kg
 4 - turbulent kinetic energy, m**2/s**2
 5 - dissipation rate, m**2/s**3
 6 - kinematic heat conductance, m**2/s
 7 - modulus of horizontal velocity, m/s
 8 - Richardson number, n/d
   -0.000000   30.57245  0.3540E-14  0.5013E-05  0.3156E-06  0.4947E-04  0.1254E-02  0.6392E+04
   -0.049997   30.60586  0.3540E-14  0.8630E-05  0.1404E-06  0.1871E-03  0.7039E-03  0.1479E+03
   -0.099994   30.61770  0.3540E-14  0.1043E-04  0.9740E-07  0.4029E-03  0.5224E-03  0.3160E+02
   -0.149992   30.62114  0.3540E-14  0.1157E-04  0.8177E-07  0.4897E-03  0.4617E-03  0.1562E+02
   -0.199991   30.62384  0.3540E-14  0.1245E-04  0.7258E-07  0.6516E-03  0.4128E-03  0.1001E+02
   -0.249989   30.62581  0.3540E-14  0.1315E-04  0.6654E-07  0.7775E-03  0.3761E-03  0.7389E+01
   -0.299988   30.62742  0.3540E-14  0.1371E-04  0.6222E-07  0.9039E-03  0.3455E-03  0.5874E+01
   -0.349988   30.62876  0.3540E-14  0.1418E-04  0.5897E-07  0.1018E-02  0.3194E-03  0.5014E+01
   -0.399988   30.62991  0.3540E-14  0.1457E-04  0.5643E-07  0.1122E-02  0.2962E-03  0.4466E+01
   -0.449988   30.63094  0.3540E-14  0.1490E-04  0.5436E-07  0.1219E-02  0.2758E-03  0.4185E+01
   -0.499988   30.63187  0.3540E-14  0.1519E-04  0.5263E-07  0.1307E-02  0.2577E-03  0.4070E+01
   -0.549989   30.63271  0.3540E-14  0.1544E-04  0.5118E-07  0.1388E-02  0.2415E-03  0.4006E+01
   -0.599989   30.63350  0.3540E-14  0.1564E-04  0.4995E-07  0.1462E-02  0.2269E-03  0.4006E+01
   -0.649990   30.63423  0.3540E-14  0.1582E-04  0.4889E-07  0.1528E-02  0.2135E-03  0.4043E+01
   -0.699992   30.63491  0.3540E-14  0.1597E-04  0.4800E-07  0.1586E-02  0.2012E-03  0.4131E+01
   -0.749993   30.63556  0.3540E-14  0.1609E-04  0.4723E-07  0.1636E-02  0.1898E-03  0.4253E+01
   -0.799994   30.63618  0.3540E-14  0.1618E-04  0.4659E-07  0.1679E-02  0.1792E-03  0.4427E+01
   -0.849996   30.63678  0.3540E-14  0.1625E-04  0.4606E-07  0.1713E-02  0.1694E-03  0.4638E+01
   -0.899998   30.63736  0.3540E-14  0.1630E-04  0.4563E-07  0.1740E-02  0.1601E-03  0.4912E+01
   -0.949999   30.63792  0.3540E-14  0.1632E-04  0.4530E-07  0.1758E-02  0.1513E-03  0.5239E+01
   -1.000001   30.63847  0.3540E-14  0.1632E-04  0.4508E-07  0.1768E-02  0.1430E-03  0.5649E+01
   -1.050003   30.63900  0.3540E-14  0.1630E-04  0.4497E-07  0.1768E-02  0.1352E-03  0.6373E+01
   -1.100004   30.63953  0.3540E-14  0.1625E-04  0.4498E-07  0.1862E-02  0.1277E-03  0.2096E+02
   -1.150006   30.64003  0.3540E-14  0.1618E-04  0.4512E-07  0.1673E-02  0.1210E-03  0.4862E+02
   -1.200008   30.64059  0.3540E-14  0.1609E-04  0.4540E-07  0.1706E-02  0.1140E-03  0.9202E+01
   -1.250009   30.64112  0.3540E-14  0.1597E-04  0.4586E-07  0.1675E-02  0.1073E-03  0.9774E+01
   -1.300010   30.64166  0.3540E-14  0.1582E-04  0.4654E-07  0.1623E-02  0.1009E-03  0.1142E+02
   -1.350012   30.64221  0.3540E-14  0.1564E-04  0.4749E-07  0.1563E-02  0.9467E-04  0.1370E+02
   -1.400013   30.64278  0.3540E-14  0.1542E-04  0.4881E-07  0.1483E-02  0.8860E-04  0.1696E+02
   -1.450014   30.64338  0.3540E-14  0.1515E-04  0.5064E-07  0.1406E-02  0.8262E-04  0.2172E+02
   -1.500014   30.64401  0.3540E-14  0.1483E-04  0.5323E-07  0.1289E-02  0.7675E-04  0.2983E+02
   -1.550014   30.64471  0.3540E-14  0.1444E-04  0.5695E-07  0.1210E-02  0.7082E-04  0.4298E+02
   -1.600015   30.64545  0.3540E-14  0.1397E-04  0.6282E-07  0.1061E-02  0.6504E-04  0.9337E+02
   -1.650014   30.64638  0.3540E-14  0.1335E-04  0.7202E-07  0.9875E-03  0.5869E-04  0.1296E+04
   -1.700014   30.64742  0.3540E-14  0.1250E-04  0.8860E-07  0.8001E-03  0.5254E-04 -0.9656E+04
   -1.750013   30.64938  0.3540E-14  0.1140E-04  0.1155E-06  0.7250E-03  0.4401E-04  0.2304E+06
   -1.800012   30.65073  0.3540E-14  0.9970E-05  0.1727E-06  0.4986E-03  0.3793E-04  0.5378E+06
   -1.850010   30.65761  0.3540E-14  0.8427E-05  0.2826E-06  0.4654E-03  0.2656E-04  0.6238E+08
   -1.900008   30.65548  0.3540E-14  0.6691E-05  0.5939E-06  0.2139E-03  0.2190E-04 -0.1064E+08
   -1.950005   30.67466  0.3540E-14  0.4696E-05  0.1466E-05  0.1972E-03  0.1168E-04 -0.2475E+06
   -2.000002   30.67581  0.3540E-14  0.0000E+00  0.0000E+00  0.0000E+00  0.2230E-04  0.0000E+00
