 1 - depth, m
 2 - temperature, C
 3 - salinity, kg/kg
 4 - turbulent kinetic energy, m**2/s**2
 5 - dissipation rate, m**2/s**3
 6 - kinematic heat conductance, m**2/s
 7 - modulus of horizontal velocity, m/s
 8 - Richardson number, n/d
   -0.000000   30.43147  0.1310E-13  0.4743E-05  0.2932E-06  0.4997E-04  0.1179E-02  0.4742E+04
   -0.049997   30.46179  0.1310E-13  0.8193E-05  0.1306E-06  0.1765E-03  0.6710E-03  0.2183E+03
   -0.099994   30.47350  0.1310E-13  0.9938E-05  0.8999E-07  0.4005E-03  0.4906E-03  0.3851E+02
   -0.149992   30.47670  0.1310E-13  0.1103E-04  0.7567E-07  0.4791E-03  0.4334E-03  0.1881E+02
   -0.199991   30.47926  0.1310E-13  0.1187E-04  0.6724E-07  0.6399E-03  0.3869E-03  0.1213E+02
   -0.249989   30.48112  0.1310E-13  0.1254E-04  0.6170E-07  0.7644E-03  0.3522E-03  0.8991E+01
   -0.299989   30.48263  0.1310E-13  0.1308E-04  0.5774E-07  0.8882E-03  0.3232E-03  0.7150E+01
   -0.349988   30.48390  0.1310E-13  0.1353E-04  0.5476E-07  0.1000E-02  0.2984E-03  0.6133E+01
   -0.399988   30.48500  0.1310E-13  0.1391E-04  0.5243E-07  0.1103E-02  0.2765E-03  0.5453E+01
   -0.449988   30.48597  0.1310E-13  0.1424E-04  0.5054E-07  0.1198E-02  0.2572E-03  0.5138E+01
   -0.499988   30.48685  0.1310E-13  0.1452E-04  0.4896E-07  0.1285E-02  0.2401E-03  0.4984E+01
   -0.549989   30.48766  0.1310E-13  0.1476E-04  0.4764E-07  0.1365E-02  0.2248E-03  0.4935E+01
   -0.599990   30.48840  0.1310E-13  0.1496E-04  0.4652E-07  0.1437E-02  0.2110E-03  0.4918E+01
   -0.649991   30.48909  0.1310E-13  0.1514E-04  0.4557E-07  0.1502E-02  0.1984E-03  0.4997E+01
   -0.699992   30.48974  0.1310E-13  0.1528E-04  0.4476E-07  0.1560E-02  0.1868E-03  0.5087E+01
   -0.749993   30.49036  0.1310E-13  0.1540E-04  0.4408E-07  0.1610E-02  0.1761E-03  0.5272E+01
   -0.799995   30.49096  0.1310E-13  0.1550E-04  0.4350E-07  0.1652E-02  0.1661E-03  0.5465E+01
   -0.849996   30.49152  0.1310E-13  0.1557E-04  0.4303E-07  0.1686E-02  0.1568E-03  0.5765E+01
   -0.899998   30.49207  0.1310E-13  0.1563E-04  0.4266E-07  0.1713E-02  0.1481E-03  0.6078E+01
   -0.950000   30.49261  0.1310E-13  0.1566E-04  0.4239E-07  0.1731E-02  0.1399E-03  0.6527E+01
   -1.000001   30.49313  0.1310E-13  0.1566E-04  0.4221E-07  0.1742E-02  0.1321E-03  0.7004E+01
   -1.050003   30.49365  0.1310E-13  0.1565E-04  0.4213E-07  0.1742E-02  0.1247E-03  0.7954E+01
   -1.100005   30.49416  0.1310E-13  0.1562E-04  0.4216E-07  0.1830E-02  0.1177E-03  0.2617E+02
   -1.150006   30.49464  0.1310E-13  0.1556E-04  0.4231E-07  0.1656E-02  0.1115E-03  0.5968E+02
   -1.200008   30.49516  0.1310E-13  0.1548E-04  0.4260E-07  0.1684E-02  0.1050E-03  0.1145E+02
   -1.250010   30.49568  0.1310E-13  0.1538E-04  0.4304E-07  0.1654E-02  0.9875E-04  0.1212E+02
   -1.300011   30.49620  0.1310E-13  0.1524E-04  0.4369E-07  0.1604E-02  0.9276E-04  0.1420E+02
   -1.350012   30.49673  0.1310E-13  0.1508E-04  0.4458E-07  0.1545E-02  0.8697E-04  0.1692E+02
   -1.400013   30.49728  0.1310E-13  0.1488E-04  0.4581E-07  0.1468E-02  0.8132E-04  0.2091E+02
   -1.450014   30.49785  0.1310E-13  0.1464E-04  0.4750E-07  0.1391E-02  0.7578E-04  0.2652E+02
   -1.500015   30.49846  0.1310E-13  0.1434E-04  0.4985E-07  0.1278E-02  0.7034E-04  0.3602E+02
   -1.550015   30.49912  0.1310E-13  0.1399E-04  0.5320E-07  0.1197E-02  0.6488E-04  0.5087E+02
   -1.600015   30.49983  0.1310E-13  0.1355E-04  0.5838E-07  0.1049E-02  0.5954E-04  0.9425E+02
   -1.650015   30.50070  0.1310E-13  0.1298E-04  0.6642E-07  0.9767E-03  0.5378E-04  0.6048E+03
   -1.700014   30.50166  0.1310E-13  0.1221E-04  0.8104E-07  0.7891E-03  0.4822E-04  0.7032E+05
   -1.750013   30.50342  0.1310E-13  0.1118E-04  0.1052E-06  0.7168E-03  0.4065E-04  0.3616E+05
   -1.800012   30.50488  0.1310E-13  0.9791E-05  0.1568E-06  0.4955E-03  0.3485E-04  0.1500E+06
   -1.850010   30.51084  0.1310E-13  0.8246E-05  0.2523E-06  0.4565E-03  0.2460E-04  0.5620E+07
   -1.900008   30.50956  0.1310E-13  0.6479E-05  0.5251E-06  0.2053E-03  0.2006E-04 -0.3541E+06
   -1.950006   30.52794  0.1310E-13  0.4541E-05  0.1315E-05  0.1913E-03  0.1058E-04 -0.1288E+07
   -2.000003   30.52915  0.1310E-13  0.0000E+00  0.0000E+00  0.0000E+00  0.2009E-04  0.0000E+00
