 1 - depth, m
 2 - temperature, C
 3 - salinity, kg/kg
 4 - turbulent kinetic energy, m**2/s**2
 5 - dissipation rate, m**2/s**3
 6 - kinematic heat conductance, m**2/s
 7 - modulus of horizontal velocity, m/s
 8 - Richardson number, n/d
   -0.000000   20.59799  0.1269E-12  0.9161E-08  0.1282E-08  0.3144E-08  0.8199E-02  0.2700E+04
   -0.049997   17.18569  0.1487E-12  0.7114E-10  0.8737E-11  0.1236E-09  0.3368E-02  0.9898E+04
   -0.099995   14.11710  0.1524E-12  0.2432E-10  0.1040E-11  0.1000E-09  0.1352E-02  0.3264E+05
   -0.149993   11.57626  0.1528E-12  0.7391E-09  0.1109E-11  0.1000E-09  0.5363E-03  0.9858E+05
   -0.199991    9.60748  0.1529E-12  0.3885E-08  0.2320E-11  0.1488E-09  0.2103E-03  0.2777E+06
   -0.249990    8.17799  0.1529E-12  0.1424E-07  0.7122E-11  0.7786E-09  0.8157E-04  0.7359E+06
   -0.299989    7.20915  0.1529E-12  0.4707E-07  0.2275E-10  0.5722E-08  0.3113E-04  0.1740E+07
   -0.349989    6.61230  0.1529E-12  0.1422E-06  0.6769E-10  0.6416E-07  0.1112E-04  0.2841E+07
   -0.399989    6.31821  0.1529E-12  0.3087E-06  0.1502E-09  0.1388E-05  0.2291E-05  0.1706E+08
   -0.449989    6.20924  0.1529E-12  0.4442E-06  0.2198E-09  0.1225E-04  0.3906E-06  0.1211E+09
   -0.499990    6.18636  0.1529E-12  0.5044E-06  0.2520E-09  0.4376E-04  0.6042E-07  0.5640E+09
   -0.549990    6.18514  0.1529E-12  0.5425E-06  0.2734E-09  0.7239E-04  0.2719E-07  0.7743E+09
   -0.599991    6.18489  0.1529E-12  0.5785E-06  0.2952E-09  0.1069E-03  0.1961E-07  0.7056E+09
   -0.649993    6.18482  0.1529E-12  0.6148E-06  0.3190E-09  0.1512E-03  0.1501E-07  0.4747E+09
   -0.699994    6.18482  0.1529E-12  0.6476E-06  0.3422E-09  0.2933E-03  0.1179E-07  0.9514E+10
   -0.749996    6.18485  0.1529E-12  0.6749E-06  0.3630E-09  0.3926E-03  0.9742E-08  0.1928E+11
   -0.799997    6.18490  0.1529E-12  0.6991E-06  0.3827E-09  0.4256E-03  0.8303E-08  0.1500E+10
   -0.849999    6.18497  0.1529E-12  0.7240E-06  0.4041E-09  0.4249E-03  0.7327E-08  0.2031E+10
   -0.900001    6.18508  0.1529E-12  0.7509E-06  0.4285E-09  0.4263E-03  0.6448E-08  0.3072E+10
   -0.950003    6.18521  0.1529E-12  0.7795E-06  0.4558E-09  0.4283E-03  0.5659E-08  0.4482E+10
   -1.000004    6.18538  0.1529E-12  0.8093E-06  0.4861E-09  0.4303E-03  0.4956E-08  0.6409E+10
   -1.050006    6.18558  0.1529E-12  0.8401E-06  0.5193E-09  0.4320E-03  0.4327E-08  0.9093E+10
   -1.100008    6.18581  0.1529E-12  0.8715E-06  0.5554E-09  0.4334E-03  0.3768E-08  0.1379E+11
   -1.150010    6.18608  0.1529E-12  0.9022E-06  0.5935E-09  0.4521E-03  0.3271E-08  0.5130E+11
   -1.200012    6.18637  0.1529E-12  0.9326E-06  0.6344E-09  0.4466E-03  0.2855E-08  0.2774E+12
   -1.250013    6.18671  0.1529E-12  0.9635E-06  0.6797E-09  0.4297E-03  0.2480E-08  0.3844E+11
   -1.300015    6.18709  0.1529E-12  0.9945E-06  0.7298E-09  0.4256E-03  0.2132E-08  0.5146E+11
   -1.350016    6.18753  0.1529E-12  0.1025E-05  0.7845E-09  0.4198E-03  0.1825E-08  0.7451E+11
   -1.400017    6.18801  0.1529E-12  0.1053E-05  0.8445E-09  0.4121E-03  0.1552E-08  0.1097E+12
   -1.450018    6.18855  0.1529E-12  0.1081E-05  0.9109E-09  0.4022E-03  0.1313E-08  0.1645E+12
   -1.500019    6.18914  0.1529E-12  0.1106E-05  0.9854E-09  0.3898E-03  0.1101E-08  0.2530E+12
   -1.550020    6.18981  0.1529E-12  0.1129E-05  0.1070E-08  0.3745E-03  0.9148E-09  0.4012E+12
   -1.600020    6.19056  0.1529E-12  0.1150E-05  0.1169E-08  0.3560E-03  0.7512E-09  0.6631E+12
   -1.650020    6.19141  0.1529E-12  0.1166E-05  0.1287E-08  0.3339E-03  0.6085E-09  0.1157E+13
   -1.700019    6.19238  0.1529E-12  0.1178E-05  0.1433E-08  0.3075E-03  0.4836E-09  0.2172E+13
   -1.750019    6.19351  0.1529E-12  0.1184E-05  0.1626E-08  0.2761E-03  0.3754E-09  0.4538E+13
   -1.800018    6.19487  0.1529E-12  0.1181E-05  0.1899E-08  0.2388E-03  0.2818E-09  0.8969E+13
   -1.850016    6.19656  0.1529E-12  0.1165E-05  0.2337E-08  0.1927E-03  0.2018E-09  0.1059E+14
   -1.900014    6.19885  0.1529E-12  0.1121E-05  0.3212E-08  0.1437E-03  0.1339E-09 -0.3024E+13
   -1.950012    6.20230  0.1529E-12  0.8118E-06  0.1008E-07  0.1268E-04  0.8195E-10 -0.1372E+16
   -2.000009    6.25089  0.1529E-12  0.0000E+00  0.0000E+00  0.0000E+00  0.8177E-10  0.0000E+00
