 1 - depth, m
 2 - temperature, C
 3 - salinity, kg/kg
 4 - turbulent kinetic energy, m**2/s**2
 5 - dissipation rate, m**2/s**3
 6 - kinematic heat conductance, m**2/s
 7 - modulus of horizontal velocity, m/s
 8 - Richardson number, n/d
   -0.000000   30.23263  0.6407E-13  0.4702E-05  0.2860E-06  0.4998E-04  0.1927E-02  0.7302E+04
   -0.049997   30.26149  0.6407E-13  0.7961E-05  0.1274E-06  0.1716E-03  0.1105E-02  0.2483E+04
   -0.099994   30.27287  0.6407E-13  0.9651E-05  0.8718E-07  0.3906E-03  0.8057E-03  0.1280E+02
   -0.149992   30.27599  0.6407E-13  0.1071E-04  0.7307E-07  0.4696E-03  0.7111E-03  0.6210E+01
   -0.199991   30.27849  0.6407E-13  0.1152E-04  0.6480E-07  0.6271E-03  0.6343E-03  0.3980E+01
   -0.249989   30.28030  0.6407E-13  0.1218E-04  0.5938E-07  0.7501E-03  0.5769E-03  0.2927E+01
   -0.299989   30.28177  0.6407E-13  0.1271E-04  0.5552E-07  0.8724E-03  0.5291E-03  0.2326E+01
   -0.349988   30.28301  0.6407E-13  0.1315E-04  0.5262E-07  0.9834E-03  0.4882E-03  0.1985E+01
   -0.399988   30.28408  0.6407E-13  0.1352E-04  0.5036E-07  0.1085E-02  0.4520E-03  0.1768E+01
   -0.449988   30.28502  0.6407E-13  0.1384E-04  0.4853E-07  0.1179E-02  0.4202E-03  0.1657E+01
   -0.499988   30.28588  0.6407E-13  0.1411E-04  0.4701E-07  0.1266E-02  0.3921E-03  0.1613E+01
   -0.549989   30.28666  0.6407E-13  0.1435E-04  0.4573E-07  0.1346E-02  0.3669E-03  0.1589E+01
   -0.599990   30.28738  0.6407E-13  0.1456E-04  0.4466E-07  0.1418E-02  0.3442E-03  0.1591E+01
   -0.649991   30.28805  0.6407E-13  0.1473E-04  0.4375E-07  0.1483E-02  0.3235E-03  0.1609E+01
   -0.699992   30.28869  0.6407E-13  0.1488E-04  0.4298E-07  0.1541E-02  0.3044E-03  0.1646E+01
   -0.749993   30.28929  0.6407E-13  0.1501E-04  0.4233E-07  0.1591E-02  0.2869E-03  0.1698E+01
   -0.799995   30.28986  0.6407E-13  0.1511E-04  0.4179E-07  0.1634E-02  0.2706E-03  0.1770E+01
   -0.849996   30.29042  0.6407E-13  0.1519E-04  0.4135E-07  0.1669E-02  0.2553E-03  0.1858E+01
   -0.899998   30.29095  0.6407E-13  0.1525E-04  0.4101E-07  0.1697E-02  0.2410E-03  0.1971E+01
   -0.950000   30.29147  0.6407E-13  0.1528E-04  0.4076E-07  0.1717E-02  0.2276E-03  0.2106E+01
   -1.000001   30.29198  0.6407E-13  0.1530E-04  0.4060E-07  0.1728E-02  0.2149E-03  0.2274E+01
   -1.050003   30.29248  0.6407E-13  0.1530E-04  0.4054E-07  0.1731E-02  0.2028E-03  0.2573E+01
   -1.100005   30.29298  0.6407E-13  0.1528E-04  0.4059E-07  0.1811E-02  0.1913E-03  0.8591E+01
   -1.150006   30.29345  0.6407E-13  0.1523E-04  0.4075E-07  0.1659E-02  0.1811E-03  0.1910E+02
   -1.200008   30.29396  0.6407E-13  0.1517E-04  0.4104E-07  0.1679E-02  0.1705E-03  0.3694E+01
   -1.250009   30.29446  0.6407E-13  0.1508E-04  0.4148E-07  0.1650E-02  0.1604E-03  0.3934E+01
   -1.300011   30.29497  0.6407E-13  0.1496E-04  0.4210E-07  0.1604E-02  0.1506E-03  0.4587E+01
   -1.350012   30.29549  0.6407E-13  0.1482E-04  0.4297E-07  0.1548E-02  0.1412E-03  0.5472E+01
   -1.400013   30.29603  0.6407E-13  0.1464E-04  0.4414E-07  0.1475E-02  0.1320E-03  0.6720E+01
   -1.450014   30.29659  0.6407E-13  0.1442E-04  0.4573E-07  0.1399E-02  0.1230E-03  0.8511E+01
   -1.500015   30.29718  0.6407E-13  0.1416E-04  0.4793E-07  0.1292E-02  0.1142E-03  0.1143E+02
   -1.550015   30.29783  0.6407E-13  0.1383E-04  0.5103E-07  0.1208E-02  0.1053E-03  0.1605E+02
   -1.600015   30.29852  0.6407E-13  0.1343E-04  0.5574E-07  0.1069E-02  0.9670E-04  0.2813E+02
   -1.650015   30.29935  0.6407E-13  0.1292E-04  0.6299E-07  0.9895E-03  0.8753E-04  0.8502E+03
   -1.700014   30.30028  0.6407E-13  0.1222E-04  0.7603E-07  0.8107E-03  0.7858E-04  0.4121E+03
   -1.750013   30.30189  0.6407E-13  0.1128E-04  0.9752E-07  0.7337E-03  0.6689E-04  0.4178E+04
   -1.800012   30.30331  0.6407E-13  0.9993E-05  0.1429E-06  0.5128E-03  0.5744E-04  0.3777E+05
   -1.850010   30.30858  0.6407E-13  0.8515E-05  0.2274E-06  0.4703E-03  0.4158E-04  0.4747E+07
   -1.900008   30.30799  0.6407E-13  0.6762E-05  0.4714E-06  0.2142E-03  0.3372E-04  0.2741E+05
   -1.950006   30.32520  0.6407E-13  0.4683E-05  0.1204E-05  0.1784E-03  0.1831E-04 -0.3674E+06
   -2.000003   30.32806  0.6407E-13  0.0000E+00  0.0000E+00  0.0000E+00  0.3271E-04  0.0000E+00
