 1 - depth, m
 2 - temperature, C
 3 - salinity, kg/kg
 4 - turbulent kinetic energy, m**2/s**2
 5 - dissipation rate, m**2/s**3
 6 - kinematic heat conductance, m**2/s
 7 - modulus of horizontal velocity, m/s
 8 - Richardson number, n/d
   -0.000000   30.27436  0.2416E-14  0.5592E-05  0.3207E-06  0.5106E-04  0.3455E-02  0.7630E+03
   -0.049997   30.30735  0.2416E-14  0.9038E-05  0.1387E-06  0.2135E-03  0.1834E-02  0.4398E+02
   -0.099994   30.31664  0.2416E-14  0.1061E-04  0.9910E-07  0.3918E-03  0.1457E-02  0.6269E+01
   -0.149992   30.32012  0.2416E-14  0.1166E-04  0.8359E-07  0.4927E-03  0.1300E-02  0.2447E+01
   -0.199991   30.32278  0.2416E-14  0.1249E-04  0.7450E-07  0.6298E-03  0.1177E-02  0.1648E+01
   -0.249989   30.32479  0.2416E-14  0.1317E-04  0.6849E-07  0.7414E-03  0.1082E-02  0.1355E+01
   -0.299988   30.32646  0.2416E-14  0.1376E-04  0.6401E-07  0.8589E-03  0.9976E-03  0.1304E+01
   -0.349988   30.32786  0.2416E-14  0.1431E-04  0.6041E-07  0.9872E-03  0.9180E-03  0.1343E+01
   -0.399988   30.32905  0.2416E-14  0.1480E-04  0.5744E-07  0.1121E-02  0.8409E-03  0.1358E+01
   -0.449988   30.33007  0.2416E-14  0.1525E-04  0.5495E-07  0.1253E-02  0.7696E-03  0.1365E+01
   -0.499988   30.33097  0.2416E-14  0.1565E-04  0.5287E-07  0.1376E-02  0.7053E-03  0.1370E+01
   -0.549989   30.33178  0.2416E-14  0.1598E-04  0.5115E-07  0.1489E-02  0.6477E-03  0.1363E+01
   -0.599989   30.33251  0.2416E-14  0.1627E-04  0.4973E-07  0.1591E-02  0.5961E-03  0.1354E+01
   -0.649991   30.33318  0.2416E-14  0.1650E-04  0.4856E-07  0.1680E-02  0.5497E-03  0.1338E+01
   -0.699992   30.33381  0.2416E-14  0.1669E-04  0.4761E-07  0.1754E-02  0.5081E-03  0.1320E+01
   -0.749993   30.33440  0.2416E-14  0.1684E-04  0.4685E-07  0.1815E-02  0.4707E-03  0.1298E+01
   -0.799995   30.33497  0.2416E-14  0.1694E-04  0.4627E-07  0.1861E-02  0.4371E-03  0.1274E+01
   -0.849996   30.33551  0.2416E-14  0.1701E-04  0.4583E-07  0.1893E-02  0.4070E-03  0.1247E+01
   -0.899998   30.33604  0.2416E-14  0.1704E-04  0.4554E-07  0.1912E-02  0.3798E-03  0.1221E+01
   -0.949999   30.33655  0.2416E-14  0.1705E-04  0.4537E-07  0.1918E-02  0.3554E-03  0.1195E+01
   -1.000001   30.33706  0.2416E-14  0.1703E-04  0.4533E-07  0.1914E-02  0.3335E-03  0.1179E+01
   -1.050003   30.33756  0.2416E-14  0.1699E-04  0.4541E-07  0.1896E-02  0.3136E-03  0.1199E+01
   -1.100005   30.33807  0.2416E-14  0.1692E-04  0.4559E-07  0.2046E-02  0.2958E-03  0.3377E+01
   -1.150006   30.33853  0.2416E-14  0.1683E-04  0.4591E-07  0.1723E-02  0.2814E-03  0.8539E+01
   -1.200008   30.33907  0.2416E-14  0.1672E-04  0.4637E-07  0.1799E-02  0.2654E-03  0.1560E+01
   -1.250009   30.33959  0.2416E-14  0.1658E-04  0.4703E-07  0.1763E-02  0.2505E-03  0.1651E+01
   -1.300011   30.34011  0.2416E-14  0.1641E-04  0.4794E-07  0.1700E-02  0.2361E-03  0.1942E+01
   -1.350012   30.34065  0.2416E-14  0.1620E-04  0.4916E-07  0.1628E-02  0.2220E-03  0.2347E+01
   -1.400013   30.34122  0.2416E-14  0.1595E-04  0.5081E-07  0.1536E-02  0.2083E-03  0.2941E+01
   -1.450014   30.34181  0.2416E-14  0.1566E-04  0.5308E-07  0.1447E-02  0.1946E-03  0.3824E+01
   -1.500014   30.34245  0.2416E-14  0.1530E-04  0.5626E-07  0.1323E-02  0.1811E-03  0.5359E+01
   -1.550015   30.34315  0.2416E-14  0.1487E-04  0.6086E-07  0.1234E-02  0.1674E-03  0.8406E+01
   -1.600015   30.34392  0.2416E-14  0.1432E-04  0.6817E-07  0.1082E-02  0.1538E-03  0.8659E+01
   -1.650014   30.34493  0.2416E-14  0.1362E-04  0.7964E-07  0.9930E-03  0.1386E-03  0.1058E+03
   -1.700014   30.34609  0.2416E-14  0.1266E-04  0.1001E-06  0.8053E-03  0.1234E-03  0.1603E+05
   -1.750013   30.34817  0.2416E-14  0.1147E-04  0.1325E-06  0.7255E-03  0.1031E-03  0.6073E+05
   -1.800012   30.34964  0.2416E-14  0.9941E-05  0.2065E-06  0.4946E-03  0.8849E-04  0.1731E+04
   -1.850010   30.35736  0.2416E-14  0.8377E-05  0.3393E-06  0.4667E-03  0.6106E-04  0.2344E+08
   -1.900008   30.35448  0.2416E-14  0.6589E-05  0.7117E-06  0.2107E-03  0.5051E-04  0.5058E+05
   -1.950005   30.37599  0.2416E-14  0.4694E-05  0.1700E-05  0.2158E-03  0.2626E-04 -0.1783E+06
   -2.000002   30.37581  0.2416E-14  0.0000E+00  0.0000E+00  0.0000E+00  0.5362E-04  0.0000E+00
