 1 - depth, m
 2 - temperature, C
 3 - salinity, kg/kg
 4 - turbulent kinetic energy, m**2/s**2
 5 - dissipation rate, m**2/s**3
 6 - kinematic heat conductance, m**2/s
 7 - modulus of horizontal velocity, m/s
 8 - Richardson number, n/d
   -0.000000   30.24375  0.4922E-14  0.4985E-05  0.3151E-06  0.5167E-04  0.1785E-02  0.4700E+04
   -0.049997   30.27459  0.4922E-14  0.8473E-05  0.1403E-06  0.1783E-03  0.1023E-02  0.2049E+04
   -0.099994   30.28668  0.4922E-14  0.1028E-04  0.9628E-07  0.4019E-03  0.7511E-03  0.1620E+02
   -0.149992   30.29002  0.4922E-14  0.1142E-04  0.8068E-07  0.4829E-03  0.6638E-03  0.7949E+01
   -0.199991   30.29269  0.4922E-14  0.1231E-04  0.7158E-07  0.6468E-03  0.5931E-03  0.5091E+01
   -0.249989   30.29463  0.4922E-14  0.1301E-04  0.6564E-07  0.7733E-03  0.5402E-03  0.3748E+01
   -0.299988   30.29620  0.4922E-14  0.1359E-04  0.6143E-07  0.8999E-03  0.4962E-03  0.2987E+01
   -0.349988   30.29753  0.4922E-14  0.1407E-04  0.5829E-07  0.1014E-02  0.4586E-03  0.2547E+01
   -0.399988   30.29867  0.4922E-14  0.1447E-04  0.5585E-07  0.1119E-02  0.4253E-03  0.2277E+01
   -0.449988   30.29969  0.4922E-14  0.1482E-04  0.5387E-07  0.1216E-02  0.3960E-03  0.2133E+01
   -0.499988   30.30061  0.4922E-14  0.1512E-04  0.5224E-07  0.1305E-02  0.3700E-03  0.2084E+01
   -0.549989   30.30146  0.4922E-14  0.1538E-04  0.5088E-07  0.1387E-02  0.3467E-03  0.2051E+01
   -0.599989   30.30224  0.4922E-14  0.1560E-04  0.4974E-07  0.1461E-02  0.3256E-03  0.2061E+01
   -0.649990   30.30297  0.4922E-14  0.1579E-04  0.4878E-07  0.1527E-02  0.3064E-03  0.2079E+01
   -0.699992   30.30366  0.4922E-14  0.1596E-04  0.4798E-07  0.1585E-02  0.2887E-03  0.2136E+01
   -0.749993   30.30431  0.4922E-14  0.1609E-04  0.4732E-07  0.1635E-02  0.2724E-03  0.2197E+01
   -0.799994   30.30494  0.4922E-14  0.1620E-04  0.4678E-07  0.1677E-02  0.2572E-03  0.2302E+01
   -0.849996   30.30554  0.4922E-14  0.1629E-04  0.4636E-07  0.1711E-02  0.2430E-03  0.2412E+01
   -0.899998   30.30613  0.4922E-14  0.1635E-04  0.4604E-07  0.1736E-02  0.2297E-03  0.2575E+01
   -0.949999   30.30670  0.4922E-14  0.1639E-04  0.4584E-07  0.1753E-02  0.2172E-03  0.2751E+01
   -1.000001   30.30727  0.4922E-14  0.1641E-04  0.4574E-07  0.1762E-02  0.2053E-03  0.2994E+01
   -1.050003   30.30783  0.4922E-14  0.1641E-04  0.4576E-07  0.1760E-02  0.1941E-03  0.3389E+01
   -1.100004   30.30838  0.4922E-14  0.1638E-04  0.4589E-07  0.1859E-02  0.1833E-03  0.1114E+02
   -1.150006   30.30890  0.4922E-14  0.1632E-04  0.4619E-07  0.1657E-02  0.1737E-03  0.2659E+02
   -1.200008   30.30949  0.4922E-14  0.1624E-04  0.4662E-07  0.1691E-02  0.1636E-03  0.5001E+01
   -1.250009   30.31005  0.4922E-14  0.1614E-04  0.4726E-07  0.1659E-02  0.1541E-03  0.5375E+01
   -1.300011   30.31063  0.4922E-14  0.1600E-04  0.4813E-07  0.1604E-02  0.1448E-03  0.6329E+01
   -1.350012   30.31123  0.4922E-14  0.1582E-04  0.4931E-07  0.1542E-02  0.1358E-03  0.7691E+01
   -1.400013   30.31185  0.4922E-14  0.1561E-04  0.5091E-07  0.1458E-02  0.1271E-03  0.9640E+01
   -1.450014   30.31251  0.4922E-14  0.1535E-04  0.5309E-07  0.1380E-02  0.1184E-03  0.1255E+02
   -1.500014   30.31321  0.4922E-14  0.1503E-04  0.5614E-07  0.1259E-02  0.1100E-03  0.1761E+02
   -1.550014   30.31399  0.4922E-14  0.1463E-04  0.6049E-07  0.1183E-02  0.1013E-03  0.2613E+02
   -1.600015   30.31483  0.4922E-14  0.1413E-04  0.6739E-07  0.1029E-02  0.9297E-04  0.6460E+02
   -1.650014   30.31593  0.4922E-14  0.1348E-04  0.7807E-07  0.9571E-03  0.8360E-04 -0.8459E+03
   -1.700014   30.31713  0.4922E-14  0.1258E-04  0.9720E-07  0.7686E-03  0.7465E-04  0.1936E+04
   -1.750013   30.31951  0.4922E-14  0.1141E-04  0.1288E-06  0.7010E-03  0.6204E-04  0.2255E+05
   -1.800012   30.32117  0.4922E-14  0.9924E-05  0.1972E-06  0.4811E-03  0.5307E-04  0.1676E+05
   -1.850010   30.32958  0.4922E-14  0.8340E-05  0.3245E-06  0.4469E-03  0.3659E-04  0.2289E+08
   -1.900008   30.32669  0.4922E-14  0.6596E-05  0.6819E-06  0.2048E-03  0.3000E-04 -0.7487E+07
   -1.950005   30.35002  0.4922E-14  0.4705E-05  0.1664E-05  0.2060E-03  0.1564E-04 -0.6816E+06
   -2.000002   30.35197  0.4922E-14  0.0000E+00  0.0000E+00  0.0000E+00  0.3121E-04  0.0000E+00
