 1 - depth, m
 2 - temperature, C
 3 - salinity, kg/kg
 4 - turbulent kinetic energy, m**2/s**2
 5 - dissipation rate, m**2/s**3
 6 - kinematic heat conductance, m**2/s
 7 - modulus of horizontal velocity, m/s
 8 - Richardson number, n/d
   -0.000000   29.84873  0.1654E-13  0.5030E-05  0.2990E-06  0.5086E-04  0.2448E-02  0.4939E+04
   -0.049997   29.87920  0.1654E-13  0.8386E-05  0.1318E-06  0.1884E-03  0.1342E-02  0.1874E+03
   -0.099994   29.88968  0.1654E-13  0.1003E-04  0.9198E-07  0.3904E-03  0.1019E-02  0.9188E+01
   -0.149992   29.89299  0.1654E-13  0.1109E-04  0.7718E-07  0.4809E-03  0.9008E-03  0.4598E+01
   -0.199991   29.89556  0.1654E-13  0.1192E-04  0.6852E-07  0.6330E-03  0.8075E-03  0.2968E+01
   -0.249989   29.89746  0.1654E-13  0.1258E-04  0.6285E-07  0.7554E-03  0.7367E-03  0.2206E+01
   -0.299989   29.89902  0.1654E-13  0.1312E-04  0.5881E-07  0.8712E-03  0.6777E-03  0.1777E+01
   -0.349988   29.90033  0.1654E-13  0.1358E-04  0.5574E-07  0.9784E-03  0.6265E-03  0.1609E+01
   -0.399988   29.90147  0.1654E-13  0.1398E-04  0.5327E-07  0.1087E-02  0.5793E-03  0.1517E+01
   -0.449988   29.90247  0.1654E-13  0.1434E-04  0.5122E-07  0.1193E-02  0.5361E-03  0.1484E+01
   -0.499988   29.90337  0.1654E-13  0.1465E-04  0.4950E-07  0.1292E-02  0.4972E-03  0.1466E+01
   -0.549989   29.90418  0.1654E-13  0.1492E-04  0.4805E-07  0.1382E-02  0.4621E-03  0.1461E+01
   -0.599990   29.90492  0.1654E-13  0.1515E-04  0.4684E-07  0.1465E-02  0.4305E-03  0.1452E+01
   -0.649991   29.90562  0.1654E-13  0.1535E-04  0.4582E-07  0.1538E-02  0.4017E-03  0.1459E+01
   -0.699992   29.90627  0.1654E-13  0.1551E-04  0.4498E-07  0.1602E-02  0.3757E-03  0.1459E+01
   -0.749993   29.90688  0.1654E-13  0.1564E-04  0.4428E-07  0.1656E-02  0.3520E-03  0.1476E+01
   -0.799995   29.90747  0.1654E-13  0.1575E-04  0.4371E-07  0.1700E-02  0.3304E-03  0.1487E+01
   -0.849996   29.90803  0.1654E-13  0.1582E-04  0.4326E-07  0.1734E-02  0.3107E-03  0.1520E+01
   -0.899998   29.90858  0.1654E-13  0.1587E-04  0.4292E-07  0.1759E-02  0.2926E-03  0.1555E+01
   -0.950000   29.90912  0.1654E-13  0.1590E-04  0.4269E-07  0.1774E-02  0.2760E-03  0.1630E+01
   -1.000001   29.90964  0.1654E-13  0.1591E-04  0.4256E-07  0.1782E-02  0.2606E-03  0.1722E+01
   -1.050003   29.91015  0.1654E-13  0.1589E-04  0.4253E-07  0.1780E-02  0.2462E-03  0.1941E+01
   -1.100005   29.91067  0.1654E-13  0.1586E-04  0.4260E-07  0.1879E-02  0.2326E-03  0.6342E+01
   -1.150006   29.91115  0.1654E-13  0.1580E-04  0.4281E-07  0.1676E-02  0.2205E-03  0.1468E+02
   -1.200008   29.91168  0.1654E-13  0.1572E-04  0.4315E-07  0.1713E-02  0.2077E-03  0.2804E+01
   -1.250010   29.91220  0.1654E-13  0.1561E-04  0.4365E-07  0.1681E-02  0.1955E-03  0.2963E+01
   -1.300011   29.91273  0.1654E-13  0.1547E-04  0.4437E-07  0.1629E-02  0.1838E-03  0.3484E+01
   -1.350012   29.91327  0.1654E-13  0.1530E-04  0.4534E-07  0.1567E-02  0.1725E-03  0.4148E+01
   -1.400013   29.91383  0.1654E-13  0.1510E-04  0.4667E-07  0.1487E-02  0.1614E-03  0.5153E+01
   -1.450014   29.91442  0.1654E-13  0.1485E-04  0.4848E-07  0.1408E-02  0.1505E-03  0.6546E+01
   -1.500015   29.91504  0.1654E-13  0.1455E-04  0.5100E-07  0.1294E-02  0.1398E-03  0.8958E+01
   -1.550015   29.91573  0.1654E-13  0.1419E-04  0.5459E-07  0.1210E-02  0.1290E-03  0.1280E+02
   -1.600015   29.91646  0.1654E-13  0.1374E-04  0.6015E-07  0.1064E-02  0.1184E-03  0.2531E+02
   -1.650015   29.91738  0.1654E-13  0.1316E-04  0.6881E-07  0.9862E-03  0.1069E-03  0.2482E+03
   -1.700014   29.91841  0.1654E-13  0.1236E-04  0.8441E-07  0.8013E-03  0.9566E-04  0.7814E+02
   -1.750013   29.92028  0.1654E-13  0.1131E-04  0.1097E-06  0.7245E-03  0.8051E-04  0.3175E+05
   -1.800012   29.92173  0.1654E-13  0.9923E-05  0.1648E-06  0.5026E-03  0.6913E-04  0.2066E+04
   -1.850010   29.92827  0.1654E-13  0.8406E-05  0.2666E-06  0.4672E-03  0.4877E-04  0.5945E+07
   -1.900008   29.92655  0.1654E-13  0.6648E-05  0.5569E-06  0.2089E-03  0.3997E-04 -0.2477E+05
   -1.950006   29.94587  0.1654E-13  0.4655E-05  0.1381E-05  0.1934E-03  0.2123E-04 -0.1386E+06
   -2.000003   29.94717  0.1654E-13  0.0000E+00  0.0000E+00  0.0000E+00  0.4021E-04  0.0000E+00
