 1 - depth, m
 2 - temperature, C
 3 - salinity, kg/kg
 4 - turbulent kinetic energy, m**2/s**2
 5 - dissipation rate, m**2/s**3
 6 - kinematic heat conductance, m**2/s
 7 - modulus of horizontal velocity, m/s
 8 - Richardson number, n/d
   -0.000000   30.75166  0.1062E-13  0.5545E-05  0.3266E-06  0.5347E-04  0.3311E-02  0.9664E+03
   -0.049997   30.78329  0.1062E-13  0.8983E-05  0.1419E-06  0.2022E-03  0.1797E-02  0.1059E+03
   -0.099994   30.79322  0.1062E-13  0.1060E-04  0.1003E-06  0.3916E-03  0.1408E-02  0.5467E+01
   -0.149992   30.79672  0.1062E-13  0.1166E-04  0.8437E-07  0.4866E-03  0.1255E-02  0.2811E+01
   -0.199991   30.79941  0.1062E-13  0.1250E-04  0.7506E-07  0.6267E-03  0.1134E-02  0.1866E+01
   -0.249989   30.80144  0.1062E-13  0.1318E-04  0.6890E-07  0.7394E-03  0.1041E-02  0.1507E+01
   -0.299988   30.80311  0.1062E-13  0.1377E-04  0.6432E-07  0.8584E-03  0.9594E-03  0.1400E+01
   -0.349988   30.80451  0.1062E-13  0.1430E-04  0.6066E-07  0.9858E-03  0.8823E-03  0.1395E+01
   -0.399988   30.80569  0.1062E-13  0.1478E-04  0.5766E-07  0.1116E-02  0.8085E-03  0.1378E+01
   -0.449988   30.80672  0.1062E-13  0.1521E-04  0.5515E-07  0.1243E-02  0.7404E-03  0.1374E+01
   -0.499988   30.80762  0.1062E-13  0.1559E-04  0.5306E-07  0.1362E-02  0.6792E-03  0.1369E+01
   -0.549989   30.80842  0.1062E-13  0.1591E-04  0.5131E-07  0.1471E-02  0.6244E-03  0.1364E+01
   -0.599989   30.80916  0.1062E-13  0.1618E-04  0.4987E-07  0.1569E-02  0.5752E-03  0.1351E+01
   -0.649990   30.80983  0.1062E-13  0.1640E-04  0.4866E-07  0.1654E-02  0.5311E-03  0.1342E+01
   -0.699992   30.81046  0.1062E-13  0.1658E-04  0.4768E-07  0.1727E-02  0.4914E-03  0.1326E+01
   -0.749993   30.81105  0.1062E-13  0.1671E-04  0.4688E-07  0.1786E-02  0.4557E-03  0.1315E+01
   -0.799994   30.81162  0.1062E-13  0.1681E-04  0.4624E-07  0.1832E-02  0.4236E-03  0.1298E+01
   -0.849996   30.81216  0.1062E-13  0.1687E-04  0.4576E-07  0.1865E-02  0.3946E-03  0.1290E+01
   -0.899998   30.81269  0.1062E-13  0.1690E-04  0.4541E-07  0.1885E-02  0.3686E-03  0.1278E+01
   -0.949999   30.81320  0.1062E-13  0.1690E-04  0.4519E-07  0.1893E-02  0.3449E-03  0.1280E+01
   -1.000001   30.81371  0.1062E-13  0.1688E-04  0.4509E-07  0.1891E-02  0.3236E-03  0.1283E+01
   -1.050003   30.81421  0.1062E-13  0.1683E-04  0.4511E-07  0.1874E-02  0.3041E-03  0.1340E+01
   -1.100005   30.81471  0.1062E-13  0.1677E-04  0.4524E-07  0.2016E-02  0.2866E-03  0.3836E+01
   -1.150006   30.81517  0.1062E-13  0.1668E-04  0.4552E-07  0.1714E-02  0.2725E-03  0.9479E+01
   -1.200008   30.81570  0.1062E-13  0.1656E-04  0.4593E-07  0.1784E-02  0.2569E-03  0.1759E+01
   -1.250009   30.81621  0.1062E-13  0.1642E-04  0.4653E-07  0.1749E-02  0.2424E-03  0.1849E+01
   -1.300011   30.81673  0.1062E-13  0.1625E-04  0.4737E-07  0.1687E-02  0.2283E-03  0.2184E+01
   -1.350012   30.81726  0.1062E-13  0.1604E-04  0.4852E-07  0.1618E-02  0.2147E-03  0.2618E+01
   -1.400013   30.81781  0.1062E-13  0.1580E-04  0.5008E-07  0.1527E-02  0.2012E-03  0.3292E+01
   -1.450014   30.81839  0.1062E-13  0.1550E-04  0.5224E-07  0.1440E-02  0.1880E-03  0.4235E+01
   -1.500014   30.81901  0.1062E-13  0.1515E-04  0.5527E-07  0.1318E-02  0.1748E-03  0.5936E+01
   -1.550015   30.81969  0.1062E-13  0.1472E-04  0.5966E-07  0.1229E-02  0.1616E-03  0.9007E+01
   -1.600015   30.82044  0.1062E-13  0.1419E-04  0.6661E-07  0.1078E-02  0.1484E-03  0.3692E+04
   -1.650014   30.82140  0.1062E-13  0.1350E-04  0.7756E-07  0.9898E-03  0.1338E-03  0.1847E+03
   -1.700014   30.82254  0.1062E-13  0.1256E-04  0.9686E-07  0.8048E-03  0.1190E-03  0.1809E+04
   -1.750013   30.82451  0.1062E-13  0.1141E-04  0.1275E-06  0.7206E-03  0.9968E-04  0.8550E+05
   -1.800012   30.82593  0.1062E-13  0.9904E-05  0.1924E-06  0.4978E-03  0.8556E-04  0.6372E+04
   -1.850010   30.83318  0.1062E-13  0.8347E-05  0.3169E-06  0.4612E-03  0.5936E-04  0.5747E+07
   -1.900008   30.83078  0.1062E-13  0.6546E-05  0.6662E-06  0.2076E-03  0.4875E-04 -0.4743E+05
   -1.950005   30.85119  0.1062E-13  0.4655E-05  0.1595E-05  0.2111E-03  0.2547E-04 -0.1328E+06
   -2.000002   30.85065  0.1062E-13  0.0000E+00  0.0000E+00  0.0000E+00  0.5085E-04  0.0000E+00
