 1 - depth, m
 2 - temperature, C
 3 - salinity, kg/kg
 4 - turbulent kinetic energy, m**2/s**2
 5 - dissipation rate, m**2/s**3
 6 - kinematic heat conductance, m**2/s
 7 - modulus of horizontal velocity, m/s
 8 - Richardson number, n/d
   -0.000000   29.98633  0.1293E-12  0.4836E-05  0.2725E-06  0.4904E-04  0.2690E-02  0.2484E+04
   -0.049997   30.01584  0.1293E-12  0.7954E-05  0.1199E-06  0.1845E-03  0.1467E-02  0.9893E+03
   -0.099994   30.02554  0.1293E-12  0.9448E-05  0.8407E-07  0.3746E-03  0.1123E-02  0.8135E+01
   -0.149992   30.02874  0.1293E-12  0.1041E-04  0.7060E-07  0.4643E-03  0.9933E-03  0.4022E+01
   -0.199991   30.03120  0.1293E-12  0.1115E-04  0.6267E-07  0.6054E-03  0.8915E-03  0.2610E+01
   -0.249989   30.03302  0.1293E-12  0.1175E-04  0.5743E-07  0.7190E-03  0.8135E-03  0.1950E+01
   -0.299989   30.03451  0.1293E-12  0.1224E-04  0.5364E-07  0.8264E-03  0.7483E-03  0.1631E+01
   -0.349988   30.03577  0.1293E-12  0.1266E-04  0.5067E-07  0.9337E-03  0.6898E-03  0.1534E+01
   -0.399988   30.03685  0.1293E-12  0.1303E-04  0.4825E-07  0.1044E-02  0.6347E-03  0.1466E+01
   -0.449988   30.03779  0.1293E-12  0.1336E-04  0.4621E-07  0.1150E-02  0.5842E-03  0.1440E+01
   -0.499988   30.03862  0.1293E-12  0.1365E-04  0.4449E-07  0.1250E-02  0.5388E-03  0.1425E+01
   -0.549989   30.03937  0.1293E-12  0.1390E-04  0.4305E-07  0.1341E-02  0.4979E-03  0.1418E+01
   -0.599990   30.04006  0.1293E-12  0.1411E-04  0.4183E-07  0.1424E-02  0.4612E-03  0.1407E+01
   -0.649991   30.04069  0.1293E-12  0.1428E-04  0.4080E-07  0.1498E-02  0.4281E-03  0.1407E+01
   -0.699992   30.04128  0.1293E-12  0.1442E-04  0.3993E-07  0.1563E-02  0.3981E-03  0.1401E+01
   -0.749993   30.04183  0.1293E-12  0.1453E-04  0.3920E-07  0.1617E-02  0.3710E-03  0.1407E+01
   -0.799995   30.04236  0.1293E-12  0.1461E-04  0.3860E-07  0.1662E-02  0.3464E-03  0.1408E+01
   -0.849996   30.04286  0.1293E-12  0.1467E-04  0.3812E-07  0.1696E-02  0.3241E-03  0.1424E+01
   -0.899998   30.04335  0.1293E-12  0.1471E-04  0.3774E-07  0.1721E-02  0.3038E-03  0.1439E+01
   -0.950000   30.04382  0.1293E-12  0.1472E-04  0.3746E-07  0.1736E-02  0.2853E-03  0.1478E+01
   -1.000001   30.04429  0.1293E-12  0.1471E-04  0.3728E-07  0.1743E-02  0.2684E-03  0.1525E+01
   -1.050003   30.04474  0.1293E-12  0.1469E-04  0.3719E-07  0.1741E-02  0.2528E-03  0.1674E+01
   -1.100005   30.04519  0.1293E-12  0.1464E-04  0.3719E-07  0.1835E-02  0.2383E-03  0.5406E+01
   -1.150007   30.04561  0.1293E-12  0.1458E-04  0.3730E-07  0.1646E-02  0.2257E-03  0.1231E+02
   -1.200008   30.04608  0.1293E-12  0.1450E-04  0.3751E-07  0.1680E-02  0.2125E-03  0.2353E+01
   -1.250010   30.04653  0.1293E-12  0.1439E-04  0.3787E-07  0.1649E-02  0.1999E-03  0.2480E+01
   -1.300011   30.04699  0.1293E-12  0.1426E-04  0.3840E-07  0.1601E-02  0.1877E-03  0.2895E+01
   -1.350012   30.04745  0.1293E-12  0.1410E-04  0.3913E-07  0.1542E-02  0.1760E-03  0.3430E+01
   -1.400013   30.04793  0.1293E-12  0.1392E-04  0.4015E-07  0.1468E-02  0.1645E-03  0.4212E+01
   -1.450014   30.04843  0.1293E-12  0.1369E-04  0.4154E-07  0.1390E-02  0.1533E-03  0.5296E+01
   -1.500015   30.04895  0.1293E-12  0.1343E-04  0.4349E-07  0.1283E-02  0.1423E-03  0.7088E+01
   -1.550015   30.04952  0.1293E-12  0.1310E-04  0.4625E-07  0.1196E-02  0.1313E-03  0.9865E+01
   -1.600015   30.05014  0.1293E-12  0.1271E-04  0.5042E-07  0.1057E-02  0.1205E-03  0.1666E+02
   -1.650015   30.05086  0.1293E-12  0.1222E-04  0.5688E-07  0.9744E-03  0.1091E-03  0.1075E+03
   -1.700014   30.05168  0.1293E-12  0.1154E-04  0.6858E-07  0.8006E-03  0.9788E-04  0.8064E+03
   -1.750013   30.05308  0.1293E-12  0.1063E-04  0.8808E-07  0.7150E-03  0.8335E-04  0.4880E+04
   -1.800012   30.05438  0.1293E-12  0.9369E-05  0.1277E-06  0.5020E-03  0.7126E-04  0.6751E+05
   -1.850011   30.05889  0.1293E-12  0.7919E-05  0.2025E-06  0.4497E-03  0.5147E-04  0.4141E+07
   -1.900008   30.05850  0.1293E-12  0.6184E-05  0.4222E-06  0.1986E-03  0.4136E-04  0.7852E+05
   -1.950006   30.07407  0.1293E-12  0.4286E-05  0.1071E-05  0.1767E-03  0.2196E-04 -0.4522E+06
   -2.000003   30.07574  0.1293E-12  0.0000E+00  0.0000E+00  0.0000E+00  0.4037E-04  0.0000E+00
