 1 - depth, m
 2 - temperature, C
 3 - salinity, kg/kg
 4 - turbulent kinetic energy, m**2/s**2
 5 - dissipation rate, m**2/s**3
 6 - kinematic heat conductance, m**2/s
 7 - modulus of horizontal velocity, m/s
 8 - Richardson number, n/d
   -0.000000   31.12598  0.1624E-14  0.5153E-05  0.3331E-06  0.5242E-04  0.1577E-02  0.6776E+04
   -0.049997   31.15837  0.1624E-14  0.8769E-05  0.1488E-06  0.1796E-03  0.9085E-03  0.2752E+04
   -0.099994   31.17108  0.1624E-14  0.1064E-04  0.1020E-06  0.4055E-03  0.6661E-03  0.2047E+02
   -0.149992   31.17458  0.1624E-14  0.1181E-04  0.8541E-07  0.4854E-03  0.5888E-03  0.1004E+02
   -0.199991   31.17738  0.1624E-14  0.1272E-04  0.7568E-07  0.6513E-03  0.5260E-03  0.6410E+01
   -0.249989   31.17940  0.1624E-14  0.1343E-04  0.6930E-07  0.7786E-03  0.4791E-03  0.4720E+01
   -0.299988   31.18103  0.1624E-14  0.1401E-04  0.6475E-07  0.9062E-03  0.4401E-03  0.3744E+01
   -0.349988   31.18240  0.1624E-14  0.1449E-04  0.6133E-07  0.1022E-02  0.4068E-03  0.3193E+01
   -0.399988   31.18358  0.1624E-14  0.1489E-04  0.5866E-07  0.1127E-02  0.3773E-03  0.2839E+01
   -0.449988   31.18463  0.1624E-14  0.1523E-04  0.5647E-07  0.1225E-02  0.3513E-03  0.2659E+01
   -0.499988   31.18557  0.1624E-14  0.1553E-04  0.5466E-07  0.1314E-02  0.3283E-03  0.2582E+01
   -0.549989   31.18643  0.1624E-14  0.1578E-04  0.5314E-07  0.1396E-02  0.3077E-03  0.2542E+01
   -0.599989   31.18722  0.1624E-14  0.1599E-04  0.5184E-07  0.1470E-02  0.2891E-03  0.2538E+01
   -0.649990   31.18796  0.1624E-14  0.1617E-04  0.5074E-07  0.1537E-02  0.2721E-03  0.2564E+01
   -0.699992   31.18866  0.1624E-14  0.1632E-04  0.4980E-07  0.1595E-02  0.2565E-03  0.2616E+01
   -0.749993   31.18932  0.1624E-14  0.1644E-04  0.4900E-07  0.1646E-02  0.2420E-03  0.2696E+01
   -0.799994   31.18995  0.1624E-14  0.1653E-04  0.4832E-07  0.1689E-02  0.2286E-03  0.2802E+01
   -0.849996   31.19055  0.1624E-14  0.1660E-04  0.4776E-07  0.1724E-02  0.2160E-03  0.2939E+01
   -0.899998   31.19114  0.1624E-14  0.1665E-04  0.4732E-07  0.1750E-02  0.2042E-03  0.3109E+01
   -0.949999   31.19171  0.1624E-14  0.1667E-04  0.4698E-07  0.1768E-02  0.1931E-03  0.3321E+01
   -1.000001   31.19226  0.1624E-14  0.1667E-04  0.4675E-07  0.1778E-02  0.1826E-03  0.3578E+01
   -1.050003   31.19281  0.1624E-14  0.1664E-04  0.4663E-07  0.1777E-02  0.1726E-03  0.4041E+01
   -1.100004   31.19335  0.1624E-14  0.1659E-04  0.4664E-07  0.1875E-02  0.1630E-03  0.1323E+02
   -1.150006   31.19385  0.1624E-14  0.1652E-04  0.4680E-07  0.1677E-02  0.1545E-03  0.3102E+02
   -1.200008   31.19442  0.1624E-14  0.1642E-04  0.4709E-07  0.1712E-02  0.1456E-03  0.5855E+01
   -1.250009   31.19496  0.1624E-14  0.1630E-04  0.4758E-07  0.1681E-02  0.1371E-03  0.6211E+01
   -1.300010   31.19551  0.1624E-14  0.1614E-04  0.4829E-07  0.1628E-02  0.1289E-03  0.7281E+01
   -1.350012   31.19607  0.1624E-14  0.1595E-04  0.4931E-07  0.1566E-02  0.1210E-03  0.8731E+01
   -1.400013   31.19665  0.1624E-14  0.1572E-04  0.5071E-07  0.1485E-02  0.1133E-03  0.1085E+02
   -1.450013   31.19726  0.1624E-14  0.1544E-04  0.5267E-07  0.1405E-02  0.1056E-03  0.1394E+02
   -1.500014   31.19790  0.1624E-14  0.1510E-04  0.5545E-07  0.1291E-02  0.9813E-04  0.1920E+02
   -1.550014   31.19861  0.1624E-14  0.1470E-04  0.5946E-07  0.1205E-02  0.9056E-04  0.2814E+02
   -1.600014   31.19937  0.1624E-14  0.1420E-04  0.6576E-07  0.1064E-02  0.8312E-04  0.6235E+02
   -1.650014   31.20032  0.1624E-14  0.1355E-04  0.7581E-07  0.9779E-03  0.7506E-04  0.2394E+03
   -1.700014   31.20145  0.1624E-14  0.1265E-04  0.9347E-07  0.8012E-03  0.6687E-04  0.1731E+05
   -1.750013   31.20338  0.1624E-14  0.1152E-04  0.1223E-06  0.7187E-03  0.5624E-04  0.7153E+05
   -1.800011   31.20490  0.1624E-14  0.1002E-04  0.1883E-06  0.4947E-03  0.4819E-04  0.6390E+08
   -1.850010   31.21193  0.1624E-14  0.8462E-05  0.3069E-06  0.4646E-03  0.3366E-04  0.1153E+08
   -1.900008   31.20968  0.1624E-14  0.6712E-05  0.6439E-06  0.2150E-03  0.2773E-04  0.9404E+06
   -1.950005   31.22956  0.1624E-14  0.4729E-05  0.1576E-05  0.2029E-03  0.1471E-04 -0.6092E+07
   -2.000002   31.23057  0.1624E-14  0.0000E+00  0.0000E+00  0.0000E+00  0.2867E-04  0.0000E+00
