 1 - depth, m
 2 - temperature, C
 3 - salinity, kg/kg
 4 - turbulent kinetic energy, m**2/s**2
 5 - dissipation rate, m**2/s**3
 6 - kinematic heat conductance, m**2/s
 7 - modulus of horizontal velocity, m/s
 8 - Richardson number, n/d
   -0.000000   31.20402  0.2238E-14  0.5358E-05  0.3554E-06  0.5238E-04  0.9767E-03  0.1099E+05
   -0.049997   31.23898  0.2238E-14  0.9271E-05  0.1577E-06  0.1909E-03  0.5562E-03  0.9493E+03
   -0.099994   31.25180  0.2238E-14  0.1123E-04  0.1088E-06  0.4235E-03  0.4100E-03  0.7579E+02
   -0.149992   31.25537  0.2238E-14  0.1247E-04  0.9136E-07  0.5046E-03  0.3634E-03  0.3745E+02
   -0.199990   31.25824  0.2238E-14  0.1343E-04  0.8114E-07  0.6770E-03  0.3253E-03  0.2428E+02
   -0.249989   31.26031  0.2238E-14  0.1419E-04  0.7446E-07  0.8072E-03  0.2970E-03  0.1789E+02
   -0.299988   31.26200  0.2238E-14  0.1481E-04  0.6970E-07  0.9390E-03  0.2733E-03  0.1433E+02
   -0.349987   31.26342  0.2238E-14  0.1532E-04  0.6614E-07  0.1057E-02  0.2530E-03  0.1212E+02
   -0.399987   31.26464  0.2238E-14  0.1575E-04  0.6337E-07  0.1166E-02  0.2351E-03  0.1088E+02
   -0.449987   31.26573  0.2238E-14  0.1612E-04  0.6111E-07  0.1266E-02  0.2193E-03  0.1007E+02
   -0.499988   31.26672  0.2238E-14  0.1644E-04  0.5925E-07  0.1358E-02  0.2053E-03  0.9871E+01
   -0.549988   31.26761  0.2238E-14  0.1671E-04  0.5770E-07  0.1442E-02  0.1927E-03  0.9585E+01
   -0.599989   31.26845  0.2238E-14  0.1695E-04  0.5639E-07  0.1517E-02  0.1813E-03  0.9677E+01
   -0.649990   31.26922  0.2238E-14  0.1715E-04  0.5529E-07  0.1585E-02  0.1709E-03  0.9631E+01
   -0.699991   31.26996  0.2238E-14  0.1731E-04  0.5436E-07  0.1644E-02  0.1613E-03  0.9951E+01
   -0.749992   31.27065  0.2238E-14  0.1745E-04  0.5359E-07  0.1695E-02  0.1525E-03  0.1010E+02
   -0.799994   31.27132  0.2238E-14  0.1756E-04  0.5295E-07  0.1737E-02  0.1442E-03  0.1064E+02
   -0.849995   31.27196  0.2238E-14  0.1765E-04  0.5245E-07  0.1771E-02  0.1365E-03  0.1099E+02
   -0.899997   31.27259  0.2238E-14  0.1770E-04  0.5207E-07  0.1797E-02  0.1292E-03  0.1180E+02
   -0.949998   31.27320  0.2238E-14  0.1774E-04  0.5182E-07  0.1813E-02  0.1223E-03  0.1241E+02
   -1.000000   31.27379  0.2238E-14  0.1775E-04  0.5169E-07  0.1821E-02  0.1158E-03  0.1359E+02
   -1.050002   31.27438  0.2238E-14  0.1773E-04  0.5169E-07  0.1817E-02  0.1096E-03  0.1511E+02
   -1.100003   31.27497  0.2238E-14  0.1769E-04  0.5183E-07  0.1928E-02  0.1036E-03  0.4973E+02
   -1.150005   31.27552  0.2238E-14  0.1762E-04  0.5216E-07  0.1695E-02  0.9840E-04  0.1209E+03
   -1.200006   31.27614  0.2238E-14  0.1752E-04  0.5265E-07  0.1739E-02  0.9277E-04  0.2211E+02
   -1.250008   31.27674  0.2238E-14  0.1739E-04  0.5338E-07  0.1706E-02  0.8744E-04  0.2390E+02
   -1.300009   31.27736  0.2238E-14  0.1722E-04  0.5439E-07  0.1647E-02  0.8233E-04  0.2772E+02
   -1.350010   31.27799  0.2238E-14  0.1702E-04  0.5577E-07  0.1582E-02  0.7732E-04  0.3407E+02
   -1.400011   31.27865  0.2238E-14  0.1677E-04  0.5766E-07  0.1492E-02  0.7244E-04  0.4222E+02
   -1.450012   31.27934  0.2238E-14  0.1647E-04  0.6028E-07  0.1412E-02  0.6758E-04  0.5588E+02
   -1.500013   31.28009  0.2238E-14  0.1609E-04  0.6398E-07  0.1288E-02  0.6282E-04  0.7816E+02
   -1.550013   31.28093  0.2238E-14  0.1564E-04  0.6931E-07  0.1211E-02  0.5794E-04  0.1228E+03
   -1.600013   31.28183  0.2238E-14  0.1506E-04  0.7798E-07  0.1058E-02  0.5321E-04  0.4265E+05
   -1.650013   31.28307  0.2238E-14  0.1429E-04  0.9160E-07  0.9781E-03  0.4774E-04  0.1377E+05
   -1.700012   31.28445  0.2238E-14  0.1324E-04  0.1161E-06  0.7884E-03  0.4241E-04  0.1319E+05
   -1.750011   31.28713  0.2238E-14  0.1197E-04  0.1550E-06  0.7194E-03  0.3498E-04  0.1064E+07
   -1.800010   31.28874  0.2238E-14  0.1041E-04  0.2381E-06  0.4911E-03  0.3011E-04  0.9024E+05
   -1.850008   31.29861  0.2238E-14  0.8827E-05  0.3979E-06  0.4647E-03  0.2053E-04  0.7146E+08
   -1.900006   31.29441  0.2238E-14  0.7078E-05  0.8339E-06  0.2188E-03  0.1711E-04 -0.1015E+07
   -1.950003   31.32023  0.2238E-14  0.5085E-05  0.1979E-05  0.2223E-03  0.9089E-05 -0.8563E+06
   -2.000000   31.32007  0.2238E-14  0.0000E+00  0.0000E+00  0.0000E+00  0.1831E-04  0.0000E+00
