 1 - depth, m
 2 - temperature, C
 3 - salinity, kg/kg
 4 - turbulent kinetic energy, m**2/s**2
 5 - dissipation rate, m**2/s**3
 6 - kinematic heat conductance, m**2/s
 7 - modulus of horizontal velocity, m/s
 8 - Richardson number, n/d
   -0.000000   30.79612  0.2237E-13  0.5425E-05  0.3307E-06  0.5309E-04  0.2801E-02  0.2719E+04
   -0.049997   30.82810  0.2237E-13  0.8933E-05  0.1451E-06  0.1950E-03  0.1539E-02  0.1075E+04
   -0.099994   30.83892  0.2237E-13  0.1064E-04  0.1014E-06  0.3961E-03  0.1181E-02  0.7293E+01
   -0.149992   30.84243  0.2237E-13  0.1175E-04  0.8505E-07  0.4880E-03  0.1048E-02  0.3683E+01
   -0.199991   30.84516  0.2237E-13  0.1261E-04  0.7548E-07  0.6395E-03  0.9430E-03  0.2388E+01
   -0.249989   30.84718  0.2237E-13  0.1330E-04  0.6921E-07  0.7592E-03  0.8627E-03  0.1805E+01
   -0.299988   30.84883  0.2237E-13  0.1387E-04  0.6467E-07  0.8767E-03  0.7948E-03  0.1526E+01
   -0.349988   30.85022  0.2237E-13  0.1437E-04  0.6115E-07  0.9932E-03  0.7337E-03  0.1431E+01
   -0.399988   30.85142  0.2237E-13  0.1481E-04  0.5829E-07  0.1110E-02  0.6764E-03  0.1371E+01
   -0.449988   30.85246  0.2237E-13  0.1520E-04  0.5591E-07  0.1224E-02  0.6239E-03  0.1349E+01
   -0.499988   30.85339  0.2237E-13  0.1554E-04  0.5391E-07  0.1331E-02  0.5766E-03  0.1339E+01
   -0.549989   30.85423  0.2237E-13  0.1583E-04  0.5224E-07  0.1429E-02  0.5341E-03  0.1334E+01
   -0.599989   30.85500  0.2237E-13  0.1608E-04  0.5083E-07  0.1518E-02  0.4958E-03  0.1326E+01
   -0.649990   30.85570  0.2237E-13  0.1628E-04  0.4965E-07  0.1596E-02  0.4611E-03  0.1325E+01
   -0.699992   30.85637  0.2237E-13  0.1645E-04  0.4867E-07  0.1663E-02  0.4298E-03  0.1319E+01
   -0.749993   30.85699  0.2237E-13  0.1658E-04  0.4785E-07  0.1720E-02  0.4013E-03  0.1322E+01
   -0.799994   30.85759  0.2237E-13  0.1668E-04  0.4719E-07  0.1765E-02  0.3756E-03  0.1322E+01
   -0.849996   30.85816  0.2237E-13  0.1674E-04  0.4667E-07  0.1799E-02  0.3521E-03  0.1336E+01
   -0.899998   30.85872  0.2237E-13  0.1678E-04  0.4628E-07  0.1822E-02  0.3307E-03  0.1351E+01
   -0.949999   30.85926  0.2237E-13  0.1679E-04  0.4600E-07  0.1835E-02  0.3111E-03  0.1387E+01
   -1.000001   30.85979  0.2237E-13  0.1678E-04  0.4584E-07  0.1839E-02  0.2932E-03  0.1434E+01
   -1.050003   30.86031  0.2237E-13  0.1674E-04  0.4579E-07  0.1831E-02  0.2766E-03  0.1567E+01
   -1.100005   30.86083  0.2237E-13  0.1669E-04  0.4586E-07  0.1951E-02  0.2612E-03  0.4915E+01
   -1.150006   30.86131  0.2237E-13  0.1661E-04  0.4608E-07  0.1698E-02  0.2481E-03  0.1183E+02
   -1.200008   30.86186  0.2237E-13  0.1650E-04  0.4644E-07  0.1752E-02  0.2338E-03  0.2210E+01
   -1.250009   30.86239  0.2237E-13  0.1637E-04  0.4698E-07  0.1718E-02  0.2204E-03  0.2338E+01
   -1.300011   30.86292  0.2237E-13  0.1620E-04  0.4776E-07  0.1661E-02  0.2075E-03  0.2748E+01
   -1.350012   30.86347  0.2237E-13  0.1600E-04  0.4884E-07  0.1595E-02  0.1949E-03  0.3295E+01
   -1.400013   30.86403  0.2237E-13  0.1576E-04  0.5033E-07  0.1508E-02  0.1826E-03  0.4112E+01
   -1.450014   30.86463  0.2237E-13  0.1548E-04  0.5238E-07  0.1425E-02  0.1704E-03  0.5284E+01
   -1.500014   30.86526  0.2237E-13  0.1513E-04  0.5528E-07  0.1305E-02  0.1584E-03  0.7328E+01
   -1.550014   30.86596  0.2237E-13  0.1472E-04  0.5947E-07  0.1218E-02  0.1463E-03  0.1087E+02
   -1.600015   30.86671  0.2237E-13  0.1420E-04  0.6608E-07  0.1070E-02  0.1344E-03  0.2080E+02
   -1.650014   30.86768  0.2237E-13  0.1354E-04  0.7651E-07  0.9850E-03  0.1212E-03  0.1189E+03
   -1.700014   30.86878  0.2237E-13  0.1263E-04  0.9490E-07  0.8031E-03  0.1081E-03  0.4466E+04
   -1.750013   30.87076  0.2237E-13  0.1147E-04  0.1249E-06  0.7220E-03  0.9063E-04  0.2580E+05
   -1.800012   30.87226  0.2237E-13  0.9957E-05  0.1935E-06  0.4989E-03  0.7766E-04 -0.1706E+05
   -1.850010   30.87954  0.2237E-13  0.8378E-05  0.3158E-06  0.4616E-03  0.5390E-04  0.2339E+08
   -1.900008   30.87700  0.2237E-13  0.6626E-05  0.6603E-06  0.2160E-03  0.4443E-04 -0.2594E+06
   -1.950005   30.89716  0.2237E-13  0.4689E-05  0.1610E-05  0.2069E-03  0.2343E-04 -0.2595E+05
   -2.000002   30.89796  0.2237E-13  0.0000E+00  0.0000E+00  0.0000E+00  0.4647E-04  0.0000E+00
