 1 - depth, m
 2 - temperature, C
 3 - salinity, kg/kg
 4 - turbulent kinetic energy, m**2/s**2
 5 - dissipation rate, m**2/s**3
 6 - kinematic heat conductance, m**2/s
 7 - modulus of horizontal velocity, m/s
 8 - Richardson number, n/d
   -0.000000   30.06269  0.4440E-13  0.4605E-05  0.2833E-06  0.4961E-04  0.7261E-03  0.3106E+05
   -0.049997   30.09227  0.4440E-13  0.8078E-05  0.1255E-06  0.1758E-03  0.4141E-03  0.4495E+02
   -0.099994   30.10380  0.4440E-13  0.9813E-05  0.8643E-07  0.4095E-03  0.2992E-03  0.9055E+02
   -0.149992   30.10684  0.4440E-13  0.1089E-04  0.7297E-07  0.4830E-03  0.2650E-03  0.4423E+02
   -0.199991   30.10931  0.4440E-13  0.1172E-04  0.6502E-07  0.6460E-03  0.2367E-03  0.2879E+02
   -0.249989   30.11110  0.4440E-13  0.1239E-04  0.5979E-07  0.7707E-03  0.2156E-03  0.2142E+02
   -0.299988   30.11257  0.4440E-13  0.1293E-04  0.5605E-07  0.8947E-03  0.1980E-03  0.1712E+02
   -0.349988   30.11380  0.4440E-13  0.1339E-04  0.5325E-07  0.1007E-02  0.1829E-03  0.1470E+02
   -0.399988   30.11487  0.4440E-13  0.1377E-04  0.5107E-07  0.1110E-02  0.1695E-03  0.1311E+02
   -0.449988   30.11582  0.4440E-13  0.1410E-04  0.4930E-07  0.1205E-02  0.1577E-03  0.1235E+02
   -0.499988   30.11668  0.4440E-13  0.1439E-04  0.4784E-07  0.1293E-02  0.1473E-03  0.1201E+02
   -0.549989   30.11747  0.4440E-13  0.1463E-04  0.4662E-07  0.1373E-02  0.1380E-03  0.1188E+02
   -0.599990   30.11820  0.4440E-13  0.1485E-04  0.4559E-07  0.1446E-02  0.1295E-03  0.1187E+02
   -0.649991   30.11888  0.4440E-13  0.1504E-04  0.4473E-07  0.1511E-02  0.1218E-03  0.1206E+02
   -0.699992   30.11952  0.4440E-13  0.1519E-04  0.4400E-07  0.1569E-02  0.1147E-03  0.1231E+02
   -0.749993   30.12013  0.4440E-13  0.1533E-04  0.4340E-07  0.1619E-02  0.1082E-03  0.1276E+02
   -0.799995   30.12071  0.4440E-13  0.1544E-04  0.4291E-07  0.1662E-02  0.1021E-03  0.1327E+02
   -0.849996   30.12128  0.4440E-13  0.1553E-04  0.4252E-07  0.1696E-02  0.9642E-04  0.1400E+02
   -0.899998   30.12182  0.4440E-13  0.1559E-04  0.4223E-07  0.1723E-02  0.9108E-04  0.1482E+02
   -0.950000   30.12236  0.4440E-13  0.1564E-04  0.4203E-07  0.1742E-02  0.8605E-04  0.1592E+02
   -1.000001   30.12288  0.4440E-13  0.1566E-04  0.4193E-07  0.1753E-02  0.8129E-04  0.1715E+02
   -1.050003   30.12340  0.4440E-13  0.1567E-04  0.4193E-07  0.1754E-02  0.7677E-04  0.1951E+02
   -1.100005   30.12391  0.4440E-13  0.1565E-04  0.4203E-07  0.1839E-02  0.7247E-04  0.6467E+02
   -1.150006   30.12440  0.4440E-13  0.1561E-04  0.4227E-07  0.1673E-02  0.6862E-04  0.1456E+03
   -1.200008   30.12493  0.4440E-13  0.1555E-04  0.4263E-07  0.1697E-02  0.6464E-04  0.2818E+02
   -1.250009   30.12545  0.4440E-13  0.1546E-04  0.4316E-07  0.1667E-02  0.6083E-04  0.2999E+02
   -1.300011   30.12598  0.4440E-13  0.1535E-04  0.4388E-07  0.1619E-02  0.5716E-04  0.3518E+02
   -1.350012   30.12652  0.4440E-13  0.1520E-04  0.4486E-07  0.1560E-02  0.5360E-04  0.4198E+02
   -1.400013   30.12709  0.4440E-13  0.1502E-04  0.4617E-07  0.1484E-02  0.5014E-04  0.5192E+02
   -1.450014   30.12768  0.4440E-13  0.1480E-04  0.4794E-07  0.1407E-02  0.4674E-04  0.6593E+02
   -1.500014   30.12831  0.4440E-13  0.1453E-04  0.5037E-07  0.1297E-02  0.4340E-04  0.8940E+02
   -1.550015   30.12899  0.4440E-13  0.1420E-04  0.5380E-07  0.1213E-02  0.4005E-04  0.1266E+03
   -1.600015   30.12973  0.4440E-13  0.1378E-04  0.5897E-07  0.1069E-02  0.3677E-04  0.2378E+03
   -1.650015   30.13063  0.4440E-13  0.1325E-04  0.6696E-07  0.9930E-03  0.3327E-04  0.1422E+04
   -1.700014   30.13164  0.4440E-13  0.1251E-04  0.8128E-07  0.8081E-03  0.2985E-04 -0.7712E+03
   -1.750013   30.13341  0.4440E-13  0.1153E-04  0.1047E-06  0.7319E-03  0.2535E-04  0.1003E+07
   -1.800012   30.13491  0.4440E-13  0.1019E-04  0.1541E-06  0.5078E-03  0.2178E-04  0.1687E+07
   -1.850010   30.14086  0.4440E-13  0.8678E-05  0.2466E-06  0.4681E-03  0.1566E-04  0.3140E+08
   -1.900008   30.13996  0.4440E-13  0.6878E-05  0.5091E-06  0.2108E-03  0.1274E-04 -0.8079E+06
   -1.950006   30.15904  0.4440E-13  0.4796E-05  0.1296E-05  0.1830E-03  0.6852E-05 -0.2802E+07
   -2.000003   30.16176  0.4440E-13  0.0000E+00  0.0000E+00  0.0000E+00  0.1238E-04  0.0000E+00
