 1 - depth, m
 2 - temperature, C
 3 - salinity, kg/kg
 4 - turbulent kinetic energy, m**2/s**2
 5 - dissipation rate, m**2/s**3
 6 - kinematic heat conductance, m**2/s
 7 - modulus of horizontal velocity, m/s
 8 - Richardson number, n/d
   -0.000000   30.80929  0.1623E-14  0.5446E-05  0.3328E-06  0.5312E-04  0.2796E-02  0.1214E+04
   -0.049997   30.84138  0.1623E-14  0.8971E-05  0.1461E-06  0.1955E-03  0.1536E-02  0.1675E+03
   -0.099994   30.85225  0.1623E-14  0.1069E-04  0.1021E-06  0.3971E-03  0.1179E-02  0.7280E+01
   -0.149992   30.85577  0.1623E-14  0.1180E-04  0.8562E-07  0.4893E-03  0.1046E-02  0.3684E+01
   -0.199991   30.85851  0.1623E-14  0.1267E-04  0.7598E-07  0.6414E-03  0.9413E-03  0.2387E+01
   -0.249989   30.86053  0.1623E-14  0.1336E-04  0.6967E-07  0.7616E-03  0.8612E-03  0.1805E+01
   -0.299988   30.86219  0.1623E-14  0.1394E-04  0.6511E-07  0.8795E-03  0.7935E-03  0.1525E+01
   -0.349988   30.86359  0.1623E-14  0.1444E-04  0.6157E-07  0.9963E-03  0.7326E-03  0.1428E+01
   -0.399988   30.86479  0.1623E-14  0.1488E-04  0.5870E-07  0.1114E-02  0.6754E-03  0.1367E+01
   -0.449988   30.86584  0.1623E-14  0.1527E-04  0.5631E-07  0.1228E-02  0.6231E-03  0.1346E+01
   -0.499988   30.86677  0.1623E-14  0.1562E-04  0.5431E-07  0.1335E-02  0.5760E-03  0.1336E+01
   -0.549989   30.86761  0.1623E-14  0.1591E-04  0.5263E-07  0.1433E-02  0.5336E-03  0.1330E+01
   -0.599989   30.86838  0.1623E-14  0.1616E-04  0.5122E-07  0.1521E-02  0.4955E-03  0.1322E+01
   -0.649990   30.86909  0.1623E-14  0.1636E-04  0.5004E-07  0.1600E-02  0.4609E-03  0.1319E+01
   -0.699992   30.86976  0.1623E-14  0.1653E-04  0.4905E-07  0.1667E-02  0.4297E-03  0.1313E+01
   -0.749993   30.87039  0.1623E-14  0.1666E-04  0.4824E-07  0.1723E-02  0.4013E-03  0.1315E+01
   -0.799994   30.87099  0.1623E-14  0.1676E-04  0.4758E-07  0.1768E-02  0.3757E-03  0.1315E+01
   -0.849996   30.87156  0.1623E-14  0.1683E-04  0.4706E-07  0.1802E-02  0.3523E-03  0.1327E+01
   -0.899998   30.87212  0.1623E-14  0.1687E-04  0.4667E-07  0.1826E-02  0.3310E-03  0.1341E+01
   -0.949999   30.87266  0.1623E-14  0.1688E-04  0.4639E-07  0.1839E-02  0.3115E-03  0.1375E+01
   -1.000001   30.87320  0.1623E-14  0.1687E-04  0.4623E-07  0.1843E-02  0.2936E-03  0.1420E+01
   -1.050003   30.87372  0.1623E-14  0.1684E-04  0.4619E-07  0.1835E-02  0.2771E-03  0.1549E+01
   -1.100005   30.87424  0.1623E-14  0.1678E-04  0.4626E-07  0.1955E-02  0.2617E-03  0.4893E+01
   -1.150006   30.87473  0.1623E-14  0.1670E-04  0.4649E-07  0.1703E-02  0.2486E-03  0.1163E+02
   -1.200008   30.87528  0.1623E-14  0.1660E-04  0.4685E-07  0.1756E-02  0.2343E-03  0.2184E+01
   -1.250009   30.87581  0.1623E-14  0.1646E-04  0.4740E-07  0.1723E-02  0.2209E-03  0.2305E+01
   -1.300011   30.87635  0.1623E-14  0.1630E-04  0.4819E-07  0.1666E-02  0.2079E-03  0.2705E+01
   -1.350012   30.87689  0.1623E-14  0.1610E-04  0.4928E-07  0.1600E-02  0.1953E-03  0.3231E+01
   -1.400013   30.87746  0.1623E-14  0.1586E-04  0.5078E-07  0.1514E-02  0.1830E-03  0.4017E+01
   -1.450014   30.87806  0.1623E-14  0.1557E-04  0.5286E-07  0.1430E-02  0.1708E-03  0.5141E+01
   -1.500014   30.87870  0.1623E-14  0.1523E-04  0.5579E-07  0.1313E-02  0.1588E-03  0.7077E+01
   -1.550014   30.87939  0.1623E-14  0.1481E-04  0.6002E-07  0.1224E-02  0.1467E-03  0.1049E+02
   -1.600015   30.88015  0.1623E-14  0.1429E-04  0.6669E-07  0.1079E-02  0.1347E-03  0.2305E+02
   -1.650014   30.88112  0.1623E-14  0.1362E-04  0.7723E-07  0.9915E-03  0.1215E-03  0.8326E+02
   -1.700014   30.88224  0.1623E-14  0.1271E-04  0.9592E-07  0.8095E-03  0.1082E-03 -0.2557E+04
   -1.750013   30.88420  0.1623E-14  0.1156E-04  0.1261E-06  0.7236E-03  0.9075E-04  0.1218E+07
   -1.800012   30.88569  0.1623E-14  0.1006E-04  0.1940E-06  0.5003E-03  0.7770E-04  0.4754E+05
   -1.850010   30.89276  0.1623E-14  0.8504E-05  0.3169E-06  0.4647E-03  0.5417E-04  0.9273E+08
   -1.900008   30.89056  0.1623E-14  0.6744E-05  0.6741E-06  0.2181E-03  0.4451E-04 -0.5372E+04
   -1.950005   30.91053  0.1623E-14  0.4774E-05  0.1617E-05  0.2079E-03  0.2366E-04 -0.1272E+06
   -2.000002   30.91097  0.1623E-14  0.0000E+00  0.0000E+00  0.0000E+00  0.4648E-04  0.0000E+00
