 1 - depth, m
 2 - temperature, C
 3 - salinity, kg/kg
 4 - turbulent kinetic energy, m**2/s**2
 5 - dissipation rate, m**2/s**3
 6 - kinematic heat conductance, m**2/s
 7 - modulus of horizontal velocity, m/s
 8 - Richardson number, n/d
   -0.000000   30.91599  0.3982E-13  0.4935E-05  0.3113E-06  0.5073E-04  0.1120E-02  0.1857E+05
   -0.049997   30.94756  0.3982E-13  0.8528E-05  0.1386E-06  0.1810E-03  0.6361E-03  0.6759E+02
   -0.099994   30.95950  0.3982E-13  0.1034E-04  0.9564E-07  0.4072E-03  0.4669E-03  0.5210E+02
   -0.149992   30.96281  0.3982E-13  0.1147E-04  0.8037E-07  0.4871E-03  0.4125E-03  0.2567E+02
   -0.199991   30.96544  0.3982E-13  0.1235E-04  0.7139E-07  0.6517E-03  0.3685E-03  0.1658E+02
   -0.249989   30.96736  0.3982E-13  0.1305E-04  0.6550E-07  0.7784E-03  0.3355E-03  0.1237E+02
   -0.299988   30.96891  0.3982E-13  0.1362E-04  0.6128E-07  0.9050E-03  0.3082E-03  0.9815E+01
   -0.349988   30.97022  0.3982E-13  0.1409E-04  0.5812E-07  0.1020E-02  0.2846E-03  0.8456E+01
   -0.399988   30.97134  0.3982E-13  0.1448E-04  0.5565E-07  0.1124E-02  0.2639E-03  0.7488E+01
   -0.449988   30.97234  0.3982E-13  0.1482E-04  0.5363E-07  0.1221E-02  0.2456E-03  0.7085E+01
   -0.499988   30.97324  0.3982E-13  0.1511E-04  0.5196E-07  0.1311E-02  0.2295E-03  0.6830E+01
   -0.549989   30.97407  0.3982E-13  0.1536E-04  0.5056E-07  0.1392E-02  0.2150E-03  0.6795E+01
   -0.599989   30.97483  0.3982E-13  0.1558E-04  0.4938E-07  0.1466E-02  0.2019E-03  0.6724E+01
   -0.649990   30.97554  0.3982E-13  0.1576E-04  0.4837E-07  0.1533E-02  0.1900E-03  0.6867E+01
   -0.699992   30.97621  0.3982E-13  0.1592E-04  0.4752E-07  0.1592E-02  0.1790E-03  0.6937E+01
   -0.749993   30.97684  0.3982E-13  0.1604E-04  0.4680E-07  0.1643E-02  0.1688E-03  0.7229E+01
   -0.799994   30.97745  0.3982E-13  0.1615E-04  0.4620E-07  0.1686E-02  0.1594E-03  0.7432E+01
   -0.849996   30.97803  0.3982E-13  0.1623E-04  0.4571E-07  0.1722E-02  0.1506E-03  0.7886E+01
   -0.899998   30.97860  0.3982E-13  0.1628E-04  0.4533E-07  0.1749E-02  0.1423E-03  0.8242E+01
   -0.949999   30.97915  0.3982E-13  0.1632E-04  0.4504E-07  0.1768E-02  0.1345E-03  0.8903E+01
   -1.000001   30.97968  0.3982E-13  0.1633E-04  0.4486E-07  0.1779E-02  0.1271E-03  0.9469E+01
   -1.050003   30.98021  0.3982E-13  0.1632E-04  0.4479E-07  0.1780E-02  0.1201E-03  0.1082E+02
   -1.100004   30.98074  0.3982E-13  0.1629E-04  0.4484E-07  0.1870E-02  0.1134E-03  0.3537E+02
   -1.150006   30.98123  0.3982E-13  0.1623E-04  0.4502E-07  0.1694E-02  0.1074E-03  0.7982E+02
   -1.200008   30.98177  0.3982E-13  0.1615E-04  0.4533E-07  0.1722E-02  0.1012E-03  0.1547E+02
   -1.250009   30.98230  0.3982E-13  0.1605E-04  0.4583E-07  0.1691E-02  0.9531E-04  0.1624E+02
   -1.300010   30.98283  0.3982E-13  0.1591E-04  0.4653E-07  0.1642E-02  0.8960E-04  0.1914E+02
   -1.350012   30.98338  0.3982E-13  0.1575E-04  0.4751E-07  0.1582E-02  0.8407E-04  0.2257E+02
   -1.400013   30.98395  0.3982E-13  0.1555E-04  0.4884E-07  0.1504E-02  0.7867E-04  0.2804E+02
   -1.450013   30.98454  0.3982E-13  0.1530E-04  0.5067E-07  0.1427E-02  0.7338E-04  0.3526E+02
   -1.500014   30.98517  0.3982E-13  0.1500E-04  0.5322E-07  0.1314E-02  0.6817E-04  0.4818E+02
   -1.550014   30.98585  0.3982E-13  0.1464E-04  0.5684E-07  0.1230E-02  0.6294E-04  0.6795E+02
   -1.600014   30.98659  0.3982E-13  0.1419E-04  0.6245E-07  0.1084E-02  0.5781E-04  0.1521E+03
   -1.650014   30.98751  0.3982E-13  0.1361E-04  0.7116E-07  0.1003E-02  0.5228E-04  0.9327E+04
   -1.700014   30.98852  0.3982E-13  0.1282E-04  0.8655E-07  0.8217E-03  0.4687E-04  0.1058E+05
   -1.750013   30.99031  0.3982E-13  0.1179E-04  0.1118E-06  0.7410E-03  0.3975E-04  0.6141E+06
   -1.800011   30.99173  0.3982E-13  0.1040E-04  0.1659E-06  0.5164E-03  0.3423E-04  0.1283E+06
   -1.850010   30.99791  0.3982E-13  0.8865E-05  0.2671E-06  0.4741E-03  0.2450E-04  0.8994E+08
   -1.900008   30.99660  0.3982E-13  0.7019E-05  0.5525E-06  0.2148E-03  0.2002E-04  0.8006E+06
   -1.950005   31.01544  0.3982E-13  0.4908E-05  0.1390E-05  0.1894E-03  0.1080E-04 -0.1713E+07
   -2.000002   31.01750  0.3982E-13  0.0000E+00  0.0000E+00  0.0000E+00  0.1967E-04  0.0000E+00
