 1 - depth, m
 2 - temperature, C
 3 - salinity, kg/kg
 4 - turbulent kinetic energy, m**2/s**2
 5 - dissipation rate, m**2/s**3
 6 - kinematic heat conductance, m**2/s
 7 - modulus of horizontal velocity, m/s
 8 - Richardson number, n/d
   -0.000000   30.51304  0.3806E-13  0.4757E-05  0.2905E-06  0.5026E-04  0.1879E-02  0.4052E+04
   -0.049997   30.54190  0.3806E-13  0.8075E-05  0.1292E-06  0.1751E-03  0.1069E-02  0.2274E+03
   -0.099994   30.55305  0.3806E-13  0.9784E-05  0.8876E-07  0.3934E-03  0.7836E-03  0.1407E+02
   -0.149992   30.55616  0.3806E-13  0.1086E-04  0.7442E-07  0.4748E-03  0.6915E-03  0.6882E+01
   -0.199991   30.55864  0.3806E-13  0.1170E-04  0.6604E-07  0.6339E-03  0.6171E-03  0.4414E+01
   -0.249989   30.56044  0.3806E-13  0.1236E-04  0.6057E-07  0.7583E-03  0.5615E-03  0.3261E+01
   -0.299988   30.56191  0.3806E-13  0.1291E-04  0.5668E-07  0.8820E-03  0.5152E-03  0.2592E+01
   -0.349988   30.56314  0.3806E-13  0.1337E-04  0.5377E-07  0.9941E-03  0.4755E-03  0.2222E+01
   -0.399988   30.56421  0.3806E-13  0.1375E-04  0.5152E-07  0.1097E-02  0.4405E-03  0.1979E+01
   -0.449988   30.56516  0.3806E-13  0.1408E-04  0.4969E-07  0.1192E-02  0.4096E-03  0.1866E+01
   -0.499988   30.56601  0.3806E-13  0.1437E-04  0.4818E-07  0.1280E-02  0.3823E-03  0.1815E+01
   -0.549989   30.56680  0.3806E-13  0.1462E-04  0.4692E-07  0.1361E-02  0.3579E-03  0.1798E+01
   -0.599989   30.56752  0.3806E-13  0.1484E-04  0.4587E-07  0.1435E-02  0.3358E-03  0.1796E+01
   -0.649991   30.56820  0.3806E-13  0.1503E-04  0.4499E-07  0.1500E-02  0.3156E-03  0.1823E+01
   -0.699992   30.56884  0.3806E-13  0.1519E-04  0.4425E-07  0.1559E-02  0.2971E-03  0.1861E+01
   -0.749993   30.56944  0.3806E-13  0.1532E-04  0.4364E-07  0.1609E-02  0.2800E-03  0.1928E+01
   -0.799995   30.57002  0.3806E-13  0.1543E-04  0.4315E-07  0.1652E-02  0.2642E-03  0.2006E+01
   -0.849996   30.57059  0.3806E-13  0.1552E-04  0.4275E-07  0.1687E-02  0.2494E-03  0.2119E+01
   -0.899998   30.57113  0.3806E-13  0.1559E-04  0.4246E-07  0.1714E-02  0.2356E-03  0.2244E+01
   -0.949999   30.57166  0.3806E-13  0.1564E-04  0.4227E-07  0.1732E-02  0.2225E-03  0.2415E+01
   -1.000001   30.57218  0.3806E-13  0.1567E-04  0.4217E-07  0.1743E-02  0.2102E-03  0.2604E+01
   -1.050003   30.57270  0.3806E-13  0.1567E-04  0.4218E-07  0.1744E-02  0.1984E-03  0.2969E+01
   -1.100005   30.57321  0.3806E-13  0.1566E-04  0.4230E-07  0.1829E-02  0.1873E-03  0.9832E+01
   -1.150006   30.57369  0.3806E-13  0.1562E-04  0.4255E-07  0.1664E-02  0.1773E-03  0.2230E+02
   -1.200008   30.57423  0.3806E-13  0.1556E-04  0.4293E-07  0.1687E-02  0.1670E-03  0.4316E+01
   -1.250009   30.57475  0.3806E-13  0.1547E-04  0.4348E-07  0.1657E-02  0.1571E-03  0.4599E+01
   -1.300011   30.57528  0.3806E-13  0.1536E-04  0.4423E-07  0.1608E-02  0.1476E-03  0.5416E+01
   -1.350012   30.57583  0.3806E-13  0.1522E-04  0.4525E-07  0.1550E-02  0.1384E-03  0.6475E+01
   -1.400013   30.57639  0.3806E-13  0.1504E-04  0.4661E-07  0.1473E-02  0.1294E-03  0.8048E+01
   -1.450014   30.57699  0.3806E-13  0.1481E-04  0.4844E-07  0.1398E-02  0.1206E-03  0.1025E+02
   -1.500014   30.57762  0.3806E-13  0.1454E-04  0.5096E-07  0.1285E-02  0.1119E-03  0.1401E+02
   -1.550015   30.57832  0.3806E-13  0.1420E-04  0.5451E-07  0.1204E-02  0.1032E-03  0.1993E+02
   -1.600015   30.57907  0.3806E-13  0.1378E-04  0.5993E-07  0.1058E-02  0.9474E-04  0.3799E+02
   -1.650014   30.57999  0.3806E-13  0.1324E-04  0.6825E-07  0.9842E-03  0.8558E-04  0.1347E+03
   -1.700014   30.58101  0.3806E-13  0.1249E-04  0.8328E-07  0.7989E-03  0.7677E-04  0.4232E+04
   -1.750013   30.58288  0.3806E-13  0.1148E-04  0.1079E-06  0.7246E-03  0.6479E-04  0.8191E+05
   -1.800012   30.58440  0.3806E-13  0.1013E-04  0.1581E-06  0.5050E-03  0.5568E-04  0.4599E+05
   -1.850010   30.59064  0.3806E-13  0.8622E-05  0.2548E-06  0.4632E-03  0.3974E-04  0.3136E+08
   -1.900008   30.58949  0.3806E-13  0.6859E-05  0.5284E-06  0.2100E-03  0.3237E-04 -0.2002E+06
   -1.950005   30.60918  0.3806E-13  0.4798E-05  0.1335E-05  0.1852E-03  0.1746E-04 -0.2689E+06
   -2.000002   30.61145  0.3806E-13  0.0000E+00  0.0000E+00  0.0000E+00  0.3174E-04  0.0000E+00
