 1 - depth, m
 2 - temperature, C
 3 - salinity, kg/kg
 4 - turbulent kinetic energy, m**2/s**2
 5 - dissipation rate, m**2/s**3
 6 - kinematic heat conductance, m**2/s
 7 - modulus of horizontal velocity, m/s
 8 - Richardson number, n/d
   -0.000000   30.58560  0.6328E-13  0.4730E-05  0.2900E-06  0.4993E-04  0.1556E-02  0.4605E+04
   -0.049997   30.61516  0.6328E-13  0.8095E-05  0.1294E-06  0.1753E-03  0.8876E-03  0.4767E+03
   -0.099994   30.62651  0.6328E-13  0.9817E-05  0.8905E-07  0.3946E-03  0.6500E-03  0.1974E+02
   -0.149992   30.62967  0.6328E-13  0.1090E-04  0.7471E-07  0.4754E-03  0.5738E-03  0.9627E+01
   -0.199991   30.63218  0.6328E-13  0.1174E-04  0.6631E-07  0.6351E-03  0.5121E-03  0.6173E+01
   -0.249989   30.63400  0.6328E-13  0.1240E-04  0.6080E-07  0.7597E-03  0.4660E-03  0.4542E+01
   -0.299988   30.63548  0.6328E-13  0.1295E-04  0.5688E-07  0.8836E-03  0.4277E-03  0.3613E+01
   -0.349988   30.63672  0.6328E-13  0.1340E-04  0.5394E-07  0.9960E-03  0.3948E-03  0.3081E+01
   -0.399988   30.63779  0.6328E-13  0.1378E-04  0.5164E-07  0.1099E-02  0.3657E-03  0.2746E+01
   -0.449988   30.63874  0.6328E-13  0.1411E-04  0.4978E-07  0.1195E-02  0.3402E-03  0.2570E+01
   -0.499988   30.63960  0.6328E-13  0.1439E-04  0.4824E-07  0.1283E-02  0.3176E-03  0.2501E+01
   -0.549989   30.64038  0.6328E-13  0.1464E-04  0.4695E-07  0.1363E-02  0.2974E-03  0.2460E+01
   -0.599990   30.64111  0.6328E-13  0.1485E-04  0.4587E-07  0.1436E-02  0.2791E-03  0.2463E+01
   -0.649991   30.64179  0.6328E-13  0.1503E-04  0.4495E-07  0.1502E-02  0.2624E-03  0.2486E+01
   -0.699992   30.64242  0.6328E-13  0.1519E-04  0.4418E-07  0.1561E-02  0.2471E-03  0.2545E+01
   -0.749993   30.64303  0.6328E-13  0.1532E-04  0.4353E-07  0.1612E-02  0.2330E-03  0.2620E+01
   -0.799995   30.64360  0.6328E-13  0.1542E-04  0.4299E-07  0.1655E-02  0.2198E-03  0.2733E+01
   -0.849996   30.64416  0.6328E-13  0.1551E-04  0.4256E-07  0.1691E-02  0.2075E-03  0.2864E+01
   -0.899998   30.64470  0.6328E-13  0.1557E-04  0.4222E-07  0.1719E-02  0.1960E-03  0.3040E+01
   -0.949999   30.64522  0.6328E-13  0.1561E-04  0.4198E-07  0.1739E-02  0.1852E-03  0.3243E+01
   -1.000001   30.64574  0.6328E-13  0.1564E-04  0.4184E-07  0.1751E-02  0.1749E-03  0.3504E+01
   -1.050003   30.64624  0.6328E-13  0.1564E-04  0.4179E-07  0.1753E-02  0.1652E-03  0.3958E+01
   -1.100005   30.64675  0.6328E-13  0.1562E-04  0.4185E-07  0.1834E-02  0.1559E-03  0.1323E+02
   -1.150006   30.64722  0.6328E-13  0.1558E-04  0.4204E-07  0.1681E-02  0.1476E-03  0.2929E+02
   -1.200008   30.64774  0.6328E-13  0.1552E-04  0.4235E-07  0.1702E-02  0.1391E-03  0.5666E+01
   -1.250009   30.64825  0.6328E-13  0.1543E-04  0.4282E-07  0.1672E-02  0.1309E-03  0.6049E+01
   -1.300011   30.64876  0.6328E-13  0.1532E-04  0.4348E-07  0.1626E-02  0.1230E-03  0.7033E+01
   -1.350012   30.64929  0.6328E-13  0.1517E-04  0.4439E-07  0.1569E-02  0.1153E-03  0.8406E+01
   -1.400013   30.64983  0.6328E-13  0.1500E-04  0.4561E-07  0.1495E-02  0.1079E-03  0.1030E+02
   -1.450014   30.65040  0.6328E-13  0.1478E-04  0.4725E-07  0.1419E-02  0.1006E-03  0.1305E+02
   -1.500014   30.65101  0.6328E-13  0.1451E-04  0.4952E-07  0.1310E-02  0.9347E-04  0.1751E+02
   -1.550015   30.65166  0.6328E-13  0.1419E-04  0.5271E-07  0.1227E-02  0.8630E-04  0.2453E+02
   -1.600015   30.65237  0.6328E-13  0.1379E-04  0.5751E-07  0.1080E-02  0.7930E-04  0.4364E+02
   -1.650014   30.65322  0.6328E-13  0.1328E-04  0.6480E-07  0.1003E-02  0.7181E-04  0.2340E+03
   -1.700014   30.65415  0.6328E-13  0.1258E-04  0.7792E-07  0.8167E-03  0.6467E-04  0.2518E+04
   -1.750013   30.65580  0.6328E-13  0.1164E-04  0.9963E-07  0.7423E-03  0.5516E-04  0.3092E+06
   -1.800012   30.65719  0.6328E-13  0.1035E-04  0.1441E-06  0.5187E-03  0.4762E-04  0.4473E+04
   -1.850010   30.66263  0.6328E-13  0.8833E-05  0.2291E-06  0.4716E-03  0.3477E-04  0.1422E+07
   -1.900008   30.66207  0.6328E-13  0.6973E-05  0.4711E-06  0.2072E-03  0.2818E-04 -0.1674E+08
   -1.950005   30.67999  0.6328E-13  0.4837E-05  0.1199E-05  0.1792E-03  0.1533E-04 -0.3426E+06
   -2.000002   30.68197  0.6328E-13  0.0000E+00  0.0000E+00  0.0000E+00  0.2673E-04  0.0000E+00
