 1 - depth, m
 2 - temperature, C
 3 - salinity, kg/kg
 4 - turbulent kinetic energy, m**2/s**2
 5 - dissipation rate, m**2/s**3
 6 - kinematic heat conductance, m**2/s
 7 - modulus of horizontal velocity, m/s
 8 - Richardson number, n/d
   -0.000000   30.35333  0.1004E-13  0.4783E-05  0.2980E-06  0.4995E-04  0.1087E-02  0.5171E+04
   -0.049997   30.38401  0.1004E-13  0.8288E-05  0.1324E-06  0.1798E-03  0.6156E-03  0.4269E+03
   -0.099994   30.39569  0.1004E-13  0.1006E-04  0.9139E-07  0.4046E-03  0.4507E-03  0.4063E+02
   -0.149992   30.39888  0.1004E-13  0.1117E-04  0.7687E-07  0.4848E-03  0.3985E-03  0.1993E+02
   -0.199991   30.40144  0.1004E-13  0.1203E-04  0.6835E-07  0.6479E-03  0.3560E-03  0.1283E+02
   -0.249989   30.40330  0.1004E-13  0.1272E-04  0.6277E-07  0.7735E-03  0.3242E-03  0.9511E+01
   -0.299988   30.40481  0.1004E-13  0.1328E-04  0.5879E-07  0.8992E-03  0.2978E-03  0.7575E+01
   -0.349988   30.40608  0.1004E-13  0.1375E-04  0.5581E-07  0.1013E-02  0.2751E-03  0.6493E+01
   -0.399988   30.40719  0.1004E-13  0.1414E-04  0.5349E-07  0.1117E-02  0.2550E-03  0.5784E+01
   -0.449988   30.40817  0.1004E-13  0.1448E-04  0.5161E-07  0.1213E-02  0.2374E-03  0.5440E+01
   -0.499988   30.40905  0.1004E-13  0.1477E-04  0.5006E-07  0.1302E-02  0.2218E-03  0.5285E+01
   -0.549989   30.40986  0.1004E-13  0.1503E-04  0.4876E-07  0.1383E-02  0.2078E-03  0.5224E+01
   -0.599990   30.41061  0.1004E-13  0.1524E-04  0.4767E-07  0.1456E-02  0.1951E-03  0.5218E+01
   -0.649991   30.41131  0.1004E-13  0.1543E-04  0.4675E-07  0.1522E-02  0.1835E-03  0.5293E+01
   -0.699992   30.41197  0.1004E-13  0.1559E-04  0.4598E-07  0.1580E-02  0.1729E-03  0.5403E+01
   -0.749993   30.41260  0.1004E-13  0.1573E-04  0.4534E-07  0.1631E-02  0.1631E-03  0.5592E+01
   -0.799995   30.41320  0.1004E-13  0.1584E-04  0.4481E-07  0.1674E-02  0.1540E-03  0.5816E+01
   -0.849996   30.41378  0.1004E-13  0.1592E-04  0.4439E-07  0.1709E-02  0.1454E-03  0.6127E+01
   -0.899998   30.41434  0.1004E-13  0.1599E-04  0.4407E-07  0.1736E-02  0.1374E-03  0.6486E+01
   -0.949999   30.41489  0.1004E-13  0.1603E-04  0.4385E-07  0.1754E-02  0.1299E-03  0.6956E+01
   -1.000001   30.41543  0.1004E-13  0.1605E-04  0.4373E-07  0.1765E-02  0.1227E-03  0.7499E+01
   -1.050003   30.41596  0.1004E-13  0.1605E-04  0.4372E-07  0.1765E-02  0.1160E-03  0.8513E+01
   -1.100005   30.41649  0.1004E-13  0.1603E-04  0.4382E-07  0.1854E-02  0.1095E-03  0.2815E+02
   -1.150006   30.41698  0.1004E-13  0.1599E-04  0.4407E-07  0.1678E-02  0.1037E-03  0.6403E+02
   -1.200008   30.41753  0.1004E-13  0.1592E-04  0.4444E-07  0.1705E-02  0.9771E-04  0.1232E+02
   -1.250009   30.41807  0.1004E-13  0.1582E-04  0.4498E-07  0.1674E-02  0.9198E-04  0.1312E+02
   -1.300011   30.41861  0.1004E-13  0.1570E-04  0.4574E-07  0.1624E-02  0.8646E-04  0.1539E+02
   -1.350012   30.41917  0.1004E-13  0.1554E-04  0.4678E-07  0.1564E-02  0.8110E-04  0.1843E+02
   -1.400013   30.41975  0.1004E-13  0.1535E-04  0.4817E-07  0.1486E-02  0.7587E-04  0.2284E+02
   -1.450014   30.42036  0.1004E-13  0.1511E-04  0.5005E-07  0.1408E-02  0.7074E-04  0.2919E+02
   -1.500014   30.42100  0.1004E-13  0.1482E-04  0.5267E-07  0.1295E-02  0.6569E-04  0.3985E+02
   -1.550015   30.42171  0.1004E-13  0.1446E-04  0.5637E-07  0.1211E-02  0.6062E-04  0.5723E+02
   -1.600015   30.42248  0.1004E-13  0.1402E-04  0.6203E-07  0.1065E-02  0.5564E-04  0.1150E+03
   -1.650014   30.42343  0.1004E-13  0.1345E-04  0.7083E-07  0.9892E-03  0.5029E-04  0.1069E+04
   -1.700014   30.42450  0.1004E-13  0.1266E-04  0.8666E-07  0.8013E-03  0.4505E-04  0.1249E+05
   -1.750013   30.42641  0.1004E-13  0.1162E-04  0.1124E-06  0.7261E-03  0.3803E-04  0.1191E+06
   -1.800012   30.42802  0.1004E-13  0.1024E-04  0.1657E-06  0.5039E-03  0.3267E-04  0.6297E+05
   -1.850010   30.43459  0.1004E-13  0.8688E-05  0.2677E-06  0.4655E-03  0.2324E-04  0.6929E+08
   -1.900008   30.43317  0.1004E-13  0.6892E-05  0.5572E-06  0.2114E-03  0.1894E-04 -0.3788E+06
   -1.950005   30.45333  0.1004E-13  0.4832E-05  0.1391E-05  0.1900E-03  0.1016E-04 -0.3293E+07
   -2.000002   30.45468  0.1004E-13  0.0000E+00  0.0000E+00  0.0000E+00  0.1874E-04  0.0000E+00
