 1 - depth, m
 2 - temperature, C
 3 - salinity, kg/kg
 4 - turbulent kinetic energy, m**2/s**2
 5 - dissipation rate, m**2/s**3
 6 - kinematic heat conductance, m**2/s
 7 - modulus of horizontal velocity, m/s
 8 - Richardson number, n/d
   -0.000000   30.53574  0.7957E-13  0.4691E-05  0.2876E-06  0.4890E-04  0.8420E-03  0.1806E+05
   -0.049997   30.56649  0.7957E-13  0.8184E-05  0.1277E-06  0.1800E-03  0.4739E-03  0.5135E+02
   -0.099994   30.57776  0.7958E-13  0.9909E-05  0.8839E-07  0.4040E-03  0.3477E-03  0.6800E+02
   -0.149992   30.58088  0.7958E-13  0.1099E-04  0.7450E-07  0.4832E-03  0.3076E-03  0.3320E+02
   -0.199991   30.58338  0.7958E-13  0.1182E-04  0.6630E-07  0.6439E-03  0.2749E-03  0.2152E+02
   -0.249989   30.58520  0.7958E-13  0.1249E-04  0.6090E-07  0.7682E-03  0.2504E-03  0.1594E+02
   -0.299988   30.58668  0.7958E-13  0.1303E-04  0.5704E-07  0.8919E-03  0.2300E-03  0.1273E+02
   -0.349988   30.58793  0.7958E-13  0.1348E-04  0.5414E-07  0.1004E-02  0.2124E-03  0.1089E+02
   -0.399988   30.58901  0.7958E-13  0.1386E-04  0.5188E-07  0.1106E-02  0.1969E-03  0.9719E+01
   -0.449988   30.58997  0.7958E-13  0.1418E-04  0.5004E-07  0.1201E-02  0.1833E-03  0.9114E+01
   -0.499988   30.59083  0.7958E-13  0.1447E-04  0.4851E-07  0.1289E-02  0.1711E-03  0.8878E+01
   -0.549989   30.59162  0.7958E-13  0.1471E-04  0.4724E-07  0.1368E-02  0.1603E-03  0.8748E+01
   -0.599989   30.59235  0.7958E-13  0.1492E-04  0.4617E-07  0.1441E-02  0.1505E-03  0.8767E+01
   -0.649990   30.59303  0.7958E-13  0.1510E-04  0.4526E-07  0.1505E-02  0.1415E-03  0.8865E+01
   -0.699992   30.59367  0.7958E-13  0.1525E-04  0.4450E-07  0.1563E-02  0.1333E-03  0.9085E+01
   -0.749993   30.59428  0.7958E-13  0.1538E-04  0.4386E-07  0.1613E-02  0.1257E-03  0.9375E+01
   -0.799995   30.59487  0.7958E-13  0.1548E-04  0.4334E-07  0.1655E-02  0.1186E-03  0.9795E+01
   -0.849996   30.59543  0.7958E-13  0.1556E-04  0.4292E-07  0.1689E-02  0.1120E-03  0.1029E+02
   -0.899998   30.59597  0.7958E-13  0.1563E-04  0.4260E-07  0.1716E-02  0.1058E-03  0.1095E+02
   -0.949999   30.59651  0.7958E-13  0.1566E-04  0.4238E-07  0.1734E-02  0.1000E-03  0.1172E+02
   -1.000001   30.59703  0.7958E-13  0.1568E-04  0.4226E-07  0.1744E-02  0.9447E-04  0.1270E+02
   -1.050003   30.59754  0.7958E-13  0.1568E-04  0.4224E-07  0.1745E-02  0.8922E-04  0.1439E+02
   -1.100005   30.59805  0.7958E-13  0.1566E-04  0.4233E-07  0.1832E-02  0.8421E-04  0.4767E+02
   -1.150006   30.59853  0.7958E-13  0.1561E-04  0.4255E-07  0.1660E-02  0.7975E-04  0.1101E+03
   -1.200008   30.59907  0.7958E-13  0.1554E-04  0.4291E-07  0.1685E-02  0.7511E-04  0.2101E+02
   -1.250009   30.59958  0.7958E-13  0.1545E-04  0.4343E-07  0.1655E-02  0.7068E-04  0.2249E+02
   -1.300011   30.60011  0.7958E-13  0.1533E-04  0.4416E-07  0.1605E-02  0.6642E-04  0.2641E+02
   -1.350012   30.60065  0.7958E-13  0.1517E-04  0.4515E-07  0.1546E-02  0.6227E-04  0.3183E+02
   -1.400013   30.60121  0.7958E-13  0.1498E-04  0.4649E-07  0.1469E-02  0.5825E-04  0.3957E+02
   -1.450014   30.60180  0.7958E-13  0.1475E-04  0.4832E-07  0.1392E-02  0.5428E-04  0.5090E+02
   -1.500014   30.60243  0.7958E-13  0.1447E-04  0.5084E-07  0.1279E-02  0.5040E-04  0.7007E+02
   -1.550015   30.60312  0.7958E-13  0.1412E-04  0.5442E-07  0.1199E-02  0.4648E-04  0.1013E+03
   -1.600015   30.60386  0.7958E-13  0.1369E-04  0.5996E-07  0.1051E-02  0.4267E-04  0.3361E+03
   -1.650014   30.60479  0.7958E-13  0.1313E-04  0.6851E-07  0.9787E-03  0.3851E-04  0.5851E+04
   -1.700014   30.60581  0.7958E-13  0.1235E-04  0.8384E-07  0.7892E-03  0.3454E-04 -0.8793E+04
   -1.750013   30.60772  0.7958E-13  0.1133E-04  0.1091E-06  0.7234E-03  0.2910E-04  0.3231E+06
   -1.800012   30.60919  0.7958E-13  0.9982E-05  0.1633E-06  0.4946E-03  0.2504E-04  0.2988E+05
   -1.850010   30.61571  0.7958E-13  0.8471E-05  0.2649E-06  0.4627E-03  0.1778E-04  0.3197E+09
   -1.900008   30.61416  0.7958E-13  0.6758E-05  0.5574E-06  0.2129E-03  0.1452E-04  0.1758E+07
   -1.950005   30.63363  0.7958E-13  0.4714E-05  0.1390E-05  0.1886E-03  0.7824E-05 -0.4965E+07
   -2.000002   30.63670  0.7958E-13  0.0000E+00  0.0000E+00  0.0000E+00  0.1442E-04  0.0000E+00
