 1 - depth, m
 2 - temperature, C
 3 - salinity, kg/kg
 4 - turbulent kinetic energy, m**2/s**2
 5 - dissipation rate, m**2/s**3
 6 - kinematic heat conductance, m**2/s
 7 - modulus of horizontal velocity, m/s
 8 - Richardson number, n/d
   -0.000000   30.23156  0.1918E-13  0.5626E-05  0.3440E-06  0.5388E-04  0.3046E-02  0.2276E+04
   -0.049997   30.26467  0.1918E-13  0.9228E-05  0.1496E-06  0.2045E-03  0.1655E-02  0.1500E+02
   -0.099994   30.27529  0.1918E-13  0.1095E-04  0.1052E-06  0.4015E-03  0.1283E-02  0.5569E+01
   -0.149992   30.27889  0.1918E-13  0.1208E-04  0.8835E-07  0.4990E-03  0.1140E-02  0.2874E+01
   -0.199990   30.28167  0.1918E-13  0.1296E-04  0.7852E-07  0.6504E-03  0.1028E-02  0.1881E+01
   -0.249989   30.28373  0.1918E-13  0.1368E-04  0.7212E-07  0.7690E-03  0.9426E-03  0.1431E+01
   -0.299988   30.28543  0.1918E-13  0.1428E-04  0.6753E-07  0.8825E-03  0.8704E-03  0.1264E+01
   -0.349988   30.28688  0.1918E-13  0.1481E-04  0.6394E-07  0.1000E-02  0.8050E-03  0.1262E+01
   -0.399987   30.28813  0.1918E-13  0.1529E-04  0.6100E-07  0.1125E-02  0.7424E-03  0.1271E+01
   -0.449987   30.28921  0.1918E-13  0.1573E-04  0.5854E-07  0.1249E-02  0.6844E-03  0.1280E+01
   -0.499988   30.29017  0.1918E-13  0.1611E-04  0.5649E-07  0.1365E-02  0.6318E-03  0.1289E+01
   -0.549988   30.29104  0.1918E-13  0.1645E-04  0.5478E-07  0.1472E-02  0.5843E-03  0.1286E+01
   -0.599989   30.29182  0.1918E-13  0.1675E-04  0.5337E-07  0.1568E-02  0.5415E-03  0.1281E+01
   -0.649990   30.29255  0.1918E-13  0.1699E-04  0.5222E-07  0.1653E-02  0.5029E-03  0.1270E+01
   -0.699991   30.29323  0.1918E-13  0.1719E-04  0.5129E-07  0.1726E-02  0.4680E-03  0.1257E+01
   -0.749992   30.29388  0.1918E-13  0.1735E-04  0.5056E-07  0.1785E-02  0.4364E-03  0.1239E+01
   -0.799994   30.29449  0.1918E-13  0.1748E-04  0.5000E-07  0.1831E-02  0.4080E-03  0.1221E+01
   -0.849995   30.29508  0.1918E-13  0.1757E-04  0.4959E-07  0.1865E-02  0.3823E-03  0.1200E+01
   -0.899997   30.29566  0.1918E-13  0.1763E-04  0.4933E-07  0.1887E-02  0.3590E-03  0.1185E+01
   -0.949998   30.29623  0.1918E-13  0.1766E-04  0.4921E-07  0.1897E-02  0.3380E-03  0.1177E+01
   -1.000000   30.29679  0.1918E-13  0.1767E-04  0.4920E-07  0.1898E-02  0.3189E-03  0.1194E+01
   -1.050002   30.29734  0.1918E-13  0.1764E-04  0.4932E-07  0.1887E-02  0.3013E-03  0.1279E+01
   -1.100003   30.29789  0.1918E-13  0.1760E-04  0.4957E-07  0.2024E-02  0.2850E-03  0.3970E+01
   -1.150005   30.29841  0.1918E-13  0.1753E-04  0.4999E-07  0.1728E-02  0.2711E-03  0.1005E+02
   -1.200007   30.29901  0.1918E-13  0.1743E-04  0.5056E-07  0.1793E-02  0.2557E-03  0.1846E+01
   -1.250008   30.29959  0.1918E-13  0.1730E-04  0.5135E-07  0.1757E-02  0.2413E-03  0.1974E+01
   -1.300009   30.30017  0.1918E-13  0.1714E-04  0.5243E-07  0.1695E-02  0.2274E-03  0.2336E+01
   -1.350010   30.30078  0.1918E-13  0.1695E-04  0.5386E-07  0.1624E-02  0.2138E-03  0.2843E+01
   -1.400011   30.30141  0.1918E-13  0.1670E-04  0.5578E-07  0.1533E-02  0.2005E-03  0.3586E+01
   -1.450012   30.30209  0.1918E-13  0.1641E-04  0.5840E-07  0.1445E-02  0.1873E-03  0.4703E+01
   -1.500013   30.30281  0.1918E-13  0.1605E-04  0.6205E-07  0.1324E-02  0.1742E-03  0.6644E+01
   -1.550013   30.30362  0.1918E-13  0.1561E-04  0.6736E-07  0.1234E-02  0.1610E-03  0.1064E+02
   -1.600013   30.30452  0.1918E-13  0.1505E-04  0.7570E-07  0.1085E-02  0.1478E-03  0.2544E+02
   -1.650013   30.30568  0.1918E-13  0.1431E-04  0.8882E-07  0.9952E-03  0.1331E-03  0.4416E+03
   -1.700012   30.30710  0.1918E-13  0.1331E-04  0.1113E-06  0.8140E-03  0.1181E-03 -0.1290E+04
   -1.750011   30.30946  0.1918E-13  0.1210E-04  0.1471E-06  0.7251E-03  0.9885E-04  0.3250E+06
   -1.800010   30.31115  0.1918E-13  0.1052E-04  0.2289E-06  0.4983E-03  0.8499E-04  0.4239E+04
   -1.850008   30.32046  0.1918E-13  0.8933E-05  0.3785E-06  0.4751E-03  0.5854E-04  0.1184E+08
   -1.900006   30.31699  0.1918E-13  0.7142E-05  0.8012E-06  0.2175E-03  0.4868E-04 -0.6293E+05
   -1.950003   30.34231  0.1918E-13  0.5125E-05  0.1905E-05  0.2189E-03  0.2593E-04 -0.1898E+06
   -2.000000   30.34274  0.1918E-13  0.0000E+00  0.0000E+00  0.0000E+00  0.5112E-04  0.0000E+00
