 1 - depth, m
 2 - temperature, C
 3 - salinity, kg/kg
 4 - turbulent kinetic energy, m**2/s**2
 5 - dissipation rate, m**2/s**3
 6 - kinematic heat conductance, m**2/s
 7 - modulus of horizontal velocity, m/s
 8 - Richardson number, n/d
   -0.000000   30.32721  0.5683E-14  0.4576E-05  0.2790E-06  0.4970E-04  0.1223E-02  0.3241E+04
   -0.049997   30.35562  0.5683E-14  0.7919E-05  0.1241E-06  0.1730E-03  0.6994E-03  0.1055E+03
   -0.099994   30.36693  0.5683E-14  0.9628E-05  0.8529E-07  0.3988E-03  0.5080E-03  0.3103E+02
   -0.149992   30.36994  0.5683E-14  0.1069E-04  0.7177E-07  0.4757E-03  0.4490E-03  0.1507E+02
   -0.199991   30.37237  0.5683E-14  0.1152E-04  0.6383E-07  0.6360E-03  0.4008E-03  0.9723E+01
   -0.249989   30.37413  0.5683E-14  0.1218E-04  0.5863E-07  0.7600E-03  0.3648E-03  0.7180E+01
   -0.299988   30.37557  0.5683E-14  0.1272E-04  0.5492E-07  0.8834E-03  0.3348E-03  0.5727E+01
   -0.349988   30.37677  0.5683E-14  0.1316E-04  0.5214E-07  0.9954E-03  0.3091E-03  0.4895E+01
   -0.399988   30.37782  0.5683E-14  0.1354E-04  0.4998E-07  0.1098E-02  0.2864E-03  0.4371E+01
   -0.449988   30.37875  0.5683E-14  0.1387E-04  0.4822E-07  0.1193E-02  0.2664E-03  0.4098E+01
   -0.499988   30.37959  0.5683E-14  0.1415E-04  0.4677E-07  0.1280E-02  0.2487E-03  0.3994E+01
   -0.549989   30.38036  0.5683E-14  0.1440E-04  0.4557E-07  0.1361E-02  0.2328E-03  0.3934E+01
   -0.599990   30.38107  0.5683E-14  0.1461E-04  0.4455E-07  0.1433E-02  0.2185E-03  0.3944E+01
   -0.649991   30.38174  0.5683E-14  0.1480E-04  0.4369E-07  0.1499E-02  0.2054E-03  0.3986E+01
   -0.699992   30.38236  0.5683E-14  0.1496E-04  0.4297E-07  0.1557E-02  0.1934E-03  0.4085E+01
   -0.749993   30.38296  0.5683E-14  0.1509E-04  0.4237E-07  0.1608E-02  0.1824E-03  0.4210E+01
   -0.799995   30.38353  0.5683E-14  0.1520E-04  0.4188E-07  0.1651E-02  0.1721E-03  0.4396E+01
   -0.849996   30.38408  0.5683E-14  0.1529E-04  0.4149E-07  0.1686E-02  0.1624E-03  0.4611E+01
   -0.899998   30.38461  0.5683E-14  0.1536E-04  0.4119E-07  0.1714E-02  0.1534E-03  0.4899E+01
   -0.950000   30.38513  0.5683E-14  0.1540E-04  0.4098E-07  0.1734E-02  0.1449E-03  0.5229E+01
   -1.000001   30.38564  0.5683E-14  0.1543E-04  0.4087E-07  0.1746E-02  0.1369E-03  0.5656E+01
   -1.050003   30.38614  0.5683E-14  0.1544E-04  0.4085E-07  0.1748E-02  0.1292E-03  0.6393E+01
   -1.100005   30.38664  0.5683E-14  0.1542E-04  0.4093E-07  0.1828E-02  0.1220E-03  0.2142E+02
   -1.150006   30.38711  0.5683E-14  0.1539E-04  0.4114E-07  0.1677E-02  0.1155E-03  0.4725E+02
   -1.200008   30.38763  0.5683E-14  0.1533E-04  0.4146E-07  0.1697E-02  0.1088E-03  0.9165E+01
   -1.250009   30.38813  0.5683E-14  0.1525E-04  0.4195E-07  0.1667E-02  0.1023E-03  0.9796E+01
   -1.300011   30.38864  0.5683E-14  0.1514E-04  0.4262E-07  0.1621E-02  0.9616E-04  0.1140E+02
   -1.350012   30.38917  0.5683E-14  0.1500E-04  0.4352E-07  0.1564E-02  0.9016E-04  0.1362E+02
   -1.400013   30.38971  0.5683E-14  0.1483E-04  0.4474E-07  0.1491E-02  0.8434E-04  0.1668E+02
   -1.450014   30.39028  0.5683E-14  0.1462E-04  0.4637E-07  0.1415E-02  0.7862E-04  0.2115E+02
   -1.500014   30.39088  0.5683E-14  0.1436E-04  0.4861E-07  0.1309E-02  0.7302E-04  0.2828E+02
   -1.550015   30.39153  0.5683E-14  0.1405E-04  0.5176E-07  0.1221E-02  0.6741E-04  0.3972E+02
   -1.600015   30.39224  0.5683E-14  0.1366E-04  0.5644E-07  0.1083E-02  0.6190E-04  0.6641E+02
   -1.650015   30.39308  0.5683E-14  0.1316E-04  0.6359E-07  0.9988E-03  0.5612E-04  0.3495E+03
   -1.700014   30.39402  0.5683E-14  0.1247E-04  0.7639E-07  0.8248E-03  0.5043E-04 -0.3765E+04
   -1.750013   30.39562  0.5683E-14  0.1155E-04  0.9750E-07  0.7395E-03  0.4314E-04  0.1668E+05
   -1.800012   30.39708  0.5683E-14  0.1026E-04  0.1424E-06  0.5183E-03  0.3711E-04  0.8603E+06
   -1.850010   30.40246  0.5683E-14  0.8768E-05  0.2255E-06  0.4712E-03  0.2710E-04  0.1006E+09
   -1.900008   30.40197  0.5683E-14  0.6972E-05  0.4710E-06  0.2128E-03  0.2192E-04  0.6731E+06
   -1.950006   30.41948  0.5683E-14  0.4830E-05  0.1194E-05  0.1768E-03  0.1205E-04 -0.1018E+07
   -2.000002   30.42175  0.5683E-14  0.0000E+00  0.0000E+00  0.0000E+00  0.2099E-04  0.0000E+00
