 1 - depth, m
 2 - temperature, C
 3 - salinity, kg/kg
 4 - turbulent kinetic energy, m**2/s**2
 5 - dissipation rate, m**2/s**3
 6 - kinematic heat conductance, m**2/s
 7 - modulus of horizontal velocity, m/s
 8 - Richardson number, n/d
   -0.000000   30.39630  0.3466E-13  0.4708E-05  0.2895E-06  0.4975E-04  0.1181E-02  0.2208E+04
   -0.049997   30.42643  0.3466E-13  0.8134E-05  0.1290E-06  0.1760E-03  0.6708E-03  0.4007E+02
   -0.099994   30.43803  0.3466E-13  0.9864E-05  0.8891E-07  0.3990E-03  0.4907E-03  0.3833E+02
   -0.149992   30.44121  0.3466E-13  0.1094E-04  0.7476E-07  0.4780E-03  0.4333E-03  0.1868E+02
   -0.199991   30.44375  0.3466E-13  0.1178E-04  0.6643E-07  0.6381E-03  0.3868E-03  0.1205E+02
   -0.249989   30.44559  0.3466E-13  0.1244E-04  0.6094E-07  0.7624E-03  0.3519E-03  0.8929E+01
   -0.299989   30.44709  0.3466E-13  0.1298E-04  0.5702E-07  0.8860E-03  0.3230E-03  0.7097E+01
   -0.349988   30.44835  0.3466E-13  0.1343E-04  0.5407E-07  0.9980E-03  0.2981E-03  0.6086E+01
   -0.399988   30.44944  0.3466E-13  0.1381E-04  0.5176E-07  0.1100E-02  0.2762E-03  0.5408E+01
   -0.449988   30.45040  0.3466E-13  0.1413E-04  0.4988E-07  0.1195E-02  0.2568E-03  0.5093E+01
   -0.499988   30.45127  0.3466E-13  0.1440E-04  0.4832E-07  0.1283E-02  0.2398E-03  0.4937E+01
   -0.549989   30.45206  0.3466E-13  0.1464E-04  0.4701E-07  0.1363E-02  0.2244E-03  0.4887E+01
   -0.599990   30.45280  0.3466E-13  0.1485E-04  0.4589E-07  0.1436E-02  0.2106E-03  0.4867E+01
   -0.649991   30.45348  0.3466E-13  0.1502E-04  0.4494E-07  0.1501E-02  0.1980E-03  0.4942E+01
   -0.699992   30.45413  0.3466E-13  0.1517E-04  0.4414E-07  0.1559E-02  0.1864E-03  0.5027E+01
   -0.749993   30.45474  0.3466E-13  0.1529E-04  0.4345E-07  0.1609E-02  0.1757E-03  0.5207E+01
   -0.799995   30.45532  0.3466E-13  0.1539E-04  0.4288E-07  0.1652E-02  0.1658E-03  0.5392E+01
   -0.849996   30.45588  0.3466E-13  0.1546E-04  0.4241E-07  0.1687E-02  0.1564E-03  0.5683E+01
   -0.899998   30.45642  0.3466E-13  0.1552E-04  0.4203E-07  0.1715E-02  0.1477E-03  0.5985E+01
   -0.950000   30.45695  0.3466E-13  0.1555E-04  0.4174E-07  0.1734E-02  0.1395E-03  0.6418E+01
   -1.000001   30.45747  0.3466E-13  0.1556E-04  0.4156E-07  0.1746E-02  0.1318E-03  0.6880E+01
   -1.050003   30.45797  0.3466E-13  0.1555E-04  0.4146E-07  0.1748E-02  0.1244E-03  0.7803E+01
   -1.100005   30.45847  0.3466E-13  0.1552E-04  0.4147E-07  0.1831E-02  0.1174E-03  0.2580E+02
   -1.150006   30.45895  0.3466E-13  0.1547E-04  0.4161E-07  0.1672E-02  0.1111E-03  0.5766E+02
   -1.200008   30.45946  0.3466E-13  0.1540E-04  0.4186E-07  0.1695E-02  0.1047E-03  0.1114E+02
   -1.250010   30.45996  0.3466E-13  0.1530E-04  0.4227E-07  0.1666E-02  0.9848E-04  0.1177E+02
   -1.300011   30.46047  0.3466E-13  0.1517E-04  0.4287E-07  0.1619E-02  0.9251E-04  0.1375E+02
   -1.350012   30.46099  0.3466E-13  0.1502E-04  0.4370E-07  0.1562E-02  0.8675E-04  0.1630E+02
   -1.400013   30.46152  0.3466E-13  0.1483E-04  0.4484E-07  0.1488E-02  0.8113E-04  0.2004E+02
   -1.450014   30.46208  0.3466E-13  0.1460E-04  0.4640E-07  0.1412E-02  0.7564E-04  0.2522E+02
   -1.500015   30.46266  0.3466E-13  0.1432E-04  0.4857E-07  0.1304E-02  0.7023E-04  0.3390E+02
   -1.550015   30.46330  0.3466E-13  0.1399E-04  0.5163E-07  0.1218E-02  0.6484E-04  0.4727E+02
   -1.600015   30.46399  0.3466E-13  0.1358E-04  0.5625E-07  0.1075E-02  0.5954E-04  0.8301E+02
   -1.650015   30.46479  0.3466E-13  0.1306E-04  0.6336E-07  0.9964E-03  0.5397E-04  0.4935E+03
   -1.700014   30.46570  0.3466E-13  0.1235E-04  0.7623E-07  0.8152E-03  0.4852E-04 -0.2125E+04
   -1.750013   30.46725  0.3466E-13  0.1140E-04  0.9753E-07  0.7325E-03  0.4144E-04  0.3094E+06
   -1.800012   30.46864  0.3466E-13  0.1008E-04  0.1407E-06  0.5179E-03  0.3558E-04  0.8253E+05
   -1.850010   30.47363  0.3466E-13  0.8548E-05  0.2233E-06  0.4624E-03  0.2591E-04  0.7786E+08
   -1.900008   30.47336  0.3466E-13  0.6719E-05  0.4655E-06  0.2121E-03  0.2081E-04  0.2606E+06
   -1.950006   30.48986  0.3466E-13  0.4664E-05  0.1177E-05  0.1798E-03  0.1126E-04 -0.3052E+08
   -2.000003   30.49187  0.3466E-13  0.0000E+00  0.0000E+00  0.0000E+00  0.2011E-04  0.0000E+00
