 1 - depth, m
 2 - temperature, C
 3 - salinity, kg/kg
 4 - turbulent kinetic energy, m**2/s**2
 5 - dissipation rate, m**2/s**3
 6 - kinematic heat conductance, m**2/s
 7 - modulus of horizontal velocity, m/s
 8 - Richardson number, n/d
   -0.000000   31.29449  0.1496E-13  0.5105E-05  0.3294E-06  0.5231E-04  0.1582E-02  0.1385E+05
   -0.049997   31.32588  0.1496E-13  0.8706E-05  0.1470E-06  0.1799E-03  0.9102E-03  0.2294E+04
   -0.099994   31.33826  0.1496E-13  0.1058E-04  0.1008E-06  0.4070E-03  0.6669E-03  0.1916E+02
   -0.149992   31.34165  0.1496E-13  0.1175E-04  0.8440E-07  0.4875E-03  0.5895E-03  0.9416E+01
   -0.199991   31.34435  0.1496E-13  0.1267E-04  0.7485E-07  0.6549E-03  0.5267E-03  0.6011E+01
   -0.249989   31.34631  0.1496E-13  0.1340E-04  0.6861E-07  0.7829E-03  0.4798E-03  0.4430E+01
   -0.299988   31.34789  0.1496E-13  0.1399E-04  0.6418E-07  0.9117E-03  0.4409E-03  0.3521E+01
   -0.349988   31.34922  0.1496E-13  0.1448E-04  0.6087E-07  0.1028E-02  0.4075E-03  0.3007E+01
   -0.399987   31.35038  0.1496E-13  0.1489E-04  0.5830E-07  0.1134E-02  0.3781E-03  0.2678E+01
   -0.449988   31.35140  0.1496E-13  0.1525E-04  0.5622E-07  0.1233E-02  0.3522E-03  0.2509E+01
   -0.499988   31.35232  0.1496E-13  0.1555E-04  0.5450E-07  0.1324E-02  0.3292E-03  0.2439E+01
   -0.549988   31.35316  0.1496E-13  0.1582E-04  0.5306E-07  0.1406E-02  0.3087E-03  0.2403E+01
   -0.599989   31.35394  0.1496E-13  0.1605E-04  0.5186E-07  0.1481E-02  0.2901E-03  0.2404E+01
   -0.649990   31.35467  0.1496E-13  0.1624E-04  0.5084E-07  0.1548E-02  0.2731E-03  0.2431E+01
   -0.699991   31.35536  0.1496E-13  0.1641E-04  0.4999E-07  0.1607E-02  0.2575E-03  0.2486E+01
   -0.749993   31.35601  0.1496E-13  0.1655E-04  0.4928E-07  0.1659E-02  0.2431E-03  0.2566E+01
   -0.799994   31.35664  0.1496E-13  0.1666E-04  0.4870E-07  0.1702E-02  0.2296E-03  0.2675E+01
   -0.849996   31.35724  0.1496E-13  0.1675E-04  0.4824E-07  0.1737E-02  0.2171E-03  0.2813E+01
   -0.899997   31.35782  0.1496E-13  0.1681E-04  0.4789E-07  0.1764E-02  0.2053E-03  0.2985E+01
   -0.949999   31.35839  0.1496E-13  0.1685E-04  0.4765E-07  0.1782E-02  0.1942E-03  0.3197E+01
   -1.000001   31.35895  0.1496E-13  0.1687E-04  0.4753E-07  0.1791E-02  0.1836E-03  0.3457E+01
   -1.050002   31.35950  0.1496E-13  0.1686E-04  0.4752E-07  0.1791E-02  0.1736E-03  0.3919E+01
   -1.100004   31.36005  0.1496E-13  0.1684E-04  0.4764E-07  0.1888E-02  0.1640E-03  0.1287E+02
   -1.150006   31.36057  0.1496E-13  0.1678E-04  0.4792E-07  0.1690E-02  0.1556E-03  0.3017E+02
   -1.200007   31.36114  0.1496E-13  0.1670E-04  0.4834E-07  0.1724E-02  0.1466E-03  0.5724E+01
   -1.250009   31.36170  0.1496E-13  0.1660E-04  0.4897E-07  0.1692E-02  0.1381E-03  0.6118E+01
   -1.300010   31.36227  0.1496E-13  0.1646E-04  0.4983E-07  0.1638E-02  0.1299E-03  0.7194E+01
   -1.350011   31.36285  0.1496E-13  0.1628E-04  0.5101E-07  0.1576E-02  0.1220E-03  0.8673E+01
   -1.400012   31.36346  0.1496E-13  0.1607E-04  0.5260E-07  0.1493E-02  0.1142E-03  0.1082E+02
   -1.450013   31.36411  0.1496E-13  0.1580E-04  0.5478E-07  0.1414E-02  0.1065E-03  0.1396E+02
   -1.500014   31.36479  0.1496E-13  0.1548E-04  0.5781E-07  0.1296E-02  0.9898E-04  0.1935E+02
   -1.550014   31.36554  0.1496E-13  0.1509E-04  0.6214E-07  0.1214E-02  0.9136E-04  0.2840E+02
   -1.600014   31.36636  0.1496E-13  0.1459E-04  0.6892E-07  0.1065E-02  0.8390E-04  0.6710E+02
   -1.650014   31.36740  0.1496E-13  0.1395E-04  0.7951E-07  0.9850E-03  0.7569E-04  0.2488E+04
   -1.700013   31.36857  0.1496E-13  0.1305E-04  0.9848E-07  0.7999E-03  0.6764E-04  0.7947E+04
   -1.750012   31.37074  0.1496E-13  0.1191E-04  0.1290E-06  0.7254E-03  0.5678E-04  0.2575E+06
   -1.800011   31.37232  0.1496E-13  0.1042E-04  0.1934E-06  0.5000E-03  0.4880E-04  0.1396E+05
   -1.850009   31.37996  0.1496E-13  0.8821E-05  0.3169E-06  0.4672E-03  0.3429E-04  0.3686E+08
   -1.900007   31.37784  0.1496E-13  0.7007E-05  0.6614E-06  0.2200E-03  0.2798E-04 -0.1242E+06
   -1.950004   31.39972  0.1496E-13  0.4966E-05  0.1631E-05  0.2017E-03  0.1492E-04 -0.4300E+06
   -2.000001   31.40111  0.1496E-13  0.0000E+00  0.0000E+00  0.0000E+00  0.2871E-04  0.0000E+00
