 1 - depth, m
 2 - temperature, C
 3 - salinity, kg/kg
 4 - turbulent kinetic energy, m**2/s**2
 5 - dissipation rate, m**2/s**3
 6 - kinematic heat conductance, m**2/s
 7 - modulus of horizontal velocity, m/s
 8 - Richardson number, n/d
   -0.000000   30.00201  0.4868E-14  0.6347E-05  0.3582E-06  0.6057E-04  0.4649E-02  0.5884E+02
   -0.049997   30.03377  0.4868E-14  0.9836E-05  0.1515E-06  0.2227E-03  0.2505E-02  0.6049E+01
   -0.099994   30.04284  0.4868E-14  0.1135E-04  0.1099E-06  0.3986E-03  0.2049E-02  0.2788E+01
   -0.149992   30.04660  0.4868E-14  0.1241E-04  0.9334E-07  0.4921E-03  0.1848E-02  0.1566E+01
   -0.199991   30.04951  0.4868E-14  0.1328E-04  0.8354E-07  0.6124E-03  0.1689E-02  0.1267E+01
   -0.249989   30.05178  0.4868E-14  0.1406E-04  0.7667E-07  0.7327E-03  0.1556E-02  0.1342E+01
   -0.299988   30.05363  0.4868E-14  0.1481E-04  0.7124E-07  0.8802E-03  0.1428E-02  0.1450E+01
   -0.349988   30.05513  0.4868E-14  0.1552E-04  0.6681E-07  0.1043E-02  0.1302E-02  0.1554E+01
   -0.399987   30.05637  0.4868E-14  0.1618E-04  0.6316E-07  0.1213E-02  0.1179E-02  0.1575E+01
   -0.449988   30.05741  0.4868E-14  0.1676E-04  0.6016E-07  0.1379E-02  0.1065E-02  0.1570E+01
   -0.499988   30.05831  0.4868E-14  0.1727E-04  0.5772E-07  0.1530E-02  0.9635E-03  0.1558E+01
   -0.549988   30.05910  0.4868E-14  0.1769E-04  0.5574E-07  0.1664E-02  0.8736E-03  0.1536E+01
   -0.599989   30.05982  0.4868E-14  0.1804E-04  0.5416E-07  0.1784E-02  0.7939E-03  0.1510E+01
   -0.649990   30.06048  0.4868E-14  0.1831E-04  0.5290E-07  0.1888E-02  0.7232E-03  0.1482E+01
   -0.699991   30.06109  0.4868E-14  0.1852E-04  0.5193E-07  0.1972E-02  0.6605E-03  0.1450E+01
   -0.749993   30.06167  0.4868E-14  0.1866E-04  0.5120E-07  0.2035E-02  0.6048E-03  0.1416E+01
   -0.799994   30.06223  0.4868E-14  0.1875E-04  0.5069E-07  0.2076E-02  0.5554E-03  0.1378E+01
   -0.849996   30.06277  0.4868E-14  0.1879E-04  0.5038E-07  0.2097E-02  0.5115E-03  0.1339E+01
   -0.899997   30.06329  0.4868E-14  0.1879E-04  0.5025E-07  0.2100E-02  0.4725E-03  0.1297E+01
   -0.949999   30.06381  0.4868E-14  0.1875E-04  0.5028E-07  0.2087E-02  0.4378E-03  0.1253E+01
   -1.000001   30.06433  0.4868E-14  0.1868E-04  0.5048E-07  0.2059E-02  0.4070E-03  0.1204E+01
   -1.050002   30.06485  0.4868E-14  0.1859E-04  0.5082E-07  0.2000E-02  0.3795E-03  0.1153E+01
   -1.100004   30.06539  0.4868E-14  0.1848E-04  0.5124E-07  0.2230E-02  0.3554E-03  0.2331E+01
   -1.150006   30.06586  0.4868E-14  0.1835E-04  0.5185E-07  0.1738E-02  0.3396E-03  0.6837E+01
   -1.200007   30.06647  0.4868E-14  0.1819E-04  0.5262E-07  0.1870E-02  0.3205E-03  0.1236E+01
   -1.250009   30.06703  0.4868E-14  0.1800E-04  0.5369E-07  0.1821E-02  0.3024E-03  0.1283E+01
   -1.300010   30.06760  0.4868E-14  0.1776E-04  0.5508E-07  0.1740E-02  0.2853E-03  0.1502E+01
   -1.350011   30.06820  0.4868E-14  0.1749E-04  0.5693E-07  0.1658E-02  0.2688E-03  0.1849E+01
   -1.400012   30.06883  0.4868E-14  0.1717E-04  0.5943E-07  0.1546E-02  0.2525E-03  0.2406E+01
   -1.450013   30.06951  0.4868E-14  0.1678E-04  0.6287E-07  0.1453E-02  0.2362E-03  0.3276E+01
   -1.500014   30.07024  0.4868E-14  0.1631E-04  0.6776E-07  0.1312E-02  0.2199E-03  0.5183E+01
   -1.550014   30.07108  0.4868E-14  0.1574E-04  0.7502E-07  0.1232E-02  0.2032E-03 -0.6413E+01
   -1.600014   30.07205  0.4868E-14  0.1501E-04  0.8693E-07  0.1063E-02  0.1861E-03 -0.1519E+04
   -1.650014   30.07347  0.4868E-14  0.1405E-04  0.1052E-06  0.9799E-03  0.1659E-03  0.8312E+04
   -1.700013   30.07503  0.4868E-14  0.1274E-04  0.1412E-06  0.7676E-03  0.1460E-03  0.1680E+04
   -1.750012   30.07822  0.4868E-14  0.1133E-04  0.1926E-06  0.7009E-03  0.1175E-03  0.5841E+05
   -1.800011   30.07931  0.4868E-14  0.9663E-05  0.3065E-06  0.4664E-03  0.1021E-03  0.6896E+05
   -1.850009   30.09198  0.4868E-14  0.8117E-05  0.5226E-06  0.4633E-03  0.6565E-04  0.4953E+08
   -1.900007   30.08490  0.4868E-14  0.6483E-05  0.1101E-05  0.2184E-03  0.5615E-04 -0.1436E+06
   -1.950005   30.11377  0.4868E-14  0.4768E-05  0.2486E-05  0.2601E-03  0.2836E-04 -0.1399E+05
   -2.000001   30.11145  0.4868E-14  0.0000E+00  0.0000E+00  0.0000E+00  0.6545E-04  0.0000E+00
