 1 - depth, m
 2 - temperature, C
 3 - salinity, kg/kg
 4 - turbulent kinetic energy, m**2/s**2
 5 - dissipation rate, m**2/s**3
 6 - kinematic heat conductance, m**2/s
 7 - modulus of horizontal velocity, m/s
 8 - Richardson number, n/d
   -0.000000   30.23253  0.1493E-14  0.6230E-05  0.3347E-06  0.5951E-04  0.4967E-02  0.1201E+01
   -0.049997   30.26214  0.1493E-14  0.9495E-05  0.1412E-06  0.2207E-03  0.2673E-02  0.4931E+01
   -0.099994   30.27028  0.1493E-14  0.1089E-04  0.1031E-06  0.3885E-03  0.2205E-02  0.2524E+01
   -0.149992   30.27383  0.1493E-14  0.1189E-04  0.8770E-07  0.4786E-03  0.1992E-02  0.1476E+01
   -0.199991   30.27658  0.1493E-14  0.1274E-04  0.7846E-07  0.5967E-03  0.1822E-02  0.1304E+01
   -0.249989   30.27872  0.1493E-14  0.1352E-04  0.7187E-07  0.7237E-03  0.1674E-02  0.1415E+01
   -0.299988   30.28045  0.1493E-14  0.1427E-04  0.6665E-07  0.8759E-03  0.1531E-02  0.1532E+01
   -0.349988   30.28184  0.1493E-14  0.1499E-04  0.6241E-07  0.1044E-02  0.1391E-02  0.1644E+01
   -0.399988   30.28298  0.1493E-14  0.1565E-04  0.5893E-07  0.1217E-02  0.1253E-02  0.1659E+01
   -0.449988   30.28394  0.1493E-14  0.1623E-04  0.5608E-07  0.1369E-02  0.1127E-02  0.1640E+01
   -0.499988   30.28477  0.1493E-14  0.1674E-04  0.5377E-07  0.1505E-02  0.1015E-02  0.1615E+01
   -0.549989   30.28552  0.1493E-14  0.1716E-04  0.5191E-07  0.1631E-02  0.9157E-03  0.1583E+01
   -0.599989   30.28620  0.1493E-14  0.1750E-04  0.5044E-07  0.1752E-02  0.8284E-03  0.1551E+01
   -0.649990   30.28682  0.1493E-14  0.1777E-04  0.4927E-07  0.1865E-02  0.7513E-03  0.1518E+01
   -0.699992   30.28739  0.1493E-14  0.1797E-04  0.4838E-07  0.1965E-02  0.6832E-03  0.1482E+01
   -0.749993   30.28793  0.1493E-14  0.1811E-04  0.4772E-07  0.2042E-02  0.6230E-03  0.1445E+01
   -0.799994   30.28844  0.1493E-14  0.1819E-04  0.4727E-07  0.2092E-02  0.5698E-03  0.1405E+01
   -0.849996   30.28894  0.1493E-14  0.1823E-04  0.4701E-07  0.2115E-02  0.5227E-03  0.1363E+01
   -0.899998   30.28942  0.1493E-14  0.1822E-04  0.4692E-07  0.2116E-02  0.4810E-03  0.1318E+01
   -0.949999   30.28990  0.1493E-14  0.1818E-04  0.4699E-07  0.2100E-02  0.4441E-03  0.1272E+01
   -1.000001   30.29038  0.1493E-14  0.1811E-04  0.4721E-07  0.2069E-02  0.4113E-03  0.1221E+01
   -1.050003   30.29086  0.1493E-14  0.1801E-04  0.4757E-07  0.2002E-02  0.3823E-03  0.1165E+01
   -1.100005   30.29135  0.1493E-14  0.1790E-04  0.4799E-07  0.2230E-02  0.3567E-03  0.2185E+01
   -1.150006   30.29179  0.1493E-14  0.1778E-04  0.4856E-07  0.1747E-02  0.3408E-03  0.6269E+01
   -1.200008   30.29235  0.1493E-14  0.1763E-04  0.4929E-07  0.1879E-02  0.3217E-03  0.1180E+01
   -1.250009   30.29287  0.1493E-14  0.1744E-04  0.5030E-07  0.1824E-02  0.3033E-03  0.1209E+01
   -1.300011   30.29340  0.1493E-14  0.1722E-04  0.5160E-07  0.1742E-02  0.2859E-03  0.1395E+01
   -1.350012   30.29396  0.1493E-14  0.1697E-04  0.5331E-07  0.1663E-02  0.2692E-03  0.1695E+01
   -1.400013   30.29454  0.1493E-14  0.1666E-04  0.5559E-07  0.1550E-02  0.2529E-03  0.2197E+01
   -1.450014   30.29517  0.1493E-14  0.1630E-04  0.5872E-07  0.1459E-02  0.2365E-03  0.2950E+01
   -1.500014   30.29584  0.1493E-14  0.1587E-04  0.6314E-07  0.1315E-02  0.2203E-03  0.4424E+01
   -1.550014   30.29662  0.1493E-14  0.1533E-04  0.6957E-07  0.1235E-02  0.2035E-03 -0.2262E+02
   -1.600015   30.29748  0.1493E-14  0.1466E-04  0.8022E-07  0.1065E-02  0.1869E-03 -0.3841E+03
   -1.650014   30.29878  0.1493E-14  0.1376E-04  0.9662E-07  0.9857E-03  0.1666E-03  0.9627E+04
   -1.700014   30.30011  0.1493E-14  0.1254E-04  0.1281E-06  0.7739E-03  0.1474E-03  0.9697E+04
   -1.750013   30.30305  0.1493E-14  0.1117E-04  0.1748E-06  0.7043E-03  0.1190E-03  0.5814E+06
   -1.800012   30.30431  0.1493E-14  0.9538E-05  0.2769E-06  0.4736E-03  0.1027E-03  0.2584E+05
   -1.850010   30.31517  0.1493E-14  0.8005E-05  0.4672E-06  0.4607E-03  0.6725E-04  0.2153E+08
   -1.900008   30.30945  0.1493E-14  0.6385E-05  0.9972E-06  0.2214E-03  0.5681E-04 -0.7394E+05
   -1.950005   30.33555  0.1493E-14  0.4656E-05  0.2272E-05  0.2491E-03  0.2891E-04 -0.5192E+05
   -2.000002   30.33402  0.1493E-14  0.0000E+00  0.0000E+00  0.0000E+00  0.6555E-04  0.0000E+00
