 1 - depth, m
 2 - temperature, C
 3 - salinity, kg/kg
 4 - turbulent kinetic energy, m**2/s**2
 5 - dissipation rate, m**2/s**3
 6 - kinematic heat conductance, m**2/s
 7 - modulus of horizontal velocity, m/s
 8 - Richardson number, n/d
   -0.000000   30.60353  0.5058E-13  0.4995E-05  0.3027E-06  0.5101E-04  0.2226E-02  0.4263E+04
   -0.049997   30.63364  0.5058E-13  0.8387E-05  0.1341E-06  0.1842E-03  0.1237E-02  0.7860E+03
   -0.099994   30.64439  0.5058E-13  0.1008E-04  0.9306E-07  0.3925E-03  0.9295E-03  0.1032E+02
   -0.149992   30.64766  0.5058E-13  0.1116E-04  0.7796E-07  0.4807E-03  0.8206E-03  0.5113E+01
   -0.199991   30.65021  0.5058E-13  0.1201E-04  0.6914E-07  0.6370E-03  0.7341E-03  0.3287E+01
   -0.249989   30.65208  0.5058E-13  0.1268E-04  0.6336E-07  0.7622E-03  0.6689E-03  0.2419E+01
   -0.299988   30.65360  0.5058E-13  0.1323E-04  0.5925E-07  0.8845E-03  0.6145E-03  0.1929E+01
   -0.349988   30.65488  0.5058E-13  0.1369E-04  0.5617E-07  0.9943E-03  0.5679E-03  0.1659E+01
   -0.399988   30.65599  0.5058E-13  0.1408E-04  0.5375E-07  0.1096E-02  0.5263E-03  0.1517E+01
   -0.449988   30.65697  0.5058E-13  0.1442E-04  0.5176E-07  0.1196E-02  0.4891E-03  0.1457E+01
   -0.499988   30.65785  0.5058E-13  0.1472E-04  0.5009E-07  0.1290E-02  0.4556E-03  0.1442E+01
   -0.549989   30.65866  0.5058E-13  0.1498E-04  0.4869E-07  0.1376E-02  0.4254E-03  0.1426E+01
   -0.599989   30.65940  0.5058E-13  0.1521E-04  0.4752E-07  0.1455E-02  0.3980E-03  0.1427E+01
   -0.649990   30.66009  0.5058E-13  0.1540E-04  0.4653E-07  0.1525E-02  0.3731E-03  0.1427E+01
   -0.699992   30.66074  0.5058E-13  0.1556E-04  0.4570E-07  0.1587E-02  0.3504E-03  0.1443E+01
   -0.749993   30.66135  0.5058E-13  0.1570E-04  0.4502E-07  0.1639E-02  0.3296E-03  0.1459E+01
   -0.799994   30.66194  0.5058E-13  0.1581E-04  0.4446E-07  0.1683E-02  0.3106E-03  0.1499E+01
   -0.849996   30.66250  0.5058E-13  0.1589E-04  0.4402E-07  0.1717E-02  0.2930E-03  0.1546E+01
   -0.899998   30.66305  0.5058E-13  0.1595E-04  0.4368E-07  0.1744E-02  0.2766E-03  0.1629E+01
   -0.949999   30.66358  0.5058E-13  0.1599E-04  0.4345E-07  0.1762E-02  0.2614E-03  0.1723E+01
   -1.000001   30.66411  0.5058E-13  0.1601E-04  0.4331E-07  0.1772E-02  0.2470E-03  0.1861E+01
   -1.050003   30.66462  0.5058E-13  0.1600E-04  0.4328E-07  0.1772E-02  0.2334E-03  0.2096E+01
   -1.100004   30.66513  0.5058E-13  0.1598E-04  0.4337E-07  0.1862E-02  0.2204E-03  0.6963E+01
   -1.150006   30.66562  0.5058E-13  0.1593E-04  0.4359E-07  0.1685E-02  0.2089E-03  0.1584E+02
   -1.200008   30.66615  0.5058E-13  0.1586E-04  0.4393E-07  0.1713E-02  0.1968E-03  0.3024E+01
   -1.250009   30.66667  0.5058E-13  0.1576E-04  0.4445E-07  0.1682E-02  0.1853E-03  0.3231E+01
   -1.300010   30.66720  0.5058E-13  0.1564E-04  0.4518E-07  0.1633E-02  0.1743E-03  0.3762E+01
   -1.350012   30.66774  0.5058E-13  0.1548E-04  0.4617E-07  0.1573E-02  0.1635E-03  0.4519E+01
   -1.400013   30.66830  0.5058E-13  0.1529E-04  0.4750E-07  0.1496E-02  0.1530E-03  0.5555E+01
   -1.450013   30.66889  0.5058E-13  0.1506E-04  0.4931E-07  0.1418E-02  0.1427E-03  0.7106E+01
   -1.500014   30.66952  0.5058E-13  0.1477E-04  0.5182E-07  0.1307E-02  0.1326E-03  0.9604E+01
   -1.550014   30.67020  0.5058E-13  0.1443E-04  0.5537E-07  0.1221E-02  0.1224E-03  0.1373E+02
   -1.600014   30.67094  0.5058E-13  0.1399E-04  0.6078E-07  0.1078E-02  0.1125E-03  0.2590E+02
   -1.650014   30.67184  0.5058E-13  0.1344E-04  0.6922E-07  0.9948E-03  0.1018E-03  0.1309E+03
   -1.700014   30.67287  0.5058E-13  0.1267E-04  0.8416E-07  0.8149E-03  0.9121E-04  0.1167E+04
   -1.750013   30.67464  0.5058E-13  0.1166E-04  0.1085E-06  0.7311E-03  0.7745E-04  0.3776E+05
   -1.800011   30.67612  0.5058E-13  0.1031E-04  0.1593E-06  0.5188E-03  0.6662E-04  0.8671E+05
   -1.850010   30.68210  0.5058E-13  0.8796E-05  0.2563E-06  0.4652E-03  0.4820E-04  0.2731E+07
   -1.900008   30.68114  0.5058E-13  0.6960E-05  0.5339E-06  0.2159E-03  0.3905E-04 -0.9216E+06
   -1.950005   30.70003  0.5058E-13  0.4859E-05  0.1340E-05  0.1858E-03  0.2117E-04 -0.2269E+06
   -2.000002   30.70239  0.5058E-13  0.0000E+00  0.0000E+00  0.0000E+00  0.3817E-04  0.0000E+00
