 1 - depth, m
 2 - temperature, C
 3 - salinity, kg/kg
 4 - turbulent kinetic energy, m**2/s**2
 5 - dissipation rate, m**2/s**3
 6 - kinematic heat conductance, m**2/s
 7 - modulus of horizontal velocity, m/s
 8 - Richardson number, n/d
   -0.000000   30.68821  0.1032E-12  0.4869E-05  0.3040E-06  0.5057E-04  0.1361E-02  0.8890E+04
   -0.049997   30.71939  0.1032E-12  0.8344E-05  0.1356E-06  0.1771E-03  0.7776E-03  0.3473E+03
   -0.099994   30.73142  0.1032E-12  0.1011E-04  0.9325E-07  0.3997E-03  0.5693E-03  0.2699E+02
   -0.149992   30.73472  0.1032E-12  0.1122E-04  0.7824E-07  0.4794E-03  0.5029E-03  0.1315E+02
   -0.199991   30.73735  0.1032E-12  0.1207E-04  0.6941E-07  0.6408E-03  0.4490E-03  0.8427E+01
   -0.249989   30.73926  0.1032E-12  0.1275E-04  0.6360E-07  0.7659E-03  0.4087E-03  0.6209E+01
   -0.299988   30.74080  0.1032E-12  0.1330E-04  0.5945E-07  0.8906E-03  0.3751E-03  0.4927E+01
   -0.349988   30.74210  0.1032E-12  0.1375E-04  0.5632E-07  0.1004E-02  0.3464E-03  0.4203E+01
   -0.399988   30.74321  0.1032E-12  0.1413E-04  0.5388E-07  0.1107E-02  0.3210E-03  0.3735E+01
   -0.449988   30.74420  0.1032E-12  0.1446E-04  0.5188E-07  0.1203E-02  0.2986E-03  0.3498E+01
   -0.499988   30.74509  0.1032E-12  0.1474E-04  0.5023E-07  0.1291E-02  0.2789E-03  0.3394E+01
   -0.549989   30.74590  0.1032E-12  0.1498E-04  0.4883E-07  0.1372E-02  0.2612E-03  0.3341E+01
   -0.599989   30.74665  0.1032E-12  0.1519E-04  0.4765E-07  0.1445E-02  0.2452E-03  0.3332E+01
   -0.649990   30.74735  0.1032E-12  0.1536E-04  0.4665E-07  0.1511E-02  0.2306E-03  0.3365E+01
   -0.699992   30.74801  0.1032E-12  0.1551E-04  0.4579E-07  0.1570E-02  0.2171E-03  0.3430E+01
   -0.749993   30.74863  0.1032E-12  0.1563E-04  0.4507E-07  0.1621E-02  0.2047E-03  0.3534E+01
   -0.799994   30.74922  0.1032E-12  0.1573E-04  0.4446E-07  0.1664E-02  0.1932E-03  0.3669E+01
   -0.849996   30.74979  0.1032E-12  0.1581E-04  0.4396E-07  0.1700E-02  0.1825E-03  0.3846E+01
   -0.899998   30.75034  0.1032E-12  0.1586E-04  0.4356E-07  0.1728E-02  0.1724E-03  0.4063E+01
   -0.949999   30.75088  0.1032E-12  0.1589E-04  0.4326E-07  0.1748E-02  0.1629E-03  0.4335E+01
   -1.000001   30.75140  0.1032E-12  0.1590E-04  0.4306E-07  0.1760E-02  0.1539E-03  0.4661E+01
   -1.050003   30.75191  0.1032E-12  0.1589E-04  0.4296E-07  0.1762E-02  0.1453E-03  0.5261E+01
   -1.100004   30.75242  0.1032E-12  0.1587E-04  0.4298E-07  0.1845E-02  0.1372E-03  0.1748E+02
   -1.150006   30.75290  0.1032E-12  0.1581E-04  0.4312E-07  0.1686E-02  0.1299E-03  0.3896E+02
   -1.200008   30.75343  0.1032E-12  0.1574E-04  0.4339E-07  0.1709E-02  0.1224E-03  0.7504E+01
   -1.250009   30.75394  0.1032E-12  0.1564E-04  0.4382E-07  0.1680E-02  0.1152E-03  0.7957E+01
   -1.300011   30.75445  0.1032E-12  0.1551E-04  0.4445E-07  0.1633E-02  0.1083E-03  0.9259E+01
   -1.350012   30.75498  0.1032E-12  0.1536E-04  0.4533E-07  0.1576E-02  0.1016E-03  0.1101E+02
   -1.400013   30.75552  0.1032E-12  0.1516E-04  0.4654E-07  0.1501E-02  0.9505E-04  0.1351E+02
   -1.450014   30.75609  0.1032E-12  0.1493E-04  0.4819E-07  0.1426E-02  0.8865E-04  0.1706E+02
   -1.500014   30.75669  0.1032E-12  0.1465E-04  0.5049E-07  0.1316E-02  0.8236E-04  0.2296E+02
   -1.550014   30.75735  0.1032E-12  0.1431E-04  0.5375E-07  0.1235E-02  0.7606E-04  0.3217E+02
   -1.600015   30.75804  0.1032E-12  0.1389E-04  0.5875E-07  0.1089E-02  0.6990E-04  0.5978E+02
   -1.650014   30.75889  0.1032E-12  0.1336E-04  0.6645E-07  0.1015E-02  0.6330E-04  0.1500E+04
   -1.700014   30.75983  0.1032E-12  0.1262E-04  0.8030E-07  0.8244E-03  0.5692E-04 -0.8009E+04
   -1.750013   30.76150  0.1032E-12  0.1165E-04  0.1030E-06  0.7540E-03  0.4840E-04  0.7224E+05
   -1.800012   30.76284  0.1032E-12  0.1035E-04  0.1506E-06  0.5259E-03  0.4182E-04 -0.2918E+04
   -1.850010   30.76823  0.1032E-12  0.8860E-05  0.2410E-06  0.4850E-03  0.3040E-04  0.1599E+08
   -1.900008   30.76755  0.1032E-12  0.7069E-05  0.5019E-06  0.2241E-03  0.2476E-04 -0.6628E+06
   -1.950005   30.78461  0.1032E-12  0.4896E-05  0.1274E-05  0.1803E-03  0.1363E-04 -0.9889E+06
   -2.000002   30.78790  0.1032E-12  0.0000E+00  0.0000E+00  0.0000E+00  0.2404E-04  0.0000E+00
