 1 - depth, m
 2 - temperature, C
 3 - salinity, kg/kg
 4 - turbulent kinetic energy, m**2/s**2
 5 - dissipation rate, m**2/s**3
 6 - kinematic heat conductance, m**2/s
 7 - modulus of horizontal velocity, m/s
 8 - Richardson number, n/d
   -0.000000   30.17928  0.1065E-13  0.4528E-05  0.2729E-06  0.4836E-04  0.8794E-03  0.5378E+04
   -0.049997   30.20841  0.1065E-13  0.7919E-05  0.1212E-06  0.1775E-03  0.4947E-03  0.7905E+02
   -0.099994   30.21929  0.1065E-13  0.9604E-05  0.8396E-07  0.4003E-03  0.3620E-03  0.6345E+02
   -0.149992   30.22228  0.1065E-13  0.1066E-04  0.7082E-07  0.4797E-03  0.3200E-03  0.3099E+02
   -0.199991   30.22467  0.1065E-13  0.1148E-04  0.6309E-07  0.6391E-03  0.2859E-03  0.2012E+02
   -0.249989   30.22642  0.1065E-13  0.1213E-04  0.5801E-07  0.7630E-03  0.2603E-03  0.1490E+02
   -0.299989   30.22784  0.1065E-13  0.1267E-04  0.5439E-07  0.8860E-03  0.2389E-03  0.1192E+02
   -0.349988   30.22904  0.1065E-13  0.1312E-04  0.5167E-07  0.9974E-03  0.2206E-03  0.1019E+02
   -0.399988   30.23009  0.1065E-13  0.1350E-04  0.4956E-07  0.1099E-02  0.2044E-03  0.9118E+01
   -0.449988   30.23101  0.1065E-13  0.1382E-04  0.4785E-07  0.1194E-02  0.1902E-03  0.8548E+01
   -0.499988   30.23185  0.1065E-13  0.1411E-04  0.4644E-07  0.1281E-02  0.1776E-03  0.8345E+01
   -0.549989   30.23262  0.1065E-13  0.1435E-04  0.4527E-07  0.1361E-02  0.1663E-03  0.8217E+01
   -0.599990   30.23333  0.1065E-13  0.1457E-04  0.4428E-07  0.1433E-02  0.1560E-03  0.8253E+01
   -0.649991   30.23399  0.1065E-13  0.1475E-04  0.4346E-07  0.1498E-02  0.1467E-03  0.8336E+01
   -0.699992   30.23462  0.1065E-13  0.1491E-04  0.4277E-07  0.1555E-02  0.1382E-03  0.8561E+01
   -0.749993   30.23521  0.1065E-13  0.1504E-04  0.4219E-07  0.1605E-02  0.1303E-03  0.8818E+01
   -0.799995   30.23579  0.1065E-13  0.1515E-04  0.4173E-07  0.1647E-02  0.1229E-03  0.9231E+01
   -0.849996   30.23634  0.1065E-13  0.1524E-04  0.4136E-07  0.1682E-02  0.1160E-03  0.9676E+01
   -0.899998   30.23687  0.1065E-13  0.1531E-04  0.4109E-07  0.1709E-02  0.1096E-03  0.1031E+02
   -0.950000   30.23739  0.1065E-13  0.1536E-04  0.4091E-07  0.1727E-02  0.1035E-03  0.1100E+02
   -1.000001   30.23791  0.1065E-13  0.1539E-04  0.4082E-07  0.1738E-02  0.9776E-04  0.1194E+02
   -1.050003   30.23841  0.1065E-13  0.1539E-04  0.4084E-07  0.1739E-02  0.9231E-04  0.1348E+02
   -1.100005   30.23892  0.1065E-13  0.1538E-04  0.4095E-07  0.1822E-02  0.8711E-04  0.4509E+02
   -1.150006   30.23939  0.1065E-13  0.1534E-04  0.4120E-07  0.1661E-02  0.8247E-04  0.1015E+03
   -1.200008   30.23992  0.1065E-13  0.1529E-04  0.4156E-07  0.1683E-02  0.7767E-04  0.1950E+02
   -1.250010   30.24043  0.1065E-13  0.1520E-04  0.4209E-07  0.1653E-02  0.7307E-04  0.2093E+02
   -1.300011   30.24095  0.1065E-13  0.1510E-04  0.4281E-07  0.1605E-02  0.6865E-04  0.2438E+02
   -1.350012   30.24148  0.1065E-13  0.1496E-04  0.4378E-07  0.1547E-02  0.6435E-04  0.2933E+02
   -1.400013   30.24204  0.1065E-13  0.1478E-04  0.4507E-07  0.1472E-02  0.6018E-04  0.3604E+02
   -1.450014   30.24262  0.1065E-13  0.1457E-04  0.4681E-07  0.1396E-02  0.5608E-04  0.4609E+02
   -1.500015   30.24324  0.1065E-13  0.1430E-04  0.4920E-07  0.1286E-02  0.5206E-04  0.6217E+02
   -1.550015   30.24392  0.1065E-13  0.1398E-04  0.5256E-07  0.1202E-02  0.4802E-04  0.8850E+02
   -1.600015   30.24465  0.1065E-13  0.1357E-04  0.5765E-07  0.1060E-02  0.4407E-04  0.1689E+03
   -1.650015   30.24554  0.1065E-13  0.1305E-04  0.6546E-07  0.9797E-03  0.3984E-04  0.8755E+03
   -1.700014   30.24654  0.1065E-13  0.1233E-04  0.7946E-07  0.8019E-03  0.3575E-04 -0.8714E+03
   -1.750013   30.24830  0.1065E-13  0.1135E-04  0.1025E-06  0.7201E-03  0.3032E-04  0.1989E+06
   -1.800012   30.24980  0.1065E-13  0.1004E-04  0.1495E-06  0.5051E-03  0.2603E-04  0.6617E+05
   -1.850010   30.25566  0.1065E-13  0.8533E-05  0.2406E-06  0.4586E-03  0.1877E-04  0.9790E+07
   -1.900008   30.25494  0.1065E-13  0.6756E-05  0.5120E-06  0.2107E-03  0.1513E-04  0.3255E+06
   -1.950006   30.27350  0.1065E-13  0.4714E-05  0.1282E-05  0.1827E-03  0.8191E-05 -0.2326E+07
   -2.000003   30.27618  0.1065E-13  0.0000E+00  0.0000E+00  0.0000E+00  0.1477E-04  0.0000E+00
