 1 - depth, m
 2 - temperature, C
 3 - salinity, kg/kg
 4 - turbulent kinetic energy, m**2/s**2
 5 - dissipation rate, m**2/s**3
 6 - kinematic heat conductance, m**2/s
 7 - modulus of horizontal velocity, m/s
 8 - Richardson number, n/d
   -0.000000   30.44033  0.3469E-14  0.4737E-05  0.2910E-06  0.5007E-04  0.1676E-02  0.4833E+04
   -0.049997   30.46946  0.3469E-14  0.8087E-05  0.1296E-06  0.1753E-03  0.9584E-03  0.4386E+03
   -0.099994   30.48079  0.3469E-14  0.9817E-05  0.8903E-07  0.3957E-03  0.7004E-03  0.1835E+02
   -0.149992   30.48391  0.3469E-14  0.1090E-04  0.7470E-07  0.4764E-03  0.6186E-03  0.8973E+01
   -0.199991   30.48640  0.3469E-14  0.1175E-04  0.6633E-07  0.6368E-03  0.5522E-03  0.5761E+01
   -0.249989   30.48821  0.3469E-14  0.1242E-04  0.6087E-07  0.7614E-03  0.5026E-03  0.4241E+01
   -0.299988   30.48968  0.3469E-14  0.1297E-04  0.5698E-07  0.8857E-03  0.4613E-03  0.3382E+01
   -0.349988   30.49092  0.3469E-14  0.1343E-04  0.5408E-07  0.9983E-03  0.4259E-03  0.2883E+01
   -0.399988   30.49200  0.3469E-14  0.1382E-04  0.5183E-07  0.1101E-02  0.3946E-03  0.2578E+01
   -0.449988   30.49295  0.3469E-14  0.1415E-04  0.5000E-07  0.1197E-02  0.3671E-03  0.2412E+01
   -0.499988   30.49381  0.3469E-14  0.1444E-04  0.4850E-07  0.1285E-02  0.3428E-03  0.2357E+01
   -0.549989   30.49460  0.3469E-14  0.1470E-04  0.4725E-07  0.1366E-02  0.3211E-03  0.2317E+01
   -0.599989   30.49533  0.3469E-14  0.1491E-04  0.4621E-07  0.1438E-02  0.3014E-03  0.2330E+01
   -0.649991   30.49602  0.3469E-14  0.1510E-04  0.4533E-07  0.1504E-02  0.2834E-03  0.2350E+01
   -0.699992   30.49666  0.3469E-14  0.1526E-04  0.4459E-07  0.1562E-02  0.2669E-03  0.2417E+01
   -0.749993   30.49728  0.3469E-14  0.1540E-04  0.4398E-07  0.1612E-02  0.2517E-03  0.2488E+01
   -0.799995   30.49786  0.3469E-14  0.1551E-04  0.4349E-07  0.1655E-02  0.2375E-03  0.2609E+01
   -0.849996   30.49843  0.3469E-14  0.1560E-04  0.4310E-07  0.1689E-02  0.2243E-03  0.2734E+01
   -0.899998   30.49898  0.3469E-14  0.1567E-04  0.4281E-07  0.1716E-02  0.2119E-03  0.2919E+01
   -0.949999   30.49952  0.3469E-14  0.1572E-04  0.4262E-07  0.1735E-02  0.2002E-03  0.3116E+01
   -1.000001   30.50005  0.3469E-14  0.1574E-04  0.4252E-07  0.1745E-02  0.1891E-03  0.3388E+01
   -1.050003   30.50057  0.3469E-14  0.1574E-04  0.4253E-07  0.1746E-02  0.1786E-03  0.3833E+01
   -1.100005   30.50108  0.3469E-14  0.1573E-04  0.4266E-07  0.1832E-02  0.1686E-03  0.1274E+02
   -1.150006   30.50157  0.3469E-14  0.1569E-04  0.4292E-07  0.1662E-02  0.1597E-03  0.2933E+02
   -1.200008   30.50211  0.3469E-14  0.1562E-04  0.4330E-07  0.1687E-02  0.1504E-03  0.5598E+01
   -1.250009   30.50264  0.3469E-14  0.1554E-04  0.4386E-07  0.1656E-02  0.1415E-03  0.6014E+01
   -1.300011   30.50318  0.3469E-14  0.1542E-04  0.4463E-07  0.1606E-02  0.1330E-03  0.7049E+01
   -1.350012   30.50373  0.3469E-14  0.1527E-04  0.4567E-07  0.1547E-02  0.1247E-03  0.8515E+01
   -1.400013   30.50431  0.3469E-14  0.1508E-04  0.4705E-07  0.1469E-02  0.1166E-03  0.1058E+02
   -1.450014   30.50491  0.3469E-14  0.1485E-04  0.4893E-07  0.1393E-02  0.1087E-03  0.1363E+02
   -1.500014   30.50555  0.3469E-14  0.1457E-04  0.5153E-07  0.1280E-02  0.1009E-03  0.1874E+02
   -1.550015   30.50626  0.3469E-14  0.1422E-04  0.5519E-07  0.1200E-02  0.9302E-04  0.2714E+02
   -1.600015   30.50703  0.3469E-14  0.1379E-04  0.6088E-07  0.1054E-02  0.8539E-04  0.5537E+02
   -1.650014   30.50799  0.3469E-14  0.1322E-04  0.6962E-07  0.9774E-03  0.7703E-04  0.4137E+03
   -1.700014   30.50904  0.3469E-14  0.1244E-04  0.8529E-07  0.7944E-03  0.6906E-04  0.1486E+05
   -1.750013   30.51103  0.3469E-14  0.1141E-04  0.1111E-06  0.7201E-03  0.5811E-04  0.6081E+05
   -1.800012   30.51258  0.3469E-14  0.1005E-04  0.1668E-06  0.4983E-03  0.4997E-04  0.3320E+07
   -1.850010   30.51936  0.3469E-14  0.8538E-05  0.2702E-06  0.4615E-03  0.3555E-04  0.1661E+08
   -1.900008   30.51761  0.3469E-14  0.6799E-05  0.5659E-06  0.2133E-03  0.2904E-04 -0.1802E+06
   -1.950005   30.53773  0.3469E-14  0.4767E-05  0.1405E-05  0.1906E-03  0.1568E-04 -0.7966E+06
   -2.000002   30.53996  0.3469E-14  0.0000E+00  0.0000E+00  0.0000E+00  0.2881E-04  0.0000E+00
