 1 - depth, m
 2 - temperature, C
 3 - salinity, kg/kg
 4 - turbulent kinetic energy, m**2/s**2
 5 - dissipation rate, m**2/s**3
 6 - kinematic heat conductance, m**2/s
 7 - modulus of horizontal velocity, m/s
 8 - Richardson number, n/d
   -0.000000   30.60814  0.3023E-13  0.5272E-05  0.3186E-06  0.5200E-04  0.2586E-02  0.1388E+04
   -0.049997   30.63959  0.3023E-13  0.8758E-05  0.1403E-06  0.1939E-03  0.1414E-02  0.9124E+02
   -0.099994   30.65004  0.3023E-13  0.1045E-04  0.9833E-07  0.3939E-03  0.1081E-02  0.7258E+01
   -0.149992   30.65348  0.3023E-13  0.1155E-04  0.8238E-07  0.4885E-03  0.9553E-03  0.3699E+01
   -0.199991   30.65612  0.3023E-13  0.1241E-04  0.7306E-07  0.6423E-03  0.8566E-03  0.2394E+01
   -0.249989   30.65808  0.3023E-13  0.1309E-04  0.6696E-07  0.7676E-03  0.7816E-03  0.1773E+01
   -0.299988   30.65967  0.3023E-13  0.1365E-04  0.6262E-07  0.8872E-03  0.7192E-03  0.1425E+01
   -0.349988   30.66101  0.3023E-13  0.1412E-04  0.5934E-07  0.9940E-03  0.6654E-03  0.1270E+01
   -0.399988   30.66218  0.3023E-13  0.1453E-04  0.5674E-07  0.1098E-02  0.6167E-03  0.1222E+01
   -0.449988   30.66321  0.3023E-13  0.1489E-04  0.5456E-07  0.1204E-02  0.5722E-03  0.1217E+01
   -0.499988   30.66413  0.3023E-13  0.1521E-04  0.5272E-07  0.1304E-02  0.5317E-03  0.1222E+01
   -0.549989   30.66497  0.3023E-13  0.1549E-04  0.5117E-07  0.1397E-02  0.4951E-03  0.1221E+01
   -0.599989   30.66573  0.3023E-13  0.1573E-04  0.4987E-07  0.1481E-02  0.4619E-03  0.1218E+01
   -0.649990   30.66645  0.3023E-13  0.1593E-04  0.4877E-07  0.1556E-02  0.4318E-03  0.1213E+01
   -0.699992   30.66711  0.3023E-13  0.1610E-04  0.4786E-07  0.1621E-02  0.4044E-03  0.1206E+01
   -0.749993   30.66774  0.3023E-13  0.1623E-04  0.4712E-07  0.1675E-02  0.3795E-03  0.1199E+01
   -0.799994   30.66835  0.3023E-13  0.1634E-04  0.4652E-07  0.1719E-02  0.3569E-03  0.1197E+01
   -0.849996   30.66892  0.3023E-13  0.1641E-04  0.4604E-07  0.1753E-02  0.3362E-03  0.1206E+01
   -0.899998   30.66949  0.3023E-13  0.1647E-04  0.4569E-07  0.1777E-02  0.3172E-03  0.1235E+01
   -0.949999   30.67003  0.3023E-13  0.1649E-04  0.4545E-07  0.1792E-02  0.2997E-03  0.1290E+01
   -1.000001   30.67057  0.3023E-13  0.1650E-04  0.4531E-07  0.1799E-02  0.2833E-03  0.1377E+01
   -1.050003   30.67110  0.3023E-13  0.1648E-04  0.4529E-07  0.1795E-02  0.2679E-03  0.1553E+01
   -1.100004   30.67163  0.3023E-13  0.1644E-04  0.4538E-07  0.1900E-02  0.2532E-03  0.5062E+01
   -1.150006   30.67213  0.3023E-13  0.1637E-04  0.4562E-07  0.1682E-02  0.2401E-03  0.1212E+02
   -1.200008   30.67268  0.3023E-13  0.1628E-04  0.4600E-07  0.1723E-02  0.2263E-03  0.2275E+01
   -1.250009   30.67322  0.3023E-13  0.1617E-04  0.4657E-07  0.1690E-02  0.2131E-03  0.2425E+01
   -1.300010   30.67376  0.3023E-13  0.1602E-04  0.4737E-07  0.1636E-02  0.2005E-03  0.2851E+01
   -1.350012   30.67433  0.3023E-13  0.1584E-04  0.4846E-07  0.1572E-02  0.1882E-03  0.3440E+01
   -1.400013   30.67491  0.3023E-13  0.1562E-04  0.4995E-07  0.1489E-02  0.1762E-03  0.4292E+01
   -1.450013   30.67552  0.3023E-13  0.1535E-04  0.5199E-07  0.1407E-02  0.1643E-03  0.5551E+01
   -1.500014   30.67617  0.3023E-13  0.1503E-04  0.5485E-07  0.1291E-02  0.1527E-03  0.7690E+01
   -1.550014   30.67689  0.3023E-13  0.1464E-04  0.5894E-07  0.1205E-02  0.1409E-03  0.1134E+02
   -1.600014   30.67768  0.3023E-13  0.1414E-04  0.6535E-07  0.1062E-02  0.1293E-03  0.2519E+02
   -1.650014   30.67865  0.3023E-13  0.1350E-04  0.7550E-07  0.9738E-03  0.1167E-03  0.6169E+03
   -1.700014   30.67982  0.3023E-13  0.1262E-04  0.9320E-07  0.7989E-03  0.1040E-03  0.1555E+04
   -1.750013   30.68183  0.3023E-13  0.1151E-04  0.1218E-06  0.7136E-03  0.8742E-04  0.2779E+05
   -1.800011   30.68337  0.3023E-13  0.1003E-04  0.1841E-06  0.4907E-03  0.7496E-04  0.2847E+05
   -1.850010   30.69081  0.3023E-13  0.8472E-05  0.3020E-06  0.4588E-03  0.5238E-04  0.1607E+08
   -1.900008   30.68855  0.3023E-13  0.6690E-05  0.6376E-06  0.2067E-03  0.4287E-04 -0.1182E+06
   -1.950005   30.70987  0.3023E-13  0.4736E-05  0.1556E-05  0.2038E-03  0.2262E-04 -0.2401E+06
   -2.000002   30.71031  0.3023E-13  0.0000E+00  0.0000E+00  0.0000E+00  0.4384E-04  0.0000E+00
