 1 - depth, m
 2 - temperature, C
 3 - salinity, kg/kg
 4 - turbulent kinetic energy, m**2/s**2
 5 - dissipation rate, m**2/s**3
 6 - kinematic heat conductance, m**2/s
 7 - modulus of horizontal velocity, m/s
 8 - Richardson number, n/d
   -0.000000   30.73885  0.2761E-13  0.4814E-05  0.2986E-06  0.4935E-04  0.6709E-03  0.1382E+05
   -0.049997   30.77058  0.2761E-13  0.8444E-05  0.1325E-06  0.1839E-03  0.3773E-03  0.7559E+02
   -0.099994   30.78190  0.2761E-13  0.1021E-04  0.9189E-07  0.4126E-03  0.2773E-03  0.1158E+03
   -0.149992   30.78508  0.2761E-13  0.1131E-04  0.7754E-07  0.4909E-03  0.2456E-03  0.5688E+02
   -0.199991   30.78764  0.2761E-13  0.1217E-04  0.6904E-07  0.6547E-03  0.2197E-03  0.3706E+02
   -0.249989   30.78950  0.2761E-13  0.1286E-04  0.6344E-07  0.7808E-03  0.2003E-03  0.2753E+02
   -0.299988   30.79101  0.2761E-13  0.1341E-04  0.5943E-07  0.9062E-03  0.1840E-03  0.2201E+02
   -0.349988   30.79229  0.2761E-13  0.1387E-04  0.5641E-07  0.1020E-02  0.1701E-03  0.1883E+02
   -0.399988   30.79339  0.2761E-13  0.1426E-04  0.5405E-07  0.1124E-02  0.1578E-03  0.1681E+02
   -0.449988   30.79437  0.2761E-13  0.1459E-04  0.5213E-07  0.1220E-02  0.1470E-03  0.1575E+02
   -0.499988   30.79525  0.2761E-13  0.1488E-04  0.5054E-07  0.1308E-02  0.1373E-03  0.1534E+02
   -0.549989   30.79606  0.2761E-13  0.1513E-04  0.4920E-07  0.1389E-02  0.1287E-03  0.1509E+02
   -0.599989   30.79680  0.2761E-13  0.1534E-04  0.4808E-07  0.1462E-02  0.1209E-03  0.1511E+02
   -0.649990   30.79750  0.2761E-13  0.1553E-04  0.4712E-07  0.1528E-02  0.1138E-03  0.1525E+02
   -0.699992   30.79816  0.2761E-13  0.1568E-04  0.4632E-07  0.1586E-02  0.1072E-03  0.1561E+02
   -0.749993   30.79878  0.2761E-13  0.1581E-04  0.4564E-07  0.1637E-02  0.1012E-03  0.1607E+02
   -0.799994   30.79938  0.2761E-13  0.1591E-04  0.4508E-07  0.1680E-02  0.9552E-04  0.1676E+02
   -0.849996   30.79995  0.2761E-13  0.1600E-04  0.4462E-07  0.1715E-02  0.9025E-04  0.1756E+02
   -0.899998   30.80051  0.2761E-13  0.1605E-04  0.4427E-07  0.1742E-02  0.8530E-04  0.1864E+02
   -0.949999   30.80105  0.2761E-13  0.1609E-04  0.4402E-07  0.1760E-02  0.8063E-04  0.1989E+02
   -1.000001   30.80158  0.2761E-13  0.1611E-04  0.4387E-07  0.1771E-02  0.7621E-04  0.2149E+02
   -1.050003   30.80210  0.2761E-13  0.1610E-04  0.4382E-07  0.1771E-02  0.7202E-04  0.2426E+02
   -1.100004   30.80262  0.2761E-13  0.1607E-04  0.4389E-07  0.1861E-02  0.6801E-04  0.8070E+02
   -1.150006   30.80311  0.2761E-13  0.1602E-04  0.4410E-07  0.1685E-02  0.6444E-04  0.1815E+03
   -1.200008   30.80365  0.2761E-13  0.1595E-04  0.4443E-07  0.1712E-02  0.6072E-04  0.3489E+02
   -1.250009   30.80417  0.2761E-13  0.1585E-04  0.4494E-07  0.1682E-02  0.5716E-04  0.3723E+02
   -1.300011   30.80470  0.2761E-13  0.1572E-04  0.4566E-07  0.1632E-02  0.5374E-04  0.4341E+02
   -1.350012   30.80525  0.2761E-13  0.1556E-04  0.4664E-07  0.1572E-02  0.5042E-04  0.5197E+02
   -1.400013   30.80581  0.2761E-13  0.1536E-04  0.4797E-07  0.1495E-02  0.4718E-04  0.6393E+02
   -1.450014   30.80640  0.2761E-13  0.1512E-04  0.4979E-07  0.1416E-02  0.4400E-04  0.8155E+02
   -1.500014   30.80703  0.2761E-13  0.1483E-04  0.5232E-07  0.1306E-02  0.4087E-04  0.1102E+03
   -1.550014   30.80772  0.2761E-13  0.1448E-04  0.5591E-07  0.1219E-02  0.3773E-04  0.1589E+03
   -1.600015   30.80846  0.2761E-13  0.1404E-04  0.6139E-07  0.1077E-02  0.3464E-04  0.2835E+03
   -1.650014   30.80936  0.2761E-13  0.1347E-04  0.6992E-07  0.9938E-03  0.3133E-04  0.1514E+05
   -1.700014   30.81040  0.2761E-13  0.1269E-04  0.8507E-07  0.8123E-03  0.2804E-04  0.1494E+05
   -1.750013   30.81217  0.2761E-13  0.1166E-04  0.1099E-06  0.7335E-03  0.2374E-04  0.5280E+06
   -1.800012   30.81369  0.2761E-13  0.1028E-04  0.1650E-06  0.5072E-03  0.2038E-04  0.3744E+06
   -1.850010   30.81988  0.2761E-13  0.8741E-05  0.2652E-06  0.4712E-03  0.1450E-04  0.2124E+08
   -1.900008   30.81861  0.2761E-13  0.6940E-05  0.5575E-06  0.2164E-03  0.1183E-04 -0.1850E+06
   -1.950005   30.83757  0.2761E-13  0.4848E-05  0.1385E-05  0.1899E-03  0.6341E-05 -0.6435E+07
   -2.000002   30.83960  0.2761E-13  0.0000E+00  0.0000E+00  0.0000E+00  0.1182E-04  0.0000E+00
