 1 - depth, m
 2 - temperature, C
 3 - salinity, kg/kg
 4 - turbulent kinetic energy, m**2/s**2
 5 - dissipation rate, m**2/s**3
 6 - kinematic heat conductance, m**2/s
 7 - modulus of horizontal velocity, m/s
 8 - Richardson number, n/d
   -0.000000   29.59329  0.1778E-13  0.4366E-05  0.2553E-06  0.4759E-04  0.1320E-02  0.3056E+04
   -0.049997   29.62111  0.1778E-13  0.7559E-05  0.1139E-06  0.1730E-03  0.7433E-03  0.3006E+03
   -0.099994   29.63150  0.1778E-13  0.9163E-05  0.7886E-07  0.3870E-03  0.5444E-03  0.2585E+02
   -0.149992   29.63442  0.1778E-13  0.1017E-04  0.6638E-07  0.4685E-03  0.4800E-03  0.1260E+02
   -0.199991   29.63674  0.1778E-13  0.1096E-04  0.5906E-07  0.6231E-03  0.4282E-03  0.8136E+01
   -0.249989   29.63843  0.1778E-13  0.1159E-04  0.5426E-07  0.7451E-03  0.3893E-03  0.6015E+01
   -0.299989   29.63981  0.1778E-13  0.1210E-04  0.5083E-07  0.8657E-03  0.3570E-03  0.4796E+01
   -0.349988   29.64097  0.1778E-13  0.1253E-04  0.4827E-07  0.9753E-03  0.3292E-03  0.4110E+01
   -0.399988   29.64198  0.1778E-13  0.1289E-04  0.4628E-07  0.1076E-02  0.3047E-03  0.3667E+01
   -0.449988   29.64288  0.1778E-13  0.1321E-04  0.4467E-07  0.1169E-02  0.2831E-03  0.3448E+01
   -0.499988   29.64369  0.1778E-13  0.1348E-04  0.4333E-07  0.1255E-02  0.2641E-03  0.3358E+01
   -0.549989   29.64443  0.1778E-13  0.1372E-04  0.4222E-07  0.1334E-02  0.2470E-03  0.3319E+01
   -0.599990   29.64511  0.1778E-13  0.1392E-04  0.4129E-07  0.1406E-02  0.2316E-03  0.3323E+01
   -0.649991   29.64575  0.1778E-13  0.1410E-04  0.4051E-07  0.1470E-02  0.2176E-03  0.3371E+01
   -0.699992   29.64636  0.1778E-13  0.1426E-04  0.3985E-07  0.1528E-02  0.2047E-03  0.3450E+01
   -0.749993   29.64693  0.1778E-13  0.1439E-04  0.3931E-07  0.1578E-02  0.1928E-03  0.3570E+01
   -0.799995   29.64748  0.1778E-13  0.1450E-04  0.3886E-07  0.1621E-02  0.1817E-03  0.3721E+01
   -0.849996   29.64801  0.1778E-13  0.1459E-04  0.3851E-07  0.1656E-02  0.1714E-03  0.3919E+01
   -0.899998   29.64852  0.1778E-13  0.1466E-04  0.3824E-07  0.1684E-02  0.1617E-03  0.4155E+01
   -0.950000   29.64902  0.1778E-13  0.1471E-04  0.3806E-07  0.1705E-02  0.1526E-03  0.4453E+01
   -1.000002   29.64951  0.1778E-13  0.1474E-04  0.3796E-07  0.1717E-02  0.1441E-03  0.4804E+01
   -1.050003   29.65000  0.1778E-13  0.1476E-04  0.3795E-07  0.1721E-02  0.1359E-03  0.5455E+01
   -1.100005   29.65048  0.1778E-13  0.1475E-04  0.3803E-07  0.1793E-02  0.1282E-03  0.1839E+02
   -1.150007   29.65094  0.1778E-13  0.1472E-04  0.3823E-07  0.1662E-02  0.1212E-03  0.3947E+02
   -1.200008   29.65143  0.1778E-13  0.1468E-04  0.3853E-07  0.1675E-02  0.1141E-03  0.7777E+01
   -1.250010   29.65192  0.1778E-13  0.1461E-04  0.3898E-07  0.1647E-02  0.1073E-03  0.8292E+01
   -1.300011   29.65241  0.1778E-13  0.1451E-04  0.3960E-07  0.1604E-02  0.1007E-03  0.9648E+01
   -1.350012   29.65291  0.1778E-13  0.1439E-04  0.4042E-07  0.1550E-02  0.9438E-04  0.1145E+02
   -1.400013   29.65344  0.1778E-13  0.1424E-04  0.4152E-07  0.1481E-02  0.8821E-04  0.1396E+02
   -1.450014   29.65398  0.1778E-13  0.1406E-04  0.4298E-07  0.1407E-02  0.8218E-04  0.1751E+02
   -1.500015   29.65456  0.1778E-13  0.1383E-04  0.4497E-07  0.1305E-02  0.7627E-04  0.2312E+02
   -1.550015   29.65518  0.1778E-13  0.1354E-04  0.4774E-07  0.1220E-02  0.7038E-04  0.3182E+02
   -1.600015   29.65586  0.1778E-13  0.1319E-04  0.5181E-07  0.1082E-02  0.6461E-04  0.5206E+02
   -1.650015   29.65664  0.1778E-13  0.1275E-04  0.5794E-07  0.1001E-02  0.5857E-04  0.3649E+03
   -1.700015   29.65751  0.1778E-13  0.1214E-04  0.6879E-07  0.8243E-03  0.5273E-04  0.2881E+03
   -1.750014   29.65893  0.1778E-13  0.1131E-04  0.8688E-07  0.7445E-03  0.4533E-04  0.9572E+06
   -1.800012   29.66030  0.1778E-13  0.1014E-04  0.1237E-06  0.5303E-03  0.3903E-04  0.2727E+05
   -1.850011   29.66464  0.1778E-13  0.8720E-05  0.1928E-06  0.4741E-03  0.2896E-04  0.2011E+08
   -1.900009   29.66492  0.1778E-13  0.6883E-05  0.3937E-06  0.2095E-03  0.2328E-04 -0.8823E+05
   -1.950006   29.68087  0.1778E-13  0.4721E-05  0.1021E-05  0.1668E-03  0.1272E-04 -0.5995E+06
   -2.000003   29.68403  0.1778E-13  0.0000E+00  0.0000E+00  0.0000E+00  0.2162E-04  0.0000E+00
