 1 - depth, m
 2 - temperature, C
 3 - salinity, kg/kg
 4 - turbulent kinetic energy, m**2/s**2
 5 - dissipation rate, m**2/s**3
 6 - kinematic heat conductance, m**2/s
 7 - modulus of horizontal velocity, m/s
 8 - Richardson number, n/d
   -0.000000   30.81427  0.2607E-14  0.5447E-05  0.3328E-06  0.5322E-04  0.2797E-02  0.1566E+04
   -0.049997   30.84633  0.2607E-14  0.8971E-05  0.1461E-06  0.1952E-03  0.1538E-02  0.3876E+02
   -0.099994   30.85724  0.2607E-14  0.1069E-04  0.1021E-06  0.3971E-03  0.1180E-02  0.7308E+01
   -0.149992   30.86077  0.2607E-14  0.1180E-04  0.8561E-07  0.4889E-03  0.1047E-02  0.3693E+01
   -0.199991   30.86351  0.2607E-14  0.1266E-04  0.7599E-07  0.6408E-03  0.9423E-03  0.2394E+01
   -0.249989   30.86554  0.2607E-14  0.1336E-04  0.6968E-07  0.7607E-03  0.8621E-03  0.1810E+01
   -0.299988   30.86720  0.2607E-14  0.1394E-04  0.6512E-07  0.8784E-03  0.7943E-03  0.1529E+01
   -0.349988   30.86859  0.2607E-14  0.1443E-04  0.6159E-07  0.9949E-03  0.7333E-03  0.1432E+01
   -0.399988   30.86980  0.2607E-14  0.1487E-04  0.5872E-07  0.1112E-02  0.6762E-03  0.1371E+01
   -0.449988   30.87085  0.2607E-14  0.1526E-04  0.5634E-07  0.1225E-02  0.6238E-03  0.1349E+01
   -0.499988   30.87178  0.2607E-14  0.1560E-04  0.5434E-07  0.1332E-02  0.5767E-03  0.1339E+01
   -0.549989   30.87263  0.2607E-14  0.1589E-04  0.5266E-07  0.1429E-02  0.5343E-03  0.1334E+01
   -0.599989   30.87340  0.2607E-14  0.1614E-04  0.5126E-07  0.1517E-02  0.4960E-03  0.1325E+01
   -0.649990   30.87411  0.2607E-14  0.1635E-04  0.5008E-07  0.1595E-02  0.4615E-03  0.1324E+01
   -0.699992   30.87478  0.2607E-14  0.1651E-04  0.4910E-07  0.1661E-02  0.4303E-03  0.1318E+01
   -0.749993   30.87542  0.2607E-14  0.1664E-04  0.4829E-07  0.1717E-02  0.4019E-03  0.1321E+01
   -0.799994   30.87602  0.2607E-14  0.1674E-04  0.4763E-07  0.1761E-02  0.3762E-03  0.1321E+01
   -0.849996   30.87660  0.2607E-14  0.1680E-04  0.4712E-07  0.1794E-02  0.3528E-03  0.1336E+01
   -0.899998   30.87716  0.2607E-14  0.1684E-04  0.4673E-07  0.1816E-02  0.3315E-03  0.1351E+01
   -0.949999   30.87770  0.2607E-14  0.1685E-04  0.4647E-07  0.1828E-02  0.3120E-03  0.1391E+01
   -1.000001   30.87824  0.2607E-14  0.1683E-04  0.4631E-07  0.1832E-02  0.2941E-03  0.1441E+01
   -1.050003   30.87877  0.2607E-14  0.1680E-04  0.4628E-07  0.1823E-02  0.2776E-03  0.1583E+01
   -1.100005   30.87929  0.2607E-14  0.1674E-04  0.4637E-07  0.1947E-02  0.2621E-03  0.4957E+01
   -1.150006   30.87978  0.2607E-14  0.1665E-04  0.4661E-07  0.1684E-02  0.2490E-03  0.1213E+02
   -1.200008   30.88034  0.2607E-14  0.1654E-04  0.4699E-07  0.1740E-02  0.2346E-03  0.2255E+01
   -1.250009   30.88088  0.2607E-14  0.1640E-04  0.4757E-07  0.1706E-02  0.2211E-03  0.2382E+01
   -1.300011   30.88142  0.2607E-14  0.1623E-04  0.4840E-07  0.1647E-02  0.2081E-03  0.2812E+01
   -1.350012   30.88197  0.2607E-14  0.1602E-04  0.4954E-07  0.1580E-02  0.1955E-03  0.3379E+01
   -1.400013   30.88255  0.2607E-14  0.1578E-04  0.5111E-07  0.1492E-02  0.1830E-03  0.4241E+01
   -1.450014   30.88316  0.2607E-14  0.1548E-04  0.5330E-07  0.1409E-02  0.1708E-03  0.5479E+01
   -1.500014   30.88381  0.2607E-14  0.1512E-04  0.5640E-07  0.1289E-02  0.1587E-03  0.7680E+01
   -1.550014   30.88452  0.2607E-14  0.1469E-04  0.6092E-07  0.1206E-02  0.1465E-03  0.1167E+02
   -1.600015   30.88530  0.2607E-14  0.1414E-04  0.6821E-07  0.1056E-02  0.1344E-03  0.6634E+01
   -1.650014   30.88634  0.2607E-14  0.1343E-04  0.7976E-07  0.9726E-03  0.1208E-03  0.1079E+03
   -1.700014   30.88753  0.2607E-14  0.1246E-04  0.9992E-07  0.7897E-03  0.1071E-03  0.1357E+04
   -1.750013   30.88965  0.2607E-14  0.1128E-04  0.1323E-06  0.7089E-03  0.8910E-04  0.8889E+05
   -1.800012   30.89107  0.2607E-14  0.9778E-05  0.2035E-06  0.4875E-03  0.7652E-04  0.2717E+05
   -1.850010   30.89902  0.2607E-14  0.8237E-05  0.3375E-06  0.4598E-03  0.5234E-04  0.6358E+07
   -1.900008   30.89585  0.2607E-14  0.6535E-05  0.7092E-06  0.2148E-03  0.4342E-04 -0.4767E+05
   -1.950005   30.91692  0.2607E-14  0.4643E-05  0.1702E-05  0.2127E-03  0.2274E-04 -0.6542E+05
   -2.000002   30.91717  0.2607E-14  0.0000E+00  0.0000E+00  0.0000E+00  0.4628E-04  0.0000E+00
