 1 - depth, m
 2 - temperature, C
 3 - salinity, kg/kg
 4 - turbulent kinetic energy, m**2/s**2
 5 - dissipation rate, m**2/s**3
 6 - kinematic heat conductance, m**2/s
 7 - modulus of horizontal velocity, m/s
 8 - Richardson number, n/d
   -0.000000   30.34045  0.2069E-14  0.4587E-05  0.2782E-06  0.4927E-04  0.1307E-02  0.1218E+05
   -0.049997   30.36891  0.2069E-14  0.7929E-05  0.1240E-06  0.1758E-03  0.7409E-03  0.3416E+04
   -0.099994   30.37983  0.2069E-14  0.9633E-05  0.8558E-07  0.3964E-03  0.5420E-03  0.2630E+02
   -0.149992   30.38284  0.2069E-14  0.1071E-04  0.7194E-07  0.4776E-03  0.4784E-03  0.1289E+02
   -0.199991   30.38523  0.2069E-14  0.1154E-04  0.6398E-07  0.6382E-03  0.4270E-03  0.8291E+01
   -0.249989   30.38698  0.2069E-14  0.1221E-04  0.5879E-07  0.7631E-03  0.3886E-03  0.6133E+01
   -0.299988   30.38840  0.2069E-14  0.1276E-04  0.5510E-07  0.8877E-03  0.3567E-03  0.4891E+01
   -0.349988   30.38959  0.2069E-14  0.1322E-04  0.5235E-07  0.1001E-02  0.3293E-03  0.4194E+01
   -0.399988   30.39063  0.2069E-14  0.1361E-04  0.5023E-07  0.1104E-02  0.3051E-03  0.3742E+01
   -0.449988   30.39156  0.2069E-14  0.1395E-04  0.4851E-07  0.1200E-02  0.2838E-03  0.3519E+01
   -0.499988   30.39239  0.2069E-14  0.1425E-04  0.4710E-07  0.1289E-02  0.2650E-03  0.3424E+01
   -0.549989   30.39315  0.2069E-14  0.1451E-04  0.4594E-07  0.1370E-02  0.2481E-03  0.3385E+01
   -0.599989   30.39386  0.2069E-14  0.1473E-04  0.4497E-07  0.1443E-02  0.2329E-03  0.3389E+01
   -0.649991   30.39453  0.2069E-14  0.1493E-04  0.4416E-07  0.1509E-02  0.2190E-03  0.3440E+01
   -0.699992   30.39515  0.2069E-14  0.1510E-04  0.4349E-07  0.1568E-02  0.2063E-03  0.3522E+01
   -0.749993   30.39575  0.2069E-14  0.1525E-04  0.4295E-07  0.1619E-02  0.1945E-03  0.3649E+01
   -0.799995   30.39632  0.2069E-14  0.1537E-04  0.4251E-07  0.1663E-02  0.1835E-03  0.3808E+01
   -0.849996   30.39687  0.2069E-14  0.1547E-04  0.4218E-07  0.1698E-02  0.1733E-03  0.4018E+01
   -0.899998   30.39741  0.2069E-14  0.1555E-04  0.4194E-07  0.1726E-02  0.1637E-03  0.4267E+01
   -0.949999   30.39794  0.2069E-14  0.1561E-04  0.4180E-07  0.1746E-02  0.1546E-03  0.4586E+01
   -1.000001   30.39845  0.2069E-14  0.1565E-04  0.4176E-07  0.1758E-02  0.1461E-03  0.4957E+01
   -1.050003   30.39896  0.2069E-14  0.1567E-04  0.4181E-07  0.1760E-02  0.1380E-03  0.5647E+01
   -1.100005   30.39947  0.2069E-14  0.1567E-04  0.4198E-07  0.1840E-02  0.1302E-03  0.1891E+02
   -1.150006   30.39996  0.2069E-14  0.1565E-04  0.4227E-07  0.1689E-02  0.1233E-03  0.4162E+02
   -1.200008   30.40049  0.2069E-14  0.1561E-04  0.4269E-07  0.1708E-02  0.1162E-03  0.8160E+01
   -1.250009   30.40101  0.2069E-14  0.1554E-04  0.4327E-07  0.1678E-02  0.1093E-03  0.8733E+01
   -1.300011   30.40154  0.2069E-14  0.1544E-04  0.4405E-07  0.1631E-02  0.1028E-03  0.1024E+02
   -1.350012   30.40209  0.2069E-14  0.1532E-04  0.4508E-07  0.1573E-02  0.9637E-04  0.1223E+02
   -1.400013   30.40265  0.2069E-14  0.1516E-04  0.4644E-07  0.1500E-02  0.9015E-04  0.1509E+02
   -1.450014   30.40325  0.2069E-14  0.1496E-04  0.4824E-07  0.1423E-02  0.8406E-04  0.1911E+02
   -1.500014   30.40388  0.2069E-14  0.1471E-04  0.5069E-07  0.1315E-02  0.7807E-04  0.2573E+02
   -1.550015   30.40458  0.2069E-14  0.1440E-04  0.5409E-07  0.1228E-02  0.7209E-04  0.3620E+02
   -1.600015   30.40533  0.2069E-14  0.1401E-04  0.5912E-07  0.1087E-02  0.6619E-04  0.6087E+02
   -1.650014   30.40622  0.2069E-14  0.1351E-04  0.6678E-07  0.1006E-02  0.6000E-04 -0.1566E+04
   -1.700014   30.40724  0.2069E-14  0.1282E-04  0.8040E-07  0.8250E-03  0.5392E-04 -0.4541E+03
   -1.750013   30.40895  0.2069E-14  0.1189E-04  0.1029E-06  0.7459E-03  0.4610E-04  0.2013E+06
   -1.800012   30.41058  0.2069E-14  0.1058E-04  0.1501E-06  0.5204E-03  0.3962E-04  0.3617E+05
   -1.850010   30.41623  0.2069E-14  0.9069E-05  0.2369E-06  0.4785E-03  0.2891E-04  0.5021E+07
   -1.900008   30.41581  0.2069E-14  0.7243E-05  0.4870E-06  0.2183E-03  0.2345E-04  0.1040E+07
   -1.950005   30.43500  0.2069E-14  0.5037E-05  0.1244E-05  0.1780E-03  0.1291E-04 -0.6863E+06
   -2.000002   30.43743  0.2069E-14  0.0000E+00  0.0000E+00  0.0000E+00  0.2237E-04  0.0000E+00
