 1 - depth, m
 2 - temperature, C
 3 - salinity, kg/kg
 4 - turbulent kinetic energy, m**2/s**2
 5 - dissipation rate, m**2/s**3
 6 - kinematic heat conductance, m**2/s
 7 - modulus of horizontal velocity, m/s
 8 - Richardson number, n/d
   -0.000000   30.63763  0.2420E-13  0.5146E-05  0.3342E-06  0.5202E-04  0.8783E-03  0.2087E+05
   -0.049997   30.67158  0.2420E-13  0.8924E-05  0.1485E-06  0.1838E-03  0.5062E-03  0.3432E+05
   -0.099994   30.68447  0.2420E-13  0.1081E-04  0.1021E-06  0.4184E-03  0.3688E-03  0.9605E+02
   -0.149992   30.68798  0.2420E-13  0.1198E-04  0.8593E-07  0.4940E-03  0.3270E-03  0.4731E+02
   -0.199991   30.69083  0.2420E-13  0.1289E-04  0.7635E-07  0.6621E-03  0.2925E-03  0.3087E+02
   -0.249989   30.69289  0.2420E-13  0.1361E-04  0.7003E-07  0.7895E-03  0.2668E-03  0.2277E+02
   -0.299988   30.69456  0.2420E-13  0.1419E-04  0.6550E-07  0.9171E-03  0.2453E-03  0.1824E+02
   -0.349988   30.69596  0.2420E-13  0.1466E-04  0.6208E-07  0.1032E-02  0.2269E-03  0.1546E+02
   -0.399988   30.69717  0.2420E-13  0.1506E-04  0.5940E-07  0.1137E-02  0.2106E-03  0.1386E+02
   -0.449988   30.69824  0.2420E-13  0.1540E-04  0.5721E-07  0.1234E-02  0.1962E-03  0.1287E+02
   -0.499988   30.69921  0.2420E-13  0.1569E-04  0.5538E-07  0.1323E-02  0.1835E-03  0.1262E+02
   -0.549988   30.70010  0.2420E-13  0.1593E-04  0.5384E-07  0.1405E-02  0.1721E-03  0.1230E+02
   -0.599989   30.70091  0.2420E-13  0.1614E-04  0.5252E-07  0.1478E-02  0.1617E-03  0.1241E+02
   -0.649990   30.70167  0.2420E-13  0.1631E-04  0.5140E-07  0.1544E-02  0.1523E-03  0.1238E+02
   -0.699991   30.70239  0.2420E-13  0.1645E-04  0.5043E-07  0.1601E-02  0.1436E-03  0.1277E+02
   -0.749993   30.70307  0.2420E-13  0.1657E-04  0.4961E-07  0.1651E-02  0.1356E-03  0.1299E+02
   -0.799994   30.70372  0.2420E-13  0.1665E-04  0.4891E-07  0.1693E-02  0.1281E-03  0.1366E+02
   -0.849996   30.70434  0.2420E-13  0.1671E-04  0.4833E-07  0.1726E-02  0.1211E-03  0.1414E+02
   -0.899997   30.70494  0.2420E-13  0.1675E-04  0.4785E-07  0.1752E-02  0.1145E-03  0.1513E+02
   -0.949999   30.70552  0.2420E-13  0.1676E-04  0.4749E-07  0.1768E-02  0.1083E-03  0.1595E+02
   -1.000001   30.70609  0.2420E-13  0.1675E-04  0.4724E-07  0.1776E-02  0.1024E-03  0.1739E+02
   -1.050003   30.70665  0.2420E-13  0.1671E-04  0.4710E-07  0.1774E-02  0.9685E-04  0.1937E+02
   -1.100004   30.70720  0.2420E-13  0.1665E-04  0.4709E-07  0.1879E-02  0.9151E-04  0.6337E+02
   -1.150006   30.70772  0.2420E-13  0.1656E-04  0.4723E-07  0.1660E-02  0.8679E-04  0.1548E+03
   -1.200007   30.70830  0.2420E-13  0.1645E-04  0.4751E-07  0.1702E-02  0.8177E-04  0.2832E+02
   -1.250009   30.70885  0.2420E-13  0.1631E-04  0.4799E-07  0.1669E-02  0.7700E-04  0.3029E+02
   -1.300010   30.70941  0.2420E-13  0.1613E-04  0.4871E-07  0.1615E-02  0.7243E-04  0.3524E+02
   -1.350011   30.70999  0.2420E-13  0.1592E-04  0.4973E-07  0.1550E-02  0.6797E-04  0.4291E+02
   -1.400012   30.71058  0.2420E-13  0.1567E-04  0.5117E-07  0.1467E-02  0.6363E-04  0.5324E+02
   -1.450013   30.71120  0.2420E-13  0.1537E-04  0.5320E-07  0.1384E-02  0.5934E-04  0.6976E+02
   -1.500014   30.71186  0.2420E-13  0.1501E-04  0.5611E-07  0.1270E-02  0.5512E-04  0.9701E+02
   -1.550014   30.71258  0.2420E-13  0.1458E-04  0.6036E-07  0.1183E-02  0.5085E-04  0.1471E+03
   -1.600014   30.71337  0.2420E-13  0.1404E-04  0.6712E-07  0.1045E-02  0.4665E-04  0.8930E+03
   -1.650014   30.71435  0.2420E-13  0.1333E-04  0.7814E-07  0.9550E-03  0.4206E-04  0.1074E+05
   -1.700013   30.71557  0.2420E-13  0.1235E-04  0.9748E-07  0.7859E-03  0.3728E-04 -0.1020E+04
   -1.750012   30.71763  0.2420E-13  0.1116E-04  0.1282E-06  0.6955E-03  0.3116E-04  0.1218E+06
   -1.800011   30.71909  0.2420E-13  0.9598E-05  0.1991E-06  0.4712E-03  0.2667E-04  0.1953E+06
   -1.850009   30.72707  0.2420E-13  0.8041E-05  0.3300E-06  0.4492E-03  0.1818E-04  0.3118E+09
   -1.900007   30.72389  0.2420E-13  0.6359E-05  0.6959E-06  0.2065E-03  0.1504E-04  0.8584E+07
   -1.950005   30.74490  0.2420E-13  0.4519E-05  0.1672E-05  0.2130E-03  0.7801E-05 -0.1393E+07
   -2.000002   30.74446  0.2420E-13  0.0000E+00  0.0000E+00  0.0000E+00  0.1602E-04  0.0000E+00
