 1 - depth, m
 2 - temperature, C
 3 - salinity, kg/kg
 4 - turbulent kinetic energy, m**2/s**2
 5 - dissipation rate, m**2/s**3
 6 - kinematic heat conductance, m**2/s
 7 - modulus of horizontal velocity, m/s
 8 - Richardson number, n/d
   -0.000000   30.71046  0.3486E-14  0.5173E-05  0.3353E-06  0.5288E-04  0.1914E-02  0.4077E+04
   -0.049997   30.74223  0.3486E-14  0.8737E-05  0.1494E-06  0.1775E-03  0.1108E-02  0.3528E+04
   -0.099994   30.75511  0.3486E-14  0.1062E-04  0.1019E-06  0.4061E-03  0.8086E-03  0.1338E+02
   -0.149992   30.75858  0.3486E-14  0.1179E-04  0.8524E-07  0.4848E-03  0.7149E-03  0.6553E+01
   -0.199991   30.76136  0.3486E-14  0.1270E-04  0.7549E-07  0.6518E-03  0.6384E-03  0.4176E+01
   -0.249989   30.76337  0.3486E-14  0.1342E-04  0.6914E-07  0.7793E-03  0.5814E-03  0.3076E+01
   -0.299988   30.76501  0.3486E-14  0.1401E-04  0.6461E-07  0.9077E-03  0.5340E-03  0.2440E+01
   -0.349988   30.76637  0.3486E-14  0.1449E-04  0.6123E-07  0.1024E-02  0.4935E-03  0.2084E+01
   -0.399988   30.76755  0.3486E-14  0.1490E-04  0.5859E-07  0.1130E-02  0.4577E-03  0.1853E+01
   -0.449988   30.76860  0.3486E-14  0.1525E-04  0.5645E-07  0.1228E-02  0.4262E-03  0.1738E+01
   -0.499988   30.76954  0.3486E-14  0.1555E-04  0.5468E-07  0.1319E-02  0.3984E-03  0.1687E+01
   -0.549989   30.77040  0.3486E-14  0.1581E-04  0.5319E-07  0.1401E-02  0.3734E-03  0.1663E+01
   -0.599989   30.77120  0.3486E-14  0.1604E-04  0.5194E-07  0.1476E-02  0.3508E-03  0.1661E+01
   -0.649990   30.77194  0.3486E-14  0.1623E-04  0.5088E-07  0.1543E-02  0.3302E-03  0.1681E+01
   -0.699992   30.77265  0.3486E-14  0.1638E-04  0.4998E-07  0.1602E-02  0.3113E-03  0.1715E+01
   -0.749993   30.77331  0.3486E-14  0.1652E-04  0.4923E-07  0.1654E-02  0.2938E-03  0.1772E+01
   -0.799994   30.77395  0.3486E-14  0.1662E-04  0.4860E-07  0.1697E-02  0.2775E-03  0.1842E+01
   -0.849996   30.77456  0.3486E-14  0.1670E-04  0.4809E-07  0.1732E-02  0.2623E-03  0.1938E+01
   -0.899997   30.77515  0.3486E-14  0.1676E-04  0.4769E-07  0.1759E-02  0.2480E-03  0.2050E+01
   -0.949999   30.77573  0.3486E-14  0.1679E-04  0.4741E-07  0.1778E-02  0.2345E-03  0.2197E+01
   -1.000001   30.77629  0.3486E-14  0.1680E-04  0.4723E-07  0.1788E-02  0.2217E-03  0.2368E+01
   -1.050003   30.77685  0.3486E-14  0.1679E-04  0.4717E-07  0.1788E-02  0.2096E-03  0.2685E+01
   -1.100004   30.77740  0.3486E-14  0.1675E-04  0.4724E-07  0.1883E-02  0.1980E-03  0.8798E+01
   -1.150006   30.77792  0.3486E-14  0.1669E-04  0.4746E-07  0.1690E-02  0.1877E-03  0.2061E+02
   -1.200007   30.77849  0.3486E-14  0.1661E-04  0.4782E-07  0.1723E-02  0.1769E-03  0.3907E+01
   -1.250009   30.77905  0.3486E-14  0.1649E-04  0.4838E-07  0.1692E-02  0.1667E-03  0.4156E+01
   -1.300010   30.77962  0.3486E-14  0.1634E-04  0.4917E-07  0.1639E-02  0.1567E-03  0.4888E+01
   -1.350011   30.78020  0.3486E-14  0.1616E-04  0.5027E-07  0.1577E-02  0.1471E-03  0.5877E+01
   -1.400012   30.78080  0.3486E-14  0.1594E-04  0.5177E-07  0.1496E-02  0.1377E-03  0.7332E+01
   -1.450013   30.78144  0.3486E-14  0.1568E-04  0.5383E-07  0.1416E-02  0.1285E-03  0.9452E+01
   -1.500014   30.78211  0.3486E-14  0.1535E-04  0.5673E-07  0.1301E-02  0.1194E-03  0.1310E+02
   -1.550014   30.78285  0.3486E-14  0.1496E-04  0.6090E-07  0.1216E-02  0.1102E-03  0.1939E+02
   -1.600014   30.78366  0.3486E-14  0.1446E-04  0.6740E-07  0.1072E-02  0.1012E-03  0.4279E+02
   -1.650014   30.78467  0.3486E-14  0.1382E-04  0.7761E-07  0.9879E-03  0.9137E-04  0.4384E+03
   -1.700013   30.78584  0.3486E-14  0.1294E-04  0.9578E-07  0.8081E-03  0.8158E-04 -0.1345E+04
   -1.750012   30.78792  0.3486E-14  0.1181E-04  0.1251E-06  0.7240E-03  0.6862E-04  0.3010E+05
   -1.800011   30.78947  0.3486E-14  0.1036E-04  0.1897E-06  0.5057E-03  0.5899E-04  0.1100E+05
   -1.850010   30.79697  0.3486E-14  0.8787E-05  0.3100E-06  0.4665E-03  0.4170E-04  0.1418E+08
   -1.900007   30.79470  0.3486E-14  0.6951E-05  0.6523E-06  0.2158E-03  0.3412E-04 -0.7085E+08
   -1.950005   30.81586  0.3486E-14  0.4922E-05  0.1584E-05  0.2029E-03  0.1827E-04 -0.3744E+06
   -2.000002   30.81706  0.3486E-14  0.0000E+00  0.0000E+00  0.0000E+00  0.3477E-04  0.0000E+00
