 1 - depth, m
 2 - temperature, C
 3 - salinity, kg/kg
 4 - turbulent kinetic energy, m**2/s**2
 5 - dissipation rate, m**2/s**3
 6 - kinematic heat conductance, m**2/s
 7 - modulus of horizontal velocity, m/s
 8 - Richardson number, n/d
   -0.000000   29.92944  0.8045E-14  0.4959E-05  0.2881E-06  0.5031E-04  0.2545E-02  0.1742E+04
   -0.049997   29.95878  0.8045E-14  0.8265E-05  0.1267E-06  0.1910E-03  0.1379E-02  0.1498E+02
   -0.099994   29.96838  0.8045E-14  0.9862E-05  0.8904E-07  0.3871E-03  0.1053E-02  0.7122E+01
   -0.149992   29.97157  0.8045E-14  0.1090E-04  0.7473E-07  0.4819E-03  0.9298E-03  0.3635E+01
   -0.199991   29.97402  0.8045E-14  0.1172E-04  0.6638E-07  0.6323E-03  0.8331E-03  0.2361E+01
   -0.249989   29.97584  0.8045E-14  0.1237E-04  0.6091E-07  0.7556E-03  0.7596E-03  0.1755E+01
   -0.299989   29.97733  0.8045E-14  0.1291E-04  0.5703E-07  0.8734E-03  0.6983E-03  0.1417E+01
   -0.349988   29.97858  0.8045E-14  0.1337E-04  0.5411E-07  0.9802E-03  0.6454E-03  0.1266E+01
   -0.399988   29.97968  0.8045E-14  0.1376E-04  0.5180E-07  0.1083E-02  0.5975E-03  0.1207E+01
   -0.449988   29.98065  0.8045E-14  0.1411E-04  0.4987E-07  0.1186E-02  0.5540E-03  0.1205E+01
   -0.499988   29.98152  0.8045E-14  0.1443E-04  0.4825E-07  0.1285E-02  0.5145E-03  0.1211E+01
   -0.549989   29.98231  0.8045E-14  0.1470E-04  0.4690E-07  0.1376E-02  0.4787E-03  0.1212E+01
   -0.599990   29.98303  0.8045E-14  0.1494E-04  0.4577E-07  0.1459E-02  0.4464E-03  0.1208E+01
   -0.649991   29.98371  0.8045E-14  0.1515E-04  0.4483E-07  0.1532E-02  0.4170E-03  0.1202E+01
   -0.699992   29.98434  0.8045E-14  0.1532E-04  0.4406E-07  0.1596E-02  0.3904E-03  0.1194E+01
   -0.749993   29.98494  0.8045E-14  0.1546E-04  0.4344E-07  0.1650E-02  0.3663E-03  0.1190E+01
   -0.799995   29.98551  0.8045E-14  0.1557E-04  0.4294E-07  0.1693E-02  0.3443E-03  0.1193E+01
   -0.849996   29.98607  0.8045E-14  0.1566E-04  0.4256E-07  0.1727E-02  0.3243E-03  0.1211E+01
   -0.899998   29.98661  0.8045E-14  0.1572E-04  0.4229E-07  0.1751E-02  0.3059E-03  0.1248E+01
   -0.950000   29.98713  0.8045E-14  0.1577E-04  0.4212E-07  0.1767E-02  0.2888E-03  0.1318E+01
   -1.000001   29.98765  0.8045E-14  0.1579E-04  0.4204E-07  0.1776E-02  0.2728E-03  0.1412E+01
   -1.050003   29.98816  0.8045E-14  0.1579E-04  0.4207E-07  0.1775E-02  0.2577E-03  0.1597E+01
   -1.100005   29.98867  0.8045E-14  0.1577E-04  0.4220E-07  0.1869E-02  0.2434E-03  0.5266E+01
   -1.150006   29.98915  0.8045E-14  0.1572E-04  0.4247E-07  0.1679E-02  0.2307E-03  0.1209E+02
   -1.200008   29.98969  0.8045E-14  0.1566E-04  0.4286E-07  0.1711E-02  0.2173E-03  0.2321E+01
   -1.250010   29.99021  0.8045E-14  0.1557E-04  0.4343E-07  0.1679E-02  0.2046E-03  0.2480E+01
   -1.300011   29.99074  0.8045E-14  0.1545E-04  0.4419E-07  0.1628E-02  0.1923E-03  0.2911E+01
   -1.350012   29.99129  0.8045E-14  0.1530E-04  0.4522E-07  0.1567E-02  0.1804E-03  0.3493E+01
   -1.400013   29.99185  0.8045E-14  0.1511E-04  0.4659E-07  0.1489E-02  0.1688E-03  0.4325E+01
   -1.450014   29.99245  0.8045E-14  0.1488E-04  0.4843E-07  0.1409E-02  0.1574E-03  0.5529E+01
   -1.500015   29.99308  0.8045E-14  0.1460E-04  0.5097E-07  0.1298E-02  0.1462E-03  0.7511E+01
   -1.550015   29.99378  0.8045E-14  0.1426E-04  0.5454E-07  0.1209E-02  0.1349E-03  0.1074E+02
   -1.600015   29.99453  0.8045E-14  0.1383E-04  0.5992E-07  0.1069E-02  0.1238E-03  0.1959E+02
   -1.650015   29.99544  0.8045E-14  0.1328E-04  0.6831E-07  0.9833E-03  0.1121E-03  0.7327E+02
   -1.700014   29.99650  0.8045E-14  0.1252E-04  0.8318E-07  0.8066E-03  0.1003E-03  0.2982E+04
   -1.750013   29.99829  0.8045E-14  0.1151E-04  0.1075E-06  0.7229E-03  0.8514E-04  0.1892E+06
   -1.800012   29.99991  0.8045E-14  0.1012E-04  0.1604E-06  0.5022E-03  0.7288E-04  0.1624E+05
   -1.850010   30.00610  0.8045E-14  0.8594E-05  0.2572E-06  0.4622E-03  0.5216E-04  0.4884E+07
   -1.900008   30.00505  0.8045E-14  0.6782E-05  0.5407E-06  0.2098E-03  0.4229E-04  0.2233E+05
   -1.950006   30.02484  0.8045E-14  0.4760E-05  0.1345E-05  0.1900E-03  0.2262E-04 -0.2298E+06
   -2.000003   30.02629  0.8045E-14  0.0000E+00  0.0000E+00  0.0000E+00  0.4170E-04  0.0000E+00
