 1 - depth, m
 2 - temperature, C
 3 - salinity, kg/kg
 4 - turbulent kinetic energy, m**2/s**2
 5 - dissipation rate, m**2/s**3
 6 - kinematic heat conductance, m**2/s
 7 - modulus of horizontal velocity, m/s
 8 - Richardson number, n/d
   -0.000000   30.35974  0.1496E-14  0.5351E-05  0.3281E-06  0.5281E-04  0.2629E-02  0.1806E+04
   -0.049997   30.39152  0.1496E-14  0.8880E-05  0.1441E-06  0.1947E-03  0.1443E-02  0.4719E+03
   -0.099994   30.40234  0.1496E-14  0.1061E-04  0.1006E-06  0.3987E-03  0.1100E-02  0.7296E+01
   -0.149992   30.40582  0.1496E-14  0.1173E-04  0.8431E-07  0.4918E-03  0.9740E-03  0.3706E+01
   -0.199991   30.40851  0.1496E-14  0.1261E-04  0.7481E-07  0.6476E-03  0.8742E-03  0.2397E+01
   -0.249989   30.41050  0.1496E-14  0.1331E-04  0.6862E-07  0.7722E-03  0.7985E-03  0.1786E+01
   -0.299988   30.41212  0.1496E-14  0.1388E-04  0.6421E-07  0.8909E-03  0.7354E-03  0.1455E+01
   -0.349988   30.41350  0.1496E-14  0.1437E-04  0.6085E-07  0.1001E-02  0.6804E-03  0.1333E+01
   -0.399988   30.41469  0.1496E-14  0.1480E-04  0.5816E-07  0.1112E-02  0.6298E-03  0.1278E+01
   -0.449988   30.41574  0.1496E-14  0.1518E-04  0.5592E-07  0.1222E-02  0.5834E-03  0.1264E+01
   -0.499988   30.41668  0.1496E-14  0.1552E-04  0.5404E-07  0.1325E-02  0.5415E-03  0.1261E+01
   -0.549989   30.41753  0.1496E-14  0.1581E-04  0.5247E-07  0.1419E-02  0.5037E-03  0.1258E+01
   -0.599989   30.41831  0.1496E-14  0.1606E-04  0.5115E-07  0.1505E-02  0.4694E-03  0.1254E+01
   -0.649990   30.41904  0.1496E-14  0.1628E-04  0.5005E-07  0.1582E-02  0.4384E-03  0.1254E+01
   -0.699992   30.41972  0.1496E-14  0.1645E-04  0.4915E-07  0.1648E-02  0.4102E-03  0.1250E+01
   -0.749993   30.42036  0.1496E-14  0.1660E-04  0.4841E-07  0.1703E-02  0.3845E-03  0.1254E+01
   -0.799994   30.42097  0.1496E-14  0.1671E-04  0.4781E-07  0.1748E-02  0.3612E-03  0.1257E+01
   -0.849996   30.42156  0.1496E-14  0.1679E-04  0.4736E-07  0.1782E-02  0.3398E-03  0.1275E+01
   -0.899998   30.42214  0.1496E-14  0.1684E-04  0.4702E-07  0.1806E-02  0.3203E-03  0.1299E+01
   -0.949999   30.42270  0.1496E-14  0.1688E-04  0.4681E-07  0.1820E-02  0.3023E-03  0.1351E+01
   -1.000001   30.42325  0.1496E-14  0.1688E-04  0.4670E-07  0.1827E-02  0.2856E-03  0.1423E+01
   -1.050003   30.42379  0.1496E-14  0.1687E-04  0.4672E-07  0.1822E-02  0.2700E-03  0.1593E+01
   -1.100004   30.42434  0.1496E-14  0.1683E-04  0.4685E-07  0.1933E-02  0.2552E-03  0.5146E+01
   -1.150006   30.42484  0.1496E-14  0.1676E-04  0.4715E-07  0.1699E-02  0.2423E-03  0.1234E+02
   -1.200008   30.42542  0.1496E-14  0.1667E-04  0.4758E-07  0.1745E-02  0.2284E-03  0.2324E+01
   -1.250009   30.42597  0.1496E-14  0.1656E-04  0.4821E-07  0.1712E-02  0.2152E-03  0.2473E+01
   -1.300010   30.42653  0.1496E-14  0.1641E-04  0.4909E-07  0.1656E-02  0.2026E-03  0.2920E+01
   -1.350012   30.42711  0.1496E-14  0.1622E-04  0.5027E-07  0.1590E-02  0.1902E-03  0.3514E+01
   -1.400013   30.42772  0.1496E-14  0.1600E-04  0.5188E-07  0.1507E-02  0.1782E-03  0.4400E+01
   -1.450013   30.42835  0.1496E-14  0.1573E-04  0.5408E-07  0.1421E-02  0.1663E-03  0.5684E+01
   -1.500014   30.42903  0.1496E-14  0.1539E-04  0.5714E-07  0.1307E-02  0.1546E-03  0.7893E+01
   -1.550014   30.42978  0.1496E-14  0.1499E-04  0.6157E-07  0.1216E-02  0.1428E-03  0.1193E+02
   -1.600014   30.43060  0.1496E-14  0.1448E-04  0.6842E-07  0.1075E-02  0.1310E-03  0.3292E+02
   -1.650014   30.43161  0.1496E-14  0.1382E-04  0.7929E-07  0.9837E-03  0.1184E-03  0.1297E+03
   -1.700014   30.43286  0.1496E-14  0.1290E-04  0.9819E-07  0.8065E-03  0.1052E-03  0.7059E+04
   -1.750013   30.43491  0.1496E-14  0.1177E-04  0.1283E-06  0.7212E-03  0.8866E-04  0.5558E+05
   -1.800011   30.43650  0.1496E-14  0.1025E-04  0.1964E-06  0.4952E-03  0.7608E-04  0.3835E+05
   -1.850010   30.44430  0.1496E-14  0.8681E-05  0.3223E-06  0.4626E-03  0.5311E-04  0.4175E+07
   -1.900008   30.44191  0.1496E-14  0.6872E-05  0.6723E-06  0.2128E-03  0.4361E-04 -0.3632E+05
   -1.950005   30.46409  0.1496E-14  0.4877E-05  0.1635E-05  0.2065E-03  0.2308E-04 -0.1397E+07
   -2.000002   30.46461  0.1496E-14  0.0000E+00  0.0000E+00  0.0000E+00  0.4492E-04  0.0000E+00
