 1 - depth, m
 2 - temperature, C
 3 - salinity, kg/kg
 4 - turbulent kinetic energy, m**2/s**2
 5 - dissipation rate, m**2/s**3
 6 - kinematic heat conductance, m**2/s
 7 - modulus of horizontal velocity, m/s
 8 - Richardson number, n/d
   -0.000000   30.54816  0.1031E-13  0.4804E-05  0.2977E-06  0.4930E-04  0.1034E-02  0.5517E+04
   -0.049997   30.57945  0.1031E-13  0.8339E-05  0.1324E-06  0.1827E-03  0.5829E-03  0.8413E+02
   -0.099994   30.59085  0.1031E-13  0.1010E-04  0.9174E-07  0.4034E-03  0.4300E-03  0.5059E+02
   -0.149992   30.59407  0.1031E-13  0.1120E-04  0.7719E-07  0.4859E-03  0.3801E-03  0.2484E+02
   -0.199991   30.59664  0.1031E-13  0.1206E-04  0.6863E-07  0.6477E-03  0.3398E-03  0.1605E+02
   -0.249989   30.59851  0.1031E-13  0.1275E-04  0.6302E-07  0.7732E-03  0.3096E-03  0.1187E+02
   -0.299988   30.60003  0.1031E-13  0.1330E-04  0.5900E-07  0.8984E-03  0.2844E-03  0.9477E+01
   -0.349988   30.60130  0.1031E-13  0.1376E-04  0.5599E-07  0.1012E-02  0.2628E-03  0.8093E+01
   -0.399988   30.60241  0.1031E-13  0.1415E-04  0.5365E-07  0.1115E-02  0.2437E-03  0.7231E+01
   -0.449988   30.60339  0.1031E-13  0.1448E-04  0.5174E-07  0.1211E-02  0.2269E-03  0.6770E+01
   -0.499988   30.60428  0.1031E-13  0.1477E-04  0.5016E-07  0.1299E-02  0.2120E-03  0.6604E+01
   -0.549989   30.60509  0.1031E-13  0.1502E-04  0.4883E-07  0.1380E-02  0.1986E-03  0.6493E+01
   -0.599990   30.60584  0.1031E-13  0.1524E-04  0.4772E-07  0.1453E-02  0.1865E-03  0.6516E+01
   -0.649991   30.60654  0.1031E-13  0.1542E-04  0.4677E-07  0.1518E-02  0.1755E-03  0.6572E+01
   -0.699992   30.60720  0.1031E-13  0.1557E-04  0.4597E-07  0.1576E-02  0.1654E-03  0.6743E+01
   -0.749993   30.60783  0.1031E-13  0.1570E-04  0.4530E-07  0.1626E-02  0.1560E-03  0.6935E+01
   -0.799995   30.60843  0.1031E-13  0.1580E-04  0.4475E-07  0.1669E-02  0.1473E-03  0.7252E+01
   -0.849996   30.60900  0.1031E-13  0.1588E-04  0.4430E-07  0.1703E-02  0.1392E-03  0.7592E+01
   -0.899998   30.60956  0.1031E-13  0.1594E-04  0.4395E-07  0.1730E-02  0.1315E-03  0.8080E+01
   -0.950000   30.61011  0.1031E-13  0.1598E-04  0.4370E-07  0.1748E-02  0.1243E-03  0.8613E+01
   -1.000001   30.61064  0.1031E-13  0.1599E-04  0.4356E-07  0.1758E-02  0.1175E-03  0.9336E+01
   -1.050003   30.61117  0.1031E-13  0.1598E-04  0.4352E-07  0.1758E-02  0.1110E-03  0.1053E+02
   -1.100005   30.61169  0.1031E-13  0.1595E-04  0.4359E-07  0.1849E-02  0.1048E-03  0.3487E+02
   -1.150006   30.61218  0.1031E-13  0.1590E-04  0.4380E-07  0.1668E-02  0.9931E-04  0.8042E+02
   -1.200008   30.61272  0.1031E-13  0.1583E-04  0.4414E-07  0.1697E-02  0.9356E-04  0.1528E+02
   -1.250009   30.61325  0.1031E-13  0.1572E-04  0.4465E-07  0.1666E-02  0.8807E-04  0.1634E+02
   -1.300011   30.61379  0.1031E-13  0.1559E-04  0.4538E-07  0.1616E-02  0.8279E-04  0.1907E+02
   -1.350012   30.61434  0.1031E-13  0.1543E-04  0.4637E-07  0.1555E-02  0.7766E-04  0.2298E+02
   -1.400013   30.61491  0.1031E-13  0.1523E-04  0.4772E-07  0.1477E-02  0.7267E-04  0.2839E+02
   -1.450014   30.61551  0.1031E-13  0.1498E-04  0.4957E-07  0.1398E-02  0.6775E-04  0.3652E+02
   -1.500014   30.61614  0.1031E-13  0.1468E-04  0.5214E-07  0.1286E-02  0.6293E-04  0.4984E+02
   -1.550015   30.61683  0.1031E-13  0.1432E-04  0.5580E-07  0.1201E-02  0.5806E-04  0.7215E+02
   -1.600015   30.61759  0.1031E-13  0.1387E-04  0.6143E-07  0.1058E-02  0.5331E-04  0.1451E+03
   -1.650015   30.61851  0.1031E-13  0.1329E-04  0.7023E-07  0.9776E-03  0.4818E-04  0.9252E+03
   -1.700014   30.61955  0.1031E-13  0.1248E-04  0.8598E-07  0.7945E-03  0.4314E-04  0.3862E+04
   -1.750013   30.62142  0.1031E-13  0.1142E-04  0.1118E-06  0.7175E-03  0.3640E-04  0.1717E+06
   -1.800012   30.62298  0.1031E-13  0.1001E-04  0.1688E-06  0.4951E-03  0.3118E-04  0.2054E+06
   -1.850010   30.62942  0.1031E-13  0.8472E-05  0.2725E-06  0.4620E-03  0.2209E-04  0.4346E+08
   -1.900008   30.62785  0.1031E-13  0.6707E-05  0.5738E-06  0.2074E-03  0.1802E-04  0.7410E+06
   -1.950006   30.64743  0.1031E-13  0.4703E-05  0.1422E-05  0.1937E-03  0.9581E-05 -0.1434E+07
   -2.000002   30.64889  0.1031E-13  0.0000E+00  0.0000E+00  0.0000E+00  0.1807E-04  0.0000E+00
