 1 - depth, m
 2 - temperature, C
 3 - salinity, kg/kg
 4 - turbulent kinetic energy, m**2/s**2
 5 - dissipation rate, m**2/s**3
 6 - kinematic heat conductance, m**2/s
 7 - modulus of horizontal velocity, m/s
 8 - Richardson number, n/d
   -0.000000   30.16779  0.7476E-13  0.4679E-05  0.2828E-06  0.4959E-04  0.1863E-02  0.7409E+04
   -0.049997   30.19695  0.7476E-13  0.7937E-05  0.1260E-06  0.1726E-03  0.1063E-02  0.4083E+03
   -0.099994   30.20817  0.7476E-13  0.9609E-05  0.8653E-07  0.3886E-03  0.7777E-03  0.1404E+02
   -0.149992   30.21131  0.7476E-13  0.1065E-04  0.7255E-07  0.4688E-03  0.6860E-03  0.6812E+01
   -0.199991   30.21381  0.7476E-13  0.1147E-04  0.6434E-07  0.6250E-03  0.6120E-03  0.4369E+01
   -0.249989   30.21563  0.7476E-13  0.1211E-04  0.5895E-07  0.7476E-03  0.5565E-03  0.3215E+01
   -0.299989   30.21710  0.7476E-13  0.1263E-04  0.5510E-07  0.8691E-03  0.5103E-03  0.2552E+01
   -0.349988   30.21834  0.7476E-13  0.1307E-04  0.5221E-07  0.9795E-03  0.4707E-03  0.2177E+01
   -0.399988   30.21941  0.7476E-13  0.1343E-04  0.4996E-07  0.1081E-02  0.4358E-03  0.1938E+01
   -0.449988   30.22035  0.7476E-13  0.1375E-04  0.4812E-07  0.1174E-02  0.4050E-03  0.1818E+01
   -0.499988   30.22121  0.7476E-13  0.1402E-04  0.4659E-07  0.1261E-02  0.3778E-03  0.1768E+01
   -0.549989   30.22199  0.7476E-13  0.1425E-04  0.4531E-07  0.1340E-02  0.3535E-03  0.1743E+01
   -0.599990   30.22271  0.7476E-13  0.1445E-04  0.4423E-07  0.1412E-02  0.3315E-03  0.1743E+01
   -0.649991   30.22338  0.7476E-13  0.1462E-04  0.4330E-07  0.1476E-02  0.3115E-03  0.1763E+01
   -0.699992   30.22401  0.7476E-13  0.1476E-04  0.4252E-07  0.1534E-02  0.2931E-03  0.1800E+01
   -0.749993   30.22461  0.7476E-13  0.1488E-04  0.4186E-07  0.1584E-02  0.2762E-03  0.1857E+01
   -0.799995   30.22518  0.7476E-13  0.1498E-04  0.4130E-07  0.1626E-02  0.2604E-03  0.1932E+01
   -0.849996   30.22573  0.7476E-13  0.1506E-04  0.4085E-07  0.1661E-02  0.2457E-03  0.2027E+01
   -0.899998   30.22626  0.7476E-13  0.1511E-04  0.4049E-07  0.1689E-02  0.2319E-03  0.2147E+01
   -0.950000   30.22678  0.7476E-13  0.1514E-04  0.4022E-07  0.1708E-02  0.2189E-03  0.2292E+01
   -1.000001   30.22729  0.7476E-13  0.1516E-04  0.4004E-07  0.1720E-02  0.2067E-03  0.2471E+01
   -1.050003   30.22778  0.7476E-13  0.1515E-04  0.3996E-07  0.1722E-02  0.1950E-03  0.2793E+01
   -1.100005   30.22828  0.7476E-13  0.1512E-04  0.3998E-07  0.1802E-02  0.1839E-03  0.9299E+01
   -1.150007   30.22874  0.7476E-13  0.1508E-04  0.4012E-07  0.1652E-02  0.1740E-03  0.2079E+02
   -1.200008   30.22925  0.7476E-13  0.1501E-04  0.4037E-07  0.1671E-02  0.1638E-03  0.4002E+01
   -1.250010   30.22974  0.7476E-13  0.1491E-04  0.4078E-07  0.1643E-02  0.1541E-03  0.4253E+01
   -1.300011   30.23024  0.7476E-13  0.1479E-04  0.4137E-07  0.1597E-02  0.1447E-03  0.4953E+01
   -1.350012   30.23076  0.7476E-13  0.1465E-04  0.4218E-07  0.1541E-02  0.1356E-03  0.5906E+01
   -1.400013   30.23128  0.7476E-13  0.1447E-04  0.4330E-07  0.1468E-02  0.1267E-03  0.7251E+01
   -1.450014   30.23184  0.7476E-13  0.1425E-04  0.4483E-07  0.1393E-02  0.1181E-03  0.9176E+01
   -1.500015   30.23242  0.7476E-13  0.1398E-04  0.4695E-07  0.1286E-02  0.1096E-03  0.1235E+02
   -1.550015   30.23305  0.7476E-13  0.1366E-04  0.4994E-07  0.1205E-02  0.1011E-03  0.1731E+02
   -1.600015   30.23373  0.7476E-13  0.1326E-04  0.5451E-07  0.1061E-02  0.9278E-04  0.3082E+02
   -1.650015   30.23454  0.7476E-13  0.1275E-04  0.6153E-07  0.9867E-03  0.8393E-04  0.3279E+03
   -1.700014   30.23544  0.7476E-13  0.1206E-04  0.7428E-07  0.8015E-03  0.7541E-04 -0.1637E+03
   -1.750013   30.23706  0.7476E-13  0.1112E-04  0.9527E-07  0.7307E-03  0.6406E-04  0.1438E+06
   -1.800012   30.23840  0.7476E-13  0.9848E-05  0.1387E-06  0.5047E-03  0.5516E-04  0.5546E+04
   -1.850010   30.24370  0.7476E-13  0.8375E-05  0.2216E-06  0.4666E-03  0.3982E-04  0.1309E+08
   -1.900008   30.24292  0.7476E-13  0.6653E-05  0.4586E-06  0.2102E-03  0.3238E-04  0.3575E+06
   -1.950006   30.25971  0.7476E-13  0.4595E-05  0.1170E-05  0.1777E-03  0.1760E-04 -0.7637E+06
   -2.000003   30.26229  0.7476E-13  0.0000E+00  0.0000E+00  0.0000E+00  0.3122E-04  0.0000E+00
