 1 - depth, m
 2 - temperature, C
 3 - salinity, kg/kg
 4 - turbulent kinetic energy, m**2/s**2
 5 - dissipation rate, m**2/s**3
 6 - kinematic heat conductance, m**2/s
 7 - modulus of horizontal velocity, m/s
 8 - Richardson number, n/d
   -0.000000   30.59783  0.3490E-14  0.5332E-05  0.3271E-06  0.5259E-04  0.2559E-02  0.1818E+04
   -0.049997   30.62966  0.3490E-14  0.8872E-05  0.1441E-06  0.1939E-03  0.1406E-02  0.2116E+03
   -0.099994   30.64042  0.3490E-14  0.1061E-04  0.1007E-06  0.3974E-03  0.1072E-02  0.7523E+01
   -0.149992   30.64390  0.3490E-14  0.1173E-04  0.8437E-07  0.4909E-03  0.9478E-03  0.3822E+01
   -0.199991   30.64660  0.3490E-14  0.1261E-04  0.7482E-07  0.6471E-03  0.8499E-03  0.2470E+01
   -0.249989   30.64858  0.3490E-14  0.1331E-04  0.6858E-07  0.7730E-03  0.7758E-03  0.1831E+01
   -0.299988   30.65020  0.3490E-14  0.1388E-04  0.6415E-07  0.8938E-03  0.7140E-03  0.1477E+01
   -0.349988   30.65156  0.3490E-14  0.1436E-04  0.6080E-07  0.1004E-02  0.6606E-03  0.1316E+01
   -0.399988   30.65275  0.3490E-14  0.1478E-04  0.5814E-07  0.1111E-02  0.6121E-03  0.1245E+01
   -0.449988   30.65380  0.3490E-14  0.1515E-04  0.5593E-07  0.1216E-02  0.5681E-03  0.1228E+01
   -0.499988   30.65473  0.3490E-14  0.1547E-04  0.5408E-07  0.1316E-02  0.5283E-03  0.1229E+01
   -0.549989   30.65559  0.3490E-14  0.1576E-04  0.5252E-07  0.1408E-02  0.4922E-03  0.1227E+01
   -0.599989   30.65637  0.3490E-14  0.1600E-04  0.5121E-07  0.1492E-02  0.4596E-03  0.1224E+01
   -0.649990   30.65709  0.3490E-14  0.1621E-04  0.5012E-07  0.1567E-02  0.4299E-03  0.1220E+01
   -0.699992   30.65778  0.3490E-14  0.1638E-04  0.4921E-07  0.1631E-02  0.4029E-03  0.1217E+01
   -0.749993   30.65842  0.3490E-14  0.1652E-04  0.4847E-07  0.1685E-02  0.3784E-03  0.1217E+01
   -0.799994   30.65904  0.3490E-14  0.1662E-04  0.4787E-07  0.1728E-02  0.3560E-03  0.1224E+01
   -0.849996   30.65963  0.3490E-14  0.1670E-04  0.4740E-07  0.1761E-02  0.3355E-03  0.1244E+01
   -0.899998   30.66021  0.3490E-14  0.1676E-04  0.4705E-07  0.1785E-02  0.3167E-03  0.1284E+01
   -0.949999   30.66077  0.3490E-14  0.1678E-04  0.4682E-07  0.1800E-02  0.2992E-03  0.1347E+01
   -1.000001   30.66133  0.3490E-14  0.1679E-04  0.4670E-07  0.1807E-02  0.2828E-03  0.1438E+01
   -1.050003   30.66187  0.3490E-14  0.1677E-04  0.4669E-07  0.1802E-02  0.2674E-03  0.1617E+01
   -1.100004   30.66242  0.3490E-14  0.1673E-04  0.4681E-07  0.1912E-02  0.2527E-03  0.5248E+01
   -1.150006   30.66292  0.3490E-14  0.1666E-04  0.4708E-07  0.1682E-02  0.2398E-03  0.1265E+02
   -1.200008   30.66350  0.3490E-14  0.1657E-04  0.4749E-07  0.1727E-02  0.2260E-03  0.2370E+01
   -1.250009   30.66405  0.3490E-14  0.1645E-04  0.4811E-07  0.1693E-02  0.2129E-03  0.2527E+01
   -1.300010   30.66462  0.3490E-14  0.1630E-04  0.4897E-07  0.1637E-02  0.2004E-03  0.2975E+01
   -1.350012   30.66519  0.3490E-14  0.1611E-04  0.5014E-07  0.1571E-02  0.1881E-03  0.3593E+01
   -1.400013   30.66580  0.3490E-14  0.1588E-04  0.5173E-07  0.1487E-02  0.1761E-03  0.4488E+01
   -1.450013   30.66643  0.3490E-14  0.1560E-04  0.5391E-07  0.1402E-02  0.1643E-03  0.5821E+01
   -1.500014   30.66711  0.3490E-14  0.1526E-04  0.5697E-07  0.1286E-02  0.1526E-03  0.8062E+01
   -1.550014   30.66786  0.3490E-14  0.1485E-04  0.6139E-07  0.1195E-02  0.1409E-03  0.1240E+02
   -1.600014   30.66868  0.3490E-14  0.1434E-04  0.6825E-07  0.1054E-02  0.1292E-03  0.2821E+02
   -1.650014   30.66970  0.3490E-14  0.1366E-04  0.7916E-07  0.9632E-03  0.1166E-03  0.1803E+04
   -1.700014   30.67095  0.3490E-14  0.1274E-04  0.9826E-07  0.7918E-03  0.1036E-03  0.2296E+04
   -1.750013   30.67303  0.3490E-14  0.1157E-04  0.1289E-06  0.6995E-03  0.8701E-04  0.2773E+06
   -1.800011   30.67469  0.3490E-14  0.1001E-04  0.1980E-06  0.4751E-03  0.7439E-04  0.4749E+05
   -1.850010   30.68274  0.3490E-14  0.8400E-05  0.3254E-06  0.4501E-03  0.5123E-04  0.1332E+08
   -1.900008   30.68017  0.3490E-14  0.6613E-05  0.6871E-06  0.2044E-03  0.4194E-04 -0.5344E+05
   -1.950005   30.70307  0.3490E-14  0.4715E-05  0.1659E-05  0.2105E-03  0.2177E-04 -0.2551E+05
   -2.000002   30.70253  0.3490E-14  0.0000E+00  0.0000E+00  0.0000E+00  0.4369E-04  0.0000E+00
