 1 - depth, m
 2 - temperature, C
 3 - salinity, kg/kg
 4 - turbulent kinetic energy, m**2/s**2
 5 - dissipation rate, m**2/s**3
 6 - kinematic heat conductance, m**2/s
 7 - modulus of horizontal velocity, m/s
 8 - Richardson number, n/d
   -0.000000   31.08337  0.1766E-14  0.5553E-05  0.3746E-06  0.5499E-04  0.1947E-02  0.2144E+04
   -0.049997   31.11747  0.1766E-14  0.9347E-05  0.1668E-06  0.1841E-03  0.1125E-02  0.6418E+04
   -0.099994   31.13115  0.1766E-14  0.1135E-04  0.1138E-06  0.4161E-03  0.8265E-03  0.1354E+02
   -0.149992   31.13489  0.1766E-14  0.1261E-04  0.9503E-07  0.4969E-03  0.7314E-03  0.6695E+01
   -0.199990   31.13788  0.1766E-14  0.1359E-04  0.8410E-07  0.6698E-03  0.6538E-03  0.4252E+01
   -0.249989   31.14003  0.1766E-14  0.1437E-04  0.7700E-07  0.8005E-03  0.5962E-03  0.3134E+01
   -0.299988   31.14178  0.1766E-14  0.1500E-04  0.7196E-07  0.9332E-03  0.5483E-03  0.2485E+01
   -0.349987   31.14324  0.1766E-14  0.1553E-04  0.6820E-07  0.1053E-02  0.5074E-03  0.2122E+01
   -0.399987   31.14451  0.1766E-14  0.1596E-04  0.6528E-07  0.1162E-02  0.4712E-03  0.1886E+01
   -0.449987   31.14563  0.1766E-14  0.1634E-04  0.6291E-07  0.1263E-02  0.4393E-03  0.1768E+01
   -0.499987   31.14664  0.1766E-14  0.1667E-04  0.6096E-07  0.1355E-02  0.4111E-03  0.1716E+01
   -0.549988   31.14757  0.1766E-14  0.1694E-04  0.5933E-07  0.1440E-02  0.3858E-03  0.1693E+01
   -0.599989   31.14842  0.1766E-14  0.1718E-04  0.5796E-07  0.1517E-02  0.3629E-03  0.1689E+01
   -0.649990   31.14922  0.1766E-14  0.1739E-04  0.5681E-07  0.1585E-02  0.3420E-03  0.1709E+01
   -0.699991   31.14998  0.1766E-14  0.1756E-04  0.5584E-07  0.1645E-02  0.3227E-03  0.1743E+01
   -0.749992   31.15069  0.1766E-14  0.1770E-04  0.5503E-07  0.1696E-02  0.3049E-03  0.1801E+01
   -0.799994   31.15138  0.1766E-14  0.1781E-04  0.5437E-07  0.1739E-02  0.2883E-03  0.1873E+01
   -0.849995   31.15204  0.1766E-14  0.1789E-04  0.5385E-07  0.1773E-02  0.2728E-03  0.1972E+01
   -0.899997   31.15268  0.1766E-14  0.1795E-04  0.5345E-07  0.1799E-02  0.2582E-03  0.2090E+01
   -0.949998   31.15331  0.1766E-14  0.1799E-04  0.5319E-07  0.1815E-02  0.2444E-03  0.2244E+01
   -1.000000   31.15392  0.1766E-14  0.1799E-04  0.5305E-07  0.1823E-02  0.2314E-03  0.2423E+01
   -1.050002   31.15453  0.1766E-14  0.1798E-04  0.5306E-07  0.1819E-02  0.2190E-03  0.2754E+01
   -1.100003   31.15513  0.1766E-14  0.1793E-04  0.5321E-07  0.1932E-02  0.2071E-03  0.8886E+01
   -1.150005   31.15570  0.1766E-14  0.1786E-04  0.5355E-07  0.1694E-02  0.1966E-03  0.2196E+02
   -1.200006   31.15634  0.1766E-14  0.1776E-04  0.5406E-07  0.1740E-02  0.1854E-03  0.4080E+01
   -1.250008   31.15696  0.1766E-14  0.1763E-04  0.5481E-07  0.1706E-02  0.1747E-03  0.4356E+01
   -1.300009   31.15759  0.1766E-14  0.1746E-04  0.5587E-07  0.1647E-02  0.1645E-03  0.5168E+01
   -1.350010   31.15824  0.1766E-14  0.1725E-04  0.5731E-07  0.1580E-02  0.1545E-03  0.6288E+01
   -1.400011   31.15893  0.1766E-14  0.1699E-04  0.5928E-07  0.1490E-02  0.1447E-03  0.7979E+01
   -1.450012   31.15965  0.1766E-14  0.1668E-04  0.6201E-07  0.1409E-02  0.1350E-03  0.1050E+02
   -1.500012   31.16042  0.1766E-14  0.1629E-04  0.6588E-07  0.1284E-02  0.1255E-03  0.1511E+02
   -1.550013   31.16129  0.1766E-14  0.1582E-04  0.7148E-07  0.1204E-02  0.1157E-03  0.2053E+02
   -1.600013   31.16224  0.1766E-14  0.1523E-04  0.8056E-07  0.1053E-02  0.1062E-03  0.7983E+03
   -1.650012   31.16354  0.1766E-14  0.1444E-04  0.9468E-07  0.9701E-03  0.9531E-04  0.9093E+03
   -1.700012   31.16496  0.1766E-14  0.1335E-04  0.1207E-06  0.7818E-03  0.8470E-04  0.1301E+05
   -1.750011   31.16784  0.1766E-14  0.1205E-04  0.1618E-06  0.7082E-03  0.6976E-04  0.2203E+06
   -1.800009   31.16942  0.1766E-14  0.1043E-04  0.2527E-06  0.4802E-03  0.6006E-04  0.1319E+06
   -1.850008   31.18019  0.1766E-14  0.8824E-05  0.4225E-06  0.4605E-03  0.4080E-04  0.5916E+09
   -1.900006   31.17524  0.1766E-14  0.7030E-05  0.8843E-06  0.2155E-03  0.3398E-04 -0.2322E+06
   -1.950003   31.20242  0.1766E-14  0.5081E-05  0.2073E-05  0.2289E-03  0.1782E-04 -0.2395E+06
   -2.000000   31.20129  0.1766E-14  0.0000E+00  0.0000E+00  0.0000E+00  0.3648E-04  0.0000E+00
