 1 - depth, m
 2 - temperature, C
 3 - salinity, kg/kg
 4 - turbulent kinetic energy, m**2/s**2
 5 - dissipation rate, m**2/s**3
 6 - kinematic heat conductance, m**2/s
 7 - modulus of horizontal velocity, m/s
 8 - Richardson number, n/d
   -0.000000   31.16036  0.1764E-14  0.5619E-05  0.3827E-06  0.5474E-04  0.1614E-02  0.7187E+04
   -0.049997   31.19609  0.1764E-14  0.9523E-05  0.1708E-06  0.1863E-03  0.9344E-03  0.1423E+05
   -0.099994   31.21024  0.1764E-14  0.1157E-04  0.1169E-06  0.4192E-03  0.6868E-03  0.2016E+02
   -0.149992   31.21410  0.1764E-14  0.1285E-04  0.9769E-07  0.5000E-03  0.6080E-03  0.9981E+01
   -0.199990   31.21720  0.1764E-14  0.1384E-04  0.8647E-07  0.6739E-03  0.5436E-03  0.6342E+01
   -0.249989   31.21942  0.1764E-14  0.1462E-04  0.7915E-07  0.8048E-03  0.4959E-03  0.4681E+01
   -0.299988   31.22122  0.1764E-14  0.1526E-04  0.7394E-07  0.9380E-03  0.4561E-03  0.3708E+01
   -0.349988   31.22273  0.1764E-14  0.1578E-04  0.7003E-07  0.1058E-02  0.4221E-03  0.3168E+01
   -0.399987   31.22403  0.1764E-14  0.1621E-04  0.6698E-07  0.1167E-02  0.3921E-03  0.2813E+01
   -0.449987   31.22519  0.1764E-14  0.1659E-04  0.6450E-07  0.1268E-02  0.3656E-03  0.2639E+01
   -0.499988   31.22623  0.1764E-14  0.1690E-04  0.6244E-07  0.1360E-02  0.3422E-03  0.2557E+01
   -0.549988   31.22718  0.1764E-14  0.1717E-04  0.6071E-07  0.1445E-02  0.3211E-03  0.2523E+01
   -0.599989   31.22805  0.1764E-14  0.1740E-04  0.5925E-07  0.1521E-02  0.3021E-03  0.2513E+01
   -0.649990   31.22887  0.1764E-14  0.1759E-04  0.5800E-07  0.1588E-02  0.2847E-03  0.2545E+01
   -0.699991   31.22964  0.1764E-14  0.1775E-04  0.5694E-07  0.1648E-02  0.2687E-03  0.2591E+01
   -0.749992   31.23037  0.1764E-14  0.1788E-04  0.5604E-07  0.1699E-02  0.2539E-03  0.2678E+01
   -0.799994   31.23107  0.1764E-14  0.1798E-04  0.5528E-07  0.1742E-02  0.2401E-03  0.2779E+01
   -0.849995   31.23174  0.1764E-14  0.1804E-04  0.5467E-07  0.1776E-02  0.2272E-03  0.2926E+01
   -0.899997   31.23239  0.1764E-14  0.1809E-04  0.5418E-07  0.1801E-02  0.2151E-03  0.3091E+01
   -0.949999   31.23302  0.1764E-14  0.1810E-04  0.5382E-07  0.1817E-02  0.2036E-03  0.3317E+01
   -1.000000   31.23364  0.1764E-14  0.1809E-04  0.5359E-07  0.1825E-02  0.1927E-03  0.3572E+01
   -1.050002   31.23425  0.1764E-14  0.1805E-04  0.5349E-07  0.1821E-02  0.1824E-03  0.4053E+01
   -1.100004   31.23486  0.1764E-14  0.1799E-04  0.5355E-07  0.1937E-02  0.1725E-03  0.1296E+02
   -1.150005   31.23542  0.1764E-14  0.1790E-04  0.5379E-07  0.1689E-02  0.1638E-03  0.3272E+02
   -1.200007   31.23606  0.1764E-14  0.1778E-04  0.5420E-07  0.1739E-02  0.1544E-03  0.6009E+01
   -1.250008   31.23667  0.1764E-14  0.1762E-04  0.5485E-07  0.1706E-02  0.1456E-03  0.6378E+01
   -1.300010   31.23729  0.1764E-14  0.1743E-04  0.5580E-07  0.1646E-02  0.1370E-03  0.7581E+01
   -1.350011   31.23793  0.1764E-14  0.1720E-04  0.5714E-07  0.1580E-02  0.1287E-03  0.9206E+01
   -1.400012   31.23859  0.1764E-14  0.1692E-04  0.5902E-07  0.1487E-02  0.1206E-03  0.1175E+02
   -1.450012   31.23930  0.1764E-14  0.1658E-04  0.6166E-07  0.1408E-02  0.1125E-03  0.1545E+02
   -1.500013   31.24004  0.1764E-14  0.1617E-04  0.6546E-07  0.1282E-02  0.1046E-03  0.2253E+02
   -1.550013   31.24089  0.1764E-14  0.1568E-04  0.7103E-07  0.1207E-02  0.9645E-04  0.3619E+02
   -1.600013   31.24179  0.1764E-14  0.1505E-04  0.8027E-07  0.1052E-02  0.8855E-04 -0.3148E+02
   -1.650013   31.24308  0.1764E-14  0.1422E-04  0.9470E-07  0.9731E-03  0.7935E-04  0.1008E+04
   -1.700012   31.24446  0.1764E-14  0.1310E-04  0.1209E-06  0.7816E-03  0.7046E-04  0.2233E+05
   -1.750012   31.24728  0.1764E-14  0.1178E-04  0.1626E-06  0.7110E-03  0.5788E-04  0.1908E+06
   -1.800010   31.24861  0.1764E-14  0.1018E-04  0.2549E-06  0.4825E-03  0.4998E-04  0.1383E+06
   -1.850008   31.25906  0.1764E-14  0.8606E-05  0.4292E-06  0.4630E-03  0.3385E-04  0.1984E+09
   -1.900006   31.25389  0.1764E-14  0.6876E-05  0.9086E-06  0.2201E-03  0.2841E-04 -0.1979E+06
   -1.950004   31.27911  0.1764E-14  0.4941E-05  0.2116E-05  0.2321E-03  0.1491E-04 -0.6963E+06
   -2.000001   31.27848  0.1764E-14  0.0000E+00  0.0000E+00  0.0000E+00  0.3085E-04  0.0000E+00
