 1 - depth, m
 2 - temperature, C
 3 - salinity, kg/kg
 4 - turbulent kinetic energy, m**2/s**2
 5 - dissipation rate, m**2/s**3
 6 - kinematic heat conductance, m**2/s
 7 - modulus of horizontal velocity, m/s
 8 - Richardson number, n/d
   -0.000000   30.75087  0.4096E-14  0.5552E-05  0.3264E-06  0.5314E-04  0.3312E-02  0.1003E+04
   -0.049997   30.78266  0.4096E-14  0.8992E-05  0.1418E-06  0.2031E-03  0.1794E-02  0.4683E+03
   -0.099994   30.79255  0.4096E-14  0.1061E-04  0.1003E-06  0.3914E-03  0.1408E-02  0.5461E+01
   -0.149992   30.79606  0.4096E-14  0.1167E-04  0.8441E-07  0.4872E-03  0.1255E-02  0.2811E+01
   -0.199991   30.79875  0.4096E-14  0.1250E-04  0.7511E-07  0.6271E-03  0.1134E-02  0.1866E+01
   -0.249989   30.80077  0.4096E-14  0.1319E-04  0.6895E-07  0.7397E-03  0.1041E-02  0.1508E+01
   -0.299988   30.80244  0.4096E-14  0.1378E-04  0.6437E-07  0.8587E-03  0.9595E-03  0.1402E+01
   -0.349988   30.80384  0.4096E-14  0.1431E-04  0.6071E-07  0.9860E-03  0.8824E-03  0.1396E+01
   -0.399988   30.80503  0.4096E-14  0.1479E-04  0.5771E-07  0.1116E-02  0.8086E-03  0.1379E+01
   -0.449988   30.80605  0.4096E-14  0.1522E-04  0.5520E-07  0.1243E-02  0.7405E-03  0.1375E+01
   -0.499988   30.80696  0.4096E-14  0.1560E-04  0.5311E-07  0.1361E-02  0.6793E-03  0.1371E+01
   -0.549989   30.80776  0.4096E-14  0.1592E-04  0.5137E-07  0.1470E-02  0.6245E-03  0.1365E+01
   -0.599989   30.80850  0.4096E-14  0.1619E-04  0.4992E-07  0.1568E-02  0.5753E-03  0.1353E+01
   -0.649990   30.80917  0.4096E-14  0.1641E-04  0.4872E-07  0.1653E-02  0.5312E-03  0.1344E+01
   -0.699992   30.80980  0.4096E-14  0.1658E-04  0.4773E-07  0.1726E-02  0.4915E-03  0.1328E+01
   -0.749993   30.81040  0.4096E-14  0.1671E-04  0.4694E-07  0.1784E-02  0.4558E-03  0.1317E+01
   -0.799994   30.81097  0.4096E-14  0.1681E-04  0.4630E-07  0.1830E-02  0.4238E-03  0.1301E+01
   -0.849996   30.81151  0.4096E-14  0.1687E-04  0.4582E-07  0.1862E-02  0.3948E-03  0.1292E+01
   -0.899998   30.81204  0.4096E-14  0.1690E-04  0.4548E-07  0.1882E-02  0.3687E-03  0.1280E+01
   -0.949999   30.81256  0.4096E-14  0.1690E-04  0.4526E-07  0.1890E-02  0.3451E-03  0.1282E+01
   -1.000001   30.81306  0.4096E-14  0.1688E-04  0.4517E-07  0.1887E-02  0.3238E-03  0.1285E+01
   -1.050003   30.81356  0.4096E-14  0.1683E-04  0.4519E-07  0.1870E-02  0.3044E-03  0.1341E+01
   -1.100005   30.81407  0.4096E-14  0.1676E-04  0.4533E-07  0.2013E-02  0.2869E-03  0.3848E+01
   -1.150006   30.81453  0.4096E-14  0.1667E-04  0.4561E-07  0.1707E-02  0.2728E-03  0.9583E+01
   -1.200008   30.81506  0.4096E-14  0.1656E-04  0.4603E-07  0.1778E-02  0.2572E-03  0.1774E+01
   -1.250009   30.81558  0.4096E-14  0.1641E-04  0.4664E-07  0.1743E-02  0.2426E-03  0.1863E+01
   -1.300011   30.81609  0.4096E-14  0.1624E-04  0.4750E-07  0.1681E-02  0.2285E-03  0.2204E+01
   -1.350012   30.81663  0.4096E-14  0.1603E-04  0.4866E-07  0.1611E-02  0.2148E-03  0.2642E+01
   -1.400013   30.81718  0.4096E-14  0.1578E-04  0.5026E-07  0.1519E-02  0.2014E-03  0.3324E+01
   -1.450014   30.81776  0.4096E-14  0.1548E-04  0.5246E-07  0.1434E-02  0.1881E-03  0.4283E+01
   -1.500014   30.81839  0.4096E-14  0.1512E-04  0.5557E-07  0.1309E-02  0.1749E-03  0.6018E+01
   -1.550015   30.81908  0.4096E-14  0.1469E-04  0.6007E-07  0.1225E-02  0.1616E-03  0.9154E+01
   -1.600015   30.81983  0.4096E-14  0.1415E-04  0.6730E-07  0.1073E-02  0.1484E-03  0.2461E+04
   -1.650014   30.82082  0.4096E-14  0.1344E-04  0.7865E-07  0.9861E-03  0.1335E-03  0.3612E+03
   -1.700014   30.82195  0.4096E-14  0.1248E-04  0.9829E-07  0.8002E-03  0.1187E-03  0.3299E+04
   -1.750013   30.82400  0.4096E-14  0.1130E-04  0.1300E-06  0.7177E-03  0.9880E-04  0.1551E+06
   -1.800012   30.82534  0.4096E-14  0.9799E-05  0.2009E-06  0.4931E-03  0.8493E-04  0.2334E+04
   -1.850010   30.83294  0.4096E-14  0.8263E-05  0.3323E-06  0.4630E-03  0.5831E-04  0.1485E+09
   -1.900008   30.83012  0.4096E-14  0.6539E-05  0.7041E-06  0.2142E-03  0.4836E-04 -0.4896E+05
   -1.950005   30.85061  0.4096E-14  0.4645E-05  0.1681E-05  0.2139E-03  0.2537E-04 -0.1079E+06
   -2.000002   30.85096  0.4096E-14  0.0000E+00  0.0000E+00  0.0000E+00  0.5148E-04  0.0000E+00
