 1 - depth, m
 2 - temperature, C
 3 - salinity, kg/kg
 4 - turbulent kinetic energy, m**2/s**2
 5 - dissipation rate, m**2/s**3
 6 - kinematic heat conductance, m**2/s
 7 - modulus of horizontal velocity, m/s
 8 - Richardson number, n/d
   -0.000000   30.14422  0.2461E-14  0.4703E-05  0.2938E-06  0.5049E-04  0.7707E-03  0.8545E+04
   -0.049997   30.17430  0.2461E-14  0.8221E-05  0.1302E-06  0.1755E-03  0.4421E-03  0.3544E+02
   -0.099994   30.18632  0.2461E-14  0.9996E-05  0.8942E-07  0.4116E-03  0.3192E-03  0.7774E+02
   -0.149992   30.18944  0.2461E-14  0.1109E-04  0.7542E-07  0.4842E-03  0.2829E-03  0.3787E+02
   -0.199991   30.19199  0.2461E-14  0.1194E-04  0.6715E-07  0.6487E-03  0.2528E-03  0.2457E+02
   -0.249989   30.19384  0.2461E-14  0.1262E-04  0.6171E-07  0.7739E-03  0.2303E-03  0.1821E+02
   -0.299988   30.19534  0.2461E-14  0.1317E-04  0.5783E-07  0.8989E-03  0.2116E-03  0.1455E+02
   -0.349988   30.19661  0.2461E-14  0.1363E-04  0.5491E-07  0.1012E-02  0.1955E-03  0.1245E+02
   -0.399988   30.19771  0.2461E-14  0.1402E-04  0.5263E-07  0.1115E-02  0.1812E-03  0.1112E+02
   -0.449988   30.19868  0.2461E-14  0.1435E-04  0.5078E-07  0.1211E-02  0.1687E-03  0.1043E+02
   -0.499988   30.19956  0.2461E-14  0.1464E-04  0.4925E-07  0.1299E-02  0.1576E-03  0.1016E+02
   -0.549989   30.20037  0.2461E-14  0.1489E-04  0.4797E-07  0.1380E-02  0.1477E-03  0.1001E+02
   -0.599990   30.20111  0.2461E-14  0.1510E-04  0.4689E-07  0.1453E-02  0.1387E-03  0.1003E+02
   -0.649991   30.20181  0.2461E-14  0.1529E-04  0.4598E-07  0.1518E-02  0.1305E-03  0.1014E+02
   -0.699992   30.20247  0.2461E-14  0.1544E-04  0.4521E-07  0.1576E-02  0.1229E-03  0.1038E+02
   -0.749993   30.20309  0.2461E-14  0.1557E-04  0.4457E-07  0.1627E-02  0.1159E-03  0.1071E+02
   -0.799995   30.20369  0.2461E-14  0.1568E-04  0.4403E-07  0.1669E-02  0.1094E-03  0.1117E+02
   -0.849996   30.20426  0.2461E-14  0.1576E-04  0.4361E-07  0.1704E-02  0.1034E-03  0.1172E+02
   -0.899998   30.20482  0.2461E-14  0.1582E-04  0.4328E-07  0.1731E-02  0.9769E-04  0.1244E+02
   -0.950000   30.20536  0.2461E-14  0.1586E-04  0.4305E-07  0.1749E-02  0.9232E-04  0.1329E+02
   -1.000001   30.20590  0.2461E-14  0.1588E-04  0.4291E-07  0.1760E-02  0.8724E-04  0.1437E+02
   -1.050003   30.20642  0.2461E-14  0.1588E-04  0.4288E-07  0.1761E-02  0.8242E-04  0.1625E+02
   -1.100005   30.20694  0.2461E-14  0.1585E-04  0.4296E-07  0.1848E-02  0.7782E-04  0.5388E+02
   -1.150006   30.20743  0.2461E-14  0.1580E-04  0.4317E-07  0.1675E-02  0.7372E-04  0.1227E+03
   -1.200008   30.20797  0.2461E-14  0.1573E-04  0.4351E-07  0.1702E-02  0.6945E-04  0.2348E+02
   -1.250009   30.20850  0.2461E-14  0.1564E-04  0.4402E-07  0.1672E-02  0.6537E-04  0.2505E+02
   -1.300011   30.20903  0.2461E-14  0.1551E-04  0.4473E-07  0.1622E-02  0.6145E-04  0.2928E+02
   -1.350012   30.20958  0.2461E-14  0.1535E-04  0.4570E-07  0.1563E-02  0.5764E-04  0.3512E+02
   -1.400013   30.21015  0.2461E-14  0.1516E-04  0.4702E-07  0.1486E-02  0.5393E-04  0.4338E+02
   -1.450014   30.21075  0.2461E-14  0.1493E-04  0.4881E-07  0.1409E-02  0.5028E-04  0.5544E+02
   -1.500014   30.21138  0.2461E-14  0.1464E-04  0.5130E-07  0.1297E-02  0.4670E-04  0.7552E+02
   -1.550015   30.21207  0.2461E-14  0.1429E-04  0.5482E-07  0.1214E-02  0.4310E-04  0.1083E+03
   -1.600015   30.21281  0.2461E-14  0.1385E-04  0.6025E-07  0.1070E-02  0.3958E-04  0.2180E+03
   -1.650015   30.21373  0.2461E-14  0.1329E-04  0.6865E-07  0.9904E-03  0.3578E-04  0.5631E+03
   -1.700014   30.21475  0.2461E-14  0.1252E-04  0.8360E-07  0.8098E-03  0.3207E-04  0.3780E+04
   -1.750013   30.21658  0.2461E-14  0.1150E-04  0.1082E-06  0.7302E-03  0.2715E-04  0.2083E+06
   -1.800012   30.21807  0.2461E-14  0.1013E-04  0.1614E-06  0.5101E-03  0.2333E-04  0.5370E+06
   -1.850010   30.22434  0.2461E-14  0.8619E-05  0.2600E-06  0.4681E-03  0.1670E-04  0.8210E+08
   -1.900008   30.22303  0.2461E-14  0.6841E-05  0.5453E-06  0.2158E-03  0.1359E-04  0.1189E+07
   -1.950006   30.24200  0.2461E-14  0.4776E-05  0.1363E-05  0.1881E-03  0.7355E-05 -0.1168E+07
   -2.000003   30.24436  0.2461E-14  0.0000E+00  0.0000E+00  0.0000E+00  0.1347E-04  0.0000E+00
