 1 - depth, m
 2 - temperature, C
 3 - salinity, kg/kg
 4 - turbulent kinetic energy, m**2/s**2
 5 - dissipation rate, m**2/s**3
 6 - kinematic heat conductance, m**2/s
 7 - modulus of horizontal velocity, m/s
 8 - Richardson number, n/d
   -0.000000   31.47003  0.5139E-13  0.5537E-05  0.3779E-06  0.5440E-04  0.9441E-03  0.3169E+04
   -0.049997   31.50556  0.5139E-13  0.9540E-05  0.1677E-06  0.1886E-03  0.5437E-03  0.1525E+03
   -0.099994   31.51948  0.5139E-13  0.1159E-04  0.1149E-06  0.4296E-03  0.3977E-03  0.5921E+02
   -0.149992   31.52319  0.5139E-13  0.1286E-04  0.9642E-07  0.5065E-03  0.3528E-03  0.2927E+02
   -0.199990   31.52620  0.5139E-13  0.1386E-04  0.8556E-07  0.6828E-03  0.3157E-03  0.1877E+02
   -0.249989   31.52836  0.5139E-13  0.1464E-04  0.7847E-07  0.8140E-03  0.2882E-03  0.1394E+02
   -0.299988   31.53012  0.5139E-13  0.1528E-04  0.7341E-07  0.9475E-03  0.2653E-03  0.1108E+02
   -0.349987   31.53159  0.5139E-13  0.1580E-04  0.6962E-07  0.1067E-02  0.2456E-03  0.9496E+01
   -0.399987   31.53287  0.5139E-13  0.1624E-04  0.6668E-07  0.1177E-02  0.2283E-03  0.8437E+01
   -0.449987   31.53400  0.5139E-13  0.1662E-04  0.6428E-07  0.1278E-02  0.2130E-03  0.7930E+01
   -0.499987   31.53502  0.5139E-13  0.1694E-04  0.6229E-07  0.1370E-02  0.1994E-03  0.7679E+01
   -0.549988   31.53595  0.5139E-13  0.1722E-04  0.6063E-07  0.1455E-02  0.1872E-03  0.7588E+01
   -0.599989   31.53681  0.5139E-13  0.1746E-04  0.5924E-07  0.1531E-02  0.1762E-03  0.7555E+01
   -0.649990   31.53761  0.5139E-13  0.1765E-04  0.5805E-07  0.1598E-02  0.1661E-03  0.7666E+01
   -0.699991   31.53837  0.5139E-13  0.1782E-04  0.5706E-07  0.1657E-02  0.1568E-03  0.7801E+01
   -0.749992   31.53909  0.5139E-13  0.1796E-04  0.5622E-07  0.1708E-02  0.1482E-03  0.8084E+01
   -0.799994   31.53978  0.5139E-13  0.1806E-04  0.5554E-07  0.1751E-02  0.1402E-03  0.8384E+01
   -0.849995   31.54045  0.5139E-13  0.1814E-04  0.5499E-07  0.1784E-02  0.1327E-03  0.8855E+01
   -0.899997   31.54109  0.5139E-13  0.1819E-04  0.5457E-07  0.1809E-02  0.1257E-03  0.9350E+01
   -0.949998   31.54172  0.5139E-13  0.1822E-04  0.5428E-07  0.1824E-02  0.1190E-03  0.1007E+02
   -1.000000   31.54234  0.5139E-13  0.1822E-04  0.5413E-07  0.1831E-02  0.1127E-03  0.1084E+02
   -1.050002   31.54295  0.5139E-13  0.1819E-04  0.5412E-07  0.1826E-02  0.1066E-03  0.1234E+02
   -1.100003   31.54355  0.5139E-13  0.1813E-04  0.5426E-07  0.1945E-02  0.1009E-03  0.3945E+02
   -1.150005   31.54411  0.5139E-13  0.1805E-04  0.5459E-07  0.1690E-02  0.9582E-04  0.9960E+02
   -1.200006   31.54476  0.5139E-13  0.1794E-04  0.5510E-07  0.1741E-02  0.9032E-04  0.1836E+02
   -1.250008   31.54538  0.5139E-13  0.1779E-04  0.5587E-07  0.1707E-02  0.8515E-04  0.1953E+02
   -1.300009   31.54601  0.5139E-13  0.1761E-04  0.5695E-07  0.1645E-02  0.8017E-04  0.2326E+02
   -1.350010   31.54667  0.5139E-13  0.1738E-04  0.5843E-07  0.1579E-02  0.7530E-04  0.2826E+02
   -1.400011   31.54735  0.5139E-13  0.1711E-04  0.6048E-07  0.1485E-02  0.7054E-04  0.3611E+02
   -1.450012   31.54807  0.5139E-13  0.1678E-04  0.6333E-07  0.1405E-02  0.6581E-04  0.4750E+02
   -1.500012   31.54885  0.5139E-13  0.1637E-04  0.6741E-07  0.1278E-02  0.6116E-04  0.6918E+02
   -1.550013   31.54972  0.5139E-13  0.1588E-04  0.7335E-07  0.1203E-02  0.5639E-04  0.1158E+03
   -1.600013   31.55067  0.5139E-13  0.1525E-04  0.8320E-07  0.1045E-02  0.5174E-04 -0.1772E+04
   -1.650012   31.55205  0.5139E-13  0.1441E-04  0.9850E-07  0.9669E-03  0.4624E-04  0.1457E+05
   -1.700012   31.55348  0.5139E-13  0.1328E-04  0.1262E-06  0.7744E-03  0.4102E-04  0.1098E+06
   -1.750011   31.55643  0.5139E-13  0.1195E-04  0.1703E-06  0.7106E-03  0.3357E-04  0.2106E+07
   -1.800010   31.55788  0.5139E-13  0.1031E-04  0.2689E-06  0.4754E-03  0.2899E-04  0.1577E+06
   -1.850008   31.56913  0.5139E-13  0.8703E-05  0.4526E-06  0.4611E-03  0.1936E-04  0.3598E+08
   -1.900006   31.56375  0.5139E-13  0.6965E-05  0.9469E-06  0.2177E-03  0.1622E-04 -0.4444E+06
   -1.950003   31.59135  0.5139E-13  0.5045E-05  0.2203E-05  0.2348E-03  0.8431E-05 -0.1938E+06
   -2.000000   31.59025  0.5139E-13  0.0000E+00  0.0000E+00  0.0000E+00  0.1787E-04  0.0000E+00
