 1 - depth, m
 2 - temperature, C
 3 - salinity, kg/kg
 4 - turbulent kinetic energy, m**2/s**2
 5 - dissipation rate, m**2/s**3
 6 - kinematic heat conductance, m**2/s
 7 - modulus of horizontal velocity, m/s
 8 - Richardson number, n/d
   -0.000000   30.59922  0.5594E-14  0.5434E-05  0.3164E-06  0.5265E-04  0.3269E-02  0.6330E+03
   -0.049997   30.63007  0.5594E-14  0.8841E-05  0.1372E-06  0.2032E-03  0.1766E-02  0.5419E+02
   -0.099994   30.63962  0.5594E-14  0.1043E-04  0.9714E-07  0.3916E-03  0.1379E-02  0.4862E+01
   -0.149992   30.64299  0.5594E-14  0.1148E-04  0.8178E-07  0.4886E-03  0.1228E-02  0.2520E+01
   -0.199991   30.64558  0.5594E-14  0.1231E-04  0.7281E-07  0.6308E-03  0.1109E-02  0.1674E+01
   -0.249989   30.64753  0.5594E-14  0.1298E-04  0.6694E-07  0.7426E-03  0.1018E-02  0.1314E+01
   -0.299988   30.64914  0.5594E-14  0.1355E-04  0.6266E-07  0.8516E-03  0.9394E-03  0.1237E+01
   -0.349988   30.65052  0.5594E-14  0.1407E-04  0.5924E-07  0.9726E-03  0.8666E-03  0.1300E+01
   -0.399988   30.65169  0.5594E-14  0.1455E-04  0.5639E-07  0.1103E-02  0.7957E-03  0.1325E+01
   -0.449988   30.65270  0.5594E-14  0.1499E-04  0.5399E-07  0.1231E-02  0.7300E-03  0.1336E+01
   -0.499988   30.65359  0.5594E-14  0.1537E-04  0.5200E-07  0.1351E-02  0.6706E-03  0.1342E+01
   -0.549989   30.65438  0.5594E-14  0.1571E-04  0.5035E-07  0.1460E-02  0.6172E-03  0.1338E+01
   -0.599989   30.65511  0.5594E-14  0.1599E-04  0.4899E-07  0.1559E-02  0.5693E-03  0.1329E+01
   -0.649990   30.65577  0.5594E-14  0.1622E-04  0.4787E-07  0.1645E-02  0.5262E-03  0.1316E+01
   -0.699992   30.65640  0.5594E-14  0.1641E-04  0.4697E-07  0.1719E-02  0.4874E-03  0.1300E+01
   -0.749993   30.65698  0.5594E-14  0.1656E-04  0.4625E-07  0.1779E-02  0.4525E-03  0.1279E+01
   -0.799994   30.65755  0.5594E-14  0.1668E-04  0.4569E-07  0.1825E-02  0.4211E-03  0.1255E+01
   -0.849996   30.65809  0.5594E-14  0.1675E-04  0.4529E-07  0.1858E-02  0.3929E-03  0.1229E+01
   -0.899998   30.65861  0.5594E-14  0.1680E-04  0.4502E-07  0.1878E-02  0.3675E-03  0.1198E+01
   -0.949999   30.65912  0.5594E-14  0.1682E-04  0.4488E-07  0.1887E-02  0.3446E-03  0.1169E+01
   -1.000001   30.65963  0.5594E-14  0.1681E-04  0.4486E-07  0.1885E-02  0.3240E-03  0.1151E+01
   -1.050003   30.66013  0.5594E-14  0.1678E-04  0.4495E-07  0.1872E-02  0.3055E-03  0.1192E+01
   -1.100005   30.66063  0.5594E-14  0.1672E-04  0.4515E-07  0.2012E-02  0.2885E-03  0.3546E+01
   -1.150006   30.66110  0.5594E-14  0.1665E-04  0.4550E-07  0.1708E-02  0.2744E-03  0.9030E+01
   -1.200008   30.66164  0.5594E-14  0.1654E-04  0.4599E-07  0.1777E-02  0.2587E-03  0.1651E+01
   -1.250009   30.66216  0.5594E-14  0.1641E-04  0.4667E-07  0.1741E-02  0.2440E-03  0.1759E+01
   -1.300011   30.66268  0.5594E-14  0.1625E-04  0.4760E-07  0.1679E-02  0.2299E-03  0.2081E+01
   -1.350012   30.66323  0.5594E-14  0.1606E-04  0.4885E-07  0.1609E-02  0.2160E-03  0.2523E+01
   -1.400013   30.66379  0.5594E-14  0.1582E-04  0.5052E-07  0.1516E-02  0.2025E-03  0.3183E+01
   -1.450014   30.66439  0.5594E-14  0.1553E-04  0.5281E-07  0.1431E-02  0.1891E-03  0.4149E+01
   -1.500014   30.66503  0.5594E-14  0.1519E-04  0.5602E-07  0.1306E-02  0.1759E-03  0.5865E+01
   -1.550015   30.66575  0.5594E-14  0.1476E-04  0.6060E-07  0.1221E-02  0.1624E-03  0.8876E+01
   -1.600015   30.66652  0.5594E-14  0.1424E-04  0.6790E-07  0.1068E-02  0.1492E-03  0.6516E+03
   -1.650014   30.66756  0.5594E-14  0.1354E-04  0.7937E-07  0.9838E-03  0.1343E-03  0.1911E+03
   -1.700014   30.66873  0.5594E-14  0.1259E-04  0.9921E-07  0.7968E-03  0.1195E-03 -0.1069E+05
   -1.750013   30.67090  0.5594E-14  0.1141E-04  0.1315E-06  0.7170E-03  0.9959E-04  0.4901E+05
   -1.800012   30.67239  0.5594E-14  0.9900E-05  0.2044E-06  0.4866E-03  0.8547E-04  0.1420E+05
   -1.850010   30.68036  0.5594E-14  0.8359E-05  0.3366E-06  0.4631E-03  0.5883E-04  0.1177E+09
   -1.900008   30.67745  0.5594E-14  0.6638E-05  0.7062E-06  0.2122E-03  0.4866E-04 -0.2315E+05
   -1.950005   30.69946  0.5594E-14  0.4725E-05  0.1701E-05  0.2131E-03  0.2552E-04 -0.3201E+06
   -2.000002   30.69988  0.5594E-14  0.0000E+00  0.0000E+00  0.0000E+00  0.5100E-04  0.0000E+00
