 1 - depth, m
 2 - temperature, C
 3 - salinity, kg/kg
 4 - turbulent kinetic energy, m**2/s**2
 5 - dissipation rate, m**2/s**3
 6 - kinematic heat conductance, m**2/s
 7 - modulus of horizontal velocity, m/s
 8 - Richardson number, n/d
   -0.000000   30.99530  0.6628E-13  0.4835E-05  0.3020E-06  0.5093E-04  0.1673E-02  0.9497E+04
   -0.049997   31.02471  0.6628E-13  0.8245E-05  0.1346E-06  0.1753E-03  0.9604E-03  0.3859E+03
   -0.099994   31.03632  0.6628E-13  0.1002E-04  0.9222E-07  0.3991E-03  0.7009E-03  0.1670E+02
   -0.149992   31.03948  0.6628E-13  0.1113E-04  0.7732E-07  0.4785E-03  0.6191E-03  0.8153E+01
   -0.199991   31.04201  0.6628E-13  0.1199E-04  0.6862E-07  0.6412E-03  0.5527E-03  0.5224E+01
   -0.249989   31.04384  0.6628E-13  0.1268E-04  0.6294E-07  0.7666E-03  0.5031E-03  0.3853E+01
   -0.299988   31.04533  0.6628E-13  0.1324E-04  0.5891E-07  0.8922E-03  0.4619E-03  0.3067E+01
   -0.349988   31.04658  0.6628E-13  0.1371E-04  0.5590E-07  0.1006E-02  0.4265E-03  0.2623E+01
   -0.399988   31.04767  0.6628E-13  0.1410E-04  0.5356E-07  0.1110E-02  0.3953E-03  0.2339E+01
   -0.449988   31.04864  0.6628E-13  0.1444E-04  0.5167E-07  0.1206E-02  0.3679E-03  0.2194E+01
   -0.499988   31.04950  0.6628E-13  0.1474E-04  0.5011E-07  0.1295E-02  0.3436E-03  0.2136E+01
   -0.549988   31.05030  0.6628E-13  0.1499E-04  0.4882E-07  0.1376E-02  0.3219E-03  0.2107E+01
   -0.599989   31.05104  0.6628E-13  0.1522E-04  0.4774E-07  0.1449E-02  0.3022E-03  0.2111E+01
   -0.649990   31.05172  0.6628E-13  0.1541E-04  0.4683E-07  0.1515E-02  0.2843E-03  0.2139E+01
   -0.699991   31.05237  0.6628E-13  0.1557E-04  0.4608E-07  0.1573E-02  0.2678E-03  0.2192E+01
   -0.749993   31.05299  0.6628E-13  0.1571E-04  0.4545E-07  0.1624E-02  0.2526E-03  0.2267E+01
   -0.799994   31.05358  0.6628E-13  0.1583E-04  0.4495E-07  0.1667E-02  0.2384E-03  0.2370E+01
   -0.849996   31.05415  0.6628E-13  0.1592E-04  0.4456E-07  0.1701E-02  0.2252E-03  0.2496E+01
   -0.899997   31.05471  0.6628E-13  0.1599E-04  0.4427E-07  0.1728E-02  0.2128E-03  0.2657E+01
   -0.949999   31.05525  0.6628E-13  0.1604E-04  0.4408E-07  0.1746E-02  0.2011E-03  0.2851E+01
   -1.000001   31.05578  0.6628E-13  0.1607E-04  0.4401E-07  0.1756E-02  0.1900E-03  0.3093E+01
   -1.050003   31.05631  0.6628E-13  0.1607E-04  0.4404E-07  0.1756E-02  0.1795E-03  0.3517E+01
   -1.100004   31.05683  0.6628E-13  0.1606E-04  0.4419E-07  0.1845E-02  0.1695E-03  0.1164E+02
   -1.150006   31.05733  0.6628E-13  0.1602E-04  0.4448E-07  0.1669E-02  0.1606E-03  0.2710E+02
   -1.200007   31.05788  0.6628E-13  0.1595E-04  0.4491E-07  0.1695E-02  0.1512E-03  0.5169E+01
   -1.250009   31.05841  0.6628E-13  0.1586E-04  0.4552E-07  0.1664E-02  0.1423E-03  0.5551E+01
   -1.300010   31.05896  0.6628E-13  0.1574E-04  0.4636E-07  0.1613E-02  0.1338E-03  0.6538E+01
   -1.350011   31.05952  0.6628E-13  0.1559E-04  0.4748E-07  0.1552E-02  0.1255E-03  0.7914E+01
   -1.400012   31.06011  0.6628E-13  0.1540E-04  0.4898E-07  0.1474E-02  0.1174E-03  0.9883E+01
   -1.450013   31.06073  0.6628E-13  0.1517E-04  0.5102E-07  0.1395E-02  0.1094E-03  0.1280E+02
   -1.500014   31.06139  0.6628E-13  0.1488E-04  0.5383E-07  0.1284E-02  0.1015E-03  0.1772E+02
   -1.550014   31.06212  0.6628E-13  0.1452E-04  0.5783E-07  0.1199E-02  0.9365E-04  0.2616E+02
   -1.600014   31.06292  0.6628E-13  0.1407E-04  0.6396E-07  0.1059E-02  0.8588E-04  0.5375E+02
   -1.650014   31.06390  0.6628E-13  0.1348E-04  0.7359E-07  0.9741E-03  0.7754E-04  0.4150E+03
   -1.700013   31.06507  0.6628E-13  0.1266E-04  0.9053E-07  0.7979E-03  0.6910E-04 -0.1086E+03
   -1.750012   31.06709  0.6628E-13  0.1160E-04  0.1178E-06  0.7161E-03  0.5817E-04  0.9295E+05
   -1.800011   31.06870  0.6628E-13  0.1021E-04  0.1770E-06  0.4960E-03  0.4991E-04  0.1631E+06
   -1.850009   31.07596  0.6628E-13  0.8716E-05  0.2889E-06  0.4641E-03  0.3533E-04  0.1756E+08
   -1.900007   31.07396  0.6628E-13  0.6976E-05  0.6115E-06  0.2130E-03  0.2895E-04  0.5640E+06
   -1.950005   31.09516  0.6628E-13  0.4912E-05  0.1500E-05  0.1946E-03  0.1565E-04 -0.2281E+06
   -2.000002   31.09758  0.6628E-13  0.0000E+00  0.0000E+00  0.0000E+00  0.2909E-04  0.0000E+00
