 1 - depth, m
 2 - temperature, C
 3 - salinity, kg/kg
 4 - turbulent kinetic energy, m**2/s**2
 5 - dissipation rate, m**2/s**3
 6 - kinematic heat conductance, m**2/s
 7 - modulus of horizontal velocity, m/s
 8 - Richardson number, n/d
   -0.000000   31.52770  0.1099E-14  0.5321E-05  0.3498E-06  0.5212E-04  0.5176E-03  0.1994E+06
   -0.049997   31.56260  0.1099E-14  0.9347E-05  0.1553E-06  0.1938E-03  0.2937E-03  0.2804E+04
   -0.099994   31.57479  0.1099E-14  0.1130E-04  0.1075E-06  0.4335E-03  0.2155E-03  0.1984E+03
   -0.149992   31.57825  0.1099E-14  0.1253E-04  0.9069E-07  0.5103E-03  0.1913E-03  0.9945E+02
   -0.199990   31.58106  0.1099E-14  0.1349E-04  0.8076E-07  0.6850E-03  0.1713E-03  0.6491E+02
   -0.249989   31.58309  0.1099E-14  0.1425E-04  0.7423E-07  0.8161E-03  0.1564E-03  0.4858E+02
   -0.299988   31.58474  0.1099E-14  0.1487E-04  0.6958E-07  0.9479E-03  0.1440E-03  0.3883E+02
   -0.349988   31.58614  0.1099E-14  0.1538E-04  0.6609E-07  0.1067E-02  0.1334E-03  0.3341E+02
   -0.399987   31.58735  0.1099E-14  0.1582E-04  0.6338E-07  0.1175E-02  0.1239E-03  0.2976E+02
   -0.449987   31.58842  0.1099E-14  0.1619E-04  0.6117E-07  0.1275E-02  0.1156E-03  0.2805E+02
   -0.499988   31.58939  0.1099E-14  0.1651E-04  0.5935E-07  0.1367E-02  0.1082E-03  0.2720E+02
   -0.549988   31.59028  0.1099E-14  0.1678E-04  0.5784E-07  0.1450E-02  0.1016E-03  0.2695E+02
   -0.599989   31.59110  0.1099E-14  0.1702E-04  0.5656E-07  0.1526E-02  0.9560E-04  0.2687E+02
   -0.649990   31.59187  0.1099E-14  0.1722E-04  0.5550E-07  0.1593E-02  0.9011E-04  0.2733E+02
   -0.699991   31.59260  0.1099E-14  0.1740E-04  0.5460E-07  0.1652E-02  0.8506E-04  0.2785E+02
   -0.749992   31.59329  0.1099E-14  0.1754E-04  0.5386E-07  0.1702E-02  0.8038E-04  0.2892E+02
   -0.799994   31.59396  0.1099E-14  0.1765E-04  0.5327E-07  0.1744E-02  0.7602E-04  0.3005E+02
   -0.849995   31.59460  0.1099E-14  0.1774E-04  0.5280E-07  0.1778E-02  0.7193E-04  0.3180E+02
   -0.899997   31.59522  0.1099E-14  0.1780E-04  0.5245E-07  0.1803E-02  0.6810E-04  0.3365E+02
   -0.949998   31.59583  0.1099E-14  0.1783E-04  0.5223E-07  0.1818E-02  0.6446E-04  0.3630E+02
   -1.000000   31.59642  0.1099E-14  0.1785E-04  0.5214E-07  0.1825E-02  0.6103E-04  0.3918E+02
   -1.050002   31.59701  0.1099E-14  0.1783E-04  0.5219E-07  0.1820E-02  0.5775E-04  0.4471E+02
   -1.100003   31.59760  0.1099E-14  0.1779E-04  0.5238E-07  0.1935E-02  0.5462E-04  0.1435E+03
   -1.150005   31.59815  0.1099E-14  0.1772E-04  0.5275E-07  0.1691E-02  0.5186E-04  0.3597E+03
   -1.200006   31.59878  0.1099E-14  0.1763E-04  0.5330E-07  0.1738E-02  0.4888E-04  0.6678E+02
   -1.250008   31.59939  0.1099E-14  0.1750E-04  0.5409E-07  0.1704E-02  0.4608E-04  0.7125E+02
   -1.300009   31.60001  0.1099E-14  0.1733E-04  0.5517E-07  0.1644E-02  0.4337E-04  0.8500E+02
   -1.350010   31.60065  0.1099E-14  0.1713E-04  0.5663E-07  0.1578E-02  0.4073E-04  0.1033E+03
   -1.400011   31.60132  0.1099E-14  0.1688E-04  0.5863E-07  0.1485E-02  0.3815E-04  0.1319E+03
   -1.450012   31.60203  0.1099E-14  0.1657E-04  0.6138E-07  0.1405E-02  0.3559E-04  0.1732E+03
   -1.500013   31.60279  0.1099E-14  0.1619E-04  0.6526E-07  0.1278E-02  0.3307E-04  0.2508E+03
   -1.550013   31.60365  0.1099E-14  0.1573E-04  0.7084E-07  0.1202E-02  0.3050E-04  0.3909E+03
   -1.600013   31.60458  0.1099E-14  0.1514E-04  0.7994E-07  0.1045E-02  0.2799E-04  0.4348E+04
   -1.650013   31.60588  0.1099E-14  0.1436E-04  0.9411E-07  0.9668E-03  0.2510E-04  0.1831E+05
   -1.700012   31.60729  0.1099E-14  0.1328E-04  0.1199E-06  0.7761E-03  0.2228E-04  0.8866E+05
   -1.750011   31.61013  0.1099E-14  0.1199E-04  0.1604E-06  0.7082E-03  0.1835E-04  0.1759E+07
   -1.800010   31.61164  0.1099E-14  0.1040E-04  0.2490E-06  0.4767E-03  0.1583E-04  0.3047E+07
   -1.850008   31.62238  0.1099E-14  0.8784E-05  0.4193E-06  0.4616E-03  0.1070E-04  0.1219E+10
   -1.900006   31.61763  0.1099E-14  0.7032E-05  0.8855E-06  0.2168E-03  0.8908E-05 -0.3258E+06
   -1.950003   31.64438  0.1099E-14  0.5055E-05  0.2088E-05  0.2251E-03  0.4661E-05 -0.8019E+07
   -2.000000   31.64456  0.1099E-14  0.0000E+00  0.0000E+00  0.0000E+00  0.9559E-05  0.0000E+00
