 1 - depth, m
 2 - temperature, C
 3 - salinity, kg/kg
 4 - turbulent kinetic energy, m**2/s**2
 5 - dissipation rate, m**2/s**3
 6 - kinematic heat conductance, m**2/s
 7 - modulus of horizontal velocity, m/s
 8 - Richardson number, n/d
   -0.000000   29.78171  0.2299E-13  0.4529E-05  0.2706E-06  0.4901E-04  0.1675E-02  0.5203E+04
   -0.049997   29.81003  0.2299E-13  0.7741E-05  0.1206E-06  0.1712E-03  0.9562E-03  0.6963E+03
   -0.099994   29.82100  0.2299E-13  0.9389E-05  0.8288E-07  0.3883E-03  0.6970E-03  0.1653E+02
   -0.149992   29.82404  0.2299E-13  0.1042E-04  0.6961E-07  0.4673E-03  0.6150E-03  0.8022E+01
   -0.199991   29.82646  0.2299E-13  0.1122E-04  0.6182E-07  0.6231E-03  0.5485E-03  0.5163E+01
   -0.249989   29.82823  0.2299E-13  0.1185E-04  0.5672E-07  0.7452E-03  0.4987E-03  0.3807E+01
   -0.299989   29.82967  0.2299E-13  0.1238E-04  0.5307E-07  0.8662E-03  0.4573E-03  0.3030E+01
   -0.349988   29.83087  0.2299E-13  0.1281E-04  0.5034E-07  0.9760E-03  0.4218E-03  0.2591E+01
   -0.399988   29.83192  0.2299E-13  0.1317E-04  0.4822E-07  0.1077E-02  0.3904E-03  0.2310E+01
   -0.449988   29.83285  0.2299E-13  0.1348E-04  0.4649E-07  0.1170E-02  0.3628E-03  0.2170E+01
   -0.499988   29.83369  0.2299E-13  0.1376E-04  0.4506E-07  0.1256E-02  0.3385E-03  0.2113E+01
   -0.549989   29.83445  0.2299E-13  0.1399E-04  0.4386E-07  0.1335E-02  0.3166E-03  0.2086E+01
   -0.599990   29.83516  0.2299E-13  0.1419E-04  0.4286E-07  0.1406E-02  0.2969E-03  0.2089E+01
   -0.649991   29.83582  0.2299E-13  0.1437E-04  0.4200E-07  0.1470E-02  0.2789E-03  0.2116E+01
   -0.699992   29.83644  0.2299E-13  0.1452E-04  0.4128E-07  0.1527E-02  0.2625E-03  0.2166E+01
   -0.749993   29.83704  0.2299E-13  0.1464E-04  0.4068E-07  0.1577E-02  0.2472E-03  0.2238E+01
   -0.799995   29.83760  0.2299E-13  0.1474E-04  0.4018E-07  0.1619E-02  0.2331E-03  0.2334E+01
   -0.849996   29.83815  0.2299E-13  0.1482E-04  0.3978E-07  0.1654E-02  0.2199E-03  0.2454E+01
   -0.899998   29.83867  0.2299E-13  0.1488E-04  0.3946E-07  0.1681E-02  0.2075E-03  0.2605E+01
   -0.950000   29.83919  0.2299E-13  0.1492E-04  0.3924E-07  0.1700E-02  0.1959E-03  0.2787E+01
   -1.000002   29.83969  0.2299E-13  0.1494E-04  0.3911E-07  0.1712E-02  0.1849E-03  0.3011E+01
   -1.050003   29.84019  0.2299E-13  0.1494E-04  0.3906E-07  0.1714E-02  0.1744E-03  0.3411E+01
   -1.100005   29.84068  0.2299E-13  0.1492E-04  0.3912E-07  0.1793E-02  0.1645E-03  0.1140E+02
   -1.150007   29.84114  0.2299E-13  0.1488E-04  0.3929E-07  0.1643E-02  0.1556E-03  0.2532E+02
   -1.200008   29.84165  0.2299E-13  0.1482E-04  0.3958E-07  0.1662E-02  0.1465E-03  0.4903E+01
   -1.250010   29.84215  0.2299E-13  0.1473E-04  0.4002E-07  0.1633E-02  0.1377E-03  0.5229E+01
   -1.300011   29.84265  0.2299E-13  0.1462E-04  0.4064E-07  0.1587E-02  0.1293E-03  0.6096E+01
   -1.350012   29.84316  0.2299E-13  0.1448E-04  0.4148E-07  0.1531E-02  0.1211E-03  0.7280E+01
   -1.400013   29.84370  0.2299E-13  0.1431E-04  0.4261E-07  0.1459E-02  0.1132E-03  0.8930E+01
   -1.450014   29.84425  0.2299E-13  0.1410E-04  0.4415E-07  0.1383E-02  0.1054E-03  0.1132E+02
   -1.500015   29.84484  0.2299E-13  0.1384E-04  0.4628E-07  0.1278E-02  0.9782E-04  0.1515E+02
   -1.550015   29.84548  0.2299E-13  0.1353E-04  0.4926E-07  0.1192E-02  0.9021E-04  0.2129E+02
   -1.600015   29.84617  0.2299E-13  0.1314E-04  0.5374E-07  0.1054E-02  0.8274E-04  0.3658E+02
   -1.650015   29.84699  0.2299E-13  0.1264E-04  0.6062E-07  0.9731E-03  0.7488E-04  0.3701E+04
   -1.700015   29.84791  0.2299E-13  0.1197E-04  0.7300E-07  0.7997E-03  0.6721E-04  0.5527E+04
   -1.750014   29.84948  0.2299E-13  0.1104E-04  0.9370E-07  0.7174E-03  0.5730E-04  0.1046E+06
   -1.800012   29.85096  0.2299E-13  0.9757E-05  0.1368E-06  0.5077E-03  0.4897E-04  0.4801E+05
   -1.850011   29.85600  0.2299E-13  0.8267E-05  0.2168E-06  0.4543E-03  0.3546E-04  0.3434E+07
   -1.900009   29.85570  0.2299E-13  0.6477E-05  0.4569E-06  0.2033E-03  0.2843E-04 -0.1058E+06
   -1.950006   29.87286  0.2299E-13  0.4498E-05  0.1159E-05  0.1779E-03  0.1517E-04 -0.4487E+06
   -2.000003   29.87525  0.2299E-13  0.0000E+00  0.0000E+00  0.0000E+00  0.2764E-04  0.0000E+00
