 1 - depth, m
 2 - temperature, C
 3 - salinity, kg/kg
 4 - turbulent kinetic energy, m**2/s**2
 5 - dissipation rate, m**2/s**3
 6 - kinematic heat conductance, m**2/s
 7 - modulus of horizontal velocity, m/s
 8 - Richardson number, n/d
   -0.000000   30.29683  0.5724E-14  0.4880E-05  0.3090E-06  0.5136E-04  0.1250E-02  0.9996E+04
   -0.049997   30.32749  0.5725E-14  0.8410E-05  0.1375E-06  0.1773E-03  0.7162E-03  0.5569E+03
   -0.099994   30.33974  0.5725E-14  0.1023E-04  0.9440E-07  0.4072E-03  0.5222E-03  0.3680E+02
   -0.149992   30.34301  0.5725E-14  0.1136E-04  0.7930E-07  0.4849E-03  0.4615E-03  0.1804E+02
   -0.199991   30.34564  0.5725E-14  0.1225E-04  0.7045E-07  0.6506E-03  0.4121E-03  0.1161E+02
   -0.249989   30.34755  0.5725E-14  0.1295E-04  0.6466E-07  0.7773E-03  0.3753E-03  0.8632E+01
   -0.299988   30.34910  0.5725E-14  0.1352E-04  0.6055E-07  0.9044E-03  0.3446E-03  0.6864E+01
   -0.349988   30.35041  0.5725E-14  0.1400E-04  0.5747E-07  0.1019E-02  0.3184E-03  0.5906E+01
   -0.399988   30.35154  0.5725E-14  0.1440E-04  0.5508E-07  0.1124E-02  0.2952E-03  0.5246E+01
   -0.449988   30.35254  0.5725E-14  0.1475E-04  0.5314E-07  0.1222E-02  0.2748E-03  0.4955E+01
   -0.499988   30.35345  0.5725E-14  0.1505E-04  0.5154E-07  0.1311E-02  0.2567E-03  0.4794E+01
   -0.549989   30.35427  0.5725E-14  0.1531E-04  0.5020E-07  0.1393E-02  0.2405E-03  0.4762E+01
   -0.599989   30.35504  0.5725E-14  0.1553E-04  0.4908E-07  0.1467E-02  0.2259E-03  0.4734E+01
   -0.649990   30.35576  0.5725E-14  0.1572E-04  0.4814E-07  0.1534E-02  0.2125E-03  0.4828E+01
   -0.699992   30.35643  0.5725E-14  0.1589E-04  0.4735E-07  0.1592E-02  0.2003E-03  0.4904E+01
   -0.749993   30.35708  0.5725E-14  0.1603E-04  0.4669E-07  0.1643E-02  0.1889E-03  0.5105E+01
   -0.799994   30.35769  0.5725E-14  0.1614E-04  0.4615E-07  0.1687E-02  0.1784E-03  0.5279E+01
   -0.849996   30.35829  0.5725E-14  0.1623E-04  0.4572E-07  0.1722E-02  0.1685E-03  0.5598E+01
   -0.899998   30.35886  0.5725E-14  0.1629E-04  0.4540E-07  0.1749E-02  0.1593E-03  0.5888E+01
   -0.949999   30.35942  0.5725E-14  0.1634E-04  0.4518E-07  0.1767E-02  0.1505E-03  0.6359E+01
   -1.000001   30.35998  0.5725E-14  0.1636E-04  0.4506E-07  0.1778E-02  0.1423E-03  0.6806E+01
   -1.050003   30.36052  0.5725E-14  0.1636E-04  0.4506E-07  0.1778E-02  0.1344E-03  0.7779E+01
   -1.100004   30.36106  0.5725E-14  0.1633E-04  0.4517E-07  0.1869E-02  0.1270E-03  0.2555E+02
   -1.150006   30.36157  0.5725E-14  0.1629E-04  0.4543E-07  0.1687E-02  0.1203E-03  0.5801E+02
   -1.200008   30.36213  0.5725E-14  0.1622E-04  0.4582E-07  0.1716E-02  0.1134E-03  0.1123E+02
   -1.250009   30.36268  0.5725E-14  0.1612E-04  0.4639E-07  0.1685E-02  0.1067E-03  0.1189E+02
   -1.300010   30.36324  0.5725E-14  0.1599E-04  0.4719E-07  0.1633E-02  0.1003E-03  0.1403E+02
   -1.350012   30.36381  0.5725E-14  0.1583E-04  0.4827E-07  0.1572E-02  0.9413E-04  0.1668E+02
   -1.400013   30.36441  0.5725E-14  0.1563E-04  0.4973E-07  0.1494E-02  0.8807E-04  0.2078E+02
   -1.450013   30.36503  0.5725E-14  0.1538E-04  0.5171E-07  0.1413E-02  0.8212E-04  0.2636E+02
   -1.500014   30.36570  0.5725E-14  0.1508E-04  0.5446E-07  0.1302E-02  0.7626E-04  0.3611E+02
   -1.550014   30.36643  0.5725E-14  0.1471E-04  0.5837E-07  0.1214E-02  0.7038E-04  0.5172E+02
   -1.600014   30.36722  0.5725E-14  0.1425E-04  0.6440E-07  0.1073E-02  0.6459E-04  0.1037E+03
   -1.650014   30.36819  0.5725E-14  0.1366E-04  0.7382E-07  0.9871E-03  0.5835E-04  0.3316E+03
   -1.700014   30.36933  0.5725E-14  0.1283E-04  0.9045E-07  0.8092E-03  0.5210E-04  0.2661E+03
   -1.750013   30.37130  0.5725E-14  0.1176E-04  0.1177E-06  0.7274E-03  0.4399E-04  0.4518E+05
   -1.800011   30.37298  0.5725E-14  0.1033E-04  0.1758E-06  0.5030E-03  0.3764E-04  0.1452E+06
   -1.850010   30.37981  0.5725E-14  0.8797E-05  0.2838E-06  0.4702E-03  0.2671E-04  0.3325E+09
   -1.900008   30.37811  0.5725E-14  0.7008E-05  0.5922E-06  0.2112E-03  0.2186E-04 -0.1462E+06
   -1.950005   30.39901  0.5725E-14  0.4927E-05  0.1462E-05  0.1954E-03  0.1175E-04  0.5762E+05
   -2.000002   30.40006  0.5725E-14  0.0000E+00  0.0000E+00  0.0000E+00  0.2198E-04  0.0000E+00
