 1 - depth, m
 2 - temperature, C
 3 - salinity, kg/kg
 4 - turbulent kinetic energy, m**2/s**2
 5 - dissipation rate, m**2/s**3
 6 - kinematic heat conductance, m**2/s
 7 - modulus of horizontal velocity, m/s
 8 - Richardson number, n/d
   -0.000000   30.60433  0.2482E-14  0.4732E-05  0.2922E-06  0.4888E-04  0.8690E-03  0.6982E+04
   -0.049997   30.63502  0.2482E-14  0.8264E-05  0.1297E-06  0.1833E-03  0.4867E-03  0.6690E+02
   -0.099994   30.64617  0.2482E-14  0.1002E-04  0.8991E-07  0.4059E-03  0.3579E-03  0.6042E+02
   -0.149992   30.64928  0.2482E-14  0.1112E-04  0.7574E-07  0.4881E-03  0.3165E-03  0.2975E+02
   -0.199991   30.65177  0.2482E-14  0.1197E-04  0.6742E-07  0.6507E-03  0.2829E-03  0.1922E+02
   -0.249989   30.65358  0.2482E-14  0.1266E-04  0.6197E-07  0.7763E-03  0.2577E-03  0.1426E+02
   -0.299988   30.65506  0.2482E-14  0.1322E-04  0.5808E-07  0.9021E-03  0.2368E-03  0.1139E+02
   -0.349988   30.65630  0.2482E-14  0.1368E-04  0.5517E-07  0.1016E-02  0.2188E-03  0.9765E+01
   -0.399988   30.65738  0.2482E-14  0.1408E-04  0.5291E-07  0.1120E-02  0.2029E-03  0.8715E+01
   -0.449988   30.65834  0.2482E-14  0.1442E-04  0.5107E-07  0.1216E-02  0.1888E-03  0.8191E+01
   -0.499988   30.65921  0.2482E-14  0.1471E-04  0.4956E-07  0.1305E-02  0.1764E-03  0.7971E+01
   -0.549989   30.66000  0.2482E-14  0.1497E-04  0.4831E-07  0.1386E-02  0.1653E-03  0.7872E+01
   -0.599989   30.66074  0.2482E-14  0.1519E-04  0.4725E-07  0.1459E-02  0.1553E-03  0.7879E+01
   -0.649990   30.66143  0.2482E-14  0.1538E-04  0.4637E-07  0.1525E-02  0.1461E-03  0.7986E+01
   -0.699992   30.66208  0.2482E-14  0.1555E-04  0.4563E-07  0.1584E-02  0.1376E-03  0.8172E+01
   -0.749993   30.66269  0.2482E-14  0.1569E-04  0.4501E-07  0.1634E-02  0.1298E-03  0.8451E+01
   -0.799994   30.66329  0.2482E-14  0.1580E-04  0.4451E-07  0.1677E-02  0.1226E-03  0.8813E+01
   -0.849996   30.66386  0.2482E-14  0.1589E-04  0.4412E-07  0.1712E-02  0.1158E-03  0.9280E+01
   -0.899998   30.66441  0.2482E-14  0.1596E-04  0.4383E-07  0.1739E-02  0.1094E-03  0.9850E+01
   -0.949999   30.66495  0.2482E-14  0.1601E-04  0.4364E-07  0.1758E-02  0.1034E-03  0.1056E+02
   -1.000001   30.66548  0.2482E-14  0.1604E-04  0.4355E-07  0.1769E-02  0.9775E-04  0.1142E+02
   -1.050003   30.66601  0.2482E-14  0.1604E-04  0.4357E-07  0.1769E-02  0.9236E-04  0.1296E+02
   -1.100005   30.66653  0.2482E-14  0.1603E-04  0.4369E-07  0.1857E-02  0.8721E-04  0.4298E+02
   -1.150006   30.66702  0.2482E-14  0.1599E-04  0.4396E-07  0.1684E-02  0.8263E-04  0.9772E+02
   -1.200008   30.66757  0.2482E-14  0.1593E-04  0.4436E-07  0.1710E-02  0.7785E-04  0.1881E+02
   -1.250009   30.66810  0.2482E-14  0.1584E-04  0.4493E-07  0.1680E-02  0.7329E-04  0.2011E+02
   -1.300011   30.66864  0.2482E-14  0.1572E-04  0.4571E-07  0.1630E-02  0.6890E-04  0.2359E+02
   -1.350012   30.66920  0.2482E-14  0.1557E-04  0.4677E-07  0.1571E-02  0.6463E-04  0.2831E+02
   -1.400013   30.66978  0.2482E-14  0.1539E-04  0.4818E-07  0.1493E-02  0.6048E-04  0.3510E+02
   -1.450014   30.67038  0.2482E-14  0.1516E-04  0.5008E-07  0.1415E-02  0.5639E-04  0.4487E+02
   -1.500014   30.67103  0.2482E-14  0.1488E-04  0.5270E-07  0.1303E-02  0.5238E-04  0.6137E+02
   -1.550015   30.67174  0.2482E-14  0.1453E-04  0.5638E-07  0.1220E-02  0.4835E-04  0.8793E+02
   -1.600015   30.67251  0.2482E-14  0.1410E-04  0.6204E-07  0.1072E-02  0.4440E-04  0.1897E+03
   -1.650014   30.67346  0.2482E-14  0.1354E-04  0.7073E-07  0.9944E-03  0.4013E-04  0.8144E+03
   -1.700014   30.67451  0.2482E-14  0.1277E-04  0.8610E-07  0.8077E-03  0.3600E-04 -0.5505E+04
   -1.750013   30.67640  0.2482E-14  0.1175E-04  0.1114E-06  0.7350E-03  0.3050E-04  0.9075E+05
   -1.800012   30.67791  0.2482E-14  0.1039E-04  0.1659E-06  0.5077E-03  0.2626E-04  0.1571E+07
   -1.850010   30.68440  0.2482E-14  0.8853E-05  0.2673E-06  0.4719E-03  0.1882E-04  0.9912E+08
   -1.900008   30.68313  0.2482E-14  0.7032E-05  0.5584E-06  0.2144E-03  0.1535E-04  0.6341E+06
   -1.950005   30.70312  0.2482E-14  0.4918E-05  0.1389E-05  0.1899E-03  0.8294E-05 -0.1832E+07
   -2.000002   30.70518  0.2482E-14  0.0000E+00  0.0000E+00  0.0000E+00  0.1507E-04  0.0000E+00
