 1 - depth, m
 2 - temperature, C
 3 - salinity, kg/kg
 4 - turbulent kinetic energy, m**2/s**2
 5 - dissipation rate, m**2/s**3
 6 - kinematic heat conductance, m**2/s
 7 - modulus of horizontal velocity, m/s
 8 - Richardson number, n/d
   -0.000000   30.67122  0.2055E-14  0.6023E-05  0.3220E-06  0.5782E-04  0.4753E-02  0.9101E+02
   -0.049997   30.70012  0.2055E-14  0.9252E-05  0.1363E-06  0.2175E-03  0.2552E-02  0.4897E+02
   -0.099994   30.70811  0.2055E-14  0.1064E-04  0.9930E-07  0.3863E-03  0.2094E-02  0.2706E+01
   -0.149992   30.71152  0.2055E-14  0.1162E-04  0.8442E-07  0.4772E-03  0.1889E-02  0.1540E+01
   -0.199991   30.71416  0.2055E-14  0.1244E-04  0.7553E-07  0.5948E-03  0.1726E-02  0.1302E+01
   -0.249989   30.71621  0.2055E-14  0.1319E-04  0.6923E-07  0.7168E-03  0.1587E-02  0.1387E+01
   -0.299988   30.71787  0.2055E-14  0.1390E-04  0.6426E-07  0.8631E-03  0.1452E-02  0.1499E+01
   -0.349988   30.71922  0.2055E-14  0.1458E-04  0.6020E-07  0.1025E-02  0.1320E-02  0.1607E+01
   -0.399988   30.72032  0.2055E-14  0.1521E-04  0.5687E-07  0.1191E-02  0.1191E-02  0.1623E+01
   -0.449988   30.72126  0.2055E-14  0.1577E-04  0.5413E-07  0.1344E-02  0.1072E-02  0.1609E+01
   -0.499988   30.72207  0.2055E-14  0.1625E-04  0.5190E-07  0.1483E-02  0.9671E-03  0.1589E+01
   -0.549989   30.72279  0.2055E-14  0.1665E-04  0.5010E-07  0.1610E-02  0.8740E-03  0.1561E+01
   -0.599989   30.72344  0.2055E-14  0.1698E-04  0.4865E-07  0.1729E-02  0.7917E-03  0.1531E+01
   -0.649990   30.72404  0.2055E-14  0.1725E-04  0.4750E-07  0.1837E-02  0.7190E-03  0.1500E+01
   -0.699992   30.72459  0.2055E-14  0.1744E-04  0.4660E-07  0.1932E-02  0.6546E-03  0.1466E+01
   -0.749993   30.72511  0.2055E-14  0.1759E-04  0.4593E-07  0.2008E-02  0.5976E-03  0.1431E+01
   -0.799994   30.72560  0.2055E-14  0.1768E-04  0.4546E-07  0.2058E-02  0.5472E-03  0.1392E+01
   -0.849996   30.72608  0.2055E-14  0.1772E-04  0.4516E-07  0.2083E-02  0.5024E-03  0.1353E+01
   -0.899998   30.72655  0.2055E-14  0.1772E-04  0.4503E-07  0.2089E-02  0.4627E-03  0.1309E+01
   -0.949999   30.72701  0.2055E-14  0.1769E-04  0.4504E-07  0.2078E-02  0.4275E-03  0.1265E+01
   -1.000001   30.72746  0.2055E-14  0.1763E-04  0.4519E-07  0.2053E-02  0.3962E-03  0.1217E+01
   -1.050003   30.72792  0.2055E-14  0.1755E-04  0.4548E-07  0.1995E-02  0.3685E-03  0.1164E+01
   -1.100005   30.72839  0.2055E-14  0.1745E-04  0.4583E-07  0.2205E-02  0.3440E-03  0.2267E+01
   -1.150006   30.72881  0.2055E-14  0.1734E-04  0.4632E-07  0.1761E-02  0.3284E-03  0.6195E+01
   -1.200008   30.72934  0.2055E-14  0.1721E-04  0.4696E-07  0.1881E-02  0.3101E-03  0.1179E+01
   -1.250009   30.72983  0.2055E-14  0.1704E-04  0.4784E-07  0.1827E-02  0.2923E-03  0.1206E+01
   -1.300011   30.73032  0.2055E-14  0.1684E-04  0.4898E-07  0.1753E-02  0.2755E-03  0.1381E+01
   -1.350012   30.73084  0.2055E-14  0.1660E-04  0.5047E-07  0.1674E-02  0.2595E-03  0.1671E+01
   -1.400013   30.73139  0.2055E-14  0.1632E-04  0.5246E-07  0.1570E-02  0.2437E-03  0.2128E+01
   -1.450014   30.73197  0.2055E-14  0.1599E-04  0.5518E-07  0.1473E-02  0.2281E-03  0.2827E+01
   -1.500014   30.73259  0.2055E-14  0.1559E-04  0.5899E-07  0.1340E-02  0.2125E-03  0.4089E+01
   -1.550014   30.73329  0.2055E-14  0.1511E-04  0.6454E-07  0.1247E-02  0.1966E-03  0.6012E+01
   -1.600015   30.73409  0.2055E-14  0.1450E-04  0.7343E-07  0.1091E-02  0.1805E-03  0.3291E+02
   -1.650014   30.73515  0.2055E-14  0.1370E-04  0.8732E-07  0.9961E-03  0.1623E-03  0.3543E+04
   -1.700014   30.73641  0.2055E-14  0.1261E-04  0.1125E-06  0.8023E-03  0.1436E-03  0.2692E+05
   -1.750013   30.73870  0.2055E-14  0.1135E-04  0.1510E-06  0.7171E-03  0.1188E-03  0.1637E+06
   -1.800012   30.74013  0.2055E-14  0.9746E-05  0.2365E-06  0.4921E-03  0.1019E-03  0.3204E+06
   -1.850010   30.74888  0.2055E-14  0.8195E-05  0.3931E-06  0.4651E-03  0.6903E-04  0.3478E+08
   -1.900008   30.74507  0.2055E-14  0.6427E-05  0.8310E-06  0.2105E-03  0.5736E-04 -0.1309E+06
   -1.950005   30.76827  0.2055E-14  0.4655E-05  0.1941E-05  0.2330E-03  0.2929E-04 -0.6239E+05
   -2.000002   30.76700  0.2055E-14  0.0000E+00  0.0000E+00  0.0000E+00  0.6319E-04  0.0000E+00
