 1 - depth, m
 2 - temperature, C
 3 - salinity, kg/kg
 4 - turbulent kinetic energy, m**2/s**2
 5 - dissipation rate, m**2/s**3
 6 - kinematic heat conductance, m**2/s
 7 - modulus of horizontal velocity, m/s
 8 - Richardson number, n/d
   -0.000000   30.30831  0.3559E-14  0.4888E-05  0.3102E-06  0.5154E-04  0.1248E-02  0.1044E+05
   -0.049997   30.33895  0.3559E-14  0.8423E-05  0.1380E-06  0.1773E-03  0.7163E-03  0.6760E+03
   -0.099994   30.35123  0.3559E-14  0.1025E-04  0.9465E-07  0.4081E-03  0.5213E-03  0.3693E+02
   -0.149992   30.35450  0.3559E-14  0.1138E-04  0.7950E-07  0.4852E-03  0.4608E-03  0.1812E+02
   -0.199991   30.35713  0.3559E-14  0.1227E-04  0.7063E-07  0.6514E-03  0.4115E-03  0.1167E+02
   -0.249989   30.35904  0.3559E-14  0.1297E-04  0.6483E-07  0.7782E-03  0.3747E-03  0.8681E+01
   -0.299988   30.36060  0.3559E-14  0.1355E-04  0.6070E-07  0.9054E-03  0.3441E-03  0.6908E+01
   -0.349988   30.36190  0.3559E-14  0.1403E-04  0.5762E-07  0.1020E-02  0.3179E-03  0.5947E+01
   -0.399988   30.36303  0.3559E-14  0.1443E-04  0.5522E-07  0.1126E-02  0.2947E-03  0.5287E+01
   -0.449988   30.36404  0.3559E-14  0.1478E-04  0.5327E-07  0.1223E-02  0.2743E-03  0.4996E+01
   -0.499988   30.36494  0.3559E-14  0.1508E-04  0.5167E-07  0.1313E-02  0.2564E-03  0.4840E+01
   -0.549989   30.36577  0.3559E-14  0.1534E-04  0.5033E-07  0.1395E-02  0.2402E-03  0.4810E+01
   -0.599989   30.36654  0.3559E-14  0.1556E-04  0.4921E-07  0.1469E-02  0.2256E-03  0.4789E+01
   -0.649990   30.36726  0.3559E-14  0.1576E-04  0.4826E-07  0.1536E-02  0.2123E-03  0.4888E+01
   -0.699992   30.36793  0.3559E-14  0.1592E-04  0.4747E-07  0.1595E-02  0.2001E-03  0.4972E+01
   -0.749993   30.36858  0.3559E-14  0.1606E-04  0.4680E-07  0.1646E-02  0.1887E-03  0.5181E+01
   -0.799994   30.36919  0.3559E-14  0.1617E-04  0.4626E-07  0.1690E-02  0.1782E-03  0.5369E+01
   -0.849996   30.36979  0.3559E-14  0.1626E-04  0.4583E-07  0.1725E-02  0.1683E-03  0.5699E+01
   -0.899998   30.37036  0.3559E-14  0.1633E-04  0.4551E-07  0.1752E-02  0.1591E-03  0.6010E+01
   -0.949999   30.37092  0.3559E-14  0.1637E-04  0.4528E-07  0.1771E-02  0.1504E-03  0.6498E+01
   -1.000001   30.37147  0.3559E-14  0.1640E-04  0.4517E-07  0.1782E-02  0.1422E-03  0.6980E+01
   -1.050003   30.37202  0.3559E-14  0.1640E-04  0.4516E-07  0.1782E-02  0.1344E-03  0.7990E+01
   -1.100004   30.37256  0.3559E-14  0.1637E-04  0.4527E-07  0.1872E-02  0.1269E-03  0.2604E+02
   -1.150006   30.37307  0.3559E-14  0.1633E-04  0.4553E-07  0.1693E-02  0.1203E-03  0.6142E+02
   -1.200008   30.37363  0.3559E-14  0.1626E-04  0.4592E-07  0.1721E-02  0.1133E-03  0.1172E+02
   -1.250009   30.37418  0.3559E-14  0.1616E-04  0.4649E-07  0.1691E-02  0.1067E-03  0.1244E+02
   -1.300010   30.37473  0.3559E-14  0.1603E-04  0.4729E-07  0.1639E-02  0.1004E-03  0.1476E+02
   -1.350012   30.37531  0.3559E-14  0.1588E-04  0.4836E-07  0.1580E-02  0.9418E-04  0.1769E+02
   -1.400013   30.37590  0.3559E-14  0.1568E-04  0.4982E-07  0.1500E-02  0.8815E-04  0.2229E+02
   -1.450013   30.37653  0.3559E-14  0.1544E-04  0.5179E-07  0.1424E-02  0.8223E-04  0.2859E+02
   -1.500014   30.37719  0.3559E-14  0.1514E-04  0.5454E-07  0.1307E-02  0.7642E-04  0.4016E+02
   -1.550014   30.37792  0.3559E-14  0.1478E-04  0.5841E-07  0.1230E-02  0.7056E-04  0.5829E+02
   -1.600014   30.37870  0.3559E-14  0.1432E-04  0.6451E-07  0.1077E-02  0.6486E-04  0.1505E+03
   -1.650014   30.37971  0.3559E-14  0.1373E-04  0.7385E-07  0.1005E-02  0.5857E-04  0.2811E+03
   -1.700014   30.38077  0.3559E-14  0.1292E-04  0.9039E-07  0.8125E-03  0.5262E-04  0.1919E+05
   -1.750013   30.38283  0.3559E-14  0.1186E-04  0.1176E-06  0.7418E-03  0.4448E-04  0.4957E+06
   -1.800011   30.38426  0.3559E-14  0.1049E-04  0.1753E-06  0.5177E-03  0.3843E-04  0.6798E+05
   -1.850010   30.39116  0.3559E-14  0.8962E-05  0.2847E-06  0.4770E-03  0.2769E-04  0.1691E+09
   -1.900008   30.38944  0.3559E-14  0.7157E-05  0.5907E-06  0.2225E-03  0.2267E-04  0.1897E+07
   -1.950005   30.40958  0.3559E-14  0.5005E-05  0.1473E-05  0.1912E-03  0.1241E-04 -0.4071E+06
   -2.000002   30.41291  0.3559E-14  0.0000E+00  0.0000E+00  0.0000E+00  0.2228E-04  0.0000E+00
