 1 - depth, m
 2 - temperature, C
 3 - salinity, kg/kg
 4 - turbulent kinetic energy, m**2/s**2
 5 - dissipation rate, m**2/s**3
 6 - kinematic heat conductance, m**2/s
 7 - modulus of horizontal velocity, m/s
 8 - Richardson number, n/d
   -0.000000   30.53223  0.2430E-14  0.4914E-05  0.3088E-06  0.5043E-04  0.1317E-02  0.6663E+04
   -0.049997   30.56371  0.2430E-14  0.8453E-05  0.1377E-06  0.1814E-03  0.7484E-03  0.5622E+03
   -0.099994   30.57555  0.2430E-14  0.1025E-04  0.9505E-07  0.4025E-03  0.5510E-03  0.2779E+02
   -0.149992   30.57888  0.2430E-14  0.1138E-04  0.7978E-07  0.4855E-03  0.4869E-03  0.1368E+02
   -0.199991   30.58151  0.2430E-14  0.1226E-04  0.7084E-07  0.6488E-03  0.4350E-03  0.8769E+01
   -0.249989   30.58343  0.2430E-14  0.1296E-04  0.6499E-07  0.7752E-03  0.3963E-03  0.6468E+01
   -0.299988   30.58499  0.2430E-14  0.1353E-04  0.6082E-07  0.9017E-03  0.3640E-03  0.5150E+01
   -0.349988   30.58629  0.2430E-14  0.1401E-04  0.5769E-07  0.1016E-02  0.3364E-03  0.4396E+01
   -0.399988   30.58743  0.2430E-14  0.1440E-04  0.5526E-07  0.1121E-02  0.3119E-03  0.3921E+01
   -0.449988   30.58843  0.2430E-14  0.1474E-04  0.5328E-07  0.1218E-02  0.2904E-03  0.3674E+01
   -0.499988   30.58934  0.2430E-14  0.1504E-04  0.5164E-07  0.1307E-02  0.2714E-03  0.3578E+01
   -0.549989   30.59017  0.2430E-14  0.1529E-04  0.5027E-07  0.1388E-02  0.2543E-03  0.3521E+01
   -0.599989   30.59093  0.2430E-14  0.1551E-04  0.4912E-07  0.1462E-02  0.2389E-03  0.3527E+01
   -0.649991   30.59165  0.2430E-14  0.1570E-04  0.4814E-07  0.1528E-02  0.2248E-03  0.3562E+01
   -0.699992   30.59232  0.2430E-14  0.1585E-04  0.4732E-07  0.1587E-02  0.2119E-03  0.3648E+01
   -0.749993   30.59297  0.2430E-14  0.1598E-04  0.4662E-07  0.1637E-02  0.1999E-03  0.3757E+01
   -0.799995   30.59358  0.2430E-14  0.1609E-04  0.4605E-07  0.1680E-02  0.1888E-03  0.3921E+01
   -0.849996   30.59417  0.2430E-14  0.1617E-04  0.4558E-07  0.1715E-02  0.1784E-03  0.4112E+01
   -0.899998   30.59474  0.2430E-14  0.1623E-04  0.4522E-07  0.1742E-02  0.1686E-03  0.4368E+01
   -0.949999   30.59530  0.2430E-14  0.1627E-04  0.4497E-07  0.1760E-02  0.1594E-03  0.4664E+01
   -1.000001   30.59584  0.2430E-14  0.1628E-04  0.4482E-07  0.1771E-02  0.1506E-03  0.5045E+01
   -1.050003   30.59638  0.2430E-14  0.1627E-04  0.4477E-07  0.1771E-02  0.1424E-03  0.5702E+01
   -1.100005   30.59691  0.2430E-14  0.1624E-04  0.4484E-07  0.1862E-02  0.1344E-03  0.1884E+02
   -1.150006   30.59742  0.2430E-14  0.1619E-04  0.4506E-07  0.1679E-02  0.1274E-03  0.4356E+02
   -1.200008   30.59797  0.2430E-14  0.1611E-04  0.4541E-07  0.1709E-02  0.1200E-03  0.8275E+01
   -1.250009   30.59851  0.2430E-14  0.1600E-04  0.4594E-07  0.1678E-02  0.1130E-03  0.8834E+01
   -1.300011   30.59906  0.2430E-14  0.1587E-04  0.4669E-07  0.1627E-02  0.1063E-03  0.1034E+02
   -1.350012   30.59962  0.2430E-14  0.1570E-04  0.4772E-07  0.1567E-02  0.9971E-04  0.1244E+02
   -1.400013   30.60021  0.2430E-14  0.1549E-04  0.4912E-07  0.1487E-02  0.9331E-04  0.1544E+02
   -1.450014   30.60082  0.2430E-14  0.1524E-04  0.5104E-07  0.1410E-02  0.8701E-04  0.1985E+02
   -1.500014   30.60147  0.2430E-14  0.1493E-04  0.5373E-07  0.1294E-02  0.8083E-04  0.2737E+02
   -1.550015   30.60218  0.2430E-14  0.1456E-04  0.5756E-07  0.1214E-02  0.7458E-04  0.3990E+02
   -1.600015   30.60295  0.2430E-14  0.1410E-04  0.6355E-07  0.1066E-02  0.6849E-04  0.9561E+02
   -1.650014   30.60392  0.2430E-14  0.1349E-04  0.7287E-07  0.9898E-03  0.6181E-04  0.6354E+04
   -1.700014   30.60500  0.2430E-14  0.1266E-04  0.8952E-07  0.8021E-03  0.5533E-04  0.1762E+04
   -1.750013   30.60700  0.2430E-14  0.1158E-04  0.1167E-06  0.7264E-03  0.4647E-04  0.5189E+05
   -1.800012   30.60849  0.2430E-14  0.1020E-04  0.1739E-06  0.5080E-03  0.3997E-04  0.1118E+05
   -1.850010   30.61532  0.2430E-14  0.8680E-05  0.2831E-06  0.4697E-03  0.2839E-04  0.2215E+08
   -1.900008   30.61345  0.2430E-14  0.6921E-05  0.5944E-06  0.2191E-03  0.2327E-04 -0.2082E+07
   -1.950005   30.63310  0.2430E-14  0.4850E-05  0.1464E-05  0.1943E-03  0.1259E-04 -0.1532E+07
   -2.000002   30.63499  0.2430E-14  0.0000E+00  0.0000E+00  0.0000E+00  0.2343E-04  0.0000E+00
