 1 - depth, m
 2 - temperature, C
 3 - salinity, kg/kg
 4 - turbulent kinetic energy, m**2/s**2
 5 - dissipation rate, m**2/s**3
 6 - kinematic heat conductance, m**2/s
 7 - modulus of horizontal velocity, m/s
 8 - Richardson number, n/d
   -0.000000   31.18608  0.6620E-13  0.5002E-05  0.3163E-06  0.5059E-04  0.1251E-02  0.1036E+05
   -0.049997   31.21816  0.6620E-13  0.8607E-05  0.1411E-06  0.1833E-03  0.7105E-03  0.2347E+04
   -0.099994   31.22997  0.6620E-13  0.1042E-04  0.9751E-07  0.4045E-03  0.5240E-03  0.3532E+02
   -0.149992   31.23333  0.6620E-13  0.1157E-04  0.8182E-07  0.4881E-03  0.4631E-03  0.1739E+02
   -0.199991   31.23598  0.6620E-13  0.1246E-04  0.7262E-07  0.6522E-03  0.4139E-03  0.1116E+02
   -0.249989   31.23791  0.6620E-13  0.1316E-04  0.6658E-07  0.7792E-03  0.3771E-03  0.8213E+01
   -0.299988   31.23947  0.6620E-13  0.1374E-04  0.6228E-07  0.9064E-03  0.3465E-03  0.6540E+01
   -0.349988   31.24078  0.6620E-13  0.1421E-04  0.5905E-07  0.1021E-02  0.3202E-03  0.5560E+01
   -0.399988   31.24192  0.6620E-13  0.1461E-04  0.5653E-07  0.1127E-02  0.2970E-03  0.4961E+01
   -0.449988   31.24292  0.6620E-13  0.1495E-04  0.5447E-07  0.1224E-02  0.2766E-03  0.4624E+01
   -0.499988   31.24383  0.6620E-13  0.1524E-04  0.5277E-07  0.1314E-02  0.2585E-03  0.4508E+01
   -0.549988   31.24465  0.6620E-13  0.1550E-04  0.5135E-07  0.1396E-02  0.2423E-03  0.4412E+01
   -0.599989   31.24542  0.6620E-13  0.1572E-04  0.5014E-07  0.1470E-02  0.2276E-03  0.4425E+01
   -0.649990   31.24613  0.6620E-13  0.1590E-04  0.4912E-07  0.1537E-02  0.2143E-03  0.4441E+01
   -0.699991   31.24680  0.6620E-13  0.1606E-04  0.4826E-07  0.1596E-02  0.2020E-03  0.4555E+01
   -0.749993   31.24744  0.6620E-13  0.1619E-04  0.4753E-07  0.1647E-02  0.1906E-03  0.4662E+01
   -0.799994   31.24805  0.6620E-13  0.1629E-04  0.4692E-07  0.1690E-02  0.1800E-03  0.4874E+01
   -0.849996   31.24863  0.6620E-13  0.1638E-04  0.4643E-07  0.1726E-02  0.1701E-03  0.5078E+01
   -0.899997   31.24920  0.6620E-13  0.1643E-04  0.4605E-07  0.1753E-02  0.1608E-03  0.5402E+01
   -0.949999   31.24975  0.6620E-13  0.1647E-04  0.4577E-07  0.1772E-02  0.1521E-03  0.5730E+01
   -1.000001   31.25029  0.6620E-13  0.1648E-04  0.4560E-07  0.1783E-02  0.1438E-03  0.6206E+01
   -1.050003   31.25082  0.6620E-13  0.1647E-04  0.4553E-07  0.1784E-02  0.1359E-03  0.6966E+01
   -1.100004   31.25135  0.6620E-13  0.1644E-04  0.4559E-07  0.1875E-02  0.1284E-03  0.2312E+02
   -1.150006   31.25185  0.6620E-13  0.1639E-04  0.4579E-07  0.1695E-02  0.1217E-03  0.5270E+02
   -1.200007   31.25240  0.6620E-13  0.1631E-04  0.4612E-07  0.1724E-02  0.1147E-03  0.1001E+02
   -1.250009   31.25293  0.6620E-13  0.1620E-04  0.4663E-07  0.1693E-02  0.1080E-03  0.1070E+02
   -1.300010   31.25347  0.6620E-13  0.1607E-04  0.4737E-07  0.1643E-02  0.1016E-03  0.1241E+02
   -1.350011   31.25402  0.6620E-13  0.1590E-04  0.4838E-07  0.1582E-02  0.9536E-04  0.1494E+02
   -1.400012   31.25460  0.6620E-13  0.1570E-04  0.4975E-07  0.1504E-02  0.8928E-04  0.1834E+02
   -1.450013   31.25520  0.6620E-13  0.1545E-04  0.5163E-07  0.1424E-02  0.8330E-04  0.2353E+02
   -1.500014   31.25583  0.6620E-13  0.1515E-04  0.5425E-07  0.1311E-02  0.7743E-04  0.3185E+02
   -1.550014   31.25653  0.6620E-13  0.1478E-04  0.5797E-07  0.1224E-02  0.7151E-04  0.4593E+02
   -1.600014   31.25729  0.6620E-13  0.1432E-04  0.6368E-07  0.1079E-02  0.6571E-04  0.9501E+02
   -1.650014   31.25820  0.6620E-13  0.1373E-04  0.7257E-07  0.9968E-03  0.5948E-04  0.1097E+04
   -1.700013   31.25926  0.6620E-13  0.1293E-04  0.8834E-07  0.8125E-03  0.5334E-04  0.5607E+03
   -1.750012   31.26108  0.6620E-13  0.1187E-04  0.1142E-06  0.7356E-03  0.4525E-04  0.1574E+06
   -1.800011   31.26265  0.6620E-13  0.1046E-04  0.1695E-06  0.5109E-03  0.3891E-04  0.9013E+06
   -1.850009   31.26893  0.6620E-13  0.8862E-05  0.2731E-06  0.4688E-03  0.2795E-04  0.3241E+08
   -1.900007   31.26782  0.6620E-13  0.6973E-05  0.5739E-06  0.2139E-03  0.2262E-04  0.1364E+07
   -1.950005   31.28727  0.6620E-13  0.4889E-05  0.1428E-05  0.1926E-03  0.1212E-04 -0.1057E+06
   -2.000002   31.28907  0.6620E-13  0.0000E+00  0.0000E+00  0.0000E+00  0.2240E-04  0.0000E+00
