 1 - depth, m
 2 - temperature, C
 3 - salinity, kg/kg
 4 - turbulent kinetic energy, m**2/s**2
 5 - dissipation rate, m**2/s**3
 6 - kinematic heat conductance, m**2/s
 7 - modulus of horizontal velocity, m/s
 8 - Richardson number, n/d
   -0.000000   29.56951  0.1355E-12  0.3917E-05  0.2142E-06  0.4497E-04  0.1174E-02  0.3396E+05
   -0.049997   29.59510  0.1355E-12  0.6786E-05  0.9527E-07  0.1606E-03  0.6619E-03  0.1976E+02
   -0.099994   29.60472  0.1355E-12  0.8198E-05  0.6581E-07  0.3710E-03  0.4784E-03  0.3426E+02
   -0.149992   29.60735  0.1355E-12  0.9064E-05  0.5557E-07  0.4456E-03  0.4216E-03  0.1615E+02
   -0.199991   29.60945  0.1355E-12  0.9734E-05  0.4947E-07  0.5880E-03  0.3755E-03  0.1050E+02
   -0.249989   29.61099  0.1355E-12  0.1027E-04  0.4540E-07  0.7023E-03  0.3406E-03  0.7750E+01
   -0.299989   29.61223  0.1355E-12  0.1070E-04  0.4247E-07  0.8134E-03  0.3116E-03  0.6168E+01
   -0.349988   29.61328  0.1355E-12  0.1106E-04  0.4025E-07  0.9148E-03  0.2867E-03  0.5280E+01
   -0.399988   29.61418  0.1355E-12  0.1136E-04  0.3852E-07  0.1008E-02  0.2646E-03  0.4700E+01
   -0.449988   29.61498  0.1355E-12  0.1162E-04  0.3709E-07  0.1094E-02  0.2452E-03  0.4418E+01
   -0.499988   29.61570  0.1355E-12  0.1184E-04  0.3591E-07  0.1174E-02  0.2281E-03  0.4296E+01
   -0.549989   29.61635  0.1355E-12  0.1204E-04  0.3491E-07  0.1247E-02  0.2127E-03  0.4247E+01
   -0.599990   29.61696  0.1355E-12  0.1221E-04  0.3407E-07  0.1314E-02  0.1989E-03  0.4248E+01
   -0.649991   29.61752  0.1355E-12  0.1235E-04  0.3336E-07  0.1374E-02  0.1864E-03  0.4311E+01
   -0.699992   29.61805  0.1355E-12  0.1247E-04  0.3275E-07  0.1428E-02  0.1749E-03  0.4408E+01
   -0.749993   29.61855  0.1355E-12  0.1258E-04  0.3223E-07  0.1475E-02  0.1643E-03  0.4564E+01
   -0.799995   29.61902  0.1355E-12  0.1267E-04  0.3180E-07  0.1516E-02  0.1545E-03  0.4754E+01
   -0.849997   29.61948  0.1355E-12  0.1273E-04  0.3145E-07  0.1550E-02  0.1453E-03  0.5012E+01
   -0.899998   29.61992  0.1355E-12  0.1279E-04  0.3118E-07  0.1577E-02  0.1367E-03  0.5311E+01
   -0.950000   29.62035  0.1355E-12  0.1283E-04  0.3097E-07  0.1597E-02  0.1287E-03  0.5698E+01
   -1.000002   29.62077  0.1355E-12  0.1285E-04  0.3084E-07  0.1611E-02  0.1211E-03  0.6144E+01
   -1.050003   29.62119  0.1355E-12  0.1286E-04  0.3077E-07  0.1616E-02  0.1140E-03  0.6998E+01
   -1.100005   29.62160  0.1355E-12  0.1285E-04  0.3079E-07  0.1675E-02  0.1072E-03  0.2374E+02
   -1.150007   29.62199  0.1355E-12  0.1282E-04  0.3089E-07  0.1578E-02  0.1011E-03  0.5045E+02
   -1.200008   29.62240  0.1355E-12  0.1278E-04  0.3108E-07  0.1581E-02  0.9495E-04  0.9983E+01
   -1.250010   29.62281  0.1355E-12  0.1272E-04  0.3137E-07  0.1556E-02  0.8904E-04  0.1062E+02
   -1.300011   29.62323  0.1355E-12  0.1264E-04  0.3180E-07  0.1519E-02  0.8336E-04  0.1236E+02
   -1.350013   29.62365  0.1355E-12  0.1254E-04  0.3239E-07  0.1471E-02  0.7789E-04  0.1463E+02
   -1.400014   29.62409  0.1355E-12  0.1242E-04  0.3317E-07  0.1411E-02  0.7259E-04  0.1781E+02
   -1.450014   29.62455  0.1355E-12  0.1227E-04  0.3423E-07  0.1342E-02  0.6744E-04  0.2222E+02
   -1.500015   29.62502  0.1355E-12  0.1208E-04  0.3566E-07  0.1253E-02  0.6241E-04  0.2909E+02
   -1.550015   29.62554  0.1355E-12  0.1185E-04  0.3763E-07  0.1169E-02  0.5746E-04  0.3958E+02
   -1.600016   29.62609  0.1355E-12  0.1157E-04  0.4047E-07  0.1045E-02  0.5259E-04  0.5997E+02
   -1.650015   29.62672  0.1355E-12  0.1122E-04  0.4468E-07  0.9608E-03  0.4763E-04  0.1427E+03
   -1.700015   29.62742  0.1355E-12  0.1075E-04  0.5204E-07  0.7994E-03  0.4280E-04 -0.2404E+04
   -1.750014   29.62847  0.1355E-12  0.1010E-04  0.6446E-07  0.7178E-03  0.3706E-04  0.6309E+05
   -1.800013   29.62960  0.1355E-12  0.9154E-05  0.8966E-07  0.5134E-03  0.3187E-04  0.2899E+05
   -1.850011   29.63270  0.1355E-12  0.7901E-05  0.1374E-06  0.4480E-03  0.2404E-04  0.2135E+07
   -1.900009   29.63344  0.1355E-12  0.6239E-05  0.2795E-06  0.2005E-03  0.1903E-04 -0.9876E+07
   -1.950006   29.64580  0.1355E-12  0.4205E-05  0.7380E-06  0.1442E-03  0.1049E-04 -0.5167E+06
   -2.000003   29.65035  0.1355E-12  0.0000E+00  0.0000E+00  0.0000E+00  0.1708E-04  0.0000E+00
