 1 - depth, m
 2 - temperature, C
 3 - salinity, kg/kg
 4 - turbulent kinetic energy, m**2/s**2
 5 - dissipation rate, m**2/s**3
 6 - kinematic heat conductance, m**2/s
 7 - modulus of horizontal velocity, m/s
 8 - Richardson number, n/d
   -0.000000   30.46417  0.1694E-13  0.5007E-05  0.3186E-06  0.5173E-04  0.1670E-02  0.1036E+05
   -0.049997   30.49555  0.1694E-13  0.8522E-05  0.1422E-06  0.1777E-03  0.9606E-03  0.4858E+04
   -0.099994   30.50791  0.1694E-13  0.1035E-04  0.9747E-07  0.4022E-03  0.7033E-03  0.1729E+02
   -0.149992   30.51130  0.1694E-13  0.1149E-04  0.8165E-07  0.4822E-03  0.6215E-03  0.8466E+01
   -0.199991   30.51402  0.1694E-13  0.1238E-04  0.7240E-07  0.6467E-03  0.5551E-03  0.5412E+01
   -0.249989   30.51598  0.1694E-13  0.1309E-04  0.6635E-07  0.7731E-03  0.5055E-03  0.3985E+01
   -0.299988   30.51757  0.1694E-13  0.1366E-04  0.6205E-07  0.8998E-03  0.4642E-03  0.3167E+01
   -0.349988   30.51891  0.1694E-13  0.1414E-04  0.5882E-07  0.1014E-02  0.4289E-03  0.2703E+01
   -0.399988   30.52006  0.1694E-13  0.1453E-04  0.5631E-07  0.1119E-02  0.3977E-03  0.2408E+01
   -0.449988   30.52109  0.1694E-13  0.1488E-04  0.5427E-07  0.1216E-02  0.3703E-03  0.2257E+01
   -0.499988   30.52201  0.1694E-13  0.1517E-04  0.5259E-07  0.1305E-02  0.3460E-03  0.2195E+01
   -0.549989   30.52286  0.1694E-13  0.1542E-04  0.5117E-07  0.1387E-02  0.3242E-03  0.2162E+01
   -0.599989   30.52364  0.1694E-13  0.1564E-04  0.4998E-07  0.1461E-02  0.3045E-03  0.2164E+01
   -0.649991   30.52437  0.1694E-13  0.1583E-04  0.4897E-07  0.1527E-02  0.2866E-03  0.2187E+01
   -0.699992   30.52506  0.1694E-13  0.1598E-04  0.4812E-07  0.1585E-02  0.2700E-03  0.2238E+01
   -0.749993   30.52571  0.1694E-13  0.1611E-04  0.4740E-07  0.1635E-02  0.2548E-03  0.2308E+01
   -0.799995   30.52634  0.1694E-13  0.1621E-04  0.4681E-07  0.1678E-02  0.2406E-03  0.2407E+01
   -0.849996   30.52694  0.1694E-13  0.1629E-04  0.4633E-07  0.1713E-02  0.2273E-03  0.2527E+01
   -0.899998   30.52752  0.1694E-13  0.1635E-04  0.4595E-07  0.1739E-02  0.2148E-03  0.2683E+01
   -0.949999   30.52809  0.1694E-13  0.1638E-04  0.4569E-07  0.1757E-02  0.2031E-03  0.2869E+01
   -1.000001   30.52864  0.1694E-13  0.1639E-04  0.4553E-07  0.1767E-02  0.1920E-03  0.3101E+01
   -1.050003   30.52919  0.1694E-13  0.1638E-04  0.4548E-07  0.1766E-02  0.1814E-03  0.3510E+01
   -1.100005   30.52973  0.1694E-13  0.1634E-04  0.4555E-07  0.1861E-02  0.1713E-03  0.1154E+02
   -1.150006   30.53024  0.1694E-13  0.1628E-04  0.4577E-07  0.1668E-02  0.1624E-03  0.2698E+02
   -1.200008   30.53081  0.1694E-13  0.1620E-04  0.4612E-07  0.1701E-02  0.1530E-03  0.5113E+01
   -1.250009   30.53136  0.1694E-13  0.1609E-04  0.4667E-07  0.1669E-02  0.1440E-03  0.5457E+01
   -1.300011   30.53192  0.1694E-13  0.1595E-04  0.4744E-07  0.1617E-02  0.1354E-03  0.6404E+01
   -1.350012   30.53249  0.1694E-13  0.1577E-04  0.4850E-07  0.1555E-02  0.1270E-03  0.7715E+01
   -1.400013   30.53308  0.1694E-13  0.1555E-04  0.4995E-07  0.1474E-02  0.1189E-03  0.9599E+01
   -1.450014   30.53371  0.1694E-13  0.1529E-04  0.5195E-07  0.1395E-02  0.1108E-03  0.1237E+02
   -1.500014   30.53437  0.1694E-13  0.1497E-04  0.5474E-07  0.1279E-02  0.1029E-03  0.1708E+02
   -1.550015   30.53510  0.1694E-13  0.1458E-04  0.5874E-07  0.1196E-02  0.9494E-04  0.2496E+02
   -1.600015   30.53589  0.1694E-13  0.1410E-04  0.6501E-07  0.1049E-02  0.8714E-04  0.5987E+02
   -1.650014   30.53689  0.1694E-13  0.1347E-04  0.7485E-07  0.9698E-03  0.7859E-04  0.1672E+04
   -1.700014   30.53803  0.1694E-13  0.1260E-04  0.9230E-07  0.7866E-03  0.7018E-04  0.4904E+04
   -1.750013   30.54008  0.1694E-13  0.1148E-04  0.1209E-06  0.7099E-03  0.5892E-04  0.4585E+05
   -1.800012   30.54168  0.1694E-13  0.1001E-04  0.1822E-06  0.4874E-03  0.5046E-04  0.9700E+05
   -1.850010   30.54897  0.1694E-13  0.8423E-05  0.2980E-06  0.4538E-03  0.3529E-04  0.3289E+08
   -1.900008   30.54698  0.1694E-13  0.6644E-05  0.6300E-06  0.2096E-03  0.2876E-04  0.2721E+07
   -1.950005   30.56812  0.1694E-13  0.4698E-05  0.1546E-05  0.2003E-03  0.1513E-04 -0.1093E+07
   -2.000002   30.56932  0.1694E-13  0.0000E+00  0.0000E+00  0.0000E+00  0.2952E-04  0.0000E+00
