 1 - depth, m
 2 - temperature, C
 3 - salinity, kg/kg
 4 - turbulent kinetic energy, m**2/s**2
 5 - dissipation rate, m**2/s**3
 6 - kinematic heat conductance, m**2/s
 7 - modulus of horizontal velocity, m/s
 8 - Richardson number, n/d
   -0.000000   30.01506  0.1129E-12  0.4561E-05  0.2722E-06  0.4863E-04  0.1487E-02  0.5088E+04
   -0.049997   30.04445  0.1129E-12  0.7816E-05  0.1216E-06  0.1727E-03  0.8440E-03  0.5241E+04
   -0.099994   30.05554  0.1129E-12  0.9460E-05  0.8388E-07  0.3871E-03  0.6185E-03  0.2167E+02
   -0.149992   30.05866  0.1129E-12  0.1049E-04  0.7044E-07  0.4676E-03  0.5454E-03  0.1050E+02
   -0.199991   30.06113  0.1129E-12  0.1128E-04  0.6253E-07  0.6222E-03  0.4866E-03  0.6749E+01
   -0.249989   30.06293  0.1129E-12  0.1191E-04  0.5732E-07  0.7441E-03  0.4424E-03  0.4969E+01
   -0.299989   30.06439  0.1129E-12  0.1243E-04  0.5358E-07  0.8644E-03  0.4056E-03  0.3945E+01
   -0.349988   30.06561  0.1129E-12  0.1285E-04  0.5077E-07  0.9739E-03  0.3741E-03  0.3367E+01
   -0.399988   30.06667  0.1129E-12  0.1320E-04  0.4857E-07  0.1074E-02  0.3462E-03  0.2994E+01
   -0.449988   30.06760  0.1129E-12  0.1351E-04  0.4677E-07  0.1167E-02  0.3217E-03  0.2808E+01
   -0.499988   30.06844  0.1129E-12  0.1377E-04  0.4528E-07  0.1253E-02  0.3000E-03  0.2728E+01
   -0.549989   30.06921  0.1129E-12  0.1400E-04  0.4402E-07  0.1331E-02  0.2806E-03  0.2689E+01
   -0.599990   30.06992  0.1129E-12  0.1419E-04  0.4295E-07  0.1402E-02  0.2631E-03  0.2685E+01
   -0.649991   30.07058  0.1129E-12  0.1435E-04  0.4204E-07  0.1467E-02  0.2472E-03  0.2715E+01
   -0.699992   30.07120  0.1129E-12  0.1449E-04  0.4126E-07  0.1524E-02  0.2325E-03  0.2770E+01
   -0.749993   30.07179  0.1129E-12  0.1461E-04  0.4060E-07  0.1573E-02  0.2190E-03  0.2855E+01
   -0.799995   30.07235  0.1129E-12  0.1470E-04  0.4004E-07  0.1616E-02  0.2064E-03  0.2968E+01
   -0.849996   30.07289  0.1129E-12  0.1477E-04  0.3958E-07  0.1651E-02  0.1947E-03  0.3112E+01
   -0.899998   30.07341  0.1129E-12  0.1482E-04  0.3921E-07  0.1679E-02  0.1837E-03  0.3290E+01
   -0.950000   30.07391  0.1129E-12  0.1485E-04  0.3893E-07  0.1699E-02  0.1734E-03  0.3509E+01
   -1.000001   30.07440  0.1129E-12  0.1487E-04  0.3874E-07  0.1711E-02  0.1636E-03  0.3776E+01
   -1.050003   30.07489  0.1129E-12  0.1486E-04  0.3863E-07  0.1715E-02  0.1544E-03  0.4263E+01
   -1.100005   30.07537  0.1129E-12  0.1483E-04  0.3863E-07  0.1790E-02  0.1455E-03  0.1427E+02
   -1.150007   30.07582  0.1129E-12  0.1479E-04  0.3873E-07  0.1651E-02  0.1376E-03  0.3113E+02
   -1.200008   30.07631  0.1129E-12  0.1472E-04  0.3895E-07  0.1668E-02  0.1296E-03  0.6049E+01
   -1.250010   30.07679  0.1129E-12  0.1463E-04  0.3931E-07  0.1640E-02  0.1218E-03  0.6410E+01
   -1.300011   30.07727  0.1129E-12  0.1451E-04  0.3983E-07  0.1596E-02  0.1144E-03  0.7435E+01
   -1.350012   30.07776  0.1129E-12  0.1437E-04  0.4057E-07  0.1541E-02  0.1072E-03  0.8810E+01
   -1.400013   30.07827  0.1129E-12  0.1420E-04  0.4159E-07  0.1472E-02  0.1001E-03  0.1073E+02
   -1.450014   30.07880  0.1129E-12  0.1399E-04  0.4298E-07  0.1398E-02  0.9329E-04  0.1346E+02
   -1.500015   30.07935  0.1129E-12  0.1374E-04  0.4490E-07  0.1295E-02  0.8658E-04  0.1780E+02
   -1.550015   30.07995  0.1129E-12  0.1343E-04  0.4761E-07  0.1211E-02  0.7989E-04  0.2456E+02
   -1.600015   30.08060  0.1129E-12  0.1306E-04  0.5167E-07  0.1072E-02  0.7332E-04  0.3998E+02
   -1.650015   30.08135  0.1129E-12  0.1258E-04  0.5788E-07  0.9961E-03  0.6644E-04  0.7758E+02
   -1.700014   30.08218  0.1129E-12  0.1194E-04  0.6915E-07  0.8165E-03  0.5979E-04 -0.6173E+04
   -1.750014   30.08359  0.1129E-12  0.1107E-04  0.8795E-07  0.7392E-03  0.5114E-04  0.2234E+05
   -1.800012   30.08491  0.1129E-12  0.9839E-05  0.1265E-06  0.5221E-03  0.4395E-04  0.8157E+05
   -1.850011   30.08931  0.1129E-12  0.8400E-05  0.1985E-06  0.4716E-03  0.3217E-04  0.1040E+08
   -1.900008   30.08922  0.1129E-12  0.6670E-05  0.4112E-06  0.2147E-03  0.2599E-04 -0.2382E+05
   -1.950006   30.10447  0.1129E-12  0.4583E-05  0.1064E-05  0.1694E-03  0.1425E-04 -0.4027E+06
   -2.000003   30.10742  0.1129E-12  0.0000E+00  0.0000E+00  0.0000E+00  0.2476E-04  0.0000E+00
