 1 - depth, m
 2 - temperature, C
 3 - salinity, kg/kg
 4 - turbulent kinetic energy, m**2/s**2
 5 - dissipation rate, m**2/s**3
 6 - kinematic heat conductance, m**2/s
 7 - modulus of horizontal velocity, m/s
 8 - Richardson number, n/d
   -0.000000   30.42138  0.1100E-14  0.5081E-05  0.3278E-06  0.5150E-04  0.5840E-03  0.3846E+05
   -0.049997   30.45495  0.1100E-14  0.8911E-05  0.1453E-06  0.1862E-03  0.3323E-03  0.7610E+02
   -0.099994   30.46738  0.1100E-14  0.1079E-04  0.1002E-06  0.4261E-03  0.2424E-03  0.1363E+03
   -0.149992   30.47076  0.1100E-14  0.1197E-04  0.8452E-07  0.5006E-03  0.2151E-03  0.6730E+02
   -0.199990   30.47351  0.1100E-14  0.1288E-04  0.7524E-07  0.6717E-03  0.1925E-03  0.4377E+02
   -0.249989   30.47550  0.1100E-14  0.1361E-04  0.6913E-07  0.8006E-03  0.1756E-03  0.3258E+02
   -0.299988   30.47713  0.1100E-14  0.1420E-04  0.6476E-07  0.9300E-03  0.1616E-03  0.2604E+02
   -0.349988   30.47849  0.1100E-14  0.1469E-04  0.6148E-07  0.1047E-02  0.1495E-03  0.2231E+02
   -0.399987   30.47967  0.1100E-14  0.1510E-04  0.5892E-07  0.1154E-02  0.1388E-03  0.1990E+02
   -0.449987   30.48072  0.1100E-14  0.1545E-04  0.5684E-07  0.1253E-02  0.1294E-03  0.1867E+02
   -0.499988   30.48166  0.1100E-14  0.1576E-04  0.5511E-07  0.1344E-02  0.1210E-03  0.1814E+02
   -0.549988   30.48253  0.1100E-14  0.1602E-04  0.5367E-07  0.1427E-02  0.1135E-03  0.1788E+02
   -0.599989   30.48333  0.1100E-14  0.1625E-04  0.5245E-07  0.1502E-02  0.1067E-03  0.1787E+02
   -0.649990   30.48407  0.1100E-14  0.1645E-04  0.5142E-07  0.1569E-02  0.1005E-03  0.1807E+02
   -0.699991   30.48478  0.1100E-14  0.1661E-04  0.5055E-07  0.1629E-02  0.9483E-04  0.1846E+02
   -0.749992   30.48545  0.1100E-14  0.1675E-04  0.4982E-07  0.1680E-02  0.8955E-04  0.1904E+02
   -0.799994   30.48609  0.1100E-14  0.1686E-04  0.4922E-07  0.1724E-02  0.8463E-04  0.1982E+02
   -0.849995   30.48670  0.1100E-14  0.1694E-04  0.4873E-07  0.1759E-02  0.8003E-04  0.2082E+02
   -0.899997   30.48730  0.1100E-14  0.1700E-04  0.4836E-07  0.1787E-02  0.7571E-04  0.2206E+02
   -0.949999   30.48788  0.1100E-14  0.1704E-04  0.4810E-07  0.1805E-02  0.7164E-04  0.2360E+02
   -1.000000   30.48845  0.1100E-14  0.1706E-04  0.4795E-07  0.1815E-02  0.6777E-04  0.2547E+02
   -1.050002   30.48902  0.1100E-14  0.1705E-04  0.4792E-07  0.1815E-02  0.6410E-04  0.2882E+02
   -1.100004   30.48957  0.1100E-14  0.1702E-04  0.4801E-07  0.1911E-02  0.6060E-04  0.9502E+02
   -1.150005   30.49010  0.1100E-14  0.1696E-04  0.4826E-07  0.1718E-02  0.5748E-04  0.2188E+03
   -1.200007   30.49068  0.1100E-14  0.1688E-04  0.4866E-07  0.1751E-02  0.5420E-04  0.4173E+02
   -1.250008   30.49125  0.1100E-14  0.1678E-04  0.4924E-07  0.1719E-02  0.5108E-04  0.4453E+02
   -1.300010   30.49183  0.1100E-14  0.1664E-04  0.5007E-07  0.1667E-02  0.4807E-04  0.5215E+02
   -1.350011   30.49242  0.1100E-14  0.1646E-04  0.5120E-07  0.1605E-02  0.4514E-04  0.6268E+02
   -1.400012   30.49303  0.1100E-14  0.1625E-04  0.5274E-07  0.1525E-02  0.4229E-04  0.7771E+02
   -1.450013   30.49367  0.1100E-14  0.1599E-04  0.5485E-07  0.1443E-02  0.3948E-04  0.9998E+02
   -1.500013   30.49435  0.1100E-14  0.1567E-04  0.5780E-07  0.1331E-02  0.3671E-04  0.1373E+03
   -1.550013   30.49510  0.1100E-14  0.1528E-04  0.6200E-07  0.1242E-02  0.3392E-04  0.2025E+03
   -1.600013   30.49592  0.1100E-14  0.1479E-04  0.6855E-07  0.1100E-02  0.3118E-04 -0.1518E+05
   -1.650013   30.49694  0.1100E-14  0.1416E-04  0.7887E-07  0.1008E-02  0.2819E-04 -0.4361E+05
   -1.700013   30.49814  0.1100E-14  0.1329E-04  0.9675E-07  0.8301E-03  0.2516E-04 -0.2423E+04
   -1.750012   30.50014  0.1100E-14  0.1220E-04  0.1256E-06  0.7441E-03  0.2132E-04  0.1476E+07
   -1.800010   30.50172  0.1100E-14  0.1076E-04  0.1902E-06  0.5175E-03  0.1838E-04  0.3242E+06
   -1.850009   30.50898  0.1100E-14  0.9201E-05  0.3089E-06  0.4801E-03  0.1314E-04  0.4393E+10
   -1.900006   30.50710  0.1100E-14  0.7333E-05  0.6454E-06  0.2218E-03  0.1079E-04 -0.6814E+07
   -1.950004   30.52816  0.1100E-14  0.5153E-05  0.1578E-05  0.1990E-03  0.5872E-05 -0.7231E+07
   -2.000001   30.53011  0.1100E-14  0.0000E+00  0.0000E+00  0.0000E+00  0.1083E-04  0.0000E+00
