 1 - depth, m
 2 - temperature, C
 3 - salinity, kg/kg
 4 - turbulent kinetic energy, m**2/s**2
 5 - dissipation rate, m**2/s**3
 6 - kinematic heat conductance, m**2/s
 7 - modulus of horizontal velocity, m/s
 8 - Richardson number, n/d
   -0.000000   30.61366  0.7071E-14  0.4685E-05  0.2874E-06  0.4879E-04  0.6210E-03  0.3199E+05
   -0.049997   30.64402  0.7071E-14  0.8262E-05  0.1273E-06  0.1830E-03  0.3485E-03  0.7647E+02
   -0.099994   30.65496  0.7071E-14  0.1000E-04  0.8830E-07  0.4134E-03  0.2552E-03  0.1296E+03
   -0.149992   30.65798  0.7071E-14  0.1109E-04  0.7462E-07  0.4910E-03  0.2261E-03  0.6383E+02
   -0.199991   30.66042  0.7071E-14  0.1194E-04  0.6653E-07  0.6550E-03  0.2022E-03  0.4173E+02
   -0.249989   30.66220  0.7071E-14  0.1262E-04  0.6122E-07  0.7811E-03  0.1843E-03  0.3108E+02
   -0.299988   30.66365  0.7071E-14  0.1318E-04  0.5743E-07  0.9066E-03  0.1694E-03  0.2492E+02
   -0.349988   30.66488  0.7071E-14  0.1364E-04  0.5459E-07  0.1020E-02  0.1566E-03  0.2139E+02
   -0.399988   30.66594  0.7071E-14  0.1404E-04  0.5238E-07  0.1124E-02  0.1452E-03  0.1913E+02
   -0.449988   30.66689  0.7071E-14  0.1438E-04  0.5059E-07  0.1221E-02  0.1352E-03  0.1797E+02
   -0.499988   30.66774  0.7071E-14  0.1467E-04  0.4911E-07  0.1309E-02  0.1264E-03  0.1752E+02
   -0.549989   30.66853  0.7071E-14  0.1493E-04  0.4788E-07  0.1391E-02  0.1185E-03  0.1728E+02
   -0.599989   30.66925  0.7071E-14  0.1515E-04  0.4686E-07  0.1464E-02  0.1113E-03  0.1733E+02
   -0.649990   30.66993  0.7071E-14  0.1535E-04  0.4600E-07  0.1530E-02  0.1047E-03  0.1754E+02
   -0.699992   30.67057  0.7071E-14  0.1551E-04  0.4528E-07  0.1588E-02  0.9868E-04  0.1799E+02
   -0.749993   30.67118  0.7071E-14  0.1565E-04  0.4469E-07  0.1639E-02  0.9311E-04  0.1858E+02
   -0.799994   30.67177  0.7071E-14  0.1577E-04  0.4421E-07  0.1682E-02  0.8792E-04  0.1942E+02
   -0.849996   30.67233  0.7071E-14  0.1586E-04  0.4383E-07  0.1717E-02  0.8308E-04  0.2042E+02
   -0.899998   30.67288  0.7071E-14  0.1594E-04  0.4356E-07  0.1745E-02  0.7852E-04  0.2172E+02
   -0.949999   30.67342  0.7071E-14  0.1599E-04  0.4338E-07  0.1764E-02  0.7423E-04  0.2325E+02
   -1.000001   30.67394  0.7071E-14  0.1602E-04  0.4331E-07  0.1775E-02  0.7016E-04  0.2519E+02
   -1.050003   30.67446  0.7071E-14  0.1603E-04  0.4334E-07  0.1776E-02  0.6631E-04  0.2856E+02
   -1.100004   30.67498  0.7071E-14  0.1602E-04  0.4348E-07  0.1862E-02  0.6262E-04  0.9528E+02
   -1.150006   30.67547  0.7071E-14  0.1598E-04  0.4375E-07  0.1693E-02  0.5933E-04  0.2139E+03
   -1.200008   30.67601  0.7071E-14  0.1593E-04  0.4416E-07  0.1718E-02  0.5592E-04  0.4134E+02
   -1.250009   30.67654  0.7071E-14  0.1584E-04  0.4474E-07  0.1687E-02  0.5265E-04  0.4435E+02
   -1.300010   30.67708  0.7071E-14  0.1573E-04  0.4553E-07  0.1638E-02  0.4951E-04  0.5187E+02
   -1.350012   30.67763  0.7071E-14  0.1559E-04  0.4658E-07  0.1579E-02  0.4645E-04  0.6230E+02
   -1.400013   30.67820  0.7071E-14  0.1541E-04  0.4798E-07  0.1502E-02  0.4348E-04  0.7690E+02
   -1.450013   30.67880  0.7071E-14  0.1519E-04  0.4987E-07  0.1425E-02  0.4055E-04  0.9830E+02
   -1.500014   30.67944  0.7071E-14  0.1491E-04  0.5246E-07  0.1313E-02  0.3769E-04  0.1334E+03
   -1.550014   30.68015  0.7071E-14  0.1457E-04  0.5609E-07  0.1230E-02  0.3480E-04  0.1911E+03
   -1.600014   30.68090  0.7071E-14  0.1415E-04  0.6164E-07  0.1084E-02  0.3198E-04  0.4538E+03
   -1.650014   30.68184  0.7071E-14  0.1360E-04  0.7015E-07  0.1004E-02  0.2893E-04  0.1760E+05
   -1.700014   30.68288  0.7071E-14  0.1285E-04  0.8516E-07  0.8203E-03  0.2597E-04  0.7263E+04
   -1.750013   30.68472  0.7071E-14  0.1186E-04  0.1097E-06  0.7444E-03  0.2206E-04  0.4749E+06
   -1.800011   30.68622  0.7071E-14  0.1053E-04  0.1615E-06  0.5168E-03  0.1903E-04 -0.1704E+06
   -1.850010   30.69243  0.7071E-14  0.9005E-05  0.2597E-06  0.4781E-03  0.1375E-04  0.2920E+09
   -1.900008   30.69150  0.7071E-14  0.7196E-05  0.5335E-06  0.2188E-03  0.1121E-04 -0.1602E+07
   -1.950005   30.71083  0.7071E-14  0.5015E-05  0.1343E-05  0.1845E-03  0.6149E-05 -0.9748E+07
   -2.000002   30.71385  0.7071E-14  0.0000E+00  0.0000E+00  0.0000E+00  0.1090E-04  0.0000E+00
