 1 - depth, m
 2 - temperature, C
 3 - salinity, kg/kg
 4 - turbulent kinetic energy, m**2/s**2
 5 - dissipation rate, m**2/s**3
 6 - kinematic heat conductance, m**2/s
 7 - modulus of horizontal velocity, m/s
 8 - Richardson number, n/d
   -0.000000   30.40552  0.2974E-13  0.4632E-05  0.2839E-06  0.4948E-04  0.8735E-03  0.2775E+05
   -0.049997   30.43510  0.2974E-13  0.8095E-05  0.1260E-06  0.1767E-03  0.4980E-03  0.3088E+03
   -0.099994   30.44642  0.2974E-13  0.9822E-05  0.8686E-07  0.4067E-03  0.3604E-03  0.9286E+02
   -0.149992   30.44946  0.2974E-13  0.1089E-04  0.7326E-07  0.4822E-03  0.3188E-03  0.4593E+02
   -0.199991   30.45192  0.2974E-13  0.1173E-04  0.6524E-07  0.6442E-03  0.2846E-03  0.3000E+02
   -0.249989   30.45371  0.2974E-13  0.1239E-04  0.5996E-07  0.7688E-03  0.2590E-03  0.2252E+02
   -0.299988   30.45517  0.2974E-13  0.1294E-04  0.5618E-07  0.8927E-03  0.2378E-03  0.1794E+02
   -0.349988   30.45640  0.2974E-13  0.1339E-04  0.5335E-07  0.1005E-02  0.2195E-03  0.1554E+02
   -0.399988   30.45746  0.2974E-13  0.1377E-04  0.5115E-07  0.1108E-02  0.2034E-03  0.1379E+02
   -0.449988   30.45841  0.2974E-13  0.1410E-04  0.4935E-07  0.1203E-02  0.1892E-03  0.1311E+02
   -0.499988   30.45926  0.2974E-13  0.1438E-04  0.4787E-07  0.1291E-02  0.1767E-03  0.1264E+02
   -0.549989   30.46004  0.2974E-13  0.1463E-04  0.4663E-07  0.1371E-02  0.1654E-03  0.1264E+02
   -0.599990   30.46076  0.2974E-13  0.1484E-04  0.4559E-07  0.1444E-02  0.1552E-03  0.1252E+02
   -0.649991   30.46144  0.2974E-13  0.1502E-04  0.4471E-07  0.1509E-02  0.1459E-03  0.1285E+02
   -0.699992   30.46207  0.2974E-13  0.1518E-04  0.4397E-07  0.1567E-02  0.1374E-03  0.1299E+02
   -0.749993   30.46268  0.2974E-13  0.1531E-04  0.4335E-07  0.1617E-02  0.1295E-03  0.1361E+02
   -0.799995   30.46326  0.2974E-13  0.1542E-04  0.4284E-07  0.1660E-02  0.1222E-03  0.1401E+02
   -0.849996   30.46382  0.2974E-13  0.1551E-04  0.4244E-07  0.1695E-02  0.1154E-03  0.1495E+02
   -0.899998   30.46436  0.2974E-13  0.1557E-04  0.4213E-07  0.1723E-02  0.1090E-03  0.1564E+02
   -0.950000   30.46488  0.2974E-13  0.1561E-04  0.4191E-07  0.1742E-02  0.1029E-03  0.1699E+02
   -1.000001   30.46540  0.2974E-13  0.1564E-04  0.4179E-07  0.1753E-02  0.9721E-04  0.1808E+02
   -1.050003   30.46591  0.2974E-13  0.1564E-04  0.4177E-07  0.1754E-02  0.9178E-04  0.2079E+02
   -1.100005   30.46642  0.2974E-13  0.1562E-04  0.4186E-07  0.1838E-02  0.8662E-04  0.6818E+02
   -1.150006   30.46689  0.2974E-13  0.1558E-04  0.4207E-07  0.1676E-02  0.8201E-04  0.1529E+03
   -1.200008   30.46742  0.2974E-13  0.1552E-04  0.4241E-07  0.1699E-02  0.7724E-04  0.2991E+02
   -1.250009   30.46793  0.2974E-13  0.1543E-04  0.4291E-07  0.1670E-02  0.7268E-04  0.3149E+02
   -1.300011   30.46845  0.2974E-13  0.1532E-04  0.4360E-07  0.1622E-02  0.6828E-04  0.3722E+02
   -1.350012   30.46898  0.2974E-13  0.1517E-04  0.4454E-07  0.1564E-02  0.6403E-04  0.4393E+02
   -1.400013   30.46953  0.2974E-13  0.1499E-04  0.4580E-07  0.1489E-02  0.5988E-04  0.5460E+02
   -1.450014   30.47011  0.2974E-13  0.1477E-04  0.4751E-07  0.1412E-02  0.5582E-04  0.6863E+02
   -1.500014   30.47073  0.2974E-13  0.1450E-04  0.4985E-07  0.1304E-02  0.5182E-04  0.9317E+02
   -1.550015   30.47139  0.2974E-13  0.1417E-04  0.5315E-07  0.1217E-02  0.4784E-04  0.1307E+03
   -1.600015   30.47212  0.2974E-13  0.1377E-04  0.5810E-07  0.1076E-02  0.4391E-04  0.2544E+03
   -1.650015   30.47298  0.2974E-13  0.1324E-04  0.6573E-07  0.9919E-03  0.3978E-04  0.1780E+04
   -1.700014   30.47396  0.2974E-13  0.1253E-04  0.7920E-07  0.8160E-03  0.3568E-04  0.3800E+05
   -1.750013   30.47559  0.2974E-13  0.1157E-04  0.1014E-06  0.7320E-03  0.3050E-04 -0.1611E+06
   -1.800012   30.47711  0.2974E-13  0.1025E-04  0.1477E-06  0.5227E-03  0.2614E-04  0.9306E+05
   -1.850010   30.48247  0.2974E-13  0.8723E-05  0.2348E-06  0.4661E-03  0.1906E-04  0.6768E+08
   -1.900008   30.48216  0.2974E-13  0.6860E-05  0.4955E-06  0.2083E-03  0.1529E-04 -0.2303E+07
   -1.950005   30.50025  0.2974E-13  0.4782E-05  0.1249E-05  0.1808E-03  0.8232E-05 -0.3859E+07
   -2.000002   30.50292  0.2974E-13  0.0000E+00  0.0000E+00  0.0000E+00  0.1474E-04  0.0000E+00
