 1 - depth, m
 2 - temperature, C
 3 - salinity, kg/kg
 4 - turbulent kinetic energy, m**2/s**2
 5 - dissipation rate, m**2/s**3
 6 - kinematic heat conductance, m**2/s
 7 - modulus of horizontal velocity, m/s
 8 - Richardson number, n/d
   -0.000000   30.74088  0.1050E-13  0.4912E-05  0.3098E-06  0.5032E-04  0.1050E-02  0.7580E+04
   -0.049997   30.77259  0.1050E-13  0.8505E-05  0.1376E-06  0.1820E-03  0.5945E-03  0.6508E+04
   -0.099994   30.78454  0.1050E-13  0.1031E-04  0.9499E-07  0.4082E-03  0.4363E-03  0.5038E+02
   -0.149992   30.78782  0.1050E-13  0.1144E-04  0.7989E-07  0.4884E-03  0.3858E-03  0.2475E+02
   -0.199991   30.79045  0.1050E-13  0.1232E-04  0.7101E-07  0.6526E-03  0.3448E-03  0.1597E+02
   -0.249989   30.79236  0.1050E-13  0.1302E-04  0.6519E-07  0.7787E-03  0.3141E-03  0.1188E+02
   -0.299988   30.79391  0.1050E-13  0.1358E-04  0.6103E-07  0.9051E-03  0.2885E-03  0.9450E+01
   -0.349988   30.79522  0.1050E-13  0.1405E-04  0.5791E-07  0.1019E-02  0.2666E-03  0.8124E+01
   -0.399988   30.79635  0.1050E-13  0.1445E-04  0.5548E-07  0.1123E-02  0.2472E-03  0.7223E+01
   -0.449988   30.79735  0.1050E-13  0.1479E-04  0.5350E-07  0.1220E-02  0.2301E-03  0.6816E+01
   -0.499988   30.79826  0.1050E-13  0.1508E-04  0.5186E-07  0.1309E-02  0.2151E-03  0.6604E+01
   -0.549989   30.79908  0.1050E-13  0.1533E-04  0.5050E-07  0.1390E-02  0.2015E-03  0.6552E+01
   -0.599989   30.79985  0.1050E-13  0.1555E-04  0.4934E-07  0.1463E-02  0.1893E-03  0.6523E+01
   -0.649990   30.80056  0.1050E-13  0.1574E-04  0.4837E-07  0.1529E-02  0.1781E-03  0.6645E+01
   -0.699992   30.80124  0.1050E-13  0.1589E-04  0.4754E-07  0.1587E-02  0.1678E-03  0.6759E+01
   -0.749993   30.80188  0.1050E-13  0.1602E-04  0.4685E-07  0.1637E-02  0.1583E-03  0.7029E+01
   -0.799994   30.80249  0.1050E-13  0.1613E-04  0.4629E-07  0.1679E-02  0.1495E-03  0.7282E+01
   -0.849996   30.80308  0.1050E-13  0.1621E-04  0.4583E-07  0.1713E-02  0.1412E-03  0.7713E+01
   -0.899998   30.80366  0.1050E-13  0.1626E-04  0.4548E-07  0.1739E-02  0.1334E-03  0.8130E+01
   -0.949999   30.80421  0.1050E-13  0.1630E-04  0.4523E-07  0.1757E-02  0.1261E-03  0.8775E+01
   -1.000001   30.80476  0.1050E-13  0.1631E-04  0.4509E-07  0.1766E-02  0.1192E-03  0.9416E+01
   -1.050003   30.80530  0.1050E-13  0.1630E-04  0.4506E-07  0.1765E-02  0.1126E-03  0.1076E+02
   -1.100004   30.80583  0.1050E-13  0.1627E-04  0.4515E-07  0.1861E-02  0.1063E-03  0.3507E+02
   -1.150006   30.80634  0.1050E-13  0.1621E-04  0.4539E-07  0.1667E-02  0.1008E-03  0.8207E+02
   -1.200008   30.80690  0.1050E-13  0.1613E-04  0.4576E-07  0.1700E-02  0.9490E-04  0.1570E+02
   -1.250009   30.80744  0.1050E-13  0.1602E-04  0.4633E-07  0.1668E-02  0.8934E-04  0.1663E+02
   -1.300010   30.80800  0.1050E-13  0.1588E-04  0.4712E-07  0.1616E-02  0.8396E-04  0.1968E+02
   -1.350012   30.80856  0.1050E-13  0.1571E-04  0.4820E-07  0.1553E-02  0.7876E-04  0.2352E+02
   -1.400013   30.80915  0.1050E-13  0.1550E-04  0.4966E-07  0.1473E-02  0.7367E-04  0.2945E+02
   -1.450013   30.80977  0.1050E-13  0.1524E-04  0.5168E-07  0.1393E-02  0.6867E-04  0.3773E+02
   -1.500014   30.81043  0.1050E-13  0.1492E-04  0.5449E-07  0.1279E-02  0.6374E-04  0.5219E+02
   -1.550014   30.81116  0.1050E-13  0.1454E-04  0.5852E-07  0.1194E-02  0.5880E-04  0.7581E+02
   -1.600014   30.81195  0.1050E-13  0.1406E-04  0.6474E-07  0.1051E-02  0.5392E-04  0.1616E+03
   -1.650014   30.81292  0.1050E-13  0.1343E-04  0.7463E-07  0.9703E-03  0.4867E-04  0.3783E+04
   -1.700014   30.81408  0.1050E-13  0.1257E-04  0.9216E-07  0.7911E-03  0.4332E-04 -0.2565E+05
   -1.750013   30.81608  0.1050E-13  0.1146E-04  0.1204E-06  0.7108E-03  0.3636E-04  0.2229E+06
   -1.800011   30.81765  0.1050E-13  0.9997E-05  0.1823E-06  0.4902E-03  0.3117E-04  0.3521E+05
   -1.850010   30.82503  0.1050E-13  0.8434E-05  0.2980E-06  0.4582E-03  0.2171E-04  0.7677E+08
   -1.900008   30.82282  0.1050E-13  0.6686E-05  0.6269E-06  0.2109E-03  0.1782E-04 -0.4349E+06
   -1.950005   30.84405  0.1050E-13  0.4726E-05  0.1539E-05  0.2004E-03  0.9441E-05 -0.8991E+06
   -2.000002   30.84475  0.1050E-13  0.0000E+00  0.0000E+00  0.0000E+00  0.1830E-04  0.0000E+00
