 1 - depth, m
 2 - temperature, C
 3 - salinity, kg/kg
 4 - turbulent kinetic energy, m**2/s**2
 5 - dissipation rate, m**2/s**3
 6 - kinematic heat conductance, m**2/s
 7 - modulus of horizontal velocity, m/s
 8 - Richardson number, n/d
   -0.000000   30.25240  0.1837E-13  0.4974E-05  0.3095E-06  0.5145E-04  0.2131E-02  0.5042E+04
   -0.049997   30.28293  0.1837E-13  0.8373E-05  0.1376E-06  0.1773E-03  0.1215E-02  0.2777E+04
   -0.099994   30.29463  0.1837E-13  0.1012E-04  0.9438E-07  0.3952E-03  0.8944E-03  0.1058E+02
   -0.149992   30.29796  0.1837E-13  0.1122E-04  0.7897E-07  0.4771E-03  0.7895E-03  0.5190E+01
   -0.199991   30.30061  0.1837E-13  0.1208E-04  0.6995E-07  0.6372E-03  0.7047E-03  0.3323E+01
   -0.249989   30.30254  0.1837E-13  0.1276E-04  0.6404E-07  0.7624E-03  0.6413E-03  0.2444E+01
   -0.299989   30.30410  0.1837E-13  0.1331E-04  0.5982E-07  0.8871E-03  0.5886E-03  0.1939E+01
   -0.349988   30.30541  0.1837E-13  0.1377E-04  0.5665E-07  0.1000E-02  0.5434E-03  0.1653E+01
   -0.399988   30.30654  0.1837E-13  0.1415E-04  0.5418E-07  0.1104E-02  0.5035E-03  0.1471E+01
   -0.449988   30.30754  0.1837E-13  0.1448E-04  0.5217E-07  0.1200E-02  0.4684E-03  0.1381E+01
   -0.499988   30.30844  0.1837E-13  0.1477E-04  0.5049E-07  0.1288E-02  0.4373E-03  0.1346E+01
   -0.549989   30.30926  0.1837E-13  0.1501E-04  0.4909E-07  0.1370E-02  0.4094E-03  0.1328E+01
   -0.599990   30.31003  0.1837E-13  0.1522E-04  0.4789E-07  0.1444E-02  0.3842E-03  0.1327E+01
   -0.649991   30.31074  0.1837E-13  0.1540E-04  0.4688E-07  0.1511E-02  0.3612E-03  0.1339E+01
   -0.699992   30.31140  0.1837E-13  0.1555E-04  0.4601E-07  0.1570E-02  0.3401E-03  0.1364E+01
   -0.749993   30.31204  0.1837E-13  0.1567E-04  0.4528E-07  0.1621E-02  0.3207E-03  0.1400E+01
   -0.799995   30.31264  0.1837E-13  0.1577E-04  0.4466E-07  0.1665E-02  0.3026E-03  0.1455E+01
   -0.849996   30.31322  0.1837E-13  0.1584E-04  0.4415E-07  0.1700E-02  0.2858E-03  0.1523E+01
   -0.899998   30.31378  0.1837E-13  0.1590E-04  0.4374E-07  0.1728E-02  0.2700E-03  0.1611E+01
   -0.950000   30.31432  0.1837E-13  0.1593E-04  0.4343E-07  0.1748E-02  0.2551E-03  0.1717E+01
   -1.000001   30.31486  0.1837E-13  0.1594E-04  0.4322E-07  0.1760E-02  0.2410E-03  0.1849E+01
   -1.050003   30.31538  0.1837E-13  0.1592E-04  0.4311E-07  0.1762E-02  0.2276E-03  0.2085E+01
   -1.100005   30.31589  0.1837E-13  0.1589E-04  0.4311E-07  0.1846E-02  0.2149E-03  0.6933E+01
   -1.150006   30.31638  0.1837E-13  0.1584E-04  0.4324E-07  0.1685E-02  0.2035E-03  0.1547E+02
   -1.200008   30.31691  0.1837E-13  0.1576E-04  0.4349E-07  0.1709E-02  0.1918E-03  0.2974E+01
   -1.250009   30.31743  0.1837E-13  0.1565E-04  0.4391E-07  0.1680E-02  0.1805E-03  0.3154E+01
   -1.300011   30.31795  0.1837E-13  0.1552E-04  0.4452E-07  0.1632E-02  0.1697E-03  0.3665E+01
   -1.350012   30.31849  0.1837E-13  0.1536E-04  0.4539E-07  0.1575E-02  0.1591E-03  0.4363E+01
   -1.400013   30.31904  0.1837E-13  0.1516E-04  0.4658E-07  0.1501E-02  0.1489E-03  0.5346E+01
   -1.450014   30.31961  0.1837E-13  0.1493E-04  0.4821E-07  0.1424E-02  0.1389E-03  0.6765E+01
   -1.500015   30.32022  0.1837E-13  0.1464E-04  0.5050E-07  0.1316E-02  0.1290E-03  0.9087E+01
   -1.550015   30.32087  0.1837E-13  0.1429E-04  0.5376E-07  0.1230E-02  0.1192E-03  0.1283E+02
   -1.600015   30.32158  0.1837E-13  0.1387E-04  0.5874E-07  0.1091E-02  0.1095E-03  0.2375E+02
   -1.650015   30.32243  0.1837E-13  0.1332E-04  0.6647E-07  0.1005E-02  0.9919E-04  0.9389E+02
   -1.700014   30.32339  0.1837E-13  0.1258E-04  0.8023E-07  0.8290E-03  0.8902E-04 -0.4930E+03
   -1.750013   30.32503  0.1837E-13  0.1160E-04  0.1027E-06  0.7445E-03  0.7588E-04  0.2272E+05
   -1.800012   30.32641  0.1837E-13  0.1028E-04  0.1519E-06  0.5255E-03  0.6533E-04  0.1187E+06
   -1.850010   30.33185  0.1837E-13  0.8788E-05  0.2422E-06  0.4779E-03  0.4754E-04  0.2028E+08
   -1.900008   30.33106  0.1837E-13  0.6953E-05  0.5041E-06  0.2170E-03  0.3863E-04 -0.3926E+06
   -1.950006   30.34793  0.1837E-13  0.4822E-05  0.1266E-05  0.1830E-03  0.2106E-04 -0.2908E+06
   -2.000003   30.35073  0.1837E-13  0.0000E+00  0.0000E+00  0.0000E+00  0.3763E-04  0.0000E+00
