 1 - depth, m
 2 - temperature, C
 3 - salinity, kg/kg
 4 - turbulent kinetic energy, m**2/s**2
 5 - dissipation rate, m**2/s**3
 6 - kinematic heat conductance, m**2/s
 7 - modulus of horizontal velocity, m/s
 8 - Richardson number, n/d
   -0.000000   29.81320  0.4865E-13  0.4521E-05  0.2699E-06  0.4869E-04  0.1355E-02  0.4048E+04
   -0.049997   29.84237  0.4865E-13  0.7777E-05  0.1205E-06  0.1719E-03  0.7703E-03  0.5324E+03
   -0.099994   29.85357  0.4865E-13  0.9423E-05  0.8309E-07  0.3885E-03  0.5629E-03  0.2649E+02
   -0.149992   29.85668  0.4865E-13  0.1045E-04  0.6986E-07  0.4675E-03  0.4967E-03  0.1284E+02
   -0.199991   29.85915  0.4865E-13  0.1124E-04  0.6206E-07  0.6222E-03  0.4432E-03  0.8268E+01
   -0.249989   29.86096  0.4865E-13  0.1187E-04  0.5691E-07  0.7437E-03  0.4029E-03  0.6098E+01
   -0.299989   29.86242  0.4866E-13  0.1238E-04  0.5322E-07  0.8637E-03  0.3695E-03  0.4846E+01
   -0.349988   29.86364  0.4866E-13  0.1280E-04  0.5044E-07  0.9727E-03  0.3407E-03  0.4141E+01
   -0.399988   29.86470  0.4866E-13  0.1315E-04  0.4827E-07  0.1072E-02  0.3154E-03  0.3686E+01
   -0.449988   29.86564  0.4866E-13  0.1346E-04  0.4649E-07  0.1165E-02  0.2930E-03  0.3463E+01
   -0.499988   29.86649  0.4866E-13  0.1372E-04  0.4501E-07  0.1250E-02  0.2733E-03  0.3368E+01
   -0.549989   29.86726  0.4866E-13  0.1394E-04  0.4376E-07  0.1328E-02  0.2556E-03  0.3324E+01
   -0.599990   29.86798  0.4866E-13  0.1413E-04  0.4269E-07  0.1398E-02  0.2397E-03  0.3322E+01
   -0.649991   29.86864  0.4866E-13  0.1429E-04  0.4178E-07  0.1462E-02  0.2251E-03  0.3362E+01
   -0.699992   29.86927  0.4866E-13  0.1442E-04  0.4101E-07  0.1518E-02  0.2118E-03  0.3432E+01
   -0.749993   29.86986  0.4866E-13  0.1454E-04  0.4034E-07  0.1567E-02  0.1994E-03  0.3541E+01
   -0.799995   29.87043  0.4866E-13  0.1462E-04  0.3978E-07  0.1609E-02  0.1880E-03  0.3681E+01
   -0.849997   29.87097  0.4866E-13  0.1469E-04  0.3931E-07  0.1644E-02  0.1773E-03  0.3863E+01
   -0.899998   29.87150  0.4866E-13  0.1473E-04  0.3893E-07  0.1671E-02  0.1673E-03  0.4084E+01
   -0.950000   29.87201  0.4866E-13  0.1476E-04  0.3863E-07  0.1690E-02  0.1578E-03  0.4361E+01
   -1.000002   29.87250  0.4866E-13  0.1476E-04  0.3843E-07  0.1701E-02  0.1489E-03  0.4691E+01
   -1.050003   29.87299  0.4866E-13  0.1475E-04  0.3831E-07  0.1704E-02  0.1405E-03  0.5299E+01
   -1.100005   29.87347  0.4866E-13  0.1471E-04  0.3828E-07  0.1783E-02  0.1324E-03  0.1762E+02
   -1.150007   29.87393  0.4866E-13  0.1466E-04  0.3837E-07  0.1633E-02  0.1253E-03  0.3922E+02
   -1.200008   29.87442  0.4866E-13  0.1458E-04  0.3857E-07  0.1653E-02  0.1179E-03  0.7556E+01
   -1.250010   29.87490  0.4866E-13  0.1448E-04  0.3890E-07  0.1625E-02  0.1108E-03  0.7998E+01
   -1.300011   29.87538  0.4866E-13  0.1436E-04  0.3941E-07  0.1580E-02  0.1040E-03  0.9303E+01
   -1.350013   29.87587  0.4866E-13  0.1421E-04  0.4013E-07  0.1524E-02  0.9741E-04  0.1104E+02
   -1.400014   29.87638  0.4866E-13  0.1402E-04  0.4113E-07  0.1453E-02  0.9101E-04  0.1351E+02
   -1.450014   29.87691  0.4866E-13  0.1380E-04  0.4251E-07  0.1377E-02  0.8475E-04  0.1702E+02
   -1.500015   29.87746  0.4866E-13  0.1354E-04  0.4443E-07  0.1274E-02  0.7861E-04  0.2270E+02
   -1.550015   29.87806  0.4866E-13  0.1321E-04  0.4717E-07  0.1187E-02  0.7249E-04  0.3169E+02
   -1.600016   29.87870  0.4866E-13  0.1282E-04  0.5129E-07  0.1052E-02  0.6648E-04  0.5247E+02
   -1.650015   29.87945  0.4866E-13  0.1233E-04  0.5771E-07  0.9697E-03  0.6020E-04  0.1770E+03
   -1.700015   29.88030  0.4866E-13  0.1165E-04  0.6938E-07  0.7990E-03  0.5400E-04  0.1467E+03
   -1.750014   29.88173  0.4866E-13  0.1073E-04  0.8887E-07  0.7123E-03  0.4606E-04  0.8054E+05
   -1.800013   29.88311  0.4866E-13  0.9461E-05  0.1296E-06  0.4998E-03  0.3935E-04  0.7869E+05
   -1.850011   29.88772  0.4866E-13  0.7998E-05  0.2049E-06  0.4504E-03  0.2850E-04  0.3530E+09
   -1.900009   29.88733  0.4866E-13  0.6256E-05  0.4267E-06  0.2002E-03  0.2290E-04 -0.4635E+07
   -1.950006   29.90279  0.4866E-13  0.4322E-05  0.1086E-05  0.1756E-03  0.1221E-04 -0.3730E+06
   -2.000003   29.90453  0.4866E-13  0.0000E+00  0.0000E+00  0.0000E+00  0.2224E-04  0.0000E+00
