 1 - depth, m
 2 - temperature, C
 3 - salinity, kg/kg
 4 - turbulent kinetic energy, m**2/s**2
 5 - dissipation rate, m**2/s**3
 6 - kinematic heat conductance, m**2/s
 7 - modulus of horizontal velocity, m/s
 8 - Richardson number, n/d
   -0.000000   30.24026  0.2148E-13  0.4590E-05  0.2789E-06  0.4906E-04  0.1123E-02  0.4094E+04
   -0.049997   30.26934  0.2148E-13  0.7966E-05  0.1241E-06  0.1762E-03  0.6350E-03  0.1158E+03
   -0.099994   30.28049  0.2148E-13  0.9671E-05  0.8573E-07  0.3984E-03  0.4644E-03  0.3654E+02
   -0.149992   30.28353  0.2148E-13  0.1074E-04  0.7216E-07  0.4784E-03  0.4102E-03  0.1786E+02
   -0.199991   30.28596  0.2148E-13  0.1157E-04  0.6420E-07  0.6384E-03  0.3663E-03  0.1152E+02
   -0.249989   30.28773  0.2148E-13  0.1223E-04  0.5899E-07  0.7627E-03  0.3333E-03  0.8535E+01
   -0.299988   30.28917  0.2148E-13  0.1278E-04  0.5527E-07  0.8864E-03  0.3060E-03  0.6807E+01
   -0.349988   30.29039  0.2148E-13  0.1323E-04  0.5249E-07  0.9985E-03  0.2825E-03  0.5840E+01
   -0.399988   30.29144  0.2148E-13  0.1361E-04  0.5034E-07  0.1101E-02  0.2617E-03  0.5209E+01
   -0.449988   30.29238  0.2148E-13  0.1394E-04  0.4859E-07  0.1196E-02  0.2434E-03  0.4902E+01
   -0.499988   30.29322  0.2148E-13  0.1423E-04  0.4714E-07  0.1284E-02  0.2273E-03  0.4769E+01
   -0.549989   30.29400  0.2148E-13  0.1448E-04  0.4594E-07  0.1364E-02  0.2128E-03  0.4717E+01
   -0.599990   30.29472  0.2148E-13  0.1469E-04  0.4494E-07  0.1437E-02  0.1997E-03  0.4720E+01
   -0.649991   30.29539  0.2148E-13  0.1488E-04  0.4409E-07  0.1502E-02  0.1878E-03  0.4793E+01
   -0.699992   30.29602  0.2148E-13  0.1504E-04  0.4339E-07  0.1560E-02  0.1768E-03  0.4902E+01
   -0.749993   30.29662  0.2148E-13  0.1518E-04  0.4280E-07  0.1610E-02  0.1667E-03  0.5079E+01
   -0.799995   30.29720  0.2148E-13  0.1529E-04  0.4233E-07  0.1653E-02  0.1573E-03  0.5293E+01
   -0.849996   30.29775  0.2148E-13  0.1538E-04  0.4195E-07  0.1688E-02  0.1485E-03  0.5585E+01
   -0.899998   30.29829  0.2148E-13  0.1545E-04  0.4167E-07  0.1715E-02  0.1402E-03  0.5923E+01
   -0.950000   30.29882  0.2148E-13  0.1550E-04  0.4149E-07  0.1734E-02  0.1325E-03  0.6362E+01
   -1.000001   30.29934  0.2148E-13  0.1553E-04  0.4140E-07  0.1745E-02  0.1251E-03  0.6871E+01
   -1.050003   30.29985  0.2148E-13  0.1554E-04  0.4141E-07  0.1747E-02  0.1181E-03  0.7819E+01
   -1.100005   30.30035  0.2148E-13  0.1552E-04  0.4152E-07  0.1829E-02  0.1115E-03  0.2601E+02
   -1.150006   30.30084  0.2148E-13  0.1549E-04  0.4177E-07  0.1669E-02  0.1056E-03  0.5841E+02
   -1.200008   30.30136  0.2148E-13  0.1543E-04  0.4213E-07  0.1691E-02  0.9941E-04  0.1132E+02
   -1.250009   30.30188  0.2148E-13  0.1535E-04  0.4267E-07  0.1661E-02  0.9354E-04  0.1210E+02
   -1.300011   30.30240  0.2148E-13  0.1524E-04  0.4339E-07  0.1613E-02  0.8788E-04  0.1419E+02
   -1.350012   30.30294  0.2148E-13  0.1510E-04  0.4437E-07  0.1555E-02  0.8239E-04  0.1699E+02
   -1.400013   30.30350  0.2148E-13  0.1493E-04  0.4567E-07  0.1480E-02  0.7705E-04  0.2102E+02
   -1.450014   30.30409  0.2148E-13  0.1471E-04  0.4742E-07  0.1404E-02  0.7182E-04  0.2676E+02
   -1.500014   30.30471  0.2148E-13  0.1445E-04  0.4982E-07  0.1294E-02  0.6668E-04  0.3632E+02
   -1.550015   30.30540  0.2148E-13  0.1412E-04  0.5318E-07  0.1209E-02  0.6152E-04  0.5150E+02
   -1.600015   30.30613  0.2148E-13  0.1371E-04  0.5826E-07  0.1067E-02  0.5647E-04  0.9658E+02
   -1.650015   30.30703  0.2148E-13  0.1319E-04  0.6601E-07  0.9862E-03  0.5109E-04  0.7465E+03
   -1.700014   30.30802  0.2148E-13  0.1247E-04  0.7991E-07  0.8096E-03  0.4588E-04 -0.2832E+03
   -1.750013   30.30978  0.2148E-13  0.1150E-04  0.1031E-06  0.7253E-03  0.3900E-04  0.2545E+06
   -1.800012   30.31136  0.2148E-13  0.1016E-04  0.1512E-06  0.5095E-03  0.3340E-04  0.1128E+07
   -1.850010   30.31723  0.2148E-13  0.8648E-05  0.2413E-06  0.4621E-03  0.2415E-04  0.3208E+08
   -1.900008   30.31645  0.2148E-13  0.6850E-05  0.5080E-06  0.2070E-03  0.1948E-04  0.1390E+07
   -1.950006   30.33550  0.2148E-13  0.4785E-05  0.1271E-05  0.1831E-03  0.1057E-04 -0.7105E+06
   -2.000003   30.33735  0.2148E-13  0.0000E+00  0.0000E+00  0.0000E+00  0.1897E-04  0.0000E+00
