 1 - depth, m
 2 - temperature, C
 3 - salinity, kg/kg
 4 - turbulent kinetic energy, m**2/s**2
 5 - dissipation rate, m**2/s**3
 6 - kinematic heat conductance, m**2/s
 7 - modulus of horizontal velocity, m/s
 8 - Richardson number, n/d
   -0.000000   30.28797  0.1056E-14  0.5001E-05  0.3124E-06  0.5162E-04  0.2129E-02  0.3182E+04
   -0.049997   30.31864  0.1056E-14  0.8416E-05  0.1389E-06  0.1773E-03  0.1216E-02  0.5240E+03
   -0.099994   30.33047  0.1056E-14  0.1018E-04  0.9524E-07  0.3961E-03  0.8947E-03  0.1065E+02
   -0.149992   30.33383  0.1056E-14  0.1129E-04  0.7969E-07  0.4778E-03  0.7899E-03  0.5224E+01
   -0.199991   30.33650  0.1056E-14  0.1215E-04  0.7060E-07  0.6382E-03  0.7052E-03  0.3344E+01
   -0.249989   30.33843  0.1056E-14  0.1283E-04  0.6464E-07  0.7636E-03  0.6418E-03  0.2461E+01
   -0.299988   30.34001  0.1056E-14  0.1339E-04  0.6039E-07  0.8883E-03  0.5891E-03  0.1953E+01
   -0.349988   30.34133  0.1056E-14  0.1385E-04  0.5720E-07  0.1001E-02  0.5440E-03  0.1666E+01
   -0.399988   30.34247  0.1056E-14  0.1423E-04  0.5471E-07  0.1105E-02  0.5041E-03  0.1483E+01
   -0.449988   30.34348  0.1056E-14  0.1456E-04  0.5269E-07  0.1201E-02  0.4690E-03  0.1393E+01
   -0.499988   30.34439  0.1056E-14  0.1485E-04  0.5100E-07  0.1289E-02  0.4379E-03  0.1357E+01
   -0.549989   30.34522  0.1056E-14  0.1509E-04  0.4959E-07  0.1370E-02  0.4101E-03  0.1340E+01
   -0.599990   30.34599  0.1056E-14  0.1530E-04  0.4839E-07  0.1444E-02  0.3849E-03  0.1340E+01
   -0.649991   30.34671  0.1056E-14  0.1548E-04  0.4737E-07  0.1510E-02  0.3619E-03  0.1353E+01
   -0.699992   30.34738  0.1056E-14  0.1563E-04  0.4650E-07  0.1569E-02  0.3408E-03  0.1379E+01
   -0.749993   30.34802  0.1056E-14  0.1575E-04  0.4577E-07  0.1619E-02  0.3214E-03  0.1420E+01
   -0.799995   30.34863  0.1056E-14  0.1585E-04  0.4515E-07  0.1662E-02  0.3033E-03  0.1476E+01
   -0.849996   30.34922  0.1056E-14  0.1592E-04  0.4464E-07  0.1697E-02  0.2864E-03  0.1548E+01
   -0.899998   30.34979  0.1056E-14  0.1597E-04  0.4424E-07  0.1724E-02  0.2706E-03  0.1639E+01
   -0.950000   30.35034  0.1056E-14  0.1600E-04  0.4393E-07  0.1743E-02  0.2557E-03  0.1751E+01
   -1.000001   30.35088  0.1056E-14  0.1600E-04  0.4373E-07  0.1753E-02  0.2416E-03  0.1887E+01
   -1.050003   30.35141  0.1056E-14  0.1599E-04  0.4363E-07  0.1754E-02  0.2282E-03  0.2133E+01
   -1.100005   30.35193  0.1056E-14  0.1595E-04  0.4364E-07  0.1844E-02  0.2154E-03  0.7039E+01
   -1.150006   30.35242  0.1056E-14  0.1589E-04  0.4379E-07  0.1667E-02  0.2040E-03  0.1610E+02
   -1.200008   30.35297  0.1056E-14  0.1580E-04  0.4406E-07  0.1695E-02  0.1922E-03  0.3072E+01
   -1.250009   30.35350  0.1056E-14  0.1569E-04  0.4451E-07  0.1665E-02  0.1809E-03  0.3262E+01
   -1.300011   30.35403  0.1056E-14  0.1555E-04  0.4516E-07  0.1615E-02  0.1700E-03  0.3809E+01
   -1.350012   30.35457  0.1056E-14  0.1538E-04  0.4608E-07  0.1555E-02  0.1595E-03  0.4555E+01
   -1.400013   30.35514  0.1056E-14  0.1517E-04  0.4734E-07  0.1478E-02  0.1492E-03  0.5618E+01
   -1.450014   30.35573  0.1056E-14  0.1492E-04  0.4907E-07  0.1399E-02  0.1391E-03  0.7165E+01
   -1.500014   30.35635  0.1056E-14  0.1462E-04  0.5151E-07  0.1288E-02  0.1292E-03  0.9720E+01
   -1.550015   30.35703  0.1056E-14  0.1425E-04  0.5499E-07  0.1201E-02  0.1192E-03  0.1391E+02
   -1.600015   30.35776  0.1056E-14  0.1379E-04  0.6034E-07  0.1060E-02  0.1094E-03  0.2595E+02
   -1.650015   30.35865  0.1056E-14  0.1321E-04  0.6873E-07  0.9780E-03  0.9896E-04  0.7273E+03
   -1.700014   30.35967  0.1056E-14  0.1242E-04  0.8384E-07  0.8011E-03  0.8861E-04  0.1321E+04
   -1.750013   30.36143  0.1056E-14  0.1136E-04  0.1089E-06  0.7169E-03  0.7501E-04  0.3513E+05
   -1.800012   30.36304  0.1056E-14  0.9924E-05  0.1645E-06  0.5015E-03  0.6401E-04  0.6631E+05
   -1.850010   30.36913  0.1056E-14  0.8359E-05  0.2637E-06  0.4560E-03  0.4546E-04  0.3383E+08
   -1.900008   30.36781  0.1056E-14  0.6541E-05  0.5559E-06  0.2037E-03  0.3682E-04 -0.4601E+06
   -1.950006   30.38672  0.1056E-14  0.4608E-05  0.1371E-05  0.1955E-03  0.1942E-04 -0.2932E+06
   -2.000003   30.38721  0.1056E-14  0.0000E+00  0.0000E+00  0.0000E+00  0.3718E-04  0.0000E+00
