 1 - depth, m
 2 - temperature, C
 3 - salinity, kg/kg
 4 - turbulent kinetic energy, m**2/s**2
 5 - dissipation rate, m**2/s**3
 6 - kinematic heat conductance, m**2/s
 7 - modulus of horizontal velocity, m/s
 8 - Richardson number, n/d
   -0.000000   29.44149  0.1055E-12  0.4517E-05  0.2466E-06  0.4746E-04  0.2496E-02  0.2186E+04
   -0.049997   29.46869  0.1055E-12  0.7529E-05  0.1088E-06  0.1823E-03  0.1347E-02  0.3593E+02
   -0.099994   29.47741  0.1055E-12  0.8962E-05  0.7660E-07  0.3706E-03  0.1026E-02  0.7412E+01
   -0.149992   29.48034  0.1055E-12  0.9895E-05  0.6436E-07  0.4626E-03  0.9034E-03  0.3714E+01
   -0.199991   29.48258  0.1055E-12  0.1063E-04  0.5718E-07  0.6046E-03  0.8081E-03  0.2416E+01
   -0.249989   29.48425  0.1055E-12  0.1121E-04  0.5245E-07  0.7231E-03  0.7353E-03  0.1790E+01
   -0.299989   29.48561  0.1055E-12  0.1169E-04  0.4909E-07  0.8349E-03  0.6747E-03  0.1440E+01
   -0.349988   29.48675  0.1055E-12  0.1210E-04  0.4655E-07  0.9362E-03  0.6224E-03  0.1286E+01
   -0.399988   29.48775  0.1055E-12  0.1245E-04  0.4453E-07  0.1035E-02  0.5751E-03  0.1229E+01
   -0.449988   29.48864  0.1055E-12  0.1277E-04  0.4285E-07  0.1134E-02  0.5321E-03  0.1221E+01
   -0.499988   29.48943  0.1055E-12  0.1305E-04  0.4143E-07  0.1228E-02  0.4932E-03  0.1222E+01
   -0.549989   29.49014  0.1055E-12  0.1329E-04  0.4025E-07  0.1315E-02  0.4581E-03  0.1219E+01
   -0.599990   29.49080  0.1055E-12  0.1351E-04  0.3926E-07  0.1394E-02  0.4264E-03  0.1214E+01
   -0.649991   29.49141  0.1055E-12  0.1369E-04  0.3843E-07  0.1465E-02  0.3977E-03  0.1208E+01
   -0.699992   29.49198  0.1055E-12  0.1385E-04  0.3775E-07  0.1526E-02  0.3717E-03  0.1201E+01
   -0.749993   29.49253  0.1055E-12  0.1397E-04  0.3719E-07  0.1578E-02  0.3482E-03  0.1196E+01
   -0.799995   29.49305  0.1055E-12  0.1408E-04  0.3675E-07  0.1621E-02  0.3268E-03  0.1199E+01
   -0.849996   29.49354  0.1055E-12  0.1416E-04  0.3640E-07  0.1655E-02  0.3073E-03  0.1216E+01
   -0.899998   29.49403  0.1055E-12  0.1422E-04  0.3615E-07  0.1680E-02  0.2895E-03  0.1254E+01
   -0.950000   29.49450  0.1055E-12  0.1426E-04  0.3598E-07  0.1698E-02  0.2729E-03  0.1320E+01
   -1.000002   29.49497  0.1055E-12  0.1429E-04  0.3589E-07  0.1708E-02  0.2575E-03  0.1418E+01
   -1.050003   29.49543  0.1055E-12  0.1429E-04  0.3588E-07  0.1709E-02  0.2429E-03  0.1609E+01
   -1.100005   29.49588  0.1055E-12  0.1428E-04  0.3596E-07  0.1786E-02  0.2290E-03  0.5394E+01
   -1.150007   29.49631  0.1055E-12  0.1425E-04  0.3615E-07  0.1641E-02  0.2165E-03  0.1188E+02
   -1.200008   29.49678  0.1055E-12  0.1420E-04  0.3645E-07  0.1660E-02  0.2038E-03  0.2316E+01
   -1.250010   29.49725  0.1055E-12  0.1413E-04  0.3687E-07  0.1631E-02  0.1915E-03  0.2472E+01
   -1.300011   29.49772  0.1055E-12  0.1403E-04  0.3746E-07  0.1586E-02  0.1798E-03  0.2882E+01
   -1.350012   29.49820  0.1055E-12  0.1391E-04  0.3825E-07  0.1532E-02  0.1684E-03  0.3435E+01
   -1.400013   29.49870  0.1055E-12  0.1376E-04  0.3931E-07  0.1462E-02  0.1573E-03  0.4203E+01
   -1.450014   29.49922  0.1055E-12  0.1358E-04  0.4071E-07  0.1388E-02  0.1465E-03  0.5302E+01
   -1.500015   29.49977  0.1055E-12  0.1335E-04  0.4262E-07  0.1286E-02  0.1359E-03  0.7033E+01
   -1.550015   29.50037  0.1055E-12  0.1308E-04  0.4527E-07  0.1201E-02  0.1253E-03  0.9759E+01
   -1.600015   29.50101  0.1055E-12  0.1273E-04  0.4918E-07  0.1064E-02  0.1150E-03  0.1587E+02
   -1.650015   29.50177  0.1055E-12  0.1230E-04  0.5509E-07  0.9845E-03  0.1041E-03  0.4297E+02
   -1.700015   29.50261  0.1055E-12  0.1171E-04  0.6564E-07  0.8078E-03  0.9366E-04  0.9418E+03
   -1.750014   29.50401  0.1055E-12  0.1089E-04  0.8327E-07  0.7298E-03  0.8029E-04  0.1115E+05
   -1.800013   29.50538  0.1055E-12  0.9724E-05  0.1198E-06  0.5147E-03  0.6898E-04  0.1988E+05
   -1.850011   29.50976  0.1055E-12  0.8319E-05  0.1872E-06  0.4612E-03  0.5076E-04  0.1255E+07
   -1.900009   29.50985  0.1055E-12  0.6575E-05  0.3867E-06  0.2046E-03  0.4076E-04  0.8275E+03
   -1.950006   29.52568  0.1055E-12  0.4519E-05  0.1001E-05  0.1655E-03  0.2221E-04 -0.3659E+06
   -2.000003   29.52892  0.1055E-12  0.0000E+00  0.0000E+00  0.0000E+00  0.3825E-04  0.0000E+00
