 1 - depth, m
 2 - temperature, C
 3 - salinity, kg/kg
 4 - turbulent kinetic energy, m**2/s**2
 5 - dissipation rate, m**2/s**3
 6 - kinematic heat conductance, m**2/s
 7 - modulus of horizontal velocity, m/s
 8 - Richardson number, n/d
   -0.000000   30.46359  0.6419E-13  0.5313E-05  0.3025E-06  0.5168E-04  0.3302E-02  0.9040E+03
   -0.049997   30.49384  0.6419E-13  0.8618E-05  0.1313E-06  0.2011E-03  0.1780E-02  0.1022E+04
   -0.099994   30.50309  0.6419E-13  0.1015E-04  0.9311E-07  0.3860E-03  0.1392E-02  0.4790E+01
   -0.149992   30.50639  0.6419E-13  0.1117E-04  0.7842E-07  0.4826E-03  0.1239E-02  0.2478E+01
   -0.199991   30.50892  0.6419E-13  0.1197E-04  0.6983E-07  0.6214E-03  0.1119E-02  0.1652E+01
   -0.249989   30.51082  0.6419E-13  0.1261E-04  0.6420E-07  0.7309E-03  0.1027E-02  0.1306E+01
   -0.299988   30.51240  0.6419E-13  0.1317E-04  0.6006E-07  0.8388E-03  0.9473E-03  0.1245E+01
   -0.349988   30.51373  0.6419E-13  0.1368E-04  0.5673E-07  0.9600E-03  0.8729E-03  0.1313E+01
   -0.399988   30.51488  0.6419E-13  0.1414E-04  0.5396E-07  0.1090E-02  0.8005E-03  0.1338E+01
   -0.449988   30.51586  0.6419E-13  0.1457E-04  0.5163E-07  0.1217E-02  0.7334E-03  0.1348E+01
   -0.499988   30.51672  0.6419E-13  0.1494E-04  0.4969E-07  0.1336E-02  0.6728E-03  0.1352E+01
   -0.549989   30.51749  0.6419E-13  0.1527E-04  0.4808E-07  0.1446E-02  0.6185E-03  0.1347E+01
   -0.599990   30.51819  0.6419E-13  0.1554E-04  0.4675E-07  0.1544E-02  0.5697E-03  0.1338E+01
   -0.649991   30.51883  0.6419E-13  0.1577E-04  0.4566E-07  0.1631E-02  0.5259E-03  0.1324E+01
   -0.699992   30.51943  0.6419E-13  0.1595E-04  0.4477E-07  0.1704E-02  0.4865E-03  0.1306E+01
   -0.749993   30.52000  0.6419E-13  0.1610E-04  0.4406E-07  0.1765E-02  0.4511E-03  0.1285E+01
   -0.799995   30.52054  0.6419E-13  0.1621E-04  0.4351E-07  0.1811E-02  0.4193E-03  0.1261E+01
   -0.849996   30.52106  0.6419E-13  0.1628E-04  0.4311E-07  0.1845E-02  0.3906E-03  0.1234E+01
   -0.899998   30.52156  0.6419E-13  0.1632E-04  0.4283E-07  0.1866E-02  0.3649E-03  0.1203E+01
   -0.949999   30.52205  0.6419E-13  0.1634E-04  0.4268E-07  0.1875E-02  0.3418E-03  0.1173E+01
   -1.000001   30.52254  0.6419E-13  0.1633E-04  0.4264E-07  0.1875E-02  0.3210E-03  0.1152E+01
   -1.050003   30.52302  0.6419E-13  0.1630E-04  0.4271E-07  0.1862E-02  0.3022E-03  0.1183E+01
   -1.100005   30.52350  0.6419E-13  0.1625E-04  0.4288E-07  0.1995E-02  0.2852E-03  0.3482E+01
   -1.150006   30.52394  0.6419E-13  0.1618E-04  0.4320E-07  0.1708E-02  0.2711E-03  0.8700E+01
   -1.200008   30.52446  0.6419E-13  0.1608E-04  0.4363E-07  0.1772E-02  0.2556E-03  0.1601E+01
   -1.250009   30.52496  0.6419E-13  0.1596E-04  0.4425E-07  0.1737E-02  0.2410E-03  0.1703E+01
   -1.300011   30.52546  0.6419E-13  0.1581E-04  0.4509E-07  0.1677E-02  0.2270E-03  0.2009E+01
   -1.350012   30.52597  0.6419E-13  0.1563E-04  0.4622E-07  0.1609E-02  0.2133E-03  0.2428E+01
   -1.400013   30.52651  0.6419E-13  0.1540E-04  0.4774E-07  0.1519E-02  0.1999E-03  0.3045E+01
   -1.450014   30.52708  0.6419E-13  0.1514E-04  0.4981E-07  0.1436E-02  0.1866E-03  0.3945E+01
   -1.500014   30.52769  0.6419E-13  0.1481E-04  0.5269E-07  0.1312E-02  0.1736E-03  0.5522E+01
   -1.550015   30.52836  0.6419E-13  0.1442E-04  0.5680E-07  0.1229E-02  0.1603E-03  0.8264E+01
   -1.600015   30.52909  0.6419E-13  0.1393E-04  0.6329E-07  0.1073E-02  0.1473E-03  0.6031E+04
   -1.650015   30.53005  0.6419E-13  0.1329E-04  0.7338E-07  0.9960E-03  0.1328E-03  0.7580E+03
   -1.700014   30.53110  0.6419E-13  0.1242E-04  0.9114E-07  0.8001E-03  0.1187E-03  0.6111E+04
   -1.750013   30.53310  0.6419E-13  0.1131E-04  0.1198E-06  0.7272E-03  0.9931E-04  0.9951E+05
   -1.800012   30.53445  0.6419E-13  0.9891E-05  0.1822E-06  0.4956E-03  0.8559E-04  0.4924E+05
   -1.850010   30.54162  0.6419E-13  0.8369E-05  0.2990E-06  0.4670E-03  0.5982E-04  0.1606E+08
   -1.900008   30.53924  0.6419E-13  0.6617E-05  0.6262E-06  0.2124E-03  0.4927E-04  0.2533E+06
   -1.950005   30.55932  0.6419E-13  0.4673E-05  0.1529E-05  0.2031E-03  0.2604E-04 -0.1275E+06
   -2.000002   30.56052  0.6419E-13  0.0000E+00  0.0000E+00  0.0000E+00  0.5055E-04  0.0000E+00
