 1 - depth, m
 2 - temperature, C
 3 - salinity, kg/kg
 4 - turbulent kinetic energy, m**2/s**2
 5 - dissipation rate, m**2/s**3
 6 - kinematic heat conductance, m**2/s
 7 - modulus of horizontal velocity, m/s
 8 - Richardson number, n/d
   -0.000000   30.37668  0.2161E-14  0.4837E-05  0.3008E-06  0.5100E-04  0.1908E-02  0.7357E+04
   -0.049997   30.40610  0.2161E-14  0.8196E-05  0.1339E-06  0.1734E-03  0.1099E-02  0.2458E+04
   -0.099994   30.41793  0.2161E-14  0.9953E-05  0.9153E-07  0.3970E-03  0.8000E-03  0.1298E+02
   -0.149992   30.42113  0.2161E-14  0.1105E-04  0.7668E-07  0.4758E-03  0.7066E-03  0.6323E+01
   -0.199991   30.42369  0.2161E-14  0.1190E-04  0.6799E-07  0.6374E-03  0.6305E-03  0.4045E+01
   -0.249989   30.42555  0.2161E-14  0.1258E-04  0.6232E-07  0.7623E-03  0.5738E-03  0.2976E+01
   -0.299988   30.42706  0.2161E-14  0.1314E-04  0.5828E-07  0.8874E-03  0.5266E-03  0.2365E+01
   -0.349988   30.42833  0.2161E-14  0.1360E-04  0.5525E-07  0.1001E-02  0.4862E-03  0.2018E+01
   -0.399988   30.42942  0.2161E-14  0.1398E-04  0.5290E-07  0.1104E-02  0.4505E-03  0.1798E+01
   -0.449988   30.43040  0.2161E-14  0.1432E-04  0.5099E-07  0.1201E-02  0.4191E-03  0.1685E+01
   -0.499988   30.43127  0.2161E-14  0.1461E-04  0.4941E-07  0.1290E-02  0.3913E-03  0.1640E+01
   -0.549989   30.43208  0.2161E-14  0.1486E-04  0.4809E-07  0.1371E-02  0.3664E-03  0.1615E+01
   -0.599990   30.43282  0.2161E-14  0.1507E-04  0.4698E-07  0.1445E-02  0.3440E-03  0.1616E+01
   -0.649991   30.43351  0.2161E-14  0.1526E-04  0.4604E-07  0.1511E-02  0.3235E-03  0.1633E+01
   -0.699992   30.43416  0.2161E-14  0.1542E-04  0.4525E-07  0.1570E-02  0.3047E-03  0.1671E+01
   -0.749993   30.43479  0.2161E-14  0.1555E-04  0.4458E-07  0.1621E-02  0.2873E-03  0.1722E+01
   -0.799995   30.43538  0.2161E-14  0.1566E-04  0.4403E-07  0.1665E-02  0.2711E-03  0.1795E+01
   -0.849996   30.43595  0.2161E-14  0.1574E-04  0.4358E-07  0.1701E-02  0.2560E-03  0.1882E+01
   -0.899998   30.43650  0.2161E-14  0.1581E-04  0.4324E-07  0.1729E-02  0.2419E-03  0.1996E+01
   -0.950000   30.43704  0.2161E-14  0.1585E-04  0.4299E-07  0.1749E-02  0.2285E-03  0.2131E+01
   -1.000001   30.43757  0.2161E-14  0.1587E-04  0.4284E-07  0.1761E-02  0.2159E-03  0.2300E+01
   -1.050003   30.43809  0.2161E-14  0.1587E-04  0.4279E-07  0.1763E-02  0.2039E-03  0.2599E+01
   -1.100005   30.43860  0.2161E-14  0.1585E-04  0.4285E-07  0.1846E-02  0.1925E-03  0.8676E+01
   -1.150006   30.43909  0.2161E-14  0.1581E-04  0.4304E-07  0.1688E-02  0.1823E-03  0.1924E+02
   -1.200008   30.43962  0.2161E-14  0.1574E-04  0.4335E-07  0.1710E-02  0.1718E-03  0.3722E+01
   -1.250009   30.44014  0.2161E-14  0.1565E-04  0.4383E-07  0.1681E-02  0.1617E-03  0.3965E+01
   -1.300011   30.44066  0.2161E-14  0.1553E-04  0.4450E-07  0.1634E-02  0.1520E-03  0.4618E+01
   -1.350012   30.44120  0.2161E-14  0.1538E-04  0.4543E-07  0.1577E-02  0.1426E-03  0.5509E+01
   -1.400013   30.44176  0.2161E-14  0.1520E-04  0.4668E-07  0.1502E-02  0.1334E-03  0.6763E+01
   -1.450014   30.44234  0.2161E-14  0.1497E-04  0.4838E-07  0.1426E-02  0.1244E-03  0.8567E+01
   -1.500014   30.44296  0.2161E-14  0.1470E-04  0.5072E-07  0.1316E-02  0.1156E-03  0.1154E+02
   -1.550015   30.44363  0.2161E-14  0.1437E-04  0.5403E-07  0.1233E-02  0.1068E-03  0.1628E+02
   -1.600015   30.44435  0.2161E-14  0.1395E-04  0.5905E-07  0.1086E-02  0.9810E-04  0.2922E+02
   -1.650015   30.44522  0.2161E-14  0.1342E-04  0.6670E-07  0.1011E-02  0.8884E-04  0.6547E+02
   -1.700014   30.44618  0.2161E-14  0.1270E-04  0.8047E-07  0.8214E-03  0.7995E-04  0.9976E+03
   -1.750013   30.44788  0.2161E-14  0.1174E-04  0.1030E-06  0.7508E-03  0.6804E-04  0.2163E+06
   -1.800012   30.44924  0.2161E-14  0.1044E-04  0.1502E-06  0.5224E-03  0.5887E-04  0.4884E+05
   -1.850010   30.45482  0.2161E-14  0.8917E-05  0.2402E-06  0.4803E-03  0.4281E-04  0.1560E+08
   -1.900008   30.45419  0.2161E-14  0.7055E-05  0.4959E-06  0.2155E-03  0.3477E-04 -0.1856E+06
   -1.950006   30.47187  0.2161E-14  0.4895E-05  0.1260E-05  0.1808E-03  0.1893E-04 -0.6259E+06
   -2.000002   30.47479  0.2161E-14  0.0000E+00  0.0000E+00  0.0000E+00  0.3342E-04  0.0000E+00
