 1 - depth, m
 2 - temperature, C
 3 - salinity, kg/kg
 4 - turbulent kinetic energy, m**2/s**2
 5 - dissipation rate, m**2/s**3
 6 - kinematic heat conductance, m**2/s
 7 - modulus of horizontal velocity, m/s
 8 - Richardson number, n/d
   -0.000000   30.21635  0.5586E-13  0.4888E-05  0.3064E-06  0.5124E-04  0.1871E-02  0.5937E+04
   -0.049997   30.24645  0.5586E-13  0.8282E-05  0.1364E-06  0.1745E-03  0.1077E-02  0.1975E+04
   -0.099994   30.25848  0.5586E-13  0.1006E-04  0.9325E-07  0.3983E-03  0.7848E-03  0.1370E+02
   -0.149992   30.26174  0.5586E-13  0.1117E-04  0.7811E-07  0.4774E-03  0.6932E-03  0.6687E+01
   -0.199991   30.26436  0.5586E-13  0.1203E-04  0.6927E-07  0.6396E-03  0.6186E-03  0.4278E+01
   -0.249989   30.26625  0.5586E-13  0.1272E-04  0.6350E-07  0.7648E-03  0.5630E-03  0.3156E+01
   -0.299988   30.26779  0.5586E-13  0.1328E-04  0.5940E-07  0.8901E-03  0.5168E-03  0.2509E+01
   -0.349988   30.26909  0.5586E-13  0.1375E-04  0.5633E-07  0.1003E-02  0.4772E-03  0.2147E+01
   -0.399988   30.27021  0.5586E-13  0.1414E-04  0.5395E-07  0.1107E-02  0.4422E-03  0.1912E+01
   -0.449988   30.27120  0.5586E-13  0.1448E-04  0.5202E-07  0.1203E-02  0.4115E-03  0.1797E+01
   -0.499988   30.27210  0.5586E-13  0.1477E-04  0.5043E-07  0.1292E-02  0.3843E-03  0.1747E+01
   -0.549989   30.27292  0.5586E-13  0.1502E-04  0.4910E-07  0.1373E-02  0.3599E-03  0.1727E+01
   -0.599989   30.27368  0.5586E-13  0.1524E-04  0.4799E-07  0.1446E-02  0.3379E-03  0.1727E+01
   -0.649990   30.27439  0.5586E-13  0.1543E-04  0.4705E-07  0.1512E-02  0.3178E-03  0.1753E+01
   -0.699992   30.27506  0.5586E-13  0.1559E-04  0.4627E-07  0.1570E-02  0.2993E-03  0.1793E+01
   -0.749993   30.27569  0.5586E-13  0.1572E-04  0.4561E-07  0.1620E-02  0.2823E-03  0.1858E+01
   -0.799994   30.27630  0.5586E-13  0.1583E-04  0.4508E-07  0.1662E-02  0.2664E-03  0.1936E+01
   -0.849996   30.27689  0.5586E-13  0.1592E-04  0.4466E-07  0.1697E-02  0.2516E-03  0.2044E+01
   -0.899998   30.27746  0.5586E-13  0.1598E-04  0.4434E-07  0.1723E-02  0.2377E-03  0.2168E+01
   -0.949999   30.27801  0.5586E-13  0.1602E-04  0.4412E-07  0.1741E-02  0.2246E-03  0.2331E+01
   -1.000001   30.27856  0.5586E-13  0.1604E-04  0.4401E-07  0.1751E-02  0.2122E-03  0.2519E+01
   -1.050003   30.27909  0.5586E-13  0.1604E-04  0.4401E-07  0.1751E-02  0.2005E-03  0.2869E+01
   -1.100004   30.27963  0.5586E-13  0.1602E-04  0.4412E-07  0.1842E-02  0.1893E-03  0.9444E+01
   -1.150006   30.28013  0.5586E-13  0.1597E-04  0.4438E-07  0.1660E-02  0.1793E-03  0.2199E+02
   -1.200008   30.28069  0.5586E-13  0.1590E-04  0.4477E-07  0.1688E-02  0.1688E-03  0.4202E+01
   -1.250009   30.28124  0.5586E-13  0.1580E-04  0.4535E-07  0.1657E-02  0.1589E-03  0.4490E+01
   -1.300010   30.28179  0.5586E-13  0.1567E-04  0.4615E-07  0.1606E-02  0.1493E-03  0.5296E+01
   -1.350012   30.28236  0.5586E-13  0.1551E-04  0.4723E-07  0.1545E-02  0.1400E-03  0.6375E+01
   -1.400013   30.28296  0.5586E-13  0.1531E-04  0.4868E-07  0.1465E-02  0.1310E-03  0.7970E+01
   -1.450014   30.28358  0.5586E-13  0.1507E-04  0.5066E-07  0.1388E-02  0.1220E-03  0.1025E+02
   -1.500014   30.28425  0.5586E-13  0.1477E-04  0.5342E-07  0.1273E-02  0.1133E-03  0.1421E+02
   -1.550014   30.28498  0.5586E-13  0.1441E-04  0.5733E-07  0.1192E-02  0.1044E-03  0.2057E+02
   -1.600015   30.28578  0.5586E-13  0.1395E-04  0.6342E-07  0.1045E-02  0.9583E-04  0.4530E+02
   -1.650014   30.28678  0.5586E-13  0.1335E-04  0.7284E-07  0.9679E-03  0.8640E-04  0.7205E+04
   -1.700014   30.28789  0.5586E-13  0.1252E-04  0.8967E-07  0.7875E-03  0.7725E-04  0.8999E+04
   -1.750013   30.28998  0.5586E-13  0.1144E-04  0.1174E-06  0.7093E-03  0.6477E-04  0.1493E+06
   -1.800012   30.29155  0.5586E-13  0.1002E-04  0.1779E-06  0.4945E-03  0.5548E-04  0.4642E+04
   -1.850010   30.29882  0.5586E-13  0.8474E-05  0.2903E-06  0.4540E-03  0.3897E-04  0.3465E+07
   -1.900008   30.29685  0.5586E-13  0.6696E-05  0.6220E-06  0.2075E-03  0.3174E-04 -0.3419E+06
   -1.950005   30.31825  0.5586E-13  0.4732E-05  0.1525E-05  0.1971E-03  0.1674E-04 -0.2192E+06
   -2.000002   30.32088  0.5586E-13  0.0000E+00  0.0000E+00  0.0000E+00  0.3230E-04  0.0000E+00
