 1 - depth, m
 2 - temperature, C
 3 - salinity, kg/kg
 4 - turbulent kinetic energy, m**2/s**2
 5 - dissipation rate, m**2/s**3
 6 - kinematic heat conductance, m**2/s
 7 - modulus of horizontal velocity, m/s
 8 - Richardson number, n/d
   -0.000000   30.48358  0.6424E-13  0.5099E-05  0.3105E-06  0.5149E-04  0.2370E-02  0.1622E+04
   -0.049997   30.51437  0.6424E-13  0.8518E-05  0.1374E-06  0.1855E-03  0.1317E-02  0.1462E+04
   -0.099994   30.52534  0.6424E-13  0.1022E-04  0.9533E-07  0.3934E-03  0.9904E-03  0.8910E+01
   -0.149992   30.52870  0.6424E-13  0.1131E-04  0.7984E-07  0.4818E-03  0.8747E-03  0.4441E+01
   -0.199991   30.53132  0.6424E-13  0.1216E-04  0.7078E-07  0.6378E-03  0.7827E-03  0.2856E+01
   -0.249989   30.53325  0.6424E-13  0.1284E-04  0.6485E-07  0.7625E-03  0.7132E-03  0.2112E+01
   -0.299988   30.53481  0.6424E-13  0.1339E-04  0.6062E-07  0.8838E-03  0.6554E-03  0.1686E+01
   -0.349988   30.53612  0.6424E-13  0.1385E-04  0.5744E-07  0.9933E-03  0.6057E-03  0.1473E+01
   -0.399988   30.53726  0.6424E-13  0.1425E-04  0.5492E-07  0.1097E-02  0.5611E-03  0.1358E+01
   -0.449988   30.53827  0.6424E-13  0.1459E-04  0.5285E-07  0.1198E-02  0.5209E-03  0.1316E+01
   -0.499988   30.53918  0.6424E-13  0.1489E-04  0.5111E-07  0.1292E-02  0.4848E-03  0.1300E+01
   -0.549989   30.54000  0.6424E-13  0.1515E-04  0.4965E-07  0.1379E-02  0.4523E-03  0.1292E+01
   -0.599989   30.54075  0.6424E-13  0.1538E-04  0.4842E-07  0.1459E-02  0.4229E-03  0.1288E+01
   -0.649990   30.54146  0.6424E-13  0.1557E-04  0.4738E-07  0.1529E-02  0.3961E-03  0.1293E+01
   -0.699992   30.54212  0.6424E-13  0.1573E-04  0.4652E-07  0.1591E-02  0.3717E-03  0.1300E+01
   -0.749993   30.54275  0.6424E-13  0.1586E-04  0.4580E-07  0.1643E-02  0.3494E-03  0.1318E+01
   -0.799994   30.54334  0.6424E-13  0.1596E-04  0.4521E-07  0.1686E-02  0.3289E-03  0.1342E+01
   -0.849996   30.54392  0.6424E-13  0.1604E-04  0.4474E-07  0.1720E-02  0.3101E-03  0.1385E+01
   -0.899998   30.54448  0.6424E-13  0.1609E-04  0.4438E-07  0.1746E-02  0.2927E-03  0.1442E+01
   -0.949999   30.54502  0.6424E-13  0.1612E-04  0.4413E-07  0.1763E-02  0.2764E-03  0.1528E+01
   -1.000001   30.54555  0.6424E-13  0.1613E-04  0.4398E-07  0.1772E-02  0.2612E-03  0.1639E+01
   -1.050003   30.54608  0.6424E-13  0.1612E-04  0.4393E-07  0.1770E-02  0.2468E-03  0.1856E+01
   -1.100004   30.54660  0.6424E-13  0.1608E-04  0.4401E-07  0.1866E-02  0.2331E-03  0.6099E+01
   -1.150006   30.54709  0.6424E-13  0.1602E-04  0.4422E-07  0.1673E-02  0.2209E-03  0.1416E+02
   -1.200008   30.54763  0.6424E-13  0.1594E-04  0.4457E-07  0.1706E-02  0.2081E-03  0.2697E+01
   -1.250009   30.54816  0.6424E-13  0.1583E-04  0.4509E-07  0.1674E-02  0.1959E-03  0.2868E+01
   -1.300010   30.54870  0.6424E-13  0.1570E-04  0.4583E-07  0.1623E-02  0.1842E-03  0.3367E+01
   -1.350012   30.54925  0.6424E-13  0.1553E-04  0.4685E-07  0.1562E-02  0.1728E-03  0.4036E+01
   -1.400013   30.54982  0.6424E-13  0.1532E-04  0.4823E-07  0.1481E-02  0.1616E-03  0.5015E+01
   -1.450014   30.55042  0.6424E-13  0.1507E-04  0.5013E-07  0.1403E-02  0.1507E-03  0.6414E+01
   -1.500014   30.55106  0.6424E-13  0.1477E-04  0.5278E-07  0.1288E-02  0.1399E-03  0.8808E+01
   -1.550014   30.55176  0.6424E-13  0.1439E-04  0.5655E-07  0.1206E-02  0.1291E-03  0.1267E+02
   -1.600015   30.55251  0.6424E-13  0.1393E-04  0.6244E-07  0.1059E-02  0.1185E-03  0.2793E+02
   -1.650014   30.55346  0.6424E-13  0.1333E-04  0.7164E-07  0.9808E-03  0.1069E-03  0.5655E+03
   -1.700014   30.55451  0.6424E-13  0.1251E-04  0.8797E-07  0.7977E-03  0.9566E-04 -0.6992E+02
   -1.750013   30.55644  0.6424E-13  0.1144E-04  0.1149E-06  0.7198E-03  0.8046E-04  0.5369E+05
   -1.800012   30.55798  0.6424E-13  0.1002E-04  0.1718E-06  0.5004E-03  0.6892E-04  0.5010E+05
   -1.850010   30.56465  0.6424E-13  0.8481E-05  0.2791E-06  0.4608E-03  0.4855E-04  0.1493E+08
   -1.900008   30.56290  0.6424E-13  0.6727E-05  0.5864E-06  0.2144E-03  0.3966E-04  0.1787E+06
   -1.950005   30.58289  0.6424E-13  0.4730E-05  0.1451E-05  0.1951E-03  0.2111E-04 -0.2560E+06
   -2.000002   30.58433  0.6424E-13  0.0000E+00  0.0000E+00  0.0000E+00  0.4027E-04  0.0000E+00
