 1 - depth, m
 2 - temperature, C
 3 - salinity, kg/kg
 4 - turbulent kinetic energy, m**2/s**2
 5 - dissipation rate, m**2/s**3
 6 - kinematic heat conductance, m**2/s
 7 - modulus of horizontal velocity, m/s
 8 - Richardson number, n/d
   -0.000000   31.11617  0.3571E-14  0.5163E-05  0.3334E-06  0.5138E-04  0.6190E-03  0.7077E+05
   -0.049997   31.15039  0.3571E-14  0.9041E-05  0.1482E-06  0.1891E-03  0.3533E-03  0.4341E+06
   -0.099994   31.16257  0.3571E-14  0.1093E-04  0.1025E-06  0.4241E-03  0.2575E-03  0.2044E+03
   -0.149992   31.16601  0.3571E-14  0.1211E-04  0.8641E-07  0.5011E-03  0.2283E-03  0.1031E+03
   -0.199991   31.16878  0.3571E-14  0.1303E-04  0.7687E-07  0.6711E-03  0.2042E-03  0.6744E+02
   -0.249989   31.17080  0.3571E-14  0.1375E-04  0.7058E-07  0.8001E-03  0.1862E-03  0.5070E+02
   -0.299988   31.17244  0.3571E-14  0.1434E-04  0.6606E-07  0.9291E-03  0.1712E-03  0.4036E+02
   -0.349988   31.17381  0.3571E-14  0.1483E-04  0.6266E-07  0.1046E-02  0.1584E-03  0.3493E+02
   -0.399988   31.17500  0.3571E-14  0.1523E-04  0.5999E-07  0.1152E-02  0.1470E-03  0.3092E+02
   -0.449988   31.17605  0.3571E-14  0.1558E-04  0.5782E-07  0.1251E-02  0.1370E-03  0.2937E+02
   -0.499988   31.17700  0.3571E-14  0.1588E-04  0.5600E-07  0.1341E-02  0.1281E-03  0.2827E+02
   -0.549988   31.17787  0.3571E-14  0.1613E-04  0.5448E-07  0.1424E-02  0.1201E-03  0.2825E+02
   -0.599989   31.17867  0.3571E-14  0.1635E-04  0.5318E-07  0.1498E-02  0.1129E-03  0.2789E+02
   -0.649990   31.17942  0.3571E-14  0.1654E-04  0.5208E-07  0.1565E-02  0.1063E-03  0.2862E+02
   -0.699991   31.18012  0.3571E-14  0.1669E-04  0.5113E-07  0.1624E-02  0.1003E-03  0.2883E+02
   -0.749993   31.18079  0.3571E-14  0.1681E-04  0.5033E-07  0.1675E-02  0.9463E-04  0.3021E+02
   -0.799994   31.18143  0.3571E-14  0.1691E-04  0.4966E-07  0.1719E-02  0.8942E-04  0.3096E+02
   -0.849996   31.18204  0.3571E-14  0.1698E-04  0.4910E-07  0.1754E-02  0.8453E-04  0.3306E+02
   -0.899997   31.18264  0.3571E-14  0.1703E-04  0.4866E-07  0.1780E-02  0.7995E-04  0.3443E+02
   -0.949999   31.18321  0.3571E-14  0.1705E-04  0.4832E-07  0.1798E-02  0.7561E-04  0.3748E+02
   -1.000001   31.18378  0.3571E-14  0.1705E-04  0.4810E-07  0.1808E-02  0.7152E-04  0.3971E+02
   -1.050002   31.18433  0.3571E-14  0.1703E-04  0.4800E-07  0.1807E-02  0.6762E-04  0.4568E+02
   -1.100004   31.18488  0.3571E-14  0.1698E-04  0.4801E-07  0.1907E-02  0.6391E-04  0.1458E+03
   -1.150006   31.18539  0.3571E-14  0.1691E-04  0.4819E-07  0.1704E-02  0.6061E-04  0.3511E+03
   -1.200007   31.18596  0.3571E-14  0.1681E-04  0.4850E-07  0.1741E-02  0.5713E-04  0.6661E+02
   -1.250009   31.18651  0.3571E-14  0.1668E-04  0.4901E-07  0.1709E-02  0.5383E-04  0.6963E+02
   -1.300010   31.18707  0.3571E-14  0.1652E-04  0.4975E-07  0.1656E-02  0.5064E-04  0.8317E+02
   -1.350011   31.18764  0.3571E-14  0.1633E-04  0.5080E-07  0.1593E-02  0.4755E-04  0.9864E+02
   -1.400012   31.18823  0.3571E-14  0.1610E-04  0.5226E-07  0.1512E-02  0.4453E-04  0.1252E+03
   -1.450013   31.18885  0.3571E-14  0.1582E-04  0.5428E-07  0.1430E-02  0.4156E-04  0.1595E+03
   -1.500014   31.18950  0.3571E-14  0.1548E-04  0.5714E-07  0.1315E-02  0.3863E-04  0.2260E+03
   -1.550014   31.19022  0.3571E-14  0.1507E-04  0.6127E-07  0.1229E-02  0.3568E-04  0.3334E+03
   -1.600014   31.19100  0.3571E-14  0.1456E-04  0.6778E-07  0.1084E-02  0.3278E-04  0.8721E+03
   -1.650014   31.19197  0.3571E-14  0.1390E-04  0.7809E-07  0.9993E-03  0.2963E-04  0.1657E+06
   -1.700013   31.19310  0.3571E-14  0.1300E-04  0.9622E-07  0.8180E-03  0.2646E-04 -0.9755E+05
   -1.750012   31.19508  0.3571E-14  0.1187E-04  0.1254E-06  0.7344E-03  0.2234E-04  0.1693E+07
   -1.800011   31.19650  0.3571E-14  0.1039E-04  0.1889E-06  0.5086E-03  0.1926E-04  0.6585E+06
   -1.850009   31.20367  0.3571E-14  0.8828E-05  0.3094E-06  0.4753E-03  0.1364E-04  0.6758E+09
   -1.900007   31.20144  0.3571E-14  0.7012E-05  0.6446E-06  0.2175E-03  0.1125E-04 -0.1863E+07
   -1.950005   31.22150  0.3571E-14  0.4943E-05  0.1576E-05  0.2028E-03  0.6071E-05 -0.8276E+07
   -2.000002   31.22228  0.3571E-14  0.0000E+00  0.0000E+00  0.0000E+00  0.1133E-04  0.0000E+00
