 1 - depth, m
 2 - temperature, C
 3 - salinity, kg/kg
 4 - turbulent kinetic energy, m**2/s**2
 5 - dissipation rate, m**2/s**3
 6 - kinematic heat conductance, m**2/s
 7 - modulus of horizontal velocity, m/s
 8 - Richardson number, n/d
   -0.000000   30.10457  0.2195E-13  0.4510E-05  0.2696E-06  0.4770E-04  0.7518E-03  0.2819E+05
   -0.049997   30.13426  0.2195E-13  0.7922E-05  0.1197E-06  0.1790E-03  0.4206E-03  0.6373E+02
   -0.099994   30.14493  0.2195E-13  0.9585E-05  0.8316E-07  0.4014E-03  0.3089E-03  0.8995E+02
   -0.149992   30.14792  0.2195E-13  0.1063E-04  0.7024E-07  0.4804E-03  0.2732E-03  0.4397E+02
   -0.199991   30.15031  0.2195E-13  0.1143E-04  0.6259E-07  0.6387E-03  0.2442E-03  0.2869E+02
   -0.249989   30.15206  0.2195E-13  0.1208E-04  0.5755E-07  0.7620E-03  0.2223E-03  0.2131E+02
   -0.299989   30.15349  0.2195E-13  0.1261E-04  0.5395E-07  0.8840E-03  0.2041E-03  0.1706E+02
   -0.349988   30.15469  0.2195E-13  0.1305E-04  0.5124E-07  0.9947E-03  0.1885E-03  0.1462E+02
   -0.399988   30.15574  0.2195E-13  0.1341E-04  0.4912E-07  0.1096E-02  0.1747E-03  0.1308E+02
   -0.449988   30.15666  0.2195E-13  0.1373E-04  0.4741E-07  0.1190E-02  0.1625E-03  0.1228E+02
   -0.499988   30.15750  0.2195E-13  0.1401E-04  0.4598E-07  0.1276E-02  0.1517E-03  0.1199E+02
   -0.549989   30.15827  0.2195E-13  0.1425E-04  0.4479E-07  0.1355E-02  0.1421E-03  0.1182E+02
   -0.599990   30.15897  0.2195E-13  0.1445E-04  0.4379E-07  0.1427E-02  0.1333E-03  0.1187E+02
   -0.649991   30.15964  0.2195E-13  0.1463E-04  0.4294E-07  0.1491E-02  0.1253E-03  0.1201E+02
   -0.699992   30.16026  0.2195E-13  0.1478E-04  0.4223E-07  0.1548E-02  0.1180E-03  0.1232E+02
   -0.749993   30.16086  0.2195E-13  0.1491E-04  0.4163E-07  0.1598E-02  0.1112E-03  0.1272E+02
   -0.799995   30.16142  0.2195E-13  0.1501E-04  0.4114E-07  0.1640E-02  0.1049E-03  0.1330E+02
   -0.849996   30.16197  0.2195E-13  0.1510E-04  0.4074E-07  0.1675E-02  0.9906E-04  0.1397E+02
   -0.899998   30.16250  0.2195E-13  0.1516E-04  0.4044E-07  0.1701E-02  0.9354E-04  0.1487E+02
   -0.950000   30.16302  0.2195E-13  0.1520E-04  0.4023E-07  0.1720E-02  0.8835E-04  0.1591E+02
   -1.000001   30.16352  0.2195E-13  0.1522E-04  0.4011E-07  0.1731E-02  0.8343E-04  0.1723E+02
   -1.050003   30.16402  0.2195E-13  0.1522E-04  0.4008E-07  0.1733E-02  0.7877E-04  0.1952E+02
   -1.100005   30.16452  0.2195E-13  0.1520E-04  0.4016E-07  0.1815E-02  0.7432E-04  0.6513E+02
   -1.150007   30.16499  0.2195E-13  0.1516E-04  0.4036E-07  0.1656E-02  0.7035E-04  0.1466E+03
   -1.200008   30.16550  0.2195E-13  0.1510E-04  0.4067E-07  0.1678E-02  0.6625E-04  0.2827E+02
   -1.250010   30.16600  0.2195E-13  0.1501E-04  0.4114E-07  0.1649E-02  0.6231E-04  0.3026E+02
   -1.300011   30.16651  0.2195E-13  0.1490E-04  0.4180E-07  0.1601E-02  0.5854E-04  0.3538E+02
   -1.350012   30.16703  0.2195E-13  0.1475E-04  0.4269E-07  0.1544E-02  0.5487E-04  0.4243E+02
   -1.400013   30.16757  0.2195E-13  0.1458E-04  0.4389E-07  0.1470E-02  0.5131E-04  0.5232E+02
   -1.450014   30.16814  0.2195E-13  0.1436E-04  0.4551E-07  0.1393E-02  0.4781E-04  0.6671E+02
   -1.500015   30.16874  0.2195E-13  0.1410E-04  0.4775E-07  0.1286E-02  0.4439E-04  0.9024E+02
   -1.550015   30.16939  0.2195E-13  0.1378E-04  0.5090E-07  0.1201E-02  0.4095E-04  0.1279E+03
   -1.600015   30.17009  0.2195E-13  0.1338E-04  0.5565E-07  0.1058E-02  0.3758E-04  0.2324E+03
   -1.650015   30.17094  0.2195E-13  0.1286E-04  0.6296E-07  0.9807E-03  0.3402E-04  0.1057E+04
   -1.700014   30.17188  0.2195E-13  0.1216E-04  0.7608E-07  0.7972E-03  0.3053E-04  0.2528E+05
   -1.750013   30.17353  0.2195E-13  0.1122E-04  0.9766E-07  0.7249E-03  0.2600E-04  0.1884E+06
   -1.800012   30.17499  0.2195E-13  0.9929E-05  0.1418E-06  0.5020E-03  0.2232E-04  0.1148E+07
   -1.850010   30.18051  0.2195E-13  0.8421E-05  0.2261E-06  0.4613E-03  0.1612E-04  0.1398E+08
   -1.900008   30.17978  0.2195E-13  0.6655E-05  0.4653E-06  0.2075E-03  0.1303E-04  0.1948E+06
   -1.950006   30.19768  0.2195E-13  0.4609E-05  0.1191E-05  0.1784E-03  0.6995E-05 -0.3069E+07
   -2.000003   30.19978  0.2195E-13  0.0000E+00  0.0000E+00  0.0000E+00  0.1259E-04  0.0000E+00
