 1 - depth, m
 2 - temperature, C
 3 - salinity, kg/kg
 4 - turbulent kinetic energy, m**2/s**2
 5 - dissipation rate, m**2/s**3
 6 - kinematic heat conductance, m**2/s
 7 - modulus of horizontal velocity, m/s
 8 - Richardson number, n/d
   -0.000000   30.58048  0.3473E-13  0.4998E-05  0.3094E-06  0.5136E-04  0.2058E-02  0.5871E+04
   -0.049997   30.61103  0.3473E-13  0.8422E-05  0.1375E-06  0.1805E-03  0.1160E-02  0.2173E+04
   -0.099994   30.62245  0.3473E-13  0.1017E-04  0.9479E-07  0.3951E-03  0.8615E-03  0.1202E+02
   -0.149992   30.62578  0.3473E-13  0.1127E-04  0.7935E-07  0.4796E-03  0.7604E-03  0.5918E+01
   -0.199991   30.62840  0.3473E-13  0.1213E-04  0.7033E-07  0.6390E-03  0.6793E-03  0.3790E+01
   -0.249989   30.63031  0.3473E-13  0.1281E-04  0.6442E-07  0.7645E-03  0.6185E-03  0.2790E+01
   -0.299988   30.63186  0.3473E-13  0.1337E-04  0.6021E-07  0.8887E-03  0.5679E-03  0.2216E+01
   -0.349988   30.63316  0.3473E-13  0.1383E-04  0.5705E-07  0.1001E-02  0.5246E-03  0.1895E+01
   -0.399988   30.63429  0.3473E-13  0.1422E-04  0.5458E-07  0.1104E-02  0.4862E-03  0.1699E+01
   -0.449988   30.63529  0.3473E-13  0.1455E-04  0.5256E-07  0.1201E-02  0.4521E-03  0.1608E+01
   -0.499988   30.63619  0.3473E-13  0.1485E-04  0.5089E-07  0.1292E-02  0.4218E-03  0.1572E+01
   -0.549989   30.63701  0.3473E-13  0.1510E-04  0.4948E-07  0.1375E-02  0.3946E-03  0.1552E+01
   -0.599990   30.63776  0.3473E-13  0.1532E-04  0.4829E-07  0.1451E-02  0.3699E-03  0.1550E+01
   -0.649991   30.63847  0.3473E-13  0.1550E-04  0.4728E-07  0.1518E-02  0.3475E-03  0.1561E+01
   -0.699992   30.63913  0.3473E-13  0.1566E-04  0.4643E-07  0.1578E-02  0.3269E-03  0.1585E+01
   -0.749993   30.63976  0.3473E-13  0.1578E-04  0.4572E-07  0.1629E-02  0.3081E-03  0.1624E+01
   -0.799995   30.64036  0.3473E-13  0.1588E-04  0.4513E-07  0.1672E-02  0.2906E-03  0.1680E+01
   -0.849996   30.64094  0.3473E-13  0.1596E-04  0.4465E-07  0.1707E-02  0.2743E-03  0.1754E+01
   -0.899998   30.64150  0.3473E-13  0.1602E-04  0.4427E-07  0.1734E-02  0.2592E-03  0.1852E+01
   -0.949999   30.64204  0.3473E-13  0.1605E-04  0.4400E-07  0.1752E-02  0.2449E-03  0.1973E+01
   -1.000001   30.64258  0.3473E-13  0.1606E-04  0.4383E-07  0.1763E-02  0.2314E-03  0.2126E+01
   -1.050003   30.64310  0.3473E-13  0.1605E-04  0.4376E-07  0.1764E-02  0.2186E-03  0.2402E+01
   -1.100005   30.64362  0.3473E-13  0.1602E-04  0.4380E-07  0.1853E-02  0.2064E-03  0.7936E+01
   -1.150006   30.64411  0.3473E-13  0.1597E-04  0.4399E-07  0.1677E-02  0.1956E-03  0.1809E+02
   -1.200008   30.64465  0.3473E-13  0.1589E-04  0.4430E-07  0.1705E-02  0.1842E-03  0.3455E+01
   -1.250009   30.64517  0.3473E-13  0.1578E-04  0.4479E-07  0.1674E-02  0.1734E-03  0.3671E+01
   -1.300011   30.64571  0.3473E-13  0.1565E-04  0.4548E-07  0.1624E-02  0.1630E-03  0.4284E+01
   -1.350012   30.64625  0.3473E-13  0.1549E-04  0.4644E-07  0.1565E-02  0.1529E-03  0.5121E+01
   -1.400013   30.64681  0.3473E-13  0.1528E-04  0.4775E-07  0.1488E-02  0.1431E-03  0.6311E+01
   -1.450014   30.64740  0.3473E-13  0.1504E-04  0.4954E-07  0.1410E-02  0.1334E-03  0.8037E+01
   -1.500014   30.64803  0.3473E-13  0.1474E-04  0.5204E-07  0.1298E-02  0.1240E-03  0.1090E+02
   -1.550015   30.64871  0.3473E-13  0.1438E-04  0.5560E-07  0.1214E-02  0.1144E-03  0.1554E+02
   -1.600015   30.64945  0.3473E-13  0.1394E-04  0.6107E-07  0.1069E-02  0.1051E-03  0.3416E+02
   -1.650014   30.65034  0.3473E-13  0.1336E-04  0.6957E-07  0.9901E-03  0.9501E-04  0.9129E+03
   -1.700014   30.65136  0.3473E-13  0.1257E-04  0.8482E-07  0.8089E-03  0.8517E-04 -0.5145E+04
   -1.750013   30.65316  0.3473E-13  0.1153E-04  0.1100E-06  0.7295E-03  0.7210E-04  0.1598E+06
   -1.800012   30.65467  0.3473E-13  0.1013E-04  0.1637E-06  0.5044E-03  0.6182E-04  0.3823E+05
   -1.850010   30.66079  0.3473E-13  0.8596E-05  0.2631E-06  0.4659E-03  0.4410E-04  0.8659E+07
   -1.900008   30.65951  0.3473E-13  0.6805E-05  0.5435E-06  0.2119E-03  0.3599E-04  0.8564E+05
   -1.950005   30.67852  0.3473E-13  0.4770E-05  0.1360E-05  0.1902E-03  0.1934E-04 -0.2568E+06
   -2.000002   30.68012  0.3473E-13  0.0000E+00  0.0000E+00  0.0000E+00  0.3563E-04  0.0000E+00
