 1 - depth, m
 2 - temperature, C
 3 - salinity, kg/kg
 4 - turbulent kinetic energy, m**2/s**2
 5 - dissipation rate, m**2/s**3
 6 - kinematic heat conductance, m**2/s
 7 - modulus of horizontal velocity, m/s
 8 - Richardson number, n/d
   -0.000000   30.89209  0.1922E-14  0.5179E-05  0.3365E-06  0.5235E-04  0.1596E-02  0.6081E+04
   -0.049997   30.92461  0.1922E-14  0.8817E-05  0.1499E-06  0.1813E-03  0.9195E-03  0.8013E+03
   -0.099994   30.93735  0.1922E-14  0.1071E-04  0.1028E-06  0.4083E-03  0.6736E-03  0.2082E+02
   -0.149992   30.94084  0.1922E-14  0.1189E-04  0.8607E-07  0.4893E-03  0.5959E-03  0.1024E+02
   -0.199991   30.94363  0.1922E-14  0.1281E-04  0.7629E-07  0.6567E-03  0.5325E-03  0.6539E+01
   -0.249989   30.94564  0.1922E-14  0.1354E-04  0.6991E-07  0.7846E-03  0.4853E-03  0.4809E+01
   -0.299988   30.94728  0.1922E-14  0.1414E-04  0.6536E-07  0.9137E-03  0.4460E-03  0.3824E+01
   -0.349988   30.94865  0.1922E-14  0.1463E-04  0.6196E-07  0.1030E-02  0.4124E-03  0.3254E+01
   -0.399988   30.94984  0.1922E-14  0.1504E-04  0.5931E-07  0.1136E-02  0.3826E-03  0.2902E+01
   -0.449988   30.95089  0.1922E-14  0.1539E-04  0.5716E-07  0.1235E-02  0.3565E-03  0.2709E+01
   -0.499988   30.95184  0.1922E-14  0.1569E-04  0.5538E-07  0.1326E-02  0.3333E-03  0.2639E+01
   -0.549989   30.95270  0.1922E-14  0.1596E-04  0.5389E-07  0.1408E-02  0.3126E-03  0.2588E+01
   -0.599989   30.95350  0.1922E-14  0.1618E-04  0.5263E-07  0.1483E-02  0.2938E-03  0.2595E+01
   -0.649990   30.95425  0.1922E-14  0.1637E-04  0.5156E-07  0.1550E-02  0.2766E-03  0.2610E+01
   -0.699992   30.95496  0.1922E-14  0.1653E-04  0.5066E-07  0.1609E-02  0.2609E-03  0.2676E+01
   -0.749993   30.95563  0.1922E-14  0.1666E-04  0.4990E-07  0.1660E-02  0.2463E-03  0.2746E+01
   -0.799994   30.95627  0.1922E-14  0.1677E-04  0.4927E-07  0.1704E-02  0.2327E-03  0.2869E+01
   -0.849996   30.95688  0.1922E-14  0.1685E-04  0.4876E-07  0.1739E-02  0.2200E-03  0.2997E+01
   -0.899998   30.95748  0.1922E-14  0.1690E-04  0.4837E-07  0.1765E-02  0.2081E-03  0.3187E+01
   -0.949999   30.95806  0.1922E-14  0.1694E-04  0.4809E-07  0.1783E-02  0.1968E-03  0.3390E+01
   -1.000001   30.95863  0.1922E-14  0.1695E-04  0.4792E-07  0.1793E-02  0.1862E-03  0.3673E+01
   -1.050003   30.95919  0.1922E-14  0.1693E-04  0.4787E-07  0.1792E-02  0.1761E-03  0.4133E+01
   -1.100004   30.95975  0.1922E-14  0.1689E-04  0.4794E-07  0.1891E-02  0.1664E-03  0.1360E+02
   -1.150006   30.96027  0.1922E-14  0.1683E-04  0.4817E-07  0.1689E-02  0.1578E-03  0.3191E+02
   -1.200008   30.96085  0.1922E-14  0.1674E-04  0.4855E-07  0.1724E-02  0.1487E-03  0.6006E+01
   -1.250009   30.96141  0.1922E-14  0.1662E-04  0.4913E-07  0.1693E-02  0.1401E-03  0.6413E+01
   -1.300010   30.96199  0.1922E-14  0.1647E-04  0.4995E-07  0.1639E-02  0.1318E-03  0.7498E+01
   -1.350011   30.96257  0.1922E-14  0.1629E-04  0.5108E-07  0.1577E-02  0.1237E-03  0.9042E+01
   -1.400012   30.96318  0.1922E-14  0.1606E-04  0.5264E-07  0.1493E-02  0.1159E-03  0.1123E+02
   -1.450013   30.96382  0.1922E-14  0.1579E-04  0.5477E-07  0.1415E-02  0.1081E-03  0.1449E+02
   -1.500014   30.96450  0.1922E-14  0.1545E-04  0.5778E-07  0.1296E-02  0.1005E-03  0.2007E+02
   -1.550014   30.96526  0.1922E-14  0.1505E-04  0.6210E-07  0.1216E-02  0.9273E-04  0.2975E+02
   -1.600014   30.96606  0.1922E-14  0.1454E-04  0.6900E-07  0.1065E-02  0.8519E-04  0.7044E+02
   -1.650014   30.96712  0.1922E-14  0.1387E-04  0.7972E-07  0.9852E-03  0.7673E-04  0.4244E+03
   -1.700013   30.96827  0.1922E-14  0.1296E-04  0.9851E-07  0.8000E-03  0.6861E-04  0.5586E+04
   -1.750013   30.97045  0.1922E-14  0.1181E-04  0.1295E-06  0.7224E-03  0.5744E-04  0.1098E+06
   -1.800011   30.97198  0.1922E-14  0.1032E-04  0.1972E-06  0.5021E-03  0.4942E-04  0.1109E+07
   -1.850010   30.97963  0.1922E-14  0.8740E-05  0.3241E-06  0.4640E-03  0.3464E-04  0.1335E+09
   -1.900007   30.97729  0.1922E-14  0.6915E-05  0.6839E-06  0.2154E-03  0.2841E-04 -0.1974E+06
   -1.950005   30.99887  0.1922E-14  0.4898E-05  0.1661E-05  0.2052E-03  0.1509E-04 -0.3475E+06
   -2.000002   31.00042  0.1922E-14  0.0000E+00  0.0000E+00  0.0000E+00  0.2930E-04  0.0000E+00
