 1 - depth, m
 2 - temperature, C
 3 - salinity, kg/kg
 4 - turbulent kinetic energy, m**2/s**2
 5 - dissipation rate, m**2/s**3
 6 - kinematic heat conductance, m**2/s
 7 - modulus of horizontal velocity, m/s
 8 - Richardson number, n/d
   -0.000000   31.72106  0.7332E-14  0.5447E-05  0.3660E-06  0.5357E-04  0.5870E-03  0.7087E+04
   -0.049997   31.75622  0.7332E-14  0.9515E-05  0.1623E-06  0.1916E-03  0.3363E-03  0.3465E+04
   -0.099994   31.76919  0.7332E-14  0.1153E-04  0.1118E-06  0.4366E-03  0.2460E-03  0.1391E+03
   -0.149992   31.77274  0.7332E-14  0.1279E-04  0.9415E-07  0.5108E-03  0.2186E-03  0.6912E+02
   -0.199990   31.77564  0.7332E-14  0.1377E-04  0.8375E-07  0.6881E-03  0.1958E-03  0.4487E+02
   -0.249989   31.77772  0.7332E-14  0.1454E-04  0.7693E-07  0.8197E-03  0.1788E-03  0.3338E+02
   -0.299988   31.77943  0.7332E-14  0.1518E-04  0.7206E-07  0.9528E-03  0.1647E-03  0.2669E+02
   -0.349987   31.78086  0.7332E-14  0.1570E-04  0.6842E-07  0.1073E-02  0.1526E-03  0.2283E+02
   -0.399987   31.78210  0.7332E-14  0.1614E-04  0.6558E-07  0.1182E-02  0.1418E-03  0.2039E+02
   -0.449987   31.78320  0.7332E-14  0.1652E-04  0.6327E-07  0.1283E-02  0.1324E-03  0.1909E+02
   -0.499987   31.78419  0.7332E-14  0.1684E-04  0.6136E-07  0.1375E-02  0.1240E-03  0.1859E+02
   -0.549988   31.78510  0.7332E-14  0.1712E-04  0.5977E-07  0.1459E-02  0.1164E-03  0.1828E+02
   -0.599989   31.78594  0.7332E-14  0.1736E-04  0.5844E-07  0.1535E-02  0.1096E-03  0.1832E+02
   -0.649990   31.78673  0.7332E-14  0.1756E-04  0.5731E-07  0.1603E-02  0.1034E-03  0.1849E+02
   -0.699991   31.78748  0.7332E-14  0.1773E-04  0.5636E-07  0.1662E-02  0.9759E-04  0.1895E+02
   -0.749992   31.78818  0.7332E-14  0.1787E-04  0.5558E-07  0.1712E-02  0.9226E-04  0.1952E+02
   -0.799994   31.78886  0.7332E-14  0.1798E-04  0.5494E-07  0.1755E-02  0.8729E-04  0.2041E+02
   -0.849995   31.78951  0.7332E-14  0.1807E-04  0.5444E-07  0.1788E-02  0.8264E-04  0.2142E+02
   -0.899997   31.79015  0.7332E-14  0.1812E-04  0.5406E-07  0.1813E-02  0.7825E-04  0.2282E+02
   -0.949998   31.79077  0.7332E-14  0.1815E-04  0.5381E-07  0.1828E-02  0.7412E-04  0.2442E+02
   -1.000000   31.79137  0.7332E-14  0.1816E-04  0.5370E-07  0.1835E-02  0.7019E-04  0.2653E+02
   -1.050002   31.79197  0.7332E-14  0.1814E-04  0.5373E-07  0.1829E-02  0.6645E-04  0.3005E+02
   -1.100003   31.79257  0.7332E-14  0.1809E-04  0.5390E-07  0.1948E-02  0.6287E-04  0.9663E+02
   -1.150005   31.79313  0.7332E-14  0.1802E-04  0.5428E-07  0.1695E-02  0.5972E-04  0.2462E+03
   -1.200006   31.79377  0.7332E-14  0.1791E-04  0.5483E-07  0.1744E-02  0.5631E-04  0.4504E+02
   -1.250008   31.79439  0.7332E-14  0.1777E-04  0.5563E-07  0.1710E-02  0.5309E-04  0.4828E+02
   -1.300009   31.79501  0.7332E-14  0.1760E-04  0.5674E-07  0.1649E-02  0.4999E-04  0.5733E+02
   -1.350010   31.79566  0.7332E-14  0.1738E-04  0.5825E-07  0.1581E-02  0.4697E-04  0.7030E+02
   -1.400011   31.79634  0.7332E-14  0.1712E-04  0.6033E-07  0.1490E-02  0.4401E-04  0.8953E+02
   -1.450012   31.79706  0.7332E-14  0.1679E-04  0.6321E-07  0.1406E-02  0.4107E-04  0.1192E+03
   -1.500012   31.79784  0.7332E-14  0.1640E-04  0.6731E-07  0.1283E-02  0.3817E-04  0.1728E+03
   -1.550013   31.79871  0.7332E-14  0.1591E-04  0.7330E-07  0.1201E-02  0.3521E-04  0.2925E+03
   -1.600013   31.79967  0.7332E-14  0.1529E-04  0.8300E-07  0.1050E-02  0.3228E-04 -0.2967E+05
   -1.650012   31.80100  0.7332E-14  0.1447E-04  0.9821E-07  0.9658E-03  0.2895E-04 -0.1441E+05
   -1.700012   31.80252  0.7332E-14  0.1335E-04  0.1254E-06  0.7799E-03  0.2560E-04  0.3606E+06
   -1.750011   31.80532  0.7332E-14  0.1205E-04  0.1680E-06  0.7058E-03  0.2111E-04  0.2708E+07
   -1.800010   31.80688  0.7332E-14  0.1044E-04  0.2622E-06  0.4777E-03  0.1821E-04  0.1432E+06
   -1.850008   31.81792  0.7332E-14  0.8850E-05  0.4414E-06  0.4678E-03  0.1225E-04  0.9623E+09
   -1.900006   31.81268  0.7332E-14  0.7112E-05  0.9309E-06  0.2145E-03  0.1030E-04  0.8133E+07
   -1.950003   31.83985  0.7332E-14  0.5137E-05  0.2173E-05  0.2315E-03  0.5433E-05 -0.2774E+07
   -2.000000   31.83962  0.7332E-14  0.0000E+00  0.0000E+00  0.0000E+00  0.1114E-04  0.0000E+00
