 1 - depth, m
 2 - temperature, C
 3 - salinity, kg/kg
 4 - turbulent kinetic energy, m**2/s**2
 5 - dissipation rate, m**2/s**3
 6 - kinematic heat conductance, m**2/s
 7 - modulus of horizontal velocity, m/s
 8 - Richardson number, n/d
   -0.000000   30.10479  0.3513E-13  0.4628E-05  0.2798E-06  0.4771E-04  0.9446E-03  0.5004E+03
   -0.049997   30.13549  0.3513E-13  0.8073E-05  0.1243E-06  0.1828E-03  0.5259E-03  0.7528E+02
   -0.099994   30.14633  0.3513E-13  0.9765E-05  0.8644E-07  0.3988E-03  0.3885E-03  0.5166E+02
   -0.149992   30.14944  0.3513E-13  0.1083E-04  0.7284E-07  0.4832E-03  0.3432E-03  0.2543E+02
   -0.199991   30.15190  0.3513E-13  0.1166E-04  0.6482E-07  0.6419E-03  0.3068E-03  0.1643E+02
   -0.249989   30.15369  0.3513E-13  0.1232E-04  0.5956E-07  0.7659E-03  0.2793E-03  0.1217E+02
   -0.299989   30.15516  0.3513E-13  0.1286E-04  0.5580E-07  0.8895E-03  0.2565E-03  0.9714E+01
   -0.349988   30.15639  0.3513E-13  0.1331E-04  0.5298E-07  0.1001E-02  0.2369E-03  0.8318E+01
   -0.399988   30.15746  0.3513E-13  0.1369E-04  0.5078E-07  0.1104E-02  0.2195E-03  0.7426E+01
   -0.449988   30.15841  0.3513E-13  0.1402E-04  0.4899E-07  0.1199E-02  0.2043E-03  0.6973E+01
   -0.499988   30.15926  0.3513E-13  0.1430E-04  0.4752E-07  0.1286E-02  0.1907E-03  0.6792E+01
   -0.549989   30.16005  0.3513E-13  0.1454E-04  0.4628E-07  0.1366E-02  0.1786E-03  0.6700E+01
   -0.599990   30.16077  0.3513E-13  0.1476E-04  0.4524E-07  0.1438E-02  0.1677E-03  0.6712E+01
   -0.649991   30.16145  0.3513E-13  0.1494E-04  0.4437E-07  0.1504E-02  0.1577E-03  0.6793E+01
   -0.699992   30.16209  0.3513E-13  0.1509E-04  0.4363E-07  0.1561E-02  0.1485E-03  0.6956E+01
   -0.749993   30.16270  0.3513E-13  0.1522E-04  0.4301E-07  0.1611E-02  0.1400E-03  0.7180E+01
   -0.799995   30.16328  0.3513E-13  0.1533E-04  0.4250E-07  0.1654E-02  0.1321E-03  0.7493E+01
   -0.849996   30.16384  0.3513E-13  0.1541E-04  0.4209E-07  0.1689E-02  0.1247E-03  0.7870E+01
   -0.899998   30.16438  0.3513E-13  0.1548E-04  0.4178E-07  0.1716E-02  0.1178E-03  0.8359E+01
   -0.950000   30.16491  0.3513E-13  0.1552E-04  0.4156E-07  0.1735E-02  0.1113E-03  0.8936E+01
   -1.000001   30.16543  0.3513E-13  0.1554E-04  0.4144E-07  0.1746E-02  0.1051E-03  0.9663E+01
   -1.050003   30.16594  0.3513E-13  0.1554E-04  0.4141E-07  0.1748E-02  0.9929E-04  0.1094E+02
   -1.100005   30.16645  0.3513E-13  0.1552E-04  0.4149E-07  0.1831E-02  0.9371E-04  0.3650E+02
   -1.150006   30.16693  0.3513E-13  0.1548E-04  0.4170E-07  0.1670E-02  0.8873E-04  0.8138E+02
   -1.200008   30.16745  0.3513E-13  0.1542E-04  0.4202E-07  0.1693E-02  0.8358E-04  0.1574E+02
   -1.250010   30.16796  0.3513E-13  0.1533E-04  0.4251E-07  0.1663E-02  0.7864E-04  0.1681E+02
   -1.300011   30.16848  0.3513E-13  0.1521E-04  0.4320E-07  0.1615E-02  0.7390E-04  0.1961E+02
   -1.350012   30.16902  0.3513E-13  0.1507E-04  0.4412E-07  0.1557E-02  0.6930E-04  0.2345E+02
   -1.400013   30.16957  0.3513E-13  0.1489E-04  0.4537E-07  0.1482E-02  0.6482E-04  0.2879E+02
   -1.450014   30.17015  0.3513E-13  0.1466E-04  0.4706E-07  0.1406E-02  0.6042E-04  0.3657E+02
   -1.500015   30.17076  0.3513E-13  0.1439E-04  0.4939E-07  0.1296E-02  0.5611E-04  0.4910E+02
   -1.550015   30.17142  0.3513E-13  0.1406E-04  0.5268E-07  0.1211E-02  0.5178E-04  0.6924E+02
   -1.600015   30.17214  0.3513E-13  0.1365E-04  0.5761E-07  0.1069E-02  0.4755E-04  0.1210E+03
   -1.650015   30.17300  0.3513E-13  0.1313E-04  0.6517E-07  0.9895E-03  0.4305E-04  0.2099E+04
   -1.700014   30.17397  0.3513E-13  0.1241E-04  0.7885E-07  0.8095E-03  0.3868E-04  0.3600E+04
   -1.750013   30.17565  0.3513E-13  0.1144E-04  0.1015E-06  0.7296E-03  0.3287E-04  0.7582E+05
   -1.800012   30.17714  0.3513E-13  0.1011E-04  0.1491E-06  0.5076E-03  0.2824E-04  0.6216E+05
   -1.850010   30.18269  0.3513E-13  0.8592E-05  0.2382E-06  0.4643E-03  0.2037E-04  0.1065E+08
   -1.900008   30.18218  0.3513E-13  0.6786E-05  0.4997E-06  0.2101E-03  0.1644E-04  0.2050E+07
   -1.950006   30.20031  0.3513E-13  0.4734E-05  0.1253E-05  0.1829E-03  0.8880E-05 -0.4436E+06
   -2.000003   30.20233  0.3513E-13  0.0000E+00  0.0000E+00  0.0000E+00  0.1607E-04  0.0000E+00
