 1 - depth, m
 2 - temperature, C
 3 - salinity, kg/kg
 4 - turbulent kinetic energy, m**2/s**2
 5 - dissipation rate, m**2/s**3
 6 - kinematic heat conductance, m**2/s
 7 - modulus of horizontal velocity, m/s
 8 - Richardson number, n/d
   -0.000000   30.66570  0.2362E-13  0.5132E-05  0.3308E-06  0.5262E-04  0.1919E-02  0.4685E+04
   -0.049997   30.69730  0.2362E-13  0.8668E-05  0.1474E-06  0.1770E-03  0.1110E-02  0.3410E+04
   -0.099994   30.71004  0.2362E-13  0.1053E-04  0.1006E-06  0.4044E-03  0.8100E-03  0.1331E+02
   -0.149992   30.71349  0.2362E-13  0.1169E-04  0.8414E-07  0.4831E-03  0.7159E-03  0.6515E+01
   -0.199991   30.71625  0.2362E-13  0.1259E-04  0.7452E-07  0.6490E-03  0.6392E-03  0.4154E+01
   -0.249989   30.71824  0.2362E-13  0.1330E-04  0.6825E-07  0.7761E-03  0.5821E-03  0.3060E+01
   -0.299988   30.71987  0.2362E-13  0.1389E-04  0.6378E-07  0.9038E-03  0.5346E-03  0.2427E+01
   -0.349988   30.72122  0.2362E-13  0.1437E-04  0.6043E-07  0.1019E-02  0.4939E-03  0.2072E+01
   -0.399988   30.72240  0.2362E-13  0.1477E-04  0.5782E-07  0.1125E-02  0.4580E-03  0.1842E+01
   -0.449988   30.72343  0.2362E-13  0.1512E-04  0.5571E-07  0.1223E-02  0.4264E-03  0.1728E+01
   -0.499988   30.72437  0.2362E-13  0.1541E-04  0.5395E-07  0.1313E-02  0.3985E-03  0.1677E+01
   -0.549989   30.72523  0.2362E-13  0.1567E-04  0.5248E-07  0.1395E-02  0.3735E-03  0.1654E+01
   -0.599989   30.72602  0.2362E-13  0.1589E-04  0.5125E-07  0.1470E-02  0.3508E-03  0.1651E+01
   -0.649990   30.72676  0.2362E-13  0.1608E-04  0.5019E-07  0.1536E-02  0.3302E-03  0.1671E+01
   -0.699992   30.72745  0.2362E-13  0.1624E-04  0.4931E-07  0.1595E-02  0.3112E-03  0.1705E+01
   -0.749993   30.72811  0.2362E-13  0.1636E-04  0.4856E-07  0.1646E-02  0.2936E-03  0.1761E+01
   -0.799994   30.72874  0.2362E-13  0.1647E-04  0.4793E-07  0.1690E-02  0.2773E-03  0.1830E+01
   -0.849996   30.72935  0.2362E-13  0.1655E-04  0.4743E-07  0.1725E-02  0.2620E-03  0.1925E+01
   -0.899998   30.72994  0.2362E-13  0.1660E-04  0.4703E-07  0.1752E-02  0.2477E-03  0.2036E+01
   -0.949999   30.73051  0.2362E-13  0.1664E-04  0.4675E-07  0.1770E-02  0.2342E-03  0.2181E+01
   -1.000001   30.73107  0.2362E-13  0.1665E-04  0.4657E-07  0.1781E-02  0.2214E-03  0.2350E+01
   -1.050003   30.73162  0.2362E-13  0.1663E-04  0.4651E-07  0.1780E-02  0.2093E-03  0.2663E+01
   -1.100004   30.73217  0.2362E-13  0.1660E-04  0.4657E-07  0.1875E-02  0.1977E-03  0.8745E+01
   -1.150006   30.73268  0.2362E-13  0.1654E-04  0.4678E-07  0.1684E-02  0.1874E-03  0.2030E+02
   -1.200008   30.73325  0.2362E-13  0.1645E-04  0.4713E-07  0.1716E-02  0.1766E-03  0.3863E+01
   -1.250009   30.73381  0.2362E-13  0.1634E-04  0.4767E-07  0.1685E-02  0.1663E-03  0.4105E+01
   -1.300010   30.73437  0.2362E-13  0.1620E-04  0.4844E-07  0.1633E-02  0.1564E-03  0.4822E+01
   -1.350011   30.73494  0.2362E-13  0.1602E-04  0.4950E-07  0.1571E-02  0.1467E-03  0.5779E+01
   -1.400012   30.73554  0.2362E-13  0.1580E-04  0.5096E-07  0.1491E-02  0.1373E-03  0.7187E+01
   -1.450013   30.73617  0.2362E-13  0.1554E-04  0.5296E-07  0.1410E-02  0.1281E-03  0.9215E+01
   -1.500014   30.73683  0.2362E-13  0.1522E-04  0.5577E-07  0.1297E-02  0.1190E-03  0.1267E+02
   -1.550014   30.73756  0.2362E-13  0.1483E-04  0.5980E-07  0.1209E-02  0.1099E-03  0.1862E+02
   -1.600014   30.73836  0.2362E-13  0.1434E-04  0.6608E-07  0.1067E-02  0.1008E-03 -0.6292E+03
   -1.650014   30.73934  0.2362E-13  0.1371E-04  0.7595E-07  0.9798E-03  0.9107E-04  0.7982E+03
   -1.700013   30.74048  0.2362E-13  0.1285E-04  0.9328E-07  0.8050E-03  0.8133E-04  0.1353E+05
   -1.750013   30.74245  0.2362E-13  0.1174E-04  0.1218E-06  0.7189E-03  0.6868E-04  0.1544E+06
   -1.800011   30.74410  0.2362E-13  0.1026E-04  0.1852E-06  0.5038E-03  0.5873E-04  0.2901E+06
   -1.850010   30.75113  0.2362E-13  0.8665E-05  0.3007E-06  0.4591E-03  0.4159E-04  0.1139E+08
   -1.900007   30.74934  0.2362E-13  0.6802E-05  0.6289E-06  0.2091E-03  0.3371E-04 -0.1949E+05
   -1.950005   30.77037  0.2362E-13  0.4818E-05  0.1532E-05  0.2012E-03  0.1781E-04 -0.1714E+06
   -2.000002   30.77121  0.2362E-13  0.0000E+00  0.0000E+00  0.0000E+00  0.3442E-04  0.0000E+00
