 1 - depth, m
 2 - temperature, C
 3 - salinity, kg/kg
 4 - turbulent kinetic energy, m**2/s**2
 5 - dissipation rate, m**2/s**3
 6 - kinematic heat conductance, m**2/s
 7 - modulus of horizontal velocity, m/s
 8 - Richardson number, n/d
   -0.000000   30.24935  0.4089E-14  0.5435E-05  0.3151E-06  0.5236E-04  0.3302E-02  0.9566E+03
   -0.049997   30.28108  0.4089E-14  0.8812E-05  0.1370E-06  0.2013E-03  0.1790E-02  0.3101E+02
   -0.099994   30.29086  0.4089E-14  0.1038E-04  0.9701E-07  0.3872E-03  0.1400E-02  0.4951E+01
   -0.149992   30.29435  0.4089E-14  0.1142E-04  0.8163E-07  0.4833E-03  0.1247E-02  0.2556E+01
   -0.199991   30.29703  0.4089E-14  0.1222E-04  0.7262E-07  0.6232E-03  0.1126E-02  0.1697E+01
   -0.249989   30.29904  0.4089E-14  0.1288E-04  0.6669E-07  0.7332E-03  0.1033E-02  0.1327E+01
   -0.299989   30.30070  0.4089E-14  0.1343E-04  0.6234E-07  0.8401E-03  0.9536E-03  0.1252E+01
   -0.349988   30.30211  0.4089E-14  0.1393E-04  0.5882E-07  0.9595E-03  0.8794E-03  0.1314E+01
   -0.399988   30.30331  0.4089E-14  0.1438E-04  0.5588E-07  0.1088E-02  0.8071E-03  0.1340E+01
   -0.449988   30.30434  0.4089E-14  0.1480E-04  0.5339E-07  0.1213E-02  0.7401E-03  0.1350E+01
   -0.499988   30.30525  0.4089E-14  0.1516E-04  0.5129E-07  0.1330E-02  0.6794E-03  0.1358E+01
   -0.549989   30.30606  0.4089E-14  0.1546E-04  0.4954E-07  0.1438E-02  0.6250E-03  0.1353E+01
   -0.599990   30.30679  0.4089E-14  0.1572E-04  0.4806E-07  0.1535E-02  0.5760E-03  0.1345E+01
   -0.649991   30.30747  0.4089E-14  0.1593E-04  0.4683E-07  0.1620E-02  0.5319E-03  0.1332E+01
   -0.699992   30.30810  0.4089E-14  0.1609E-04  0.4581E-07  0.1692E-02  0.4923E-03  0.1315E+01
   -0.749993   30.30869  0.4089E-14  0.1621E-04  0.4497E-07  0.1751E-02  0.4566E-03  0.1292E+01
   -0.799995   30.30925  0.4089E-14  0.1629E-04  0.4429E-07  0.1797E-02  0.4244E-03  0.1268E+01
   -0.849996   30.30979  0.4089E-14  0.1634E-04  0.4376E-07  0.1830E-02  0.3955E-03  0.1238E+01
   -0.899998   30.31031  0.4089E-14  0.1636E-04  0.4337E-07  0.1850E-02  0.3695E-03  0.1206E+01
   -0.950000   30.31081  0.4089E-14  0.1635E-04  0.4310E-07  0.1859E-02  0.3461E-03  0.1173E+01
   -1.000001   30.31131  0.4089E-14  0.1632E-04  0.4295E-07  0.1857E-02  0.3250E-03  0.1147E+01
   -1.050003   30.31180  0.4089E-14  0.1626E-04  0.4291E-07  0.1843E-02  0.3060E-03  0.1172E+01
   -1.100005   30.31229  0.4089E-14  0.1619E-04  0.4298E-07  0.1982E-02  0.2887E-03  0.3436E+01
   -1.150007   30.31274  0.4089E-14  0.1609E-04  0.4318E-07  0.1680E-02  0.2744E-03  0.8725E+01
   -1.200008   30.31326  0.4089E-14  0.1597E-04  0.4351E-07  0.1751E-02  0.2586E-03  0.1583E+01
   -1.250010   30.31375  0.4089E-14  0.1582E-04  0.4403E-07  0.1715E-02  0.2438E-03  0.1672E+01
   -1.300011   30.31425  0.4089E-14  0.1564E-04  0.4476E-07  0.1654E-02  0.2296E-03  0.1963E+01
   -1.350012   30.31476  0.4089E-14  0.1542E-04  0.4578E-07  0.1584E-02  0.2157E-03  0.2367E+01
   -1.400013   30.31529  0.4089E-14  0.1517E-04  0.4719E-07  0.1495E-02  0.2021E-03  0.2954E+01
   -1.450014   30.31584  0.4089E-14  0.1487E-04  0.4914E-07  0.1407E-02  0.1886E-03  0.3826E+01
   -1.500015   30.31643  0.4089E-14  0.1451E-04  0.5193E-07  0.1286E-02  0.1753E-03  0.5318E+01
   -1.550015   30.31708  0.4089E-14  0.1408E-04  0.5597E-07  0.1198E-02  0.1619E-03  0.8005E+01
   -1.600015   30.31779  0.4089E-14  0.1356E-04  0.6242E-07  0.1053E-02  0.1486E-03  0.1826E+02
   -1.650015   30.31868  0.4089E-14  0.1287E-04  0.7282E-07  0.9645E-03  0.1340E-03  0.5060E+04
   -1.700014   30.31976  0.4089E-14  0.1192E-04  0.9090E-07  0.7878E-03  0.1189E-03 -0.4611E+03
   -1.750013   30.32160  0.4089E-14  0.1074E-04  0.1202E-06  0.6994E-03  0.9926E-04  0.3161E+05
   -1.800012   30.32303  0.4089E-14  0.9208E-05  0.1874E-06  0.4770E-03  0.8447E-04  0.2475E+05
   -1.850011   30.32994  0.4089E-14  0.7666E-05  0.3075E-06  0.4469E-03  0.5758E-04  0.2026E+08
   -1.900008   30.32732  0.4089E-14  0.6017E-05  0.6440E-06  0.2111E-03  0.4748E-04 -0.4090E+05
   -1.950006   30.34626  0.4089E-14  0.4278E-05  0.1567E-05  0.2115E-03  0.2441E-04 -0.2461E+06
   -2.000003   30.34597  0.4089E-14  0.0000E+00  0.0000E+00  0.0000E+00  0.5136E-04  0.0000E+00
