 1 - depth, m
 2 - temperature, C
 3 - salinity, kg/kg
 4 - turbulent kinetic energy, m**2/s**2
 5 - dissipation rate, m**2/s**3
 6 - kinematic heat conductance, m**2/s
 7 - modulus of horizontal velocity, m/s
 8 - Richardson number, n/d
   -0.000000   30.40067  0.9888E-13  0.4495E-05  0.2731E-06  0.4935E-04  0.8735E-03  0.7566E+04
   -0.049997   30.42903  0.9888E-13  0.7841E-05  0.1210E-06  0.1711E-03  0.4998E-03  0.2820E+02
   -0.099994   30.44038  0.9889E-13  0.9532E-05  0.8311E-07  0.4022E-03  0.3601E-03  0.5966E+02
   -0.149992   30.44332  0.9889E-13  0.1057E-04  0.7009E-07  0.4752E-03  0.3186E-03  0.2883E+02
   -0.199991   30.44572  0.9889E-13  0.1138E-04  0.6240E-07  0.6351E-03  0.2844E-03  0.1867E+02
   -0.249989   30.44746  0.9889E-13  0.1202E-04  0.5733E-07  0.7582E-03  0.2588E-03  0.1383E+02
   -0.299988   30.44887  0.9889E-13  0.1255E-04  0.5371E-07  0.8804E-03  0.2375E-03  0.1103E+02
   -0.349988   30.45006  0.9889E-13  0.1299E-04  0.5099E-07  0.9914E-03  0.2192E-03  0.9450E+01
   -0.399988   30.45109  0.9889E-13  0.1336E-04  0.4887E-07  0.1093E-02  0.2031E-03  0.8424E+01
   -0.449988   30.45200  0.9889E-13  0.1368E-04  0.4715E-07  0.1187E-02  0.1888E-03  0.7911E+01
   -0.499988   30.45283  0.9889E-13  0.1395E-04  0.4572E-07  0.1274E-02  0.1762E-03  0.7691E+01
   -0.549989   30.45358  0.9889E-13  0.1419E-04  0.4453E-07  0.1354E-02  0.1650E-03  0.7591E+01
   -0.599990   30.45428  0.9889E-13  0.1440E-04  0.4353E-07  0.1426E-02  0.1548E-03  0.7590E+01
   -0.649991   30.45493  0.9889E-13  0.1458E-04  0.4268E-07  0.1491E-02  0.1455E-03  0.7688E+01
   -0.699992   30.45554  0.9889E-13  0.1474E-04  0.4197E-07  0.1548E-02  0.1369E-03  0.7857E+01
   -0.749993   30.45613  0.9889E-13  0.1487E-04  0.4138E-07  0.1599E-02  0.1290E-03  0.8120E+01
   -0.799995   30.45668  0.9889E-13  0.1497E-04  0.4090E-07  0.1642E-02  0.1217E-03  0.8454E+01
   -0.849996   30.45722  0.9889E-13  0.1506E-04  0.4051E-07  0.1677E-02  0.1149E-03  0.8894E+01
   -0.899998   30.45774  0.9889E-13  0.1513E-04  0.4021E-07  0.1705E-02  0.1085E-03  0.9421E+01
   -0.950000   30.45825  0.9889E-13  0.1518E-04  0.4001E-07  0.1725E-02  0.1024E-03  0.1009E+02
   -1.000001   30.45874  0.9889E-13  0.1521E-04  0.3989E-07  0.1737E-02  0.9670E-04  0.1088E+02
   -1.050003   30.45923  0.9889E-13  0.1521E-04  0.3987E-07  0.1740E-02  0.9127E-04  0.1234E+02
   -1.100005   30.45972  0.9889E-13  0.1520E-04  0.3996E-07  0.1817E-02  0.8611E-04  0.4135E+02
   -1.150006   30.46018  0.9889E-13  0.1517E-04  0.4016E-07  0.1675E-02  0.8149E-04  0.9011E+02
   -1.200008   30.46068  0.9889E-13  0.1512E-04  0.4047E-07  0.1691E-02  0.7675E-04  0.1764E+02
   -1.250009   30.46118  0.9889E-13  0.1504E-04  0.4094E-07  0.1663E-02  0.7220E-04  0.1878E+02
   -1.300011   30.46168  0.9889E-13  0.1494E-04  0.4159E-07  0.1618E-02  0.6782E-04  0.2191E+02
   -1.350012   30.46219  0.9889E-13  0.1481E-04  0.4246E-07  0.1562E-02  0.6358E-04  0.2601E+02
   -1.400013   30.46272  0.9889E-13  0.1465E-04  0.4363E-07  0.1491E-02  0.5945E-04  0.3187E+02
   -1.450014   30.46327  0.9889E-13  0.1445E-04  0.4520E-07  0.1416E-02  0.5541E-04  0.4006E+02
   -1.500014   30.46385  0.9889E-13  0.1421E-04  0.4734E-07  0.1310E-02  0.5146E-04  0.5339E+02
   -1.550015   30.46449  0.9889E-13  0.1391E-04  0.5031E-07  0.1226E-02  0.4750E-04  0.7389E+02
   -1.600015   30.46517  0.9889E-13  0.1354E-04  0.5476E-07  0.1083E-02  0.4363E-04  0.1295E+03
   -1.650015   30.46599  0.9889E-13  0.1306E-04  0.6145E-07  0.1005E-02  0.3953E-04  0.8871E+03
   -1.700014   30.46688  0.9889E-13  0.1242E-04  0.7337E-07  0.8244E-03  0.3562E-04 -0.1127E+05
   -1.750013   30.46838  0.9889E-13  0.1154E-04  0.9322E-07  0.7431E-03  0.3053E-04  0.1620E+06
   -1.800012   30.46977  0.9889E-13  0.1032E-04  0.1326E-06  0.5305E-03  0.2630E-04  0.3474E+06
   -1.850010   30.47443  0.9889E-13  0.8851E-05  0.2085E-06  0.4730E-03  0.1943E-04  0.1571E+08
   -1.900008   30.47453  0.9889E-13  0.7010E-05  0.4265E-06  0.2138E-03  0.1564E-04  0.1429E+07
   -1.950006   30.49112  0.9889E-13  0.4836E-05  0.1104E-05  0.1705E-03  0.8596E-05 -0.2098E+07
   -2.000003   30.49477  0.9889E-13  0.0000E+00  0.0000E+00  0.0000E+00  0.1467E-04  0.0000E+00
