 1 - depth, m
 2 - temperature, C
 3 - salinity, kg/kg
 4 - turbulent kinetic energy, m**2/s**2
 5 - dissipation rate, m**2/s**3
 6 - kinematic heat conductance, m**2/s
 7 - modulus of horizontal velocity, m/s
 8 - Richardson number, n/d
   -0.000000   29.47548  0.1997E-14  0.4282E-05  0.2494E-06  0.4757E-04  0.1326E-02  0.9187E+04
   -0.049997   29.50218  0.1998E-14  0.7430E-05  0.1110E-06  0.1712E-03  0.7491E-03  0.4045E+04
   -0.099994   29.51238  0.1998E-14  0.9025E-05  0.7671E-07  0.3881E-03  0.5461E-03  0.2491E+02
   -0.149992   29.51519  0.1998E-14  0.1002E-04  0.6463E-07  0.4680E-03  0.4818E-03  0.1213E+02
   -0.199991   29.51743  0.1998E-14  0.1081E-04  0.5757E-07  0.6231E-03  0.4299E-03  0.7848E+01
   -0.249989   29.51908  0.1998E-14  0.1143E-04  0.5295E-07  0.7450E-03  0.3909E-03  0.5806E+01
   -0.299989   29.52042  0.1998E-14  0.1195E-04  0.4967E-07  0.8655E-03  0.3584E-03  0.4645E+01
   -0.349988   29.52155  0.1998E-14  0.1238E-04  0.4722E-07  0.9751E-03  0.3306E-03  0.3983E+01
   -0.399988   29.52253  0.1998E-14  0.1275E-04  0.4533E-07  0.1075E-02  0.3060E-03  0.3566E+01
   -0.449988   29.52341  0.1998E-14  0.1307E-04  0.4381E-07  0.1169E-02  0.2844E-03  0.3352E+01
   -0.499988   29.52420  0.1998E-14  0.1335E-04  0.4256E-07  0.1255E-02  0.2653E-03  0.3275E+01
   -0.549989   29.52493  0.1998E-14  0.1360E-04  0.4152E-07  0.1333E-02  0.2482E-03  0.3236E+01
   -0.599990   29.52560  0.1998E-14  0.1381E-04  0.4066E-07  0.1405E-02  0.2327E-03  0.3255E+01
   -0.649991   29.52624  0.1998E-14  0.1400E-04  0.3995E-07  0.1469E-02  0.2187E-03  0.3301E+01
   -0.699992   29.52683  0.1998E-14  0.1416E-04  0.3936E-07  0.1526E-02  0.2057E-03  0.3395E+01
   -0.749993   29.52740  0.1998E-14  0.1430E-04  0.3888E-07  0.1576E-02  0.1938E-03  0.3513E+01
   -0.799995   29.52795  0.1998E-14  0.1442E-04  0.3850E-07  0.1619E-02  0.1827E-03  0.3684E+01
   -0.849996   29.52848  0.1998E-14  0.1452E-04  0.3821E-07  0.1654E-02  0.1724E-03  0.3881E+01
   -0.899998   29.52899  0.1998E-14  0.1460E-04  0.3800E-07  0.1681E-02  0.1627E-03  0.4142E+01
   -0.950000   29.52949  0.1998E-14  0.1466E-04  0.3789E-07  0.1701E-02  0.1535E-03  0.4441E+01
   -1.000002   29.52998  0.1998E-14  0.1470E-04  0.3786E-07  0.1713E-02  0.1449E-03  0.4826E+01
   -1.050003   29.53047  0.1998E-14  0.1473E-04  0.3791E-07  0.1715E-02  0.1367E-03  0.5489E+01
   -1.100005   29.53096  0.1998E-14  0.1473E-04  0.3807E-07  0.1789E-02  0.1289E-03  0.1852E+02
   -1.150007   29.53142  0.1998E-14  0.1471E-04  0.3834E-07  0.1652E-02  0.1219E-03  0.4061E+02
   -1.200008   29.53193  0.1998E-14  0.1467E-04  0.3872E-07  0.1666E-02  0.1148E-03  0.7950E+01
   -1.250010   29.53243  0.1998E-14  0.1461E-04  0.3924E-07  0.1638E-02  0.1079E-03  0.8554E+01
   -1.300011   29.53293  0.1998E-14  0.1453E-04  0.3995E-07  0.1593E-02  0.1013E-03  0.9995E+01
   -1.350012   29.53346  0.1998E-14  0.1442E-04  0.4087E-07  0.1538E-02  0.9493E-04  0.1199E+02
   -1.400013   29.53400  0.1998E-14  0.1427E-04  0.4208E-07  0.1467E-02  0.8872E-04  0.1473E+02
   -1.450014   29.53457  0.1998E-14  0.1409E-04  0.4368E-07  0.1393E-02  0.8263E-04  0.1874E+02
   -1.500015   29.53517  0.1998E-14  0.1386E-04  0.4585E-07  0.1289E-02  0.7667E-04  0.2510E+02
   -1.550015   29.53583  0.1998E-14  0.1358E-04  0.4885E-07  0.1205E-02  0.7070E-04  0.3529E+02
   -1.600015   29.53655  0.1998E-14  0.1322E-04  0.5327E-07  0.1065E-02  0.6487E-04  0.5941E+02
   -1.650015   29.53739  0.1998E-14  0.1277E-04  0.5993E-07  0.9884E-03  0.5873E-04 -0.2752E+03
   -1.700015   29.53834  0.1998E-14  0.1214E-04  0.7192E-07  0.8091E-03  0.5280E-04  0.5796E+05
   -1.750014   29.53996  0.1998E-14  0.1127E-04  0.9168E-07  0.7316E-03  0.4506E-04  0.6802E+05
   -1.800012   29.54144  0.1998E-14  0.1008E-04  0.1312E-06  0.5120E-03  0.3878E-04  0.1676E+05
   -1.850011   29.54664  0.1998E-14  0.8648E-05  0.2074E-06  0.4679E-03  0.2839E-04  0.6575E+07
   -1.900009   29.54641  0.1998E-14  0.6923E-05  0.4299E-06  0.2138E-03  0.2295E-04 -0.3004E+05
   -1.950006   29.56392  0.1998E-14  0.4774E-05  0.1104E-05  0.1683E-03  0.1269E-04 -0.1147E+06
   -2.000003   29.56752  0.1998E-14  0.0000E+00  0.0000E+00  0.0000E+00  0.2167E-04  0.0000E+00
