 1 - depth, m
 2 - temperature, C
 3 - salinity, kg/kg
 4 - turbulent kinetic energy, m**2/s**2
 5 - dissipation rate, m**2/s**3
 6 - kinematic heat conductance, m**2/s
 7 - modulus of horizontal velocity, m/s
 8 - Richardson number, n/d
   -0.000000   29.30449  0.8039E-13  0.4264E-05  0.2397E-06  0.4704E-04  0.1872E-02  0.7845E+04
   -0.049997   29.33088  0.8039E-13  0.7254E-05  0.1064E-06  0.1697E-03  0.1046E-02  0.4621E+03
   -0.099994   29.34058  0.8039E-13  0.8749E-05  0.7364E-07  0.3761E-03  0.7721E-03  0.1479E+02
   -0.149992   29.34340  0.8039E-13  0.9688E-05  0.6195E-07  0.4573E-03  0.6806E-03  0.7128E+01
   -0.199991   29.34562  0.8039E-13  0.1042E-04  0.5508E-07  0.6047E-03  0.6075E-03  0.4615E+01
   -0.249989   29.34725  0.8039E-13  0.1101E-04  0.5056E-07  0.7232E-03  0.5521E-03  0.3398E+01
   -0.299989   29.34858  0.8039E-13  0.1149E-04  0.4733E-07  0.8384E-03  0.5061E-03  0.2714E+01
   -0.349988   29.34970  0.8039E-13  0.1189E-04  0.4490E-07  0.9434E-03  0.4665E-03  0.2330E+01
   -0.399988   29.35067  0.8039E-13  0.1223E-04  0.4300E-07  0.1041E-02  0.4312E-03  0.2104E+01
   -0.449988   29.35153  0.8039E-13  0.1253E-04  0.4144E-07  0.1134E-02  0.3998E-03  0.1987E+01
   -0.499988   29.35231  0.8039E-13  0.1279E-04  0.4015E-07  0.1220E-02  0.3718E-03  0.1950E+01
   -0.549989   29.35301  0.8039E-13  0.1301E-04  0.3907E-07  0.1299E-02  0.3467E-03  0.1923E+01
   -0.599990   29.35367  0.8039E-13  0.1321E-04  0.3816E-07  0.1371E-02  0.3240E-03  0.1932E+01
   -0.649991   29.35427  0.8039E-13  0.1338E-04  0.3740E-07  0.1436E-02  0.3035E-03  0.1945E+01
   -0.699992   29.35485  0.8039E-13  0.1353E-04  0.3676E-07  0.1493E-02  0.2847E-03  0.1991E+01
   -0.749993   29.35539  0.8039E-13  0.1365E-04  0.3622E-07  0.1543E-02  0.2674E-03  0.2040E+01
   -0.799995   29.35591  0.8039E-13  0.1375E-04  0.3579E-07  0.1585E-02  0.2515E-03  0.2125E+01
   -0.849997   29.35641  0.8039E-13  0.1383E-04  0.3544E-07  0.1620E-02  0.2369E-03  0.2214E+01
   -0.899998   29.35690  0.8039E-13  0.1389E-04  0.3517E-07  0.1647E-02  0.2232E-03  0.2350E+01
   -0.950000   29.35737  0.8039E-13  0.1394E-04  0.3499E-07  0.1667E-02  0.2104E-03  0.2498E+01
   -1.000002   29.35783  0.8039E-13  0.1396E-04  0.3488E-07  0.1679E-02  0.1984E-03  0.2707E+01
   -1.050003   29.35829  0.8039E-13  0.1397E-04  0.3485E-07  0.1683E-02  0.1870E-03  0.3057E+01
   -1.100005   29.35874  0.8039E-13  0.1397E-04  0.3491E-07  0.1751E-02  0.1762E-03  0.1037E+02
   -1.150007   29.35918  0.8039E-13  0.1394E-04  0.3507E-07  0.1628E-02  0.1665E-03  0.2227E+02
   -1.200008   29.35964  0.8039E-13  0.1389E-04  0.3533E-07  0.1640E-02  0.1567E-03  0.4362E+01
   -1.250010   29.36010  0.8039E-13  0.1383E-04  0.3571E-07  0.1612E-02  0.1472E-03  0.4672E+01
   -1.300011   29.36056  0.8039E-13  0.1374E-04  0.3625E-07  0.1570E-02  0.1381E-03  0.5405E+01
   -1.350013   29.36103  0.8039E-13  0.1362E-04  0.3698E-07  0.1518E-02  0.1293E-03  0.6446E+01
   -1.400014   29.36152  0.8039E-13  0.1348E-04  0.3794E-07  0.1452E-02  0.1207E-03  0.7811E+01
   -1.450014   29.36203  0.8039E-13  0.1330E-04  0.3924E-07  0.1380E-02  0.1124E-03  0.9836E+01
   -1.500015   29.36257  0.8039E-13  0.1309E-04  0.4099E-07  0.1281E-02  0.1042E-03  0.1288E+02
   -1.550015   29.36315  0.8039E-13  0.1283E-04  0.4342E-07  0.1197E-02  0.9610E-04  0.1772E+02
   -1.600016   29.36378  0.8039E-13  0.1250E-04  0.4697E-07  0.1061E-02  0.8815E-04  0.2781E+02
   -1.650015   29.36450  0.8039E-13  0.1209E-04  0.5229E-07  0.9813E-03  0.7987E-04  0.4345E+02
   -1.700015   29.36530  0.8039E-13  0.1154E-04  0.6171E-07  0.8069E-03  0.7189E-04 -0.5233E+03
   -1.750014   29.36659  0.8039E-13  0.1077E-04  0.7753E-07  0.7295E-03  0.6191E-04  0.1394E+05
   -1.800013   29.36787  0.8039E-13  0.9673E-05  0.1093E-06  0.5196E-03  0.5326E-04  0.8331E+04
   -1.850011   29.37174  0.8039E-13  0.8287E-05  0.1699E-06  0.4578E-03  0.3963E-04  0.3259E+08
   -1.900009   29.37225  0.8039E-13  0.6514E-05  0.3486E-06  0.2057E-03  0.3161E-04 -0.1636E+06
   -1.950006   29.38685  0.8039E-13  0.4438E-05  0.9133E-06  0.1585E-03  0.1725E-04 -0.7050E+06
   -2.000003   29.39045  0.8039E-13  0.0000E+00  0.0000E+00  0.0000E+00  0.2916E-04  0.0000E+00
