 1 - depth, m
 2 - temperature, C
 3 - salinity, kg/kg
 4 - turbulent kinetic energy, m**2/s**2
 5 - dissipation rate, m**2/s**3
 6 - kinematic heat conductance, m**2/s
 7 - modulus of horizontal velocity, m/s
 8 - Richardson number, n/d
   -0.000000   31.61060  0.1914E-13  0.5193E-05  0.3431E-06  0.5310E-04  0.7608E-03  0.1391E+04
   -0.049997   31.64316  0.1914E-13  0.9035E-05  0.1520E-06  0.1834E-03  0.4390E-03  0.5948E+02
   -0.099994   31.65606  0.1914E-13  0.1098E-04  0.1042E-06  0.4271E-03  0.3183E-03  0.8294E+02
   -0.149992   31.65942  0.1914E-13  0.1219E-04  0.8771E-07  0.4999E-03  0.2826E-03  0.4081E+02
   -0.199990   31.66218  0.1914E-13  0.1313E-04  0.7800E-07  0.6734E-03  0.2528E-03  0.2638E+02
   -0.249989   31.66416  0.1914E-13  0.1388E-04  0.7165E-07  0.8028E-03  0.2307E-03  0.1959E+02
   -0.299988   31.66578  0.1914E-13  0.1449E-04  0.6712E-07  0.9335E-03  0.2122E-03  0.1563E+02
   -0.349988   31.66714  0.1914E-13  0.1499E-04  0.6373E-07  0.1051E-02  0.1964E-03  0.1338E+02
   -0.399987   31.66832  0.1914E-13  0.1541E-04  0.6110E-07  0.1159E-02  0.1824E-03  0.1194E+02
   -0.449987   31.66936  0.1914E-13  0.1578E-04  0.5896E-07  0.1258E-02  0.1701E-03  0.1119E+02
   -0.499988   31.67031  0.1914E-13  0.1609E-04  0.5720E-07  0.1349E-02  0.1591E-03  0.1089E+02
   -0.549988   31.67117  0.1914E-13  0.1637E-04  0.5573E-07  0.1432E-02  0.1493E-03  0.1073E+02
   -0.599989   31.67197  0.1914E-13  0.1660E-04  0.5449E-07  0.1507E-02  0.1405E-03  0.1073E+02
   -0.649990   31.67272  0.1914E-13  0.1680E-04  0.5346E-07  0.1574E-02  0.1324E-03  0.1086E+02
   -0.699991   31.67343  0.1914E-13  0.1697E-04  0.5259E-07  0.1633E-02  0.1249E-03  0.1111E+02
   -0.749992   31.67410  0.1914E-13  0.1711E-04  0.5188E-07  0.1684E-02  0.1180E-03  0.1147E+02
   -0.799994   31.67474  0.1914E-13  0.1722E-04  0.5130E-07  0.1726E-02  0.1115E-03  0.1197E+02
   -0.849995   31.67536  0.1914E-13  0.1731E-04  0.5084E-07  0.1760E-02  0.1055E-03  0.1259E+02
   -0.899997   31.67597  0.1914E-13  0.1738E-04  0.5051E-07  0.1785E-02  0.9984E-04  0.1339E+02
   -0.949998   31.67656  0.1914E-13  0.1741E-04  0.5029E-07  0.1801E-02  0.9449E-04  0.1435E+02
   -1.000000   31.67713  0.1914E-13  0.1743E-04  0.5020E-07  0.1809E-02  0.8942E-04  0.1555E+02
   -1.050002   31.67771  0.1914E-13  0.1742E-04  0.5023E-07  0.1806E-02  0.8460E-04  0.1763E+02
   -1.100003   31.67828  0.1914E-13  0.1738E-04  0.5040E-07  0.1915E-02  0.7998E-04  0.5727E+02
   -1.150005   31.67881  0.1914E-13  0.1732E-04  0.5075E-07  0.1686E-02  0.7591E-04  0.1402E+03
   -1.200007   31.67942  0.1914E-13  0.1724E-04  0.5126E-07  0.1729E-02  0.7155E-04  0.2612E+02
   -1.250008   31.68001  0.1914E-13  0.1712E-04  0.5199E-07  0.1696E-02  0.6743E-04  0.2799E+02
   -1.300009   31.68060  0.1914E-13  0.1696E-04  0.5300E-07  0.1637E-02  0.6345E-04  0.3313E+02
   -1.350010   31.68122  0.1914E-13  0.1677E-04  0.5437E-07  0.1573E-02  0.5958E-04  0.4027E+02
   -1.400011   31.68186  0.1914E-13  0.1653E-04  0.5622E-07  0.1483E-02  0.5579E-04  0.5090E+02
   -1.450012   31.68255  0.1914E-13  0.1624E-04  0.5875E-07  0.1405E-02  0.5205E-04  0.6652E+02
   -1.500013   31.68328  0.1914E-13  0.1589E-04  0.6231E-07  0.1278E-02  0.4836E-04  0.9488E+02
   -1.550013   31.68410  0.1914E-13  0.1545E-04  0.6741E-07  0.1203E-02  0.4460E-04  0.1435E+03
   -1.600013   31.68498  0.1914E-13  0.1490E-04  0.7561E-07  0.1046E-02  0.4096E-04  0.1534E+04
   -1.650013   31.68617  0.1914E-13  0.1417E-04  0.8834E-07  0.9736E-03  0.3679E-04  0.1900E+04
   -1.700012   31.68747  0.1914E-13  0.1316E-04  0.1108E-06  0.7825E-03  0.3280E-04  0.1781E+06
   -1.750011   31.69008  0.1914E-13  0.1191E-04  0.1476E-06  0.7160E-03  0.2713E-04  0.2258E+06
   -1.800010   31.69170  0.1914E-13  0.1034E-04  0.2275E-06  0.4851E-03  0.2333E-04  0.1328E+06
   -1.850008   31.70117  0.1914E-13  0.8722E-05  0.3785E-06  0.4622E-03  0.1594E-04  0.3605E+09
   -1.900006   31.69742  0.1914E-13  0.6953E-05  0.7973E-06  0.2167E-03  0.1321E-04 -0.3120E+06
   -1.950003   31.72283  0.1914E-13  0.4994E-05  0.1920E-05  0.2179E-03  0.6919E-05 -0.1526E+07
   -2.000000   31.72299  0.1914E-13  0.0000E+00  0.0000E+00  0.0000E+00  0.1396E-04  0.0000E+00
