 1 - depth, m
 2 - temperature, C
 3 - salinity, kg/kg
 4 - turbulent kinetic energy, m**2/s**2
 5 - dissipation rate, m**2/s**3
 6 - kinematic heat conductance, m**2/s
 7 - modulus of horizontal velocity, m/s
 8 - Richardson number, n/d
   -0.000000   30.00532  0.7599E-13  0.4677E-05  0.2829E-06  0.4841E-04  0.1287E-02  0.4074E+04
   -0.049997   30.03610  0.7599E-13  0.8069E-05  0.1261E-06  0.1798E-03  0.7229E-03  0.1041E+05
   -0.099994   30.04720  0.7599E-13  0.9760E-05  0.8753E-07  0.3933E-03  0.5338E-03  0.2900E+02
   -0.149992   30.05040  0.7599E-13  0.1083E-04  0.7357E-07  0.4778E-03  0.4710E-03  0.1425E+02
   -0.199991   30.05292  0.7599E-13  0.1165E-04  0.6537E-07  0.6353E-03  0.4206E-03  0.9156E+01
   -0.249989   30.05475  0.7599E-13  0.1231E-04  0.5998E-07  0.7591E-03  0.3828E-03  0.6759E+01
   -0.299989   30.05625  0.7599E-13  0.1285E-04  0.5613E-07  0.8820E-03  0.3513E-03  0.5375E+01
   -0.349988   30.05750  0.7599E-13  0.1329E-04  0.5324E-07  0.9934E-03  0.3243E-03  0.4595E+01
   -0.399988   30.05859  0.7599E-13  0.1367E-04  0.5098E-07  0.1095E-02  0.3004E-03  0.4091E+01
   -0.449988   30.05955  0.7599E-13  0.1399E-04  0.4914E-07  0.1190E-02  0.2794E-03  0.3840E+01
   -0.499988   30.06042  0.7599E-13  0.1426E-04  0.4762E-07  0.1277E-02  0.2608E-03  0.3734E+01
   -0.549989   30.06121  0.7599E-13  0.1450E-04  0.4634E-07  0.1357E-02  0.2441E-03  0.3683E+01
   -0.599990   30.06194  0.7599E-13  0.1471E-04  0.4526E-07  0.1429E-02  0.2291E-03  0.3681E+01
   -0.649991   30.06263  0.7599E-13  0.1489E-04  0.4435E-07  0.1494E-02  0.2154E-03  0.3724E+01
   -0.699992   30.06327  0.7599E-13  0.1503E-04  0.4357E-07  0.1551E-02  0.2028E-03  0.3805E+01
   -0.749993   30.06388  0.7599E-13  0.1516E-04  0.4292E-07  0.1601E-02  0.1911E-03  0.3925E+01
   -0.799995   30.06447  0.7599E-13  0.1526E-04  0.4238E-07  0.1644E-02  0.1803E-03  0.4085E+01
   -0.849996   30.06503  0.7599E-13  0.1534E-04  0.4194E-07  0.1679E-02  0.1702E-03  0.4291E+01
   -0.899998   30.06557  0.7599E-13  0.1539E-04  0.4159E-07  0.1706E-02  0.1607E-03  0.4543E+01
   -0.950000   30.06610  0.7599E-13  0.1543E-04  0.4134E-07  0.1725E-02  0.1518E-03  0.4857E+01
   -1.000001   30.06662  0.7599E-13  0.1545E-04  0.4118E-07  0.1736E-02  0.1433E-03  0.5234E+01
   -1.050003   30.06713  0.7599E-13  0.1544E-04  0.4112E-07  0.1738E-02  0.1353E-03  0.5924E+01
   -1.100005   30.06764  0.7599E-13  0.1542E-04  0.4117E-07  0.1821E-02  0.1277E-03  0.1967E+02
   -1.150006   30.06812  0.7599E-13  0.1537E-04  0.4134E-07  0.1661E-02  0.1209E-03  0.4416E+02
   -1.200008   30.06864  0.7599E-13  0.1530E-04  0.4163E-07  0.1684E-02  0.1138E-03  0.8504E+01
   -1.250010   30.06915  0.7599E-13  0.1521E-04  0.4208E-07  0.1654E-02  0.1071E-03  0.9037E+01
   -1.300011   30.06966  0.7599E-13  0.1509E-04  0.4273E-07  0.1607E-02  0.1006E-03  0.1055E+02
   -1.350012   30.07019  0.7599E-13  0.1493E-04  0.4361E-07  0.1550E-02  0.9429E-04  0.1258E+02
   -1.400013   30.07074  0.7599E-13  0.1475E-04  0.4481E-07  0.1475E-02  0.8817E-04  0.1548E+02
   -1.450014   30.07131  0.7599E-13  0.1453E-04  0.4645E-07  0.1400E-02  0.8216E-04  0.1962E+02
   -1.500015   30.07191  0.7599E-13  0.1425E-04  0.4872E-07  0.1290E-02  0.7628E-04  0.2652E+02
   -1.550015   30.07257  0.7599E-13  0.1392E-04  0.5192E-07  0.1209E-02  0.7037E-04  0.3733E+02
   -1.600015   30.07328  0.7599E-13  0.1351E-04  0.5686E-07  0.1064E-02  0.6461E-04  0.7089E+02
   -1.650015   30.07415  0.7599E-13  0.1298E-04  0.6444E-07  0.9891E-03  0.5839E-04  0.1005E+03
   -1.700014   30.07509  0.7599E-13  0.1226E-04  0.7804E-07  0.8036E-03  0.5246E-04 -0.7155E+04
   -1.750013   30.07680  0.7599E-13  0.1128E-04  0.1007E-06  0.7301E-03  0.4448E-04  0.1629E+06
   -1.800012   30.07825  0.7599E-13  0.9980E-05  0.1478E-06  0.5092E-03  0.3820E-04  0.1761E+06
   -1.850010   30.08375  0.7599E-13  0.8490E-05  0.2365E-06  0.4671E-03  0.2756E-04  0.1558E+08
   -1.900008   30.08297  0.7599E-13  0.6723E-05  0.4916E-06  0.2146E-03  0.2233E-04 -0.4832E+06
   -1.950006   30.10055  0.7599E-13  0.4675E-05  0.1242E-05  0.1823E-03  0.1208E-04 -0.5331E+06
   -2.000003   30.10344  0.7599E-13  0.0000E+00  0.0000E+00  0.0000E+00  0.2189E-04  0.0000E+00
