 1 - depth, m
 2 - temperature, C
 3 - salinity, kg/kg
 4 - turbulent kinetic energy, m**2/s**2
 5 - dissipation rate, m**2/s**3
 6 - kinematic heat conductance, m**2/s
 7 - modulus of horizontal velocity, m/s
 8 - Richardson number, n/d
   -0.000000   30.42900  0.2232E-13  0.5672E-05  0.3198E-06  0.5419E-04  0.3883E-02  0.7042E+03
   -0.049997   30.45994  0.2232E-13  0.9014E-05  0.1376E-06  0.2090E-03  0.2093E-02  0.1484E+03
   -0.099994   30.46906  0.2232E-13  0.1053E-04  0.9853E-07  0.3873E-03  0.1670E-02  0.3713E+01
   -0.149992   30.47253  0.2232E-13  0.1154E-04  0.8325E-07  0.4843E-03  0.1494E-02  0.1966E+01
   -0.199991   30.47519  0.2232E-13  0.1234E-04  0.7433E-07  0.6111E-03  0.1357E-02  0.1374E+01
   -0.249989   30.47723  0.2232E-13  0.1302E-04  0.6833E-07  0.7162E-03  0.1249E-02  0.1255E+01
   -0.299988   30.47893  0.2232E-13  0.1363E-04  0.6372E-07  0.8380E-03  0.1151E-02  0.1332E+01
   -0.349988   30.48034  0.2232E-13  0.1421E-04  0.5992E-07  0.9785E-03  0.1055E-02  0.1423E+01
   -0.399988   30.48152  0.2232E-13  0.1474E-04  0.5677E-07  0.1124E-02  0.9616E-03  0.1448E+01
   -0.449988   30.48253  0.2232E-13  0.1522E-04  0.5413E-07  0.1266E-02  0.8749E-03  0.1453E+01
   -0.499988   30.48340  0.2232E-13  0.1564E-04  0.5195E-07  0.1399E-02  0.7971E-03  0.1453E+01
   -0.549989   30.48417  0.2232E-13  0.1599E-04  0.5016E-07  0.1520E-02  0.7277E-03  0.1442E+01
   -0.599989   30.48487  0.2232E-13  0.1629E-04  0.4868E-07  0.1628E-02  0.6658E-03  0.1427E+01
   -0.649991   30.48551  0.2232E-13  0.1653E-04  0.4747E-07  0.1721E-02  0.6105E-03  0.1407E+01
   -0.699992   30.48611  0.2232E-13  0.1671E-04  0.4650E-07  0.1799E-02  0.5611E-03  0.1383E+01
   -0.749993   30.48667  0.2232E-13  0.1685E-04  0.4573E-07  0.1860E-02  0.5169E-03  0.1356E+01
   -0.799995   30.48720  0.2232E-13  0.1694E-04  0.4514E-07  0.1905E-02  0.4774E-03  0.1326E+01
   -0.849996   30.48772  0.2232E-13  0.1699E-04  0.4471E-07  0.1935E-02  0.4420E-03  0.1292E+01
   -0.899998   30.48822  0.2232E-13  0.1701E-04  0.4443E-07  0.1950E-02  0.4105E-03  0.1257E+01
   -0.949999   30.48871  0.2232E-13  0.1699E-04  0.4429E-07  0.1951E-02  0.3822E-03  0.1217E+01
   -1.000001   30.48920  0.2232E-13  0.1695E-04  0.4428E-07  0.1939E-02  0.3569E-03  0.1175E+01
   -1.050003   30.48968  0.2232E-13  0.1689E-04  0.4439E-07  0.1910E-02  0.3343E-03  0.1140E+01
   -1.100005   30.49016  0.2232E-13  0.1681E-04  0.4461E-07  0.2083E-02  0.3144E-03  0.2811E+01
   -1.150006   30.49060  0.2232E-13  0.1670E-04  0.4497E-07  0.1709E-02  0.2994E-03  0.7523E+01
   -1.200008   30.49114  0.2232E-13  0.1657E-04  0.4546E-07  0.1803E-02  0.2823E-03  0.1349E+01
   -1.250009   30.49163  0.2232E-13  0.1642E-04  0.4616E-07  0.1764E-02  0.2664E-03  0.1417E+01
   -1.300011   30.49214  0.2232E-13  0.1623E-04  0.4710E-07  0.1696E-02  0.2511E-03  0.1676E+01
   -1.350012   30.49266  0.2232E-13  0.1600E-04  0.4838E-07  0.1619E-02  0.2362E-03  0.2042E+01
   -1.400013   30.49321  0.2232E-13  0.1574E-04  0.5012E-07  0.1523E-02  0.2216E-03  0.2590E+01
   -1.450014   30.49379  0.2232E-13  0.1542E-04  0.5251E-07  0.1429E-02  0.2070E-03  0.3415E+01
   -1.500014   30.49441  0.2232E-13  0.1504E-04  0.5588E-07  0.1304E-02  0.1926E-03  0.4876E+01
   -1.550015   30.49510  0.2232E-13  0.1458E-04  0.6081E-07  0.1213E-02  0.1779E-03  0.7837E+01
   -1.600015   30.49586  0.2232E-13  0.1400E-04  0.6869E-07  0.1066E-02  0.1632E-03  0.3650E+03
   -1.650014   30.49687  0.2232E-13  0.1324E-04  0.8136E-07  0.9706E-03  0.1468E-03  0.4617E+03
   -1.700014   30.49813  0.2232E-13  0.1220E-04  0.1034E-06  0.7890E-03  0.1295E-03 -0.6512E+04
   -1.750013   30.50025  0.2232E-13  0.1096E-04  0.1379E-06  0.6987E-03  0.1074E-03  0.5195E+05
   -1.800012   30.50173  0.2232E-13  0.9397E-05  0.2158E-06  0.4774E-03  0.9166E-04  0.6160E+04
   -1.850010   30.51011  0.2232E-13  0.7894E-05  0.3581E-06  0.4524E-03  0.6179E-04  0.2535E+07
   -1.900008   30.50627  0.2232E-13  0.6256E-05  0.7521E-06  0.2095E-03  0.5160E-04 -0.6809E+05
   -1.950005   30.52813  0.2232E-13  0.4485E-05  0.1776E-05  0.2242E-03  0.2663E-04 -0.6981E+05
   -2.000002   30.52715  0.2232E-13  0.0000E+00  0.0000E+00  0.0000E+00  0.5666E-04  0.0000E+00
