 1 - depth, m
 2 - temperature, C
 3 - salinity, kg/kg
 4 - turbulent kinetic energy, m**2/s**2
 5 - dissipation rate, m**2/s**3
 6 - kinematic heat conductance, m**2/s
 7 - modulus of horizontal velocity, m/s
 8 - Richardson number, n/d
   -0.000000   30.37759  0.3601E-14  0.5395E-05  0.3516E-06  0.5364E-04  0.2016E-02  0.7810E+04
   -0.049997   30.41133  0.3601E-14  0.9085E-05  0.1563E-06  0.1862E-03  0.1144E-02  0.7361E+03
   -0.099994   30.42398  0.3601E-14  0.1098E-04  0.1077E-06  0.4069E-03  0.8526E-03  0.1348E+02
   -0.149992   30.42767  0.3601E-14  0.1219E-04  0.8997E-07  0.4928E-03  0.7535E-03  0.6682E+01
   -0.199990   30.43058  0.3601E-14  0.1313E-04  0.7966E-07  0.6596E-03  0.6739E-03  0.4263E+01
   -0.249989   30.43269  0.3601E-14  0.1387E-04  0.7295E-07  0.7890E-03  0.6144E-03  0.3131E+01
   -0.299988   30.43440  0.3601E-14  0.1448E-04  0.6818E-07  0.9186E-03  0.5648E-03  0.2490E+01
   -0.349988   30.43583  0.3601E-14  0.1498E-04  0.6461E-07  0.1036E-02  0.5225E-03  0.2117E+01
   -0.399987   30.43707  0.3601E-14  0.1540E-04  0.6184E-07  0.1142E-02  0.4850E-03  0.1891E+01
   -0.449987   30.43818  0.3601E-14  0.1577E-04  0.5959E-07  0.1241E-02  0.4520E-03  0.1773E+01
   -0.499988   30.43917  0.3601E-14  0.1608E-04  0.5773E-07  0.1333E-02  0.4226E-03  0.1737E+01
   -0.549988   30.44008  0.3601E-14  0.1635E-04  0.5616E-07  0.1417E-02  0.3962E-03  0.1708E+01
   -0.599989   30.44091  0.3601E-14  0.1658E-04  0.5485E-07  0.1494E-02  0.3722E-03  0.1714E+01
   -0.649990   30.44169  0.3601E-14  0.1678E-04  0.5374E-07  0.1562E-02  0.3503E-03  0.1719E+01
   -0.699991   30.44243  0.3601E-14  0.1695E-04  0.5281E-07  0.1622E-02  0.3302E-03  0.1759E+01
   -0.749992   30.44313  0.3601E-14  0.1708E-04  0.5204E-07  0.1673E-02  0.3117E-03  0.1796E+01
   -0.799994   30.44380  0.3601E-14  0.1719E-04  0.5141E-07  0.1716E-02  0.2946E-03  0.1876E+01
   -0.849995   30.44445  0.3601E-14  0.1727E-04  0.5090E-07  0.1750E-02  0.2786E-03  0.1955E+01
   -0.899997   30.44507  0.3601E-14  0.1733E-04  0.5052E-07  0.1775E-02  0.2635E-03  0.2085E+01
   -0.949998   30.44568  0.3601E-14  0.1736E-04  0.5026E-07  0.1792E-02  0.2494E-03  0.2219E+01
   -1.000000   30.44628  0.3601E-14  0.1737E-04  0.5012E-07  0.1800E-02  0.2360E-03  0.2413E+01
   -1.050002   30.44687  0.3601E-14  0.1735E-04  0.5012E-07  0.1797E-02  0.2232E-03  0.2721E+01
   -1.100003   30.44746  0.3601E-14  0.1731E-04  0.5024E-07  0.1904E-02  0.2110E-03  0.8885E+01
   -1.150005   30.44801  0.3601E-14  0.1725E-04  0.5055E-07  0.1679E-02  0.2002E-03  0.2155E+02
   -1.200007   30.44863  0.3601E-14  0.1715E-04  0.5101E-07  0.1721E-02  0.1887E-03  0.4009E+01
   -1.250008   30.44923  0.3601E-14  0.1703E-04  0.5169E-07  0.1688E-02  0.1778E-03  0.4296E+01
   -1.300009   30.44985  0.3601E-14  0.1687E-04  0.5265E-07  0.1631E-02  0.1673E-03  0.5047E+01
   -1.350010   30.45048  0.3601E-14  0.1667E-04  0.5396E-07  0.1565E-02  0.1571E-03  0.6142E+01
   -1.400011   30.45114  0.3601E-14  0.1643E-04  0.5574E-07  0.1479E-02  0.1471E-03  0.7686E+01
   -1.450012   30.45183  0.3601E-14  0.1613E-04  0.5820E-07  0.1396E-02  0.1372E-03  0.1007E+02
   -1.500013   30.45258  0.3601E-14  0.1577E-04  0.6168E-07  0.1278E-02  0.1275E-03  0.1412E+02
   -1.550013   30.45340  0.3601E-14  0.1533E-04  0.6672E-07  0.1194E-02  0.1176E-03  0.2189E+02
   -1.600013   30.45431  0.3601E-14  0.1478E-04  0.7474E-07  0.1047E-02  0.1078E-03  0.4098E+02
   -1.650013   30.45549  0.3601E-14  0.1404E-04  0.8745E-07  0.9635E-03  0.9700E-04  0.3003E+03
   -1.700012   30.45688  0.3601E-14  0.1302E-04  0.1103E-06  0.7799E-03  0.8602E-04  0.1742E+05
   -1.750011   30.45939  0.3601E-14  0.1178E-04  0.1460E-06  0.7048E-03  0.7140E-04  0.7977E+06
   -1.800010   30.46103  0.3601E-14  0.1021E-04  0.2256E-06  0.4809E-03  0.6130E-04  0.1101E+05
   -1.850008   30.47059  0.3601E-14  0.8606E-05  0.3762E-06  0.4574E-03  0.4169E-04  0.3364E+09
   -1.900006   30.46694  0.3601E-14  0.6829E-05  0.7965E-06  0.2116E-03  0.3442E-04 -0.1209E+06
   -1.950003   30.49244  0.3601E-14  0.4904E-05  0.1897E-05  0.2199E-03  0.1787E-04 -0.1406E+06
   -2.000000   30.49264  0.3601E-14  0.0000E+00  0.0000E+00  0.0000E+00  0.3678E-04  0.0000E+00
