 1 - depth, m
 2 - temperature, C
 3 - salinity, kg/kg
 4 - turbulent kinetic energy, m**2/s**2
 5 - dissipation rate, m**2/s**3
 6 - kinematic heat conductance, m**2/s
 7 - modulus of horizontal velocity, m/s
 8 - Richardson number, n/d
   -0.000000   30.57374  0.1849E-13  0.5413E-05  0.3133E-06  0.5227E-04  0.3275E-02  0.8893E+03
   -0.049997   30.60454  0.1850E-13  0.8799E-05  0.1361E-06  0.2030E-03  0.1768E-02  0.4603E+03
   -0.099994   30.61404  0.1850E-13  0.1038E-04  0.9640E-07  0.3904E-03  0.1382E-02  0.4847E+01
   -0.149992   30.61740  0.1850E-13  0.1142E-04  0.8116E-07  0.4876E-03  0.1230E-02  0.2513E+01
   -0.199991   30.61998  0.1850E-13  0.1225E-04  0.7226E-07  0.6290E-03  0.1111E-02  0.1671E+01
   -0.249989   30.62192  0.1850E-13  0.1291E-04  0.6644E-07  0.7404E-03  0.1019E-02  0.1314E+01
   -0.299988   30.62353  0.1850E-13  0.1348E-04  0.6219E-07  0.8491E-03  0.9407E-03  0.1238E+01
   -0.349988   30.62489  0.1850E-13  0.1400E-04  0.5878E-07  0.9702E-03  0.8676E-03  0.1302E+01
   -0.399988   30.62606  0.1850E-13  0.1448E-04  0.5595E-07  0.1101E-02  0.7965E-03  0.1327E+01
   -0.449988   30.62707  0.1850E-13  0.1491E-04  0.5356E-07  0.1228E-02  0.7306E-03  0.1338E+01
   -0.499988   30.62795  0.1850E-13  0.1529E-04  0.5158E-07  0.1348E-02  0.6710E-03  0.1343E+01
   -0.549989   30.62874  0.1850E-13  0.1562E-04  0.4994E-07  0.1457E-02  0.6175E-03  0.1339E+01
   -0.599989   30.62946  0.1850E-13  0.1590E-04  0.4858E-07  0.1556E-02  0.5694E-03  0.1331E+01
   -0.649991   30.63012  0.1850E-13  0.1614E-04  0.4747E-07  0.1642E-02  0.5261E-03  0.1318E+01
   -0.699992   30.63074  0.1850E-13  0.1633E-04  0.4656E-07  0.1716E-02  0.4873E-03  0.1300E+01
   -0.749993   30.63132  0.1850E-13  0.1648E-04  0.4585E-07  0.1776E-02  0.4523E-03  0.1280E+01
   -0.799995   30.63188  0.1850E-13  0.1659E-04  0.4529E-07  0.1822E-02  0.4208E-03  0.1256E+01
   -0.849996   30.63242  0.1850E-13  0.1666E-04  0.4489E-07  0.1855E-02  0.3925E-03  0.1229E+01
   -0.899998   30.63294  0.1850E-13  0.1671E-04  0.4462E-07  0.1876E-02  0.3670E-03  0.1199E+01
   -0.949999   30.63345  0.1850E-13  0.1673E-04  0.4448E-07  0.1884E-02  0.3442E-03  0.1169E+01
   -1.000001   30.63395  0.1850E-13  0.1672E-04  0.4445E-07  0.1883E-02  0.3236E-03  0.1154E+01
   -1.050003   30.63445  0.1850E-13  0.1669E-04  0.4454E-07  0.1869E-02  0.3049E-03  0.1196E+01
   -1.100005   30.63495  0.1850E-13  0.1663E-04  0.4473E-07  0.2008E-02  0.2879E-03  0.3540E+01
   -1.150006   30.63541  0.1850E-13  0.1656E-04  0.4508E-07  0.1707E-02  0.2738E-03  0.9012E+01
   -1.200008   30.63594  0.1850E-13  0.1645E-04  0.4555E-07  0.1775E-02  0.2581E-03  0.1647E+01
   -1.250009   30.63646  0.1850E-13  0.1632E-04  0.4623E-07  0.1739E-02  0.2434E-03  0.1754E+01
   -1.300011   30.63698  0.1850E-13  0.1616E-04  0.4714E-07  0.1678E-02  0.2293E-03  0.2073E+01
   -1.350012   30.63752  0.1850E-13  0.1597E-04  0.4837E-07  0.1607E-02  0.2155E-03  0.2517E+01
   -1.400013   30.63808  0.1850E-13  0.1573E-04  0.5002E-07  0.1517E-02  0.2020E-03  0.3165E+01
   -1.450014   30.63868  0.1850E-13  0.1545E-04  0.5227E-07  0.1429E-02  0.1886E-03  0.4138E+01
   -1.500014   30.63931  0.1850E-13  0.1511E-04  0.5542E-07  0.1308E-02  0.1754E-03  0.5807E+01
   -1.550015   30.64002  0.1850E-13  0.1469E-04  0.5999E-07  0.1218E-02  0.1620E-03  0.9049E+01
   -1.600015   30.64080  0.1850E-13  0.1417E-04  0.6715E-07  0.1072E-02  0.1487E-03  0.1368E+04
   -1.650014   30.64179  0.1850E-13  0.1348E-04  0.7848E-07  0.9793E-03  0.1341E-03  0.9625E+02
   -1.700014   30.64301  0.1850E-13  0.1253E-04  0.9811E-07  0.8004E-03  0.1189E-03  0.1812E+05
   -1.750013   30.64508  0.1850E-13  0.1138E-04  0.1291E-06  0.7162E-03  0.9954E-04  0.3323E+06
   -1.800012   30.64652  0.1850E-13  0.9879E-05  0.1989E-06  0.4857E-03  0.8559E-04  0.2234E+05
   -1.850010   30.65456  0.1850E-13  0.8341E-05  0.3298E-06  0.4623E-03  0.5885E-04  0.4957E+07
   -1.900008   30.65157  0.1850E-13  0.6627E-05  0.6990E-06  0.2119E-03  0.4874E-04 -0.3495E+05
   -1.950005   30.67335  0.1850E-13  0.4709E-05  0.1685E-05  0.2112E-03  0.2567E-04 -0.2376E+06
   -2.000002   30.67412  0.1850E-13  0.0000E+00  0.0000E+00  0.0000E+00  0.5101E-04  0.0000E+00
