 1 - depth, m
 2 - temperature, C
 3 - salinity, kg/kg
 4 - turbulent kinetic energy, m**2/s**2
 5 - dissipation rate, m**2/s**3
 6 - kinematic heat conductance, m**2/s
 7 - modulus of horizontal velocity, m/s
 8 - Richardson number, n/d
   -0.000000   30.23120  0.3517E-14  0.4759E-05  0.2906E-06  0.4987E-04  0.1813E-02  0.2767E+04
   -0.049997   30.26071  0.3517E-14  0.8096E-05  0.1293E-06  0.1761E-03  0.1033E-02  0.2178E+03
   -0.099994   30.27194  0.3517E-14  0.9804E-05  0.8892E-07  0.3936E-03  0.7574E-03  0.1666E+02
   -0.149992   30.27510  0.3517E-14  0.1088E-04  0.7457E-07  0.4754E-03  0.6687E-03  0.8148E+01
   -0.199991   30.27761  0.3517E-14  0.1171E-04  0.6617E-07  0.6342E-03  0.5970E-03  0.5232E+01
   -0.249989   30.27944  0.3517E-14  0.1238E-04  0.6067E-07  0.7583E-03  0.5432E-03  0.3843E+01
   -0.299988   30.28093  0.3517E-14  0.1292E-04  0.5675E-07  0.8820E-03  0.4985E-03  0.3062E+01
   -0.349988   30.28218  0.3517E-14  0.1337E-04  0.5381E-07  0.9941E-03  0.4602E-03  0.2605E+01
   -0.399988   30.28326  0.3517E-14  0.1375E-04  0.5153E-07  0.1097E-02  0.4263E-03  0.2328E+01
   -0.449988   30.28422  0.3517E-14  0.1408E-04  0.4967E-07  0.1192E-02  0.3965E-03  0.2172E+01
   -0.499988   30.28508  0.3517E-14  0.1436E-04  0.4813E-07  0.1280E-02  0.3702E-03  0.2123E+01
   -0.549989   30.28587  0.3517E-14  0.1461E-04  0.4685E-07  0.1360E-02  0.3466E-03  0.2081E+01
   -0.599990   30.28660  0.3517E-14  0.1482E-04  0.4576E-07  0.1433E-02  0.3253E-03  0.2092E+01
   -0.649991   30.28729  0.3517E-14  0.1500E-04  0.4485E-07  0.1499E-02  0.3058E-03  0.2101E+01
   -0.699992   30.28793  0.3517E-14  0.1515E-04  0.4407E-07  0.1557E-02  0.2880E-03  0.2160E+01
   -0.749993   30.28854  0.3517E-14  0.1528E-04  0.4342E-07  0.1608E-02  0.2715E-03  0.2211E+01
   -0.799995   30.28912  0.3517E-14  0.1539E-04  0.4288E-07  0.1651E-02  0.2561E-03  0.2317E+01
   -0.849996   30.28969  0.3517E-14  0.1547E-04  0.4245E-07  0.1687E-02  0.2419E-03  0.2414E+01
   -0.899998   30.29023  0.3517E-14  0.1553E-04  0.4211E-07  0.1715E-02  0.2284E-03  0.2575E+01
   -0.950000   30.29076  0.3517E-14  0.1557E-04  0.4187E-07  0.1734E-02  0.2158E-03  0.2730E+01
   -1.000001   30.29128  0.3517E-14  0.1559E-04  0.4172E-07  0.1746E-02  0.2038E-03  0.2964E+01
   -1.050003   30.29179  0.3517E-14  0.1559E-04  0.4167E-07  0.1748E-02  0.1925E-03  0.3326E+01
   -1.100005   30.29230  0.3517E-14  0.1557E-04  0.4172E-07  0.1829E-02  0.1817E-03  0.1118E+02
   -1.150006   30.29278  0.3517E-14  0.1553E-04  0.4191E-07  0.1674E-02  0.1720E-03  0.2473E+02
   -1.200008   30.29330  0.3517E-14  0.1546E-04  0.4221E-07  0.1695E-02  0.1620E-03  0.4751E+01
   -1.250009   30.29381  0.3517E-14  0.1537E-04  0.4268E-07  0.1666E-02  0.1525E-03  0.5092E+01
   -1.300011   30.29433  0.3517E-14  0.1525E-04  0.4334E-07  0.1619E-02  0.1433E-03  0.5881E+01
   -1.350012   30.29486  0.3517E-14  0.1511E-04  0.4424E-07  0.1562E-02  0.1343E-03  0.7061E+01
   -1.400013   30.29541  0.3517E-14  0.1492E-04  0.4546E-07  0.1488E-02  0.1257E-03  0.8598E+01
   -1.450014   30.29599  0.3517E-14  0.1470E-04  0.4712E-07  0.1413E-02  0.1171E-03  0.1094E+02
   -1.500014   30.29660  0.3517E-14  0.1443E-04  0.4942E-07  0.1304E-02  0.1088E-03  0.1459E+02
   -1.550015   30.29726  0.3517E-14  0.1410E-04  0.5266E-07  0.1222E-02  0.1004E-03  0.2058E+02
   -1.600015   30.29797  0.3517E-14  0.1369E-04  0.5759E-07  0.1080E-02  0.9222E-04  0.3592E+02
   -1.650015   30.29882  0.3517E-14  0.1317E-04  0.6519E-07  0.1001E-02  0.8348E-04  0.5761E+03
   -1.700014   30.29978  0.3517E-14  0.1244E-04  0.7887E-07  0.8161E-03  0.7494E-04 -0.5959E+03
   -1.750013   30.30148  0.3517E-14  0.1148E-04  0.1012E-06  0.7449E-03  0.6361E-04  0.2030E+05
   -1.800012   30.30287  0.3517E-14  0.1018E-04  0.1497E-06  0.5129E-03  0.5489E-04  0.7945E+04
   -1.850010   30.30857  0.3517E-14  0.8709E-05  0.2394E-06  0.4781E-03  0.3955E-04  0.1459E+09
   -1.900008   30.30756  0.3517E-14  0.6946E-05  0.4930E-06  0.2166E-03  0.3241E-04  0.7629E+06
   -1.950006   30.32531  0.3517E-14  0.4815E-05  0.1251E-05  0.1812E-03  0.1765E-04 -0.2337E+06
   -2.000003   30.32780  0.3517E-14  0.0000E+00  0.0000E+00  0.0000E+00  0.3144E-04  0.0000E+00
