 1 - depth, m
 2 - temperature, C
 3 - salinity, kg/kg
 4 - turbulent kinetic energy, m**2/s**2
 5 - dissipation rate, m**2/s**3
 6 - kinematic heat conductance, m**2/s
 7 - modulus of horizontal velocity, m/s
 8 - Richardson number, n/d
   -0.000000   29.76488  0.2529E-14  0.4348E-05  0.2543E-06  0.4757E-04  0.1283E-02  0.6070E+04
   -0.049997   29.79227  0.2529E-14  0.7543E-05  0.1134E-06  0.1732E-03  0.7216E-03  0.3004E+04
   -0.099994   29.80253  0.2529E-14  0.9150E-05  0.7854E-07  0.3880E-03  0.5286E-03  0.2671E+02
   -0.149992   29.80540  0.2529E-14  0.1016E-04  0.6614E-07  0.4697E-03  0.4661E-03  0.1305E+02
   -0.199991   29.80768  0.2529E-14  0.1095E-04  0.5887E-07  0.6250E-03  0.4159E-03  0.8424E+01
   -0.249989   29.80935  0.2529E-14  0.1159E-04  0.5412E-07  0.7474E-03  0.3781E-03  0.6233E+01
   -0.299989   29.81071  0.2529E-14  0.1211E-04  0.5074E-07  0.8684E-03  0.3468E-03  0.4976E+01
   -0.349988   29.81186  0.2529E-14  0.1254E-04  0.4822E-07  0.9784E-03  0.3199E-03  0.4269E+01
   -0.399988   29.81285  0.2529E-14  0.1291E-04  0.4626E-07  0.1079E-02  0.2961E-03  0.3813E+01
   -0.449988   29.81374  0.2529E-14  0.1323E-04  0.4468E-07  0.1173E-02  0.2752E-03  0.3589E+01
   -0.499988   29.81454  0.2529E-14  0.1351E-04  0.4338E-07  0.1259E-02  0.2567E-03  0.3497E+01
   -0.549989   29.81527  0.2529E-14  0.1375E-04  0.4230E-07  0.1338E-02  0.2402E-03  0.3459E+01
   -0.599990   29.81595  0.2529E-14  0.1396E-04  0.4140E-07  0.1410E-02  0.2252E-03  0.3468E+01
   -0.649991   29.81659  0.2529E-14  0.1415E-04  0.4065E-07  0.1475E-02  0.2116E-03  0.3521E+01
   -0.699992   29.81719  0.2529E-14  0.1431E-04  0.4003E-07  0.1532E-02  0.1991E-03  0.3610E+01
   -0.749993   29.81776  0.2529E-14  0.1445E-04  0.3951E-07  0.1582E-02  0.1875E-03  0.3740E+01
   -0.799995   29.81831  0.2529E-14  0.1457E-04  0.3910E-07  0.1625E-02  0.1768E-03  0.3907E+01
   -0.849996   29.81884  0.2529E-14  0.1466E-04  0.3878E-07  0.1660E-02  0.1668E-03  0.4120E+01
   -0.899998   29.81935  0.2529E-14  0.1474E-04  0.3855E-07  0.1688E-02  0.1574E-03  0.4380E+01
   -0.950000   29.81986  0.2529E-14  0.1479E-04  0.3840E-07  0.1708E-02  0.1486E-03  0.4702E+01
   -1.000002   29.82035  0.2529E-14  0.1483E-04  0.3835E-07  0.1720E-02  0.1403E-03  0.5087E+01
   -1.050003   29.82084  0.2529E-14  0.1485E-04  0.3838E-07  0.1723E-02  0.1323E-03  0.5790E+01
   -1.100005   29.82132  0.2529E-14  0.1485E-04  0.3851E-07  0.1797E-02  0.1248E-03  0.1948E+02
   -1.150007   29.82178  0.2529E-14  0.1483E-04  0.3875E-07  0.1661E-02  0.1181E-03  0.4244E+02
   -1.200008   29.82229  0.2529E-14  0.1479E-04  0.3911E-07  0.1676E-02  0.1112E-03  0.8338E+01
   -1.250010   29.82278  0.2529E-14  0.1473E-04  0.3961E-07  0.1647E-02  0.1045E-03  0.8928E+01
   -1.300011   29.82328  0.2529E-14  0.1464E-04  0.4029E-07  0.1602E-02  0.9814E-04  0.1044E+02
   -1.350012   29.82380  0.2529E-14  0.1452E-04  0.4118E-07  0.1547E-02  0.9196E-04  0.1245E+02
   -1.400013   29.82433  0.2529E-14  0.1437E-04  0.4236E-07  0.1477E-02  0.8595E-04  0.1528E+02
   -1.450014   29.82490  0.2529E-14  0.1419E-04  0.4393E-07  0.1402E-02  0.8008E-04  0.1932E+02
   -1.500015   29.82549  0.2529E-14  0.1396E-04  0.4605E-07  0.1300E-02  0.7432E-04  0.2575E+02
   -1.550015   29.82614  0.2529E-14  0.1367E-04  0.4899E-07  0.1213E-02  0.6858E-04  0.3594E+02
   -1.600015   29.82684  0.2529E-14  0.1331E-04  0.5332E-07  0.1078E-02  0.6293E-04  0.5955E+02
   -1.650015   29.82766  0.2529E-14  0.1286E-04  0.5989E-07  0.9915E-03  0.5704E-04  0.1621E+03
   -1.700015   29.82859  0.2529E-14  0.1224E-04  0.7141E-07  0.8234E-03  0.5128E-04  0.2006E+04
   -1.750014   29.83009  0.2529E-14  0.1138E-04  0.9074E-07  0.7341E-03  0.4409E-04  0.1117E+05
   -1.800012   29.83166  0.2529E-14  0.1016E-04  0.1311E-06  0.5292E-03  0.3777E-04  0.1171E+06
   -1.850011   29.83634  0.2529E-14  0.8726E-05  0.2047E-06  0.4698E-03  0.2800E-04  0.2109E+08
   -1.900009   29.83646  0.2529E-14  0.6912E-05  0.4264E-06  0.2112E-03  0.2248E-04  0.1976E+06
   -1.950006   29.85340  0.2529E-14  0.4776E-05  0.1092E-05  0.1704E-03  0.1237E-04 -0.1730E+07
   -2.000003   29.85665  0.2529E-14  0.0000E+00  0.0000E+00  0.0000E+00  0.2112E-04  0.0000E+00
