 1 - depth, m
 2 - temperature, C
 3 - salinity, kg/kg
 4 - turbulent kinetic energy, m**2/s**2
 5 - dissipation rate, m**2/s**3
 6 - kinematic heat conductance, m**2/s
 7 - modulus of horizontal velocity, m/s
 8 - Richardson number, n/d
   -0.000000   29.63042  0.1273E-12  0.5814E-05  0.3073E-06  0.5578E-04  0.4605E-02  0.1388E+01
   -0.049997   29.66026  0.1273E-12  0.8926E-05  0.1307E-06  0.2110E-03  0.2478E-02  0.5688E+01
   -0.099994   29.66864  0.1273E-12  0.1028E-04  0.9487E-07  0.3773E-03  0.2021E-02  0.2899E+01
   -0.149992   29.67212  0.1273E-12  0.1121E-04  0.8051E-07  0.4689E-03  0.1819E-02  0.1604E+01
   -0.199991   29.67480  0.1273E-12  0.1198E-04  0.7196E-07  0.5823E-03  0.1660E-02  0.1299E+01
   -0.249989   29.67688  0.1273E-12  0.1267E-04  0.6592E-07  0.6970E-03  0.1526E-02  0.1377E+01
   -0.299988   29.67857  0.1273E-12  0.1333E-04  0.6112E-07  0.8364E-03  0.1397E-02  0.1485E+01
   -0.349988   29.67994  0.1273E-12  0.1395E-04  0.5719E-07  0.9896E-03  0.1271E-02  0.1590E+01
   -0.399988   29.68106  0.1273E-12  0.1452E-04  0.5393E-07  0.1150E-02  0.1148E-02  0.1607E+01
   -0.449988   29.68201  0.1273E-12  0.1502E-04  0.5124E-07  0.1306E-02  0.1034E-02  0.1596E+01
   -0.499988   29.68282  0.1273E-12  0.1546E-04  0.4903E-07  0.1449E-02  0.9331E-03  0.1579E+01
   -0.549989   29.68354  0.1273E-12  0.1582E-04  0.4723E-07  0.1577E-02  0.8438E-03  0.1553E+01
   -0.599989   29.68419  0.1273E-12  0.1612E-04  0.4576E-07  0.1692E-02  0.7649E-03  0.1524E+01
   -0.649990   29.68478  0.1273E-12  0.1635E-04  0.4457E-07  0.1793E-02  0.6950E-03  0.1493E+01
   -0.699992   29.68532  0.1273E-12  0.1653E-04  0.4363E-07  0.1876E-02  0.6330E-03  0.1459E+01
   -0.749993   29.68584  0.1273E-12  0.1665E-04  0.4290E-07  0.1939E-02  0.5781E-03  0.1422E+01
   -0.799994   29.68633  0.1273E-12  0.1672E-04  0.4235E-07  0.1982E-02  0.5295E-03  0.1384E+01
   -0.849996   29.68680  0.1273E-12  0.1676E-04  0.4198E-07  0.2006E-02  0.4863E-03  0.1343E+01
   -0.899998   29.68726  0.1273E-12  0.1675E-04  0.4176E-07  0.2015E-02  0.4479E-03  0.1301E+01
   -0.949999   29.68772  0.1273E-12  0.1672E-04  0.4168E-07  0.2008E-02  0.4139E-03  0.1256E+01
   -1.000001   29.68817  0.1273E-12  0.1666E-04  0.4173E-07  0.1987E-02  0.3836E-03  0.1209E+01
   -1.050003   29.68862  0.1273E-12  0.1657E-04  0.4190E-07  0.1938E-02  0.3567E-03  0.1157E+01
   -1.100005   29.68907  0.1273E-12  0.1648E-04  0.4216E-07  0.2129E-02  0.3329E-03  0.2326E+01
   -1.150006   29.68948  0.1273E-12  0.1637E-04  0.4254E-07  0.1723E-02  0.3174E-03  0.6274E+01
   -1.200008   29.68999  0.1273E-12  0.1624E-04  0.4306E-07  0.1830E-02  0.2994E-03  0.1179E+01
   -1.250009   29.69046  0.1273E-12  0.1608E-04  0.4379E-07  0.1781E-02  0.2821E-03  0.1209E+01
   -1.300011   29.69094  0.1273E-12  0.1589E-04  0.4475E-07  0.1710E-02  0.2658E-03  0.1392E+01
   -1.350012   29.69144  0.1273E-12  0.1566E-04  0.4602E-07  0.1634E-02  0.2500E-03  0.1690E+01
   -1.400013   29.69196  0.1273E-12  0.1540E-04  0.4773E-07  0.1534E-02  0.2346E-03  0.2149E+01
   -1.450014   29.69251  0.1273E-12  0.1509E-04  0.5007E-07  0.1441E-02  0.2193E-03  0.2842E+01
   -1.500014   29.69310  0.1273E-12  0.1472E-04  0.5337E-07  0.1311E-02  0.2041E-03  0.4086E+01
   -1.550015   29.69377  0.1273E-12  0.1427E-04  0.5815E-07  0.1223E-02  0.1885E-03  0.6586E+01
   -1.600015   29.69450  0.1273E-12  0.1370E-04  0.6590E-07  0.1070E-02  0.1731E-03  0.3975E+03
   -1.650014   29.69551  0.1273E-12  0.1296E-04  0.7821E-07  0.9758E-03  0.1555E-03  0.8834E+02
   -1.700014   29.69669  0.1273E-12  0.1194E-04  0.9945E-07  0.7927E-03  0.1375E-03  0.3335E+04
   -1.750013   29.69881  0.1273E-12  0.1072E-04  0.1328E-06  0.7030E-03  0.1136E-03  0.6462E+05
   -1.800012   29.70012  0.1273E-12  0.9205E-05  0.2103E-06  0.4725E-03  0.9747E-04  0.2255E+05
   -1.850010   29.70856  0.1273E-12  0.7745E-05  0.3499E-06  0.4604E-03  0.6535E-04  0.6512E+07
   -1.900008   29.70447  0.1273E-12  0.6180E-05  0.7333E-06  0.2153E-03  0.5511E-04 -0.3061E+05
   -1.950005   29.72621  0.1273E-12  0.4418E-05  0.1736E-05  0.2236E-03  0.2862E-04 -0.1470E+06
   -2.000002   29.72593  0.1273E-12  0.0000E+00  0.0000E+00  0.0000E+00  0.6060E-04  0.0000E+00
