 1 - depth, m
 2 - temperature, C
 3 - salinity, kg/kg
 4 - turbulent kinetic energy, m**2/s**2
 5 - dissipation rate, m**2/s**3
 6 - kinematic heat conductance, m**2/s
 7 - modulus of horizontal velocity, m/s
 8 - Richardson number, n/d
   -0.000000   30.13359  0.3825E-13  0.4626E-05  0.2800E-06  0.4921E-04  0.1593E-02  0.5676E+04
   -0.049997   30.16245  0.3825E-13  0.7928E-05  0.1247E-06  0.1747E-03  0.9084E-03  0.9528E+03
   -0.099994   30.17351  0.3825E-13  0.9617E-05  0.8585E-07  0.3930E-03  0.6640E-03  0.2043E+02
   -0.149992   30.17657  0.3825E-13  0.1068E-04  0.7209E-07  0.4739E-03  0.5863E-03  0.9980E+01
   -0.199991   30.17902  0.3825E-13  0.1150E-04  0.6404E-07  0.6323E-03  0.5233E-03  0.6422E+01
   -0.249989   30.18079  0.3825E-13  0.1216E-04  0.5877E-07  0.7561E-03  0.4761E-03  0.4726E+01
   -0.299989   30.18224  0.3825E-13  0.1270E-04  0.5502E-07  0.8792E-03  0.4369E-03  0.3772E+01
   -0.349988   30.18346  0.3825E-13  0.1314E-04  0.5221E-07  0.9909E-03  0.4033E-03  0.3214E+01
   -0.399988   30.18451  0.3825E-13  0.1352E-04  0.5003E-07  0.1093E-02  0.3735E-03  0.2875E+01
   -0.449988   30.18545  0.3825E-13  0.1385E-04  0.4826E-07  0.1188E-02  0.3474E-03  0.2688E+01
   -0.499988   30.18630  0.3825E-13  0.1413E-04  0.4680E-07  0.1276E-02  0.3243E-03  0.2626E+01
   -0.549989   30.18707  0.3825E-13  0.1438E-04  0.4558E-07  0.1356E-02  0.3036E-03  0.2578E+01
   -0.599990   30.18779  0.3825E-13  0.1459E-04  0.4456E-07  0.1428E-02  0.2849E-03  0.2593E+01
   -0.649991   30.18845  0.3825E-13  0.1478E-04  0.4370E-07  0.1494E-02  0.2679E-03  0.2611E+01
   -0.699992   30.18908  0.3825E-13  0.1493E-04  0.4298E-07  0.1552E-02  0.2522E-03  0.2687E+01
   -0.749993   30.18968  0.3825E-13  0.1507E-04  0.4238E-07  0.1602E-02  0.2378E-03  0.2758E+01
   -0.799995   30.19026  0.3825E-13  0.1518E-04  0.4188E-07  0.1645E-02  0.2243E-03  0.2893E+01
   -0.849996   30.19081  0.3825E-13  0.1526E-04  0.4149E-07  0.1681E-02  0.2118E-03  0.3022E+01
   -0.899998   30.19135  0.3825E-13  0.1533E-04  0.4119E-07  0.1709E-02  0.2000E-03  0.3228E+01
   -0.950000   30.19187  0.3825E-13  0.1538E-04  0.4098E-07  0.1728E-02  0.1889E-03  0.3431E+01
   -1.000001   30.19238  0.3825E-13  0.1541E-04  0.4087E-07  0.1740E-02  0.1784E-03  0.3732E+01
   -1.050003   30.19289  0.3825E-13  0.1541E-04  0.4086E-07  0.1742E-02  0.1685E-03  0.4204E+01
   -1.100005   30.19339  0.3825E-13  0.1540E-04  0.4095E-07  0.1822E-02  0.1590E-03  0.1415E+02
   -1.150007   30.19386  0.3825E-13  0.1536E-04  0.4116E-07  0.1671E-02  0.1505E-03  0.3133E+02
   -1.200008   30.19438  0.3825E-13  0.1531E-04  0.4149E-07  0.1690E-02  0.1417E-03  0.6044E+01
   -1.250010   30.19489  0.3825E-13  0.1522E-04  0.4199E-07  0.1661E-02  0.1334E-03  0.6494E+01
   -1.300011   30.19541  0.3825E-13  0.1511E-04  0.4267E-07  0.1614E-02  0.1253E-03  0.7528E+01
   -1.350012   30.19594  0.3825E-13  0.1498E-04  0.4359E-07  0.1558E-02  0.1175E-03  0.9061E+01
   -1.400013   30.19649  0.3825E-13  0.1480E-04  0.4482E-07  0.1485E-02  0.1099E-03  0.1105E+02
   -1.450014   30.19706  0.3825E-13  0.1459E-04  0.4649E-07  0.1409E-02  0.1024E-03  0.1416E+02
   -1.500015   30.19767  0.3825E-13  0.1434E-04  0.4878E-07  0.1302E-02  0.9512E-04  0.1891E+02
   -1.550015   30.19833  0.3825E-13  0.1402E-04  0.5199E-07  0.1218E-02  0.8778E-04  0.2694E+02
   -1.600015   30.19905  0.3825E-13  0.1362E-04  0.5683E-07  0.1076E-02  0.8061E-04  0.4915E+02
   -1.650015   30.19991  0.3825E-13  0.1311E-04  0.6430E-07  0.9986E-03  0.7297E-04 -0.1306E+05
   -1.700014   30.20088  0.3825E-13  0.1242E-04  0.7763E-07  0.8139E-03  0.6553E-04  0.5021E+04
   -1.750013   30.20254  0.3825E-13  0.1148E-04  0.9961E-07  0.7380E-03  0.5579E-04  0.3013E+06
   -1.800012   30.20407  0.3825E-13  0.1021E-04  0.1449E-06  0.5211E-03  0.4792E-04  0.4086E+04
   -1.850010   30.20939  0.3825E-13  0.8741E-05  0.2298E-06  0.4753E-03  0.3487E-04  0.2980E+07
   -1.900008   30.20882  0.3825E-13  0.6968E-05  0.4804E-06  0.2161E-03  0.2834E-04  0.1091E+07
   -1.950006   30.22666  0.3825E-13  0.4828E-05  0.1219E-05  0.1776E-03  0.1554E-04 -0.4963E+06
   -2.000003   30.22954  0.3825E-13  0.0000E+00  0.0000E+00  0.0000E+00  0.2735E-04  0.0000E+00
