 1 - depth, m
 2 - temperature, C
 3 - salinity, kg/kg
 4 - turbulent kinetic energy, m**2/s**2
 5 - dissipation rate, m**2/s**3
 6 - kinematic heat conductance, m**2/s
 7 - modulus of horizontal velocity, m/s
 8 - Richardson number, n/d
   -0.000000   30.42509  0.8383E-13  0.5046E-05  0.3046E-06  0.5110E-04  0.2379E-02  0.2595E+04
   -0.049997   30.45564  0.8383E-13  0.8428E-05  0.1348E-06  0.1850E-03  0.1320E-02  0.2607E+03
   -0.099994   30.46642  0.8383E-13  0.1011E-04  0.9360E-07  0.3911E-03  0.9930E-03  0.8837E+01
   -0.149992   30.46974  0.8383E-13  0.1118E-04  0.7840E-07  0.4796E-03  0.8768E-03  0.4403E+01
   -0.199991   30.47234  0.8383E-13  0.1202E-04  0.6951E-07  0.6342E-03  0.7846E-03  0.2834E+01
   -0.249989   30.47423  0.8383E-13  0.1269E-04  0.6368E-07  0.7583E-03  0.7148E-03  0.2095E+01
   -0.299988   30.47578  0.8383E-13  0.1323E-04  0.5952E-07  0.8785E-03  0.6568E-03  0.1673E+01
   -0.349988   30.47708  0.8383E-13  0.1368E-04  0.5639E-07  0.9873E-03  0.6069E-03  0.1465E+01
   -0.399988   30.47821  0.8383E-13  0.1407E-04  0.5391E-07  0.1091E-02  0.5620E-03  0.1353E+01
   -0.449988   30.47921  0.8383E-13  0.1441E-04  0.5186E-07  0.1191E-02  0.5216E-03  0.1312E+01
   -0.499988   30.48010  0.8383E-13  0.1471E-04  0.5015E-07  0.1285E-02  0.4853E-03  0.1298E+01
   -0.549989   30.48091  0.8383E-13  0.1497E-04  0.4870E-07  0.1372E-02  0.4525E-03  0.1291E+01
   -0.599989   30.48166  0.8383E-13  0.1519E-04  0.4749E-07  0.1451E-02  0.4228E-03  0.1287E+01
   -0.649990   30.48235  0.8383E-13  0.1538E-04  0.4646E-07  0.1522E-02  0.3959E-03  0.1292E+01
   -0.699992   30.48300  0.8383E-13  0.1553E-04  0.4560E-07  0.1584E-02  0.3713E-03  0.1298E+01
   -0.749993   30.48362  0.8383E-13  0.1566E-04  0.4488E-07  0.1636E-02  0.3489E-03  0.1315E+01
   -0.799994   30.48421  0.8383E-13  0.1576E-04  0.4430E-07  0.1679E-02  0.3284E-03  0.1337E+01
   -0.849996   30.48478  0.8383E-13  0.1584E-04  0.4383E-07  0.1714E-02  0.3094E-03  0.1379E+01
   -0.899998   30.48533  0.8383E-13  0.1589E-04  0.4347E-07  0.1739E-02  0.2920E-03  0.1434E+01
   -0.949999   30.48586  0.8383E-13  0.1592E-04  0.4322E-07  0.1756E-02  0.2757E-03  0.1520E+01
   -1.000001   30.48638  0.8383E-13  0.1593E-04  0.4306E-07  0.1765E-02  0.2604E-03  0.1627E+01
   -1.050003   30.48690  0.8383E-13  0.1592E-04  0.4301E-07  0.1764E-02  0.2460E-03  0.1841E+01
   -1.100005   30.48741  0.8383E-13  0.1588E-04  0.4307E-07  0.1858E-02  0.2323E-03  0.6050E+01
   -1.150006   30.48789  0.8383E-13  0.1583E-04  0.4327E-07  0.1670E-02  0.2201E-03  0.1401E+02
   -1.200008   30.48843  0.8383E-13  0.1575E-04  0.4360E-07  0.1702E-02  0.2073E-03  0.2670E+01
   -1.250009   30.48895  0.8383E-13  0.1564E-04  0.4409E-07  0.1670E-02  0.1952E-03  0.2839E+01
   -1.300011   30.48947  0.8383E-13  0.1551E-04  0.4480E-07  0.1619E-02  0.1834E-03  0.3332E+01
   -1.350012   30.49001  0.8383E-13  0.1534E-04  0.4577E-07  0.1559E-02  0.1721E-03  0.3992E+01
   -1.400013   30.49057  0.8383E-13  0.1514E-04  0.4710E-07  0.1480E-02  0.1610E-03  0.4951E+01
   -1.450014   30.49116  0.8383E-13  0.1489E-04  0.4891E-07  0.1401E-02  0.1501E-03  0.6334E+01
   -1.500014   30.49178  0.8383E-13  0.1460E-04  0.5143E-07  0.1289E-02  0.1394E-03  0.8656E+01
   -1.550015   30.49246  0.8383E-13  0.1423E-04  0.5504E-07  0.1204E-02  0.1286E-03  0.1250E+02
   -1.600015   30.49319  0.8383E-13  0.1378E-04  0.6059E-07  0.1061E-02  0.1181E-03  0.2424E+02
   -1.650014   30.49410  0.8383E-13  0.1320E-04  0.6929E-07  0.9797E-03  0.1067E-03  0.7758E+04
   -1.700014   30.49514  0.8383E-13  0.1240E-04  0.8480E-07  0.7998E-03  0.9542E-04 -0.7400E+04
   -1.750013   30.49696  0.8383E-13  0.1136E-04  0.1102E-06  0.7200E-03  0.8058E-04  0.4483E+05
   -1.800012   30.49847  0.8383E-13  0.9955E-05  0.1665E-06  0.4964E-03  0.6907E-04  0.9269E+05
   -1.850010   30.50494  0.8383E-13  0.8431E-05  0.2690E-06  0.4621E-03  0.4890E-04  0.3552E+09
   -1.900008   30.50330  0.8383E-13  0.6686E-05  0.5575E-06  0.2104E-03  0.3996E-04  0.1729E+06
   -1.950005   30.52269  0.8383E-13  0.4683E-05  0.1390E-05  0.1923E-03  0.2130E-04 -0.1752E+06
   -2.000002   30.52441  0.8383E-13  0.0000E+00  0.0000E+00  0.0000E+00  0.4014E-04  0.0000E+00
