 1 - depth, m
 2 - temperature, C
 3 - salinity, kg/kg
 4 - turbulent kinetic energy, m**2/s**2
 5 - dissipation rate, m**2/s**3
 6 - kinematic heat conductance, m**2/s
 7 - modulus of horizontal velocity, m/s
 8 - Richardson number, n/d
   -0.000000   30.13591  0.1044E-13  0.4664E-05  0.2851E-06  0.4840E-04  0.9405E-03  0.8954E+03
   -0.049997   30.16649  0.1044E-13  0.8135E-05  0.1265E-06  0.1820E-03  0.5265E-03  0.5164E+02
   -0.099994   30.17762  0.1044E-13  0.9856E-05  0.8771E-07  0.4023E-03  0.3872E-03  0.5196E+02
   -0.149992   30.18072  0.1044E-13  0.1094E-04  0.7389E-07  0.4848E-03  0.3423E-03  0.2553E+02
   -0.199991   30.18320  0.1044E-13  0.1178E-04  0.6576E-07  0.6454E-03  0.3059E-03  0.1649E+02
   -0.249989   30.18501  0.1044E-13  0.1245E-04  0.6042E-07  0.7702E-03  0.2786E-03  0.1221E+02
   -0.299989   30.18649  0.1044E-13  0.1300E-04  0.5661E-07  0.8948E-03  0.2559E-03  0.9749E+01
   -0.349988   30.18772  0.1044E-13  0.1345E-04  0.5375E-07  0.1008E-02  0.2363E-03  0.8347E+01
   -0.399988   30.18880  0.1044E-13  0.1383E-04  0.5152E-07  0.1111E-02  0.2191E-03  0.7452E+01
   -0.449988   30.18975  0.1044E-13  0.1417E-04  0.4972E-07  0.1207E-02  0.2039E-03  0.6994E+01
   -0.499988   30.19062  0.1044E-13  0.1445E-04  0.4822E-07  0.1295E-02  0.1904E-03  0.6811E+01
   -0.549989   30.19141  0.1044E-13  0.1470E-04  0.4698E-07  0.1376E-02  0.1784E-03  0.6715E+01
   -0.599990   30.19214  0.1044E-13  0.1492E-04  0.4593E-07  0.1449E-02  0.1675E-03  0.6726E+01
   -0.649991   30.19282  0.1044E-13  0.1511E-04  0.4504E-07  0.1515E-02  0.1575E-03  0.6802E+01
   -0.699992   30.19346  0.1044E-13  0.1527E-04  0.4429E-07  0.1573E-02  0.1484E-03  0.6964E+01
   -0.749993   30.19408  0.1044E-13  0.1540E-04  0.4367E-07  0.1624E-02  0.1399E-03  0.7184E+01
   -0.799995   30.19466  0.1044E-13  0.1551E-04  0.4316E-07  0.1667E-02  0.1321E-03  0.7493E+01
   -0.849996   30.19522  0.1044E-13  0.1560E-04  0.4274E-07  0.1703E-02  0.1247E-03  0.7866E+01
   -0.899998   30.19577  0.1044E-13  0.1566E-04  0.4243E-07  0.1731E-02  0.1178E-03  0.8350E+01
   -0.950000   30.19630  0.1044E-13  0.1571E-04  0.4221E-07  0.1750E-02  0.1114E-03  0.8920E+01
   -1.000001   30.19683  0.1044E-13  0.1573E-04  0.4208E-07  0.1762E-02  0.1052E-03  0.9640E+01
   -1.050003   30.19734  0.1044E-13  0.1574E-04  0.4206E-07  0.1764E-02  0.9938E-04  0.1090E+02
   -1.100005   30.19785  0.1044E-13  0.1572E-04  0.4214E-07  0.1846E-02  0.9382E-04  0.3647E+02
   -1.150006   30.19833  0.1044E-13  0.1568E-04  0.4235E-07  0.1690E-02  0.8885E-04  0.8072E+02
   -1.200008   30.19886  0.1044E-13  0.1562E-04  0.4268E-07  0.1711E-02  0.8372E-04  0.1564E+02
   -1.250010   30.19938  0.1044E-13  0.1553E-04  0.4317E-07  0.1682E-02  0.7881E-04  0.1671E+02
   -1.300011   30.19990  0.1044E-13  0.1542E-04  0.4386E-07  0.1634E-02  0.7408E-04  0.1946E+02
   -1.350012   30.20044  0.1044E-13  0.1528E-04  0.4480E-07  0.1577E-02  0.6949E-04  0.2325E+02
   -1.400013   30.20099  0.1044E-13  0.1510E-04  0.4605E-07  0.1503E-02  0.6502E-04  0.2855E+02
   -1.450014   30.20158  0.1044E-13  0.1488E-04  0.4775E-07  0.1427E-02  0.6064E-04  0.3623E+02
   -1.500015   30.20219  0.1044E-13  0.1461E-04  0.5009E-07  0.1318E-02  0.5634E-04  0.4878E+02
   -1.550015   30.20286  0.1044E-13  0.1429E-04  0.5338E-07  0.1234E-02  0.5202E-04  0.6885E+02
   -1.600015   30.20358  0.1044E-13  0.1388E-04  0.5837E-07  0.1091E-02  0.4781E-04  0.1356E+03
   -1.650015   30.20446  0.1044E-13  0.1336E-04  0.6599E-07  0.1010E-02  0.4329E-04  0.3506E+03
   -1.700014   30.20542  0.1044E-13  0.1266E-04  0.7957E-07  0.8272E-03  0.3893E-04 -0.3965E+04
   -1.750013   30.20711  0.1044E-13  0.1171E-04  0.1018E-06  0.7494E-03  0.3318E-04  0.1245E+06
   -1.800012   30.20851  0.1044E-13  0.1044E-04  0.1488E-06  0.5279E-03  0.2868E-04 -0.1381E+05
   -1.850010   30.21407  0.1044E-13  0.8949E-05  0.2373E-06  0.4801E-03  0.2095E-04  0.6140E+07
   -1.900008   30.21341  0.1044E-13  0.7133E-05  0.4944E-06  0.2217E-03  0.1701E-04 -0.5201E+07
   -1.950006   30.23106  0.1044E-13  0.4940E-05  0.1251E-05  0.1784E-03  0.9412E-05 -0.1639E+07
   -2.000003   30.23404  0.1044E-13  0.0000E+00  0.0000E+00  0.0000E+00  0.1634E-04  0.0000E+00
