 1 - depth, m
 2 - temperature, C
 3 - salinity, kg/kg
 4 - turbulent kinetic energy, m**2/s**2
 5 - dissipation rate, m**2/s**3
 6 - kinematic heat conductance, m**2/s
 7 - modulus of horizontal velocity, m/s
 8 - Richardson number, n/d
   -0.000000   30.26064  0.5795E-14  0.5646E-05  0.3468E-06  0.5386E-04  0.3043E-02  0.1478E+04
   -0.049997   30.29399  0.5795E-14  0.9262E-05  0.1509E-06  0.2047E-03  0.1654E-02  0.2702E+02
   -0.099994   30.30468  0.5795E-14  0.1100E-04  0.1061E-06  0.4017E-03  0.1282E-02  0.5607E+01
   -0.149992   30.30831  0.5795E-14  0.1213E-04  0.8905E-07  0.4994E-03  0.1140E-02  0.2891E+01
   -0.199990   30.31110  0.5795E-14  0.1302E-04  0.7913E-07  0.6511E-03  0.1028E-02  0.1891E+01
   -0.249989   30.31317  0.5795E-14  0.1374E-04  0.7268E-07  0.7700E-03  0.9420E-03  0.1437E+01
   -0.299988   30.31488  0.5795E-14  0.1434E-04  0.6805E-07  0.8838E-03  0.8699E-03  0.1266E+01
   -0.349988   30.31634  0.5795E-14  0.1487E-04  0.6445E-07  0.1001E-02  0.8046E-03  0.1261E+01
   -0.399987   30.31759  0.5795E-14  0.1535E-04  0.6149E-07  0.1126E-02  0.7422E-03  0.1269E+01
   -0.449987   30.31869  0.5795E-14  0.1579E-04  0.5901E-07  0.1249E-02  0.6844E-03  0.1279E+01
   -0.499988   30.31966  0.5795E-14  0.1618E-04  0.5695E-07  0.1365E-02  0.6319E-03  0.1287E+01
   -0.549988   30.32052  0.5795E-14  0.1652E-04  0.5524E-07  0.1471E-02  0.5846E-03  0.1285E+01
   -0.599989   30.32132  0.5795E-14  0.1681E-04  0.5383E-07  0.1567E-02  0.5419E-03  0.1279E+01
   -0.649990   30.32205  0.5795E-14  0.1705E-04  0.5267E-07  0.1651E-02  0.5034E-03  0.1268E+01
   -0.699991   30.32274  0.5795E-14  0.1726E-04  0.5174E-07  0.1723E-02  0.4686E-03  0.1255E+01
   -0.749992   30.32339  0.5795E-14  0.1742E-04  0.5101E-07  0.1782E-02  0.4372E-03  0.1237E+01
   -0.799994   30.32401  0.5795E-14  0.1754E-04  0.5045E-07  0.1827E-02  0.4088E-03  0.1219E+01
   -0.849995   30.32461  0.5795E-14  0.1763E-04  0.5005E-07  0.1860E-02  0.3831E-03  0.1200E+01
   -0.899997   30.32519  0.5795E-14  0.1769E-04  0.4979E-07  0.1881E-02  0.3600E-03  0.1188E+01
   -0.949998   30.32576  0.5795E-14  0.1771E-04  0.4966E-07  0.1890E-02  0.3390E-03  0.1185E+01
   -1.000000   30.32633  0.5795E-14  0.1772E-04  0.4967E-07  0.1891E-02  0.3198E-03  0.1208E+01
   -1.050002   30.32689  0.5795E-14  0.1769E-04  0.4980E-07  0.1879E-02  0.3023E-03  0.1299E+01
   -1.100003   30.32745  0.5795E-14  0.1764E-04  0.5005E-07  0.2019E-02  0.2859E-03  0.4017E+01
   -1.150005   30.32796  0.5795E-14  0.1757E-04  0.5049E-07  0.1713E-02  0.2720E-03  0.1041E+02
   -1.200007   30.32858  0.5795E-14  0.1747E-04  0.5109E-07  0.1781E-02  0.2565E-03  0.1894E+01
   -1.250008   30.32916  0.5795E-14  0.1733E-04  0.5192E-07  0.1745E-02  0.2420E-03  0.2032E+01
   -1.300009   30.32976  0.5795E-14  0.1717E-04  0.5304E-07  0.1680E-02  0.2280E-03  0.2415E+01
   -1.350010   30.33037  0.5795E-14  0.1696E-04  0.5453E-07  0.1609E-02  0.2144E-03  0.2956E+01
   -1.400011   30.33102  0.5795E-14  0.1671E-04  0.5654E-07  0.1515E-02  0.2010E-03  0.3762E+01
   -1.450012   30.33171  0.5795E-14  0.1640E-04  0.5929E-07  0.1429E-02  0.1877E-03  0.4980E+01
   -1.500013   30.33245  0.5795E-14  0.1603E-04  0.6315E-07  0.1302E-02  0.1746E-03  0.7216E+01
   -1.550013   30.33329  0.5795E-14  0.1557E-04  0.6871E-07  0.1219E-02  0.1612E-03  0.1210E+02
   -1.600013   30.33420  0.5795E-14  0.1499E-04  0.7763E-07  0.1065E-02  0.1480E-03  0.4709E+02
   -1.650013   30.33546  0.5795E-14  0.1422E-04  0.9161E-07  0.9798E-03  0.1329E-03  0.9306E+03
   -1.700012   30.33688  0.5795E-14  0.1315E-04  0.1172E-06  0.7892E-03  0.1179E-03  0.1971E+05
   -1.750011   30.33959  0.5795E-14  0.1189E-04  0.1566E-06  0.7141E-03  0.9749E-04  0.8665E+05
   -1.800010   30.34113  0.5795E-14  0.1031E-04  0.2455E-06  0.4860E-03  0.8407E-04  0.1103E+07
   -1.850008   30.35158  0.5795E-14  0.8724E-05  0.4098E-06  0.4668E-03  0.5704E-04  0.1714E+09
   -1.900006   30.34696  0.5795E-14  0.6961E-05  0.8582E-06  0.2186E-03  0.4757E-04 -0.7710E+05
   -1.950003   30.37382  0.5795E-14  0.5018E-05  0.2022E-05  0.2270E-03  0.2486E-04 -0.1301E+06
   -2.000000   30.37301  0.5795E-14  0.0000E+00  0.0000E+00  0.0000E+00  0.5108E-04  0.0000E+00
