 1 - depth, m
 2 - temperature, C
 3 - salinity, kg/kg
 4 - turbulent kinetic energy, m**2/s**2
 5 - dissipation rate, m**2/s**3
 6 - kinematic heat conductance, m**2/s
 7 - modulus of horizontal velocity, m/s
 8 - Richardson number, n/d
   -0.000000   31.12625  0.1281E-14  0.5153E-05  0.3330E-06  0.5239E-04  0.1577E-02  0.7605E+04
   -0.049997   31.15864  0.1281E-14  0.8767E-05  0.1488E-06  0.1795E-03  0.9088E-03  0.6016E+04
   -0.099994   31.17138  0.1281E-14  0.1064E-04  0.1020E-06  0.4053E-03  0.6664E-03  0.2049E+02
   -0.149992   31.17488  0.1281E-14  0.1181E-04  0.8539E-07  0.4853E-03  0.5891E-03  0.1005E+02
   -0.199991   31.17768  0.1281E-14  0.1271E-04  0.7566E-07  0.6511E-03  0.5262E-03  0.6415E+01
   -0.249989   31.17970  0.1281E-14  0.1343E-04  0.6929E-07  0.7782E-03  0.4793E-03  0.4724E+01
   -0.299988   31.18133  0.1281E-14  0.1401E-04  0.6473E-07  0.9058E-03  0.4403E-03  0.3748E+01
   -0.349988   31.18270  0.1281E-14  0.1449E-04  0.6131E-07  0.1021E-02  0.4069E-03  0.3197E+01
   -0.399988   31.18388  0.1281E-14  0.1489E-04  0.5864E-07  0.1126E-02  0.3774E-03  0.2843E+01
   -0.449988   31.18493  0.1281E-14  0.1523E-04  0.5646E-07  0.1224E-02  0.3514E-03  0.2663E+01
   -0.499988   31.18587  0.1281E-14  0.1552E-04  0.5465E-07  0.1313E-02  0.3284E-03  0.2586E+01
   -0.549989   31.18674  0.1281E-14  0.1577E-04  0.5313E-07  0.1395E-02  0.3078E-03  0.2547E+01
   -0.599989   31.18753  0.1281E-14  0.1598E-04  0.5183E-07  0.1469E-02  0.2892E-03  0.2543E+01
   -0.649990   31.18827  0.1281E-14  0.1616E-04  0.5073E-07  0.1535E-02  0.2722E-03  0.2570E+01
   -0.699992   31.18897  0.1281E-14  0.1631E-04  0.4979E-07  0.1594E-02  0.2566E-03  0.2622E+01
   -0.749993   31.18963  0.1281E-14  0.1643E-04  0.4898E-07  0.1644E-02  0.2421E-03  0.2703E+01
   -0.799994   31.19026  0.1281E-14  0.1652E-04  0.4831E-07  0.1687E-02  0.2286E-03  0.2810E+01
   -0.849996   31.19087  0.1281E-14  0.1659E-04  0.4775E-07  0.1721E-02  0.2161E-03  0.2949E+01
   -0.899998   31.19145  0.1281E-14  0.1663E-04  0.4731E-07  0.1748E-02  0.2043E-03  0.3120E+01
   -0.949999   31.19202  0.1281E-14  0.1665E-04  0.4697E-07  0.1766E-02  0.1931E-03  0.3334E+01
   -1.000001   31.19258  0.1281E-14  0.1665E-04  0.4674E-07  0.1775E-02  0.1826E-03  0.3592E+01
   -1.050003   31.19313  0.1281E-14  0.1663E-04  0.4662E-07  0.1774E-02  0.1726E-03  0.4060E+01
   -1.100004   31.19367  0.1281E-14  0.1658E-04  0.4663E-07  0.1873E-02  0.1630E-03  0.1327E+02
   -1.150006   31.19417  0.1281E-14  0.1650E-04  0.4679E-07  0.1672E-02  0.1545E-03  0.3121E+02
   -1.200008   31.19474  0.1281E-14  0.1640E-04  0.4709E-07  0.1708E-02  0.1456E-03  0.5889E+01
   -1.250009   31.19528  0.1281E-14  0.1628E-04  0.4757E-07  0.1677E-02  0.1371E-03  0.6249E+01
   -1.300010   31.19583  0.1281E-14  0.1612E-04  0.4829E-07  0.1624E-02  0.1289E-03  0.7331E+01
   -1.350012   31.19640  0.1281E-14  0.1593E-04  0.4930E-07  0.1561E-02  0.1210E-03  0.8791E+01
   -1.400013   31.19698  0.1281E-14  0.1569E-04  0.5071E-07  0.1480E-02  0.1132E-03  0.1093E+02
   -1.450013   31.19759  0.1281E-14  0.1541E-04  0.5267E-07  0.1399E-02  0.1056E-03  0.1403E+02
   -1.500014   31.19824  0.1281E-14  0.1508E-04  0.5544E-07  0.1284E-02  0.9806E-04  0.1932E+02
   -1.550014   31.19895  0.1281E-14  0.1467E-04  0.5946E-07  0.1198E-02  0.9049E-04  0.2820E+02
   -1.600014   31.19971  0.1281E-14  0.1416E-04  0.6574E-07  0.1054E-02  0.8303E-04  0.5975E+02
   -1.650014   31.20067  0.1281E-14  0.1351E-04  0.7573E-07  0.9716E-03  0.7496E-04  0.6612E+03
   -1.700014   31.20178  0.1281E-14  0.1261E-04  0.9360E-07  0.7956E-03  0.6683E-04  0.2296E+04
   -1.750013   31.20374  0.1281E-14  0.1145E-04  0.1228E-06  0.7077E-03  0.5614E-04  0.1114E+06
   -1.800011   31.20532  0.1281E-14  0.9922E-05  0.1872E-06  0.4914E-03  0.4790E-04  0.2936E+05
   -1.850010   31.21237  0.1281E-14  0.8334E-05  0.3056E-06  0.4539E-03  0.3330E-04  0.1640E+08
   -1.900008   31.21025  0.1281E-14  0.6588E-05  0.6462E-06  0.2117E-03  0.2724E-04  0.3725E+05
   -1.950005   31.23063  0.1281E-14  0.4674E-05  0.1569E-05  0.2051E-03  0.1439E-04 -0.3211E+06
   -2.000002   31.23059  0.1281E-14  0.0000E+00  0.0000E+00  0.0000E+00  0.2841E-04  0.0000E+00
