 1 - depth, m
 2 - temperature, C
 3 - salinity, kg/kg
 4 - turbulent kinetic energy, m**2/s**2
 5 - dissipation rate, m**2/s**3
 6 - kinematic heat conductance, m**2/s
 7 - modulus of horizontal velocity, m/s
 8 - Richardson number, n/d
   -0.000000   29.66309  0.1320E-14  0.4241E-05  0.2407E-06  0.4482E-04  0.4572E-03  0.1891E+06
   -0.049997   29.69204  0.1320E-14  0.7583E-05  0.1069E-06  0.1824E-03  0.2512E-03  0.3335E+03
   -0.099994   29.70126  0.1320E-14  0.9127E-05  0.7509E-07  0.3995E-03  0.1845E-03  0.2645E+03
   -0.149992   29.70402  0.1320E-14  0.1010E-04  0.6374E-07  0.4795E-03  0.1632E-03  0.1309E+03
   -0.199991   29.70624  0.1320E-14  0.1086E-04  0.5699E-07  0.6330E-03  0.1459E-03  0.8696E+02
   -0.249989   29.70787  0.1320E-14  0.1147E-04  0.5251E-07  0.7545E-03  0.1328E-03  0.6515E+02
   -0.299989   29.70920  0.1320E-14  0.1197E-04  0.4930E-07  0.8732E-03  0.1218E-03  0.5241E+02
   -0.349988   29.71033  0.1320E-14  0.1238E-04  0.4688E-07  0.9814E-03  0.1124E-03  0.4517E+02
   -0.399988   29.71131  0.1320E-14  0.1273E-04  0.4499E-07  0.1080E-02  0.1041E-03  0.4047E+02
   -0.449988   29.71218  0.1320E-14  0.1304E-04  0.4345E-07  0.1172E-02  0.9675E-04  0.3819E+02
   -0.499988   29.71297  0.1320E-14  0.1330E-04  0.4218E-07  0.1256E-02  0.9026E-04  0.3730E+02
   -0.549989   29.71370  0.1320E-14  0.1353E-04  0.4112E-07  0.1334E-02  0.8443E-04  0.3696E+02
   -0.599990   29.71437  0.1320E-14  0.1373E-04  0.4023E-07  0.1404E-02  0.7917E-04  0.3710E+02
   -0.649991   29.71499  0.1320E-14  0.1390E-04  0.3947E-07  0.1467E-02  0.7437E-04  0.3771E+02
   -0.699992   29.71559  0.1320E-14  0.1405E-04  0.3884E-07  0.1523E-02  0.6997E-04  0.3868E+02
   -0.749993   29.71615  0.1320E-14  0.1418E-04  0.3831E-07  0.1571E-02  0.6589E-04  0.4011E+02
   -0.799995   29.71669  0.1320E-14  0.1428E-04  0.3788E-07  0.1613E-02  0.6211E-04  0.4190E+02
   -0.849996   29.71721  0.1320E-14  0.1436E-04  0.3753E-07  0.1647E-02  0.5858E-04  0.4422E+02
   -0.899998   29.71771  0.1320E-14  0.1443E-04  0.3727E-07  0.1674E-02  0.5527E-04  0.4699E+02
   -0.950000   29.71821  0.1320E-14  0.1447E-04  0.3709E-07  0.1693E-02  0.5215E-04  0.5047E+02
   -1.000002   29.71869  0.1320E-14  0.1449E-04  0.3699E-07  0.1704E-02  0.4920E-04  0.5458E+02
   -1.050003   29.71916  0.1320E-14  0.1450E-04  0.3698E-07  0.1706E-02  0.4641E-04  0.6211E+02
   -1.100005   29.71963  0.1320E-14  0.1449E-04  0.3706E-07  0.1783E-02  0.4375E-04  0.2082E+03
   -1.150007   29.72008  0.1320E-14  0.1446E-04  0.3725E-07  0.1639E-02  0.4137E-04  0.4581E+03
   -1.200008   29.72057  0.1320E-14  0.1440E-04  0.3754E-07  0.1656E-02  0.3893E-04  0.8954E+02
   -1.250010   29.72105  0.1320E-14  0.1433E-04  0.3798E-07  0.1628E-02  0.3659E-04  0.9570E+02
   -1.300011   29.72153  0.1320E-14  0.1423E-04  0.3858E-07  0.1583E-02  0.3434E-04  0.1119E+03
   -1.350012   29.72203  0.1320E-14  0.1410E-04  0.3939E-07  0.1528E-02  0.3217E-04  0.1334E+03
   -1.400013   29.72254  0.1320E-14  0.1394E-04  0.4047E-07  0.1457E-02  0.3004E-04  0.1638E+03
   -1.450014   29.72308  0.1320E-14  0.1375E-04  0.4192E-07  0.1383E-02  0.2798E-04  0.2070E+03
   -1.500015   29.72364  0.1320E-14  0.1351E-04  0.4390E-07  0.1280E-02  0.2595E-04  0.2764E+03
   -1.550015   29.72426  0.1320E-14  0.1321E-04  0.4667E-07  0.1194E-02  0.2393E-04  0.3851E+03
   -1.600015   29.72492  0.1320E-14  0.1285E-04  0.5079E-07  0.1057E-02  0.2194E-04  0.6494E+03
   -1.650015   29.72570  0.1320E-14  0.1239E-04  0.5706E-07  0.9781E-03  0.1986E-04  0.1164E+04
   -1.700015   29.72657  0.1320E-14  0.1177E-04  0.6830E-07  0.8039E-03  0.1784E-04  0.8672E+06
   -1.750014   29.72802  0.1320E-14  0.1090E-04  0.8713E-07  0.7225E-03  0.1527E-04  0.1221E+07
   -1.800013   29.72945  0.1320E-14  0.9684E-05  0.1255E-06  0.5107E-03  0.1305E-04  0.1242E+07
   -1.850011   29.73403  0.1320E-14  0.8252E-05  0.1968E-06  0.4606E-03  0.9544E-05  0.2251E+08
   -1.900009   29.73393  0.1320E-14  0.6536E-05  0.4051E-06  0.2090E-03  0.7672E-05 -0.3621E+06
   -1.950006   29.75000  0.1320E-14  0.4495E-05  0.1047E-05  0.1685E-03  0.4172E-05 -0.7499E+07
   -2.000003   29.75255  0.1320E-14  0.0000E+00  0.0000E+00  0.0000E+00  0.7321E-05  0.0000E+00
