 1 - depth, m
 2 - temperature, C
 3 - salinity, kg/kg
 4 - turbulent kinetic energy, m**2/s**2
 5 - dissipation rate, m**2/s**3
 6 - kinematic heat conductance, m**2/s
 7 - modulus of horizontal velocity, m/s
 8 - Richardson number, n/d
   -0.000000   29.52548  0.6144E-13  0.4566E-05  0.2723E-06  0.4903E-04  0.1875E-02  0.4527E+04
   -0.049997   29.55419  0.6145E-13  0.7750E-05  0.1213E-06  0.1702E-03  0.1071E-02  0.3073E+04
   -0.099994   29.56533  0.6145E-13  0.9386E-05  0.8321E-07  0.3861E-03  0.7808E-03  0.1344E+02
   -0.149992   29.56842  0.6145E-13  0.1041E-04  0.6981E-07  0.4651E-03  0.6886E-03  0.6507E+01
   -0.199991   29.57089  0.6145E-13  0.1120E-04  0.6195E-07  0.6197E-03  0.6141E-03  0.4180E+01
   -0.249989   29.57268  0.6145E-13  0.1183E-04  0.5678E-07  0.7412E-03  0.5581E-03  0.3078E+01
   -0.299989   29.57414  0.6145E-13  0.1234E-04  0.5308E-07  0.8615E-03  0.5116E-03  0.2445E+01
   -0.349988   29.57536  0.6145E-13  0.1277E-04  0.5031E-07  0.9709E-03  0.4717E-03  0.2090E+01
   -0.399988   29.57642  0.6145E-13  0.1313E-04  0.4814E-07  0.1071E-02  0.4365E-03  0.1860E+01
   -0.449988   29.57736  0.6145E-13  0.1343E-04  0.4638E-07  0.1164E-02  0.4055E-03  0.1747E+01
   -0.499988   29.57820  0.6145E-13  0.1370E-04  0.4492E-07  0.1250E-02  0.3782E-03  0.1699E+01
   -0.549989   29.57897  0.6145E-13  0.1393E-04  0.4369E-07  0.1328E-02  0.3537E-03  0.1678E+01
   -0.599990   29.57969  0.6145E-13  0.1413E-04  0.4266E-07  0.1400E-02  0.3316E-03  0.1678E+01
   -0.649991   29.58035  0.6145E-13  0.1430E-04  0.4178E-07  0.1464E-02  0.3114E-03  0.1699E+01
   -0.699992   29.58098  0.6145E-13  0.1444E-04  0.4103E-07  0.1521E-02  0.2930E-03  0.1737E+01
   -0.749993   29.58157  0.6145E-13  0.1456E-04  0.4040E-07  0.1570E-02  0.2759E-03  0.1795E+01
   -0.799995   29.58214  0.6145E-13  0.1466E-04  0.3987E-07  0.1613E-02  0.2600E-03  0.1868E+01
   -0.849996   29.58269  0.6145E-13  0.1473E-04  0.3944E-07  0.1648E-02  0.2452E-03  0.1964E+01
   -0.899998   29.58321  0.6145E-13  0.1479E-04  0.3910E-07  0.1675E-02  0.2314E-03  0.2080E+01
   -0.950000   29.58373  0.6145E-13  0.1482E-04  0.3885E-07  0.1695E-02  0.2183E-03  0.2225E+01
   -1.000002   29.58423  0.6145E-13  0.1484E-04  0.3868E-07  0.1707E-02  0.2060E-03  0.2398E+01
   -1.050003   29.58472  0.6145E-13  0.1484E-04  0.3861E-07  0.1710E-02  0.1944E-03  0.2717E+01
   -1.100005   29.58521  0.6145E-13  0.1481E-04  0.3863E-07  0.1786E-02  0.1832E-03  0.9082E+01
   -1.150007   29.58568  0.6145E-13  0.1477E-04  0.3877E-07  0.1644E-02  0.1733E-03  0.2003E+02
   -1.200008   29.58618  0.6145E-13  0.1471E-04  0.3902E-07  0.1661E-02  0.1631E-03  0.3888E+01
   -1.250010   29.58667  0.6145E-13  0.1462E-04  0.3941E-07  0.1633E-02  0.1533E-03  0.4132E+01
   -1.300011   29.58716  0.6145E-13  0.1451E-04  0.3998E-07  0.1588E-02  0.1439E-03  0.4815E+01
   -1.350012   29.58767  0.6145E-13  0.1437E-04  0.4076E-07  0.1533E-02  0.1348E-03  0.5727E+01
   -1.400013   29.58819  0.6145E-13  0.1419E-04  0.4182E-07  0.1463E-02  0.1260E-03  0.7016E+01
   -1.450014   29.58874  0.6145E-13  0.1399E-04  0.4327E-07  0.1389E-02  0.1173E-03  0.8849E+01
   -1.500015   29.58932  0.6145E-13  0.1373E-04  0.4528E-07  0.1284E-02  0.1089E-03  0.1181E+02
   -1.550015   29.58994  0.6145E-13  0.1342E-04  0.4810E-07  0.1201E-02  0.1004E-03  0.1646E+02
   -1.600015   29.59061  0.6145E-13  0.1304E-04  0.5232E-07  0.1061E-02  0.9212E-04  0.2727E+02
   -1.650015   29.59140  0.6145E-13  0.1256E-04  0.5879E-07  0.9860E-03  0.8342E-04  0.3463E+04
   -1.700015   29.59228  0.6145E-13  0.1191E-04  0.7055E-07  0.8072E-03  0.7498E-04 -0.2122E+04
   -1.750014   29.59378  0.6145E-13  0.1101E-04  0.9015E-07  0.7295E-03  0.6398E-04  0.3333E+05
   -1.800012   29.59519  0.6145E-13  0.9756E-05  0.1308E-06  0.5091E-03  0.5489E-04  0.9335E+05
   -1.850011   29.60006  0.6145E-13  0.8304E-05  0.2064E-06  0.4665E-03  0.3981E-04  0.2317E+07
   -1.900009   29.59968  0.6145E-13  0.6599E-05  0.4281E-06  0.2111E-03  0.3225E-04  0.9510E+05
   -1.950006   29.61607  0.6145E-13  0.4556E-05  0.1101E-05  0.1726E-03  0.1757E-04 -0.4099E+06
   -2.000003   29.61856  0.6145E-13  0.0000E+00  0.0000E+00  0.0000E+00  0.3086E-04  0.0000E+00
