 1 - depth, m
 2 - temperature, C
 3 - salinity, kg/kg
 4 - turbulent kinetic energy, m**2/s**2
 5 - dissipation rate, m**2/s**3
 6 - kinematic heat conductance, m**2/s
 7 - modulus of horizontal velocity, m/s
 8 - Richardson number, n/d
   -0.000000   30.07402  0.1297E-12  0.4245E-05  0.2440E-06  0.4633E-04  0.7613E-03  0.7292E+05
   -0.049997   30.10223  0.1297E-12  0.7453E-05  0.1084E-06  0.1721E-03  0.4268E-03  0.5100E+02
   -0.099994   30.11226  0.1297E-12  0.9002E-05  0.7525E-07  0.3907E-03  0.3103E-03  0.8308E+02
   -0.149992   30.11508  0.1297E-12  0.9962E-05  0.6361E-07  0.4672E-03  0.2741E-03  0.4013E+02
   -0.199991   30.11734  0.1297E-12  0.1071E-04  0.5668E-07  0.6189E-03  0.2446E-03  0.2621E+02
   -0.249989   30.11899  0.1297E-12  0.1130E-04  0.5209E-07  0.7387E-03  0.2224E-03  0.1944E+02
   -0.299989   30.12032  0.1297E-12  0.1178E-04  0.4878E-07  0.8560E-03  0.2039E-03  0.1550E+02
   -0.349988   30.12145  0.1297E-12  0.1218E-04  0.4629E-07  0.9629E-03  0.1880E-03  0.1328E+02
   -0.399988   30.12242  0.1297E-12  0.1252E-04  0.4433E-07  0.1061E-02  0.1739E-03  0.1182E+02
   -0.449988   30.12329  0.1297E-12  0.1281E-04  0.4274E-07  0.1152E-02  0.1615E-03  0.1111E+02
   -0.499988   30.12407  0.1297E-12  0.1307E-04  0.4142E-07  0.1235E-02  0.1505E-03  0.1079E+02
   -0.549989   30.12477  0.1297E-12  0.1328E-04  0.4031E-07  0.1312E-02  0.1407E-03  0.1066E+02
   -0.599990   30.12543  0.1297E-12  0.1347E-04  0.3937E-07  0.1382E-02  0.1319E-03  0.1064E+02
   -0.649991   30.12604  0.1297E-12  0.1364E-04  0.3857E-07  0.1445E-02  0.1238E-03  0.1078E+02
   -0.699992   30.12662  0.1297E-12  0.1378E-04  0.3790E-07  0.1501E-02  0.1164E-03  0.1100E+02
   -0.749993   30.12716  0.1297E-12  0.1389E-04  0.3734E-07  0.1550E-02  0.1095E-03  0.1137E+02
   -0.799995   30.12768  0.1297E-12  0.1399E-04  0.3687E-07  0.1592E-02  0.1032E-03  0.1181E+02
   -0.849996   30.12818  0.1297E-12  0.1407E-04  0.3649E-07  0.1627E-02  0.9728E-04  0.1243E+02
   -0.899998   30.12867  0.1297E-12  0.1413E-04  0.3620E-07  0.1655E-02  0.9173E-04  0.1313E+02
   -0.950000   30.12914  0.1297E-12  0.1417E-04  0.3599E-07  0.1675E-02  0.8651E-04  0.1406E+02
   -1.000001   30.12960  0.1297E-12  0.1420E-04  0.3586E-07  0.1688E-02  0.8158E-04  0.1511E+02
   -1.050003   30.13006  0.1297E-12  0.1421E-04  0.3581E-07  0.1692E-02  0.7691E-04  0.1715E+02
   -1.100005   30.13051  0.1297E-12  0.1420E-04  0.3586E-07  0.1760E-02  0.7247E-04  0.5768E+02
   -1.150007   30.13094  0.1297E-12  0.1417E-04  0.3600E-07  0.1640E-02  0.6848E-04  0.1239E+03
   -1.200008   30.13140  0.1297E-12  0.1412E-04  0.3626E-07  0.1650E-02  0.6444E-04  0.2436E+02
   -1.250010   30.13185  0.1297E-12  0.1405E-04  0.3664E-07  0.1624E-02  0.6055E-04  0.2581E+02
   -1.300011   30.13231  0.1297E-12  0.1396E-04  0.3718E-07  0.1582E-02  0.5680E-04  0.3003E+02
   -1.350012   30.13278  0.1297E-12  0.1385E-04  0.3791E-07  0.1530E-02  0.5318E-04  0.3546E+02
   -1.400013   30.13326  0.1297E-12  0.1370E-04  0.3889E-07  0.1464E-02  0.4967E-04  0.4323E+02
   -1.450014   30.13377  0.1297E-12  0.1353E-04  0.4021E-07  0.1393E-02  0.4624E-04  0.5390E+02
   -1.500015   30.13430  0.1297E-12  0.1331E-04  0.4199E-07  0.1295E-02  0.4289E-04  0.7103E+02
   -1.550015   30.13488  0.1297E-12  0.1305E-04  0.4448E-07  0.1211E-02  0.3956E-04  0.9700E+02
   -1.600015   30.13550  0.1297E-12  0.1272E-04  0.4812E-07  0.1078E-02  0.3629E-04  0.1540E+03
   -1.650015   30.13621  0.1297E-12  0.1231E-04  0.5360E-07  0.9951E-03  0.3291E-04  0.4792E+03
   -1.700014   30.13702  0.1297E-12  0.1175E-04  0.6327E-07  0.8255E-03  0.2960E-04  0.8082E+04
   -1.750014   30.13828  0.1297E-12  0.1098E-04  0.7928E-07  0.7414E-03  0.2553E-04  0.7502E+04
   -1.800012   30.13953  0.1297E-12  0.9897E-05  0.1112E-06  0.5316E-03  0.2200E-04  0.1008E+06
   -1.850011   30.14330  0.1297E-12  0.8557E-05  0.1723E-06  0.4728E-03  0.1649E-04  0.1316E+08
   -1.900009   30.14377  0.1297E-12  0.6811E-05  0.3511E-06  0.2124E-03  0.1325E-04 -0.1345E+08
   -1.950006   30.15801  0.1297E-12  0.4641E-05  0.9185E-06  0.1574E-03  0.7383E-05 -0.4060E+07
   -2.000003   30.16225  0.1297E-12  0.0000E+00  0.0000E+00  0.0000E+00  0.1212E-04  0.0000E+00
