 1 - depth, m
 2 - temperature, C
 3 - salinity, kg/kg
 4 - turbulent kinetic energy, m**2/s**2
 5 - dissipation rate, m**2/s**3
 6 - kinematic heat conductance, m**2/s
 7 - modulus of horizontal velocity, m/s
 8 - Richardson number, n/d
   -0.000000   30.35310  0.3055E-14  0.4787E-05  0.2985E-06  0.5000E-04  0.1086E-02  0.7341E+04
   -0.049997   30.38377  0.3055E-14  0.8295E-05  0.1327E-06  0.1798E-03  0.6152E-03  0.1749E+04
   -0.099994   30.39547  0.3055E-14  0.1007E-04  0.9154E-07  0.4048E-03  0.4505E-03  0.4062E+02
   -0.149992   30.39866  0.3055E-14  0.1118E-04  0.7699E-07  0.4852E-03  0.3982E-03  0.1994E+02
   -0.199991   30.40122  0.3055E-14  0.1205E-04  0.6845E-07  0.6484E-03  0.3558E-03  0.1283E+02
   -0.249989   30.40308  0.3055E-14  0.1274E-04  0.6286E-07  0.7742E-03  0.3240E-03  0.9509E+01
   -0.299988   30.40460  0.3055E-14  0.1330E-04  0.5888E-07  0.9002E-03  0.2976E-03  0.7572E+01
   -0.349988   30.40587  0.3055E-14  0.1377E-04  0.5590E-07  0.1014E-02  0.2749E-03  0.6493E+01
   -0.399988   30.40697  0.3055E-14  0.1416E-04  0.5358E-07  0.1118E-02  0.2549E-03  0.5782E+01
   -0.449988   30.40795  0.3055E-14  0.1450E-04  0.5169E-07  0.1215E-02  0.2372E-03  0.5440E+01
   -0.499988   30.40884  0.3055E-14  0.1479E-04  0.5014E-07  0.1304E-02  0.2216E-03  0.5283E+01
   -0.549989   30.40965  0.3055E-14  0.1505E-04  0.4884E-07  0.1385E-02  0.2077E-03  0.5224E+01
   -0.599990   30.41040  0.3055E-14  0.1527E-04  0.4775E-07  0.1459E-02  0.1950E-03  0.5216E+01
   -0.649991   30.41110  0.3055E-14  0.1546E-04  0.4683E-07  0.1525E-02  0.1835E-03  0.5294E+01
   -0.699992   30.41176  0.3055E-14  0.1562E-04  0.4606E-07  0.1583E-02  0.1729E-03  0.5400E+01
   -0.749993   30.41239  0.3055E-14  0.1576E-04  0.4542E-07  0.1634E-02  0.1630E-03  0.5592E+01
   -0.799995   30.41299  0.3055E-14  0.1587E-04  0.4489E-07  0.1677E-02  0.1539E-03  0.5811E+01
   -0.849996   30.41357  0.3055E-14  0.1595E-04  0.4447E-07  0.1712E-02  0.1454E-03  0.6127E+01
   -0.899998   30.41414  0.3055E-14  0.1602E-04  0.4415E-07  0.1739E-02  0.1374E-03  0.6479E+01
   -0.949999   30.41469  0.3055E-14  0.1606E-04  0.4393E-07  0.1758E-02  0.1298E-03  0.6955E+01
   -1.000001   30.41522  0.3055E-14  0.1609E-04  0.4381E-07  0.1769E-02  0.1227E-03  0.7486E+01
   -1.050003   30.41575  0.3055E-14  0.1609E-04  0.4380E-07  0.1770E-02  0.1159E-03  0.8508E+01
   -1.100005   30.41628  0.3055E-14  0.1607E-04  0.4390E-07  0.1858E-02  0.1095E-03  0.2812E+02
   -1.150006   30.41678  0.3055E-14  0.1602E-04  0.4414E-07  0.1684E-02  0.1037E-03  0.6369E+02
   -1.200008   30.41733  0.3055E-14  0.1596E-04  0.4450E-07  0.1711E-02  0.9771E-04  0.1229E+02
   -1.250009   30.41786  0.3055E-14  0.1586E-04  0.4505E-07  0.1680E-02  0.9198E-04  0.1306E+02
   -1.300011   30.41841  0.3055E-14  0.1574E-04  0.4580E-07  0.1630E-02  0.8646E-04  0.1534E+02
   -1.350012   30.41897  0.3055E-14  0.1558E-04  0.4683E-07  0.1572E-02  0.8111E-04  0.1829E+02
   -1.400013   30.41954  0.3055E-14  0.1539E-04  0.4821E-07  0.1493E-02  0.7589E-04  0.2268E+02
   -1.450014   30.42015  0.3055E-14  0.1516E-04  0.5008E-07  0.1417E-02  0.7076E-04  0.2878E+02
   -1.500014   30.42080  0.3055E-14  0.1487E-04  0.5266E-07  0.1303E-02  0.6573E-04  0.3934E+02
   -1.550015   30.42150  0.3055E-14  0.1452E-04  0.5632E-07  0.1223E-02  0.6066E-04  0.5588E+02
   -1.600015   30.42227  0.3055E-14  0.1408E-04  0.6196E-07  0.1073E-02  0.5571E-04  0.1094E+03
   -1.650014   30.42321  0.3055E-14  0.1351E-04  0.7061E-07  0.9992E-03  0.5033E-04  0.3434E+03
   -1.700014   30.42424  0.3055E-14  0.1274E-04  0.8609E-07  0.8107E-03  0.4518E-04 -0.7505E+04
   -1.750013   30.42615  0.3055E-14  0.1171E-04  0.1115E-06  0.7378E-03  0.3815E-04  0.2126E+06
   -1.800012   30.42764  0.3055E-14  0.1034E-04  0.1644E-06  0.5140E-03  0.3287E-04  0.2062E+06
   -1.850010   30.43401  0.3055E-14  0.8810E-05  0.2651E-06  0.4741E-03  0.2350E-04  0.4459E+09
   -1.900008   30.43274  0.3055E-14  0.7023E-05  0.5475E-06  0.2184E-03  0.1920E-04  0.7064E+05
   -1.950005   30.45233  0.3055E-14  0.4916E-05  0.1371E-05  0.1884E-03  0.1042E-04 -0.9926E+06
   -2.000002   30.45444  0.3055E-14  0.0000E+00  0.0000E+00  0.0000E+00  0.1895E-04  0.0000E+00
