 1 - depth, m
 2 - temperature, C
 3 - salinity, kg/kg
 4 - turbulent kinetic energy, m**2/s**2
 5 - dissipation rate, m**2/s**3
 6 - kinematic heat conductance, m**2/s
 7 - modulus of horizontal velocity, m/s
 8 - Richardson number, n/d
   -0.000000   30.24912  0.4327E-13  0.4923E-05  0.3103E-06  0.5160E-04  0.1865E-02  0.5388E+04
   -0.049997   30.27926  0.4327E-13  0.8342E-05  0.1382E-06  0.1747E-03  0.1075E-02  0.1767E+04
   -0.099994   30.29145  0.4327E-13  0.1014E-04  0.9438E-07  0.4005E-03  0.7822E-03  0.1371E+02
   -0.149992   30.29472  0.4327E-13  0.1126E-04  0.7904E-07  0.4793E-03  0.6910E-03  0.6700E+01
   -0.199991   30.29735  0.4327E-13  0.1214E-04  0.7008E-07  0.6430E-03  0.6167E-03  0.4281E+01
   -0.249989   30.29925  0.4327E-13  0.1283E-04  0.6424E-07  0.7690E-03  0.5614E-03  0.3157E+01
   -0.299988   30.30080  0.4327E-13  0.1340E-04  0.6009E-07  0.8954E-03  0.5153E-03  0.2509E+01
   -0.349988   30.30210  0.4327E-13  0.1387E-04  0.5699E-07  0.1010E-02  0.4759E-03  0.2146E+01
   -0.399988   30.30322  0.4327E-13  0.1427E-04  0.5459E-07  0.1115E-02  0.4411E-03  0.1910E+01
   -0.449988   30.30422  0.4327E-13  0.1461E-04  0.5263E-07  0.1212E-02  0.4105E-03  0.1794E+01
   -0.499988   30.30512  0.4327E-13  0.1491E-04  0.5103E-07  0.1301E-02  0.3834E-03  0.1743E+01
   -0.549989   30.30595  0.4327E-13  0.1517E-04  0.4969E-07  0.1383E-02  0.3592E-03  0.1721E+01
   -0.599989   30.30671  0.4327E-13  0.1539E-04  0.4856E-07  0.1457E-02  0.3373E-03  0.1720E+01
   -0.649990   30.30742  0.4327E-13  0.1559E-04  0.4762E-07  0.1524E-02  0.3173E-03  0.1744E+01
   -0.699992   30.30809  0.4327E-13  0.1575E-04  0.4682E-07  0.1583E-02  0.2989E-03  0.1782E+01
   -0.749993   30.30873  0.4327E-13  0.1589E-04  0.4616E-07  0.1634E-02  0.2819E-03  0.1843E+01
   -0.799994   30.30934  0.4327E-13  0.1600E-04  0.4562E-07  0.1678E-02  0.2662E-03  0.1919E+01
   -0.849996   30.30993  0.4327E-13  0.1609E-04  0.4519E-07  0.1713E-02  0.2514E-03  0.2022E+01
   -0.899998   30.31050  0.4327E-13  0.1616E-04  0.4487E-07  0.1741E-02  0.2376E-03  0.2142E+01
   -0.949999   30.31106  0.4327E-13  0.1620E-04  0.4464E-07  0.1760E-02  0.2246E-03  0.2299E+01
   -1.000001   30.31160  0.4327E-13  0.1623E-04  0.4453E-07  0.1771E-02  0.2122E-03  0.2480E+01
   -1.050003   30.31214  0.4327E-13  0.1623E-04  0.4452E-07  0.1772E-02  0.2005E-03  0.2818E+01
   -1.100004   30.31268  0.4327E-13  0.1621E-04  0.4463E-07  0.1860E-02  0.1893E-03  0.9337E+01
   -1.150006   30.31318  0.4327E-13  0.1617E-04  0.4488E-07  0.1688E-02  0.1794E-03  0.2116E+02
   -1.200008   30.31374  0.4327E-13  0.1610E-04  0.4526E-07  0.1713E-02  0.1690E-03  0.4079E+01
   -1.250009   30.31429  0.4327E-13  0.1601E-04  0.4582E-07  0.1683E-02  0.1591E-03  0.4353E+01
   -1.300010   30.31484  0.4327E-13  0.1589E-04  0.4660E-07  0.1633E-02  0.1496E-03  0.5107E+01
   -1.350012   30.31541  0.4327E-13  0.1573E-04  0.4765E-07  0.1574E-02  0.1404E-03  0.6116E+01
   -1.400013   30.31600  0.4327E-13  0.1554E-04  0.4907E-07  0.1495E-02  0.1314E-03  0.7587E+01
   -1.450013   30.31662  0.4327E-13  0.1531E-04  0.5098E-07  0.1419E-02  0.1225E-03  0.9672E+01
   -1.500014   30.31727  0.4327E-13  0.1502E-04  0.5364E-07  0.1304E-02  0.1138E-03  0.1325E+02
   -1.550014   30.31800  0.4327E-13  0.1467E-04  0.5738E-07  0.1224E-02  0.1050E-03  0.1896E+02
   -1.600014   30.31878  0.4327E-13  0.1422E-04  0.6317E-07  0.1071E-02  0.9651E-04  0.4222E+02
   -1.650014   30.31976  0.4327E-13  0.1365E-04  0.7198E-07  0.1000E-02  0.8717E-04  0.9155E+03
   -1.700014   30.32080  0.4327E-13  0.1288E-04  0.8777E-07  0.8076E-03  0.7838E-04 -0.4793E+02
   -1.750013   30.32278  0.4327E-13  0.1183E-04  0.1141E-06  0.7380E-03  0.6625E-04  0.6702E+05
   -1.800011   30.32432  0.4327E-13  0.1045E-04  0.1701E-06  0.5125E-03  0.5702E-04  0.2838E+06
   -1.850010   30.33100  0.4327E-13  0.8885E-05  0.2738E-06  0.4740E-03  0.4084E-04  0.7228E+08
   -1.900008   30.32963  0.4327E-13  0.7051E-05  0.5686E-06  0.2150E-03  0.3330E-04  0.7356E+06
   -1.950005   30.35024  0.4327E-13  0.4939E-05  0.1419E-05  0.1909E-03  0.1799E-04 -0.2552E+06
   -2.000002   30.35234  0.4327E-13  0.0000E+00  0.0000E+00  0.0000E+00  0.3276E-04  0.0000E+00
