 1 - depth, m
 2 - temperature, C
 3 - salinity, kg/kg
 4 - turbulent kinetic energy, m**2/s**2
 5 - dissipation rate, m**2/s**3
 6 - kinematic heat conductance, m**2/s
 7 - modulus of horizontal velocity, m/s
 8 - Richardson number, n/d
   -0.000000   31.17045  0.5149E-13  0.5225E-05  0.3416E-06  0.5189E-04  0.1006E-02  0.1445E+05
   -0.049997   31.20429  0.5149E-13  0.9038E-05  0.1516E-06  0.1879E-03  0.5714E-03  0.2199E+03
   -0.099994   31.21684  0.5149E-13  0.1096E-04  0.1045E-06  0.4194E-03  0.4196E-03  0.6745E+02
   -0.149992   31.22030  0.5149E-13  0.1216E-04  0.8780E-07  0.4999E-03  0.3714E-03  0.3355E+02
   -0.199990   31.22309  0.5149E-13  0.1309E-04  0.7798E-07  0.6703E-03  0.3322E-03  0.2168E+02
   -0.249989   31.22510  0.5149E-13  0.1383E-04  0.7155E-07  0.7994E-03  0.3029E-03  0.1621E+02
   -0.299988   31.22674  0.5149E-13  0.1444E-04  0.6697E-07  0.9300E-03  0.2785E-03  0.1288E+02
   -0.349988   31.22812  0.5149E-13  0.1494E-04  0.6354E-07  0.1047E-02  0.2575E-03  0.1112E+02
   -0.399987   31.22931  0.5149E-13  0.1536E-04  0.6087E-07  0.1155E-02  0.2391E-03  0.9842E+01
   -0.449987   31.23036  0.5149E-13  0.1572E-04  0.5870E-07  0.1255E-02  0.2228E-03  0.9321E+01
   -0.499988   31.23132  0.5149E-13  0.1603E-04  0.5690E-07  0.1346E-02  0.2084E-03  0.8981E+01
   -0.549988   31.23219  0.5149E-13  0.1630E-04  0.5540E-07  0.1429E-02  0.1955E-03  0.8946E+01
   -0.599989   31.23299  0.5149E-13  0.1653E-04  0.5414E-07  0.1505E-02  0.1838E-03  0.8852E+01
   -0.649990   31.23374  0.5149E-13  0.1673E-04  0.5307E-07  0.1573E-02  0.1731E-03  0.9056E+01
   -0.699991   31.23445  0.5149E-13  0.1690E-04  0.5218E-07  0.1632E-02  0.1633E-03  0.9153E+01
   -0.749992   31.23513  0.5149E-13  0.1704E-04  0.5143E-07  0.1684E-02  0.1542E-03  0.9561E+01
   -0.799994   31.23577  0.5149E-13  0.1715E-04  0.5082E-07  0.1727E-02  0.1457E-03  0.9842E+01
   -0.849995   31.23639  0.5149E-13  0.1723E-04  0.5033E-07  0.1762E-02  0.1378E-03  0.1047E+02
   -0.899997   31.23699  0.5149E-13  0.1730E-04  0.4996E-07  0.1789E-02  0.1304E-03  0.1097E+02
   -0.949998   31.23758  0.5149E-13  0.1733E-04  0.4970E-07  0.1806E-02  0.1233E-03  0.1190E+02
   -1.000000   31.23816  0.5149E-13  0.1735E-04  0.4957E-07  0.1816E-02  0.1167E-03  0.1270E+02
   -1.050002   31.23873  0.5149E-13  0.1734E-04  0.4956E-07  0.1814E-02  0.1104E-03  0.1455E+02
   -1.100003   31.23929  0.5149E-13  0.1731E-04  0.4968E-07  0.1916E-02  0.1043E-03  0.4680E+02
   -1.150005   31.23982  0.5149E-13  0.1725E-04  0.4997E-07  0.1708E-02  0.9897E-04  0.1129E+03
   -1.200007   31.24042  0.5149E-13  0.1716E-04  0.5041E-07  0.1745E-02  0.9331E-04  0.2136E+02
   -1.250008   31.24099  0.5149E-13  0.1705E-04  0.5106E-07  0.1712E-02  0.8794E-04  0.2253E+02
   -1.300009   31.24158  0.5149E-13  0.1690E-04  0.5197E-07  0.1658E-02  0.8275E-04  0.2683E+02
   -1.350010   31.24218  0.5149E-13  0.1672E-04  0.5321E-07  0.1594E-02  0.7771E-04  0.3209E+02
   -1.400011   31.24281  0.5149E-13  0.1649E-04  0.5490E-07  0.1510E-02  0.7278E-04  0.4061E+02
   -1.450012   31.24347  0.5149E-13  0.1622E-04  0.5721E-07  0.1429E-02  0.6793E-04  0.5220E+02
   -1.500013   31.24418  0.5149E-13  0.1588E-04  0.6045E-07  0.1311E-02  0.6314E-04  0.7368E+02
   -1.550013   31.24496  0.5149E-13  0.1547E-04  0.6508E-07  0.1227E-02  0.5831E-04  0.1093E+03
   -1.600013   31.24581  0.5149E-13  0.1495E-04  0.7239E-07  0.1080E-02  0.5356E-04  0.3611E+03
   -1.650013   31.24690  0.5149E-13  0.1427E-04  0.8389E-07  0.9937E-03  0.4833E-04  0.9675E+04
   -1.700012   31.24816  0.5149E-13  0.1333E-04  0.1043E-06  0.8096E-03  0.4309E-04 -0.2627E+04
   -1.750011   31.25042  0.5149E-13  0.1216E-04  0.1368E-06  0.7311E-03  0.3618E-04  0.1884E+06
   -1.800010   31.25204  0.5149E-13  0.1066E-04  0.2058E-06  0.5075E-03  0.3114E-04  0.1175E+07
   -1.850008   31.26016  0.5149E-13  0.9077E-05  0.3387E-06  0.4717E-03  0.2201E-04  0.1401E+09
   -1.900006   31.25754  0.5149E-13  0.7228E-05  0.7131E-06  0.2210E-03  0.1807E-04  0.1172E+07
   -1.950003   31.28053  0.5149E-13  0.5139E-05  0.1725E-05  0.2080E-03  0.9734E-05 -0.1512E+07
   -2.000000   31.28176  0.5149E-13  0.0000E+00  0.0000E+00  0.0000E+00  0.1846E-04  0.0000E+00
