 1 - depth, m
 2 - temperature, C
 3 - salinity, kg/kg
 4 - turbulent kinetic energy, m**2/s**2
 5 - dissipation rate, m**2/s**3
 6 - kinematic heat conductance, m**2/s
 7 - modulus of horizontal velocity, m/s
 8 - Richardson number, n/d
   -0.000000   29.78543  0.8755E-14  0.4754E-05  0.2686E-06  0.4893E-04  0.2549E-02  0.2271E+04
   -0.049997   29.81368  0.8755E-14  0.7911E-05  0.1182E-06  0.1861E-03  0.1385E-02  0.3098E+02
   -0.099994   29.82304  0.8756E-14  0.9434E-05  0.8297E-07  0.3802E-03  0.1055E-02  0.7399E+01
   -0.149992   29.82610  0.8756E-14  0.1042E-04  0.6972E-07  0.4720E-03  0.9315E-03  0.3717E+01
   -0.199991   29.82845  0.8756E-14  0.1119E-04  0.6195E-07  0.6181E-03  0.8347E-03  0.2416E+01
   -0.249989   29.83020  0.8756E-14  0.1181E-04  0.5685E-07  0.7379E-03  0.7609E-03  0.1792E+01
   -0.299989   29.83163  0.8756E-14  0.1232E-04  0.5322E-07  0.8501E-03  0.6994E-03  0.1452E+01
   -0.349988   29.83284  0.8756E-14  0.1275E-04  0.5046E-07  0.9535E-03  0.6462E-03  0.1329E+01
   -0.399988   29.83390  0.8756E-14  0.1313E-04  0.4824E-07  0.1059E-02  0.5971E-03  0.1285E+01
   -0.449988   29.83483  0.8756E-14  0.1347E-04  0.4639E-07  0.1163E-02  0.5522E-03  0.1269E+01
   -0.499988   29.83566  0.8756E-14  0.1377E-04  0.4484E-07  0.1261E-02  0.5116E-03  0.1269E+01
   -0.549989   29.83641  0.8756E-14  0.1403E-04  0.4353E-07  0.1351E-02  0.4750E-03  0.1263E+01
   -0.599990   29.83710  0.8756E-14  0.1426E-04  0.4244E-07  0.1433E-02  0.4420E-03  0.1261E+01
   -0.649991   29.83774  0.8756E-14  0.1445E-04  0.4153E-07  0.1507E-02  0.4121E-03  0.1256E+01
   -0.699992   29.83834  0.8756E-14  0.1461E-04  0.4077E-07  0.1571E-02  0.3849E-03  0.1255E+01
   -0.749993   29.83891  0.8756E-14  0.1474E-04  0.4015E-07  0.1625E-02  0.3603E-03  0.1252E+01
   -0.799995   29.83945  0.8756E-14  0.1485E-04  0.3965E-07  0.1669E-02  0.3379E-03  0.1255E+01
   -0.849996   29.83997  0.8756E-14  0.1493E-04  0.3926E-07  0.1704E-02  0.3175E-03  0.1260E+01
   -0.899998   29.84048  0.8756E-14  0.1499E-04  0.3897E-07  0.1730E-02  0.2989E-03  0.1284E+01
   -0.950000   29.84097  0.8756E-14  0.1502E-04  0.3877E-07  0.1746E-02  0.2818E-03  0.1326E+01
   -1.000002   29.84145  0.8756E-14  0.1504E-04  0.3866E-07  0.1755E-02  0.2660E-03  0.1405E+01
   -1.050003   29.84193  0.8756E-14  0.1503E-04  0.3864E-07  0.1755E-02  0.2512E-03  0.1577E+01
   -1.100005   29.84241  0.8756E-14  0.1501E-04  0.3871E-07  0.1842E-02  0.2371E-03  0.5251E+01
   -1.150007   29.84285  0.8756E-14  0.1497E-04  0.3891E-07  0.1670E-02  0.2245E-03  0.1179E+02
   -1.200008   29.84334  0.8756E-14  0.1490E-04  0.3921E-07  0.1697E-02  0.2114E-03  0.2267E+01
   -1.250010   29.84382  0.8756E-14  0.1481E-04  0.3966E-07  0.1667E-02  0.1990E-03  0.2418E+01
   -1.300011   29.84431  0.8756E-14  0.1470E-04  0.4028E-07  0.1619E-02  0.1870E-03  0.2812E+01
   -1.350012   29.84481  0.8756E-14  0.1456E-04  0.4113E-07  0.1561E-02  0.1753E-03  0.3360E+01
   -1.400013   29.84532  0.8756E-14  0.1438E-04  0.4228E-07  0.1487E-02  0.1640E-03  0.4114E+01
   -1.450014   29.84586  0.8756E-14  0.1417E-04  0.4382E-07  0.1411E-02  0.1528E-03  0.5215E+01
   -1.500015   29.84643  0.8756E-14  0.1392E-04  0.4594E-07  0.1303E-02  0.1419E-03  0.6976E+01
   -1.550015   29.84705  0.8756E-14  0.1360E-04  0.4892E-07  0.1218E-02  0.1310E-03  0.9792E+01
   -1.600015   29.84772  0.8756E-14  0.1322E-04  0.5339E-07  0.1076E-02  0.1203E-03  0.1715E+02
   -1.650015   29.84851  0.8756E-14  0.1272E-04  0.6025E-07  0.9987E-03  0.1090E-03  0.1504E+03
   -1.700015   29.84940  0.8756E-14  0.1205E-04  0.7259E-07  0.8152E-03  0.9793E-04  0.5549E+05
   -1.750014   29.85094  0.8756E-14  0.1114E-04  0.9273E-07  0.7402E-03  0.8342E-04  0.2227E+05
   -1.800012   29.85226  0.8756E-14  0.9903E-05  0.1340E-06  0.5120E-03  0.7196E-04  0.4479E+02
   -1.850011   29.85734  0.8756E-14  0.8461E-05  0.2131E-06  0.4742E-03  0.5220E-04  0.3551E+07
   -1.900009   29.85677  0.8756E-14  0.6735E-05  0.4373E-06  0.2115E-03  0.4254E-04  0.3360E+06
   -1.950006   29.87333  0.8756E-14  0.4639E-05  0.1121E-05  0.1749E-03  0.2323E-04 -0.3675E+06
   -2.000003   29.87533  0.8756E-14  0.0000E+00  0.0000E+00  0.0000E+00  0.4062E-04  0.0000E+00
