 1 - depth, m
 2 - temperature, C
 3 - salinity, kg/kg
 4 - turbulent kinetic energy, m**2/s**2
 5 - dissipation rate, m**2/s**3
 6 - kinematic heat conductance, m**2/s
 7 - modulus of horizontal velocity, m/s
 8 - Richardson number, n/d
   -0.000000   30.50097  0.4435E-14  0.4796E-05  0.3013E-06  0.5041E-04  0.8358E-03  0.2054E+05
   -0.049997   30.53154  0.4435E-14  0.8372E-05  0.1336E-06  0.1798E-03  0.4753E-03  0.5104E+02
   -0.099994   30.54339  0.4435E-14  0.1017E-04  0.9200E-07  0.4128E-03  0.3459E-03  0.7410E+02
   -0.149992   30.54654  0.4435E-14  0.1129E-04  0.7753E-07  0.4891E-03  0.3062E-03  0.3637E+02
   -0.199991   30.54909  0.4435E-14  0.1216E-04  0.6901E-07  0.6550E-03  0.2736E-03  0.2357E+02
   -0.249989   30.55094  0.4435E-14  0.1286E-04  0.6343E-07  0.7815E-03  0.2493E-03  0.1753E+02
   -0.299988   30.55245  0.4435E-14  0.1343E-04  0.5946E-07  0.9082E-03  0.2290E-03  0.1402E+02
   -0.349988   30.55371  0.4435E-14  0.1390E-04  0.5648E-07  0.1023E-02  0.2117E-03  0.1204E+02
   -0.399988   30.55482  0.4435E-14  0.1430E-04  0.5417E-07  0.1127E-02  0.1963E-03  0.1075E+02
   -0.449988   30.55580  0.4435E-14  0.1464E-04  0.5229E-07  0.1225E-02  0.1828E-03  0.1011E+02
   -0.499988   30.55668  0.4435E-14  0.1494E-04  0.5075E-07  0.1314E-02  0.1708E-03  0.9838E+01
   -0.549989   30.55749  0.4435E-14  0.1520E-04  0.4946E-07  0.1396E-02  0.1601E-03  0.9727E+01
   -0.599989   30.55824  0.4435E-14  0.1543E-04  0.4838E-07  0.1470E-02  0.1504E-03  0.9735E+01
   -0.649990   30.55894  0.4435E-14  0.1563E-04  0.4748E-07  0.1536E-02  0.1415E-03  0.9881E+01
   -0.699992   30.55961  0.4435E-14  0.1579E-04  0.4672E-07  0.1594E-02  0.1334E-03  0.1011E+02
   -0.749993   30.56024  0.4435E-14  0.1593E-04  0.4609E-07  0.1645E-02  0.1258E-03  0.1047E+02
   -0.799994   30.56084  0.4435E-14  0.1605E-04  0.4558E-07  0.1688E-02  0.1188E-03  0.1093E+02
   -0.849996   30.56142  0.4435E-14  0.1614E-04  0.4518E-07  0.1724E-02  0.1123E-03  0.1153E+02
   -0.899998   30.56199  0.4435E-14  0.1621E-04  0.4489E-07  0.1751E-02  0.1061E-03  0.1224E+02
   -0.949999   30.56254  0.4435E-14  0.1626E-04  0.4469E-07  0.1769E-02  0.1003E-03  0.1315E+02
   -1.000001   30.56308  0.4435E-14  0.1628E-04  0.4461E-07  0.1780E-02  0.9482E-04  0.1423E+02
   -1.050003   30.56362  0.4435E-14  0.1629E-04  0.4462E-07  0.1780E-02  0.8960E-04  0.1619E+02
   -1.100004   30.56415  0.4435E-14  0.1627E-04  0.4476E-07  0.1870E-02  0.8463E-04  0.5356E+02
   -1.150006   30.56465  0.4435E-14  0.1623E-04  0.4504E-07  0.1692E-02  0.8020E-04  0.1229E+03
   -1.200008   30.56521  0.4435E-14  0.1617E-04  0.4545E-07  0.1719E-02  0.7557E-04  0.2365E+02
   -1.250009   30.56575  0.4435E-14  0.1608E-04  0.4604E-07  0.1688E-02  0.7117E-04  0.2532E+02
   -1.300010   30.56630  0.4435E-14  0.1595E-04  0.4685E-07  0.1637E-02  0.6691E-04  0.2982E+02
   -1.350012   30.56687  0.4435E-14  0.1580E-04  0.4795E-07  0.1577E-02  0.6279E-04  0.3586E+02
   -1.400013   30.56746  0.4435E-14  0.1561E-04  0.4941E-07  0.1498E-02  0.5876E-04  0.4467E+02
   -1.450013   30.56808  0.4435E-14  0.1537E-04  0.5138E-07  0.1419E-02  0.5481E-04  0.5735E+02
   -1.500014   30.56874  0.4435E-14  0.1509E-04  0.5411E-07  0.1306E-02  0.5093E-04  0.7889E+02
   -1.550014   30.56947  0.4435E-14  0.1473E-04  0.5795E-07  0.1221E-02  0.4702E-04  0.1141E+03
   -1.600014   30.57026  0.4435E-14  0.1428E-04  0.6384E-07  0.1075E-02  0.4318E-04  0.2456E+03
   -1.650014   30.57123  0.4435E-14  0.1371E-04  0.7294E-07  0.9935E-03  0.3905E-04  0.3465E+05
   -1.700013   30.57233  0.4435E-14  0.1291E-04  0.8903E-07  0.8121E-03  0.3498E-04  0.3694E+04
   -1.750013   30.57429  0.4435E-14  0.1187E-04  0.1153E-06  0.7318E-03  0.2964E-04  0.2971E+06
   -1.800011   30.57589  0.4435E-14  0.1048E-04  0.1693E-06  0.5092E-03  0.2551E-04  0.3293E+06
   -1.850010   30.58265  0.4435E-14  0.8920E-05  0.2745E-06  0.4701E-03  0.1827E-04  0.4079E+08
   -1.900007   30.58135  0.4435E-14  0.7090E-05  0.5794E-06  0.2117E-03  0.1488E-04 -0.4325E+06
   -1.950005   30.60218  0.4435E-14  0.4969E-05  0.1437E-05  0.1906E-03  0.8040E-05 -0.3057E+07
   -2.000002   30.60381  0.4435E-14  0.0000E+00  0.0000E+00  0.0000E+00  0.1459E-04  0.0000E+00
