 1 - depth, m
 2 - temperature, C
 3 - salinity, kg/kg
 4 - turbulent kinetic energy, m**2/s**2
 5 - dissipation rate, m**2/s**3
 6 - kinematic heat conductance, m**2/s
 7 - modulus of horizontal velocity, m/s
 8 - Richardson number, n/d
   -0.000000   30.94544  0.3120E-13  0.5186E-05  0.3410E-06  0.5317E-04  0.1114E-02  0.2445E+04
   -0.049997   30.97861  0.3120E-13  0.8910E-05  0.1518E-06  0.1790E-03  0.6467E-03  0.3949E+02
   -0.099994   30.99203  0.3120E-13  0.1083E-04  0.1039E-06  0.4149E-03  0.4710E-03  0.4368E+02
   -0.149992   30.99557  0.3120E-13  0.1202E-04  0.8736E-07  0.4889E-03  0.4176E-03  0.2138E+02
   -0.199990   30.99845  0.3120E-13  0.1294E-04  0.7765E-07  0.6561E-03  0.3736E-03  0.1380E+02
   -0.249989   31.00053  0.3120E-13  0.1366E-04  0.7131E-07  0.7820E-03  0.3407E-03  0.1027E+02
   -0.299988   31.00223  0.3120E-13  0.1425E-04  0.6679E-07  0.9079E-03  0.3133E-03  0.8208E+01
   -0.349988   31.00366  0.3120E-13  0.1474E-04  0.6341E-07  0.1021E-02  0.2898E-03  0.7070E+01
   -0.399987   31.00490  0.3120E-13  0.1514E-04  0.6078E-07  0.1123E-02  0.2690E-03  0.6324E+01
   -0.449987   31.00600  0.3120E-13  0.1549E-04  0.5866E-07  0.1217E-02  0.2507E-03  0.5986E+01
   -0.499988   31.00699  0.3120E-13  0.1578E-04  0.5690E-07  0.1303E-02  0.2345E-03  0.5849E+01
   -0.549988   31.00791  0.3120E-13  0.1603E-04  0.5545E-07  0.1380E-02  0.2199E-03  0.5830E+01
   -0.599989   31.00875  0.3120E-13  0.1624E-04  0.5423E-07  0.1448E-02  0.2067E-03  0.5865E+01
   -0.649990   31.00955  0.3120E-13  0.1641E-04  0.5321E-07  0.1508E-02  0.1946E-03  0.6013E+01
   -0.699991   31.01030  0.3120E-13  0.1656E-04  0.5237E-07  0.1560E-02  0.1835E-03  0.6195E+01
   -0.749992   31.01102  0.3120E-13  0.1667E-04  0.5168E-07  0.1603E-02  0.1732E-03  0.6496E+01
   -0.799994   31.01171  0.3120E-13  0.1675E-04  0.5113E-07  0.1637E-02  0.1636E-03  0.6838E+01
   -0.849995   31.01238  0.3120E-13  0.1681E-04  0.5071E-07  0.1662E-02  0.1546E-03  0.7324E+01
   -0.899997   31.01303  0.3120E-13  0.1684E-04  0.5042E-07  0.1678E-02  0.1462E-03  0.7872E+01
   -0.949998   31.01366  0.3120E-13  0.1684E-04  0.5027E-07  0.1683E-02  0.1382E-03  0.8624E+01
   -1.000000   31.01430  0.3120E-13  0.1681E-04  0.5026E-07  0.1680E-02  0.1306E-03  0.9488E+01
   -1.050002   31.01492  0.3120E-13  0.1676E-04  0.5039E-07  0.1664E-02  0.1234E-03  0.1104E+02
   -1.100003   31.01555  0.3120E-13  0.1668E-04  0.5069E-07  0.1811E-02  0.1165E-03  0.3350E+02
   -1.150005   31.01612  0.3120E-13  0.1656E-04  0.5123E-07  0.1470E-02  0.1106E-03  0.1057E+03
   -1.200006   31.01683  0.3120E-13  0.1641E-04  0.5195E-07  0.1541E-02  0.1038E-03  0.1825E+02
   -1.250008   31.01750  0.3120E-13  0.1623E-04  0.5299E-07  0.1501E-02  0.9758E-04  0.1991E+02
   -1.300009   31.01819  0.3120E-13  0.1600E-04  0.5442E-07  0.1423E-02  0.9155E-04  0.2489E+02
   -1.350010   31.01891  0.3120E-13  0.1572E-04  0.5637E-07  0.1355E-02  0.8567E-04  0.3185E+02
   -1.400011   31.01968  0.3120E-13  0.1538E-04  0.5909E-07  0.1231E-02  0.7990E-04  0.4397E+02
   -1.450012   31.02054  0.3120E-13  0.1497E-04  0.6293E-07  0.1176E-02  0.7409E-04  0.6172E+02
   -1.500013   31.02145  0.3120E-13  0.1446E-04  0.6860E-07  0.1002E-02  0.6845E-04  0.1023E+03
   -1.550013   31.02260  0.3120E-13  0.1384E-04  0.7688E-07  0.9956E-03  0.6238E-04  0.1720E+03
   -1.600013   31.02377  0.3120E-13  0.1304E-04  0.9183E-07  0.7915E-03  0.5688E-04  0.6617E+03
   -1.650013   31.02577  0.3120E-13  0.1188E-04  0.1136E-06  0.7730E-03  0.4948E-04  0.1969E+05
   -1.700012   31.02764  0.3120E-13  0.1031E-04  0.1546E-06  0.5287E-03  0.4315E-04  0.3079E+04
   -1.750011   31.03364  0.3120E-13  0.8565E-05  0.2228E-06  0.5377E-03  0.3106E-04  0.7625E+05
   -1.800010   31.03391  0.3120E-13  0.7035E-05  0.3652E-06  0.3148E-03  0.2723E-04 -0.1896E+05
   -1.850008   31.05712  0.3120E-13  0.5716E-05  0.6626E-06  0.3654E-03  0.1460E-04  0.1257E+10
   -1.900006   31.03890  0.3120E-13  0.4757E-05  0.1402E-05  0.1791E-03  0.1350E-04 -0.2331E+07
   -1.950003   31.07926  0.3120E-13  0.3642E-05  0.3074E-05  0.2895E-03  0.6040E-05 -0.5183E+06
   -2.000000   31.07182  0.3120E-13  0.0000E+00  0.0000E+00  0.0000E+00  0.1829E-04  0.0000E+00
