 1 - depth, m
 2 - temperature, C
 3 - salinity, kg/kg
 4 - turbulent kinetic energy, m**2/s**2
 5 - dissipation rate, m**2/s**3
 6 - kinematic heat conductance, m**2/s
 7 - modulus of horizontal velocity, m/s
 8 - Richardson number, n/d
   -0.000000   30.30254  0.3941E-13  0.4847E-05  0.2872E-06  0.5019E-04  0.2298E-02  0.5126E+04
   -0.049997   30.33151  0.3941E-13  0.8133E-05  0.1271E-06  0.1825E-03  0.1271E-02  0.2590E+03
   -0.099994   30.34171  0.3941E-13  0.9767E-05  0.8838E-07  0.3873E-03  0.9536E-03  0.8888E+01
   -0.149992   30.34487  0.3941E-13  0.1081E-04  0.7407E-07  0.4762E-03  0.8407E-03  0.4429E+01
   -0.199991   30.34732  0.3941E-13  0.1163E-04  0.6571E-07  0.6299E-03  0.7514E-03  0.2855E+01
   -0.249989   30.34913  0.3941E-13  0.1229E-04  0.6024E-07  0.7540E-03  0.6838E-03  0.2109E+01
   -0.299988   30.35059  0.3941E-13  0.1282E-04  0.5635E-07  0.8755E-03  0.6277E-03  0.1680E+01
   -0.349988   30.35183  0.3941E-13  0.1327E-04  0.5343E-07  0.9847E-03  0.5795E-03  0.1444E+01
   -0.399988   30.35290  0.3941E-13  0.1365E-04  0.5116E-07  0.1084E-02  0.5369E-03  0.1313E+01
   -0.449988   30.35385  0.3941E-13  0.1398E-04  0.4930E-07  0.1181E-02  0.4989E-03  0.1273E+01
   -0.499988   30.35471  0.3941E-13  0.1427E-04  0.4774E-07  0.1273E-02  0.4648E-03  0.1262E+01
   -0.549989   30.35549  0.3941E-13  0.1453E-04  0.4644E-07  0.1358E-02  0.4340E-03  0.1257E+01
   -0.599990   30.35621  0.3941E-13  0.1475E-04  0.4534E-07  0.1435E-02  0.4062E-03  0.1255E+01
   -0.649991   30.35689  0.3941E-13  0.1494E-04  0.4442E-07  0.1504E-02  0.3808E-03  0.1260E+01
   -0.699992   30.35752  0.3941E-13  0.1510E-04  0.4366E-07  0.1564E-02  0.3577E-03  0.1267E+01
   -0.749993   30.35812  0.3941E-13  0.1523E-04  0.4302E-07  0.1616E-02  0.3365E-03  0.1287E+01
   -0.799995   30.35869  0.3941E-13  0.1534E-04  0.4251E-07  0.1658E-02  0.3171E-03  0.1317E+01
   -0.849996   30.35924  0.3941E-13  0.1543E-04  0.4211E-07  0.1693E-02  0.2992E-03  0.1371E+01
   -0.899998   30.35978  0.3941E-13  0.1549E-04  0.4181E-07  0.1719E-02  0.2825E-03  0.1444E+01
   -0.950000   30.36030  0.3941E-13  0.1553E-04  0.4160E-07  0.1737E-02  0.2668E-03  0.1547E+01
   -1.000001   30.36082  0.3941E-13  0.1556E-04  0.4149E-07  0.1748E-02  0.2520E-03  0.1670E+01
   -1.050003   30.36132  0.3941E-13  0.1556E-04  0.4147E-07  0.1749E-02  0.2380E-03  0.1900E+01
   -1.100005   30.36183  0.3941E-13  0.1554E-04  0.4157E-07  0.1834E-02  0.2246E-03  0.6302E+01
   -1.150006   30.36230  0.3941E-13  0.1550E-04  0.4179E-07  0.1668E-02  0.2127E-03  0.1425E+02
   -1.200008   30.36283  0.3941E-13  0.1544E-04  0.4213E-07  0.1692E-02  0.2003E-03  0.2753E+01
   -1.250009   30.36334  0.3941E-13  0.1535E-04  0.4264E-07  0.1662E-02  0.1885E-03  0.2934E+01
   -1.300011   30.36386  0.3941E-13  0.1523E-04  0.4335E-07  0.1614E-02  0.1771E-03  0.3443E+01
   -1.350012   30.36439  0.3941E-13  0.1509E-04  0.4430E-07  0.1555E-02  0.1660E-03  0.4114E+01
   -1.400013   30.36494  0.3941E-13  0.1491E-04  0.4558E-07  0.1480E-02  0.1553E-03  0.5092E+01
   -1.450014   30.36553  0.3941E-13  0.1469E-04  0.4731E-07  0.1403E-02  0.1447E-03  0.6473E+01
   -1.500014   30.36614  0.3941E-13  0.1442E-04  0.4968E-07  0.1293E-02  0.1344E-03  0.8786E+01
   -1.550015   30.36681  0.3941E-13  0.1408E-04  0.5303E-07  0.1208E-02  0.1240E-03  0.1244E+02
   -1.600015   30.36754  0.3941E-13  0.1367E-04  0.5810E-07  0.1065E-02  0.1138E-03  0.2315E+02
   -1.650015   30.36842  0.3941E-13  0.1314E-04  0.6590E-07  0.9841E-03  0.1030E-03  0.7566E+02
   -1.700014   30.36940  0.3941E-13  0.1242E-04  0.7985E-07  0.8053E-03  0.9240E-04  0.1702E+03
   -1.750013   30.37113  0.3941E-13  0.1144E-04  0.1030E-06  0.7213E-03  0.7851E-04  0.3527E+05
   -1.800012   30.37268  0.3941E-13  0.1011E-04  0.1511E-06  0.5098E-03  0.6729E-04  0.2168E+06
   -1.850010   30.37840  0.3941E-13  0.8600E-05  0.2416E-06  0.4602E-03  0.4866E-04  0.4188E+07
   -1.900008   30.37762  0.3941E-13  0.6783E-05  0.5062E-06  0.2071E-03  0.3931E-04  0.4152E+05
   -1.950005   30.39627  0.3941E-13  0.4738E-05  0.1262E-05  0.1848E-03  0.2117E-04 -0.7204E+05
   -2.000002   30.39805  0.3941E-13  0.0000E+00  0.0000E+00  0.0000E+00  0.3834E-04  0.0000E+00
