 1 - depth, m
 2 - temperature, C
 3 - salinity, kg/kg
 4 - turbulent kinetic energy, m**2/s**2
 5 - dissipation rate, m**2/s**3
 6 - kinematic heat conductance, m**2/s
 7 - modulus of horizontal velocity, m/s
 8 - Richardson number, n/d
   -0.000000   30.24108  0.1075E-14  0.4760E-05  0.2908E-06  0.4993E-04  0.1813E-02  0.2777E+04
   -0.049997   30.27061  0.1075E-14  0.8095E-05  0.1294E-06  0.1756E-03  0.1035E-02  0.2491E+03
   -0.099994   30.28191  0.1075E-14  0.9803E-05  0.8897E-07  0.3934E-03  0.7583E-03  0.1675E+02
   -0.149992   30.28508  0.1075E-14  0.1088E-04  0.7463E-07  0.4748E-03  0.6696E-03  0.8186E+01
   -0.199991   30.28760  0.1075E-14  0.1171E-04  0.6623E-07  0.6333E-03  0.5977E-03  0.5259E+01
   -0.249989   30.28944  0.1075E-14  0.1237E-04  0.6072E-07  0.7572E-03  0.5439E-03  0.3864E+01
   -0.299988   30.29093  0.1075E-14  0.1292E-04  0.5680E-07  0.8805E-03  0.4991E-03  0.3081E+01
   -0.349988   30.29218  0.1075E-14  0.1337E-04  0.5387E-07  0.9923E-03  0.4608E-03  0.2622E+01
   -0.399988   30.29327  0.1075E-14  0.1374E-04  0.5158E-07  0.1095E-02  0.4269E-03  0.2345E+01
   -0.449988   30.29423  0.1075E-14  0.1407E-04  0.4972E-07  0.1189E-02  0.3971E-03  0.2190E+01
   -0.499988   30.29510  0.1075E-14  0.1435E-04  0.4819E-07  0.1277E-02  0.3707E-03  0.2142E+01
   -0.549989   30.29589  0.1075E-14  0.1459E-04  0.4690E-07  0.1357E-02  0.3471E-03  0.2102E+01
   -0.599990   30.29663  0.1075E-14  0.1480E-04  0.4582E-07  0.1429E-02  0.3257E-03  0.2116E+01
   -0.649991   30.29731  0.1075E-14  0.1498E-04  0.4491E-07  0.1494E-02  0.3062E-03  0.2128E+01
   -0.699992   30.29796  0.1075E-14  0.1514E-04  0.4413E-07  0.1552E-02  0.2883E-03  0.2190E+01
   -0.749993   30.29857  0.1075E-14  0.1526E-04  0.4349E-07  0.1602E-02  0.2718E-03  0.2246E+01
   -0.799995   30.29916  0.1075E-14  0.1537E-04  0.4295E-07  0.1644E-02  0.2565E-03  0.2356E+01
   -0.849996   30.29973  0.1075E-14  0.1545E-04  0.4252E-07  0.1679E-02  0.2421E-03  0.2460E+01
   -0.899998   30.30028  0.1075E-14  0.1551E-04  0.4218E-07  0.1706E-02  0.2287E-03  0.2628E+01
   -0.950000   30.30081  0.1075E-14  0.1554E-04  0.4195E-07  0.1724E-02  0.2160E-03  0.2793E+01
   -1.000001   30.30133  0.1075E-14  0.1556E-04  0.4180E-07  0.1735E-02  0.2040E-03  0.3038E+01
   -1.050003   30.30185  0.1075E-14  0.1556E-04  0.4176E-07  0.1736E-02  0.1927E-03  0.3420E+01
   -1.100005   30.30236  0.1075E-14  0.1553E-04  0.4183E-07  0.1822E-02  0.1818E-03  0.1139E+02
   -1.150006   30.30284  0.1075E-14  0.1548E-04  0.4203E-07  0.1654E-02  0.1722E-03  0.2610E+02
   -1.200008   30.30338  0.1075E-14  0.1541E-04  0.4234E-07  0.1679E-02  0.1621E-03  0.4957E+01
   -1.250009   30.30389  0.1075E-14  0.1532E-04  0.4283E-07  0.1649E-02  0.1525E-03  0.5321E+01
   -1.300011   30.30442  0.1075E-14  0.1519E-04  0.4352E-07  0.1600E-02  0.1433E-03  0.6189E+01
   -1.350012   30.30496  0.1075E-14  0.1504E-04  0.4445E-07  0.1541E-02  0.1343E-03  0.7479E+01
   -1.400013   30.30552  0.1075E-14  0.1485E-04  0.4572E-07  0.1465E-02  0.1256E-03  0.9198E+01
   -1.450014   30.30610  0.1075E-14  0.1461E-04  0.4745E-07  0.1388E-02  0.1171E-03  0.1184E+02
   -1.500014   30.30672  0.1075E-14  0.1433E-04  0.4986E-07  0.1276E-02  0.1087E-03  0.1609E+02
   -1.550015   30.30740  0.1075E-14  0.1399E-04  0.5326E-07  0.1195E-02  0.1002E-03  0.2311E+02
   -1.600015   30.30814  0.1075E-14  0.1356E-04  0.5850E-07  0.1048E-02  0.9200E-04  0.4547E+02
   -1.650015   30.30904  0.1075E-14  0.1301E-04  0.6659E-07  0.9730E-03  0.8311E-04 -0.3360E+03
   -1.700014   30.31003  0.1075E-14  0.1225E-04  0.8114E-07  0.7908E-03  0.7453E-04  0.1657E+04
   -1.750013   30.31183  0.1075E-14  0.1123E-04  0.1053E-06  0.7152E-03  0.6306E-04  0.1745E+06
   -1.800012   30.31338  0.1075E-14  0.9871E-05  0.1561E-06  0.4971E-03  0.5398E-04  0.4172E+05
   -1.850010   30.31941  0.1075E-14  0.8326E-05  0.2511E-06  0.4571E-03  0.3852E-04  0.6939E+07
   -1.900008   30.31829  0.1075E-14  0.6549E-05  0.5287E-06  0.2056E-03  0.3116E-04 -0.3456E+05
   -1.950006   30.33729  0.1075E-14  0.4587E-05  0.1319E-05  0.1892E-03  0.1653E-04 -0.6236E+06
   -2.000003   30.33873  0.1075E-14  0.0000E+00  0.0000E+00  0.0000E+00  0.3089E-04  0.0000E+00
