 1 - depth, m
 2 - temperature, C
 3 - salinity, kg/kg
 4 - turbulent kinetic energy, m**2/s**2
 5 - dissipation rate, m**2/s**3
 6 - kinematic heat conductance, m**2/s
 7 - modulus of horizontal velocity, m/s
 8 - Richardson number, n/d
   -0.000000   31.02183  0.1096E-14  0.5019E-05  0.3206E-06  0.5132E-04  0.1117E-02  0.1994E+05
   -0.049997   31.05383  0.1096E-14  0.8669E-05  0.1427E-06  0.1819E-03  0.6367E-03  0.9048E+02
   -0.099994   31.06606  0.1096E-14  0.1052E-04  0.9834E-07  0.4106E-03  0.4667E-03  0.5277E+02
   -0.149992   31.06942  0.1096E-14  0.1167E-04  0.8263E-07  0.4897E-03  0.4127E-03  0.2605E+02
   -0.199991   31.07211  0.1096E-14  0.1257E-04  0.7341E-07  0.6559E-03  0.3688E-03  0.1683E+02
   -0.249989   31.07406  0.1096E-14  0.1328E-04  0.6736E-07  0.7830E-03  0.3359E-03  0.1256E+02
   -0.299988   31.07564  0.1096E-14  0.1385E-04  0.6304E-07  0.9104E-03  0.3086E-03  0.9978E+01
   -0.349988   31.07697  0.1096E-14  0.1433E-04  0.5980E-07  0.1025E-02  0.2852E-03  0.8603E+01
   -0.399988   31.07812  0.1096E-14  0.1473E-04  0.5727E-07  0.1130E-02  0.2645E-03  0.7624E+01
   -0.449988   31.07915  0.1096E-14  0.1508E-04  0.5522E-07  0.1228E-02  0.2463E-03  0.7222E+01
   -0.499988   31.08007  0.1096E-14  0.1537E-04  0.5351E-07  0.1317E-02  0.2302E-03  0.6968E+01
   -0.549989   31.08091  0.1096E-14  0.1563E-04  0.5208E-07  0.1398E-02  0.2157E-03  0.6941E+01
   -0.599989   31.08169  0.1096E-14  0.1585E-04  0.5088E-07  0.1472E-02  0.2027E-03  0.6876E+01
   -0.649990   31.08242  0.1096E-14  0.1603E-04  0.4986E-07  0.1538E-02  0.1907E-03  0.7035E+01
   -0.699992   31.08310  0.1096E-14  0.1619E-04  0.4899E-07  0.1596E-02  0.1798E-03  0.7113E+01
   -0.749993   31.08376  0.1096E-14  0.1631E-04  0.4827E-07  0.1646E-02  0.1696E-03  0.7430E+01
   -0.799994   31.08438  0.1096E-14  0.1641E-04  0.4766E-07  0.1688E-02  0.1602E-03  0.7647E+01
   -0.849996   31.08498  0.1096E-14  0.1649E-04  0.4718E-07  0.1722E-02  0.1513E-03  0.8137E+01
   -0.899998   31.08556  0.1096E-14  0.1654E-04  0.4680E-07  0.1748E-02  0.1431E-03  0.8518E+01
   -0.949999   31.08613  0.1096E-14  0.1657E-04  0.4653E-07  0.1766E-02  0.1352E-03  0.9232E+01
   -1.000001   31.08668  0.1096E-14  0.1658E-04  0.4637E-07  0.1775E-02  0.1278E-03  0.9841E+01
   -1.050003   31.08723  0.1096E-14  0.1656E-04  0.4632E-07  0.1773E-02  0.1208E-03  0.1128E+02
   -1.100004   31.08777  0.1096E-14  0.1653E-04  0.4639E-07  0.1872E-02  0.1141E-03  0.3641E+02
   -1.150006   31.08828  0.1096E-14  0.1646E-04  0.4662E-07  0.1668E-02  0.1082E-03  0.8641E+02
   -1.200008   31.08885  0.1096E-14  0.1637E-04  0.4699E-07  0.1704E-02  0.1019E-03  0.1643E+02
   -1.250009   31.08940  0.1096E-14  0.1625E-04  0.4755E-07  0.1672E-02  0.9592E-04  0.1730E+02
   -1.300010   31.08996  0.1096E-14  0.1610E-04  0.4835E-07  0.1618E-02  0.9016E-04  0.2055E+02
   -1.350012   31.09053  0.1096E-14  0.1592E-04  0.4945E-07  0.1555E-02  0.8458E-04  0.2451E+02
   -1.400013   31.09112  0.1096E-14  0.1569E-04  0.5096E-07  0.1472E-02  0.7913E-04  0.3086E+02
   -1.450013   31.09175  0.1096E-14  0.1542E-04  0.5304E-07  0.1393E-02  0.7377E-04  0.3955E+02
   -1.500014   31.09242  0.1096E-14  0.1509E-04  0.5598E-07  0.1274E-02  0.6848E-04  0.5542E+02
   -1.550014   31.09316  0.1096E-14  0.1468E-04  0.6018E-07  0.1194E-02  0.6314E-04  0.8125E+02
   -1.600014   31.09395  0.1096E-14  0.1417E-04  0.6686E-07  0.1044E-02  0.5793E-04  0.2110E+03
   -1.650014   31.09498  0.1096E-14  0.1351E-04  0.7738E-07  0.9682E-03  0.5213E-04  0.9281E+03
   -1.700014   31.09613  0.1096E-14  0.1260E-04  0.9611E-07  0.7812E-03  0.4650E-04  0.1956E+05
   -1.750013   31.09829  0.1096E-14  0.1144E-04  0.1268E-06  0.7072E-03  0.3871E-04  0.8063E+06
   -1.800011   31.09990  0.1096E-14  0.9948E-05  0.1938E-06  0.4854E-03  0.3311E-04  0.4615E+06
   -1.850010   31.10759  0.1096E-14  0.8370E-05  0.3179E-06  0.4577E-03  0.2285E-04  0.4291E+09
   -1.900008   31.10500  0.1096E-14  0.6613E-05  0.6736E-06  0.2082E-03  0.1876E-04 -0.1038E+09
   -1.950005   31.12666  0.1096E-14  0.4696E-05  0.1633E-05  0.2076E-03  0.9766E-05 -0.1210E+07
   -2.000002   31.12699  0.1096E-14  0.0000E+00  0.0000E+00  0.0000E+00  0.1964E-04  0.0000E+00
