 1 - depth, m
 2 - temperature, C
 3 - salinity, kg/kg
 4 - turbulent kinetic energy, m**2/s**2
 5 - dissipation rate, m**2/s**3
 6 - kinematic heat conductance, m**2/s
 7 - modulus of horizontal velocity, m/s
 8 - Richardson number, n/d
   -0.000000   30.36922  0.4403E-14  0.4830E-05  0.3001E-06  0.5095E-04  0.1910E-02  0.3372E+04
   -0.049997   30.39861  0.4403E-14  0.8181E-05  0.1336E-06  0.1732E-03  0.1100E-02  0.2919E+03
   -0.099994   30.41043  0.4403E-14  0.9936E-05  0.9127E-07  0.3967E-03  0.8009E-03  0.1299E+02
   -0.149992   30.41362  0.4403E-14  0.1103E-04  0.7648E-07  0.4752E-03  0.7074E-03  0.6325E+01
   -0.199991   30.41619  0.4403E-14  0.1188E-04  0.6782E-07  0.6364E-03  0.6313E-03  0.4049E+01
   -0.249989   30.41804  0.4403E-14  0.1256E-04  0.6217E-07  0.7610E-03  0.5745E-03  0.2981E+01
   -0.299988   30.41956  0.4403E-14  0.1311E-04  0.5814E-07  0.8857E-03  0.5272E-03  0.2370E+01
   -0.349988   30.42082  0.4403E-14  0.1357E-04  0.5512E-07  0.9986E-03  0.4867E-03  0.2023E+01
   -0.399988   30.42192  0.4403E-14  0.1395E-04  0.5278E-07  0.1102E-02  0.4510E-03  0.1803E+01
   -0.449988   30.42289  0.4403E-14  0.1428E-04  0.5087E-07  0.1198E-02  0.4195E-03  0.1690E+01
   -0.499988   30.42377  0.4403E-14  0.1457E-04  0.4930E-07  0.1286E-02  0.3917E-03  0.1646E+01
   -0.549989   30.42458  0.4403E-14  0.1482E-04  0.4799E-07  0.1367E-02  0.3668E-03  0.1622E+01
   -0.599990   30.42532  0.4403E-14  0.1504E-04  0.4688E-07  0.1440E-02  0.3443E-03  0.1624E+01
   -0.649991   30.42601  0.4403E-14  0.1522E-04  0.4594E-07  0.1506E-02  0.3238E-03  0.1642E+01
   -0.699992   30.42667  0.4403E-14  0.1537E-04  0.4515E-07  0.1564E-02  0.3049E-03  0.1681E+01
   -0.749993   30.42729  0.4403E-14  0.1550E-04  0.4449E-07  0.1615E-02  0.2875E-03  0.1734E+01
   -0.799995   30.42788  0.4403E-14  0.1561E-04  0.4394E-07  0.1658E-02  0.2713E-03  0.1809E+01
   -0.849996   30.42845  0.4403E-14  0.1569E-04  0.4349E-07  0.1694E-02  0.2562E-03  0.1898E+01
   -0.899998   30.42901  0.4403E-14  0.1575E-04  0.4315E-07  0.1721E-02  0.2420E-03  0.2016E+01
   -0.950000   30.42955  0.4403E-14  0.1579E-04  0.4291E-07  0.1740E-02  0.2287E-03  0.2154E+01
   -1.000001   30.43007  0.4403E-14  0.1581E-04  0.4276E-07  0.1751E-02  0.2160E-03  0.2328E+01
   -1.050003   30.43059  0.4403E-14  0.1581E-04  0.4272E-07  0.1753E-02  0.2040E-03  0.2635E+01
   -1.100005   30.43111  0.4403E-14  0.1579E-04  0.4278E-07  0.1838E-02  0.1926E-03  0.8755E+01
   -1.150006   30.43160  0.4403E-14  0.1574E-04  0.4298E-07  0.1673E-02  0.1824E-03  0.1981E+02
   -1.200008   30.43213  0.4403E-14  0.1567E-04  0.4330E-07  0.1697E-02  0.1718E-03  0.3804E+01
   -1.250009   30.43266  0.4403E-14  0.1557E-04  0.4379E-07  0.1667E-02  0.1617E-03  0.4059E+01
   -1.300011   30.43318  0.4403E-14  0.1545E-04  0.4449E-07  0.1618E-02  0.1520E-03  0.4742E+01
   -1.350012   30.43373  0.4403E-14  0.1530E-04  0.4544E-07  0.1560E-02  0.1425E-03  0.5684E+01
   -1.400013   30.43429  0.4403E-14  0.1511E-04  0.4673E-07  0.1484E-02  0.1333E-03  0.7014E+01
   -1.450014   30.43488  0.4403E-14  0.1488E-04  0.4848E-07  0.1407E-02  0.1243E-03  0.8956E+01
   -1.500014   30.43550  0.4403E-14  0.1459E-04  0.5092E-07  0.1296E-02  0.1154E-03  0.1217E+02
   -1.550015   30.43618  0.4403E-14  0.1425E-04  0.5436E-07  0.1214E-02  0.1065E-03  0.1740E+02
   -1.600015   30.43692  0.4403E-14  0.1382E-04  0.5964E-07  0.1068E-02  0.9782E-04  0.3244E+02
   -1.650015   30.43782  0.4403E-14  0.1327E-04  0.6779E-07  0.9913E-03  0.8846E-04  0.2033E+04
   -1.700014   30.43883  0.4403E-14  0.1251E-04  0.8239E-07  0.8086E-03  0.7935E-04  0.3508E+04
   -1.750013   30.44061  0.4403E-14  0.1151E-04  0.1062E-06  0.7294E-03  0.6723E-04  0.3151E+05
   -1.800012   30.44204  0.4403E-14  0.1017E-04  0.1560E-06  0.5145E-03  0.5792E-04  0.8671E+04
   -1.850010   30.44814  0.4403E-14  0.8654E-05  0.2513E-06  0.4696E-03  0.4161E-04  0.4757E+07
   -1.900008   30.44697  0.4403E-14  0.6839E-05  0.5243E-06  0.2141E-03  0.3388E-04  0.2010E+05
   -1.950006   30.46564  0.4403E-14  0.4771E-05  0.1319E-05  0.1869E-03  0.1825E-04 -0.4455E+06
   -2.000002   30.46786  0.4403E-14  0.0000E+00  0.0000E+00  0.0000E+00  0.3320E-04  0.0000E+00
