 1 - depth, m
 2 - temperature, C
 3 - salinity, kg/kg
 4 - turbulent kinetic energy, m**2/s**2
 5 - dissipation rate, m**2/s**3
 6 - kinematic heat conductance, m**2/s
 7 - modulus of horizontal velocity, m/s
 8 - Richardson number, n/d
   -0.000000   30.09719  0.1769E-14  0.5727E-05  0.3340E-06  0.5096E-04  0.3224E-02  0.1793E+04
   -0.049997   30.13236  0.1769E-14  0.9360E-05  0.1449E-06  0.2212E-03  0.1702E-02  0.1022E+03
   -0.099994   30.14191  0.1769E-14  0.1100E-04  0.1037E-06  0.4002E-03  0.1346E-02  0.4910E+01
   -0.149992   30.14551  0.1769E-14  0.1209E-04  0.8748E-07  0.5065E-03  0.1198E-02  0.2580E+01
   -0.199990   30.14824  0.1769E-14  0.1295E-04  0.7797E-07  0.6517E-03  0.1083E-02  0.1713E+01
   -0.249989   30.15030  0.1769E-14  0.1365E-04  0.7175E-07  0.7666E-03  0.9939E-03  0.1329E+01
   -0.299988   30.15201  0.1769E-14  0.1424E-04  0.6724E-07  0.8765E-03  0.9186E-03  0.1229E+01
   -0.349988   30.15347  0.1769E-14  0.1477E-04  0.6364E-07  0.9969E-03  0.8490E-03  0.1278E+01
   -0.399987   30.15472  0.1769E-14  0.1526E-04  0.6066E-07  0.1127E-02  0.7816E-03  0.1302E+01
   -0.449987   30.15580  0.1769E-14  0.1571E-04  0.5816E-07  0.1254E-02  0.7189E-03  0.1313E+01
   -0.499988   30.15676  0.1769E-14  0.1610E-04  0.5608E-07  0.1372E-02  0.6622E-03  0.1319E+01
   -0.549988   30.15761  0.1769E-14  0.1644E-04  0.5436E-07  0.1480E-02  0.6111E-03  0.1315E+01
   -0.599989   30.15839  0.1769E-14  0.1673E-04  0.5294E-07  0.1577E-02  0.5651E-03  0.1308E+01
   -0.649990   30.15911  0.1769E-14  0.1697E-04  0.5179E-07  0.1662E-02  0.5237E-03  0.1296E+01
   -0.699991   30.15979  0.1769E-14  0.1716E-04  0.5086E-07  0.1733E-02  0.4864E-03  0.1280E+01
   -0.749992   30.16043  0.1769E-14  0.1731E-04  0.5013E-07  0.1791E-02  0.4527E-03  0.1260E+01
   -0.799994   30.16104  0.1769E-14  0.1743E-04  0.4958E-07  0.1835E-02  0.4224E-03  0.1237E+01
   -0.849995   30.16163  0.1769E-14  0.1751E-04  0.4919E-07  0.1866E-02  0.3951E-03  0.1211E+01
   -0.899997   30.16220  0.1769E-14  0.1755E-04  0.4895E-07  0.1884E-02  0.3705E-03  0.1182E+01
   -0.949999   30.16276  0.1769E-14  0.1757E-04  0.4885E-07  0.1890E-02  0.3484E-03  0.1158E+01
   -1.000000   30.16332  0.1769E-14  0.1756E-04  0.4887E-07  0.1887E-02  0.3284E-03  0.1157E+01
   -1.050002   30.16387  0.1769E-14  0.1752E-04  0.4903E-07  0.1871E-02  0.3103E-03  0.1229E+01
   -1.100004   30.16443  0.1769E-14  0.1747E-04  0.4930E-07  0.2024E-02  0.2935E-03  0.3723E+01
   -1.150005   30.16494  0.1769E-14  0.1738E-04  0.4977E-07  0.1686E-02  0.2793E-03  0.1002E+02
   -1.200007   30.16555  0.1769E-14  0.1727E-04  0.5038E-07  0.1763E-02  0.2632E-03  0.1799E+01
   -1.250008   30.16613  0.1769E-14  0.1712E-04  0.5124E-07  0.1726E-02  0.2483E-03  0.1926E+01
   -1.300009   30.16672  0.1769E-14  0.1694E-04  0.5239E-07  0.1659E-02  0.2339E-03  0.2300E+01
   -1.350011   30.16734  0.1769E-14  0.1672E-04  0.5394E-07  0.1585E-02  0.2199E-03  0.2825E+01
   -1.400012   30.16798  0.1769E-14  0.1646E-04  0.5602E-07  0.1487E-02  0.2061E-03  0.3615E+01
   -1.450012   30.16867  0.1769E-14  0.1613E-04  0.5887E-07  0.1400E-02  0.1923E-03  0.4815E+01
   -1.500013   30.16942  0.1769E-14  0.1574E-04  0.6290E-07  0.1272E-02  0.1787E-03  0.6991E+01
   -1.550013   30.17026  0.1769E-14  0.1526E-04  0.6877E-07  0.1190E-02  0.1649E-03  0.1261E+02
   -1.600013   30.17119  0.1769E-14  0.1464E-04  0.7828E-07  0.1034E-02  0.1511E-03 -0.1527E+02
   -1.650013   30.17248  0.1769E-14  0.1382E-04  0.9320E-07  0.9537E-03  0.1352E-03  0.6556E+04
   -1.700012   30.17397  0.1769E-14  0.1270E-04  0.1196E-06  0.7649E-03  0.1194E-03  0.2271E+04
   -1.750011   30.17675  0.1769E-14  0.1140E-04  0.1609E-06  0.6896E-03  0.9784E-04  0.7482E+05
   -1.800010   30.17829  0.1769E-14  0.9765E-05  0.2521E-06  0.4601E-03  0.8401E-04  0.1251E+05
   -1.850008   30.18930  0.1769E-14  0.8177E-05  0.4259E-06  0.4489E-03  0.5526E-04  0.1264E+08
   -1.900006   30.18416  0.1769E-14  0.6501E-05  0.8993E-06  0.2079E-03  0.4626E-04 -0.7938E+05
   -1.950004   30.21219  0.1769E-14  0.4735E-05  0.2101E-05  0.2349E-03  0.2348E-04 -0.1625E+06
   -2.000000   30.21035  0.1769E-14  0.0000E+00  0.0000E+00  0.0000E+00  0.5146E-04  0.0000E+00
