 1 - depth, m
 2 - temperature, C
 3 - salinity, kg/kg
 4 - turbulent kinetic energy, m**2/s**2
 5 - dissipation rate, m**2/s**3
 6 - kinematic heat conductance, m**2/s
 7 - modulus of horizontal velocity, m/s
 8 - Richardson number, n/d
   -0.000000   30.36708  0.1030E-12  0.4691E-05  0.2864E-06  0.4932E-04  0.1244E-02  0.3178E+04
   -0.049997   30.39749  0.1030E-12  0.8080E-05  0.1276E-06  0.1758E-03  0.7065E-03  0.1387E+03
   -0.099994   30.40902  0.1030E-12  0.9787E-05  0.8799E-07  0.3958E-03  0.5169E-03  0.3173E+02
   -0.149992   30.41220  0.1030E-12  0.1085E-04  0.7396E-07  0.4754E-03  0.4566E-03  0.1543E+02
   -0.199991   30.41475  0.1030E-12  0.1167E-04  0.6569E-07  0.6335E-03  0.4076E-03  0.9929E+01
   -0.249989   30.41659  0.1030E-12  0.1232E-04  0.6023E-07  0.7567E-03  0.3709E-03  0.7327E+01
   -0.299988   30.41809  0.1030E-12  0.1285E-04  0.5632E-07  0.8791E-03  0.3403E-03  0.5821E+01
   -0.349988   30.41935  0.1030E-12  0.1329E-04  0.5338E-07  0.9900E-03  0.3141E-03  0.4972E+01
   -0.399988   30.42043  0.1030E-12  0.1366E-04  0.5107E-07  0.1091E-02  0.2909E-03  0.4422E+01
   -0.449988   30.42139  0.1030E-12  0.1397E-04  0.4919E-07  0.1186E-02  0.2705E-03  0.4148E+01
   -0.499988   30.42225  0.1030E-12  0.1424E-04  0.4763E-07  0.1272E-02  0.2525E-03  0.4029E+01
   -0.549989   30.42304  0.1030E-12  0.1447E-04  0.4631E-07  0.1351E-02  0.2363E-03  0.3971E+01
   -0.599990   30.42377  0.1030E-12  0.1467E-04  0.4519E-07  0.1423E-02  0.2217E-03  0.3965E+01
   -0.649991   30.42445  0.1030E-12  0.1484E-04  0.4424E-07  0.1488E-02  0.2084E-03  0.4009E+01
   -0.699992   30.42509  0.1030E-12  0.1498E-04  0.4343E-07  0.1545E-02  0.1962E-03  0.4090E+01
   -0.749993   30.42570  0.1030E-12  0.1510E-04  0.4273E-07  0.1595E-02  0.1849E-03  0.4217E+01
   -0.799995   30.42627  0.1030E-12  0.1519E-04  0.4215E-07  0.1638E-02  0.1744E-03  0.4382E+01
   -0.849996   30.42683  0.1030E-12  0.1526E-04  0.4167E-07  0.1673E-02  0.1646E-03  0.4598E+01
   -0.899998   30.42736  0.1030E-12  0.1531E-04  0.4129E-07  0.1700E-02  0.1554E-03  0.4861E+01
   -0.950000   30.42788  0.1030E-12  0.1534E-04  0.4100E-07  0.1719E-02  0.1467E-03  0.5192E+01
   -1.000001   30.42839  0.1030E-12  0.1535E-04  0.4080E-07  0.1731E-02  0.1385E-03  0.5585E+01
   -1.050003   30.42889  0.1030E-12  0.1534E-04  0.4070E-07  0.1733E-02  0.1308E-03  0.6313E+01
   -1.100005   30.42939  0.1030E-12  0.1531E-04  0.4070E-07  0.1815E-02  0.1234E-03  0.2093E+02
   -1.150006   30.42985  0.1030E-12  0.1525E-04  0.4083E-07  0.1658E-02  0.1168E-03  0.4696E+02
   -1.200008   30.43036  0.1030E-12  0.1518E-04  0.4107E-07  0.1681E-02  0.1099E-03  0.9027E+01
   -1.250009   30.43085  0.1030E-12  0.1508E-04  0.4146E-07  0.1652E-02  0.1034E-03  0.9564E+01
   -1.300011   30.43135  0.1030E-12  0.1495E-04  0.4205E-07  0.1605E-02  0.9714E-04  0.1114E+02
   -1.350012   30.43186  0.1030E-12  0.1480E-04  0.4286E-07  0.1548E-02  0.9106E-04  0.1325E+02
   -1.400013   30.43239  0.1030E-12  0.1461E-04  0.4398E-07  0.1475E-02  0.8515E-04  0.1626E+02
   -1.450014   30.43294  0.1030E-12  0.1439E-04  0.4552E-07  0.1399E-02  0.7935E-04  0.2057E+02
   -1.500014   30.43352  0.1030E-12  0.1411E-04  0.4766E-07  0.1292E-02  0.7367E-04  0.2761E+02
   -1.550015   30.43415  0.1030E-12  0.1378E-04  0.5070E-07  0.1208E-02  0.6798E-04  0.3876E+02
   -1.600015   30.43482  0.1030E-12  0.1338E-04  0.5531E-07  0.1068E-02  0.6241E-04  0.6848E+02
   -1.650015   30.43562  0.1030E-12  0.1286E-04  0.6246E-07  0.9903E-03  0.5651E-04  0.5766E+04
   -1.700014   30.43652  0.1030E-12  0.1215E-04  0.7539E-07  0.8093E-03  0.5076E-04  0.1034E+05
   -1.750013   30.43808  0.1030E-12  0.1120E-04  0.9666E-07  0.7294E-03  0.4321E-04  0.3784E+05
   -1.800012   30.43943  0.1030E-12  0.9907E-05  0.1409E-06  0.5118E-03  0.3715E-04  0.1447E+05
   -1.850010   30.44444  0.1030E-12  0.8423E-05  0.2250E-06  0.4648E-03  0.2696E-04  0.1034E+08
   -1.900008   30.44395  0.1030E-12  0.6674E-05  0.4766E-06  0.2157E-03  0.2179E-04  0.1845E+06
   -1.950006   30.46016  0.1030E-12  0.4628E-05  0.1202E-05  0.1791E-03  0.1187E-04 -0.1313E+07
   -2.000003   30.46323  0.1030E-12  0.0000E+00  0.0000E+00  0.0000E+00  0.2116E-04  0.0000E+00
