 1 - depth, m
 2 - temperature, C
 3 - salinity, kg/kg
 4 - turbulent kinetic energy, m**2/s**2
 5 - dissipation rate, m**2/s**3
 6 - kinematic heat conductance, m**2/s
 7 - modulus of horizontal velocity, m/s
 8 - Richardson number, n/d
   -0.000000   29.81465  0.2678E-14  0.4561E-05  0.2738E-06  0.4918E-04  0.1672E-02  0.3199E+04
   -0.049997   29.84316  0.2678E-14  0.7798E-05  0.1221E-06  0.1719E-03  0.9542E-03  0.8321E+04
   -0.099994   29.85419  0.2678E-14  0.9460E-05  0.8388E-07  0.3896E-03  0.6960E-03  0.1658E+02
   -0.149992   29.85725  0.2678E-14  0.1050E-04  0.7043E-07  0.4689E-03  0.6141E-03  0.8060E+01
   -0.199991   29.85969  0.2678E-14  0.1131E-04  0.6256E-07  0.6255E-03  0.5478E-03  0.5185E+01
   -0.249989   29.86147  0.2678E-14  0.1195E-04  0.5739E-07  0.7481E-03  0.4982E-03  0.3825E+01
   -0.299989   29.86292  0.2678E-14  0.1247E-04  0.5371E-07  0.8696E-03  0.4569E-03  0.3044E+01
   -0.349988   29.86413  0.2678E-14  0.1291E-04  0.5095E-07  0.9800E-03  0.4215E-03  0.2603E+01
   -0.399988   29.86518  0.2678E-14  0.1328E-04  0.4880E-07  0.1081E-02  0.3902E-03  0.2321E+01
   -0.449988   29.86612  0.2678E-14  0.1360E-04  0.4706E-07  0.1175E-02  0.3627E-03  0.2180E+01
   -0.499988   29.86696  0.2678E-14  0.1387E-04  0.4561E-07  0.1261E-02  0.3383E-03  0.2123E+01
   -0.549989   29.86773  0.2678E-14  0.1411E-04  0.4441E-07  0.1340E-02  0.3166E-03  0.2096E+01
   -0.599990   29.86845  0.2678E-14  0.1431E-04  0.4339E-07  0.1412E-02  0.2969E-03  0.2099E+01
   -0.649991   29.86911  0.2678E-14  0.1449E-04  0.4253E-07  0.1476E-02  0.2790E-03  0.2126E+01
   -0.699992   29.86974  0.2678E-14  0.1464E-04  0.4181E-07  0.1534E-02  0.2625E-03  0.2177E+01
   -0.749993   29.87034  0.2678E-14  0.1477E-04  0.4120E-07  0.1584E-02  0.2473E-03  0.2249E+01
   -0.799995   29.87091  0.2678E-14  0.1487E-04  0.4070E-07  0.1626E-02  0.2332E-03  0.2345E+01
   -0.849996   29.87146  0.2678E-14  0.1495E-04  0.4030E-07  0.1661E-02  0.2201E-03  0.2466E+01
   -0.899998   29.87199  0.2678E-14  0.1501E-04  0.3998E-07  0.1688E-02  0.2077E-03  0.2617E+01
   -0.950000   29.87251  0.2678E-14  0.1505E-04  0.3976E-07  0.1707E-02  0.1961E-03  0.2800E+01
   -1.000002   29.87302  0.2678E-14  0.1507E-04  0.3963E-07  0.1719E-02  0.1851E-03  0.3025E+01
   -1.050003   29.87352  0.2678E-14  0.1507E-04  0.3959E-07  0.1721E-02  0.1747E-03  0.3429E+01
   -1.100005   29.87402  0.2678E-14  0.1505E-04  0.3965E-07  0.1800E-02  0.1647E-03  0.1145E+02
   -1.150007   29.87449  0.2678E-14  0.1501E-04  0.3983E-07  0.1649E-02  0.1559E-03  0.2547E+02
   -1.200008   29.87500  0.2678E-14  0.1495E-04  0.4013E-07  0.1669E-02  0.1467E-03  0.4932E+01
   -1.250010   29.87550  0.2678E-14  0.1486E-04  0.4058E-07  0.1640E-02  0.1380E-03  0.5256E+01
   -1.300011   29.87601  0.2678E-14  0.1475E-04  0.4121E-07  0.1593E-02  0.1296E-03  0.6134E+01
   -1.350012   29.87653  0.2678E-14  0.1461E-04  0.4207E-07  0.1537E-02  0.1214E-03  0.7323E+01
   -1.400013   29.87706  0.2678E-14  0.1444E-04  0.4324E-07  0.1464E-02  0.1135E-03  0.8999E+01
   -1.450014   29.87763  0.2678E-14  0.1422E-04  0.4482E-07  0.1389E-02  0.1057E-03  0.1141E+02
   -1.500015   29.87822  0.2678E-14  0.1396E-04  0.4699E-07  0.1281E-02  0.9809E-04  0.1533E+02
   -1.550015   29.87887  0.2678E-14  0.1364E-04  0.5006E-07  0.1200E-02  0.9046E-04  0.2154E+02
   -1.600015   29.87957  0.2678E-14  0.1325E-04  0.5473E-07  0.1057E-02  0.8301E-04  0.3856E+02
   -1.650015   29.88041  0.2678E-14  0.1274E-04  0.6187E-07  0.9805E-03  0.7504E-04  0.8739E+02
   -1.700015   29.88134  0.2678E-14  0.1205E-04  0.7474E-07  0.8010E-03  0.6740E-04  0.5688E+04
   -1.750014   29.88298  0.2678E-14  0.1111E-04  0.9611E-07  0.7228E-03  0.5724E-04  0.2416E+06
   -1.800012   29.88443  0.2678E-14  0.9841E-05  0.1401E-06  0.5080E-03  0.4913E-04  0.3230E+06
   -1.850011   29.88969  0.2678E-14  0.8363E-05  0.2233E-06  0.4602E-03  0.3553E-04  0.1840E+08
   -1.900009   29.88917  0.2678E-14  0.6613E-05  0.4653E-06  0.2102E-03  0.2865E-04 -0.4970E+05
   -1.950006   29.90643  0.2678E-14  0.4579E-05  0.1176E-05  0.1784E-03  0.1549E-04 -0.5923E+06
   -2.000003   29.90883  0.2678E-14  0.0000E+00  0.0000E+00  0.0000E+00  0.2794E-04  0.0000E+00
