 1 - depth, m
 2 - temperature, C
 3 - salinity, kg/kg
 4 - turbulent kinetic energy, m**2/s**2
 5 - dissipation rate, m**2/s**3
 6 - kinematic heat conductance, m**2/s
 7 - modulus of horizontal velocity, m/s
 8 - Richardson number, n/d
   -0.000000   31.27798  0.2427E-13  0.5091E-05  0.3285E-06  0.5240E-04  0.1582E-02  0.9883E+04
   -0.049997   31.30917  0.2427E-13  0.8682E-05  0.1465E-06  0.1792E-03  0.9112E-03  0.2692E+03
   -0.099994   31.32157  0.2427E-13  0.1055E-04  0.1003E-06  0.4074E-03  0.6663E-03  0.1909E+02
   -0.149992   31.32494  0.2427E-13  0.1173E-04  0.8403E-07  0.4872E-03  0.5890E-03  0.9370E+01
   -0.199991   31.32763  0.2427E-13  0.1264E-04  0.7451E-07  0.6548E-03  0.5262E-03  0.5982E+01
   -0.249989   31.32957  0.2427E-13  0.1336E-04  0.6830E-07  0.7828E-03  0.4793E-03  0.4407E+01
   -0.299988   31.33115  0.2427E-13  0.1396E-04  0.6389E-07  0.9118E-03  0.4404E-03  0.3503E+01
   -0.349988   31.33248  0.2427E-13  0.1445E-04  0.6059E-07  0.1028E-02  0.4071E-03  0.2990E+01
   -0.399987   31.33362  0.2427E-13  0.1486E-04  0.5802E-07  0.1135E-02  0.3776E-03  0.2662E+01
   -0.449988   31.33464  0.2427E-13  0.1521E-04  0.5594E-07  0.1234E-02  0.3517E-03  0.2493E+01
   -0.499988   31.33556  0.2427E-13  0.1552E-04  0.5423E-07  0.1325E-02  0.3288E-03  0.2422E+01
   -0.549988   31.33639  0.2427E-13  0.1579E-04  0.5280E-07  0.1408E-02  0.3083E-03  0.2385E+01
   -0.599989   31.33717  0.2427E-13  0.1601E-04  0.5159E-07  0.1483E-02  0.2897E-03  0.2384E+01
   -0.649990   31.33789  0.2427E-13  0.1621E-04  0.5058E-07  0.1550E-02  0.2727E-03  0.2409E+01
   -0.699991   31.33857  0.2427E-13  0.1638E-04  0.4973E-07  0.1610E-02  0.2571E-03  0.2462E+01
   -0.749993   31.33922  0.2427E-13  0.1652E-04  0.4901E-07  0.1662E-02  0.2427E-03  0.2539E+01
   -0.799994   31.33984  0.2427E-13  0.1663E-04  0.4843E-07  0.1706E-02  0.2293E-03  0.2645E+01
   -0.849996   31.34044  0.2427E-13  0.1672E-04  0.4797E-07  0.1741E-02  0.2167E-03  0.2778E+01
   -0.899997   31.34102  0.2427E-13  0.1679E-04  0.4761E-07  0.1769E-02  0.2050E-03  0.2946E+01
   -0.949999   31.34158  0.2427E-13  0.1683E-04  0.4737E-07  0.1788E-02  0.1938E-03  0.3151E+01
   -1.000001   31.34214  0.2427E-13  0.1685E-04  0.4724E-07  0.1799E-02  0.1833E-03  0.3403E+01
   -1.050002   31.34268  0.2427E-13  0.1685E-04  0.4722E-07  0.1799E-02  0.1733E-03  0.3855E+01
   -1.100004   31.34323  0.2427E-13  0.1682E-04  0.4733E-07  0.1892E-02  0.1638E-03  0.1272E+02
   -1.150006   31.34374  0.2427E-13  0.1677E-04  0.4760E-07  0.1706E-02  0.1553E-03  0.2921E+02
   -1.200007   31.34431  0.2427E-13  0.1670E-04  0.4800E-07  0.1736E-02  0.1464E-03  0.5587E+01
   -1.250009   31.34486  0.2427E-13  0.1660E-04  0.4860E-07  0.1705E-02  0.1379E-03  0.5960E+01
   -1.300010   31.34542  0.2427E-13  0.1646E-04  0.4944E-07  0.1654E-02  0.1298E-03  0.6987E+01
   -1.350011   31.34600  0.2427E-13  0.1630E-04  0.5057E-07  0.1592E-02  0.1218E-03  0.8392E+01
   -1.400012   31.34659  0.2427E-13  0.1609E-04  0.5211E-07  0.1513E-02  0.1141E-03  0.1040E+02
   -1.450013   31.34722  0.2427E-13  0.1584E-04  0.5420E-07  0.1431E-02  0.1065E-03  0.1338E+02
   -1.500014   31.34789  0.2427E-13  0.1553E-04  0.5711E-07  0.1321E-02  0.9896E-04  0.1831E+02
   -1.550014   31.34863  0.2427E-13  0.1515E-04  0.6127E-07  0.1231E-02  0.9142E-04  0.2715E+02
   -1.600014   31.34943  0.2427E-13  0.1467E-04  0.6767E-07  0.1090E-02  0.8396E-04  0.1334E+03
   -1.650014   31.35042  0.2427E-13  0.1405E-04  0.7776E-07  0.9984E-03  0.7596E-04 -0.8726E+04
   -1.700013   31.35160  0.2427E-13  0.1321E-04  0.9520E-07  0.8229E-03  0.6779E-04  0.8832E+04
   -1.750012   31.35350  0.2427E-13  0.1213E-04  0.1235E-06  0.7352E-03  0.5764E-04  0.3178E+06
   -1.800011   31.35522  0.2427E-13  0.1069E-04  0.1834E-06  0.5215E-03  0.4937E-04  0.8707E+05
   -1.850009   31.36180  0.2427E-13  0.9129E-05  0.2967E-06  0.4766E-03  0.3559E-04  0.3428E+07
   -1.900007   31.36053  0.2427E-13  0.7238E-05  0.6233E-06  0.2197E-03  0.2893E-04  0.9934E+06
   -1.950004   31.38122  0.2427E-13  0.5096E-05  0.1532E-05  0.1964E-03  0.1567E-04 -0.3986E+06
   -2.000001   31.38329  0.2427E-13  0.0000E+00  0.0000E+00  0.0000E+00  0.2882E-04  0.0000E+00
