 1 - depth, m
 2 - temperature, C
 3 - salinity, kg/kg
 4 - turbulent kinetic energy, m**2/s**2
 5 - dissipation rate, m**2/s**3
 6 - kinematic heat conductance, m**2/s
 7 - modulus of horizontal velocity, m/s
 8 - Richardson number, n/d
   -0.000000   30.53169  0.3081E-14  0.4913E-05  0.3083E-06  0.5027E-04  0.1318E-02  0.6326E+04
   -0.049997   30.56326  0.3081E-14  0.8452E-05  0.1375E-06  0.1818E-03  0.7478E-03  0.1809E+04
   -0.099994   30.57505  0.3081E-14  0.1025E-04  0.9500E-07  0.4018E-03  0.5514E-03  0.2777E+02
   -0.149992   30.57838  0.3081E-14  0.1138E-04  0.7974E-07  0.4855E-03  0.4872E-03  0.1368E+02
   -0.199991   30.58101  0.3081E-14  0.1226E-04  0.7080E-07  0.6484E-03  0.4353E-03  0.8769E+01
   -0.249989   30.58293  0.3081E-14  0.1296E-04  0.6495E-07  0.7747E-03  0.3966E-03  0.6469E+01
   -0.299988   30.58449  0.3081E-14  0.1353E-04  0.6079E-07  0.9011E-03  0.3643E-03  0.5150E+01
   -0.349988   30.58579  0.3081E-14  0.1400E-04  0.5766E-07  0.1015E-02  0.3366E-03  0.4396E+01
   -0.399988   30.58693  0.3081E-14  0.1439E-04  0.5523E-07  0.1120E-02  0.3121E-03  0.3921E+01
   -0.449988   30.58793  0.3081E-14  0.1473E-04  0.5325E-07  0.1217E-02  0.2906E-03  0.3674E+01
   -0.499988   30.58884  0.3081E-14  0.1503E-04  0.5162E-07  0.1305E-02  0.2716E-03  0.3578E+01
   -0.549989   30.58967  0.3081E-14  0.1528E-04  0.5025E-07  0.1387E-02  0.2545E-03  0.3522E+01
   -0.599989   30.59044  0.3081E-14  0.1550E-04  0.4910E-07  0.1460E-02  0.2390E-03  0.3528E+01
   -0.649991   30.59115  0.3081E-14  0.1568E-04  0.4812E-07  0.1526E-02  0.2249E-03  0.3563E+01
   -0.699992   30.59183  0.3081E-14  0.1584E-04  0.4730E-07  0.1584E-02  0.2120E-03  0.3649E+01
   -0.749993   30.59247  0.3081E-14  0.1597E-04  0.4660E-07  0.1635E-02  0.2000E-03  0.3759E+01
   -0.799995   30.59308  0.3081E-14  0.1607E-04  0.4603E-07  0.1677E-02  0.1889E-03  0.3922E+01
   -0.849996   30.59368  0.3081E-14  0.1615E-04  0.4557E-07  0.1712E-02  0.1784E-03  0.4112E+01
   -0.899998   30.59425  0.3081E-14  0.1621E-04  0.4521E-07  0.1739E-02  0.1687E-03  0.4368E+01
   -0.949999   30.59481  0.3081E-14  0.1625E-04  0.4495E-07  0.1757E-02  0.1594E-03  0.4662E+01
   -1.000001   30.59535  0.3081E-14  0.1626E-04  0.4480E-07  0.1767E-02  0.1507E-03  0.5044E+01
   -1.050003   30.59589  0.3081E-14  0.1625E-04  0.4476E-07  0.1766E-02  0.1424E-03  0.5699E+01
   -1.100005   30.59642  0.3081E-14  0.1622E-04  0.4484E-07  0.1860E-02  0.1345E-03  0.1883E+02
   -1.150006   30.59693  0.3081E-14  0.1616E-04  0.4506E-07  0.1672E-02  0.1275E-03  0.4341E+02
   -1.200008   30.59748  0.3081E-14  0.1608E-04  0.4541E-07  0.1703E-02  0.1201E-03  0.8261E+01
   -1.250009   30.59803  0.3081E-14  0.1597E-04  0.4595E-07  0.1672E-02  0.1130E-03  0.8815E+01
   -1.300011   30.59857  0.3081E-14  0.1584E-04  0.4671E-07  0.1620E-02  0.1063E-03  0.1031E+02
   -1.350012   30.59914  0.3081E-14  0.1567E-04  0.4775E-07  0.1559E-02  0.9971E-04  0.1239E+02
   -1.400013   30.59972  0.3081E-14  0.1546E-04  0.4916E-07  0.1479E-02  0.9330E-04  0.1533E+02
   -1.450014   30.60033  0.3081E-14  0.1520E-04  0.5111E-07  0.1401E-02  0.8698E-04  0.1967E+02
   -1.500014   30.60098  0.3081E-14  0.1489E-04  0.5382E-07  0.1285E-02  0.8079E-04  0.2692E+02
   -1.550015   30.60170  0.3081E-14  0.1451E-04  0.5771E-07  0.1204E-02  0.7452E-04  0.3896E+02
   -1.600015   30.60247  0.3081E-14  0.1404E-04  0.6376E-07  0.1056E-02  0.6841E-04  0.8025E+02
   -1.650014   30.60344  0.3081E-14  0.1343E-04  0.7319E-07  0.9815E-03  0.6170E-04  0.2703E+03
   -1.700014   30.60452  0.3081E-14  0.1259E-04  0.9019E-07  0.7937E-03  0.5519E-04 -0.7159E+03
   -1.750013   30.60653  0.3081E-14  0.1148E-04  0.1180E-06  0.7195E-03  0.4620E-04  0.7707E+05
   -1.800012   30.60807  0.3081E-14  0.1005E-04  0.1777E-06  0.4959E-03  0.3964E-04  0.6294E+05
   -1.850010   30.61501  0.3081E-14  0.8504E-05  0.2889E-06  0.4636E-03  0.2774E-04  0.3202E+08
   -1.900008   30.61304  0.3081E-14  0.6769E-05  0.6056E-06  0.2133E-03  0.2282E-04  0.2134E+06
   -1.950005   30.63325  0.3081E-14  0.4764E-05  0.1495E-05  0.1973E-03  0.1215E-04 -0.2117E+07
   -2.000002   30.63481  0.3081E-14  0.0000E+00  0.0000E+00  0.0000E+00  0.2329E-04  0.0000E+00
