 1 - depth, m
 2 - temperature, C
 3 - salinity, kg/kg
 4 - turbulent kinetic energy, m**2/s**2
 5 - dissipation rate, m**2/s**3
 6 - kinematic heat conductance, m**2/s
 7 - modulus of horizontal velocity, m/s
 8 - Richardson number, n/d
   -0.000000   31.02832  0.1626E-14  0.4945E-05  0.3032E-06  0.4775E-04  0.3800E-03  0.2437E+06
   -0.049997   31.06253  0.1626E-14  0.8802E-05  0.1352E-06  0.1989E-03  0.2105E-03  0.1174E+06
   -0.099994   31.07260  0.1626E-14  0.1056E-04  0.9525E-07  0.4191E-03  0.1558E-03  0.6126E+03
   -0.149992   31.07585  0.1626E-14  0.1170E-04  0.8059E-07  0.5046E-03  0.1380E-03  0.3111E+03
   -0.199991   31.07841  0.1626E-14  0.1258E-04  0.7191E-07  0.6695E-03  0.1235E-03  0.2060E+03
   -0.249989   31.08029  0.1626E-14  0.1328E-04  0.6617E-07  0.7983E-03  0.1126E-03  0.1546E+03
   -0.299988   31.08182  0.1626E-14  0.1386E-04  0.6207E-07  0.9250E-03  0.1035E-03  0.1243E+03
   -0.349988   31.08311  0.1626E-14  0.1434E-04  0.5898E-07  0.1040E-02  0.9567E-04  0.1070E+03
   -0.399988   31.08423  0.1626E-14  0.1474E-04  0.5658E-07  0.1145E-02  0.8878E-04  0.9571E+02
   -0.449988   31.08523  0.1626E-14  0.1508E-04  0.5462E-07  0.1242E-02  0.8268E-04  0.9017E+02
   -0.499988   31.08613  0.1626E-14  0.1538E-04  0.5301E-07  0.1331E-02  0.7730E-04  0.8778E+02
   -0.549989   31.08696  0.1626E-14  0.1564E-04  0.5166E-07  0.1413E-02  0.7245E-04  0.8686E+02
   -0.599989   31.08772  0.1626E-14  0.1586E-04  0.5052E-07  0.1486E-02  0.6808E-04  0.8695E+02
   -0.649990   31.08844  0.1626E-14  0.1605E-04  0.4957E-07  0.1552E-02  0.6407E-04  0.8832E+02
   -0.699992   31.08911  0.1626E-14  0.1622E-04  0.4877E-07  0.1609E-02  0.6041E-04  0.9038E+02
   -0.749993   31.08976  0.1626E-14  0.1635E-04  0.4811E-07  0.1659E-02  0.5699E-04  0.9370E+02
   -0.799994   31.09037  0.1626E-14  0.1646E-04  0.4757E-07  0.1701E-02  0.5384E-04  0.9773E+02
   -0.849996   31.09097  0.1626E-14  0.1654E-04  0.4714E-07  0.1735E-02  0.5086E-04  0.1032E+03
   -0.899998   31.09154  0.1626E-14  0.1661E-04  0.4683E-07  0.1760E-02  0.4809E-04  0.1096E+03
   -0.949999   31.09211  0.1626E-14  0.1665E-04  0.4662E-07  0.1777E-02  0.4546E-04  0.1179E+03
   -1.000001   31.09266  0.1626E-14  0.1666E-04  0.4652E-07  0.1786E-02  0.4298E-04  0.1276E+03
   -1.050003   31.09320  0.1626E-14  0.1665E-04  0.4654E-07  0.1783E-02  0.4061E-04  0.1454E+03
   -1.100004   31.09375  0.1626E-14  0.1662E-04  0.4668E-07  0.1884E-02  0.3836E-04  0.4758E+03
   -1.150006   31.09426  0.1626E-14  0.1657E-04  0.4698E-07  0.1676E-02  0.3637E-04  0.1127E+04
   -1.200008   31.09483  0.1626E-14  0.1649E-04  0.4743E-07  0.1713E-02  0.3425E-04  0.2141E+03
   -1.250009   31.09539  0.1626E-14  0.1638E-04  0.4807E-07  0.1680E-02  0.3225E-04  0.2293E+03
   -1.300010   31.09595  0.1626E-14  0.1624E-04  0.4896E-07  0.1625E-02  0.3031E-04  0.2711E+03
   -1.350012   31.09654  0.1626E-14  0.1606E-04  0.5016E-07  0.1562E-02  0.2844E-04  0.3275E+03
   -1.400013   31.09714  0.1626E-14  0.1585E-04  0.5178E-07  0.1478E-02  0.2660E-04  0.4106E+03
   -1.450013   31.09779  0.1626E-14  0.1558E-04  0.5400E-07  0.1397E-02  0.2480E-04  0.5319E+03
   -1.500014   31.09847  0.1626E-14  0.1526E-04  0.5709E-07  0.1281E-02  0.2302E-04  0.7397E+03
   -1.550014   31.09923  0.1626E-14  0.1486E-04  0.6152E-07  0.1196E-02  0.2123E-04  0.1092E+04
   -1.600014   31.10006  0.1626E-14  0.1436E-04  0.6848E-07  0.1053E-02  0.1946E-04  0.2562E+04
   -1.650014   31.10111  0.1626E-14  0.1370E-04  0.7947E-07  0.9659E-03  0.1752E-04  0.4564E+05
   -1.700013   31.10234  0.1626E-14  0.1279E-04  0.9866E-07  0.7925E-03  0.1555E-04 -0.2939E+04
   -1.750013   31.10452  0.1626E-14  0.1164E-04  0.1298E-06  0.7069E-03  0.1299E-04  0.2696E+07
   -1.800011   31.10615  0.1626E-14  0.1014E-04  0.1986E-06  0.4903E-03  0.1112E-04  0.5983E+08
   -1.850010   31.11414  0.1626E-14  0.8576E-05  0.3271E-06  0.4552E-03  0.7671E-05  0.5172E+10
   -1.900007   31.11161  0.1626E-14  0.6819E-05  0.6963E-06  0.2142E-03  0.6317E-05 -0.4217E+07
   -1.950005   31.13419  0.1626E-14  0.4840E-05  0.1683E-05  0.2064E-03  0.3337E-05 -0.1253E+08
   -2.000002   31.13541  0.1626E-14  0.0000E+00  0.0000E+00  0.0000E+00  0.6598E-05  0.0000E+00
