 1 - depth, m
 2 - temperature, C
 3 - salinity, kg/kg
 4 - turbulent kinetic energy, m**2/s**2
 5 - dissipation rate, m**2/s**3
 6 - kinematic heat conductance, m**2/s
 7 - modulus of horizontal velocity, m/s
 8 - Richardson number, n/d
   -0.000000   30.55083  0.7154E-14  0.4830E-05  0.2995E-06  0.4999E-04  0.1340E-02  0.8393E+04
   -0.049997   30.58167  0.7154E-14  0.8308E-05  0.1337E-06  0.1795E-03  0.7593E-03  0.4885E+03
   -0.099994   30.59328  0.7154E-14  0.1007E-04  0.9243E-07  0.3986E-03  0.5592E-03  0.2625E+02
   -0.149992   30.59654  0.7154E-14  0.1118E-04  0.7758E-07  0.4817E-03  0.4937E-03  0.1290E+02
   -0.199991   30.59913  0.7154E-14  0.1204E-04  0.6889E-07  0.6433E-03  0.4409E-03  0.8267E+01
   -0.249989   30.60101  0.7154E-14  0.1273E-04  0.6319E-07  0.7691E-03  0.4014E-03  0.6100E+01
   -0.299988   30.60253  0.7154E-14  0.1329E-04  0.5912E-07  0.8945E-03  0.3685E-03  0.4850E+01
   -0.349988   30.60381  0.7154E-14  0.1375E-04  0.5608E-07  0.1008E-02  0.3404E-03  0.4147E+01
   -0.399988   30.60492  0.7154E-14  0.1414E-04  0.5370E-07  0.1112E-02  0.3155E-03  0.3692E+01
   -0.449988   30.60590  0.7154E-14  0.1447E-04  0.5177E-07  0.1208E-02  0.2936E-03  0.3465E+01
   -0.499988   30.60679  0.7154E-14  0.1476E-04  0.5017E-07  0.1297E-02  0.2742E-03  0.3366E+01
   -0.549989   30.60760  0.7154E-14  0.1501E-04  0.4884E-07  0.1378E-02  0.2569E-03  0.3319E+01
   -0.599989   30.60835  0.7154E-14  0.1523E-04  0.4771E-07  0.1452E-02  0.2412E-03  0.3317E+01
   -0.649991   30.60905  0.7154E-14  0.1541E-04  0.4675E-07  0.1518E-02  0.2269E-03  0.3356E+01
   -0.699992   30.60971  0.7154E-14  0.1557E-04  0.4594E-07  0.1576E-02  0.2137E-03  0.3428E+01
   -0.749993   30.61033  0.7154E-14  0.1570E-04  0.4526E-07  0.1627E-02  0.2015E-03  0.3539E+01
   -0.799995   30.61093  0.7154E-14  0.1580E-04  0.4470E-07  0.1670E-02  0.1902E-03  0.3681E+01
   -0.849996   30.61151  0.7154E-14  0.1588E-04  0.4424E-07  0.1705E-02  0.1797E-03  0.3868E+01
   -0.899998   30.61206  0.7154E-14  0.1594E-04  0.4389E-07  0.1733E-02  0.1698E-03  0.4094E+01
   -0.949999   30.61261  0.7154E-14  0.1598E-04  0.4363E-07  0.1752E-02  0.1604E-03  0.4379E+01
   -1.000001   30.61314  0.7154E-14  0.1600E-04  0.4347E-07  0.1763E-02  0.1516E-03  0.4720E+01
   -1.050003   30.61366  0.7154E-14  0.1599E-04  0.4342E-07  0.1764E-02  0.1432E-03  0.5342E+01
   -1.100005   30.61418  0.7154E-14  0.1597E-04  0.4348E-07  0.1851E-02  0.1352E-03  0.1772E+02
   -1.150006   30.61467  0.7154E-14  0.1592E-04  0.4368E-07  0.1681E-02  0.1281E-03  0.3990E+02
   -1.200008   30.61520  0.7154E-14  0.1584E-04  0.4400E-07  0.1707E-02  0.1207E-03  0.7675E+01
   -1.250009   30.61573  0.7154E-14  0.1574E-04  0.4449E-07  0.1677E-02  0.1136E-03  0.8173E+01
   -1.300011   30.61626  0.7154E-14  0.1562E-04  0.4519E-07  0.1628E-02  0.1068E-03  0.9541E+01
   -1.350012   30.61680  0.7154E-14  0.1546E-04  0.4615E-07  0.1569E-02  0.1001E-03  0.1140E+02
   -1.400013   30.61736  0.7154E-14  0.1526E-04  0.4745E-07  0.1492E-02  0.9370E-04  0.1405E+02
   -1.450014   30.61795  0.7154E-14  0.1503E-04  0.4923E-07  0.1414E-02  0.8737E-04  0.1789E+02
   -1.500014   30.61858  0.7154E-14  0.1474E-04  0.5169E-07  0.1304E-02  0.8117E-04  0.2422E+02
   -1.550015   30.61926  0.7154E-14  0.1439E-04  0.5520E-07  0.1219E-02  0.7492E-04  0.3456E+02
   -1.600015   30.61999  0.7154E-14  0.1395E-04  0.6057E-07  0.1074E-02  0.6881E-04  0.6868E+02
   -1.650014   30.62089  0.7154E-14  0.1339E-04  0.6888E-07  0.9946E-03  0.6223E-04  0.1916E+04
   -1.700014   30.62191  0.7154E-14  0.1263E-04  0.8367E-07  0.8127E-03  0.5582E-04  0.5959E+04
   -1.750013   30.62368  0.7154E-14  0.1161E-04  0.1081E-06  0.7356E-03  0.4737E-04  0.3060E+05
   -1.800012   30.62519  0.7154E-14  0.1025E-04  0.1590E-06  0.5131E-03  0.4068E-04  0.6434E+05
   -1.850010   30.63114  0.7154E-14  0.8711E-05  0.2551E-06  0.4707E-03  0.2927E-04  0.1310E+08
   -1.900008   30.63010  0.7154E-14  0.6899E-05  0.5330E-06  0.2136E-03  0.2376E-04  0.9720E+06
   -1.950005   30.64881  0.7154E-14  0.4810E-05  0.1336E-05  0.1873E-03  0.1281E-04 -0.1136E+07
   -2.000002   30.65070  0.7154E-14  0.0000E+00  0.0000E+00  0.0000E+00  0.2340E-04  0.0000E+00
