 1 - depth, m
 2 - temperature, C
 3 - salinity, kg/kg
 4 - turbulent kinetic energy, m**2/s**2
 5 - dissipation rate, m**2/s**3
 6 - kinematic heat conductance, m**2/s
 7 - modulus of horizontal velocity, m/s
 8 - Richardson number, n/d
   -0.000000   30.25349  0.1347E-13  0.5431E-05  0.3152E-06  0.5223E-04  0.3303E-02  0.6301E+03
   -0.049997   30.28531  0.1347E-13  0.8807E-05  0.1370E-06  0.2013E-03  0.1791E-02  0.5696E+03
   -0.099994   30.29508  0.1347E-13  0.1038E-04  0.9702E-07  0.3868E-03  0.1401E-02  0.4963E+01
   -0.149992   30.29858  0.1347E-13  0.1141E-04  0.8162E-07  0.4831E-03  0.1247E-02  0.2559E+01
   -0.199991   30.30126  0.1347E-13  0.1222E-04  0.7260E-07  0.6229E-03  0.1126E-02  0.1698E+01
   -0.249989   30.30327  0.1347E-13  0.1287E-04  0.6667E-07  0.7329E-03  0.1033E-02  0.1328E+01
   -0.299989   30.30493  0.1347E-13  0.1342E-04  0.6231E-07  0.8400E-03  0.9537E-03  0.1251E+01
   -0.349988   30.30634  0.1347E-13  0.1392E-04  0.5879E-07  0.9594E-03  0.8794E-03  0.1314E+01
   -0.399988   30.30754  0.1347E-13  0.1438E-04  0.5584E-07  0.1088E-02  0.8071E-03  0.1339E+01
   -0.449988   30.30857  0.1347E-13  0.1479E-04  0.5335E-07  0.1213E-02  0.7400E-03  0.1350E+01
   -0.499988   30.30947  0.1347E-13  0.1515E-04  0.5125E-07  0.1331E-02  0.6794E-03  0.1357E+01
   -0.549989   30.31028  0.1347E-13  0.1546E-04  0.4949E-07  0.1439E-02  0.6249E-03  0.1353E+01
   -0.599990   30.31101  0.1347E-13  0.1572E-04  0.4802E-07  0.1536E-02  0.5759E-03  0.1345E+01
   -0.649991   30.31168  0.1347E-13  0.1593E-04  0.4678E-07  0.1622E-02  0.5318E-03  0.1331E+01
   -0.699992   30.31231  0.1347E-13  0.1609E-04  0.4575E-07  0.1695E-02  0.4922E-03  0.1314E+01
   -0.749993   30.31290  0.1347E-13  0.1621E-04  0.4491E-07  0.1754E-02  0.4564E-03  0.1292E+01
   -0.799995   30.31346  0.1347E-13  0.1630E-04  0.4423E-07  0.1801E-02  0.4243E-03  0.1267E+01
   -0.849996   30.31399  0.1347E-13  0.1635E-04  0.4369E-07  0.1834E-02  0.3953E-03  0.1238E+01
   -0.899998   30.31451  0.1347E-13  0.1637E-04  0.4330E-07  0.1855E-02  0.3692E-03  0.1207E+01
   -0.950000   30.31502  0.1347E-13  0.1636E-04  0.4302E-07  0.1864E-02  0.3458E-03  0.1172E+01
   -1.000001   30.31551  0.1347E-13  0.1633E-04  0.4287E-07  0.1863E-02  0.3247E-03  0.1148E+01
   -1.050003   30.31600  0.1347E-13  0.1628E-04  0.4282E-07  0.1849E-02  0.3056E-03  0.1170E+01
   -1.100005   30.31648  0.1347E-13  0.1620E-04  0.4289E-07  0.1986E-02  0.2884E-03  0.3419E+01
   -1.150007   30.31693  0.1347E-13  0.1610E-04  0.4309E-07  0.1690E-02  0.2741E-03  0.8607E+01
   -1.200008   30.31745  0.1347E-13  0.1599E-04  0.4341E-07  0.1759E-02  0.2583E-03  0.1564E+01
   -1.250010   30.31794  0.1347E-13  0.1584E-04  0.4391E-07  0.1724E-02  0.2436E-03  0.1651E+01
   -1.300011   30.31843  0.1347E-13  0.1566E-04  0.4463E-07  0.1664E-02  0.2293E-03  0.1935E+01
   -1.350012   30.31894  0.1347E-13  0.1545E-04  0.4563E-07  0.1595E-02  0.2155E-03  0.2330E+01
   -1.400013   30.31946  0.1347E-13  0.1520E-04  0.4701E-07  0.1507E-02  0.2019E-03  0.2902E+01
   -1.450014   30.32001  0.1347E-13  0.1491E-04  0.4894E-07  0.1420E-02  0.1885E-03  0.3751E+01
   -1.500015   30.32059  0.1347E-13  0.1456E-04  0.5166E-07  0.1300E-02  0.1753E-03  0.5199E+01
   -1.550015   30.32123  0.1347E-13  0.1414E-04  0.5564E-07  0.1211E-02  0.1619E-03  0.7933E+01
   -1.600015   30.32193  0.1347E-13  0.1362E-04  0.6193E-07  0.1066E-02  0.1486E-03  0.1907E+04
   -1.650015   30.32280  0.1347E-13  0.1295E-04  0.7197E-07  0.9769E-03  0.1341E-03  0.4445E+03
   -1.700014   30.32386  0.1347E-13  0.1203E-04  0.8949E-07  0.7982E-03  0.1191E-03  0.9541E+04
   -1.750013   30.32565  0.1347E-13  0.1088E-04  0.1176E-06  0.7090E-03  0.9970E-04  0.1107E+05
   -1.800012   30.32694  0.1347E-13  0.9395E-05  0.1829E-06  0.4861E-03  0.8541E-04  0.1745E+05
   -1.850011   30.33365  0.1347E-13  0.7873E-05  0.3007E-06  0.4545E-03  0.5875E-04  0.2246E+08
   -1.900008   30.33128  0.1347E-13  0.6190E-05  0.6307E-06  0.2160E-03  0.4836E-04  0.9765E+05
   -1.950006   30.34930  0.1347E-13  0.4365E-05  0.1529E-05  0.2065E-03  0.2517E-04 -0.8625E+05
   -2.000003   30.35020  0.1347E-13  0.0000E+00  0.0000E+00  0.0000E+00  0.5166E-04  0.0000E+00
