 1 - depth, m
 2 - temperature, C
 3 - salinity, kg/kg
 4 - turbulent kinetic energy, m**2/s**2
 5 - dissipation rate, m**2/s**3
 6 - kinematic heat conductance, m**2/s
 7 - modulus of horizontal velocity, m/s
 8 - Richardson number, n/d
   -0.000000   30.44232  0.7148E-14  0.4861E-05  0.3040E-06  0.5083E-04  0.1448E-02  0.8043E+04
   -0.049997   30.47303  0.7148E-14  0.8331E-05  0.1357E-06  0.1770E-03  0.8285E-03  0.5275E+04
   -0.099994   30.48499  0.7148E-14  0.1011E-04  0.9335E-07  0.3999E-03  0.6066E-03  0.2260E+02
   -0.149992   30.48829  0.7148E-14  0.1123E-04  0.7831E-07  0.4801E-03  0.5358E-03  0.1106E+02
   -0.199991   30.49091  0.7148E-14  0.1209E-04  0.6949E-07  0.6426E-03  0.4784E-03  0.7084E+01
   -0.249989   30.49282  0.7148E-14  0.1278E-04  0.6372E-07  0.7683E-03  0.4355E-03  0.5224E+01
   -0.299988   30.49436  0.7148E-14  0.1334E-04  0.5960E-07  0.8937E-03  0.3999E-03  0.4151E+01
   -0.349988   30.49566  0.7148E-14  0.1380E-04  0.5651E-07  0.1007E-02  0.3693E-03  0.3545E+01
   -0.399988   30.49678  0.7148E-14  0.1419E-04  0.5410E-07  0.1111E-02  0.3423E-03  0.3156E+01
   -0.449988   30.49778  0.7148E-14  0.1452E-04  0.5214E-07  0.1208E-02  0.3185E-03  0.2960E+01
   -0.499988   30.49867  0.7148E-14  0.1481E-04  0.5051E-07  0.1296E-02  0.2975E-03  0.2877E+01
   -0.549989   30.49949  0.7148E-14  0.1506E-04  0.4915E-07  0.1377E-02  0.2787E-03  0.2836E+01
   -0.599990   30.50025  0.7148E-14  0.1527E-04  0.4800E-07  0.1451E-02  0.2617E-03  0.2834E+01
   -0.649991   30.50095  0.7148E-14  0.1545E-04  0.4702E-07  0.1517E-02  0.2461E-03  0.2866E+01
   -0.699992   30.50162  0.7148E-14  0.1561E-04  0.4619E-07  0.1575E-02  0.2318E-03  0.2927E+01
   -0.749993   30.50225  0.7148E-14  0.1573E-04  0.4549E-07  0.1626E-02  0.2187E-03  0.3019E+01
   -0.799995   30.50285  0.7148E-14  0.1584E-04  0.4491E-07  0.1669E-02  0.2064E-03  0.3140E+01
   -0.849996   30.50344  0.7148E-14  0.1592E-04  0.4443E-07  0.1705E-02  0.1949E-03  0.3297E+01
   -0.899998   30.50400  0.7148E-14  0.1597E-04  0.4405E-07  0.1732E-02  0.1842E-03  0.3489E+01
   -0.949999   30.50454  0.7148E-14  0.1601E-04  0.4378E-07  0.1751E-02  0.1741E-03  0.3730E+01
   -1.000001   30.50508  0.7148E-14  0.1602E-04  0.4360E-07  0.1762E-02  0.1645E-03  0.4018E+01
   -1.050003   30.50560  0.7148E-14  0.1601E-04  0.4353E-07  0.1764E-02  0.1554E-03  0.4545E+01
   -1.100005   30.50612  0.7148E-14  0.1598E-04  0.4357E-07  0.1851E-02  0.1467E-03  0.1505E+02
   -1.150006   30.50661  0.7148E-14  0.1593E-04  0.4374E-07  0.1680E-02  0.1390E-03  0.3403E+02
   -1.200008   30.50715  0.7148E-14  0.1585E-04  0.4404E-07  0.1706E-02  0.1309E-03  0.6532E+01
   -1.250009   30.50768  0.7148E-14  0.1575E-04  0.4451E-07  0.1676E-02  0.1232E-03  0.6935E+01
   -1.300011   30.50821  0.7148E-14  0.1561E-04  0.4519E-07  0.1627E-02  0.1158E-03  0.8099E+01
   -1.350012   30.50875  0.7148E-14  0.1545E-04  0.4613E-07  0.1568E-02  0.1087E-03  0.9666E+01
   -1.400013   30.50931  0.7148E-14  0.1525E-04  0.4741E-07  0.1491E-02  0.1017E-03  0.1191E+02
   -1.450014   30.50990  0.7148E-14  0.1501E-04  0.4916E-07  0.1415E-02  0.9481E-04  0.1514E+02
   -1.500014   30.51052  0.7148E-14  0.1472E-04  0.5161E-07  0.1302E-02  0.8808E-04  0.2054E+02
   -1.550015   30.51120  0.7148E-14  0.1436E-04  0.5508E-07  0.1220E-02  0.8130E-04  0.2925E+02
   -1.600015   30.51193  0.7148E-14  0.1392E-04  0.6048E-07  0.1072E-02  0.7469E-04  0.5960E+02
   -1.650014   30.51283  0.7148E-14  0.1335E-04  0.6881E-07  0.9948E-03  0.6749E-04  0.1689E+03
   -1.700014   30.51382  0.7148E-14  0.1258E-04  0.8363E-07  0.8101E-03  0.6060E-04  0.2477E+04
   -1.750013   30.51559  0.7148E-14  0.1156E-04  0.1082E-06  0.7324E-03  0.5133E-04  0.1251E+06
   -1.800012   30.51706  0.7148E-14  0.1020E-04  0.1595E-06  0.5122E-03  0.4413E-04  0.4511E+06
   -1.850010   30.52293  0.7148E-14  0.8656E-05  0.2571E-06  0.4650E-03  0.3170E-04  0.3557E+08
   -1.900008   30.52192  0.7148E-14  0.6824E-05  0.5407E-06  0.2139E-03  0.2573E-04 -0.1697E+06
   -1.950005   30.54025  0.7148E-14  0.4772E-05  0.1348E-05  0.1885E-03  0.1382E-04 -0.3599E+06
   -2.000002   30.54248  0.7148E-14  0.0000E+00  0.0000E+00  0.0000E+00  0.2545E-04  0.0000E+00
