 1 - depth, m
 2 - temperature, C
 3 - salinity, kg/kg
 4 - turbulent kinetic energy, m**2/s**2
 5 - dissipation rate, m**2/s**3
 6 - kinematic heat conductance, m**2/s
 7 - modulus of horizontal velocity, m/s
 8 - Richardson number, n/d
   -0.000000   29.81754  0.9786E-13  0.4536E-05  0.2737E-06  0.4886E-04  0.8863E-03  0.2544E+05
   -0.049997   29.84740  0.9786E-13  0.7902E-05  0.1216E-06  0.1729E-03  0.5051E-03  0.3798E+02
   -0.099994   29.85887  0.9786E-13  0.9574E-05  0.8379E-07  0.3996E-03  0.3657E-03  0.7110E+02
   -0.149992   29.86195  0.9786E-13  0.1060E-04  0.7067E-07  0.4740E-03  0.3234E-03  0.3449E+02
   -0.199991   29.86445  0.9786E-13  0.1140E-04  0.6288E-07  0.6314E-03  0.2886E-03  0.2243E+02
   -0.249989   29.86626  0.9786E-13  0.1203E-04  0.5772E-07  0.7536E-03  0.2625E-03  0.1666E+02
   -0.299989   29.86773  0.9786E-13  0.1255E-04  0.5401E-07  0.8742E-03  0.2408E-03  0.1327E+02
   -0.349988   29.86897  0.9786E-13  0.1297E-04  0.5121E-07  0.9838E-03  0.2221E-03  0.1139E+02
   -0.399988   29.87003  0.9786E-13  0.1333E-04  0.4902E-07  0.1084E-02  0.2057E-03  0.1013E+02
   -0.449988   29.87098  0.9786E-13  0.1363E-04  0.4722E-07  0.1177E-02  0.1911E-03  0.9539E+01
   -0.499988   29.87183  0.9786E-13  0.1389E-04  0.4573E-07  0.1262E-02  0.1783E-03  0.9259E+01
   -0.549989   29.87261  0.9786E-13  0.1412E-04  0.4447E-07  0.1341E-02  0.1668E-03  0.9159E+01
   -0.599990   29.87333  0.9786E-13  0.1431E-04  0.4339E-07  0.1412E-02  0.1564E-03  0.9134E+01
   -0.649991   29.87400  0.9786E-13  0.1447E-04  0.4248E-07  0.1475E-02  0.1469E-03  0.9270E+01
   -0.699992   29.87463  0.9786E-13  0.1461E-04  0.4169E-07  0.1532E-02  0.1382E-03  0.9442E+01
   -0.749993   29.87523  0.9786E-13  0.1472E-04  0.4103E-07  0.1582E-02  0.1302E-03  0.9773E+01
   -0.799995   29.87580  0.9786E-13  0.1481E-04  0.4046E-07  0.1624E-02  0.1228E-03  0.1014E+02
   -0.849996   29.87634  0.9786E-13  0.1488E-04  0.3999E-07  0.1658E-02  0.1158E-03  0.1068E+02
   -0.899998   29.87687  0.9786E-13  0.1493E-04  0.3962E-07  0.1685E-02  0.1093E-03  0.1126E+02
   -0.950000   29.87738  0.9786E-13  0.1496E-04  0.3933E-07  0.1705E-02  0.1031E-03  0.1207E+02
   -1.000001   29.87788  0.9786E-13  0.1496E-04  0.3913E-07  0.1716E-02  0.9730E-04  0.1295E+02
   -1.050003   29.87838  0.9786E-13  0.1495E-04  0.3902E-07  0.1719E-02  0.9179E-04  0.1469E+02
   -1.100005   29.87886  0.9786E-13  0.1492E-04  0.3901E-07  0.1798E-02  0.8656E-04  0.4884E+02
   -1.150007   29.87932  0.9786E-13  0.1487E-04  0.3911E-07  0.1648E-02  0.8187E-04  0.1079E+03
   -1.200008   29.87982  0.9786E-13  0.1479E-04  0.3932E-07  0.1668E-02  0.7705E-04  0.2095E+02
   -1.250010   29.88030  0.9786E-13  0.1470E-04  0.3968E-07  0.1640E-02  0.7245E-04  0.2217E+02
   -1.300011   29.88079  0.9786E-13  0.1458E-04  0.4021E-07  0.1595E-02  0.6801E-04  0.2586E+02
   -1.350012   29.88129  0.9786E-13  0.1443E-04  0.4096E-07  0.1539E-02  0.6372E-04  0.3065E+02
   -1.400013   29.88180  0.9786E-13  0.1424E-04  0.4200E-07  0.1468E-02  0.5954E-04  0.3758E+02
   -1.450014   29.88234  0.9786E-13  0.1403E-04  0.4342E-07  0.1393E-02  0.5547E-04  0.4727E+02
   -1.500015   29.88290  0.9786E-13  0.1376E-04  0.4539E-07  0.1288E-02  0.5146E-04  0.6313E+02
   -1.550015   29.88351  0.9786E-13  0.1344E-04  0.4819E-07  0.1202E-02  0.4747E-04  0.8790E+02
   -1.600015   29.88417  0.9786E-13  0.1305E-04  0.5239E-07  0.1065E-02  0.4355E-04  0.1450E+03
   -1.650015   29.88493  0.9786E-13  0.1256E-04  0.5884E-07  0.9846E-03  0.3946E-04  0.6045E+03
   -1.700014   29.88579  0.9786E-13  0.1190E-04  0.7058E-07  0.8105E-03  0.3546E-04  0.1772E+05
   -1.750014   29.88724  0.9786E-13  0.1098E-04  0.9018E-07  0.7263E-03  0.3027E-04  0.3025E+07
   -1.800012   29.88860  0.9786E-13  0.9705E-05  0.1331E-06  0.5093E-03  0.2596E-04  0.5508E+05
   -1.850011   29.89341  0.9786E-13  0.8244E-05  0.2100E-06  0.4617E-03  0.1879E-04  0.1057E+08
   -1.900009   29.89293  0.9786E-13  0.6487E-05  0.4362E-06  0.2069E-03  0.1517E-04  0.3250E+06
   -1.950006   29.90888  0.9786E-13  0.4484E-05  0.1108E-05  0.1758E-03  0.8144E-05 -0.1463E+07
   -2.000003   29.91092  0.9786E-13  0.0000E+00  0.0000E+00  0.0000E+00  0.1469E-04  0.0000E+00
