 1 - depth, m
 2 - temperature, C
 3 - salinity, kg/kg
 4 - turbulent kinetic energy, m**2/s**2
 5 - dissipation rate, m**2/s**3
 6 - kinematic heat conductance, m**2/s
 7 - modulus of horizontal velocity, m/s
 8 - Richardson number, n/d
   -0.000000   30.29775  0.6400E-13  0.4603E-05  0.2770E-06  0.4920E-04  0.1689E-02  0.5171E+04
   -0.049997   30.32620  0.6400E-13  0.7857E-05  0.1234E-06  0.1730E-03  0.9629E-03  0.3029E+04
   -0.099994   30.33715  0.6400E-13  0.9527E-05  0.8484E-07  0.3903E-03  0.7035E-03  0.1806E+02
   -0.149992   30.34018  0.6400E-13  0.1057E-04  0.7122E-07  0.4707E-03  0.6208E-03  0.8788E+01
   -0.199991   30.34260  0.6400E-13  0.1139E-04  0.6324E-07  0.6278E-03  0.5539E-03  0.5649E+01
   -0.249989   30.34436  0.6400E-13  0.1204E-04  0.5802E-07  0.7508E-03  0.5038E-03  0.4152E+01
   -0.299988   30.34580  0.6400E-13  0.1257E-04  0.5430E-07  0.8729E-03  0.4622E-03  0.3311E+01
   -0.349988   30.34700  0.6400E-13  0.1301E-04  0.5152E-07  0.9838E-03  0.4265E-03  0.2820E+01
   -0.399988   30.34804  0.6400E-13  0.1338E-04  0.4935E-07  0.1085E-02  0.3949E-03  0.2521E+01
   -0.449988   30.34897  0.6400E-13  0.1370E-04  0.4760E-07  0.1180E-02  0.3672E-03  0.2356E+01
   -0.499988   30.34980  0.6400E-13  0.1398E-04  0.4615E-07  0.1266E-02  0.3426E-03  0.2301E+01
   -0.549989   30.35056  0.6400E-13  0.1422E-04  0.4494E-07  0.1346E-02  0.3207E-03  0.2259E+01
   -0.599990   30.35127  0.6400E-13  0.1443E-04  0.4393E-07  0.1418E-02  0.3008E-03  0.2272E+01
   -0.649991   30.35193  0.6400E-13  0.1461E-04  0.4308E-07  0.1483E-02  0.2827E-03  0.2288E+01
   -0.699992   30.35255  0.6400E-13  0.1477E-04  0.4236E-07  0.1540E-02  0.2661E-03  0.2354E+01
   -0.749993   30.35314  0.6400E-13  0.1490E-04  0.4177E-07  0.1590E-02  0.2508E-03  0.2418E+01
   -0.799995   30.35371  0.6400E-13  0.1501E-04  0.4128E-07  0.1633E-02  0.2365E-03  0.2536E+01
   -0.849996   30.35425  0.6400E-13  0.1509E-04  0.4089E-07  0.1668E-02  0.2232E-03  0.2652E+01
   -0.899998   30.35478  0.6400E-13  0.1516E-04  0.4060E-07  0.1695E-02  0.2107E-03  0.2831E+01
   -0.950000   30.35530  0.6400E-13  0.1521E-04  0.4040E-07  0.1714E-02  0.1990E-03  0.3014E+01
   -1.000001   30.35580  0.6400E-13  0.1523E-04  0.4029E-07  0.1726E-02  0.1879E-03  0.3276E+01
   -1.050003   30.35630  0.6400E-13  0.1524E-04  0.4028E-07  0.1728E-02  0.1774E-03  0.3695E+01
   -1.100005   30.35680  0.6400E-13  0.1522E-04  0.4037E-07  0.1808E-02  0.1673E-03  0.1240E+02
   -1.150006   30.35727  0.6400E-13  0.1519E-04  0.4059E-07  0.1655E-02  0.1584E-03  0.2764E+02
   -1.200008   30.35778  0.6400E-13  0.1513E-04  0.4092E-07  0.1675E-02  0.1491E-03  0.5320E+01
   -1.250009   30.35829  0.6400E-13  0.1505E-04  0.4142E-07  0.1646E-02  0.1403E-03  0.5717E+01
   -1.300011   30.35880  0.6400E-13  0.1494E-04  0.4210E-07  0.1599E-02  0.1317E-03  0.6632E+01
   -1.350012   30.35932  0.6400E-13  0.1480E-04  0.4302E-07  0.1542E-02  0.1235E-03  0.7987E+01
   -1.400013   30.35986  0.6400E-13  0.1463E-04  0.4425E-07  0.1468E-02  0.1154E-03  0.9761E+01
   -1.450014   30.36044  0.6400E-13  0.1442E-04  0.4591E-07  0.1393E-02  0.1076E-03  0.1248E+02
   -1.500014   30.36104  0.6400E-13  0.1416E-04  0.4818E-07  0.1284E-02  0.9984E-04  0.1670E+02
   -1.550015   30.36170  0.6400E-13  0.1384E-04  0.5137E-07  0.1202E-02  0.9209E-04  0.2363E+02
   -1.600015   30.36241  0.6400E-13  0.1345E-04  0.5618E-07  0.1058E-02  0.8453E-04  0.4107E+02
   -1.650015   30.36326  0.6400E-13  0.1294E-04  0.6353E-07  0.9846E-03  0.7645E-04  0.1723E+03
   -1.700014   30.36421  0.6400E-13  0.1225E-04  0.7681E-07  0.8021E-03  0.6871E-04  0.1751E+04
   -1.750013   30.36588  0.6400E-13  0.1130E-04  0.9884E-07  0.7246E-03  0.5838E-04  0.4386E+05
   -1.800012   30.36739  0.6400E-13  0.9997E-05  0.1437E-06  0.5080E-03  0.5011E-04  0.9526E+05
   -1.850010   30.37277  0.6400E-13  0.8492E-05  0.2293E-06  0.4606E-03  0.3620E-04  0.1326E+08
   -1.900008   30.37232  0.6400E-13  0.6722E-05  0.4841E-06  0.2107E-03  0.2920E-04 -0.4809E+05
   -1.950006   30.39029  0.6400E-13  0.4685E-05  0.1227E-05  0.1794E-03  0.1583E-04 -0.5373E+06
   -2.000003   30.39309  0.6400E-13  0.0000E+00  0.0000E+00  0.0000E+00  0.2838E-04  0.0000E+00
