 1 - depth, m
 2 - temperature, C
 3 - salinity, kg/kg
 4 - turbulent kinetic energy, m**2/s**2
 5 - dissipation rate, m**2/s**3
 6 - kinematic heat conductance, m**2/s
 7 - modulus of horizontal velocity, m/s
 8 - Richardson number, n/d
   -0.000000   30.41669  0.6543E-13  0.4863E-05  0.3002E-06  0.4898E-04  0.1261E-02  0.2148E+04
   -0.049997   30.44909  0.6543E-13  0.8371E-05  0.1338E-06  0.1830E-03  0.7093E-03  0.1040E+03
   -0.099994   30.46068  0.6543E-13  0.1011E-04  0.9278E-07  0.3975E-03  0.5250E-03  0.3119E+02
   -0.149992   30.46403  0.6543E-13  0.1121E-04  0.7793E-07  0.4825E-03  0.4637E-03  0.1534E+02
   -0.199991   30.46667  0.6543E-13  0.1206E-04  0.6917E-07  0.6414E-03  0.4143E-03  0.9845E+01
   -0.249989   30.46859  0.6543E-13  0.1273E-04  0.6341E-07  0.7658E-03  0.3773E-03  0.7260E+01
   -0.299988   30.47015  0.6543E-13  0.1327E-04  0.5927E-07  0.8898E-03  0.3464E-03  0.5770E+01
   -0.349988   30.47146  0.6543E-13  0.1372E-04  0.5616E-07  0.1002E-02  0.3199E-03  0.4922E+01
   -0.399988   30.47259  0.6543E-13  0.1410E-04  0.5372E-07  0.1105E-02  0.2965E-03  0.4382E+01
   -0.449988   30.47359  0.6543E-13  0.1442E-04  0.5172E-07  0.1200E-02  0.2759E-03  0.4106E+01
   -0.499988   30.47449  0.6543E-13  0.1469E-04  0.5006E-07  0.1287E-02  0.2576E-03  0.3992E+01
   -0.549989   30.47531  0.6543E-13  0.1493E-04  0.4866E-07  0.1367E-02  0.2413E-03  0.3929E+01
   -0.599990   30.47607  0.6543E-13  0.1513E-04  0.4747E-07  0.1439E-02  0.2265E-03  0.3927E+01
   -0.649991   30.47677  0.6543E-13  0.1530E-04  0.4645E-07  0.1504E-02  0.2130E-03  0.3963E+01
   -0.699992   30.47744  0.6543E-13  0.1544E-04  0.4557E-07  0.1562E-02  0.2006E-03  0.4048E+01
   -0.749993   30.47807  0.6543E-13  0.1555E-04  0.4483E-07  0.1612E-02  0.1892E-03  0.4166E+01
   -0.799995   30.47867  0.6543E-13  0.1564E-04  0.4419E-07  0.1654E-02  0.1785E-03  0.4333E+01
   -0.849996   30.47924  0.6543E-13  0.1570E-04  0.4367E-07  0.1689E-02  0.1685E-03  0.4539E+01
   -0.899998   30.47980  0.6543E-13  0.1575E-04  0.4324E-07  0.1716E-02  0.1592E-03  0.4802E+01
   -0.949999   30.48034  0.6543E-13  0.1577E-04  0.4291E-07  0.1735E-02  0.1504E-03  0.5120E+01
   -1.000001   30.48087  0.6543E-13  0.1577E-04  0.4268E-07  0.1746E-02  0.1421E-03  0.5514E+01
   -1.050003   30.48139  0.6543E-13  0.1575E-04  0.4255E-07  0.1747E-02  0.1342E-03  0.6218E+01
   -1.100005   30.48190  0.6543E-13  0.1571E-04  0.4253E-07  0.1835E-02  0.1266E-03  0.2055E+02
   -1.150006   30.48238  0.6543E-13  0.1564E-04  0.4264E-07  0.1662E-02  0.1199E-03  0.4669E+02
   -1.200008   30.48290  0.6543E-13  0.1556E-04  0.4287E-07  0.1690E-02  0.1130E-03  0.8913E+01
   -1.250009   30.48342  0.6543E-13  0.1544E-04  0.4326E-07  0.1660E-02  0.1063E-03  0.9449E+01
   -1.300011   30.48393  0.6543E-13  0.1530E-04  0.4386E-07  0.1611E-02  0.9988E-04  0.1101E+02
   -1.350012   30.48446  0.6543E-13  0.1513E-04  0.4470E-07  0.1553E-02  0.9367E-04  0.1313E+02
   -1.400013   30.48500  0.6543E-13  0.1492E-04  0.4587E-07  0.1476E-02  0.8761E-04  0.1615E+02
   -1.450014   30.48556  0.6543E-13  0.1467E-04  0.4749E-07  0.1400E-02  0.8167E-04  0.2049E+02
   -1.500014   30.48616  0.6543E-13  0.1438E-04  0.4977E-07  0.1288E-02  0.7584E-04  0.2766E+02
   -1.550015   30.48681  0.6543E-13  0.1402E-04  0.5303E-07  0.1205E-02  0.6999E-04  0.3916E+02
   -1.600015   30.48751  0.6543E-13  0.1357E-04  0.5805E-07  0.1061E-02  0.6426E-04  0.6958E+02
   -1.650014   30.48834  0.6543E-13  0.1301E-04  0.6589E-07  0.9869E-03  0.5813E-04  0.3592E+04
   -1.700014   30.48929  0.6543E-13  0.1224E-04  0.8017E-07  0.8039E-03  0.5216E-04 -0.1758E+05
   -1.750013   30.49095  0.6543E-13  0.1121E-04  0.1037E-06  0.7247E-03  0.4414E-04  0.2275E+06
   -1.800012   30.49237  0.6543E-13  0.9809E-05  0.1540E-06  0.5010E-03  0.3787E-04  0.7735E+05
   -1.850010   30.49812  0.6543E-13  0.8276E-05  0.2473E-06  0.4639E-03  0.2688E-04  0.2578E+07
   -1.900008   30.49693  0.6543E-13  0.6540E-05  0.5138E-06  0.2127E-03  0.2191E-04 -0.6812E+05
   -1.950005   30.51458  0.6543E-13  0.4575E-05  0.1294E-05  0.1885E-03  0.1171E-04 -0.5048E+06
   -2.000002   30.51566  0.6543E-13  0.0000E+00  0.0000E+00  0.0000E+00  0.2188E-04  0.0000E+00
