 1 - depth, m
 2 - temperature, C
 3 - salinity, kg/kg
 4 - turbulent kinetic energy, m**2/s**2
 5 - dissipation rate, m**2/s**3
 6 - kinematic heat conductance, m**2/s
 7 - modulus of horizontal velocity, m/s
 8 - Richardson number, n/d
   -0.000000   29.34820  0.1710E-13  0.5128E-05  0.2774E-06  0.5010E-04  0.3536E-02  0.5311E+03
   -0.049997   29.37760  0.1710E-13  0.8227E-05  0.1203E-06  0.1991E-03  0.1896E-02  0.1248E+02
   -0.099994   29.38627  0.1710E-13  0.9644E-05  0.8587E-07  0.3746E-03  0.1497E-02  0.4305E+01
   -0.149992   29.38951  0.1710E-13  0.1058E-04  0.7249E-07  0.4705E-03  0.1334E-02  0.2237E+01
   -0.199991   29.39198  0.1710E-13  0.1133E-04  0.6466E-07  0.5988E-03  0.1207E-02  0.1523E+01
   -0.249990   29.39386  0.1710E-13  0.1194E-04  0.5946E-07  0.7026E-03  0.1108E-02  0.1280E+01
   -0.299989   29.39543  0.1710E-13  0.1248E-04  0.5554E-07  0.8127E-03  0.1021E-02  0.1298E+01
   -0.349988   29.39674  0.1710E-13  0.1298E-04  0.5234E-07  0.9392E-03  0.9370E-03  0.1380E+01
   -0.399988   29.39785  0.1710E-13  0.1344E-04  0.4966E-07  0.1072E-02  0.8552E-03  0.1405E+01
   -0.449988   29.39880  0.1710E-13  0.1386E-04  0.4742E-07  0.1201E-02  0.7796E-03  0.1411E+01
   -0.499988   29.39963  0.1710E-13  0.1422E-04  0.4556E-07  0.1322E-02  0.7117E-03  0.1413E+01
   -0.549989   29.40037  0.1710E-13  0.1453E-04  0.4400E-07  0.1433E-02  0.6510E-03  0.1405E+01
   -0.599990   29.40104  0.1710E-13  0.1479E-04  0.4272E-07  0.1532E-02  0.5968E-03  0.1392E+01
   -0.649991   29.40166  0.1710E-13  0.1500E-04  0.4165E-07  0.1619E-02  0.5483E-03  0.1375E+01
   -0.699992   29.40223  0.1710E-13  0.1517E-04  0.4078E-07  0.1693E-02  0.5050E-03  0.1354E+01
   -0.749994   29.40278  0.1710E-13  0.1529E-04  0.4008E-07  0.1752E-02  0.4661E-03  0.1329E+01
   -0.799995   29.40329  0.1710E-13  0.1538E-04  0.3952E-07  0.1798E-02  0.4313E-03  0.1301E+01
   -0.849997   29.40378  0.1710E-13  0.1543E-04  0.3910E-07  0.1830E-02  0.4001E-03  0.1269E+01
   -0.899998   29.40426  0.1710E-13  0.1546E-04  0.3880E-07  0.1849E-02  0.3722E-03  0.1236E+01
   -0.950000   29.40473  0.1710E-13  0.1546E-04  0.3861E-07  0.1856E-02  0.3472E-03  0.1198E+01
   -1.000002   29.40519  0.1710E-13  0.1543E-04  0.3853E-07  0.1852E-02  0.3248E-03  0.1161E+01
   -1.050004   29.40565  0.1710E-13  0.1538E-04  0.3855E-07  0.1835E-02  0.3047E-03  0.1151E+01
   -1.100005   29.40610  0.1710E-13  0.1532E-04  0.3866E-07  0.1972E-02  0.2868E-03  0.3179E+01
   -1.150007   29.40652  0.1710E-13  0.1523E-04  0.3889E-07  0.1677E-02  0.2725E-03  0.7959E+01
   -1.200009   29.40700  0.1710E-13  0.1513E-04  0.3923E-07  0.1746E-02  0.2567E-03  0.1457E+01
   -1.250010   29.40746  0.1710E-13  0.1500E-04  0.3973E-07  0.1710E-02  0.2419E-03  0.1538E+01
   -1.300011   29.40793  0.1710E-13  0.1484E-04  0.4042E-07  0.1651E-02  0.2277E-03  0.1806E+01
   -1.350013   29.40841  0.1710E-13  0.1465E-04  0.4135E-07  0.1582E-02  0.2138E-03  0.2175E+01
   -1.400014   29.40890  0.1710E-13  0.1443E-04  0.4263E-07  0.1495E-02  0.2003E-03  0.2712E+01
   -1.450015   29.40942  0.1710E-13  0.1416E-04  0.4437E-07  0.1408E-02  0.1869E-03  0.3497E+01
   -1.500015   29.40998  0.1710E-13  0.1384E-04  0.4682E-07  0.1289E-02  0.1737E-03  0.4834E+01
   -1.550016   29.41059  0.1710E-13  0.1346E-04  0.5032E-07  0.1199E-02  0.1603E-03  0.7067E+01
   -1.600016   29.41125  0.1710E-13  0.1300E-04  0.5574E-07  0.1056E-02  0.1472E-03  0.1479E+02
   -1.650015   29.41206  0.1710E-13  0.1239E-04  0.6444E-07  0.9684E-03  0.1330E-03  0.3833E+03
   -1.700015   29.41303  0.1710E-13  0.1155E-04  0.8012E-07  0.7894E-03  0.1184E-03 -0.1096E+04
   -1.750014   29.41475  0.1710E-13  0.1047E-04  0.1052E-06  0.7020E-03  0.9925E-04  0.3580E+05
   -1.800013   29.41611  0.1710E-13  0.9045E-05  0.1612E-06  0.4790E-03  0.8464E-04  0.1395E+05
   -1.850011   29.42238  0.1710E-13  0.7567E-05  0.2622E-06  0.4477E-03  0.5852E-04  0.1276E+09
   -1.900009   29.42026  0.1710E-13  0.5967E-05  0.5554E-06  0.2075E-03  0.4800E-04 -0.2010E+05
   -1.950007   29.43784  0.1710E-13  0.4195E-05  0.1358E-05  0.1986E-03  0.2516E-04 -0.1795E+06
   -2.000004   29.43802  0.1710E-13  0.0000E+00  0.0000E+00  0.0000E+00  0.5039E-04  0.0000E+00
