 1 - depth, m
 2 - temperature, C
 3 - salinity, kg/kg
 4 - turbulent kinetic energy, m**2/s**2
 5 - dissipation rate, m**2/s**3
 6 - kinematic heat conductance, m**2/s
 7 - modulus of horizontal velocity, m/s
 8 - Richardson number, n/d
   -0.000000   31.11678  0.1912E-13  0.5574E-05  0.3776E-06  0.5455E-04  0.1619E-02  0.8733E+04
   -0.049997   31.15227  0.1912E-13  0.9444E-05  0.1686E-06  0.1849E-03  0.9382E-03  0.2467E+04
   -0.099994   31.16639  0.1912E-13  0.1147E-04  0.1154E-06  0.4172E-03  0.6892E-03  0.2017E+02
   -0.149992   31.17024  0.1912E-13  0.1273E-04  0.9647E-07  0.4975E-03  0.6101E-03  0.9973E+01
   -0.199990   31.17332  0.1912E-13  0.1372E-04  0.8541E-07  0.6699E-03  0.5455E-03  0.6341E+01
   -0.249989   31.17554  0.1912E-13  0.1449E-04  0.7819E-07  0.8000E-03  0.4975E-03  0.4680E+01
   -0.299988   31.17734  0.1912E-13  0.1511E-04  0.7305E-07  0.9318E-03  0.4576E-03  0.3710E+01
   -0.349988   31.17884  0.1912E-13  0.1563E-04  0.6919E-07  0.1050E-02  0.4234E-03  0.3170E+01
   -0.399987   31.18014  0.1912E-13  0.1606E-04  0.6618E-07  0.1158E-02  0.3932E-03  0.2816E+01
   -0.449987   31.18129  0.1912E-13  0.1642E-04  0.6373E-07  0.1258E-02  0.3666E-03  0.2644E+01
   -0.499988   31.18233  0.1912E-13  0.1673E-04  0.6169E-07  0.1349E-02  0.3431E-03  0.2564E+01
   -0.549988   31.18327  0.1912E-13  0.1700E-04  0.5999E-07  0.1432E-02  0.3219E-03  0.2532E+01
   -0.599989   31.18415  0.1912E-13  0.1722E-04  0.5854E-07  0.1507E-02  0.3028E-03  0.2525E+01
   -0.649990   31.18497  0.1912E-13  0.1741E-04  0.5731E-07  0.1574E-02  0.2853E-03  0.2559E+01
   -0.699991   31.18574  0.1912E-13  0.1756E-04  0.5626E-07  0.1632E-02  0.2692E-03  0.2609E+01
   -0.749992   31.18647  0.1912E-13  0.1768E-04  0.5537E-07  0.1682E-02  0.2543E-03  0.2700E+01
   -0.799994   31.18717  0.1912E-13  0.1777E-04  0.5463E-07  0.1723E-02  0.2405E-03  0.2805E+01
   -0.849995   31.18784  0.1912E-13  0.1783E-04  0.5402E-07  0.1756E-02  0.2275E-03  0.2958E+01
   -0.899997   31.18849  0.1912E-13  0.1787E-04  0.5355E-07  0.1780E-02  0.2153E-03  0.3130E+01
   -0.949999   31.18912  0.1912E-13  0.1788E-04  0.5320E-07  0.1794E-02  0.2037E-03  0.3365E+01
   -1.000000   31.18974  0.1912E-13  0.1786E-04  0.5298E-07  0.1800E-02  0.1928E-03  0.3630E+01
   -1.050002   31.19035  0.1912E-13  0.1782E-04  0.5290E-07  0.1793E-02  0.1824E-03  0.4127E+01
   -1.100004   31.19096  0.1912E-13  0.1775E-04  0.5296E-07  0.1916E-02  0.1725E-03  0.1311E+02
   -1.150005   31.19152  0.1912E-13  0.1765E-04  0.5322E-07  0.1651E-02  0.1638E-03  0.3404E+02
   -1.200007   31.19216  0.1912E-13  0.1752E-04  0.5366E-07  0.1705E-02  0.1543E-03  0.6184E+01
   -1.250008   31.19278  0.1912E-13  0.1735E-04  0.5434E-07  0.1671E-02  0.1453E-03  0.6575E+01
   -1.300010   31.19341  0.1912E-13  0.1715E-04  0.5532E-07  0.1608E-02  0.1367E-03  0.7846E+01
   -1.350011   31.19405  0.1912E-13  0.1691E-04  0.5672E-07  0.1542E-02  0.1284E-03  0.9571E+01
   -1.400012   31.19473  0.1912E-13  0.1661E-04  0.5867E-07  0.1444E-02  0.1202E-03  0.1230E+02
   -1.450012   31.19544  0.1912E-13  0.1626E-04  0.6142E-07  0.1369E-02  0.1120E-03  0.1625E+02
   -1.500013   31.19620  0.1912E-13  0.1584E-04  0.6542E-07  0.1233E-02  0.1040E-03  0.2402E+02
   -1.550013   31.19707  0.1912E-13  0.1532E-04  0.7126E-07  0.1173E-02  0.9573E-04  0.3806E+02
   -1.600013   31.19799  0.1912E-13  0.1466E-04  0.8128E-07  0.1005E-02  0.8782E-04 -0.1283E+03
   -1.650013   31.19938  0.1912E-13  0.1378E-04  0.9678E-07  0.9413E-03  0.7818E-04  0.6614E+03
   -1.700013   31.20077  0.1912E-13  0.1259E-04  0.1246E-06  0.7394E-03  0.6925E-04  0.3228E+04
   -1.750012   31.20394  0.1912E-13  0.1119E-04  0.1698E-06  0.6822E-03  0.5563E-04  0.3680E+06
   -1.800010   31.20514  0.1912E-13  0.9580E-05  0.2677E-06  0.4523E-03  0.4815E-04  0.4766E+05
   -1.850009   31.21681  0.1912E-13  0.8016E-05  0.4578E-06  0.4462E-03  0.3122E-04  0.4391E+09
   -1.900006   31.21039  0.1912E-13  0.6437E-05  0.9619E-06  0.2175E-03  0.2654E-04 -0.5482E+06
   -1.950004   31.23693  0.1912E-13  0.4663E-05  0.2243E-05  0.2397E-03  0.1353E-04 -0.3446E+06
   -2.000001   31.23595  0.1912E-13  0.0000E+00  0.0000E+00  0.0000E+00  0.3014E-04  0.0000E+00
