 1 - depth, m
 2 - temperature, C
 3 - salinity, kg/kg
 4 - turbulent kinetic energy, m**2/s**2
 5 - dissipation rate, m**2/s**3
 6 - kinematic heat conductance, m**2/s
 7 - modulus of horizontal velocity, m/s
 8 - Richardson number, n/d
   -0.000000   30.26637  0.3060E-13  0.4535E-05  0.2711E-06  0.4802E-04  0.1233E-02  0.5243E+04
   -0.049997   30.29541  0.3060E-13  0.7857E-05  0.1207E-06  0.1775E-03  0.6933E-03  0.3638E+04
   -0.099994   30.30605  0.3060E-13  0.9518E-05  0.8368E-07  0.3928E-03  0.5095E-03  0.3051E+02
   -0.149992   30.30907  0.3060E-13  0.1056E-04  0.7042E-07  0.4757E-03  0.4497E-03  0.1495E+02
   -0.199991   30.31145  0.3060E-13  0.1138E-04  0.6263E-07  0.6329E-03  0.4016E-03  0.9633E+01
   -0.249989   30.31320  0.3060E-13  0.1203E-04  0.5752E-07  0.7562E-03  0.3654E-03  0.7111E+01
   -0.299988   30.31462  0.3060E-13  0.1256E-04  0.5387E-07  0.8787E-03  0.3353E-03  0.5670E+01
   -0.349988   30.31581  0.3060E-13  0.1300E-04  0.5114E-07  0.9897E-03  0.3095E-03  0.4846E+01
   -0.399988   30.31684  0.3060E-13  0.1337E-04  0.4902E-07  0.1091E-02  0.2866E-03  0.4326E+01
   -0.449988   30.31776  0.3060E-13  0.1369E-04  0.4729E-07  0.1186E-02  0.2666E-03  0.4056E+01
   -0.499988   30.31859  0.3060E-13  0.1397E-04  0.4586E-07  0.1273E-02  0.2488E-03  0.3953E+01
   -0.549989   30.31935  0.3060E-13  0.1421E-04  0.4467E-07  0.1353E-02  0.2329E-03  0.3893E+01
   -0.599990   30.32005  0.3060E-13  0.1442E-04  0.4367E-07  0.1425E-02  0.2185E-03  0.3902E+01
   -0.649991   30.32071  0.3060E-13  0.1461E-04  0.4283E-07  0.1490E-02  0.2054E-03  0.3943E+01
   -0.699992   30.32133  0.3060E-13  0.1476E-04  0.4212E-07  0.1548E-02  0.1933E-03  0.4040E+01
   -0.749993   30.32192  0.3060E-13  0.1489E-04  0.4152E-07  0.1598E-02  0.1822E-03  0.4164E+01
   -0.799995   30.32248  0.3060E-13  0.1500E-04  0.4104E-07  0.1641E-02  0.1719E-03  0.4345E+01
   -0.849996   30.32302  0.3060E-13  0.1509E-04  0.4064E-07  0.1677E-02  0.1622E-03  0.4558E+01
   -0.899998   30.32355  0.3060E-13  0.1515E-04  0.4035E-07  0.1705E-02  0.1532E-03  0.4839E+01
   -0.950000   30.32406  0.3060E-13  0.1520E-04  0.4014E-07  0.1725E-02  0.1446E-03  0.5165E+01
   -1.000001   30.32456  0.3060E-13  0.1523E-04  0.4002E-07  0.1737E-02  0.1366E-03  0.5580E+01
   -1.050003   30.32506  0.3060E-13  0.1523E-04  0.4000E-07  0.1739E-02  0.1289E-03  0.6308E+01
   -1.100005   30.32555  0.3060E-13  0.1522E-04  0.4007E-07  0.1817E-02  0.1216E-03  0.2120E+02
   -1.150006   30.32601  0.3060E-13  0.1519E-04  0.4027E-07  0.1672E-02  0.1151E-03  0.4612E+02
   -1.200008   30.32652  0.3060E-13  0.1513E-04  0.4058E-07  0.1690E-02  0.1084E-03  0.9005E+01
   -1.250009   30.32701  0.3060E-13  0.1505E-04  0.4104E-07  0.1661E-02  0.1020E-03  0.9604E+01
   -1.300011   30.32752  0.3060E-13  0.1495E-04  0.4169E-07  0.1615E-02  0.9582E-04  0.1116E+02
   -1.350012   30.32803  0.3060E-13  0.1481E-04  0.4256E-07  0.1559E-02  0.8982E-04  0.1328E+02
   -1.400013   30.32856  0.3060E-13  0.1465E-04  0.4373E-07  0.1488E-02  0.8400E-04  0.1622E+02
   -1.450014   30.32912  0.3060E-13  0.1444E-04  0.4530E-07  0.1412E-02  0.7829E-04  0.2043E+02
   -1.500014   30.32971  0.3060E-13  0.1419E-04  0.4745E-07  0.1307E-02  0.7270E-04  0.2713E+02
   -1.550015   30.33034  0.3060E-13  0.1389E-04  0.5046E-07  0.1222E-02  0.6710E-04  0.3765E+02
   -1.600015   30.33103  0.3060E-13  0.1351E-04  0.5492E-07  0.1080E-02  0.6162E-04  0.6182E+02
   -1.650015   30.33185  0.3060E-13  0.1302E-04  0.6171E-07  0.1002E-02  0.5584E-04  0.1689E+03
   -1.700014   30.33275  0.3060E-13  0.1237E-04  0.7392E-07  0.8190E-03  0.5024E-04  0.6556E+05
   -1.750013   30.33428  0.3060E-13  0.1147E-04  0.9405E-07  0.7400E-03  0.4298E-04  0.4666E+06
   -1.800012   30.33569  0.3060E-13  0.1022E-04  0.1348E-06  0.5222E-03  0.3701E-04  0.2174E+05
   -1.850010   30.34058  0.3060E-13  0.8748E-05  0.2127E-06  0.4742E-03  0.2714E-04  0.1457E+08
   -1.900008   30.34048  0.3060E-13  0.6918E-05  0.4401E-06  0.2133E-03  0.2189E-04  0.1086E+07
   -1.950006   30.35726  0.3060E-13  0.4776E-05  0.1132E-05  0.1738E-03  0.1190E-04 -0.2331E+07
   -2.000003   30.35991  0.3060E-13  0.0000E+00  0.0000E+00  0.0000E+00  0.2070E-04  0.0000E+00
