 1 - depth, m
 2 - temperature, C
 3 - salinity, kg/kg
 4 - turbulent kinetic energy, m**2/s**2
 5 - dissipation rate, m**2/s**3
 6 - kinematic heat conductance, m**2/s
 7 - modulus of horizontal velocity, m/s
 8 - Richardson number, n/d
   -0.000000   29.60953  0.1296E-14  0.4381E-05  0.2567E-06  0.4765E-04  0.1320E-02  0.6579E+04
   -0.049997   29.63749  0.1296E-14  0.7584E-05  0.1145E-06  0.1733E-03  0.7434E-03  0.2978E+04
   -0.099994   29.64790  0.1296E-14  0.9192E-05  0.7932E-07  0.3871E-03  0.5450E-03  0.2600E+02
   -0.149992   29.65084  0.1296E-14  0.1020E-04  0.6677E-07  0.4687E-03  0.4805E-03  0.1268E+02
   -0.199991   29.65318  0.1296E-14  0.1099E-04  0.5941E-07  0.6233E-03  0.4287E-03  0.8189E+01
   -0.249989   29.65488  0.1296E-14  0.1162E-04  0.5459E-07  0.7453E-03  0.3898E-03  0.6057E+01
   -0.299989   29.65627  0.1296E-14  0.1214E-04  0.5115E-07  0.8657E-03  0.3575E-03  0.4831E+01
   -0.349988   29.65744  0.1296E-14  0.1257E-04  0.4858E-07  0.9751E-03  0.3297E-03  0.4143E+01
   -0.399988   29.65845  0.1296E-14  0.1293E-04  0.4658E-07  0.1075E-02  0.3052E-03  0.3698E+01
   -0.449988   29.65936  0.1296E-14  0.1325E-04  0.4496E-07  0.1168E-02  0.2836E-03  0.3481E+01
   -0.499988   29.66017  0.1296E-14  0.1352E-04  0.4362E-07  0.1254E-02  0.2645E-03  0.3392E+01
   -0.549989   29.66092  0.1296E-14  0.1376E-04  0.4251E-07  0.1333E-02  0.2474E-03  0.3356E+01
   -0.599990   29.66161  0.1296E-14  0.1396E-04  0.4158E-07  0.1404E-02  0.2320E-03  0.3363E+01
   -0.649991   29.66225  0.1296E-14  0.1414E-04  0.4079E-07  0.1468E-02  0.2179E-03  0.3415E+01
   -0.699992   29.66286  0.1296E-14  0.1430E-04  0.4014E-07  0.1525E-02  0.2050E-03  0.3499E+01
   -0.749993   29.66344  0.1296E-14  0.1443E-04  0.3959E-07  0.1574E-02  0.1931E-03  0.3625E+01
   -0.799995   29.66400  0.1296E-14  0.1454E-04  0.3915E-07  0.1616E-02  0.1821E-03  0.3784E+01
   -0.849996   29.66454  0.1296E-14  0.1462E-04  0.3880E-07  0.1651E-02  0.1717E-03  0.3990E+01
   -0.899998   29.66506  0.1296E-14  0.1469E-04  0.3853E-07  0.1678E-02  0.1620E-03  0.4238E+01
   -0.950000   29.66556  0.1296E-14  0.1474E-04  0.3836E-07  0.1697E-02  0.1529E-03  0.4550E+01
   -1.000002   29.66606  0.1296E-14  0.1477E-04  0.3827E-07  0.1709E-02  0.1443E-03  0.4920E+01
   -1.050003   29.66655  0.1296E-14  0.1478E-04  0.3827E-07  0.1711E-02  0.1361E-03  0.5598E+01
   -1.100005   29.66704  0.1296E-14  0.1477E-04  0.3837E-07  0.1788E-02  0.1284E-03  0.1873E+02
   -1.150007   29.66750  0.1296E-14  0.1474E-04  0.3858E-07  0.1644E-02  0.1214E-03  0.4151E+02
   -1.200008   29.66801  0.1296E-14  0.1468E-04  0.3891E-07  0.1661E-02  0.1143E-03  0.8088E+01
   -1.250010   29.66850  0.1296E-14  0.1461E-04  0.3938E-07  0.1632E-02  0.1074E-03  0.8644E+01
   -1.300011   29.66901  0.1296E-14  0.1451E-04  0.4003E-07  0.1586E-02  0.1008E-03  0.1012E+02
   -1.350012   29.66952  0.1296E-14  0.1438E-04  0.4090E-07  0.1530E-02  0.9447E-04  0.1209E+02
   -1.400013   29.67006  0.1296E-14  0.1422E-04  0.4206E-07  0.1459E-02  0.8826E-04  0.1490E+02
   -1.450014   29.67062  0.1296E-14  0.1402E-04  0.4362E-07  0.1384E-02  0.8219E-04  0.1890E+02
   -1.500015   29.67121  0.1296E-14  0.1378E-04  0.4574E-07  0.1279E-02  0.7624E-04  0.2541E+02
   -1.550015   29.67186  0.1296E-14  0.1348E-04  0.4872E-07  0.1194E-02  0.7030E-04  0.3569E+02
   -1.600015   29.67256  0.1296E-14  0.1310E-04  0.5314E-07  0.1055E-02  0.6446E-04  0.5936E+02
   -1.650015   29.67339  0.1296E-14  0.1262E-04  0.5987E-07  0.9773E-03  0.5835E-04  0.1689E+03
   -1.700015   29.67431  0.1296E-14  0.1197E-04  0.7213E-07  0.7985E-03  0.5240E-04  0.3493E+04
   -1.750014   29.67592  0.1296E-14  0.1106E-04  0.9249E-07  0.7228E-03  0.4461E-04  0.1123E+06
   -1.800012   29.67743  0.1296E-14  0.9802E-05  0.1352E-06  0.4976E-03  0.3825E-04  0.1095E+06
   -1.850011   29.68277  0.1296E-14  0.8345E-05  0.2138E-06  0.4595E-03  0.2766E-04  0.8746E+07
   -1.900009   29.68222  0.1296E-14  0.6632E-05  0.4384E-06  0.2045E-03  0.2239E-04 -0.8475E+06
   -1.950006   29.69994  0.1296E-14  0.4582E-05  0.1118E-05  0.1750E-03  0.1214E-04 -0.5714E+06
   -2.000003   29.70156  0.1296E-14  0.0000E+00  0.0000E+00  0.0000E+00  0.2141E-04  0.0000E+00
