 1 - depth, m
 2 - temperature, C
 3 - salinity, kg/kg
 4 - turbulent kinetic energy, m**2/s**2
 5 - dissipation rate, m**2/s**3
 6 - kinematic heat conductance, m**2/s
 7 - modulus of horizontal velocity, m/s
 8 - Richardson number, n/d
   -0.000000   31.06468  0.1293E-13  0.5085E-05  0.3270E-06  0.5132E-04  0.6344E-03  0.5610E+05
   -0.049997   31.09807  0.1293E-13  0.8905E-05  0.1452E-06  0.1866E-03  0.3618E-03  0.1804E+04
   -0.099994   31.11016  0.1293E-13  0.1078E-04  0.1003E-06  0.4230E-03  0.2639E-03  0.1312E+03
   -0.149992   31.11353  0.1293E-13  0.1194E-04  0.8455E-07  0.4985E-03  0.2342E-03  0.6488E+02
   -0.199991   31.11625  0.1293E-13  0.1285E-04  0.7525E-07  0.6679E-03  0.2095E-03  0.4230E+02
   -0.249989   31.11823  0.1293E-13  0.1357E-04  0.6912E-07  0.7961E-03  0.1911E-03  0.3144E+02
   -0.299988   31.11984  0.1293E-13  0.1415E-04  0.6473E-07  0.9243E-03  0.1758E-03  0.2511E+02
   -0.349988   31.12119  0.1293E-13  0.1464E-04  0.6143E-07  0.1040E-02  0.1626E-03  0.2148E+02
   -0.399988   31.12236  0.1293E-13  0.1504E-04  0.5885E-07  0.1146E-02  0.1510E-03  0.1915E+02
   -0.449988   31.12340  0.1293E-13  0.1539E-04  0.5675E-07  0.1244E-02  0.1407E-03  0.1795E+02
   -0.499988   31.12433  0.1293E-13  0.1569E-04  0.5500E-07  0.1333E-02  0.1316E-03  0.1746E+02
   -0.549989   31.12519  0.1293E-13  0.1594E-04  0.5354E-07  0.1415E-02  0.1234E-03  0.1719E+02
   -0.599989   31.12598  0.1293E-13  0.1616E-04  0.5230E-07  0.1489E-02  0.1160E-03  0.1719E+02
   -0.649990   31.12672  0.1293E-13  0.1635E-04  0.5125E-07  0.1555E-02  0.1093E-03  0.1736E+02
   -0.699992   31.12742  0.1293E-13  0.1650E-04  0.5037E-07  0.1614E-02  0.1030E-03  0.1774E+02
   -0.749993   31.12808  0.1293E-13  0.1663E-04  0.4962E-07  0.1664E-02  0.9729E-04  0.1828E+02
   -0.799994   31.12871  0.1293E-13  0.1673E-04  0.4900E-07  0.1706E-02  0.9194E-04  0.1902E+02
   -0.849996   31.12932  0.1293E-13  0.1681E-04  0.4849E-07  0.1740E-02  0.8693E-04  0.1997E+02
   -0.899998   31.12991  0.1293E-13  0.1686E-04  0.4810E-07  0.1766E-02  0.8222E-04  0.2114E+02
   -0.949999   31.13048  0.1293E-13  0.1689E-04  0.4782E-07  0.1783E-02  0.7777E-04  0.2261E+02
   -1.000001   31.13105  0.1293E-13  0.1689E-04  0.4766E-07  0.1791E-02  0.7356E-04  0.2438E+02
   -1.050003   31.13160  0.1293E-13  0.1687E-04  0.4761E-07  0.1789E-02  0.6956E-04  0.2757E+02
   -1.100004   31.13215  0.1293E-13  0.1683E-04  0.4769E-07  0.1892E-02  0.6574E-04  0.8954E+02
   -1.150006   31.13267  0.1293E-13  0.1676E-04  0.4792E-07  0.1679E-02  0.6235E-04  0.2154E+03
   -1.200007   31.13324  0.1293E-13  0.1667E-04  0.4830E-07  0.1718E-02  0.5876E-04  0.4026E+02
   -1.250009   31.13380  0.1293E-13  0.1654E-04  0.4889E-07  0.1685E-02  0.5535E-04  0.4276E+02
   -1.300010   31.13437  0.1293E-13  0.1639E-04  0.4972E-07  0.1630E-02  0.5207E-04  0.5027E+02
   -1.350011   31.13495  0.1293E-13  0.1620E-04  0.5086E-07  0.1566E-02  0.4888E-04  0.6058E+02
   -1.400012   31.13556  0.1293E-13  0.1597E-04  0.5243E-07  0.1483E-02  0.4576E-04  0.7560E+02
   -1.450013   31.13619  0.1293E-13  0.1568E-04  0.5460E-07  0.1400E-02  0.4269E-04  0.9796E+02
   -1.500014   31.13687  0.1293E-13  0.1534E-04  0.5766E-07  0.1284E-02  0.3966E-04  0.1360E+03
   -1.550014   31.13762  0.1293E-13  0.1493E-04  0.6208E-07  0.1198E-02  0.3660E-04  0.2039E+03
   -1.600014   31.13843  0.1293E-13  0.1441E-04  0.6903E-07  0.1053E-02  0.3359E-04  0.5309E+03
   -1.650014   31.13947  0.1293E-13  0.1373E-04  0.8007E-07  0.9704E-03  0.3028E-04  0.6951E+04
   -1.700013   31.14067  0.1293E-13  0.1279E-04  0.9967E-07  0.7895E-03  0.2697E-04  0.1933E+04
   -1.750012   31.14282  0.1293E-13  0.1161E-04  0.1311E-06  0.7093E-03  0.2256E-04  0.3146E+07
   -1.800011   31.14435  0.1293E-13  0.1008E-04  0.2021E-06  0.4841E-03  0.1938E-04  0.5033E+06
   -1.850010   31.15248  0.1293E-13  0.8484E-05  0.3329E-06  0.4574E-03  0.1337E-04  0.1964E+10
   -1.900007   31.14962  0.1293E-13  0.6736E-05  0.6906E-06  0.2112E-03  0.1103E-04 -0.7812E+06
   -1.950005   31.17177  0.1293E-13  0.4783E-05  0.1687E-05  0.2090E-03  0.5831E-05 -0.7353E+07
   -2.000002   31.17257  0.1293E-13  0.0000E+00  0.0000E+00  0.0000E+00  0.1146E-04  0.0000E+00
