 1 - depth, m
 2 - temperature, C
 3 - salinity, kg/kg
 4 - turbulent kinetic energy, m**2/s**2
 5 - dissipation rate, m**2/s**3
 6 - kinematic heat conductance, m**2/s
 7 - modulus of horizontal velocity, m/s
 8 - Richardson number, n/d
   -0.000000   31.39011  0.3596E-14  0.5354E-05  0.3541E-06  0.5242E-04  0.1275E-02  0.8184E+04
   -0.049997   31.42437  0.3596E-14  0.9191E-05  0.1575E-06  0.1893E-03  0.7264E-03  0.1859E+05
   -0.099994   31.43711  0.3596E-14  0.1115E-04  0.1086E-06  0.4169E-03  0.5364E-03  0.3121E+02
   -0.149992   31.44068  0.3596E-14  0.1238E-04  0.9105E-07  0.5014E-03  0.4748E-03  0.1548E+02
   -0.199990   31.44352  0.3596E-14  0.1334E-04  0.8078E-07  0.6725E-03  0.4247E-03  0.9892E+01
   -0.249989   31.44558  0.3596E-14  0.1411E-04  0.7409E-07  0.8027E-03  0.3875E-03  0.7302E+01
   -0.299988   31.44725  0.3596E-14  0.1473E-04  0.6933E-07  0.9348E-03  0.3565E-03  0.5813E+01
   -0.349988   31.44865  0.3596E-14  0.1525E-04  0.6578E-07  0.1053E-02  0.3299E-03  0.4957E+01
   -0.399987   31.44987  0.3596E-14  0.1568E-04  0.6302E-07  0.1162E-02  0.3064E-03  0.4422E+01
   -0.449987   31.45095  0.3596E-14  0.1605E-04  0.6078E-07  0.1262E-02  0.2857E-03  0.4133E+01
   -0.499988   31.45192  0.3596E-14  0.1637E-04  0.5893E-07  0.1355E-02  0.2674E-03  0.4024E+01
   -0.549988   31.45281  0.3596E-14  0.1665E-04  0.5740E-07  0.1439E-02  0.2510E-03  0.3952E+01
   -0.599989   31.45363  0.3596E-14  0.1689E-04  0.5611E-07  0.1515E-02  0.2361E-03  0.3961E+01
   -0.649990   31.45440  0.3596E-14  0.1709E-04  0.5502E-07  0.1582E-02  0.2225E-03  0.3993E+01
   -0.699991   31.45513  0.3596E-14  0.1726E-04  0.5412E-07  0.1642E-02  0.2100E-03  0.4093E+01
   -0.749992   31.45582  0.3596E-14  0.1741E-04  0.5336E-07  0.1693E-02  0.1984E-03  0.4211E+01
   -0.799994   31.45648  0.3596E-14  0.1752E-04  0.5275E-07  0.1736E-02  0.1876E-03  0.4402E+01
   -0.849995   31.45712  0.3596E-14  0.1761E-04  0.5227E-07  0.1771E-02  0.1775E-03  0.4612E+01
   -0.899997   31.45774  0.3596E-14  0.1768E-04  0.5191E-07  0.1797E-02  0.1680E-03  0.4913E+01
   -0.949998   31.45834  0.3596E-14  0.1771E-04  0.5167E-07  0.1813E-02  0.1591E-03  0.5244E+01
   -1.000000   31.45894  0.3596E-14  0.1773E-04  0.5156E-07  0.1822E-02  0.1506E-03  0.5696E+01
   -1.050002   31.45952  0.3596E-14  0.1772E-04  0.5158E-07  0.1819E-02  0.1425E-03  0.6438E+01
   -1.100003   31.46011  0.3596E-14  0.1768E-04  0.5174E-07  0.1927E-02  0.1347E-03  0.2094E+02
   -1.150005   31.46066  0.3596E-14  0.1762E-04  0.5209E-07  0.1700E-02  0.1279E-03  0.5129E+02
   -1.200006   31.46128  0.3596E-14  0.1753E-04  0.5260E-07  0.1742E-02  0.1206E-03  0.9526E+01
   -1.250008   31.46188  0.3596E-14  0.1740E-04  0.5334E-07  0.1709E-02  0.1137E-03  0.1022E+02
   -1.300009   31.46249  0.3596E-14  0.1725E-04  0.5436E-07  0.1651E-02  0.1070E-03  0.1205E+02
   -1.350010   31.46312  0.3596E-14  0.1705E-04  0.5575E-07  0.1586E-02  0.1005E-03  0.1469E+02
   -1.400011   31.46378  0.3596E-14  0.1681E-04  0.5763E-07  0.1496E-02  0.9418E-04  0.1851E+02
   -1.450012   31.46448  0.3596E-14  0.1652E-04  0.6022E-07  0.1416E-02  0.8789E-04  0.2432E+02
   -1.500013   31.46522  0.3596E-14  0.1615E-04  0.6387E-07  0.1292E-02  0.8172E-04  0.3460E+02
   -1.550013   31.46606  0.3596E-14  0.1571E-04  0.6911E-07  0.1213E-02  0.7540E-04  0.5328E+02
   -1.600013   31.46696  0.3596E-14  0.1515E-04  0.7758E-07  0.1058E-02  0.6928E-04  0.1192E+03
   -1.650013   31.46820  0.3596E-14  0.1440E-04  0.9071E-07  0.9785E-03  0.6225E-04  0.4023E+03
   -1.700012   31.46952  0.3596E-14  0.1338E-04  0.1145E-06  0.7882E-03  0.5552E-04  0.2488E+05
   -1.750011   31.47220  0.3596E-14  0.1213E-04  0.1527E-06  0.7170E-03  0.4605E-04  0.8688E+06
   -1.800010   31.47380  0.3596E-14  0.1055E-04  0.2363E-06  0.4922E-03  0.3967E-04  0.3541E+06
   -1.850008   31.48360  0.3596E-14  0.8940E-05  0.3931E-06  0.4676E-03  0.2738E-04  0.1769E+09
   -1.900006   31.47953  0.3596E-14  0.7114E-05  0.8312E-06  0.2133E-03  0.2266E-04 -0.2689E+06
   -1.950003   31.50529  0.3596E-14  0.5110E-05  0.1970E-05  0.2215E-03  0.1195E-04 -0.1182E+07
   -2.000000   31.50529  0.3596E-14  0.0000E+00  0.0000E+00  0.0000E+00  0.2379E-04  0.0000E+00
