 1 - depth, m
 2 - temperature, C
 3 - salinity, kg/kg
 4 - turbulent kinetic energy, m**2/s**2
 5 - dissipation rate, m**2/s**3
 6 - kinematic heat conductance, m**2/s
 7 - modulus of horizontal velocity, m/s
 8 - Richardson number, n/d
   -0.000000   30.58049  0.1734E-13  0.4918E-05  0.3085E-06  0.5003E-04  0.1230E-02  0.7504E+04
   -0.049997   30.61241  0.1734E-13  0.8477E-05  0.1374E-06  0.1827E-03  0.6953E-03  0.6144E+02
   -0.099994   30.62424  0.1734E-13  0.1027E-04  0.9496E-07  0.4033E-03  0.5124E-03  0.3225E+02
   -0.149992   30.62757  0.1734E-13  0.1140E-04  0.7975E-07  0.4866E-03  0.4528E-03  0.1587E+02
   -0.199991   30.63021  0.1734E-13  0.1227E-04  0.7082E-07  0.6494E-03  0.4046E-03  0.1018E+02
   -0.249989   30.63212  0.1734E-13  0.1297E-04  0.6496E-07  0.7755E-03  0.3685E-03  0.7523E+01
   -0.299988   30.63368  0.1734E-13  0.1353E-04  0.6078E-07  0.9018E-03  0.3385E-03  0.5981E+01
   -0.349988   30.63499  0.1734E-13  0.1400E-04  0.5764E-07  0.1016E-02  0.3127E-03  0.5113E+01
   -0.399988   30.63612  0.1734E-13  0.1439E-04  0.5519E-07  0.1120E-02  0.2900E-03  0.4551E+01
   -0.449988   30.63713  0.1734E-13  0.1473E-04  0.5319E-07  0.1217E-02  0.2699E-03  0.4270E+01
   -0.499988   30.63803  0.1734E-13  0.1502E-04  0.5154E-07  0.1306E-02  0.2522E-03  0.4148E+01
   -0.549989   30.63886  0.1734E-13  0.1527E-04  0.5015E-07  0.1387E-02  0.2363E-03  0.4090E+01
   -0.599989   30.63963  0.1734E-13  0.1548E-04  0.4897E-07  0.1461E-02  0.2219E-03  0.4084E+01
   -0.649991   30.64034  0.1734E-13  0.1567E-04  0.4798E-07  0.1527E-02  0.2088E-03  0.4131E+01
   -0.699992   30.64101  0.1734E-13  0.1582E-04  0.4713E-07  0.1586E-02  0.1968E-03  0.4214E+01
   -0.749993   30.64165  0.1734E-13  0.1595E-04  0.4641E-07  0.1637E-02  0.1856E-03  0.4349E+01
   -0.799995   30.64226  0.1734E-13  0.1605E-04  0.4582E-07  0.1680E-02  0.1753E-03  0.4518E+01
   -0.849996   30.64285  0.1734E-13  0.1613E-04  0.4533E-07  0.1715E-02  0.1656E-03  0.4747E+01
   -0.899998   30.64342  0.1734E-13  0.1618E-04  0.4495E-07  0.1742E-02  0.1565E-03  0.5016E+01
   -0.949999   30.64397  0.1734E-13  0.1621E-04  0.4467E-07  0.1761E-02  0.1479E-03  0.5366E+01
   -1.000001   30.64451  0.1734E-13  0.1622E-04  0.4449E-07  0.1772E-02  0.1398E-03  0.5771E+01
   -1.050003   30.64504  0.1734E-13  0.1621E-04  0.4441E-07  0.1772E-02  0.1321E-03  0.6529E+01
   -1.100005   30.64556  0.1734E-13  0.1618E-04  0.4446E-07  0.1862E-02  0.1247E-03  0.2153E+02
   -1.150006   30.64606  0.1734E-13  0.1612E-04  0.4464E-07  0.1685E-02  0.1182E-03  0.4915E+02
   -1.200008   30.64661  0.1734E-13  0.1604E-04  0.4495E-07  0.1713E-02  0.1114E-03  0.9388E+01
   -1.250009   30.64714  0.1734E-13  0.1594E-04  0.4543E-07  0.1683E-02  0.1049E-03  0.9963E+01
   -1.300011   30.64767  0.1734E-13  0.1580E-04  0.4613E-07  0.1633E-02  0.9859E-04  0.1164E+02
   -1.350012   30.64822  0.1734E-13  0.1563E-04  0.4710E-07  0.1573E-02  0.9250E-04  0.1391E+02
   -1.400013   30.64879  0.1734E-13  0.1543E-04  0.4843E-07  0.1495E-02  0.8657E-04  0.1719E+02
   -1.450014   30.64939  0.1734E-13  0.1518E-04  0.5025E-07  0.1417E-02  0.8074E-04  0.2190E+02
   -1.500014   30.65002  0.1734E-13  0.1488E-04  0.5280E-07  0.1305E-02  0.7501E-04  0.2987E+02
   -1.550015   30.65071  0.1734E-13  0.1451E-04  0.5643E-07  0.1221E-02  0.6925E-04  0.4288E+02
   -1.600015   30.65145  0.1734E-13  0.1406E-04  0.6207E-07  0.1075E-02  0.6361E-04  0.9422E+02
   -1.650014   30.65237  0.1734E-13  0.1347E-04  0.7087E-07  0.9964E-03  0.5749E-04  0.1284E+04
   -1.700014   30.65340  0.1734E-13  0.1267E-04  0.8639E-07  0.8111E-03  0.5150E-04  0.1427E+06
   -1.750013   30.65522  0.1734E-13  0.1163E-04  0.1117E-06  0.7350E-03  0.4360E-04  0.1830E+06
   -1.800012   30.65664  0.1734E-13  0.1025E-04  0.1654E-06  0.5084E-03  0.3757E-04  0.1640E+06
   -1.850010   30.66289  0.1734E-13  0.8718E-05  0.2674E-06  0.4760E-03  0.2683E-04  0.2143E+09
   -1.900008   30.66150  0.1734E-13  0.6917E-05  0.5535E-06  0.2147E-03  0.2196E-04 -0.1248E+06
   -1.950005   30.68040  0.1734E-13  0.4827E-05  0.1383E-05  0.1907E-03  0.1181E-04 -0.1391E+07
   -2.000002   30.68225  0.1734E-13  0.0000E+00  0.0000E+00  0.0000E+00  0.2167E-04  0.0000E+00
