 1 - depth, m
 2 - temperature, C
 3 - salinity, kg/kg
 4 - turbulent kinetic energy, m**2/s**2
 5 - dissipation rate, m**2/s**3
 6 - kinematic heat conductance, m**2/s
 7 - modulus of horizontal velocity, m/s
 8 - Richardson number, n/d
   -0.000000   29.81763  0.2100E-14  0.4945E-05  0.2691E-06  0.4999E-04  0.3147E-02  0.1562E+04
   -0.049997   29.84534  0.2100E-14  0.8034E-05  0.1172E-06  0.1938E-03  0.1686E-02  0.4767E+03
   -0.099994   29.85391  0.2100E-14  0.9476E-05  0.8322E-07  0.3771E-03  0.1320E-02  0.5704E+01
   -0.149992   29.85696  0.2100E-14  0.1043E-04  0.7018E-07  0.4705E-03  0.1173E-02  0.2927E+01
   -0.199991   29.85929  0.2100E-14  0.1119E-04  0.6254E-07  0.6059E-03  0.1059E-02  0.1970E+01
   -0.249989   29.86106  0.2100E-14  0.1182E-04  0.5744E-07  0.7209E-03  0.9687E-03  0.1582E+01
   -0.299989   29.86251  0.2100E-14  0.1236E-04  0.5369E-07  0.8386E-03  0.8894E-03  0.1418E+01
   -0.349988   29.86373  0.2100E-14  0.1285E-04  0.5075E-07  0.9583E-03  0.8159E-03  0.1381E+01
   -0.399988   29.86477  0.2100E-14  0.1328E-04  0.4837E-07  0.1080E-02  0.7463E-03  0.1353E+01
   -0.449988   29.86568  0.2100E-14  0.1367E-04  0.4639E-07  0.1199E-02  0.6824E-03  0.1345E+01
   -0.499988   29.86648  0.2100E-14  0.1402E-04  0.4476E-07  0.1309E-02  0.6253E-03  0.1339E+01
   -0.549989   29.86720  0.2100E-14  0.1432E-04  0.4341E-07  0.1411E-02  0.5742E-03  0.1331E+01
   -0.599990   29.86786  0.2100E-14  0.1457E-04  0.4231E-07  0.1503E-02  0.5286E-03  0.1319E+01
   -0.649991   29.86847  0.2100E-14  0.1478E-04  0.4140E-07  0.1584E-02  0.4878E-03  0.1309E+01
   -0.699992   29.86904  0.2100E-14  0.1496E-04  0.4067E-07  0.1653E-02  0.4513E-03  0.1294E+01
   -0.749993   29.86958  0.2100E-14  0.1510E-04  0.4009E-07  0.1710E-02  0.4185E-03  0.1285E+01
   -0.799995   29.87010  0.2100E-14  0.1521E-04  0.3965E-07  0.1753E-02  0.3891E-03  0.1274E+01
   -0.849996   29.87060  0.2100E-14  0.1528E-04  0.3932E-07  0.1785E-02  0.3625E-03  0.1273E+01
   -0.899998   29.87109  0.2100E-14  0.1534E-04  0.3911E-07  0.1806E-02  0.3387E-03  0.1276E+01
   -0.950000   29.87156  0.2100E-14  0.1536E-04  0.3900E-07  0.1816E-02  0.3170E-03  0.1300E+01
   -1.000002   29.87203  0.2100E-14  0.1537E-04  0.3898E-07  0.1817E-02  0.2973E-03  0.1335E+01
   -1.050003   29.87250  0.2100E-14  0.1535E-04  0.3907E-07  0.1804E-02  0.2792E-03  0.1440E+01
   -1.100005   29.87296  0.2100E-14  0.1532E-04  0.3924E-07  0.1921E-02  0.2627E-03  0.4345E+01
   -1.150007   29.87340  0.2100E-14  0.1526E-04  0.3953E-07  0.1679E-02  0.2494E-03  0.1021E+02
   -1.200008   29.87390  0.2100E-14  0.1519E-04  0.3994E-07  0.1729E-02  0.2349E-03  0.1956E+01
   -1.250010   29.87437  0.2100E-14  0.1509E-04  0.4051E-07  0.1694E-02  0.2212E-03  0.2072E+01
   -1.300011   29.87486  0.2100E-14  0.1496E-04  0.4128E-07  0.1639E-02  0.2080E-03  0.2436E+01
   -1.350012   29.87536  0.2100E-14  0.1481E-04  0.4229E-07  0.1575E-02  0.1952E-03  0.2918E+01
   -1.400013   29.87589  0.2100E-14  0.1462E-04  0.4364E-07  0.1492E-02  0.1827E-03  0.3635E+01
   -1.450014   29.87644  0.2100E-14  0.1439E-04  0.4545E-07  0.1412E-02  0.1705E-03  0.4644E+01
   -1.500015   29.87702  0.2100E-14  0.1410E-04  0.4794E-07  0.1295E-02  0.1584E-03  0.6369E+01
   -1.550015   29.87767  0.2100E-14  0.1376E-04  0.5145E-07  0.1210E-02  0.1462E-03  0.9152E+01
   -1.600015   29.87837  0.2100E-14  0.1333E-04  0.5686E-07  0.1061E-02  0.1342E-03  0.2334E+02
   -1.650015   29.87924  0.2100E-14  0.1278E-04  0.6518E-07  0.9820E-03  0.1211E-03  0.8272E+03
   -1.700015   29.88022  0.2100E-14  0.1202E-04  0.7997E-07  0.7974E-03  0.1085E-03  0.3746E+04
   -1.750014   29.88199  0.2100E-14  0.1102E-04  0.1041E-06  0.7180E-03  0.9141E-04  0.6207E+05
   -1.800012   29.88336  0.2100E-14  0.9671E-05  0.1563E-06  0.4917E-03  0.7856E-04  0.2852E+05
   -1.850011   29.88964  0.2100E-14  0.8177E-05  0.2532E-06  0.4562E-03  0.5536E-04  0.6688E+07
   -1.900009   29.88817  0.2100E-14  0.6467E-05  0.5286E-06  0.2090E-03  0.4513E-04 -0.4324E+04
   -1.950006   29.90696  0.2100E-14  0.4527E-05  0.1306E-05  0.1897E-03  0.2403E-04 -0.1106E+06
   -2.000003   29.90809  0.2100E-14  0.0000E+00  0.0000E+00  0.0000E+00  0.4531E-04  0.0000E+00
