 1 - depth, m
 2 - temperature, C
 3 - salinity, kg/kg
 4 - turbulent kinetic energy, m**2/s**2
 5 - dissipation rate, m**2/s**3
 6 - kinematic heat conductance, m**2/s
 7 - modulus of horizontal velocity, m/s
 8 - Richardson number, n/d
   -0.000000   31.18493  0.2240E-13  0.5075E-05  0.3179E-06  0.5195E-04  0.1995E-02  0.3610E+04
   -0.049997   31.21532  0.2240E-13  0.8571E-05  0.1411E-06  0.1825E-03  0.1124E-02  0.4504E+04
   -0.099994   31.22677  0.2240E-13  0.1036E-04  0.9721E-07  0.4007E-03  0.8345E-03  0.1458E+02
   -0.149992   31.23006  0.2240E-13  0.1148E-04  0.8142E-07  0.4849E-03  0.7371E-03  0.7199E+01
   -0.199991   31.23266  0.2240E-13  0.1237E-04  0.7221E-07  0.6469E-03  0.6589E-03  0.4617E+01
   -0.249989   31.23456  0.2240E-13  0.1307E-04  0.6620E-07  0.7735E-03  0.6003E-03  0.3423E+01
   -0.299988   31.23610  0.2240E-13  0.1364E-04  0.6192E-07  0.8989E-03  0.5515E-03  0.2721E+01
   -0.349988   31.23739  0.2240E-13  0.1412E-04  0.5873E-07  0.1012E-02  0.5097E-03  0.2348E+01
   -0.399988   31.23852  0.2240E-13  0.1452E-04  0.5624E-07  0.1117E-02  0.4725E-03  0.2106E+01
   -0.449988   31.23952  0.2240E-13  0.1488E-04  0.5421E-07  0.1216E-02  0.4395E-03  0.2004E+01
   -0.499988   31.24042  0.2240E-13  0.1518E-04  0.5253E-07  0.1308E-02  0.4100E-03  0.1950E+01
   -0.549989   31.24123  0.2240E-13  0.1545E-04  0.5112E-07  0.1393E-02  0.3835E-03  0.1939E+01
   -0.599989   31.24199  0.2240E-13  0.1568E-04  0.4995E-07  0.1470E-02  0.3595E-03  0.1930E+01
   -0.649990   31.24270  0.2240E-13  0.1588E-04  0.4897E-07  0.1538E-02  0.3377E-03  0.1961E+01
   -0.699992   31.24336  0.2240E-13  0.1605E-04  0.4815E-07  0.1598E-02  0.3177E-03  0.1987E+01
   -0.749993   31.24399  0.2240E-13  0.1619E-04  0.4747E-07  0.1650E-02  0.2993E-03  0.2056E+01
   -0.799994   31.24460  0.2240E-13  0.1630E-04  0.4693E-07  0.1693E-02  0.2824E-03  0.2120E+01
   -0.849996   31.24518  0.2240E-13  0.1639E-04  0.4650E-07  0.1727E-02  0.2666E-03  0.2237E+01
   -0.899998   31.24575  0.2240E-13  0.1645E-04  0.4618E-07  0.1753E-02  0.2520E-03  0.2353E+01
   -0.949999   31.24630  0.2240E-13  0.1650E-04  0.4597E-07  0.1770E-02  0.2382E-03  0.2537E+01
   -1.000001   31.24684  0.2240E-13  0.1651E-04  0.4587E-07  0.1780E-02  0.2252E-03  0.2729E+01
   -1.050003   31.24738  0.2240E-13  0.1651E-04  0.4589E-07  0.1778E-02  0.2128E-03  0.3120E+01
   -1.100004   31.24791  0.2240E-13  0.1649E-04  0.4602E-07  0.1875E-02  0.2010E-03  0.1017E+02
   -1.150006   31.24842  0.2240E-13  0.1644E-04  0.4632E-07  0.1680E-02  0.1906E-03  0.2416E+02
   -1.200007   31.24898  0.2240E-13  0.1637E-04  0.4675E-07  0.1712E-02  0.1796E-03  0.4593E+01
   -1.250009   31.24953  0.2240E-13  0.1626E-04  0.4737E-07  0.1680E-02  0.1691E-03  0.4896E+01
   -1.300010   31.25009  0.2240E-13  0.1613E-04  0.4823E-07  0.1627E-02  0.1590E-03  0.5807E+01
   -1.350011   31.25066  0.2240E-13  0.1596E-04  0.4940E-07  0.1566E-02  0.1492E-03  0.6997E+01
   -1.400012   31.25126  0.2240E-13  0.1576E-04  0.5097E-07  0.1483E-02  0.1396E-03  0.8815E+01
   -1.450013   31.25189  0.2240E-13  0.1551E-04  0.5310E-07  0.1406E-02  0.1302E-03  0.1138E+02
   -1.500014   31.25256  0.2240E-13  0.1520E-04  0.5606E-07  0.1286E-02  0.1209E-03  0.1600E+02
   -1.550014   31.25331  0.2240E-13  0.1481E-04  0.6028E-07  0.1208E-02  0.1115E-03  0.2350E+02
   -1.600014   31.25412  0.2240E-13  0.1433E-04  0.6691E-07  0.1055E-02  0.1024E-03  0.5693E+02
   -1.650014   31.25516  0.2240E-13  0.1371E-04  0.7714E-07  0.9821E-03  0.9225E-04  0.5201E+03
   -1.700013   31.25630  0.2240E-13  0.1284E-04  0.9537E-07  0.7900E-03  0.8255E-04 -0.9163E+03
   -1.750012   31.25852  0.2240E-13  0.1172E-04  0.1252E-06  0.7223E-03  0.6904E-04  0.1701E+06
   -1.800011   31.26005  0.2240E-13  0.1028E-04  0.1904E-06  0.4938E-03  0.5946E-04  0.1018E+07
   -1.850010   31.26787  0.2240E-13  0.8728E-05  0.3113E-06  0.4677E-03  0.4174E-04  0.2508E+09
   -1.900007   31.26540  0.2240E-13  0.6958E-05  0.6525E-06  0.2122E-03  0.3436E-04 -0.1027E+06
   -1.950005   31.28752  0.2240E-13  0.4917E-05  0.1596E-05  0.2020E-03  0.1838E-04 -0.2980E+06
   -2.000002   31.28907  0.2240E-13  0.0000E+00  0.0000E+00  0.0000E+00  0.3473E-04  0.0000E+00
