 1 - depth, m
 2 - temperature, C
 3 - salinity, kg/kg
 4 - turbulent kinetic energy, m**2/s**2
 5 - dissipation rate, m**2/s**3
 6 - kinematic heat conductance, m**2/s
 7 - modulus of horizontal velocity, m/s
 8 - Richardson number, n/d
   -0.000000   30.96270  0.3922E-14  0.5055E-05  0.3233E-06  0.5090E-04  0.5413E-03  0.6019E+05
   -0.049997   30.99594  0.3922E-14  0.8889E-05  0.1434E-06  0.1882E-03  0.3065E-03  0.4602E+04
   -0.099994   31.00781  0.3922E-14  0.1075E-04  0.9928E-07  0.4251E-03  0.2240E-03  0.1685E+03
   -0.149992   31.01112  0.3922E-14  0.1192E-04  0.8378E-07  0.5012E-03  0.1988E-03  0.8361E+02
   -0.199991   31.01381  0.3922E-14  0.1282E-04  0.7462E-07  0.6711E-03  0.1779E-03  0.5456E+02
   -0.249989   31.01576  0.3922E-14  0.1354E-04  0.6858E-07  0.8000E-03  0.1623E-03  0.4070E+02
   -0.299988   31.01735  0.3922E-14  0.1413E-04  0.6426E-07  0.9288E-03  0.1492E-03  0.3251E+02
   -0.349988   31.01868  0.3922E-14  0.1462E-04  0.6101E-07  0.1045E-02  0.1381E-03  0.2791E+02
   -0.399988   31.01984  0.3922E-14  0.1503E-04  0.5847E-07  0.1152E-02  0.1282E-03  0.2486E+02
   -0.449988   31.02086  0.3922E-14  0.1538E-04  0.5641E-07  0.1250E-02  0.1195E-03  0.2338E+02
   -0.499988   31.02179  0.3922E-14  0.1568E-04  0.5470E-07  0.1341E-02  0.1117E-03  0.2269E+02
   -0.549989   31.02264  0.3922E-14  0.1595E-04  0.5327E-07  0.1423E-02  0.1048E-03  0.2242E+02
   -0.599989   31.02343  0.3922E-14  0.1617E-04  0.5206E-07  0.1498E-02  0.9853E-04  0.2236E+02
   -0.649990   31.02416  0.3922E-14  0.1636E-04  0.5104E-07  0.1565E-02  0.9280E-04  0.2267E+02
   -0.699992   31.02485  0.3922E-14  0.1652E-04  0.5017E-07  0.1624E-02  0.8753E-04  0.2310E+02
   -0.749993   31.02551  0.3922E-14  0.1666E-04  0.4945E-07  0.1675E-02  0.8264E-04  0.2389E+02
   -0.799994   31.02614  0.3922E-14  0.1677E-04  0.4885E-07  0.1719E-02  0.7810E-04  0.2480E+02
   -0.849996   31.02675  0.3922E-14  0.1685E-04  0.4837E-07  0.1754E-02  0.7384E-04  0.2611E+02
   -0.899997   31.02733  0.3922E-14  0.1691E-04  0.4799E-07  0.1781E-02  0.6985E-04  0.2758E+02
   -0.949999   31.02790  0.3922E-14  0.1695E-04  0.4773E-07  0.1799E-02  0.6607E-04  0.2957E+02
   -1.000001   31.02846  0.3922E-14  0.1696E-04  0.4758E-07  0.1809E-02  0.6251E-04  0.3180E+02
   -1.050003   31.02902  0.3922E-14  0.1695E-04  0.4754E-07  0.1808E-02  0.5911E-04  0.3606E+02
   -1.100004   31.02956  0.3922E-14  0.1692E-04  0.4763E-07  0.1906E-02  0.5587E-04  0.1180E+03
   -1.150006   31.03008  0.3922E-14  0.1686E-04  0.4787E-07  0.1708E-02  0.5299E-04  0.2745E+03
   -1.200007   31.03065  0.3922E-14  0.1678E-04  0.4826E-07  0.1742E-02  0.4996E-04  0.5224E+02
   -1.250009   31.03121  0.3922E-14  0.1667E-04  0.4884E-07  0.1711E-02  0.4707E-04  0.5539E+02
   -1.300010   31.03177  0.3922E-14  0.1652E-04  0.4965E-07  0.1658E-02  0.4429E-04  0.6509E+02
   -1.350011   31.03235  0.3922E-14  0.1635E-04  0.5077E-07  0.1596E-02  0.4159E-04  0.7784E+02
   -1.400012   31.03295  0.3922E-14  0.1613E-04  0.5229E-07  0.1515E-02  0.3895E-04  0.9678E+02
   -1.450013   31.03358  0.3922E-14  0.1587E-04  0.5438E-07  0.1434E-02  0.3636E-04  0.1239E+03
   -1.500014   31.03425  0.3922E-14  0.1554E-04  0.5729E-07  0.1320E-02  0.3380E-04  0.1704E+03
   -1.550014   31.03499  0.3922E-14  0.1515E-04  0.6147E-07  0.1233E-02  0.3122E-04  0.2511E+03
   -1.600014   31.03579  0.3922E-14  0.1466E-04  0.6794E-07  0.1088E-02  0.2868E-04  0.5506E+03
   -1.650014   31.03677  0.3922E-14  0.1403E-04  0.7814E-07  0.1003E-02  0.2594E-04  0.3359E+04
   -1.700013   31.03795  0.3922E-14  0.1315E-04  0.9588E-07  0.8196E-03  0.2315E-04  0.7960E+05
   -1.750012   31.03991  0.3922E-14  0.1206E-04  0.1243E-06  0.7406E-03  0.1959E-04  0.2187E+07
   -1.800011   31.04136  0.3922E-14  0.1060E-04  0.1866E-06  0.5095E-03  0.1693E-04  0.3013E+07
   -1.850009   31.04857  0.3922E-14  0.9017E-05  0.3049E-06  0.4787E-03  0.1200E-04  0.8021E+08
   -1.900007   31.04675  0.3922E-14  0.7185E-05  0.6330E-06  0.2218E-03  0.9856E-05 -0.4815E+06
   -1.950005   31.06766  0.3922E-14  0.5047E-05  0.1558E-05  0.1988E-03  0.5346E-05 -0.7905E+07
   -2.000002   31.06875  0.3922E-14  0.0000E+00  0.0000E+00  0.0000E+00  0.9899E-05  0.0000E+00
