 1 - depth, m
 2 - temperature, C
 3 - salinity, kg/kg
 4 - turbulent kinetic energy, m**2/s**2
 5 - dissipation rate, m**2/s**3
 6 - kinematic heat conductance, m**2/s
 7 - modulus of horizontal velocity, m/s
 8 - Richardson number, n/d
   -0.000000   30.11277  0.1610E-14  0.4354E-05  0.2567E-06  0.4714E-04  0.5568E-03  0.9394E+05
   -0.049997   30.14076  0.1610E-14  0.7739E-05  0.1136E-06  0.1781E-03  0.3111E-03  0.6924E+02
   -0.099994   30.15086  0.1610E-14  0.9376E-05  0.7895E-07  0.4070E-03  0.2263E-03  0.1356E+03
   -0.149992   30.15362  0.1610E-14  0.1040E-04  0.6691E-07  0.4829E-03  0.2004E-03  0.6649E+02
   -0.199991   30.15586  0.1610E-14  0.1120E-04  0.5979E-07  0.6425E-03  0.1792E-03  0.4366E+02
   -0.249989   30.15750  0.1610E-14  0.1184E-04  0.5512E-07  0.7662E-03  0.1632E-03  0.3261E+02
   -0.299989   30.15884  0.1610E-14  0.1237E-04  0.5179E-07  0.8884E-03  0.1498E-03  0.2620E+02
   -0.349988   30.15998  0.1610E-14  0.1282E-04  0.4931E-07  0.9993E-03  0.1384E-03  0.2256E+02
   -0.399988   30.16097  0.1610E-14  0.1320E-04  0.4738E-07  0.1101E-02  0.1282E-03  0.2022E+02
   -0.449988   30.16185  0.1610E-14  0.1352E-04  0.4583E-07  0.1195E-02  0.1193E-03  0.1905E+02
   -0.499988   30.16265  0.1610E-14  0.1381E-04  0.4456E-07  0.1282E-02  0.1114E-03  0.1860E+02
   -0.549989   30.16339  0.1610E-14  0.1407E-04  0.4352E-07  0.1361E-02  0.1043E-03  0.1842E+02
   -0.599990   30.16407  0.1610E-14  0.1429E-04  0.4265E-07  0.1433E-02  0.9790E-04  0.1850E+02
   -0.649991   30.16471  0.1610E-14  0.1448E-04  0.4193E-07  0.1497E-02  0.9205E-04  0.1881E+02
   -0.699992   30.16531  0.1610E-14  0.1465E-04  0.4135E-07  0.1554E-02  0.8667E-04  0.1933E+02
   -0.749993   30.16589  0.1610E-14  0.1480E-04  0.4087E-07  0.1603E-02  0.8170E-04  0.2005E+02
   -0.799995   30.16644  0.1610E-14  0.1492E-04  0.4051E-07  0.1645E-02  0.7709E-04  0.2100E+02
   -0.849996   30.16698  0.1610E-14  0.1502E-04  0.4023E-07  0.1680E-02  0.7277E-04  0.2220E+02
   -0.899998   30.16750  0.1610E-14  0.1511E-04  0.4005E-07  0.1706E-02  0.6872E-04  0.2367E+02
   -0.950000   30.16802  0.1610E-14  0.1517E-04  0.3997E-07  0.1724E-02  0.6490E-04  0.2548E+02
   -1.000001   30.16852  0.1610E-14  0.1521E-04  0.3997E-07  0.1735E-02  0.6129E-04  0.2767E+02
   -1.050003   30.16902  0.1610E-14  0.1524E-04  0.4007E-07  0.1736E-02  0.5787E-04  0.3158E+02
   -1.100005   30.16952  0.1610E-14  0.1524E-04  0.4028E-07  0.1818E-02  0.5460E-04  0.1055E+03
   -1.150006   30.17000  0.1610E-14  0.1522E-04  0.4061E-07  0.1658E-02  0.5169E-04  0.2369E+03
   -1.200008   30.17052  0.1610E-14  0.1518E-04  0.4107E-07  0.1679E-02  0.4867E-04  0.4616E+02
   -1.250010   30.17104  0.1610E-14  0.1512E-04  0.4168E-07  0.1648E-02  0.4578E-04  0.4966E+02
   -1.300011   30.17157  0.1610E-14  0.1502E-04  0.4250E-07  0.1600E-02  0.4300E-04  0.5841E+02
   -1.350012   30.17211  0.1610E-14  0.1490E-04  0.4356E-07  0.1542E-02  0.4030E-04  0.7023E+02
   -1.400013   30.17268  0.1610E-14  0.1475E-04  0.4495E-07  0.1467E-02  0.3768E-04  0.8699E+02
   -1.450014   30.17327  0.1610E-14  0.1455E-04  0.4678E-07  0.1389E-02  0.3510E-04  0.1112E+03
   -1.500015   30.17391  0.1610E-14  0.1430E-04  0.4927E-07  0.1280E-02  0.3258E-04  0.1506E+03
   -1.550015   30.17461  0.1610E-14  0.1399E-04  0.5272E-07  0.1195E-02  0.3004E-04  0.2139E+03
   -1.600015   30.17537  0.1610E-14  0.1361E-04  0.5786E-07  0.1052E-02  0.2756E-04  0.3772E+03
   -1.650015   30.17629  0.1610E-14  0.1310E-04  0.6567E-07  0.9753E-03  0.2492E-04  0.7357E+03
   -1.700014   30.17732  0.1610E-14  0.1241E-04  0.7967E-07  0.7950E-03  0.2237E-04 -0.2178E+05
   -1.750013   30.17912  0.1610E-14  0.1145E-04  0.1030E-06  0.7184E-03  0.1900E-04  0.1453E+07
   -1.800012   30.18082  0.1610E-14  0.1011E-04  0.1527E-06  0.4955E-03  0.1625E-04  0.1261E+09
   -1.850010   30.18694  0.1610E-14  0.8587E-05  0.2430E-06  0.4599E-03  0.1163E-04  0.8597E+08
   -1.900008   30.18614  0.1610E-14  0.6839E-05  0.5079E-06  0.2045E-03  0.9425E-05  0.1216E+07
   -1.950006   30.20662  0.1610E-14  0.4789E-05  0.1280E-05  0.1832E-03  0.5069E-05  0.2601E+06
   -2.000003   30.20842  0.1610E-14  0.0000E+00  0.0000E+00  0.0000E+00  0.9175E-05  0.0000E+00
