 1 - depth, m
 2 - temperature, C
 3 - salinity, kg/kg
 4 - turbulent kinetic energy, m**2/s**2
 5 - dissipation rate, m**2/s**3
 6 - kinematic heat conductance, m**2/s
 7 - modulus of horizontal velocity, m/s
 8 - Richardson number, n/d
   -0.000000   30.28415  0.1395E-14  0.5665E-05  0.3487E-06  0.5420E-04  0.3042E-02  0.1352E+04
   -0.049997   30.31752  0.1395E-14  0.9296E-05  0.1516E-06  0.2051E-03  0.1654E-02  0.2174E+02
   -0.099994   30.32825  0.1395E-14  0.1103E-04  0.1066E-06  0.4028E-03  0.1281E-02  0.5963E+01
   -0.149992   30.33188  0.1395E-14  0.1217E-04  0.8949E-07  0.5002E-03  0.1139E-02  0.2895E+01
   -0.199990   30.33467  0.1395E-14  0.1306E-04  0.7953E-07  0.6522E-03  0.1027E-02  0.1894E+01
   -0.249989   30.33676  0.1395E-14  0.1378E-04  0.7305E-07  0.7713E-03  0.9419E-03  0.1439E+01
   -0.299988   30.33847  0.1395E-14  0.1439E-04  0.6840E-07  0.8851E-03  0.8698E-03  0.1266E+01
   -0.349988   30.33993  0.1395E-14  0.1492E-04  0.6478E-07  0.1002E-02  0.8046E-03  0.1262E+01
   -0.399987   30.34119  0.1395E-14  0.1540E-04  0.6181E-07  0.1127E-02  0.7423E-03  0.1269E+01
   -0.449987   30.34229  0.1395E-14  0.1584E-04  0.5933E-07  0.1250E-02  0.6845E-03  0.1278E+01
   -0.499988   30.34326  0.1395E-14  0.1623E-04  0.5726E-07  0.1366E-02  0.6321E-03  0.1286E+01
   -0.549988   30.34413  0.1395E-14  0.1657E-04  0.5554E-07  0.1472E-02  0.5849E-03  0.1284E+01
   -0.599989   30.34493  0.1395E-14  0.1686E-04  0.5412E-07  0.1568E-02  0.5423E-03  0.1279E+01
   -0.649990   30.34566  0.1395E-14  0.1711E-04  0.5296E-07  0.1652E-02  0.5038E-03  0.1268E+01
   -0.699991   30.34635  0.1395E-14  0.1731E-04  0.5203E-07  0.1723E-02  0.4690E-03  0.1254E+01
   -0.749992   30.34700  0.1395E-14  0.1747E-04  0.5129E-07  0.1782E-02  0.4376E-03  0.1237E+01
   -0.799994   30.34763  0.1395E-14  0.1759E-04  0.5073E-07  0.1827E-02  0.4093E-03  0.1219E+01
   -0.849995   30.34823  0.1395E-14  0.1768E-04  0.5033E-07  0.1860E-02  0.3837E-03  0.1201E+01
   -0.899997   30.34881  0.1395E-14  0.1773E-04  0.5007E-07  0.1880E-02  0.3605E-03  0.1188E+01
   -0.949998   30.34939  0.1395E-14  0.1776E-04  0.4995E-07  0.1889E-02  0.3395E-03  0.1184E+01
   -1.000000   30.34995  0.1395E-14  0.1776E-04  0.4996E-07  0.1889E-02  0.3204E-03  0.1208E+01
   -1.050002   30.35052  0.1395E-14  0.1774E-04  0.5009E-07  0.1876E-02  0.3029E-03  0.1301E+01
   -1.100003   30.35108  0.1395E-14  0.1769E-04  0.5035E-07  0.2018E-02  0.2865E-03  0.4025E+01
   -1.150005   30.35160  0.1395E-14  0.1761E-04  0.5080E-07  0.1708E-02  0.2726E-03  0.1051E+02
   -1.200007   30.35221  0.1395E-14  0.1750E-04  0.5141E-07  0.1777E-02  0.2570E-03  0.1907E+01
   -1.250008   30.35280  0.1395E-14  0.1737E-04  0.5225E-07  0.1741E-02  0.2425E-03  0.2045E+01
   -1.300009   30.35340  0.1395E-14  0.1720E-04  0.5339E-07  0.1676E-02  0.2285E-03  0.2431E+01
   -1.350010   30.35402  0.1395E-14  0.1699E-04  0.5491E-07  0.1604E-02  0.2148E-03  0.2984E+01
   -1.400011   30.35467  0.1395E-14  0.1673E-04  0.5697E-07  0.1510E-02  0.2014E-03  0.3796E+01
   -1.450012   30.35537  0.1395E-14  0.1642E-04  0.5977E-07  0.1422E-02  0.1880E-03  0.5051E+01
   -1.500013   30.35612  0.1395E-14  0.1604E-04  0.6372E-07  0.1297E-02  0.1748E-03  0.7288E+01
   -1.550013   30.35696  0.1395E-14  0.1558E-04  0.6947E-07  0.1211E-02  0.1614E-03  0.9511E+01
   -1.600013   30.35790  0.1395E-14  0.1498E-04  0.7863E-07  0.1060E-02  0.1480E-03 -0.2840E+03
   -1.650013   30.35916  0.1395E-14  0.1419E-04  0.9301E-07  0.9692E-03  0.1329E-03 -0.2201E+03
   -1.700012   30.36064  0.1395E-14  0.1310E-04  0.1189E-06  0.7863E-03  0.1176E-03  0.4628E+04
   -1.750011   30.36337  0.1395E-14  0.1184E-04  0.1591E-06  0.7074E-03  0.9710E-04  0.3791E+05
   -1.800010   30.36496  0.1395E-14  0.1025E-04  0.2494E-06  0.4776E-03  0.8362E-04  0.1499E+05
   -1.850008   30.37556  0.1395E-14  0.8681E-05  0.4179E-06  0.4621E-03  0.5662E-04  0.1167E+08
   -1.900006   30.37090  0.1395E-14  0.6930E-05  0.8846E-06  0.2146E-03  0.4717E-04 -0.9225E+05
   -1.950003   30.39806  0.1395E-14  0.4999E-05  0.2069E-05  0.2280E-03  0.2468E-04 -0.3218E+06
   -2.000000   30.39767  0.1395E-14  0.0000E+00  0.0000E+00  0.0000E+00  0.5086E-04  0.0000E+00
