 1 - depth, m
 2 - temperature, C
 3 - salinity, kg/kg
 4 - turbulent kinetic energy, m**2/s**2
 5 - dissipation rate, m**2/s**3
 6 - kinematic heat conductance, m**2/s
 7 - modulus of horizontal velocity, m/s
 8 - Richardson number, n/d
   -0.000000   30.94982  0.2238E-14  0.5235E-05  0.3480E-06  0.5352E-04  0.7395E-03  0.5426E+03
   -0.049997   30.98324  0.2238E-14  0.9100E-05  0.1542E-06  0.1831E-03  0.4279E-03  0.4881E+02
   -0.099994   30.99663  0.2238E-14  0.1107E-04  0.1056E-06  0.4286E-03  0.3096E-03  0.9209E+02
   -0.149992   31.00010  0.2238E-14  0.1228E-04  0.8883E-07  0.5003E-03  0.2748E-03  0.4542E+02
   -0.199990   31.00294  0.2238E-14  0.1323E-04  0.7898E-07  0.6746E-03  0.2458E-03  0.2935E+02
   -0.249989   31.00499  0.2238E-14  0.1398E-04  0.7253E-07  0.8042E-03  0.2243E-03  0.2186E+02
   -0.299988   31.00666  0.2238E-14  0.1459E-04  0.6793E-07  0.9351E-03  0.2063E-03  0.1742E+02
   -0.349988   31.00806  0.2238E-14  0.1509E-04  0.6448E-07  0.1053E-02  0.1909E-03  0.1496E+02
   -0.399987   31.00927  0.2238E-14  0.1552E-04  0.6179E-07  0.1161E-02  0.1773E-03  0.1331E+02
   -0.449987   31.01035  0.2238E-14  0.1588E-04  0.5961E-07  0.1260E-02  0.1653E-03  0.1252E+02
   -0.499988   31.01132  0.2238E-14  0.1620E-04  0.5781E-07  0.1352E-02  0.1547E-03  0.1214E+02
   -0.549988   31.01221  0.2238E-14  0.1647E-04  0.5630E-07  0.1435E-02  0.1451E-03  0.1201E+02
   -0.599989   31.01303  0.2238E-14  0.1670E-04  0.5504E-07  0.1510E-02  0.1365E-03  0.1197E+02
   -0.649990   31.01380  0.2238E-14  0.1690E-04  0.5397E-07  0.1577E-02  0.1286E-03  0.1216E+02
   -0.699991   31.01453  0.2238E-14  0.1706E-04  0.5307E-07  0.1636E-02  0.1214E-03  0.1239E+02
   -0.749992   31.01522  0.2238E-14  0.1720E-04  0.5233E-07  0.1687E-02  0.1146E-03  0.1284E+02
   -0.799994   31.01588  0.2238E-14  0.1731E-04  0.5172E-07  0.1729E-02  0.1084E-03  0.1334E+02
   -0.849995   31.01651  0.2238E-14  0.1740E-04  0.5123E-07  0.1763E-02  0.1025E-03  0.1409E+02
   -0.899997   31.01713  0.2238E-14  0.1746E-04  0.5087E-07  0.1788E-02  0.9700E-04  0.1490E+02
   -0.949998   31.01774  0.2238E-14  0.1749E-04  0.5063E-07  0.1805E-02  0.9180E-04  0.1604E+02
   -1.000000   31.01833  0.2238E-14  0.1750E-04  0.5051E-07  0.1813E-02  0.8687E-04  0.1728E+02
   -1.050002   31.01891  0.2238E-14  0.1749E-04  0.5051E-07  0.1809E-02  0.8218E-04  0.1969E+02
   -1.100003   31.01949  0.2238E-14  0.1745E-04  0.5066E-07  0.1919E-02  0.7770E-04  0.6364E+02
   -1.150005   31.02004  0.2238E-14  0.1738E-04  0.5098E-07  0.1689E-02  0.7374E-04  0.1542E+03
   -1.200007   31.02065  0.2238E-14  0.1729E-04  0.5145E-07  0.1732E-02  0.6951E-04  0.2902E+02
   -1.250008   31.02125  0.2238E-14  0.1716E-04  0.5215E-07  0.1699E-02  0.6550E-04  0.3087E+02
   -1.300009   31.02186  0.2238E-14  0.1700E-04  0.5313E-07  0.1641E-02  0.6164E-04  0.3660E+02
   -1.350010   31.02248  0.2238E-14  0.1681E-04  0.5446E-07  0.1575E-02  0.5788E-04  0.4417E+02
   -1.400011   31.02313  0.2238E-14  0.1656E-04  0.5626E-07  0.1488E-02  0.5421E-04  0.5562E+02
   -1.450012   31.02382  0.2238E-14  0.1627E-04  0.5874E-07  0.1403E-02  0.5058E-04  0.7234E+02
   -1.500013   31.02456  0.2238E-14  0.1591E-04  0.6223E-07  0.1283E-02  0.4699E-04  0.1016E+03
   -1.550013   31.02537  0.2238E-14  0.1547E-04  0.6726E-07  0.1197E-02  0.4336E-04  0.1542E+03
   -1.600013   31.02627  0.2238E-14  0.1491E-04  0.7520E-07  0.1049E-02  0.3979E-04  0.1397E+04
   -1.650013   31.02742  0.2238E-14  0.1418E-04  0.8779E-07  0.9628E-03  0.3583E-04 -0.1717E+03
   -1.700012   31.02879  0.2238E-14  0.1317E-04  0.1103E-06  0.7807E-03  0.3183E-04  0.1981E+05
   -1.750011   31.03122  0.2238E-14  0.1192E-04  0.1461E-06  0.7021E-03  0.2652E-04  0.9796E+06
   -1.800010   31.03295  0.2238E-14  0.1029E-04  0.2253E-06  0.4758E-03  0.2272E-04  0.3484E+05
   -1.850008   31.04234  0.2238E-14  0.8634E-05  0.3736E-06  0.4521E-03  0.1547E-04  0.1994E+09
   -1.900006   31.03887  0.2238E-14  0.6787E-05  0.7856E-06  0.2010E-03  0.1273E-04 -0.7677E+06
   -1.950003   31.06500  0.2238E-14  0.4902E-05  0.1868E-05  0.2219E-03  0.6523E-05 -0.1653E+07
   -2.000000   31.06265  0.2238E-14  0.0000E+00  0.0000E+00  0.0000E+00  0.1348E-04  0.0000E+00
