 1 - depth, m
 2 - temperature, C
 3 - salinity, kg/kg
 4 - turbulent kinetic energy, m**2/s**2
 5 - dissipation rate, m**2/s**3
 6 - kinematic heat conductance, m**2/s
 7 - modulus of horizontal velocity, m/s
 8 - Richardson number, n/d
   -0.000000   30.22937  0.3936E-14  0.5154E-05  0.2892E-06  0.5001E-04  0.3156E-02  0.5579E+03
   -0.049997   30.25875  0.3936E-14  0.8403E-05  0.1256E-06  0.2025E-03  0.1678E-02  0.4050E+02
   -0.099994   30.26766  0.3936E-14  0.9926E-05  0.8903E-07  0.3878E-03  0.1316E-02  0.6922E+01
   -0.149992   30.27077  0.3936E-14  0.1093E-04  0.7510E-07  0.4835E-03  0.1172E-02  0.3027E+01
   -0.199991   30.27316  0.3936E-14  0.1173E-04  0.6698E-07  0.6222E-03  0.1060E-02  0.2017E+01
   -0.249989   30.27497  0.3936E-14  0.1240E-04  0.6163E-07  0.7353E-03  0.9719E-03  0.1608E+01
   -0.299988   30.27647  0.3936E-14  0.1297E-04  0.5770E-07  0.8536E-03  0.8948E-03  0.1476E+01
   -0.349988   30.27773  0.3936E-14  0.1350E-04  0.5461E-07  0.9794E-03  0.8226E-03  0.1453E+01
   -0.399988   30.27881  0.3936E-14  0.1398E-04  0.5211E-07  0.1109E-02  0.7533E-03  0.1429E+01
   -0.449988   30.27975  0.3936E-14  0.1441E-04  0.5005E-07  0.1234E-02  0.6897E-03  0.1408E+01
   -0.499988   30.28058  0.3936E-14  0.1479E-04  0.4837E-07  0.1351E-02  0.6326E-03  0.1403E+01
   -0.549989   30.28133  0.3936E-14  0.1513E-04  0.4699E-07  0.1458E-02  0.5817E-03  0.1388E+01
   -0.599989   30.28201  0.3936E-14  0.1542E-04  0.4589E-07  0.1553E-02  0.5360E-03  0.1381E+01
   -0.649991   30.28264  0.3936E-14  0.1566E-04  0.4500E-07  0.1637E-02  0.4952E-03  0.1367E+01
   -0.699992   30.28323  0.3936E-14  0.1586E-04  0.4430E-07  0.1708E-02  0.4585E-03  0.1361E+01
   -0.749993   30.28380  0.3936E-14  0.1603E-04  0.4377E-07  0.1765E-02  0.4256E-03  0.1348E+01
   -0.799995   30.28434  0.3936E-14  0.1616E-04  0.4339E-07  0.1810E-02  0.3960E-03  0.1346E+01
   -0.849996   30.28486  0.3936E-14  0.1626E-04  0.4314E-07  0.1841E-02  0.3694E-03  0.1338E+01
   -0.899998   30.28537  0.3936E-14  0.1633E-04  0.4301E-07  0.1861E-02  0.3454E-03  0.1343E+01
   -0.949999   30.28587  0.3936E-14  0.1637E-04  0.4299E-07  0.1870E-02  0.3238E-03  0.1345E+01
   -1.000001   30.28637  0.3936E-14  0.1639E-04  0.4308E-07  0.1869E-02  0.3042E-03  0.1371E+01
   -1.050003   30.28686  0.3936E-14  0.1638E-04  0.4328E-07  0.1855E-02  0.2864E-03  0.1448E+01
   -1.100005   30.28736  0.3936E-14  0.1636E-04  0.4357E-07  0.1987E-02  0.2702E-03  0.4401E+01
   -1.150006   30.28782  0.3936E-14  0.1631E-04  0.4400E-07  0.1706E-02  0.2569E-03  0.1079E+02
   -1.200008   30.28836  0.3936E-14  0.1623E-04  0.4457E-07  0.1766E-02  0.2422E-03  0.2010E+01
   -1.250009   30.28888  0.3936E-14  0.1613E-04  0.4533E-07  0.1730E-02  0.2284E-03  0.2159E+01
   -1.300011   30.28941  0.3936E-14  0.1600E-04  0.4633E-07  0.1671E-02  0.2151E-03  0.2545E+01
   -1.350012   30.28996  0.3936E-14  0.1584E-04  0.4764E-07  0.1602E-02  0.2021E-03  0.3097E+01
   -1.400013   30.29054  0.3936E-14  0.1564E-04  0.4936E-07  0.1514E-02  0.1894E-03  0.3876E+01
   -1.450014   30.29115  0.3936E-14  0.1539E-04  0.5166E-07  0.1428E-02  0.1768E-03  0.5061E+01
   -1.500014   30.29181  0.3936E-14  0.1508E-04  0.5482E-07  0.1310E-02  0.1644E-03  0.7040E+01
   -1.550015   30.29254  0.3936E-14  0.1470E-04  0.5932E-07  0.1220E-02  0.1518E-03  0.1082E+02
   -1.600015   30.29335  0.3936E-14  0.1422E-04  0.6624E-07  0.1072E-02  0.1393E-03 -0.2120E+03
   -1.650014   30.29438  0.3936E-14  0.1359E-04  0.7706E-07  0.9856E-03  0.1257E-03  0.1312E+03
   -1.700014   30.29561  0.3936E-14  0.1271E-04  0.9615E-07  0.8002E-03  0.1119E-03  0.5207E+04
   -1.750013   30.29772  0.3936E-14  0.1162E-04  0.1261E-06  0.7210E-03  0.9402E-04  0.2170E+05
   -1.800012   30.29932  0.3936E-14  0.1017E-04  0.1917E-06  0.4933E-03  0.8076E-04  0.7067E+05
   -1.850010   30.30729  0.3936E-14  0.8641E-05  0.3140E-06  0.4648E-03  0.5643E-04  0.7542E+08
   -1.900008   30.30478  0.3936E-14  0.6899E-05  0.6531E-06  0.2159E-03  0.4649E-04 -0.4792E+05
   -1.950005   30.32786  0.3936E-14  0.4892E-05  0.1598E-05  0.2032E-03  0.2484E-04 -0.3468E+06
   -2.000002   30.32927  0.3936E-14  0.0000E+00  0.0000E+00  0.0000E+00  0.4755E-04  0.0000E+00
