 1 - depth, m
 2 - temperature, C
 3 - salinity, kg/kg
 4 - turbulent kinetic energy, m**2/s**2
 5 - dissipation rate, m**2/s**3
 6 - kinematic heat conductance, m**2/s
 7 - modulus of horizontal velocity, m/s
 8 - Richardson number, n/d
   -0.000000   30.58311  0.1073E-13  0.4920E-05  0.3089E-06  0.5011E-04  0.1230E-02  0.4297E+04
   -0.049997   30.61502  0.1073E-13  0.8479E-05  0.1375E-06  0.1823E-03  0.6959E-03  0.2140E+03
   -0.099994   30.62690  0.1073E-13  0.1027E-04  0.9506E-07  0.4032E-03  0.5128E-03  0.3236E+02
   -0.149992   30.63024  0.1073E-13  0.1140E-04  0.7984E-07  0.4862E-03  0.4532E-03  0.1592E+02
   -0.199991   30.63288  0.1073E-13  0.1228E-04  0.7090E-07  0.6489E-03  0.4050E-03  0.1022E+02
   -0.249989   30.63481  0.1073E-13  0.1297E-04  0.6504E-07  0.7748E-03  0.3689E-03  0.7551E+01
   -0.299988   30.63637  0.1073E-13  0.1353E-04  0.6086E-07  0.9009E-03  0.3388E-03  0.6005E+01
   -0.349988   30.63768  0.1073E-13  0.1400E-04  0.5771E-07  0.1015E-02  0.3130E-03  0.5136E+01
   -0.399988   30.63882  0.1073E-13  0.1439E-04  0.5526E-07  0.1119E-02  0.2903E-03  0.4573E+01
   -0.449988   30.63983  0.1073E-13  0.1473E-04  0.5327E-07  0.1215E-02  0.2702E-03  0.4294E+01
   -0.499988   30.64074  0.1073E-13  0.1502E-04  0.5161E-07  0.1304E-02  0.2525E-03  0.4173E+01
   -0.549989   30.64157  0.1073E-13  0.1527E-04  0.5023E-07  0.1385E-02  0.2366E-03  0.4118E+01
   -0.599989   30.64233  0.1073E-13  0.1548E-04  0.4905E-07  0.1458E-02  0.2222E-03  0.4114E+01
   -0.649991   30.64305  0.1073E-13  0.1566E-04  0.4806E-07  0.1524E-02  0.2090E-03  0.4165E+01
   -0.699992   30.64373  0.1073E-13  0.1581E-04  0.4721E-07  0.1582E-02  0.1970E-03  0.4252E+01
   -0.749993   30.64437  0.1073E-13  0.1594E-04  0.4650E-07  0.1632E-02  0.1858E-03  0.4391E+01
   -0.799995   30.64498  0.1073E-13  0.1604E-04  0.4590E-07  0.1675E-02  0.1754E-03  0.4567E+01
   -0.849996   30.64557  0.1073E-13  0.1612E-04  0.4542E-07  0.1709E-02  0.1657E-03  0.4801E+01
   -0.899998   30.64614  0.1073E-13  0.1617E-04  0.4504E-07  0.1736E-02  0.1566E-03  0.5082E+01
   -0.949999   30.64670  0.1073E-13  0.1620E-04  0.4476E-07  0.1754E-02  0.1480E-03  0.5439E+01
   -1.000001   30.64724  0.1073E-13  0.1621E-04  0.4459E-07  0.1764E-02  0.1399E-03  0.5864E+01
   -1.050003   30.64778  0.1073E-13  0.1619E-04  0.4452E-07  0.1764E-02  0.1322E-03  0.6640E+01
   -1.100005   30.64831  0.1073E-13  0.1616E-04  0.4457E-07  0.1857E-02  0.1248E-03  0.2179E+02
   -1.150006   30.64880  0.1073E-13  0.1610E-04  0.4476E-07  0.1670E-02  0.1183E-03  0.5088E+02
   -1.200008   30.64936  0.1073E-13  0.1601E-04  0.4508E-07  0.1701E-02  0.1114E-03  0.9638E+01
   -1.250009   30.64989  0.1073E-13  0.1590E-04  0.4559E-07  0.1670E-02  0.1049E-03  0.1025E+02
   -1.300011   30.65044  0.1073E-13  0.1576E-04  0.4631E-07  0.1619E-02  0.9861E-04  0.1202E+02
   -1.350012   30.65099  0.1073E-13  0.1559E-04  0.4731E-07  0.1558E-02  0.9250E-04  0.1444E+02
   -1.400013   30.65157  0.1073E-13  0.1537E-04  0.4868E-07  0.1478E-02  0.8655E-04  0.1795E+02
   -1.450014   30.65217  0.1073E-13  0.1512E-04  0.5057E-07  0.1399E-02  0.8069E-04  0.2308E+02
   -1.500014   30.65281  0.1073E-13  0.1481E-04  0.5322E-07  0.1286E-02  0.7494E-04  0.3177E+02
   -1.550015   30.65352  0.1073E-13  0.1443E-04  0.5702E-07  0.1202E-02  0.6914E-04  0.4661E+02
   -1.600015   30.65428  0.1073E-13  0.1395E-04  0.6292E-07  0.1056E-02  0.6345E-04  0.1286E+03
   -1.650014   30.65523  0.1073E-13  0.1334E-04  0.7222E-07  0.9775E-03  0.5729E-04  0.2242E+04
   -1.700014   30.65633  0.1073E-13  0.1251E-04  0.8875E-07  0.7927E-03  0.5118E-04  0.1071E+05
   -1.750013   30.65825  0.1073E-13  0.1142E-04  0.1155E-06  0.7179E-03  0.4307E-04  0.6841E+05
   -1.800012   30.65973  0.1073E-13  0.1000E-04  0.1739E-06  0.4938E-03  0.3705E-04  0.6614E+05
   -1.850010   30.66671  0.1073E-13  0.8449E-05  0.2841E-06  0.4598E-03  0.2605E-04  0.7700E+08
   -1.900008   30.66470  0.1073E-13  0.6694E-05  0.5934E-06  0.2109E-03  0.2132E-04  0.5601E+06
   -1.950005   30.68455  0.1073E-13  0.4699E-05  0.1462E-05  0.1962E-03  0.1137E-04 -0.7778E+05
   -2.000002   30.68585  0.1073E-13  0.0000E+00  0.0000E+00  0.0000E+00  0.2161E-04  0.0000E+00
