 1 - depth, m
 2 - temperature, C
 3 - salinity, kg/kg
 4 - turbulent kinetic energy, m**2/s**2
 5 - dissipation rate, m**2/s**3
 6 - kinematic heat conductance, m**2/s
 7 - modulus of horizontal velocity, m/s
 8 - Richardson number, n/d
   -0.000000   30.53371  0.1698E-14  0.4995E-05  0.3160E-06  0.5173E-04  0.1912E-02  0.4600E+04
   -0.049997   30.56456  0.1698E-14  0.8444E-05  0.1409E-06  0.1752E-03  0.1102E-02  0.1107E+03
   -0.099994   30.57689  0.1698E-14  0.1025E-04  0.9627E-07  0.3993E-03  0.8045E-03  0.1344E+02
   -0.149992   30.58026  0.1698E-14  0.1137E-04  0.8058E-07  0.4782E-03  0.7107E-03  0.6562E+01
   -0.199991   30.58295  0.1698E-14  0.1224E-04  0.7139E-07  0.6409E-03  0.6343E-03  0.4192E+01
   -0.249989   30.58490  0.1698E-14  0.1293E-04  0.6537E-07  0.7664E-03  0.5773E-03  0.3087E+01
   -0.299988   30.58648  0.1698E-14  0.1349E-04  0.6108E-07  0.8921E-03  0.5299E-03  0.2448E+01
   -0.349988   30.58780  0.1698E-14  0.1396E-04  0.5785E-07  0.1006E-02  0.4893E-03  0.2090E+01
   -0.399988   30.58895  0.1698E-14  0.1435E-04  0.5534E-07  0.1110E-02  0.4535E-03  0.1858E+01
   -0.449988   30.58996  0.1698E-14  0.1468E-04  0.5329E-07  0.1206E-02  0.4219E-03  0.1744E+01
   -0.499988   30.59087  0.1698E-14  0.1497E-04  0.5159E-07  0.1295E-02  0.3941E-03  0.1693E+01
   -0.549989   30.59171  0.1698E-14  0.1521E-04  0.5016E-07  0.1376E-02  0.3691E-03  0.1670E+01
   -0.599990   30.59248  0.1698E-14  0.1542E-04  0.4895E-07  0.1450E-02  0.3465E-03  0.1667E+01
   -0.649991   30.59320  0.1698E-14  0.1560E-04  0.4792E-07  0.1516E-02  0.3259E-03  0.1687E+01
   -0.699992   30.59387  0.1698E-14  0.1575E-04  0.4704E-07  0.1574E-02  0.3070E-03  0.1721E+01
   -0.749993   30.59451  0.1698E-14  0.1587E-04  0.4630E-07  0.1625E-02  0.2895E-03  0.1776E+01
   -0.799995   30.59513  0.1698E-14  0.1597E-04  0.4567E-07  0.1668E-02  0.2733E-03  0.1845E+01
   -0.849996   30.59571  0.1698E-14  0.1604E-04  0.4516E-07  0.1703E-02  0.2581E-03  0.1938E+01
   -0.899998   30.59628  0.1698E-14  0.1609E-04  0.4475E-07  0.1731E-02  0.2439E-03  0.2049E+01
   -0.949999   30.59684  0.1698E-14  0.1612E-04  0.4444E-07  0.1749E-02  0.2304E-03  0.2190E+01
   -1.000001   30.59738  0.1698E-14  0.1612E-04  0.4423E-07  0.1760E-02  0.2177E-03  0.2358E+01
   -1.050003   30.59791  0.1698E-14  0.1611E-04  0.4412E-07  0.1761E-02  0.2057E-03  0.2667E+01
   -1.100005   30.59843  0.1698E-14  0.1607E-04  0.4414E-07  0.1851E-02  0.1942E-03  0.8788E+01
   -1.150006   30.59893  0.1698E-14  0.1601E-04  0.4428E-07  0.1675E-02  0.1840E-03  0.2017E+02
   -1.200008   30.59947  0.1698E-14  0.1593E-04  0.4456E-07  0.1703E-02  0.1733E-03  0.3843E+01
   -1.250009   30.60000  0.1698E-14  0.1581E-04  0.4501E-07  0.1673E-02  0.1631E-03  0.4075E+01
   -1.300011   30.60053  0.1698E-14  0.1567E-04  0.4567E-07  0.1623E-02  0.1533E-03  0.4765E+01
   -1.350012   30.60108  0.1698E-14  0.1550E-04  0.4660E-07  0.1564E-02  0.1438E-03  0.5697E+01
   -1.400013   30.60164  0.1698E-14  0.1529E-04  0.4788E-07  0.1486E-02  0.1346E-03  0.7046E+01
   -1.450014   30.60223  0.1698E-14  0.1504E-04  0.4965E-07  0.1409E-02  0.1255E-03  0.8987E+01
   -1.500014   30.60286  0.1698E-14  0.1473E-04  0.5214E-07  0.1297E-02  0.1165E-03  0.1227E+02
   -1.550015   30.60354  0.1698E-14  0.1436E-04  0.5571E-07  0.1214E-02  0.1075E-03  0.1761E+02
   -1.600015   30.60427  0.1698E-14  0.1391E-04  0.6125E-07  0.1070E-02  0.9873E-04  0.6859E+03
   -1.650014   30.60518  0.1698E-14  0.1332E-04  0.6994E-07  0.9908E-03  0.8924E-04  0.1869E+03
   -1.700014   30.60620  0.1698E-14  0.1251E-04  0.8544E-07  0.8080E-03  0.7990E-04  0.7100E+04
   -1.750013   30.60801  0.1698E-14  0.1146E-04  0.1109E-06  0.7321E-03  0.6749E-04 -0.1331E+04
   -1.800012   30.60947  0.1698E-14  0.1007E-04  0.1651E-06  0.5040E-03  0.5796E-04  0.7294E+05
   -1.850010   30.61565  0.1698E-14  0.8559E-05  0.2661E-06  0.4734E-03  0.4132E-04  0.8999E+07
   -1.900008   30.61413  0.1698E-14  0.6808E-05  0.5531E-06  0.2132E-03  0.3388E-04  0.1107E+05
   -1.950005   30.63259  0.1698E-14  0.4752E-05  0.1376E-05  0.1920E-03  0.1830E-04 -0.2069E+06
   -2.000002   30.63389  0.1698E-14  0.0000E+00  0.0000E+00  0.0000E+00  0.3383E-04  0.0000E+00
