 1 - depth, m
 2 - temperature, C
 3 - salinity, kg/kg
 4 - turbulent kinetic energy, m**2/s**2
 5 - dissipation rate, m**2/s**3
 6 - kinematic heat conductance, m**2/s
 7 - modulus of horizontal velocity, m/s
 8 - Richardson number, n/d
   -0.000000   30.13693  0.6524E-13  0.4491E-05  0.2720E-06  0.4935E-04  0.9848E-03  0.6949E+04
   -0.049997   30.16549  0.6524E-13  0.7802E-05  0.1207E-06  0.1694E-03  0.5654E-03  0.2256E+02
   -0.099994   30.17706  0.6524E-13  0.9481E-05  0.8278E-07  0.3987E-03  0.4073E-03  0.4882E+02
   -0.149992   30.18006  0.6524E-13  0.1051E-04  0.6978E-07  0.4713E-03  0.3603E-03  0.2351E+02
   -0.199991   30.18250  0.6524E-13  0.1131E-04  0.6208E-07  0.6292E-03  0.3215E-03  0.1522E+02
   -0.249989   30.18427  0.6524E-13  0.1194E-04  0.5700E-07  0.7511E-03  0.2925E-03  0.1126E+02
   -0.299989   30.18571  0.6524E-13  0.1245E-04  0.5335E-07  0.8719E-03  0.2683E-03  0.8973E+01
   -0.349988   30.18692  0.6524E-13  0.1288E-04  0.5060E-07  0.9816E-03  0.2476E-03  0.7680E+01
   -0.399988   30.18797  0.6524E-13  0.1324E-04  0.4845E-07  0.1082E-02  0.2292E-03  0.6843E+01
   -0.449988   30.18889  0.6524E-13  0.1354E-04  0.4670E-07  0.1175E-02  0.2131E-03  0.6429E+01
   -0.499988   30.18973  0.6524E-13  0.1381E-04  0.4524E-07  0.1260E-02  0.1988E-03  0.6252E+01
   -0.549989   30.19049  0.6524E-13  0.1404E-04  0.4401E-07  0.1339E-02  0.1860E-03  0.6172E+01
   -0.599990   30.19120  0.6524E-13  0.1423E-04  0.4297E-07  0.1410E-02  0.1744E-03  0.6170E+01
   -0.649991   30.19185  0.6524E-13  0.1440E-04  0.4208E-07  0.1474E-02  0.1639E-03  0.6247E+01
   -0.699992   30.19247  0.6524E-13  0.1454E-04  0.4133E-07  0.1531E-02  0.1542E-03  0.6380E+01
   -0.749993   30.19306  0.6524E-13  0.1466E-04  0.4068E-07  0.1580E-02  0.1452E-03  0.6588E+01
   -0.799995   30.19362  0.6524E-13  0.1475E-04  0.4015E-07  0.1622E-02  0.1369E-03  0.6853E+01
   -0.849996   30.19416  0.6524E-13  0.1482E-04  0.3970E-07  0.1657E-02  0.1292E-03  0.7199E+01
   -0.899998   30.19468  0.6524E-13  0.1487E-04  0.3935E-07  0.1684E-02  0.1219E-03  0.7618E+01
   -0.950000   30.19519  0.6524E-13  0.1491E-04  0.3908E-07  0.1704E-02  0.1151E-03  0.8143E+01
   -1.000001   30.19568  0.6524E-13  0.1492E-04  0.3890E-07  0.1715E-02  0.1086E-03  0.8769E+01
   -1.050003   30.19617  0.6524E-13  0.1491E-04  0.3881E-07  0.1718E-02  0.1025E-03  0.9922E+01
   -1.100005   30.19665  0.6524E-13  0.1488E-04  0.3882E-07  0.1796E-02  0.9663E-04  0.3310E+02
   -1.150007   30.19710  0.6524E-13  0.1484E-04  0.3894E-07  0.1649E-02  0.9140E-04  0.7314E+02
   -1.200008   30.19759  0.6524E-13  0.1477E-04  0.3918E-07  0.1668E-02  0.8604E-04  0.1417E+02
   -1.250010   30.19808  0.6524E-13  0.1467E-04  0.3956E-07  0.1640E-02  0.8090E-04  0.1505E+02
   -1.300011   30.19856  0.6524E-13  0.1456E-04  0.4011E-07  0.1595E-02  0.7595E-04  0.1752E+02
   -1.350012   30.19906  0.6524E-13  0.1441E-04  0.4088E-07  0.1539E-02  0.7117E-04  0.2082E+02
   -1.400013   30.19957  0.6524E-13  0.1424E-04  0.4193E-07  0.1468E-02  0.6651E-04  0.2549E+02
   -1.450014   30.20010  0.6524E-13  0.1402E-04  0.4336E-07  0.1394E-02  0.6196E-04  0.3214E+02
   -1.500015   30.20066  0.6524E-13  0.1376E-04  0.4536E-07  0.1289E-02  0.5750E-04  0.4290E+02
   -1.550015   30.20127  0.6524E-13  0.1345E-04  0.4817E-07  0.1205E-02  0.5304E-04  0.5977E+02
   -1.600015   30.20192  0.6524E-13  0.1306E-04  0.5243E-07  0.1066E-02  0.4868E-04  0.1030E+03
   -1.650015   30.20269  0.6524E-13  0.1258E-04  0.5896E-07  0.9868E-03  0.4408E-04  0.1479E+04
   -1.700014   30.20355  0.6524E-13  0.1191E-04  0.7074E-07  0.8103E-03  0.3961E-04  0.3005E+05
   -1.750013   30.20502  0.6524E-13  0.1101E-04  0.9041E-07  0.7299E-03  0.3383E-04  0.8506E+05
   -1.800012   30.20639  0.6524E-13  0.9770E-05  0.1308E-06  0.5163E-03  0.2901E-04  0.1525E+07
   -1.850010   30.21100  0.6524E-13  0.8316E-05  0.2066E-06  0.4611E-03  0.2120E-04  0.9446E+07
   -1.900008   30.21073  0.6524E-13  0.6549E-05  0.4320E-06  0.2102E-03  0.1707E-04 -0.2225E+05
   -1.950006   30.22650  0.6524E-13  0.4514E-05  0.1108E-05  0.1727E-03  0.9250E-05 -0.1305E+07
   -2.000003   30.22918  0.6524E-13  0.0000E+00  0.0000E+00  0.0000E+00  0.1640E-04  0.0000E+00
