 1 - depth, m
 2 - temperature, C
 3 - salinity, kg/kg
 4 - turbulent kinetic energy, m**2/s**2
 5 - dissipation rate, m**2/s**3
 6 - kinematic heat conductance, m**2/s
 7 - modulus of horizontal velocity, m/s
 8 - Richardson number, n/d
   -0.000000   29.82687  0.4293E-14  0.4760E-05  0.2672E-06  0.4880E-04  0.2602E-02  0.2173E+04
   -0.049997   29.85513  0.4293E-14  0.7905E-05  0.1176E-06  0.1869E-03  0.1408E-02  0.9442E+02
   -0.099994   29.86435  0.4293E-14  0.9413E-05  0.8267E-07  0.3790E-03  0.1075E-02  0.7202E+01
   -0.149992   29.86741  0.4294E-14  0.1039E-04  0.6948E-07  0.4713E-03  0.9500E-03  0.3632E+01
   -0.199991   29.86976  0.4294E-14  0.1116E-04  0.6175E-07  0.6160E-03  0.8516E-03  0.2364E+01
   -0.249989   29.87151  0.4294E-14  0.1177E-04  0.5667E-07  0.7348E-03  0.7765E-03  0.1761E+01
   -0.299989   29.87294  0.4294E-14  0.1227E-04  0.5305E-07  0.8453E-03  0.7138E-03  0.1436E+01
   -0.349988   29.87415  0.4294E-14  0.1270E-04  0.5029E-07  0.9490E-03  0.6593E-03  0.1337E+01
   -0.399988   29.87520  0.4294E-14  0.1308E-04  0.4805E-07  0.1056E-02  0.6087E-03  0.1296E+01
   -0.449988   29.87613  0.4294E-14  0.1342E-04  0.4618E-07  0.1161E-02  0.5622E-03  0.1285E+01
   -0.499988   29.87696  0.4294E-14  0.1373E-04  0.4461E-07  0.1260E-02  0.5203E-03  0.1282E+01
   -0.549989   29.87771  0.4294E-14  0.1399E-04  0.4330E-07  0.1351E-02  0.4825E-03  0.1279E+01
   -0.599990   29.87839  0.4294E-14  0.1421E-04  0.4219E-07  0.1434E-02  0.4485E-03  0.1274E+01
   -0.649991   29.87903  0.4294E-14  0.1441E-04  0.4127E-07  0.1507E-02  0.4176E-03  0.1272E+01
   -0.699992   29.87962  0.4294E-14  0.1457E-04  0.4051E-07  0.1572E-02  0.3897E-03  0.1266E+01
   -0.749993   29.88019  0.4294E-14  0.1470E-04  0.3988E-07  0.1626E-02  0.3644E-03  0.1266E+01
   -0.799995   29.88073  0.4294E-14  0.1480E-04  0.3937E-07  0.1670E-02  0.3414E-03  0.1265E+01
   -0.849997   29.88124  0.4294E-14  0.1488E-04  0.3898E-07  0.1705E-02  0.3205E-03  0.1272E+01
   -0.899998   29.88175  0.4294E-14  0.1493E-04  0.3868E-07  0.1730E-02  0.3015E-03  0.1287E+01
   -0.950000   29.88224  0.4294E-14  0.1496E-04  0.3848E-07  0.1746E-02  0.2840E-03  0.1327E+01
   -1.000002   29.88271  0.4294E-14  0.1498E-04  0.3837E-07  0.1754E-02  0.2680E-03  0.1392E+01
   -1.050003   29.88319  0.4294E-14  0.1497E-04  0.3834E-07  0.1753E-02  0.2529E-03  0.1564E+01
   -1.100005   29.88366  0.4294E-14  0.1494E-04  0.3841E-07  0.1843E-02  0.2387E-03  0.5166E+01
   -1.150007   29.88410  0.4294E-14  0.1489E-04  0.3860E-07  0.1664E-02  0.2261E-03  0.1168E+02
   -1.200008   29.88459  0.4294E-14  0.1483E-04  0.3889E-07  0.1694E-02  0.2129E-03  0.2253E+01
   -1.250010   29.88506  0.4294E-14  0.1474E-04  0.3933E-07  0.1664E-02  0.2003E-03  0.2386E+01
   -1.300011   29.88554  0.4294E-14  0.1462E-04  0.3995E-07  0.1615E-02  0.1882E-03  0.2796E+01
   -1.350012   29.88604  0.4294E-14  0.1447E-04  0.4079E-07  0.1557E-02  0.1765E-03  0.3317E+01
   -1.400014   29.88654  0.4294E-14  0.1430E-04  0.4193E-07  0.1482E-02  0.1650E-03  0.4090E+01
   -1.450014   29.88708  0.4294E-14  0.1408E-04  0.4346E-07  0.1407E-02  0.1538E-03  0.5151E+01
   -1.500015   29.88764  0.4294E-14  0.1382E-04  0.4558E-07  0.1297E-02  0.1428E-03  0.6933E+01
   -1.550015   29.88825  0.4294E-14  0.1351E-04  0.4855E-07  0.1216E-02  0.1318E-03  0.9677E+01
   -1.600015   29.88891  0.4294E-14  0.1312E-04  0.5307E-07  0.1072E-02  0.1210E-03  0.1724E+02
   -1.650015   29.88970  0.4294E-14  0.1262E-04  0.6000E-07  0.9967E-03  0.1095E-03  0.3233E+02
   -1.700015   29.89057  0.4294E-14  0.1194E-04  0.7253E-07  0.8115E-03  0.9840E-04  0.5623E+04
   -1.750014   29.89213  0.4294E-14  0.1101E-04  0.9321E-07  0.7355E-03  0.8353E-04  0.1989E+05
   -1.800013   29.89347  0.4294E-14  0.9760E-05  0.1367E-06  0.5189E-03  0.7179E-04  0.1923E+04
   -1.850011   29.89841  0.4294E-14  0.8336E-05  0.2171E-06  0.4705E-03  0.5207E-04  0.1799E+07
   -1.900009   29.89780  0.4294E-14  0.6621E-05  0.4508E-06  0.2149E-03  0.4228E-04  0.1733E+06
   -1.950006   29.91372  0.4294E-14  0.4567E-05  0.1151E-05  0.1755E-03  0.2299E-04 -0.1408E+06
   -2.000003   29.91699  0.4294E-14  0.0000E+00  0.0000E+00  0.0000E+00  0.4116E-04  0.0000E+00
