 1 - depth, m
 2 - temperature, C
 3 - salinity, kg/kg
 4 - turbulent kinetic energy, m**2/s**2
 5 - dissipation rate, m**2/s**3
 6 - kinematic heat conductance, m**2/s
 7 - modulus of horizontal velocity, m/s
 8 - Richardson number, n/d
   -0.000000   30.58679  0.7120E-14  0.5325E-05  0.3259E-06  0.5256E-04  0.2560E-02  0.2027E+04
   -0.049997   30.61857  0.7120E-14  0.8859E-05  0.1436E-06  0.1939E-03  0.1406E-02  0.3663E+02
   -0.099994   30.62928  0.7121E-14  0.1059E-04  0.1005E-06  0.3968E-03  0.1072E-02  0.7513E+01
   -0.149992   30.63276  0.7121E-14  0.1171E-04  0.8413E-07  0.4906E-03  0.9484E-03  0.3820E+01
   -0.199991   30.63545  0.7121E-14  0.1258E-04  0.7462E-07  0.6465E-03  0.8504E-03  0.2468E+01
   -0.249989   30.63743  0.7121E-14  0.1328E-04  0.6840E-07  0.7722E-03  0.7762E-03  0.1830E+01
   -0.299988   30.63905  0.7121E-14  0.1386E-04  0.6397E-07  0.8929E-03  0.7144E-03  0.1475E+01
   -0.349988   30.64041  0.7121E-14  0.1434E-04  0.6063E-07  0.1003E-02  0.6609E-03  0.1317E+01
   -0.399988   30.64159  0.7121E-14  0.1475E-04  0.5798E-07  0.1109E-02  0.6124E-03  0.1246E+01
   -0.449988   30.64264  0.7121E-14  0.1512E-04  0.5578E-07  0.1215E-02  0.5683E-03  0.1229E+01
   -0.499988   30.64358  0.7121E-14  0.1544E-04  0.5393E-07  0.1315E-02  0.5284E-03  0.1230E+01
   -0.549989   30.64443  0.7121E-14  0.1573E-04  0.5238E-07  0.1407E-02  0.4924E-03  0.1227E+01
   -0.599989   30.64521  0.7121E-14  0.1597E-04  0.5107E-07  0.1491E-02  0.4597E-03  0.1225E+01
   -0.649990   30.64594  0.7121E-14  0.1618E-04  0.4998E-07  0.1565E-02  0.4300E-03  0.1221E+01
   -0.699992   30.64662  0.7121E-14  0.1635E-04  0.4908E-07  0.1629E-02  0.4030E-03  0.1219E+01
   -0.749993   30.64726  0.7121E-14  0.1648E-04  0.4834E-07  0.1683E-02  0.3784E-03  0.1219E+01
   -0.799994   30.64788  0.7121E-14  0.1659E-04  0.4774E-07  0.1726E-02  0.3560E-03  0.1228E+01
   -0.849996   30.64847  0.7121E-14  0.1667E-04  0.4728E-07  0.1760E-02  0.3355E-03  0.1247E+01
   -0.899998   30.64905  0.7121E-14  0.1672E-04  0.4693E-07  0.1784E-02  0.3166E-03  0.1284E+01
   -0.949999   30.64961  0.7121E-14  0.1675E-04  0.4670E-07  0.1798E-02  0.2991E-03  0.1344E+01
   -1.000001   30.65016  0.7121E-14  0.1676E-04  0.4658E-07  0.1805E-02  0.2828E-03  0.1436E+01
   -1.050003   30.65071  0.7121E-14  0.1674E-04  0.4657E-07  0.1801E-02  0.2673E-03  0.1617E+01
   -1.100004   30.65125  0.7121E-14  0.1670E-04  0.4669E-07  0.1910E-02  0.2527E-03  0.5251E+01
   -1.150006   30.65176  0.7121E-14  0.1663E-04  0.4697E-07  0.1681E-02  0.2398E-03  0.1271E+02
   -1.200008   30.65233  0.7121E-14  0.1654E-04  0.4738E-07  0.1725E-02  0.2259E-03  0.2378E+01
   -1.250009   30.65289  0.7121E-14  0.1642E-04  0.4800E-07  0.1692E-02  0.2129E-03  0.2536E+01
   -1.300010   30.65345  0.7121E-14  0.1627E-04  0.4886E-07  0.1636E-02  0.2003E-03  0.2991E+01
   -1.350012   30.65403  0.7121E-14  0.1608E-04  0.5003E-07  0.1571E-02  0.1880E-03  0.3615E+01
   -1.400013   30.65463  0.7121E-14  0.1585E-04  0.5163E-07  0.1485E-02  0.1760E-03  0.4532E+01
   -1.450013   30.65527  0.7121E-14  0.1558E-04  0.5382E-07  0.1404E-02  0.1642E-03  0.5877E+01
   -1.500014   30.65595  0.7121E-14  0.1524E-04  0.5690E-07  0.1284E-02  0.1525E-03  0.8215E+01
   -1.550014   30.65670  0.7121E-14  0.1483E-04  0.6132E-07  0.1203E-02  0.1407E-03  0.1230E+02
   -1.600014   30.65751  0.7121E-14  0.1431E-04  0.6830E-07  0.1052E-02  0.1292E-03  0.9138E+02
   -1.650014   30.65856  0.7121E-14  0.1364E-04  0.7931E-07  0.9747E-03  0.1164E-03  0.2398E+03
   -1.700014   30.65979  0.7121E-14  0.1270E-04  0.9879E-07  0.7877E-03  0.1036E-03  0.1322E+04
   -1.750013   30.66198  0.7121E-14  0.1154E-04  0.1299E-06  0.7132E-03  0.8645E-04  0.1864E+06
   -1.800011   30.66349  0.7121E-14  0.1003E-04  0.1971E-06  0.4853E-03  0.7437E-04  0.4527E+05
   -1.850010   30.67175  0.7121E-14  0.8447E-05  0.3260E-06  0.4601E-03  0.5110E-04  0.5530E+07
   -1.900008   30.66888  0.7121E-14  0.6718E-05  0.6850E-06  0.2128E-03  0.4216E-04 -0.6305E+05
   -1.950005   30.69132  0.7121E-14  0.4780E-05  0.1668E-05  0.2079E-03  0.2224E-04 -0.1924E+07
   -2.000002   30.69184  0.7121E-14  0.0000E+00  0.0000E+00  0.0000E+00  0.4388E-04  0.0000E+00
