 1 - depth, m
 2 - temperature, C
 3 - salinity, kg/kg
 4 - turbulent kinetic energy, m**2/s**2
 5 - dissipation rate, m**2/s**3
 6 - kinematic heat conductance, m**2/s
 7 - modulus of horizontal velocity, m/s
 8 - Richardson number, n/d
   -0.000000   30.97608  0.4555E-14  0.5074E-05  0.3138E-06  0.4805E-04  0.3398E-03  0.1229E+06
   -0.049997   31.01175  0.4555E-14  0.9031E-05  0.1402E-06  0.2018E-03  0.1877E-03  0.4692E+05
   -0.099994   31.02200  0.4555E-14  0.1083E-04  0.9900E-07  0.4220E-03  0.1398E-03  0.1035E+04
   -0.149992   31.02537  0.4555E-14  0.1198E-04  0.8373E-07  0.5092E-03  0.1240E-03  0.5345E+03
   -0.199991   31.02802  0.4555E-14  0.1289E-04  0.7468E-07  0.6755E-03  0.1111E-03  0.3534E+03
   -0.249989   31.02996  0.4555E-14  0.1360E-04  0.6869E-07  0.8056E-03  0.1014E-03  0.2643E+03
   -0.299988   31.03155  0.4555E-14  0.1419E-04  0.6439E-07  0.9335E-03  0.9331E-04  0.2122E+03
   -0.349988   31.03288  0.4555E-14  0.1467E-04  0.6116E-07  0.1050E-02  0.8637E-04  0.1821E+03
   -0.399987   31.03404  0.4555E-14  0.1508E-04  0.5863E-07  0.1156E-02  0.8021E-04  0.1627E+03
   -0.449988   31.03507  0.4555E-14  0.1543E-04  0.5657E-07  0.1254E-02  0.7479E-04  0.1529E+03
   -0.499988   31.03600  0.4555E-14  0.1573E-04  0.5486E-07  0.1344E-02  0.6997E-04  0.1488E+03
   -0.549988   31.03685  0.4555E-14  0.1599E-04  0.5342E-07  0.1426E-02  0.6565E-04  0.1467E+03
   -0.599989   31.03763  0.4555E-14  0.1621E-04  0.5221E-07  0.1500E-02  0.6174E-04  0.1468E+03
   -0.649990   31.03837  0.4555E-14  0.1640E-04  0.5119E-07  0.1567E-02  0.5816E-04  0.1485E+03
   -0.699991   31.03906  0.4555E-14  0.1656E-04  0.5032E-07  0.1626E-02  0.5487E-04  0.1518E+03
   -0.749993   31.03972  0.4555E-14  0.1669E-04  0.4959E-07  0.1676E-02  0.5182E-04  0.1565E+03
   -0.799994   31.04035  0.4555E-14  0.1679E-04  0.4898E-07  0.1719E-02  0.4898E-04  0.1630E+03
   -0.849996   31.04096  0.4555E-14  0.1687E-04  0.4850E-07  0.1753E-02  0.4632E-04  0.1712E+03
   -0.899997   31.04155  0.4555E-14  0.1693E-04  0.4812E-07  0.1780E-02  0.4382E-04  0.1815E+03
   -0.949999   31.04212  0.4555E-14  0.1696E-04  0.4785E-07  0.1797E-02  0.4147E-04  0.1941E+03
   -1.000001   31.04269  0.4555E-14  0.1697E-04  0.4769E-07  0.1806E-02  0.3923E-04  0.2096E+03
   -1.050002   31.04324  0.4555E-14  0.1695E-04  0.4765E-07  0.1805E-02  0.3711E-04  0.2370E+03
   -1.100004   31.04379  0.4555E-14  0.1692E-04  0.4774E-07  0.1906E-02  0.3508E-04  0.7699E+03
   -1.150006   31.04431  0.4555E-14  0.1685E-04  0.4798E-07  0.1698E-02  0.3328E-04  0.1861E+04
   -1.200007   31.04488  0.4555E-14  0.1677E-04  0.4836E-07  0.1736E-02  0.3137E-04  0.3473E+03
   -1.250009   31.04544  0.4555E-14  0.1665E-04  0.4894E-07  0.1704E-02  0.2957E-04  0.3699E+03
   -1.300010   31.04601  0.4555E-14  0.1650E-04  0.4976E-07  0.1650E-02  0.2783E-04  0.4355E+03
   -1.350011   31.04659  0.4555E-14  0.1631E-04  0.5089E-07  0.1587E-02  0.2613E-04  0.5262E+03
   -1.400012   31.04719  0.4555E-14  0.1609E-04  0.5243E-07  0.1503E-02  0.2448E-04  0.6599E+03
   -1.450013   31.04783  0.4555E-14  0.1582E-04  0.5454E-07  0.1422E-02  0.2285E-04  0.8563E+03
   -1.500013   31.04850  0.4555E-14  0.1549E-04  0.5751E-07  0.1305E-02  0.2124E-04  0.1205E+04
   -1.550014   31.04924  0.4555E-14  0.1508E-04  0.6176E-07  0.1220E-02  0.1962E-04  0.1788E+04
   -1.600014   31.05005  0.4555E-14  0.1458E-04  0.6839E-07  0.1073E-02  0.1803E-04  0.7583E+04
   -1.650014   31.05106  0.4555E-14  0.1392E-04  0.7885E-07  0.9896E-03  0.1631E-04  0.2783E+05
   -1.700013   31.05223  0.4555E-14  0.1302E-04  0.9737E-07  0.8057E-03  0.1458E-04  0.7124E+05
   -1.750012   31.05432  0.4555E-14  0.1187E-04  0.1275E-06  0.7264E-03  0.1230E-04  0.2817E+07
   -1.800011   31.05594  0.4555E-14  0.1038E-04  0.1919E-06  0.5056E-03  0.1056E-04  0.3937E+07
   -1.850009   31.06333  0.4555E-14  0.8789E-05  0.3131E-06  0.4658E-03  0.7512E-05  0.1083E+10
   -1.900007   31.06119  0.4555E-14  0.6960E-05  0.6534E-06  0.2160E-03  0.6147E-05  0.1448E+07
   -1.950004   31.08260  0.4555E-14  0.4929E-05  0.1599E-05  0.2036E-03  0.3308E-05 -0.5837E+08
   -2.000001   31.08331  0.4555E-14  0.0000E+00  0.0000E+00  0.0000E+00  0.6207E-05  0.0000E+00
