 1 - depth, m
 2 - temperature, C
 3 - salinity, kg/kg
 4 - turbulent kinetic energy, m**2/s**2
 5 - dissipation rate, m**2/s**3
 6 - kinematic heat conductance, m**2/s
 7 - modulus of horizontal velocity, m/s
 8 - Richardson number, n/d
   -0.000000   28.94296  0.1383E-12  0.4450E-05  0.2179E-06  0.4441E-04  0.3301E-02  0.6887E+00
   -0.049997   28.97041  0.1383E-12  0.7094E-05  0.9550E-07  0.1821E-03  0.1759E-02  0.1054E+02
   -0.099995   28.97823  0.1383E-12  0.8275E-05  0.6837E-07  0.3441E-03  0.1380E-02  0.5078E+01
   -0.149992   28.98118  0.1383E-12  0.9048E-05  0.5763E-07  0.4352E-03  0.1222E-02  0.2559E+01
   -0.199991   28.98340  0.1383E-12  0.9648E-05  0.5124E-07  0.5538E-03  0.1100E-02  0.1704E+01
   -0.249990   28.98508  0.1383E-12  0.1013E-04  0.4696E-07  0.6497E-03  0.1005E-02  0.1335E+01
   -0.299989   28.98646  0.1383E-12  0.1054E-04  0.4375E-07  0.7434E-03  0.9239E-03  0.1308E+01
   -0.349988   28.98762  0.1383E-12  0.1090E-04  0.4111E-07  0.8512E-03  0.8470E-03  0.1384E+01
   -0.399988   28.98860  0.1383E-12  0.1124E-04  0.3887E-07  0.9642E-03  0.7720E-03  0.1400E+01
   -0.449988   28.98944  0.1383E-12  0.1153E-04  0.3696E-07  0.1074E-02  0.7029E-03  0.1402E+01
   -0.499989   28.99017  0.1383E-12  0.1179E-04  0.3534E-07  0.1177E-02  0.6409E-03  0.1399E+01
   -0.549989   28.99081  0.1383E-12  0.1200E-04  0.3397E-07  0.1272E-02  0.5856E-03  0.1388E+01
   -0.599990   28.99140  0.1383E-12  0.1217E-04  0.3280E-07  0.1358E-02  0.5363E-03  0.1372E+01
   -0.649991   28.99193  0.1383E-12  0.1231E-04  0.3181E-07  0.1434E-02  0.4921E-03  0.1353E+01
   -0.699992   28.99243  0.1383E-12  0.1242E-04  0.3096E-07  0.1500E-02  0.4526E-03  0.1330E+01
   -0.749994   28.99289  0.1383E-12  0.1250E-04  0.3025E-07  0.1556E-02  0.4172E-03  0.1304E+01
   -0.799995   28.99332  0.1383E-12  0.1254E-04  0.2965E-07  0.1600E-02  0.3855E-03  0.1274E+01
   -0.849997   28.99374  0.1383E-12  0.1257E-04  0.2916E-07  0.1634E-02  0.3570E-03  0.1242E+01
   -0.899999   28.99414  0.1383E-12  0.1257E-04  0.2876E-07  0.1657E-02  0.3315E-03  0.1207E+01
   -0.950000   28.99452  0.1383E-12  0.1256E-04  0.2845E-07  0.1670E-02  0.3086E-03  0.1169E+01
   -1.000002   28.99489  0.1383E-12  0.1252E-04  0.2822E-07  0.1675E-02  0.2881E-03  0.1128E+01
   -1.050004   28.99525  0.1383E-12  0.1248E-04  0.2806E-07  0.1671E-02  0.2698E-03  0.1118E+01
   -1.100006   28.99561  0.1383E-12  0.1242E-04  0.2799E-07  0.1760E-02  0.2535E-03  0.3396E+01
   -1.150007   28.99594  0.1383E-12  0.1235E-04  0.2798E-07  0.1581E-02  0.2396E-03  0.7728E+01
   -1.200009   28.99631  0.1383E-12  0.1226E-04  0.2805E-07  0.1614E-02  0.2251E-03  0.1457E+01
   -1.250010   28.99666  0.1383E-12  0.1216E-04  0.2822E-07  0.1585E-02  0.2114E-03  0.1526E+01
   -1.300012   28.99701  0.1383E-12  0.1203E-04  0.2849E-07  0.1541E-02  0.1981E-03  0.1760E+01
   -1.350013   28.99736  0.1383E-12  0.1189E-04  0.2891E-07  0.1487E-02  0.1853E-03  0.2073E+01
   -1.400014   28.99772  0.1383E-12  0.1172E-04  0.2951E-07  0.1420E-02  0.1729E-03  0.2505E+01
   -1.450015   28.99810  0.1383E-12  0.1153E-04  0.3035E-07  0.1346E-02  0.1608E-03  0.3117E+01
   -1.500016   28.99848  0.1383E-12  0.1130E-04  0.3154E-07  0.1250E-02  0.1490E-03  0.4062E+01
   -1.550016   28.99889  0.1383E-12  0.1104E-04  0.3322E-07  0.1163E-02  0.1372E-03  0.5532E+01
   -1.600016   28.99933  0.1383E-12  0.1072E-04  0.3572E-07  0.1032E-02  0.1257E-03  0.8414E+01
   -1.650016   28.99983  0.1383E-12  0.1034E-04  0.3952E-07  0.9501E-03  0.1139E-03  0.2333E+02
   -1.700015   29.00037  0.1383E-12  0.9836E-05  0.4642E-07  0.7852E-03  0.1023E-03 -0.7466E+01
   -1.750015   29.00122  0.1383E-12  0.9141E-05  0.5837E-07  0.7034E-03  0.8819E-04  0.8829E+03
   -1.800013   29.00214  0.1383E-12  0.8129E-05  0.8277E-07  0.4994E-03  0.7528E-04  0.7129E+05
   -1.850012   29.00466  0.1383E-12  0.6856E-05  0.1276E-06  0.4316E-03  0.5545E-04  0.4211E+08
   -1.900010   29.00500  0.1383E-12  0.5263E-05  0.2619E-06  0.1877E-03  0.4363E-04 -0.2543E+05
   -1.950007   29.01491  0.1383E-12  0.3531E-05  0.6897E-06  0.1494E-03  0.2289E-04 -0.1592E+06
   -2.000004   29.01724  0.1383E-12  0.0000E+00  0.0000E+00  0.0000E+00  0.4124E-04  0.0000E+00
