 1 - depth, m
 2 - temperature, C
 3 - salinity, kg/kg
 4 - turbulent kinetic energy, m**2/s**2
 5 - dissipation rate, m**2/s**3
 6 - kinematic heat conductance, m**2/s
 7 - modulus of horizontal velocity, m/s
 8 - Richardson number, n/d
   -0.000000   30.36134  0.3845E-13  0.4664E-05  0.2841E-06  0.4983E-04  0.1681E-02  0.5438E+04
   -0.049997   30.38994  0.3845E-13  0.7962E-05  0.1265E-06  0.1731E-03  0.9623E-03  0.3801E+04
   -0.099994   30.40118  0.3845E-13  0.9666E-05  0.8680E-07  0.3939E-03  0.7014E-03  0.1823E+02
   -0.149992   30.40425  0.3845E-13  0.1073E-04  0.7285E-07  0.4733E-03  0.6193E-03  0.8872E+01
   -0.199991   30.40670  0.3845E-13  0.1156E-04  0.6469E-07  0.6324E-03  0.5527E-03  0.5701E+01
   -0.249989   30.40848  0.3845E-13  0.1222E-04  0.5935E-07  0.7562E-03  0.5029E-03  0.4193E+01
   -0.299988   30.40993  0.3845E-13  0.1276E-04  0.5556E-07  0.8795E-03  0.4614E-03  0.3344E+01
   -0.349988   30.41115  0.3845E-13  0.1321E-04  0.5272E-07  0.9913E-03  0.4259E-03  0.2850E+01
   -0.399988   30.41221  0.3845E-13  0.1359E-04  0.5051E-07  0.1094E-02  0.3945E-03  0.2548E+01
   -0.449988   30.41315  0.3845E-13  0.1392E-04  0.4873E-07  0.1189E-02  0.3669E-03  0.2381E+01
   -0.499988   30.41400  0.3845E-13  0.1421E-04  0.4725E-07  0.1276E-02  0.3425E-03  0.2327E+01
   -0.549989   30.41477  0.3845E-13  0.1445E-04  0.4603E-07  0.1356E-02  0.3207E-03  0.2284E+01
   -0.599990   30.41549  0.3845E-13  0.1467E-04  0.4500E-07  0.1429E-02  0.3009E-03  0.2298E+01
   -0.649991   30.41616  0.3845E-13  0.1485E-04  0.4413E-07  0.1494E-02  0.2829E-03  0.2314E+01
   -0.699992   30.41679  0.3845E-13  0.1501E-04  0.4341E-07  0.1552E-02  0.2664E-03  0.2382E+01
   -0.749993   30.41739  0.3845E-13  0.1514E-04  0.4281E-07  0.1603E-02  0.2511E-03  0.2447E+01
   -0.799995   30.41797  0.3845E-13  0.1526E-04  0.4231E-07  0.1645E-02  0.2369E-03  0.2567E+01
   -0.849996   30.41852  0.3845E-13  0.1534E-04  0.4193E-07  0.1681E-02  0.2236E-03  0.2685E+01
   -0.899998   30.41906  0.3845E-13  0.1541E-04  0.4163E-07  0.1708E-02  0.2112E-03  0.2868E+01
   -0.949999   30.41958  0.3845E-13  0.1546E-04  0.4144E-07  0.1727E-02  0.1995E-03  0.3053E+01
   -1.000001   30.42010  0.3845E-13  0.1549E-04  0.4133E-07  0.1738E-02  0.1884E-03  0.3321E+01
   -1.050003   30.42061  0.3845E-13  0.1549E-04  0.4133E-07  0.1740E-02  0.1779E-03  0.3746E+01
   -1.100005   30.42111  0.3845E-13  0.1548E-04  0.4144E-07  0.1822E-02  0.1679E-03  0.1254E+02
   -1.150006   30.42159  0.3845E-13  0.1544E-04  0.4167E-07  0.1664E-02  0.1589E-03  0.2828E+02
   -1.200008   30.42211  0.3845E-13  0.1538E-04  0.4203E-07  0.1685E-02  0.1497E-03  0.5425E+01
   -1.250009   30.42263  0.3845E-13  0.1530E-04  0.4255E-07  0.1656E-02  0.1408E-03  0.5829E+01
   -1.300011   30.42315  0.3845E-13  0.1519E-04  0.4326E-07  0.1608E-02  0.1323E-03  0.6787E+01
   -1.350012   30.42368  0.3845E-13  0.1505E-04  0.4422E-07  0.1550E-02  0.1241E-03  0.8177E+01
   -1.400013   30.42424  0.3845E-13  0.1487E-04  0.4552E-07  0.1475E-02  0.1160E-03  0.1006E+02
   -1.450014   30.42482  0.3845E-13  0.1465E-04  0.4725E-07  0.1400E-02  0.1081E-03  0.1287E+02
   -1.500014   30.42544  0.3845E-13  0.1439E-04  0.4964E-07  0.1289E-02  0.1004E-03  0.1741E+02
   -1.550015   30.42611  0.3845E-13  0.1406E-04  0.5300E-07  0.1208E-02  0.9263E-04  0.2480E+02
   -1.600015   30.42684  0.3845E-13  0.1365E-04  0.5811E-07  0.1063E-02  0.8505E-04  0.4741E+02
   -1.650015   30.42773  0.3845E-13  0.1313E-04  0.6595E-07  0.9886E-03  0.7691E-04  0.2119E+03
   -1.700014   30.42871  0.3845E-13  0.1241E-04  0.8000E-07  0.8036E-03  0.6908E-04  0.4177E+04
   -1.750013   30.43047  0.3845E-13  0.1143E-04  0.1033E-06  0.7307E-03  0.5863E-04  0.7527E+05
   -1.800012   30.43199  0.3845E-13  0.1011E-04  0.1520E-06  0.5066E-03  0.5034E-04  0.5225E+05
   -1.850010   30.43774  0.3845E-13  0.8600E-05  0.2428E-06  0.4652E-03  0.3625E-04  0.5125E+07
   -1.900008   30.43692  0.3845E-13  0.6853E-05  0.5078E-06  0.2160E-03  0.2944E-04 -0.1349E+08
   -1.950005   30.45548  0.3845E-13  0.4774E-05  0.1288E-05  0.1821E-03  0.1600E-04 -0.2939E+06
   -2.000002   30.45831  0.3845E-13  0.0000E+00  0.0000E+00  0.0000E+00  0.2872E-04  0.0000E+00
