 1 - depth, m
 2 - temperature, C
 3 - salinity, kg/kg
 4 - turbulent kinetic energy, m**2/s**2
 5 - dissipation rate, m**2/s**3
 6 - kinematic heat conductance, m**2/s
 7 - modulus of horizontal velocity, m/s
 8 - Richardson number, n/d
   -0.000000   30.43874  0.3448E-14  0.4489E-05  0.2661E-06  0.4699E-04  0.4967E-03  0.1400E+06
   -0.049997   30.46831  0.3448E-14  0.7992E-05  0.1180E-06  0.1844E-03  0.2780E-03  0.7400E+03
   -0.099994   30.47823  0.3448E-14  0.9648E-05  0.8241E-07  0.4098E-03  0.2032E-03  0.2447E+03
   -0.149992   30.48110  0.3448E-14  0.1069E-04  0.6982E-07  0.4886E-03  0.1800E-03  0.1214E+03
   -0.199991   30.48340  0.3448E-14  0.1151E-04  0.6237E-07  0.6490E-03  0.1610E-03  0.8024E+02
   -0.249989   30.48509  0.3448E-14  0.1216E-04  0.5745E-07  0.7739E-03  0.1468E-03  0.5984E+02
   -0.299988   30.48647  0.3448E-14  0.1270E-04  0.5394E-07  0.8970E-03  0.1348E-03  0.4816E+02
   -0.349988   30.48764  0.3448E-14  0.1315E-04  0.5131E-07  0.1009E-02  0.1246E-03  0.4127E+02
   -0.399988   30.48866  0.3448E-14  0.1353E-04  0.4926E-07  0.1111E-02  0.1155E-03  0.3704E+02
   -0.449988   30.48956  0.3448E-14  0.1386E-04  0.4761E-07  0.1206E-02  0.1076E-03  0.3471E+02
   -0.499988   30.49038  0.3448E-14  0.1414E-04  0.4624E-07  0.1294E-02  0.1005E-03  0.3397E+02
   -0.549989   30.49113  0.3448E-14  0.1439E-04  0.4511E-07  0.1374E-02  0.9417E-04  0.3341E+02
   -0.599990   30.49182  0.3448E-14  0.1461E-04  0.4416E-07  0.1446E-02  0.8841E-04  0.3365E+02
   -0.649991   30.49248  0.3448E-14  0.1480E-04  0.4337E-07  0.1511E-02  0.8319E-04  0.3394E+02
   -0.699992   30.49309  0.3448E-14  0.1497E-04  0.4272E-07  0.1569E-02  0.7837E-04  0.3496E+02
   -0.749993   30.49368  0.3448E-14  0.1511E-04  0.4218E-07  0.1619E-02  0.7393E-04  0.3597E+02
   -0.799995   30.49424  0.3448E-14  0.1523E-04  0.4175E-07  0.1662E-02  0.6977E-04  0.3776E+02
   -0.849996   30.49478  0.3448E-14  0.1532E-04  0.4141E-07  0.1697E-02  0.6592E-04  0.3954E+02
   -0.899998   30.49531  0.3448E-14  0.1540E-04  0.4117E-07  0.1725E-02  0.6227E-04  0.4226E+02
   -0.950000   30.49582  0.3448E-14  0.1546E-04  0.4102E-07  0.1744E-02  0.5886E-04  0.4505E+02
   -1.000001   30.49633  0.3448E-14  0.1549E-04  0.4097E-07  0.1755E-02  0.5561E-04  0.4903E+02
   -1.050003   30.49683  0.3448E-14  0.1551E-04  0.4101E-07  0.1757E-02  0.5254E-04  0.5538E+02
   -1.100005   30.49733  0.3448E-14  0.1550E-04  0.4116E-07  0.1838E-02  0.4960E-04  0.1857E+03
   -1.150006   30.49781  0.3448E-14  0.1548E-04  0.4144E-07  0.1682E-02  0.4697E-04  0.4148E+03
   -1.200008   30.49832  0.3448E-14  0.1543E-04  0.4183E-07  0.1703E-02  0.4427E-04  0.8013E+02
   -1.250009   30.49883  0.3448E-14  0.1535E-04  0.4239E-07  0.1673E-02  0.4167E-04  0.8618E+02
   -1.300011   30.49935  0.3448E-14  0.1525E-04  0.4314E-07  0.1625E-02  0.3917E-04  0.1004E+03
   -1.350012   30.49989  0.3448E-14  0.1513E-04  0.4413E-07  0.1568E-02  0.3674E-04  0.1207E+03
   -1.400013   30.50044  0.3448E-14  0.1496E-04  0.4544E-07  0.1494E-02  0.3439E-04  0.1482E+03
   -1.450014   30.50102  0.3448E-14  0.1476E-04  0.4719E-07  0.1417E-02  0.3206E-04  0.1892E+03
   -1.500014   30.50164  0.3448E-14  0.1451E-04  0.4956E-07  0.1309E-02  0.2980E-04  0.2539E+03
   -1.550015   30.50231  0.3448E-14  0.1420E-04  0.5287E-07  0.1222E-02  0.2752E-04  0.3597E+03
   -1.600015   30.50304  0.3448E-14  0.1381E-04  0.5778E-07  0.1081E-02  0.2528E-04  0.6170E+03
   -1.650015   30.50391  0.3448E-14  0.1331E-04  0.6528E-07  0.1001E-02  0.2292E-04  0.1081E+04
   -1.700014   30.50489  0.3448E-14  0.1263E-04  0.7865E-07  0.8194E-03  0.2063E-04 -0.3758E+04
   -1.750013   30.50655  0.3448E-14  0.1169E-04  0.1007E-06  0.7381E-03  0.1766E-04  0.4534E+06
   -1.800012   30.50812  0.3448E-14  0.1039E-04  0.1464E-06  0.5220E-03  0.1519E-04  0.8767E+05
   -1.850010   30.51346  0.3448E-14  0.8901E-05  0.2309E-06  0.4732E-03  0.1118E-04  0.9719E+08
   -1.900008   30.51313  0.3448E-14  0.7068E-05  0.4784E-06  0.2131E-03  0.9062E-05  0.2075E+07
   -1.950006   30.53160  0.3448E-14  0.4918E-05  0.1221E-05  0.1780E-03  0.5010E-05 -0.5350E+07
   -2.000003   30.53428  0.3448E-14  0.0000E+00  0.0000E+00  0.0000E+00  0.8573E-05  0.0000E+00
