 1 - depth, m
 2 - temperature, C
 3 - salinity, kg/kg
 4 - turbulent kinetic energy, m**2/s**2
 5 - dissipation rate, m**2/s**3
 6 - kinematic heat conductance, m**2/s
 7 - modulus of horizontal velocity, m/s
 8 - Richardson number, n/d
   -0.000000   30.05186  0.1289E-14  0.4573E-05  0.2755E-06  0.4902E-04  0.1423E-02  0.8862E+04
   -0.049997   30.08060  0.1289E-14  0.7877E-05  0.1228E-06  0.1748E-03  0.8081E-03  0.5246E+03
   -0.099994   30.09155  0.1289E-14  0.9558E-05  0.8477E-07  0.3929E-03  0.5916E-03  0.2311E+02
   -0.149992   30.09460  0.1289E-14  0.1061E-04  0.7125E-07  0.4740E-03  0.5222E-03  0.1129E+02
   -0.199991   30.09702  0.1289E-14  0.1144E-04  0.6333E-07  0.6323E-03  0.4661E-03  0.7268E+01
   -0.249989   30.09879  0.1289E-14  0.1209E-04  0.5816E-07  0.7561E-03  0.4241E-03  0.5361E+01
   -0.299989   30.10022  0.1289E-14  0.1263E-04  0.5447E-07  0.8791E-03  0.3892E-03  0.4276E+01
   -0.349988   30.10143  0.1289E-14  0.1308E-04  0.5172E-07  0.9906E-03  0.3592E-03  0.3655E+01
   -0.399988   30.10248  0.1289E-14  0.1346E-04  0.4958E-07  0.1093E-02  0.3327E-03  0.3265E+01
   -0.449988   30.10341  0.1289E-14  0.1378E-04  0.4785E-07  0.1188E-02  0.3094E-03  0.3061E+01
   -0.499988   30.10426  0.1289E-14  0.1407E-04  0.4642E-07  0.1275E-02  0.2888E-03  0.2985E+01
   -0.549989   30.10503  0.1289E-14  0.1432E-04  0.4523E-07  0.1355E-02  0.2704E-03  0.2941E+01
   -0.599990   30.10574  0.1289E-14  0.1453E-04  0.4424E-07  0.1427E-02  0.2537E-03  0.2952E+01
   -0.649991   30.10641  0.1289E-14  0.1472E-04  0.4340E-07  0.1492E-02  0.2385E-03  0.2984E+01
   -0.699992   30.10703  0.1289E-14  0.1488E-04  0.4270E-07  0.1550E-02  0.2246E-03  0.3064E+01
   -0.749993   30.10763  0.1289E-14  0.1501E-04  0.4212E-07  0.1600E-02  0.2117E-03  0.3158E+01
   -0.799995   30.10821  0.1289E-14  0.1512E-04  0.4165E-07  0.1643E-02  0.1997E-03  0.3307E+01
   -0.849996   30.10876  0.1289E-14  0.1521E-04  0.4128E-07  0.1678E-02  0.1885E-03  0.3469E+01
   -0.899998   30.10930  0.1289E-14  0.1528E-04  0.4101E-07  0.1705E-02  0.1780E-03  0.3698E+01
   -0.950000   30.10982  0.1289E-14  0.1533E-04  0.4083E-07  0.1724E-02  0.1681E-03  0.3949E+01
   -1.000001   30.11033  0.1289E-14  0.1536E-04  0.4074E-07  0.1736E-02  0.1588E-03  0.4286E+01
   -1.050003   30.11084  0.1289E-14  0.1537E-04  0.4075E-07  0.1738E-02  0.1499E-03  0.4852E+01
   -1.100005   30.11135  0.1289E-14  0.1536E-04  0.4086E-07  0.1819E-02  0.1415E-03  0.1626E+02
   -1.150006   30.11183  0.1289E-14  0.1533E-04  0.4110E-07  0.1663E-02  0.1339E-03  0.3623E+02
   -1.200008   30.11235  0.1289E-14  0.1527E-04  0.4146E-07  0.1684E-02  0.1261E-03  0.7013E+01
   -1.250010   30.11286  0.1289E-14  0.1519E-04  0.4198E-07  0.1654E-02  0.1186E-03  0.7523E+01
   -1.300011   30.11338  0.1289E-14  0.1508E-04  0.4269E-07  0.1607E-02  0.1114E-03  0.8781E+01
   -1.350012   30.11392  0.1289E-14  0.1495E-04  0.4364E-07  0.1549E-02  0.1045E-03  0.1054E+02
   -1.400013   30.11448  0.1289E-14  0.1478E-04  0.4491E-07  0.1475E-02  0.9770E-04  0.1297E+02
   -1.450014   30.11506  0.1289E-14  0.1457E-04  0.4662E-07  0.1399E-02  0.9104E-04  0.1655E+02
   -1.500015   30.11568  0.1289E-14  0.1431E-04  0.4895E-07  0.1290E-02  0.8453E-04  0.2231E+02
   -1.550015   30.11635  0.1289E-14  0.1399E-04  0.5223E-07  0.1206E-02  0.7798E-04  0.3166E+02
   -1.600015   30.11709  0.1289E-14  0.1359E-04  0.5713E-07  0.1063E-02  0.7157E-04  0.5581E+02
   -1.650015   30.11797  0.1289E-14  0.1308E-04  0.6466E-07  0.9861E-03  0.6478E-04  0.2061E+03
   -1.700014   30.11895  0.1289E-14  0.1238E-04  0.7821E-07  0.8032E-03  0.5816E-04  0.3208E+05
   -1.750013   30.12068  0.1289E-14  0.1142E-04  0.1005E-06  0.7288E-03  0.4946E-04  0.9027E+05
   -1.800012   30.12225  0.1289E-14  0.1012E-04  0.1458E-06  0.5087E-03  0.4245E-04  0.3299E+06
   -1.850010   30.12788  0.1289E-14  0.8615E-05  0.2322E-06  0.4680E-03  0.3071E-04  0.3970E+08
   -1.900008   30.12728  0.1289E-14  0.6820E-05  0.4824E-06  0.2089E-03  0.2481E-04 -0.1350E+08
   -1.950006   30.14591  0.1289E-14  0.4745E-05  0.1232E-05  0.1792E-03  0.1336E-04 -0.1926E+06
   -2.000003   30.14812  0.1289E-14  0.0000E+00  0.0000E+00  0.0000E+00  0.2394E-04  0.0000E+00
