 1 - depth, m
 2 - temperature, C
 3 - salinity, kg/kg
 4 - turbulent kinetic energy, m**2/s**2
 5 - dissipation rate, m**2/s**3
 6 - kinematic heat conductance, m**2/s
 7 - modulus of horizontal velocity, m/s
 8 - Richardson number, n/d
   -0.000000   30.50359  0.1523E-14  0.4828E-05  0.3008E-06  0.4956E-04  0.8002E-03  0.1939E+05
   -0.049997   30.53508  0.1523E-14  0.8453E-05  0.1335E-06  0.1845E-03  0.4516E-03  0.8440E+02
   -0.099994   30.54643  0.1523E-14  0.1024E-04  0.9252E-07  0.4127E-03  0.3326E-03  0.1054E+03
   -0.149992   30.54961  0.1523E-14  0.1136E-04  0.7801E-07  0.4924E-03  0.2944E-03  0.5193E+02
   -0.199991   30.55216  0.1523E-14  0.1223E-04  0.6946E-07  0.6576E-03  0.2634E-03  0.3387E+02
   -0.249989   30.55402  0.1523E-14  0.1292E-04  0.6386E-07  0.7845E-03  0.2401E-03  0.2514E+02
   -0.299988   30.55553  0.1523E-14  0.1349E-04  0.5986E-07  0.9113E-03  0.2207E-03  0.2015E+02
   -0.349988   30.55680  0.1523E-14  0.1397E-04  0.5686E-07  0.1026E-02  0.2041E-03  0.1722E+02
   -0.399988   30.55791  0.1523E-14  0.1437E-04  0.5453E-07  0.1131E-02  0.1894E-03  0.1542E+02
   -0.449988   30.55889  0.1523E-14  0.1471E-04  0.5265E-07  0.1228E-02  0.1764E-03  0.1442E+02
   -0.499988   30.55978  0.1523E-14  0.1501E-04  0.5109E-07  0.1317E-02  0.1649E-03  0.1409E+02
   -0.549989   30.56059  0.1523E-14  0.1527E-04  0.4979E-07  0.1399E-02  0.1546E-03  0.1384E+02
   -0.599989   30.56135  0.1523E-14  0.1550E-04  0.4871E-07  0.1473E-02  0.1453E-03  0.1391E+02
   -0.649990   30.56205  0.1523E-14  0.1569E-04  0.4779E-07  0.1539E-02  0.1368E-03  0.1401E+02
   -0.699992   30.56272  0.1523E-14  0.1586E-04  0.4703E-07  0.1598E-02  0.1290E-03  0.1441E+02
   -0.749993   30.56335  0.1523E-14  0.1600E-04  0.4640E-07  0.1649E-02  0.1217E-03  0.1481E+02
   -0.799994   30.56395  0.1523E-14  0.1612E-04  0.4589E-07  0.1692E-02  0.1150E-03  0.1553E+02
   -0.849996   30.56454  0.1523E-14  0.1621E-04  0.4549E-07  0.1727E-02  0.1087E-03  0.1625E+02
   -0.899998   30.56511  0.1523E-14  0.1628E-04  0.4519E-07  0.1754E-02  0.1028E-03  0.1734E+02
   -0.949999   30.56566  0.1523E-14  0.1633E-04  0.4499E-07  0.1772E-02  0.9721E-04  0.1848E+02
   -1.000001   30.56620  0.1523E-14  0.1635E-04  0.4491E-07  0.1783E-02  0.9190E-04  0.2009E+02
   -1.050003   30.56674  0.1523E-14  0.1636E-04  0.4493E-07  0.1783E-02  0.8690E-04  0.2268E+02
   -1.100004   30.56728  0.1523E-14  0.1634E-04  0.4506E-07  0.1874E-02  0.8209E-04  0.7533E+02
   -1.150006   30.56778  0.1523E-14  0.1630E-04  0.4535E-07  0.1693E-02  0.7782E-04  0.1730E+03
   -1.200008   30.56834  0.1523E-14  0.1623E-04  0.4576E-07  0.1722E-02  0.7336E-04  0.3300E+02
   -1.250009   30.56889  0.1523E-14  0.1614E-04  0.4637E-07  0.1691E-02  0.6908E-04  0.3544E+02
   -1.300010   30.56944  0.1523E-14  0.1602E-04  0.4719E-07  0.1640E-02  0.6499E-04  0.4142E+02
   -1.350012   30.57001  0.1523E-14  0.1587E-04  0.4830E-07  0.1579E-02  0.6099E-04  0.4999E+02
   -1.400013   30.57060  0.1523E-14  0.1567E-04  0.4978E-07  0.1500E-02  0.5711E-04  0.6185E+02
   -1.450013   30.57123  0.1523E-14  0.1544E-04  0.5179E-07  0.1421E-02  0.5328E-04  0.7965E+02
   -1.500014   30.57189  0.1523E-14  0.1515E-04  0.5456E-07  0.1308E-02  0.4952E-04  0.1090E+03
   -1.550014   30.57262  0.1523E-14  0.1479E-04  0.5847E-07  0.1224E-02  0.4573E-04  0.1585E+03
   -1.600014   30.57341  0.1523E-14  0.1434E-04  0.6448E-07  0.1078E-02  0.4202E-04  0.4561E+03
   -1.650014   30.57439  0.1523E-14  0.1375E-04  0.7380E-07  0.9959E-03  0.3801E-04  0.8577E+03
   -1.700014   30.57551  0.1523E-14  0.1295E-04  0.9019E-07  0.8132E-03  0.3404E-04 -0.2878E+05
   -1.750013   30.57747  0.1523E-14  0.1191E-04  0.1170E-06  0.7335E-03  0.2887E-04  0.8101E+06
   -1.800011   30.57905  0.1523E-14  0.1051E-04  0.1727E-06  0.5150E-03  0.2483E-04  0.3095E+07
   -1.850010   30.58571  0.1523E-14  0.8971E-05  0.2794E-06  0.4731E-03  0.1789E-04  0.5566E+08
   -1.900008   30.58446  0.1523E-14  0.7138E-05  0.5887E-06  0.2152E-03  0.1452E-04 -0.1208E+07
   -1.950005   30.60503  0.1523E-14  0.5009E-05  0.1454E-05  0.1926E-03  0.7882E-05 -0.2009E+07
   -2.000002   30.60701  0.1523E-14  0.0000E+00  0.0000E+00  0.0000E+00  0.1428E-04  0.0000E+00
