 1 - depth, m
 2 - temperature, C
 3 - salinity, kg/kg
 4 - turbulent kinetic energy, m**2/s**2
 5 - dissipation rate, m**2/s**3
 6 - kinematic heat conductance, m**2/s
 7 - modulus of horizontal velocity, m/s
 8 - Richardson number, n/d
   -0.000000   29.49765  0.1071E-12  0.4271E-05  0.2430E-06  0.4698E-04  0.1863E-02  0.4152E+04
   -0.049997   29.52452  0.1071E-12  0.7258E-05  0.1082E-06  0.1666E-03  0.1056E-02  0.1442E+04
   -0.099994   29.53459  0.1071E-12  0.8770E-05  0.7448E-07  0.3749E-03  0.7704E-03  0.1351E+02
   -0.149992   29.53745  0.1071E-12  0.9713E-05  0.6258E-07  0.4540E-03  0.6786E-03  0.6488E+01
   -0.199991   29.53972  0.1071E-12  0.1044E-04  0.5557E-07  0.6017E-03  0.6046E-03  0.4185E+01
   -0.249990   29.54138  0.1071E-12  0.1103E-04  0.5094E-07  0.7198E-03  0.5489E-03  0.3080E+01
   -0.299989   29.54273  0.1071E-12  0.1150E-04  0.4763E-07  0.8355E-03  0.5026E-03  0.2448E+01
   -0.349988   29.54386  0.1071E-12  0.1189E-04  0.4514E-07  0.9412E-03  0.4628E-03  0.2092E+01
   -0.399988   29.54484  0.1071E-12  0.1223E-04  0.4319E-07  0.1038E-02  0.4277E-03  0.1863E+01
   -0.449988   29.54571  0.1071E-12  0.1251E-04  0.4160E-07  0.1128E-02  0.3968E-03  0.1750E+01
   -0.499988   29.54649  0.1071E-12  0.1276E-04  0.4028E-07  0.1211E-02  0.3695E-03  0.1704E+01
   -0.549989   29.54720  0.1071E-12  0.1297E-04  0.3917E-07  0.1287E-02  0.3452E-03  0.1683E+01
   -0.599990   29.54786  0.1071E-12  0.1315E-04  0.3824E-07  0.1356E-02  0.3232E-03  0.1684E+01
   -0.649991   29.54847  0.1071E-12  0.1331E-04  0.3744E-07  0.1419E-02  0.3032E-03  0.1707E+01
   -0.699992   29.54905  0.1071E-12  0.1345E-04  0.3676E-07  0.1474E-02  0.2848E-03  0.1746E+01
   -0.749994   29.54960  0.1071E-12  0.1356E-04  0.3619E-07  0.1523E-02  0.2679E-03  0.1804E+01
   -0.799995   29.55012  0.1071E-12  0.1365E-04  0.3571E-07  0.1565E-02  0.2522E-03  0.1879E+01
   -0.849997   29.55062  0.1071E-12  0.1372E-04  0.3532E-07  0.1599E-02  0.2375E-03  0.1976E+01
   -0.899998   29.55111  0.1071E-12  0.1378E-04  0.3501E-07  0.1627E-02  0.2239E-03  0.2094E+01
   -0.950000   29.55158  0.1071E-12  0.1381E-04  0.3477E-07  0.1647E-02  0.2110E-03  0.2240E+01
   -1.000002   29.55204  0.1071E-12  0.1383E-04  0.3462E-07  0.1660E-02  0.1988E-03  0.2415E+01
   -1.050004   29.55250  0.1071E-12  0.1383E-04  0.3454E-07  0.1664E-02  0.1873E-03  0.2739E+01
   -1.100005   29.55295  0.1071E-12  0.1382E-04  0.3455E-07  0.1731E-02  0.1764E-03  0.9243E+01
   -1.150007   29.55337  0.1071E-12  0.1378E-04  0.3466E-07  0.1613E-02  0.1666E-03  0.1983E+02
   -1.200009   29.55383  0.1071E-12  0.1373E-04  0.3487E-07  0.1623E-02  0.1567E-03  0.3894E+01
   -1.250010   29.55428  0.1071E-12  0.1366E-04  0.3520E-07  0.1596E-02  0.1471E-03  0.4139E+01
   -1.300011   29.55473  0.1071E-12  0.1356E-04  0.3568E-07  0.1555E-02  0.1379E-03  0.4807E+01
   -1.350013   29.55520  0.1071E-12  0.1344E-04  0.3635E-07  0.1504E-02  0.1290E-03  0.5693E+01
   -1.400014   29.55567  0.1071E-12  0.1329E-04  0.3725E-07  0.1439E-02  0.1204E-03  0.6926E+01
   -1.450015   29.55617  0.1071E-12  0.1311E-04  0.3846E-07  0.1367E-02  0.1120E-03  0.8659E+01
   -1.500015   29.55669  0.1071E-12  0.1289E-04  0.4013E-07  0.1270E-02  0.1038E-03  0.1137E+02
   -1.550016   29.55725  0.1071E-12  0.1262E-04  0.4246E-07  0.1185E-02  0.9567E-04  0.1556E+02
   -1.600016   29.55786  0.1071E-12  0.1229E-04  0.4586E-07  0.1054E-02  0.8767E-04  0.2405E+02
   -1.650015   29.55856  0.1071E-12  0.1188E-04  0.5099E-07  0.9712E-03  0.7943E-04  0.3955E+04
   -1.700015   29.55933  0.1071E-12  0.1133E-04  0.6016E-07  0.8064E-03  0.7141E-04  0.9284E+04
   -1.750014   29.56054  0.1071E-12  0.1056E-04  0.7572E-07  0.7210E-03  0.6150E-04  0.1116E+05
   -1.800013   29.56182  0.1071E-12  0.9441E-05  0.1077E-06  0.5139E-03  0.5266E-04  0.1039E+06
   -1.850011   29.56553  0.1071E-12  0.8068E-05  0.1667E-06  0.4532E-03  0.3898E-04  0.5024E+06
   -1.900009   29.56599  0.1071E-12  0.6329E-05  0.3420E-06  0.2014E-03  0.3102E-04  0.3660E+06
   -1.950007   29.58010  0.1071E-12  0.4319E-05  0.8934E-06  0.1582E-03  0.1683E-04 -0.5614E+06
   -2.000004   29.58327  0.1071E-12  0.0000E+00  0.0000E+00  0.0000E+00  0.2886E-04  0.0000E+00
