 1 - depth, m
 2 - temperature, C
 3 - salinity, kg/kg
 4 - turbulent kinetic energy, m**2/s**2
 5 - dissipation rate, m**2/s**3
 6 - kinematic heat conductance, m**2/s
 7 - modulus of horizontal velocity, m/s
 8 - Richardson number, n/d
   -0.000000   30.74432  0.2997E-13  0.4770E-05  0.2975E-06  0.5049E-04  0.1135E-02  0.9546E+04
   -0.049997   30.77421  0.2997E-13  0.8253E-05  0.1323E-06  0.1769E-03  0.6477E-03  0.7405E+02
   -0.099994   30.78594  0.2997E-13  0.1003E-04  0.9100E-07  0.4049E-03  0.4721E-03  0.4044E+02
   -0.149992   30.78908  0.2997E-13  0.1113E-04  0.7653E-07  0.4827E-03  0.4173E-03  0.1978E+02
   -0.199991   30.79161  0.2997E-13  0.1199E-04  0.6803E-07  0.6462E-03  0.3726E-03  0.1275E+02
   -0.249989   30.79345  0.2997E-13  0.1268E-04  0.6246E-07  0.7719E-03  0.3393E-03  0.9473E+01
   -0.299988   30.79494  0.2997E-13  0.1324E-04  0.5849E-07  0.8976E-03  0.3115E-03  0.7543E+01
   -0.349988   30.79619  0.2997E-13  0.1370E-04  0.5552E-07  0.1011E-02  0.2877E-03  0.6483E+01
   -0.399988   30.79728  0.2997E-13  0.1409E-04  0.5321E-07  0.1115E-02  0.2667E-03  0.5767E+01
   -0.449988   30.79825  0.2997E-13  0.1443E-04  0.5133E-07  0.1212E-02  0.2482E-03  0.5439E+01
   -0.499988   30.79912  0.2997E-13  0.1472E-04  0.4978E-07  0.1301E-02  0.2318E-03  0.5273E+01
   -0.549989   30.79991  0.2997E-13  0.1498E-04  0.4849E-07  0.1382E-02  0.2171E-03  0.5228E+01
   -0.599989   30.80065  0.2997E-13  0.1520E-04  0.4740E-07  0.1456E-02  0.2039E-03  0.5211E+01
   -0.649990   30.80134  0.2997E-13  0.1539E-04  0.4649E-07  0.1522E-02  0.1918E-03  0.5305E+01
   -0.699992   30.80199  0.2997E-13  0.1555E-04  0.4572E-07  0.1580E-02  0.1807E-03  0.5404E+01
   -0.749993   30.80260  0.2997E-13  0.1568E-04  0.4508E-07  0.1631E-02  0.1704E-03  0.5615E+01
   -0.799994   30.80319  0.2997E-13  0.1580E-04  0.4456E-07  0.1674E-02  0.1608E-03  0.5827E+01
   -0.849996   30.80376  0.2997E-13  0.1589E-04  0.4414E-07  0.1710E-02  0.1519E-03  0.6166E+01
   -0.899998   30.80432  0.2997E-13  0.1595E-04  0.4383E-07  0.1737E-02  0.1435E-03  0.6512E+01
   -0.949999   30.80485  0.2997E-13  0.1600E-04  0.4361E-07  0.1756E-02  0.1356E-03  0.7017E+01
   -1.000001   30.80538  0.2997E-13  0.1602E-04  0.4350E-07  0.1767E-02  0.1282E-03  0.7548E+01
   -1.050003   30.80590  0.2997E-13  0.1603E-04  0.4349E-07  0.1769E-02  0.1211E-03  0.8610E+01
   -1.100004   30.80642  0.2997E-13  0.1601E-04  0.4359E-07  0.1855E-02  0.1143E-03  0.2841E+02
   -1.150006   30.80691  0.2997E-13  0.1597E-04  0.4383E-07  0.1687E-02  0.1083E-03  0.6466E+02
   -1.200008   30.80745  0.2997E-13  0.1590E-04  0.4420E-07  0.1711E-02  0.1020E-03  0.1250E+02
   -1.250009   30.80797  0.2997E-13  0.1581E-04  0.4474E-07  0.1681E-02  0.9605E-04  0.1329E+02
   -1.300010   30.80851  0.2997E-13  0.1570E-04  0.4549E-07  0.1632E-02  0.9027E-04  0.1567E+02
   -1.350012   30.80906  0.2997E-13  0.1555E-04  0.4650E-07  0.1573E-02  0.8469E-04  0.1870E+02
   -1.400013   30.80963  0.2997E-13  0.1536E-04  0.4786E-07  0.1496E-02  0.7924E-04  0.2328E+02
   -1.450013   30.81022  0.2997E-13  0.1513E-04  0.4970E-07  0.1418E-02  0.7390E-04  0.2960E+02
   -1.500014   30.81086  0.2997E-13  0.1485E-04  0.5224E-07  0.1308E-02  0.6864E-04  0.4053E+02
   -1.550014   30.81155  0.2997E-13  0.1451E-04  0.5581E-07  0.1220E-02  0.6338E-04  0.5771E+02
   -1.600014   30.81231  0.2997E-13  0.1409E-04  0.6123E-07  0.1080E-02  0.5820E-04  0.1132E+03
   -1.650014   30.81322  0.2997E-13  0.1354E-04  0.6958E-07  0.9937E-03  0.5270E-04  0.8632E+03
   -1.700014   30.81425  0.2997E-13  0.1278E-04  0.8441E-07  0.8179E-03  0.4727E-04  0.4530E+04
   -1.750013   30.81605  0.2997E-13  0.1177E-04  0.1089E-06  0.7334E-03  0.4022E-04  0.7405E+05
   -1.800011   30.81761  0.2997E-13  0.1040E-04  0.1632E-06  0.5141E-03  0.3453E-04 -0.2748E+07
   -1.850010   30.82375  0.2997E-13  0.8875E-05  0.2610E-06  0.4690E-03  0.2499E-04  0.2538E+08
   -1.900008   30.82266  0.2997E-13  0.7033E-05  0.5492E-06  0.2138E-03  0.2025E-04  0.1349E+08
   -1.950005   30.84193  0.2997E-13  0.4922E-05  0.1367E-05  0.1879E-03  0.1099E-04 -0.5987E+06
   -2.000002   30.84443  0.2997E-13  0.0000E+00  0.0000E+00  0.0000E+00  0.1978E-04  0.0000E+00
