 1 - depth, m
 2 - temperature, C
 3 - salinity, kg/kg
 4 - turbulent kinetic energy, m**2/s**2
 5 - dissipation rate, m**2/s**3
 6 - kinematic heat conductance, m**2/s
 7 - modulus of horizontal velocity, m/s
 8 - Richardson number, n/d
   -0.000000   29.48061  0.5161E-14  0.4283E-05  0.2487E-06  0.4730E-04  0.1328E-02  0.4940E+04
   -0.049997   29.50749  0.5161E-14  0.7434E-05  0.1108E-06  0.1722E-03  0.7477E-03  0.5288E+04
   -0.099994   29.51759  0.5161E-14  0.9022E-05  0.7672E-07  0.3869E-03  0.5468E-03  0.2488E+02
   -0.149992   29.52041  0.5161E-14  0.1002E-04  0.6463E-07  0.4680E-03  0.4823E-03  0.1214E+02
   -0.199991   29.52265  0.5161E-14  0.1080E-04  0.5757E-07  0.6226E-03  0.4303E-03  0.7853E+01
   -0.249989   29.52430  0.5161E-14  0.1143E-04  0.5295E-07  0.7444E-03  0.3913E-03  0.5811E+01
   -0.299989   29.52564  0.5161E-14  0.1195E-04  0.4967E-07  0.8648E-03  0.3588E-03  0.4648E+01
   -0.349988   29.52677  0.5161E-14  0.1238E-04  0.4723E-07  0.9742E-03  0.3310E-03  0.3987E+01
   -0.399988   29.52776  0.5161E-14  0.1275E-04  0.4534E-07  0.1074E-02  0.3064E-03  0.3569E+01
   -0.449988   29.52864  0.5161E-14  0.1306E-04  0.4381E-07  0.1168E-02  0.2847E-03  0.3357E+01
   -0.499988   29.52943  0.5161E-14  0.1334E-04  0.4256E-07  0.1253E-02  0.2656E-03  0.3280E+01
   -0.549989   29.53016  0.5161E-14  0.1359E-04  0.4153E-07  0.1332E-02  0.2485E-03  0.3242E+01
   -0.599990   29.53083  0.5161E-14  0.1380E-04  0.4067E-07  0.1403E-02  0.2330E-03  0.3261E+01
   -0.649991   29.53147  0.5161E-14  0.1399E-04  0.3996E-07  0.1467E-02  0.2189E-03  0.3309E+01
   -0.699992   29.53206  0.5161E-14  0.1415E-04  0.3937E-07  0.1524E-02  0.2059E-03  0.3403E+01
   -0.749993   29.53264  0.5161E-14  0.1429E-04  0.3889E-07  0.1573E-02  0.1940E-03  0.3524E+01
   -0.799995   29.53318  0.5161E-14  0.1441E-04  0.3851E-07  0.1616E-02  0.1829E-03  0.3695E+01
   -0.849996   29.53371  0.5161E-14  0.1451E-04  0.3822E-07  0.1650E-02  0.1725E-03  0.3896E+01
   -0.899998   29.53423  0.5161E-14  0.1459E-04  0.3802E-07  0.1678E-02  0.1628E-03  0.4157E+01
   -0.950000   29.53473  0.5161E-14  0.1465E-04  0.3791E-07  0.1697E-02  0.1536E-03  0.4462E+01
   -1.000002   29.53523  0.5161E-14  0.1469E-04  0.3788E-07  0.1708E-02  0.1450E-03  0.4849E+01
   -1.050003   29.53572  0.5161E-14  0.1471E-04  0.3794E-07  0.1710E-02  0.1368E-03  0.5521E+01
   -1.100005   29.53621  0.5161E-14  0.1471E-04  0.3810E-07  0.1786E-02  0.1290E-03  0.1858E+02
   -1.150007   29.53667  0.5161E-14  0.1469E-04  0.3837E-07  0.1645E-02  0.1220E-03  0.4101E+02
   -1.200008   29.53718  0.5161E-14  0.1466E-04  0.3876E-07  0.1660E-02  0.1148E-03  0.8021E+01
   -1.250010   29.53768  0.5161E-14  0.1459E-04  0.3929E-07  0.1631E-02  0.1080E-03  0.8627E+01
   -1.300011   29.53819  0.5161E-14  0.1451E-04  0.4001E-07  0.1585E-02  0.1013E-03  0.1011E+02
   -1.350012   29.53872  0.5161E-14  0.1439E-04  0.4095E-07  0.1530E-02  0.9492E-04  0.1213E+02
   -1.400013   29.53926  0.5161E-14  0.1424E-04  0.4218E-07  0.1458E-02  0.8869E-04  0.1495E+02
   -1.450014   29.53984  0.5161E-14  0.1406E-04  0.4381E-07  0.1383E-02  0.8259E-04  0.1903E+02
   -1.500015   29.54045  0.5161E-14  0.1382E-04  0.4602E-07  0.1279E-02  0.7661E-04  0.2560E+02
   -1.550015   29.54111  0.5161E-14  0.1354E-04  0.4908E-07  0.1194E-02  0.7063E-04  0.3609E+02
   -1.600015   29.54183  0.5161E-14  0.1317E-04  0.5362E-07  0.1056E-02  0.6477E-04  0.6199E+02
   -1.650015   29.54269  0.5161E-14  0.1271E-04  0.6048E-07  0.9764E-03  0.5860E-04  0.1674E+03
   -1.700015   29.54365  0.5161E-14  0.1207E-04  0.7277E-07  0.8004E-03  0.5264E-04 -0.3076E+04
   -1.750014   29.54530  0.5161E-14  0.1118E-04  0.9331E-07  0.7209E-03  0.4487E-04  0.8731E+04
   -1.800012   29.54688  0.5161E-14  0.9941E-05  0.1356E-06  0.5073E-03  0.3839E-04  0.5322E+05
   -1.850011   29.55216  0.5161E-14  0.8500E-05  0.2140E-06  0.4621E-03  0.2798E-04  0.3042E+08
   -1.900009   29.55182  0.5161E-14  0.6757E-05  0.4440E-06  0.2062E-03  0.2258E-04  0.1655E+07
   -1.950006   29.57005  0.5161E-14  0.4678E-05  0.1133E-05  0.1732E-03  0.1228E-04 -0.8292E+07
   -2.000003   29.57282  0.5161E-14  0.0000E+00  0.0000E+00  0.0000E+00  0.2157E-04  0.0000E+00
