 1 - depth, m
 2 - temperature, C
 3 - salinity, kg/kg
 4 - turbulent kinetic energy, m**2/s**2
 5 - dissipation rate, m**2/s**3
 6 - kinematic heat conductance, m**2/s
 7 - modulus of horizontal velocity, m/s
 8 - Richardson number, n/d
   -0.000000   30.33566  0.3367E-13  0.5313E-05  0.3240E-06  0.5259E-04  0.2636E-02  0.1268E+04
   -0.049997   30.36730  0.3367E-13  0.8812E-05  0.1423E-06  0.1940E-03  0.1446E-02  0.3355E+03
   -0.099994   30.37801  0.3367E-13  0.1052E-04  0.9938E-07  0.3966E-03  0.1103E-02  0.7276E+01
   -0.149992   30.38147  0.3367E-13  0.1163E-04  0.8330E-07  0.4897E-03  0.9765E-03  0.3692E+01
   -0.199991   30.38415  0.3367E-13  0.1250E-04  0.7391E-07  0.6444E-03  0.8763E-03  0.2388E+01
   -0.249989   30.38613  0.3367E-13  0.1319E-04  0.6778E-07  0.7684E-03  0.8003E-03  0.1779E+01
   -0.299988   30.38775  0.3367E-13  0.1376E-04  0.6341E-07  0.8863E-03  0.7370E-03  0.1450E+01
   -0.349988   30.38911  0.3367E-13  0.1424E-04  0.6009E-07  0.9960E-03  0.6817E-03  0.1331E+01
   -0.399988   30.39030  0.3367E-13  0.1466E-04  0.5742E-07  0.1107E-02  0.6308E-03  0.1278E+01
   -0.449988   30.39134  0.3367E-13  0.1504E-04  0.5519E-07  0.1216E-02  0.5841E-03  0.1263E+01
   -0.499988   30.39227  0.3367E-13  0.1537E-04  0.5333E-07  0.1318E-02  0.5420E-03  0.1259E+01
   -0.549989   30.39312  0.3367E-13  0.1566E-04  0.5176E-07  0.1412E-02  0.5040E-03  0.1256E+01
   -0.599989   30.39389  0.3367E-13  0.1591E-04  0.5046E-07  0.1498E-02  0.4696E-03  0.1251E+01
   -0.649990   30.39461  0.3367E-13  0.1612E-04  0.4937E-07  0.1574E-02  0.4384E-03  0.1250E+01
   -0.699992   30.39528  0.3367E-13  0.1629E-04  0.4846E-07  0.1639E-02  0.4101E-03  0.1246E+01
   -0.749993   30.39592  0.3367E-13  0.1643E-04  0.4772E-07  0.1694E-02  0.3843E-03  0.1247E+01
   -0.799994   30.39653  0.3367E-13  0.1654E-04  0.4713E-07  0.1739E-02  0.3609E-03  0.1250E+01
   -0.849996   30.39712  0.3367E-13  0.1662E-04  0.4667E-07  0.1772E-02  0.3395E-03  0.1264E+01
   -0.899998   30.39769  0.3367E-13  0.1668E-04  0.4634E-07  0.1797E-02  0.3199E-03  0.1288E+01
   -0.949999   30.39824  0.3367E-13  0.1671E-04  0.4612E-07  0.1811E-02  0.3019E-03  0.1337E+01
   -1.000001   30.39879  0.3367E-13  0.1671E-04  0.4601E-07  0.1817E-02  0.2852E-03  0.1410E+01
   -1.050003   30.39933  0.3367E-13  0.1670E-04  0.4602E-07  0.1812E-02  0.2696E-03  0.1580E+01
   -1.100004   30.39986  0.3367E-13  0.1666E-04  0.4614E-07  0.1923E-02  0.2548E-03  0.5114E+01
   -1.150006   30.40037  0.3367E-13  0.1659E-04  0.4643E-07  0.1692E-02  0.2418E-03  0.1222E+02
   -1.200008   30.40094  0.3367E-13  0.1650E-04  0.4685E-07  0.1737E-02  0.2279E-03  0.2303E+01
   -1.250009   30.40149  0.3367E-13  0.1639E-04  0.4746E-07  0.1704E-02  0.2148E-03  0.2452E+01
   -1.300010   30.40204  0.3367E-13  0.1624E-04  0.4831E-07  0.1648E-02  0.2021E-03  0.2892E+01
   -1.350012   30.40262  0.3367E-13  0.1606E-04  0.4947E-07  0.1584E-02  0.1897E-03  0.3481E+01
   -1.400013   30.40321  0.3367E-13  0.1583E-04  0.5104E-07  0.1499E-02  0.1777E-03  0.4358E+01
   -1.450013   30.40385  0.3367E-13  0.1557E-04  0.5319E-07  0.1417E-02  0.1658E-03  0.5620E+01
   -1.500014   30.40452  0.3367E-13  0.1524E-04  0.5619E-07  0.1300E-02  0.1540E-03  0.7832E+01
   -1.550014   30.40526  0.3367E-13  0.1484E-04  0.6049E-07  0.1214E-02  0.1422E-03  0.1160E+02
   -1.600014   30.40607  0.3367E-13  0.1434E-04  0.6727E-07  0.1069E-02  0.1305E-03  0.2163E+02
   -1.650014   30.40710  0.3367E-13  0.1368E-04  0.7789E-07  0.9813E-03  0.1177E-03  0.5475E+04
   -1.700014   30.40828  0.3367E-13  0.1278E-04  0.9650E-07  0.8045E-03  0.1049E-03  0.1739E+04
   -1.750013   30.41041  0.3367E-13  0.1164E-04  0.1269E-06  0.7195E-03  0.8800E-04  0.1592E+05
   -1.800011   30.41202  0.3367E-13  0.1014E-04  0.1975E-06  0.4944E-03  0.7532E-04  0.3172E+05
   -1.850010   30.41977  0.3367E-13  0.8588E-05  0.3221E-06  0.4631E-03  0.5255E-04  0.5317E+07
   -1.900008   30.41720  0.3367E-13  0.6802E-05  0.6807E-06  0.2103E-03  0.4325E-04 -0.6082E+06
   -1.950005   30.43922  0.3367E-13  0.4830E-05  0.1649E-05  0.2069E-03  0.2285E-04 -0.7866E+05
   -2.000002   30.44059  0.3367E-13  0.0000E+00  0.0000E+00  0.0000E+00  0.4451E-04  0.0000E+00
