 1 - depth, m
 2 - temperature, C
 3 - salinity, kg/kg
 4 - turbulent kinetic energy, m**2/s**2
 5 - dissipation rate, m**2/s**3
 6 - kinematic heat conductance, m**2/s
 7 - modulus of horizontal velocity, m/s
 8 - Richardson number, n/d
   -0.000000   29.63474  0.4314E-14  0.4440E-05  0.2645E-06  0.4875E-04  0.1369E-02  0.7194E+04
   -0.049997   29.66273  0.4314E-14  0.7660E-05  0.1177E-06  0.1703E-03  0.7804E-03  0.1971E+03
   -0.099994   29.67373  0.4314E-14  0.9302E-05  0.8094E-07  0.3912E-03  0.5668E-03  0.2736E+02
   -0.149992   29.67671  0.4314E-14  0.1032E-04  0.6812E-07  0.4682E-03  0.5003E-03  0.1326E+02
   -0.199991   29.67910  0.4314E-14  0.1111E-04  0.6057E-07  0.6242E-03  0.4462E-03  0.8570E+01
   -0.249989   29.68084  0.4314E-14  0.1174E-04  0.5562E-07  0.7460E-03  0.4057E-03  0.6355E+01
   -0.299989   29.68226  0.4314E-14  0.1226E-04  0.5207E-07  0.8666E-03  0.3720E-03  0.5057E+01
   -0.349988   29.68345  0.4314E-14  0.1269E-04  0.4942E-07  0.9762E-03  0.3430E-03  0.4346E+01
   -0.399988   29.68449  0.4314E-14  0.1305E-04  0.4735E-07  0.1077E-02  0.3175E-03  0.3866E+01
   -0.449988   29.68540  0.4314E-14  0.1336E-04  0.4566E-07  0.1170E-02  0.2950E-03  0.3650E+01
   -0.499988   29.68623  0.4314E-14  0.1363E-04  0.4427E-07  0.1255E-02  0.2752E-03  0.3543E+01
   -0.549989   29.68699  0.4314E-14  0.1386E-04  0.4310E-07  0.1334E-02  0.2574E-03  0.3515E+01
   -0.599990   29.68769  0.4314E-14  0.1406E-04  0.4212E-07  0.1405E-02  0.2413E-03  0.3506E+01
   -0.649991   29.68834  0.4314E-14  0.1424E-04  0.4128E-07  0.1469E-02  0.2267E-03  0.3569E+01
   -0.699992   29.68896  0.4314E-14  0.1439E-04  0.4058E-07  0.1526E-02  0.2133E-03  0.3636E+01
   -0.749993   29.68955  0.4314E-14  0.1451E-04  0.3998E-07  0.1576E-02  0.2008E-03  0.3776E+01
   -0.799995   29.69011  0.4314E-14  0.1461E-04  0.3949E-07  0.1618E-02  0.1893E-03  0.3916E+01
   -0.849997   29.69065  0.4314E-14  0.1469E-04  0.3909E-07  0.1653E-02  0.1786E-03  0.4138E+01
   -0.899998   29.69117  0.4314E-14  0.1475E-04  0.3878E-07  0.1681E-02  0.1685E-03  0.4364E+01
   -0.950000   29.69168  0.4314E-14  0.1479E-04  0.3855E-07  0.1700E-02  0.1590E-03  0.4692E+01
   -1.000002   29.69217  0.4314E-14  0.1481E-04  0.3841E-07  0.1712E-02  0.1501E-03  0.5036E+01
   -1.050003   29.69266  0.4314E-14  0.1481E-04  0.3836E-07  0.1715E-02  0.1416E-03  0.5729E+01
   -1.100005   29.69315  0.4314E-14  0.1479E-04  0.3841E-07  0.1792E-02  0.1335E-03  0.1909E+02
   -1.150007   29.69361  0.4314E-14  0.1475E-04  0.3857E-07  0.1649E-02  0.1263E-03  0.4193E+02
   -1.200008   29.69411  0.4314E-14  0.1469E-04  0.3883E-07  0.1666E-02  0.1188E-03  0.8190E+01
   -1.250010   29.69460  0.4314E-14  0.1461E-04  0.3924E-07  0.1638E-02  0.1117E-03  0.8680E+01
   -1.300011   29.69509  0.4314E-14  0.1450E-04  0.3983E-07  0.1593E-02  0.1049E-03  0.1015E+02
   -1.350012   29.69560  0.4314E-14  0.1437E-04  0.4062E-07  0.1538E-02  0.9827E-04  0.1202E+02
   -1.400014   29.69612  0.4314E-14  0.1420E-04  0.4170E-07  0.1467E-02  0.9183E-04  0.1477E+02
   -1.450014   29.69666  0.4314E-14  0.1399E-04  0.4316E-07  0.1392E-02  0.8553E-04  0.1852E+02
   -1.500015   29.69723  0.4314E-14  0.1375E-04  0.4516E-07  0.1288E-02  0.7936E-04  0.2477E+02
   -1.550015   29.69786  0.4314E-14  0.1344E-04  0.4797E-07  0.1203E-02  0.7320E-04  0.3429E+02
   -1.600015   29.69853  0.4314E-14  0.1307E-04  0.5217E-07  0.1064E-02  0.6716E-04  0.5685E+02
   -1.650015   29.69931  0.4314E-14  0.1259E-04  0.5857E-07  0.9826E-03  0.6082E-04  0.1170E+03
   -1.700015   29.70019  0.4314E-14  0.1195E-04  0.7006E-07  0.8086E-03  0.5468E-04  0.4404E+04
   -1.750014   29.70167  0.4314E-14  0.1107E-04  0.8926E-07  0.7281E-03  0.4677E-04  0.6553E+05
   -1.800013   29.70305  0.4314E-14  0.9837E-05  0.1300E-06  0.5160E-03  0.4016E-04  0.6231E+06
   -1.850011   29.70781  0.4314E-14  0.8366E-05  0.2052E-06  0.4600E-03  0.2935E-04  0.1056E+08
   -1.900009   29.70768  0.4314E-14  0.6554E-05  0.4270E-06  0.2057E-03  0.2350E-04  0.7597E+07
   -1.950006   29.72380  0.4314E-14  0.4520E-05  0.1091E-05  0.1724E-03  0.1266E-04 -0.3066E+06
   -2.000003   29.72667  0.4314E-14  0.0000E+00  0.0000E+00  0.0000E+00  0.2246E-04  0.0000E+00
