 1 - depth, m
 2 - temperature, C
 3 - salinity, kg/kg
 4 - turbulent kinetic energy, m**2/s**2
 5 - dissipation rate, m**2/s**3
 6 - kinematic heat conductance, m**2/s
 7 - modulus of horizontal velocity, m/s
 8 - Richardson number, n/d
   -0.000000   29.49507  0.3287E-14  0.4542E-05  0.2720E-06  0.4894E-04  0.1640E-02  0.3869E+04
   -0.049997   29.52332  0.3287E-14  0.7789E-05  0.1210E-06  0.1736E-03  0.9325E-03  0.3005E+04
   -0.099994   29.53421  0.3287E-14  0.9452E-05  0.8329E-07  0.3920E-03  0.6814E-03  0.1925E+02
   -0.149992   29.53722  0.3287E-14  0.1050E-04  0.6999E-07  0.4728E-03  0.6015E-03  0.9403E+01
   -0.199991   29.53962  0.3287E-14  0.1131E-04  0.6221E-07  0.6307E-03  0.5368E-03  0.6059E+01
   -0.249989   29.54138  0.3287E-14  0.1197E-04  0.5713E-07  0.7542E-03  0.4884E-03  0.4464E+01
   -0.299989   29.54281  0.3287E-14  0.1250E-04  0.5352E-07  0.8770E-03  0.4481E-03  0.3566E+01
   -0.349988   29.54401  0.3287E-14  0.1295E-04  0.5083E-07  0.9885E-03  0.4136E-03  0.3043E+01
   -0.399988   29.54505  0.3287E-14  0.1333E-04  0.4874E-07  0.1091E-02  0.3831E-03  0.2725E+01
   -0.449988   29.54598  0.3287E-14  0.1365E-04  0.4705E-07  0.1186E-02  0.3562E-03  0.2549E+01
   -0.499988   29.54682  0.3287E-14  0.1394E-04  0.4566E-07  0.1273E-02  0.3325E-03  0.2494E+01
   -0.549989   29.54759  0.3287E-14  0.1419E-04  0.4450E-07  0.1353E-02  0.3113E-03  0.2451E+01
   -0.599990   29.54830  0.3287E-14  0.1441E-04  0.4353E-07  0.1426E-02  0.2920E-03  0.2468E+01
   -0.649991   29.54897  0.3287E-14  0.1460E-04  0.4272E-07  0.1492E-02  0.2745E-03  0.2488E+01
   -0.699992   29.54960  0.3287E-14  0.1476E-04  0.4205E-07  0.1550E-02  0.2584E-03  0.2561E+01
   -0.749993   29.55020  0.3287E-14  0.1490E-04  0.4149E-07  0.1600E-02  0.2436E-03  0.2634E+01
   -0.799995   29.55077  0.3287E-14  0.1501E-04  0.4103E-07  0.1644E-02  0.2298E-03  0.2762E+01
   -0.849996   29.55133  0.3287E-14  0.1511E-04  0.4068E-07  0.1679E-02  0.2169E-03  0.2890E+01
   -0.899998   29.55186  0.3287E-14  0.1518E-04  0.4041E-07  0.1707E-02  0.2048E-03  0.3086E+01
   -0.950000   29.55239  0.3287E-14  0.1523E-04  0.4024E-07  0.1727E-02  0.1935E-03  0.3285E+01
   -1.000002   29.55290  0.3287E-14  0.1527E-04  0.4015E-07  0.1739E-02  0.1827E-03  0.3571E+01
   -1.050003   29.55341  0.3287E-14  0.1528E-04  0.4017E-07  0.1742E-02  0.1725E-03  0.4028E+01
   -1.100005   29.55391  0.3287E-14  0.1527E-04  0.4028E-07  0.1820E-02  0.1628E-03  0.1359E+02
   -1.150007   29.55440  0.3287E-14  0.1525E-04  0.4051E-07  0.1675E-02  0.1541E-03  0.2975E+02
   -1.200008   29.55492  0.3287E-14  0.1520E-04  0.4086E-07  0.1692E-02  0.1451E-03  0.5784E+01
   -1.250010   29.55543  0.3287E-14  0.1512E-04  0.4136E-07  0.1663E-02  0.1366E-03  0.6214E+01
   -1.300011   29.55595  0.3287E-14  0.1502E-04  0.4205E-07  0.1617E-02  0.1283E-03  0.7213E+01
   -1.350012   29.55649  0.3287E-14  0.1490E-04  0.4296E-07  0.1561E-02  0.1203E-03  0.8642E+01
   -1.400013   29.55704  0.3287E-14  0.1474E-04  0.4418E-07  0.1489E-02  0.1125E-03  0.1055E+02
   -1.450014   29.55762  0.3287E-14  0.1454E-04  0.4581E-07  0.1414E-02  0.1049E-03  0.1339E+02
   -1.500015   29.55823  0.3287E-14  0.1429E-04  0.4802E-07  0.1307E-02  0.9742E-04  0.1782E+02
   -1.550015   29.55890  0.3287E-14  0.1399E-04  0.5111E-07  0.1222E-02  0.8993E-04  0.2494E+02
   -1.600015   29.55962  0.3287E-14  0.1361E-04  0.5567E-07  0.1080E-02  0.8260E-04  0.4184E+02
   -1.650015   29.56048  0.3287E-14  0.1313E-04  0.6257E-07  0.1001E-02  0.7487E-04  0.2355E+03
   -1.700015   29.56142  0.3287E-14  0.1247E-04  0.7493E-07  0.8207E-03  0.6743E-04  0.1115E+04
   -1.750014   29.56303  0.3287E-14  0.1157E-04  0.9543E-07  0.7404E-03  0.5771E-04  0.1144E+05
   -1.800012   29.56451  0.3287E-14  0.1030E-04  0.1384E-06  0.5205E-03  0.4971E-04  0.4033E+05
   -1.850011   29.56970  0.3287E-14  0.8807E-05  0.2182E-06  0.4706E-03  0.3641E-04  0.8504E+07
   -1.900009   29.56956  0.3287E-14  0.6965E-05  0.4498E-06  0.2099E-03  0.2938E-04  0.2665E+07
   -1.950006   29.58735  0.3287E-14  0.4830E-05  0.1149E-05  0.1751E-03  0.1602E-04 -0.3386E+06
   -2.000003   29.59013  0.3287E-14  0.0000E+00  0.0000E+00  0.0000E+00  0.2775E-04  0.0000E+00
