 1 - depth, m
 2 - temperature, C
 3 - salinity, kg/kg
 4 - turbulent kinetic energy, m**2/s**2
 5 - dissipation rate, m**2/s**3
 6 - kinematic heat conductance, m**2/s
 7 - modulus of horizontal velocity, m/s
 8 - Richardson number, n/d
   -0.000000   30.14544  0.1028E-13  0.4788E-05  0.2961E-06  0.4957E-04  0.1111E-02  0.6398E+04
   -0.049997   30.17676  0.1028E-13  0.8297E-05  0.1319E-06  0.1805E-03  0.6301E-03  0.4218E+03
   -0.099994   30.18834  0.1028E-13  0.1005E-04  0.9119E-07  0.4025E-03  0.4632E-03  0.5008E+02
   -0.149992   30.19159  0.1028E-13  0.1115E-04  0.7671E-07  0.4834E-03  0.4095E-03  0.2452E+02
   -0.199991   30.19419  0.1028E-13  0.1200E-04  0.6819E-07  0.6448E-03  0.3660E-03  0.1588E+02
   -0.249989   30.19608  0.1028E-13  0.1268E-04  0.6259E-07  0.7699E-03  0.3333E-03  0.1172E+02
   -0.299989   30.19761  0.1028E-13  0.1323E-04  0.5858E-07  0.8946E-03  0.3061E-03  0.9359E+01
   -0.349988   30.19890  0.1028E-13  0.1368E-04  0.5557E-07  0.1007E-02  0.2828E-03  0.7964E+01
   -0.399988   30.20002  0.1028E-13  0.1407E-04  0.5322E-07  0.1111E-02  0.2622E-03  0.7124E+01
   -0.449988   30.20101  0.1028E-13  0.1440E-04  0.5130E-07  0.1206E-02  0.2441E-03  0.6646E+01
   -0.499988   30.20190  0.1028E-13  0.1468E-04  0.4971E-07  0.1294E-02  0.2280E-03  0.6497E+01
   -0.549989   30.20272  0.1028E-13  0.1492E-04  0.4837E-07  0.1374E-02  0.2136E-03  0.6361E+01
   -0.599990   30.20347  0.1028E-13  0.1513E-04  0.4724E-07  0.1447E-02  0.2006E-03  0.6397E+01
   -0.649991   30.20418  0.1028E-13  0.1531E-04  0.4628E-07  0.1513E-02  0.1887E-03  0.6417E+01
   -0.699992   30.20484  0.1028E-13  0.1546E-04  0.4546E-07  0.1571E-02  0.1778E-03  0.6601E+01
   -0.749993   30.20547  0.1028E-13  0.1558E-04  0.4477E-07  0.1621E-02  0.1677E-03  0.6747E+01
   -0.799995   30.20607  0.1028E-13  0.1568E-04  0.4419E-07  0.1663E-02  0.1583E-03  0.7075E+01
   -0.849996   30.20665  0.1028E-13  0.1576E-04  0.4372E-07  0.1698E-02  0.1495E-03  0.7353E+01
   -0.899998   30.20721  0.1028E-13  0.1581E-04  0.4334E-07  0.1725E-02  0.1413E-03  0.7851E+01
   -0.950000   30.20776  0.1028E-13  0.1584E-04  0.4307E-07  0.1744E-02  0.1335E-03  0.8304E+01
   -1.000001   30.20829  0.1028E-13  0.1585E-04  0.4289E-07  0.1755E-02  0.1262E-03  0.9028E+01
   -1.050003   30.20881  0.1028E-13  0.1584E-04  0.4281E-07  0.1755E-02  0.1192E-03  0.1011E+02
   -1.100005   30.20933  0.1028E-13  0.1580E-04  0.4284E-07  0.1843E-02  0.1125E-03  0.3364E+02
   -1.150006   30.20982  0.1028E-13  0.1575E-04  0.4300E-07  0.1670E-02  0.1066E-03  0.7696E+02
   -1.200008   30.21036  0.1028E-13  0.1567E-04  0.4329E-07  0.1697E-02  0.1004E-03  0.1456E+02
   -1.250009   30.21088  0.1028E-13  0.1556E-04  0.4374E-07  0.1667E-02  0.9452E-04  0.1556E+02
   -1.300011   30.21141  0.1028E-13  0.1543E-04  0.4440E-07  0.1618E-02  0.8886E-04  0.1803E+02
   -1.350012   30.21195  0.1028E-13  0.1527E-04  0.4531E-07  0.1559E-02  0.8335E-04  0.2171E+02
   -1.400013   30.21251  0.1028E-13  0.1507E-04  0.4656E-07  0.1483E-02  0.7799E-04  0.2660E+02
   -1.450014   30.21309  0.1028E-13  0.1482E-04  0.4828E-07  0.1404E-02  0.7272E-04  0.3415E+02
   -1.500015   30.21371  0.1028E-13  0.1453E-04  0.5068E-07  0.1294E-02  0.6755E-04  0.4616E+02
   -1.550015   30.21438  0.1028E-13  0.1417E-04  0.5409E-07  0.1207E-02  0.6235E-04  0.6649E+02
   -1.600015   30.21511  0.1028E-13  0.1373E-04  0.5932E-07  0.1068E-02  0.5725E-04  0.1269E+03
   -1.650015   30.21598  0.1028E-13  0.1317E-04  0.6755E-07  0.9830E-03  0.5183E-04  0.1861E+04
   -1.700014   30.21699  0.1028E-13  0.1239E-04  0.8222E-07  0.8061E-03  0.4642E-04  0.1888E+04
   -1.750013   30.21871  0.1028E-13  0.1137E-04  0.1065E-06  0.7242E-03  0.3945E-04  0.4714E+06
   -1.800012   30.22028  0.1028E-13  0.9981E-05  0.1597E-06  0.5041E-03  0.3376E-04  0.5187E+05
   -1.850010   30.22610  0.1028E-13  0.8464E-05  0.2552E-06  0.4634E-03  0.2421E-04  0.1030E+09
   -1.900008   30.22490  0.1028E-13  0.6712E-05  0.5338E-06  0.2113E-03  0.1969E-04 -0.1660E+05
   -1.950006   30.24336  0.1028E-13  0.4677E-05  0.1332E-05  0.1889E-03  0.1057E-04 -0.1971E+07
   -2.000003   30.24474  0.1028E-13  0.0000E+00  0.0000E+00  0.0000E+00  0.1949E-04  0.0000E+00
