 1 - depth, m
 2 - temperature, C
 3 - salinity, kg/kg
 4 - turbulent kinetic energy, m**2/s**2
 5 - dissipation rate, m**2/s**3
 6 - kinematic heat conductance, m**2/s
 7 - modulus of horizontal velocity, m/s
 8 - Richardson number, n/d
   -0.000000   30.56249  0.2185E-13  0.5770E-05  0.3158E-06  0.5546E-04  0.4218E-02  0.1387E+03
   -0.049997   30.59228  0.2185E-13  0.9037E-05  0.1351E-06  0.2117E-03  0.2267E-02  0.2790E+02
   -0.099994   30.60092  0.2185E-13  0.1048E-04  0.9743E-07  0.3856E-03  0.1830E-02  0.3260E+01
   -0.149992   30.60434  0.2185E-13  0.1147E-04  0.8258E-07  0.4805E-03  0.1643E-02  0.1761E+01
   -0.199991   30.60696  0.2185E-13  0.1226E-04  0.7384E-07  0.6002E-03  0.1496E-02  0.1312E+01
   -0.249989   30.60900  0.2185E-13  0.1295E-04  0.6784E-07  0.7097E-03  0.1378E-02  0.1305E+01
   -0.299988   30.61068  0.2185E-13  0.1360E-04  0.6315E-07  0.8414E-03  0.1266E-02  0.1400E+01
   -0.349988   30.61206  0.2185E-13  0.1421E-04  0.5930E-07  0.9887E-03  0.1156E-02  0.1498E+01
   -0.399988   30.61320  0.2185E-13  0.1477E-04  0.5612E-07  0.1142E-02  0.1049E-02  0.1520E+01
   -0.449988   30.61418  0.2185E-13  0.1527E-04  0.5348E-07  0.1291E-02  0.9500E-03  0.1518E+01
   -0.499988   30.61502  0.2185E-13  0.1570E-04  0.5131E-07  0.1430E-02  0.8617E-03  0.1511E+01
   -0.549989   30.61576  0.2185E-13  0.1607E-04  0.4955E-07  0.1555E-02  0.7834E-03  0.1493E+01
   -0.599990   30.61644  0.2185E-13  0.1637E-04  0.4811E-07  0.1666E-02  0.7137E-03  0.1472E+01
   -0.649991   30.61705  0.2185E-13  0.1661E-04  0.4695E-07  0.1760E-02  0.6518E-03  0.1447E+01
   -0.699992   30.61763  0.2185E-13  0.1679E-04  0.4603E-07  0.1836E-02  0.5968E-03  0.1418E+01
   -0.749993   30.61817  0.2185E-13  0.1692E-04  0.4532E-07  0.1895E-02  0.5478E-03  0.1386E+01
   -0.799995   30.61869  0.2185E-13  0.1701E-04  0.4480E-07  0.1936E-02  0.5042E-03  0.1352E+01
   -0.849996   30.61919  0.2185E-13  0.1705E-04  0.4445E-07  0.1961E-02  0.4654E-03  0.1314E+01
   -0.899998   30.61968  0.2185E-13  0.1706E-04  0.4425E-07  0.1969E-02  0.4309E-03  0.1276E+01
   -0.949999   30.62017  0.2185E-13  0.1703E-04  0.4419E-07  0.1964E-02  0.4001E-03  0.1233E+01
   -1.000001   30.62064  0.2185E-13  0.1698E-04  0.4426E-07  0.1945E-02  0.3727E-03  0.1188E+01
   -1.050003   30.62112  0.2185E-13  0.1690E-04  0.4446E-07  0.1905E-02  0.3483E-03  0.1143E+01
   -1.100005   30.62161  0.2185E-13  0.1681E-04  0.4475E-07  0.2097E-02  0.3269E-03  0.2618E+01
   -1.150006   30.62204  0.2185E-13  0.1670E-04  0.4519E-07  0.1680E-02  0.3116E-03  0.7410E+01
   -1.200008   30.62258  0.2185E-13  0.1656E-04  0.4578E-07  0.1786E-02  0.2936E-03  0.1319E+01
   -1.250009   30.62309  0.2185E-13  0.1639E-04  0.4660E-07  0.1744E-02  0.2769E-03  0.1385E+01
   -1.300011   30.62360  0.2185E-13  0.1619E-04  0.4768E-07  0.1670E-02  0.2610E-03  0.1644E+01
   -1.350012   30.62413  0.2185E-13  0.1595E-04  0.4913E-07  0.1593E-02  0.2454E-03  0.2026E+01
   -1.400013   30.62469  0.2185E-13  0.1567E-04  0.5109E-07  0.1485E-02  0.2301E-03  0.2621E+01
   -1.450014   30.62530  0.2185E-13  0.1533E-04  0.5380E-07  0.1398E-02  0.2149E-03  0.3511E+01
   -1.500014   30.62594  0.2185E-13  0.1492E-04  0.5765E-07  0.1258E-02  0.1998E-03  0.5216E+01
   -1.550015   30.62668  0.2185E-13  0.1443E-04  0.6325E-07  0.1184E-02  0.1841E-03  0.8590E+01
   -1.600015   30.62749  0.2185E-13  0.1380E-04  0.7253E-07  0.1021E-02  0.1689E-03  0.5125E+02
   -1.650014   30.62867  0.2185E-13  0.1296E-04  0.8704E-07  0.9394E-03  0.1507E-03  0.3771E+03
   -1.700014   30.62997  0.2185E-13  0.1181E-04  0.1127E-06  0.7450E-03  0.1328E-03  0.2591E+03
   -1.750013   30.63268  0.2185E-13  0.1046E-04  0.1530E-06  0.6706E-03  0.1070E-03  0.2971E+06
   -1.800012   30.63384  0.2185E-13  0.8888E-05  0.2429E-06  0.4472E-03  0.9215E-04  0.2297E+05
   -1.850010   30.64449  0.2185E-13  0.7413E-05  0.4134E-06  0.4409E-03  0.5929E-04  0.3829E+08
   -1.900008   30.63853  0.2185E-13  0.5907E-05  0.8766E-06  0.2068E-03  0.5042E-04  0.3470E+05
   -1.950005   30.66310  0.2185E-13  0.4289E-05  0.2025E-05  0.2404E-03  0.2534E-04 -0.3804E+05
   -2.000002   30.66098  0.2185E-13  0.0000E+00  0.0000E+00  0.0000E+00  0.5806E-04  0.0000E+00
