 1 - depth, m
 2 - temperature, C
 3 - salinity, kg/kg
 4 - turbulent kinetic energy, m**2/s**2
 5 - dissipation rate, m**2/s**3
 6 - kinematic heat conductance, m**2/s
 7 - modulus of horizontal velocity, m/s
 8 - Richardson number, n/d
   -0.000000   31.13453  0.5317E-14  0.5162E-05  0.3337E-06  0.5233E-04  0.1576E-02  0.1027E+05
   -0.049997   31.16701  0.5318E-14  0.8784E-05  0.1491E-06  0.1803E-03  0.9061E-03  0.4476E+04
   -0.099994   31.17968  0.5318E-14  0.1066E-04  0.1023E-06  0.4054E-03  0.6653E-03  0.2044E+02
   -0.149992   31.18319  0.5318E-14  0.1183E-04  0.8560E-07  0.4862E-03  0.5880E-03  0.1004E+02
   -0.199991   31.18598  0.5318E-14  0.1274E-04  0.7583E-07  0.6523E-03  0.5252E-03  0.6405E+01
   -0.249989   31.18800  0.5318E-14  0.1346E-04  0.6943E-07  0.7799E-03  0.4784E-03  0.4715E+01
   -0.299988   31.18964  0.5318E-14  0.1404E-04  0.6486E-07  0.9079E-03  0.4395E-03  0.3739E+01
   -0.349988   31.19100  0.5318E-14  0.1452E-04  0.6143E-07  0.1024E-02  0.4061E-03  0.3188E+01
   -0.399988   31.19218  0.5318E-14  0.1492E-04  0.5875E-07  0.1129E-02  0.3767E-03  0.2834E+01
   -0.449988   31.19323  0.5318E-14  0.1526E-04  0.5656E-07  0.1228E-02  0.3508E-03  0.2654E+01
   -0.499988   31.19417  0.5318E-14  0.1556E-04  0.5474E-07  0.1318E-02  0.3278E-03  0.2575E+01
   -0.549989   31.19503  0.5318E-14  0.1581E-04  0.5321E-07  0.1400E-02  0.3073E-03  0.2534E+01
   -0.599989   31.19582  0.5318E-14  0.1602E-04  0.5191E-07  0.1475E-02  0.2887E-03  0.2529E+01
   -0.649990   31.19656  0.5318E-14  0.1621E-04  0.5080E-07  0.1542E-02  0.2717E-03  0.2553E+01
   -0.699992   31.19725  0.5318E-14  0.1636E-04  0.4985E-07  0.1601E-02  0.2561E-03  0.2604E+01
   -0.749993   31.19791  0.5318E-14  0.1648E-04  0.4904E-07  0.1653E-02  0.2417E-03  0.2681E+01
   -0.799994   31.19854  0.5318E-14  0.1657E-04  0.4836E-07  0.1696E-02  0.2283E-03  0.2785E+01
   -0.849996   31.19914  0.5318E-14  0.1665E-04  0.4779E-07  0.1732E-02  0.2157E-03  0.2919E+01
   -0.899998   31.19973  0.5318E-14  0.1669E-04  0.4734E-07  0.1759E-02  0.2040E-03  0.3085E+01
   -0.949999   31.20029  0.5318E-14  0.1672E-04  0.4699E-07  0.1778E-02  0.1929E-03  0.3292E+01
   -1.000001   31.20084  0.5318E-14  0.1672E-04  0.4676E-07  0.1789E-02  0.1824E-03  0.3543E+01
   -1.050003   31.20139  0.5318E-14  0.1670E-04  0.4663E-07  0.1790E-02  0.1724E-03  0.3998E+01
   -1.100004   31.20192  0.5318E-14  0.1665E-04  0.4662E-07  0.1883E-02  0.1629E-03  0.1314E+02
   -1.150006   31.20243  0.5318E-14  0.1658E-04  0.4676E-07  0.1697E-02  0.1544E-03  0.3032E+02
   -1.200008   31.20298  0.5318E-14  0.1649E-04  0.4704E-07  0.1729E-02  0.1455E-03  0.5756E+01
   -1.250009   31.20352  0.5318E-14  0.1637E-04  0.4751E-07  0.1698E-02  0.1371E-03  0.6101E+01
   -1.300010   31.20407  0.5318E-14  0.1622E-04  0.4819E-07  0.1647E-02  0.1289E-03  0.7130E+01
   -1.350012   31.20462  0.5318E-14  0.1603E-04  0.4916E-07  0.1586E-02  0.1210E-03  0.8528E+01
   -1.400013   31.20520  0.5318E-14  0.1581E-04  0.5051E-07  0.1508E-02  0.1133E-03  0.1055E+02
   -1.450013   31.20580  0.5318E-14  0.1554E-04  0.5238E-07  0.1427E-02  0.1057E-03  0.1350E+02
   -1.500014   31.20643  0.5318E-14  0.1522E-04  0.5502E-07  0.1315E-02  0.9826E-04  0.1842E+02
   -1.550014   31.20712  0.5318E-14  0.1483E-04  0.5884E-07  0.1227E-02  0.9077E-04  0.2690E+02
   -1.600014   31.20788  0.5318E-14  0.1435E-04  0.6477E-07  0.1085E-02  0.8338E-04  0.2204E+03
   -1.650014   31.20879  0.5318E-14  0.1372E-04  0.7418E-07  0.9983E-03  0.7543E-04  0.3164E+03
   -1.700014   31.20988  0.5318E-14  0.1287E-04  0.9067E-07  0.8191E-03  0.6741E-04  0.3073E+05
   -1.750013   31.21169  0.5318E-14  0.1179E-04  0.1175E-06  0.7374E-03  0.5714E-04  0.1136E+06
   -1.800011   31.21319  0.5318E-14  0.1035E-04  0.1754E-06  0.5067E-03  0.4914E-04  0.3292E+07
   -1.850010   31.21967  0.5318E-14  0.8794E-05  0.2844E-06  0.4749E-03  0.3504E-04  0.6476E+07
   -1.900008   31.21798  0.5318E-14  0.6972E-05  0.5903E-06  0.2120E-03  0.2877E-04 -0.5693E+06
   -1.950005   31.23728  0.5318E-14  0.4889E-05  0.1453E-05  0.1974E-03  0.1550E-04  0.1254E+07
   -2.000002   31.23758  0.5318E-14  0.0000E+00  0.0000E+00  0.0000E+00  0.2861E-04  0.0000E+00
