 1 - depth, m
 2 - temperature, C
 3 - salinity, kg/kg
 4 - turbulent kinetic energy, m**2/s**2
 5 - dissipation rate, m**2/s**3
 6 - kinematic heat conductance, m**2/s
 7 - modulus of horizontal velocity, m/s
 8 - Richardson number, n/d
   -0.000000   30.65711  0.2175E-14  0.5216E-05  0.3239E-06  0.5223E-04  0.2239E-02  0.5735E+04
   -0.049997   30.68844  0.2175E-14  0.8751E-05  0.1433E-06  0.1887E-03  0.1242E-02  0.3488E+02
   -0.099994   30.69967  0.2175E-14  0.1052E-04  0.9946E-07  0.4004E-03  0.9352E-03  0.1074E+02
   -0.149992   30.70307  0.2175E-14  0.1166E-04  0.8331E-07  0.4899E-03  0.8263E-03  0.5381E+01
   -0.199991   30.70574  0.2175E-14  0.1254E-04  0.7389E-07  0.6499E-03  0.7398E-03  0.3453E+01
   -0.249989   30.70769  0.2175E-14  0.1325E-04  0.6774E-07  0.7771E-03  0.6745E-03  0.2560E+01
   -0.299988   30.70927  0.2175E-14  0.1383E-04  0.6338E-07  0.9022E-03  0.6202E-03  0.2038E+01
   -0.349988   30.71061  0.2175E-14  0.1431E-04  0.6012E-07  0.1013E-02  0.5736E-03  0.1765E+01
   -0.399988   30.71177  0.2175E-14  0.1472E-04  0.5756E-07  0.1116E-02  0.5321E-03  0.1618E+01
   -0.449988   30.71281  0.2175E-14  0.1509E-04  0.5545E-07  0.1219E-02  0.4947E-03  0.1570E+01
   -0.499988   30.71373  0.2175E-14  0.1540E-04  0.5369E-07  0.1315E-02  0.4609E-03  0.1545E+01
   -0.549989   30.71458  0.2175E-14  0.1568E-04  0.5222E-07  0.1404E-02  0.4304E-03  0.1540E+01
   -0.599989   30.71536  0.2175E-14  0.1592E-04  0.5098E-07  0.1484E-02  0.4028E-03  0.1533E+01
   -0.649990   30.71608  0.2175E-14  0.1613E-04  0.4995E-07  0.1556E-02  0.3776E-03  0.1546E+01
   -0.699992   30.71676  0.2175E-14  0.1630E-04  0.4909E-07  0.1618E-02  0.3547E-03  0.1552E+01
   -0.749993   30.71741  0.2175E-14  0.1644E-04  0.4839E-07  0.1671E-02  0.3337E-03  0.1584E+01
   -0.799994   30.71803  0.2175E-14  0.1655E-04  0.4783E-07  0.1714E-02  0.3145E-03  0.1612E+01
   -0.849996   30.71862  0.2175E-14  0.1664E-04  0.4740E-07  0.1748E-02  0.2968E-03  0.1678E+01
   -0.899997   30.71920  0.2175E-14  0.1670E-04  0.4708E-07  0.1773E-02  0.2805E-03  0.1750E+01
   -0.949999   30.71977  0.2175E-14  0.1674E-04  0.4687E-07  0.1789E-02  0.2652E-03  0.1876E+01
   -1.000001   30.72033  0.2175E-14  0.1676E-04  0.4677E-07  0.1797E-02  0.2508E-03  0.2014E+01
   -1.050003   30.72088  0.2175E-14  0.1675E-04  0.4679E-07  0.1794E-02  0.2372E-03  0.2298E+01
   -1.100004   30.72142  0.2175E-14  0.1672E-04  0.4693E-07  0.1897E-02  0.2241E-03  0.7508E+01
   -1.150006   30.72194  0.2175E-14  0.1667E-04  0.4723E-07  0.1686E-02  0.2126E-03  0.1757E+02
   -1.200007   30.72252  0.2175E-14  0.1659E-04  0.4768E-07  0.1724E-02  0.2003E-03  0.3356E+01
   -1.250009   30.72308  0.2175E-14  0.1648E-04  0.4832E-07  0.1691E-02  0.1887E-03  0.3570E+01
   -1.300010   30.72365  0.2175E-14  0.1634E-04  0.4921E-07  0.1636E-02  0.1775E-03  0.4218E+01
   -1.350011   30.72424  0.2175E-14  0.1616E-04  0.5041E-07  0.1573E-02  0.1666E-03  0.5061E+01
   -1.400012   30.72485  0.2175E-14  0.1595E-04  0.5203E-07  0.1489E-02  0.1559E-03  0.6335E+01
   -1.450013   30.72550  0.2175E-14  0.1568E-04  0.5423E-07  0.1408E-02  0.1454E-03  0.8139E+01
   -1.500014   30.72619  0.2175E-14  0.1536E-04  0.5731E-07  0.1290E-02  0.1351E-03  0.1128E+02
   -1.550014   30.72696  0.2175E-14  0.1496E-04  0.6169E-07  0.1205E-02  0.1246E-03  0.1658E+02
   -1.600014   30.72779  0.2175E-14  0.1446E-04  0.6855E-07  0.1058E-02  0.1144E-03  0.2250E+02
   -1.650014   30.72885  0.2175E-14  0.1381E-04  0.7928E-07  0.9752E-03  0.1031E-03  0.8934E+04
   -1.700013   30.73006  0.2175E-14  0.1292E-04  0.9830E-07  0.7947E-03  0.9194E-04  0.1855E+04
   -1.750012   30.73225  0.2175E-14  0.1177E-04  0.1294E-06  0.7123E-03  0.7695E-04  0.1714E+07
   -1.800011   30.73393  0.2175E-14  0.1026E-04  0.2000E-06  0.4935E-03  0.6591E-04 -0.2412E+05
   -1.850010   30.74199  0.2175E-14  0.8659E-05  0.3274E-06  0.4589E-03  0.4582E-04  0.2063E+08
   -1.900007   30.73948  0.2175E-14  0.6866E-05  0.6976E-06  0.2113E-03  0.3750E-04 -0.5636E+05
   -1.950005   30.76233  0.2175E-14  0.4893E-05  0.1675E-05  0.2077E-03  0.1983E-04 -0.4746E+07
   -2.000002   30.76299  0.2175E-14  0.0000E+00  0.0000E+00  0.0000E+00  0.3891E-04  0.0000E+00
