 1 - depth, m
 2 - temperature, C
 3 - salinity, kg/kg
 4 - turbulent kinetic energy, m**2/s**2
 5 - dissipation rate, m**2/s**3
 6 - kinematic heat conductance, m**2/s
 7 - modulus of horizontal velocity, m/s
 8 - Richardson number, n/d
   -0.000000   30.57916  0.3390E-13  0.4847E-05  0.3066E-06  0.5112E-04  0.9691E-03  0.3279E+04
   -0.049997   30.60996  0.3390E-13  0.8403E-05  0.1362E-06  0.1770E-03  0.5551E-03  0.4166E+03
   -0.099994   30.62224  0.3390E-13  0.1021E-04  0.9348E-07  0.4102E-03  0.4033E-03  0.5767E+02
   -0.149992   30.62548  0.3390E-13  0.1133E-04  0.7866E-07  0.4852E-03  0.3569E-03  0.2817E+02
   -0.199991   30.62810  0.3390E-13  0.1220E-04  0.6992E-07  0.6504E-03  0.3188E-03  0.1819E+02
   -0.249989   30.62999  0.3390E-13  0.1289E-04  0.6419E-07  0.7763E-03  0.2903E-03  0.1351E+02
   -0.299988   30.63154  0.3390E-13  0.1346E-04  0.6009E-07  0.9023E-03  0.2666E-03  0.1076E+02
   -0.349988   30.63283  0.3390E-13  0.1392E-04  0.5701E-07  0.1016E-02  0.2463E-03  0.9234E+01
   -0.399988   30.63395  0.3390E-13  0.1431E-04  0.5461E-07  0.1120E-02  0.2284E-03  0.8221E+01
   -0.449988   30.63495  0.3390E-13  0.1465E-04  0.5265E-07  0.1217E-02  0.2125E-03  0.7738E+01
   -0.499988   30.63585  0.3390E-13  0.1494E-04  0.5104E-07  0.1306E-02  0.1986E-03  0.7510E+01
   -0.549989   30.63667  0.3390E-13  0.1519E-04  0.4968E-07  0.1387E-02  0.1860E-03  0.7429E+01
   -0.599989   30.63742  0.3390E-13  0.1541E-04  0.4853E-07  0.1460E-02  0.1747E-03  0.7412E+01
   -0.649990   30.63813  0.3390E-13  0.1559E-04  0.4756E-07  0.1526E-02  0.1643E-03  0.7526E+01
   -0.699992   30.63880  0.3390E-13  0.1575E-04  0.4674E-07  0.1585E-02  0.1548E-03  0.7673E+01
   -0.749993   30.63943  0.3390E-13  0.1587E-04  0.4605E-07  0.1635E-02  0.1460E-03  0.7949E+01
   -0.799994   30.64004  0.3390E-13  0.1598E-04  0.4548E-07  0.1678E-02  0.1379E-03  0.8255E+01
   -0.849996   30.64062  0.3390E-13  0.1606E-04  0.4501E-07  0.1713E-02  0.1302E-03  0.8707E+01
   -0.899998   30.64119  0.3390E-13  0.1612E-04  0.4465E-07  0.1740E-02  0.1230E-03  0.9201E+01
   -0.949999   30.64174  0.3390E-13  0.1615E-04  0.4439E-07  0.1758E-02  0.1163E-03  0.9880E+01
   -1.000001   30.64227  0.3390E-13  0.1616E-04  0.4423E-07  0.1769E-02  0.1099E-03  0.1063E+02
   -1.050003   30.64280  0.3390E-13  0.1616E-04  0.4417E-07  0.1770E-02  0.1038E-03  0.1208E+02
   -1.100005   30.64333  0.3390E-13  0.1613E-04  0.4424E-07  0.1860E-02  0.9802E-04  0.3986E+02
   -1.150006   30.64382  0.3390E-13  0.1607E-04  0.4444E-07  0.1680E-02  0.9286E-04  0.9069E+02
   -1.200008   30.64437  0.3390E-13  0.1600E-04  0.4477E-07  0.1709E-02  0.8748E-04  0.1746E+02
   -1.250009   30.64490  0.3390E-13  0.1589E-04  0.4527E-07  0.1679E-02  0.8235E-04  0.1856E+02
   -1.300011   30.64544  0.3390E-13  0.1576E-04  0.4599E-07  0.1629E-02  0.7740E-04  0.2179E+02
   -1.350012   30.64599  0.3390E-13  0.1559E-04  0.4698E-07  0.1568E-02  0.7261E-04  0.2602E+02
   -1.400013   30.64656  0.3390E-13  0.1539E-04  0.4832E-07  0.1491E-02  0.6793E-04  0.3225E+02
   -1.450014   30.64716  0.3390E-13  0.1515E-04  0.5015E-07  0.1412E-02  0.6335E-04  0.4107E+02
   -1.500014   30.64780  0.3390E-13  0.1485E-04  0.5271E-07  0.1299E-02  0.5883E-04  0.5597E+02
   -1.550014   30.64849  0.3390E-13  0.1449E-04  0.5634E-07  0.1214E-02  0.5431E-04  0.8019E+02
   -1.600015   30.64924  0.3390E-13  0.1403E-04  0.6191E-07  0.1069E-02  0.4985E-04  0.1517E+03
   -1.650014   30.65016  0.3390E-13  0.1346E-04  0.7059E-07  0.9880E-03  0.4508E-04  0.4135E+03
   -1.700014   30.65120  0.3390E-13  0.1266E-04  0.8607E-07  0.8061E-03  0.4037E-04  0.3014E+03
   -1.750013   30.65303  0.3390E-13  0.1161E-04  0.1114E-06  0.7274E-03  0.3416E-04  0.2387E+06
   -1.800012   30.65454  0.3390E-13  0.1019E-04  0.1664E-06  0.5000E-03  0.2930E-04  0.2600E+05
   -1.850010   30.66096  0.3390E-13  0.8623E-05  0.2686E-06  0.4654E-03  0.2074E-04  0.2433E+08
   -1.900008   30.65960  0.3390E-13  0.6807E-05  0.5571E-06  0.2103E-03  0.1687E-04  0.1915E+06
   -1.950005   30.67899  0.3390E-13  0.4776E-05  0.1388E-05  0.1923E-03  0.8948E-05 -0.9937E+06
   -2.000002   30.68053  0.3390E-13  0.0000E+00  0.0000E+00  0.0000E+00  0.1691E-04  0.0000E+00
