 1 - depth, m
 2 - temperature, C
 3 - salinity, kg/kg
 4 - turbulent kinetic energy, m**2/s**2
 5 - dissipation rate, m**2/s**3
 6 - kinematic heat conductance, m**2/s
 7 - modulus of horizontal velocity, m/s
 8 - Richardson number, n/d
   -0.000000   29.49004  0.1614E-14  0.4539E-05  0.2715E-06  0.4884E-04  0.1641E-02  0.3569E+04
   -0.049997   29.51834  0.1614E-14  0.7785E-05  0.1207E-06  0.1740E-03  0.9322E-03  0.3977E+04
   -0.099994   29.52918  0.1614E-14  0.9445E-05  0.8316E-07  0.3917E-03  0.6816E-03  0.1924E+02
   -0.149992   29.53219  0.1614E-14  0.1049E-04  0.6989E-07  0.4727E-03  0.6017E-03  0.9404E+01
   -0.199991   29.53459  0.1614E-14  0.1130E-04  0.6213E-07  0.6303E-03  0.5370E-03  0.6063E+01
   -0.249989   29.53634  0.1614E-14  0.1195E-04  0.5706E-07  0.7537E-03  0.4886E-03  0.4468E+01
   -0.299989   29.53777  0.1614E-14  0.1249E-04  0.5346E-07  0.8763E-03  0.4483E-03  0.3570E+01
   -0.349988   29.53897  0.1614E-14  0.1293E-04  0.5077E-07  0.9876E-03  0.4137E-03  0.3047E+01
   -0.399988   29.54002  0.1614E-14  0.1331E-04  0.4868E-07  0.1090E-02  0.3832E-03  0.2729E+01
   -0.449988   29.54094  0.1614E-14  0.1364E-04  0.4699E-07  0.1184E-02  0.3563E-03  0.2553E+01
   -0.499988   29.54178  0.1614E-14  0.1392E-04  0.4561E-07  0.1272E-02  0.3326E-03  0.2499E+01
   -0.549989   29.54255  0.1614E-14  0.1417E-04  0.4445E-07  0.1352E-02  0.3113E-03  0.2457E+01
   -0.599990   29.54327  0.1614E-14  0.1439E-04  0.4349E-07  0.1424E-02  0.2921E-03  0.2474E+01
   -0.649991   29.54393  0.1614E-14  0.1458E-04  0.4268E-07  0.1489E-02  0.2746E-03  0.2495E+01
   -0.699992   29.54456  0.1614E-14  0.1474E-04  0.4200E-07  0.1547E-02  0.2585E-03  0.2569E+01
   -0.749993   29.54516  0.1614E-14  0.1488E-04  0.4145E-07  0.1598E-02  0.2437E-03  0.2642E+01
   -0.799995   29.54574  0.1614E-14  0.1499E-04  0.4099E-07  0.1641E-02  0.2298E-03  0.2774E+01
   -0.849996   29.54629  0.1614E-14  0.1508E-04  0.4064E-07  0.1676E-02  0.2170E-03  0.2902E+01
   -0.899998   29.54683  0.1614E-14  0.1516E-04  0.4037E-07  0.1704E-02  0.2049E-03  0.3102E+01
   -0.950000   29.54735  0.1614E-14  0.1521E-04  0.4020E-07  0.1724E-02  0.1935E-03  0.3302E+01
   -1.000002   29.54787  0.1614E-14  0.1524E-04  0.4012E-07  0.1735E-02  0.1827E-03  0.3594E+01
   -1.050003   29.54838  0.1614E-14  0.1526E-04  0.4014E-07  0.1738E-02  0.1725E-03  0.4054E+01
   -1.100005   29.54888  0.1614E-14  0.1525E-04  0.4025E-07  0.1816E-02  0.1628E-03  0.1366E+02
   -1.150007   29.54936  0.1614E-14  0.1522E-04  0.4049E-07  0.1669E-02  0.1541E-03  0.3021E+02
   -1.200008   29.54989  0.1614E-14  0.1517E-04  0.4084E-07  0.1687E-02  0.1451E-03  0.5844E+01
   -1.250010   29.55040  0.1614E-14  0.1509E-04  0.4135E-07  0.1658E-02  0.1365E-03  0.6288E+01
   -1.300011   29.55092  0.1614E-14  0.1499E-04  0.4204E-07  0.1611E-02  0.1283E-03  0.7305E+01
   -1.350012   29.55146  0.1614E-14  0.1486E-04  0.4297E-07  0.1555E-02  0.1203E-03  0.8783E+01
   -1.400013   29.55201  0.1614E-14  0.1470E-04  0.4420E-07  0.1482E-02  0.1125E-03  0.1075E+02
   -1.450014   29.55260  0.1614E-14  0.1450E-04  0.4585E-07  0.1407E-02  0.1048E-03  0.1371E+02
   -1.500015   29.55322  0.1614E-14  0.1425E-04  0.4810E-07  0.1300E-02  0.9736E-04  0.1835E+02
   -1.550015   29.55389  0.1614E-14  0.1394E-04  0.5124E-07  0.1215E-02  0.8985E-04  0.2592E+02
   -1.600015   29.55462  0.1614E-14  0.1356E-04  0.5593E-07  0.1074E-02  0.8251E-04  0.4575E+02
   -1.650015   29.55548  0.1614E-14  0.1307E-04  0.6303E-07  0.9933E-03  0.7474E-04  0.3737E+03
   -1.700015   29.55645  0.1614E-14  0.1240E-04  0.7567E-07  0.8160E-03  0.6721E-04  0.2120E+04
   -1.750014   29.55809  0.1614E-14  0.1149E-04  0.9678E-07  0.7347E-03  0.5751E-04  0.2177E+05
   -1.800012   29.55965  0.1614E-14  0.1022E-04  0.1410E-06  0.5210E-03  0.4936E-04  0.4597E+06
   -1.850011   29.56488  0.1614E-14  0.8729E-05  0.2224E-06  0.4687E-03  0.3620E-04  0.1879E+07
   -1.900009   29.56459  0.1614E-14  0.6907E-05  0.4625E-06  0.2137E-03  0.2917E-04  0.4550E+06
   -1.950006   29.58248  0.1614E-14  0.4788E-05  0.1185E-05  0.1754E-03  0.1589E-04 -0.5100E+06
   -2.000003   29.58582  0.1614E-14  0.0000E+00  0.0000E+00  0.0000E+00  0.2782E-04  0.0000E+00
