 1 - depth, m
 2 - temperature, C
 3 - salinity, kg/kg
 4 - turbulent kinetic energy, m**2/s**2
 5 - dissipation rate, m**2/s**3
 6 - kinematic heat conductance, m**2/s
 7 - modulus of horizontal velocity, m/s
 8 - Richardson number, n/d
   -0.000000   30.96948  0.6311E-14  0.5053E-05  0.3227E-06  0.5079E-04  0.5423E-03  0.2725E+05
   -0.049997   31.00285  0.6311E-14  0.8884E-05  0.1432E-06  0.1884E-03  0.3068E-03  0.8736E+04
   -0.099994   31.01465  0.6311E-14  0.1074E-04  0.9919E-07  0.4242E-03  0.2246E-03  0.1688E+03
   -0.149992   31.01798  0.6311E-14  0.1190E-04  0.8373E-07  0.5005E-03  0.1992E-03  0.8380E+02
   -0.199991   31.02067  0.6311E-14  0.1281E-04  0.7457E-07  0.6697E-03  0.1783E-03  0.5472E+02
   -0.249989   31.02262  0.6311E-14  0.1353E-04  0.6854E-07  0.7981E-03  0.1627E-03  0.4084E+02
   -0.299988   31.02422  0.6311E-14  0.1411E-04  0.6423E-07  0.9264E-03  0.1496E-03  0.3264E+02
   -0.349988   31.02556  0.6311E-14  0.1460E-04  0.6098E-07  0.1042E-02  0.1384E-03  0.2803E+02
   -0.399988   31.02672  0.6311E-14  0.1500E-04  0.5845E-07  0.1148E-02  0.1285E-03  0.2497E+02
   -0.449988   31.02775  0.6311E-14  0.1535E-04  0.5639E-07  0.1246E-02  0.1197E-03  0.2350E+02
   -0.499988   31.02868  0.6311E-14  0.1565E-04  0.5468E-07  0.1336E-02  0.1120E-03  0.2282E+02
   -0.549989   31.02953  0.6311E-14  0.1591E-04  0.5325E-07  0.1418E-02  0.1050E-03  0.2255E+02
   -0.599989   31.03032  0.6311E-14  0.1613E-04  0.5204E-07  0.1492E-02  0.9875E-04  0.2251E+02
   -0.649990   31.03106  0.6311E-14  0.1632E-04  0.5102E-07  0.1558E-02  0.9299E-04  0.2283E+02
   -0.699992   31.03175  0.6311E-14  0.1648E-04  0.5016E-07  0.1616E-02  0.8771E-04  0.2328E+02
   -0.749993   31.03241  0.6311E-14  0.1661E-04  0.4944E-07  0.1667E-02  0.8280E-04  0.2409E+02
   -0.799994   31.03305  0.6311E-14  0.1672E-04  0.4884E-07  0.1709E-02  0.7824E-04  0.2504E+02
   -0.849996   31.03366  0.6311E-14  0.1680E-04  0.4836E-07  0.1743E-02  0.7397E-04  0.2638E+02
   -0.899997   31.03425  0.6311E-14  0.1686E-04  0.4800E-07  0.1769E-02  0.6997E-04  0.2791E+02
   -0.949999   31.03482  0.6311E-14  0.1689E-04  0.4774E-07  0.1786E-02  0.6618E-04  0.2994E+02
   -1.000001   31.03539  0.6311E-14  0.1690E-04  0.4760E-07  0.1795E-02  0.6260E-04  0.3227E+02
   -1.050003   31.03594  0.6311E-14  0.1688E-04  0.4757E-07  0.1792E-02  0.5918E-04  0.3662E+02
   -1.100004   31.03650  0.6311E-14  0.1685E-04  0.4768E-07  0.1895E-02  0.5593E-04  0.1194E+03
   -1.150006   31.03701  0.6311E-14  0.1678E-04  0.4794E-07  0.1684E-02  0.5305E-04  0.2838E+03
   -1.200007   31.03760  0.6311E-14  0.1669E-04  0.4834E-07  0.1722E-02  0.4999E-04  0.5354E+02
   -1.250009   31.03816  0.6311E-14  0.1658E-04  0.4895E-07  0.1689E-02  0.4709E-04  0.5696E+02
   -1.300010   31.03873  0.6311E-14  0.1643E-04  0.4980E-07  0.1635E-02  0.4429E-04  0.6712E+02
   -1.350011   31.03932  0.6311E-14  0.1624E-04  0.5097E-07  0.1571E-02  0.4157E-04  0.8080E+02
   -1.400012   31.03993  0.6311E-14  0.1601E-04  0.5257E-07  0.1487E-02  0.3892E-04  0.1011E+03
   -1.450013   31.04058  0.6311E-14  0.1574E-04  0.5475E-07  0.1406E-02  0.3630E-04  0.1306E+03
   -1.500014   31.04126  0.6311E-14  0.1540E-04  0.5783E-07  0.1289E-02  0.3372E-04  0.1819E+03
   -1.550014   31.04202  0.6311E-14  0.1499E-04  0.6224E-07  0.1204E-02  0.3112E-04  0.2720E+03
   -1.600014   31.04284  0.6311E-14  0.1448E-04  0.6922E-07  0.1057E-02  0.2855E-04  0.8368E+03
   -1.650014   31.04390  0.6311E-14  0.1381E-04  0.8020E-07  0.9731E-03  0.2573E-04  0.9146E+04
   -1.700013   31.04512  0.6311E-14  0.1289E-04  0.9928E-07  0.7962E-03  0.2291E-04  0.2348E+06
   -1.750012   31.04727  0.6311E-14  0.1173E-04  0.1305E-06  0.7131E-03  0.1921E-04  0.6157E+06
   -1.800011   31.04889  0.6311E-14  0.1021E-04  0.1993E-06  0.4936E-03  0.1645E-04  0.1115E+07
   -1.850009   31.05686  0.6311E-14  0.8605E-05  0.3275E-06  0.4595E-03  0.1141E-04  0.4825E+09
   -1.900007   31.05436  0.6311E-14  0.6810E-05  0.6857E-06  0.2140E-03  0.9344E-05  0.3151E+09
   -1.950005   31.07672  0.6311E-14  0.4842E-05  0.1666E-05  0.2067E-03  0.4918E-05 -0.6097E+07
   -2.000002   31.07756  0.6311E-14  0.0000E+00  0.0000E+00  0.0000E+00  0.9736E-05  0.0000E+00
