 1 - depth, m
 2 - temperature, C
 3 - salinity, kg/kg
 4 - turbulent kinetic energy, m**2/s**2
 5 - dissipation rate, m**2/s**3
 6 - kinematic heat conductance, m**2/s
 7 - modulus of horizontal velocity, m/s
 8 - Richardson number, n/d
   -0.000000   31.48570  0.1098E-14  0.5669E-05  0.3890E-06  0.5421E-04  0.1203E-02  0.6175E+04
   -0.049997   31.52240  0.1098E-14  0.9706E-05  0.1729E-06  0.1924E-03  0.6886E-03  0.1025E+04
   -0.099994   31.53634  0.1098E-14  0.1178E-04  0.1188E-06  0.4268E-03  0.5080E-03  0.3557E+02
   -0.149992   31.54018  0.1098E-14  0.1308E-04  0.9946E-07  0.5095E-03  0.4502E-03  0.1765E+02
   -0.199990   31.54325  0.1098E-14  0.1409E-04  0.8815E-07  0.6855E-03  0.4030E-03  0.1125E+02
   -0.249989   31.54546  0.1098E-14  0.1489E-04  0.8078E-07  0.8174E-03  0.3679E-03  0.8333E+01
   -0.299988   31.54726  0.1098E-14  0.1554E-04  0.7553E-07  0.9523E-03  0.3387E-03  0.6615E+01
   -0.349987   31.54877  0.1098E-14  0.1607E-04  0.7160E-07  0.1073E-02  0.3136E-03  0.5658E+01
   -0.399987   31.55007  0.1098E-14  0.1652E-04  0.6853E-07  0.1183E-02  0.2915E-03  0.5028E+01
   -0.449987   31.55123  0.1098E-14  0.1690E-04  0.6604E-07  0.1286E-02  0.2720E-03  0.4719E+01
   -0.499987   31.55227  0.1098E-14  0.1723E-04  0.6398E-07  0.1379E-02  0.2548E-03  0.4572E+01
   -0.549988   31.55322  0.1098E-14  0.1751E-04  0.6225E-07  0.1464E-02  0.2392E-03  0.4510E+01
   -0.599989   31.55410  0.1098E-14  0.1775E-04  0.6080E-07  0.1541E-02  0.2252E-03  0.4493E+01
   -0.649990   31.55492  0.1098E-14  0.1795E-04  0.5956E-07  0.1610E-02  0.2123E-03  0.4551E+01
   -0.699991   31.55569  0.1098E-14  0.1812E-04  0.5851E-07  0.1670E-02  0.2005E-03  0.4634E+01
   -0.749992   31.55643  0.1098E-14  0.1825E-04  0.5763E-07  0.1721E-02  0.1896E-03  0.4792E+01
   -0.799994   31.55713  0.1098E-14  0.1836E-04  0.5691E-07  0.1764E-02  0.1794E-03  0.4973E+01
   -0.849995   31.55781  0.1098E-14  0.1844E-04  0.5632E-07  0.1799E-02  0.1698E-03  0.5239E+01
   -0.899997   31.55847  0.1098E-14  0.1849E-04  0.5586E-07  0.1824E-02  0.1608E-03  0.5536E+01
   -0.949998   31.55911  0.1098E-14  0.1851E-04  0.5554E-07  0.1840E-02  0.1523E-03  0.5944E+01
   -1.000000   31.55973  0.1098E-14  0.1851E-04  0.5535E-07  0.1848E-02  0.1442E-03  0.6402E+01
   -1.050002   31.56035  0.1098E-14  0.1847E-04  0.5531E-07  0.1843E-02  0.1366E-03  0.7271E+01
   -1.100003   31.56096  0.1098E-14  0.1842E-04  0.5541E-07  0.1962E-02  0.1292E-03  0.2330E+02
   -1.150005   31.56153  0.1098E-14  0.1833E-04  0.5572E-07  0.1708E-02  0.1228E-03  0.5826E+02
   -1.200006   31.56219  0.1098E-14  0.1821E-04  0.5620E-07  0.1759E-02  0.1158E-03  0.1076E+02
   -1.250008   31.56282  0.1098E-14  0.1806E-04  0.5694E-07  0.1726E-02  0.1092E-03  0.1143E+02
   -1.300009   31.56345  0.1098E-14  0.1788E-04  0.5798E-07  0.1665E-02  0.1028E-03  0.1358E+02
   -1.350010   31.56411  0.1098E-14  0.1765E-04  0.5943E-07  0.1598E-02  0.9663E-04  0.1646E+02
   -1.400011   31.56479  0.1098E-14  0.1737E-04  0.6144E-07  0.1504E-02  0.9056E-04  0.2095E+02
   -1.450012   31.56551  0.1098E-14  0.1703E-04  0.6425E-07  0.1423E-02  0.8454E-04  0.2745E+02
   -1.500012   31.56629  0.1098E-14  0.1662E-04  0.6826E-07  0.1297E-02  0.7861E-04  0.3971E+02
   -1.550013   31.56715  0.1098E-14  0.1612E-04  0.7413E-07  0.1219E-02  0.7255E-04  0.6440E+02
   -1.600013   31.56809  0.1098E-14  0.1549E-04  0.8381E-07  0.1063E-02  0.6661E-04  0.7505E+04
   -1.650012   31.56943  0.1098E-14  0.1465E-04  0.9889E-07  0.9818E-03  0.5970E-04  0.4532E+04
   -1.700012   31.57085  0.1098E-14  0.1351E-04  0.1263E-06  0.7905E-03  0.5301E-04  0.3073E+05
   -1.750011   31.57368  0.1098E-14  0.1218E-04  0.1696E-06  0.7200E-03  0.4365E-04  0.7669E+06
   -1.800010   31.57517  0.1098E-14  0.1053E-04  0.2661E-06  0.4885E-03  0.3768E-04  0.2944E+05
   -1.850008   31.58584  0.1098E-14  0.8906E-05  0.4458E-06  0.4697E-03  0.2548E-04  0.4669E+09
   -1.900006   31.58082  0.1098E-14  0.7106E-05  0.9383E-06  0.2200E-03  0.2136E-04 -0.6365E+06
   -1.950003   31.60754  0.1098E-14  0.5133E-05  0.2191E-05  0.2340E-03  0.1115E-04  0.2585E+06
   -2.000000   31.60598  0.1098E-14  0.0000E+00  0.0000E+00  0.0000E+00  0.2324E-04  0.0000E+00
