 1 - depth, m
 2 - temperature, C
 3 - salinity, kg/kg
 4 - turbulent kinetic energy, m**2/s**2
 5 - dissipation rate, m**2/s**3
 6 - kinematic heat conductance, m**2/s
 7 - modulus of horizontal velocity, m/s
 8 - Richardson number, n/d
   -0.000000   30.14186  0.1690E-13  0.4803E-05  0.2988E-06  0.5013E-04  0.1274E-02  0.8388E+04
   -0.049997   30.17270  0.1690E-13  0.8279E-05  0.1330E-06  0.1786E-03  0.7246E-03  0.3013E+03
   -0.099994   30.18451  0.1690E-13  0.1005E-04  0.9172E-07  0.4014E-03  0.5309E-03  0.2964E+02
   -0.149992   30.18777  0.1690E-13  0.1115E-04  0.7707E-07  0.4820E-03  0.4692E-03  0.1453E+02
   -0.199991   30.19036  0.1690E-13  0.1201E-04  0.6848E-07  0.6440E-03  0.4191E-03  0.9337E+01
   -0.249989   30.19225  0.1690E-13  0.1270E-04  0.6285E-07  0.7692E-03  0.3816E-03  0.6903E+01
   -0.299988   30.19379  0.1690E-13  0.1325E-04  0.5884E-07  0.8944E-03  0.3504E-03  0.5494E+01
   -0.349988   30.19508  0.1690E-13  0.1372E-04  0.5583E-07  0.1007E-02  0.3237E-03  0.4701E+01
   -0.399988   30.19620  0.1690E-13  0.1410E-04  0.5348E-07  0.1111E-02  0.3001E-03  0.4189E+01
   -0.449988   30.19719  0.1690E-13  0.1444E-04  0.5158E-07  0.1207E-02  0.2792E-03  0.3935E+01
   -0.499988   30.19808  0.1690E-13  0.1473E-04  0.5001E-07  0.1295E-02  0.2608E-03  0.3828E+01
   -0.549989   30.19890  0.1690E-13  0.1498E-04  0.4869E-07  0.1375E-02  0.2443E-03  0.3779E+01
   -0.599990   30.19966  0.1690E-13  0.1519E-04  0.4758E-07  0.1448E-02  0.2294E-03  0.3780E+01
   -0.649991   30.20037  0.1690E-13  0.1537E-04  0.4664E-07  0.1514E-02  0.2158E-03  0.3829E+01
   -0.699992   30.20104  0.1690E-13  0.1553E-04  0.4585E-07  0.1571E-02  0.2033E-03  0.3914E+01
   -0.749993   30.20168  0.1690E-13  0.1566E-04  0.4518E-07  0.1621E-02  0.1917E-03  0.4045E+01
   -0.799995   30.20228  0.1690E-13  0.1576E-04  0.4463E-07  0.1664E-02  0.1810E-03  0.4213E+01
   -0.849996   30.20287  0.1690E-13  0.1584E-04  0.4419E-07  0.1698E-02  0.1709E-03  0.4433E+01
   -0.899998   30.20343  0.1690E-13  0.1590E-04  0.4385E-07  0.1725E-02  0.1615E-03  0.4698E+01
   -0.950000   30.20399  0.1690E-13  0.1594E-04  0.4361E-07  0.1742E-02  0.1526E-03  0.5033E+01
   -1.000001   30.20453  0.1690E-13  0.1595E-04  0.4347E-07  0.1753E-02  0.1442E-03  0.5432E+01
   -1.050003   30.20506  0.1690E-13  0.1594E-04  0.4344E-07  0.1752E-02  0.1362E-03  0.6158E+01
   -1.100005   30.20559  0.1690E-13  0.1591E-04  0.4351E-07  0.1844E-02  0.1286E-03  0.2027E+02
   -1.150006   30.20609  0.1690E-13  0.1586E-04  0.4373E-07  0.1661E-02  0.1218E-03  0.4698E+02
   -1.200008   30.20664  0.1690E-13  0.1578E-04  0.4408E-07  0.1690E-02  0.1147E-03  0.8950E+01
   -1.250009   30.20718  0.1690E-13  0.1568E-04  0.4460E-07  0.1659E-02  0.1080E-03  0.9529E+01
   -1.300011   30.20772  0.1690E-13  0.1555E-04  0.4533E-07  0.1609E-02  0.1015E-03  0.1119E+02
   -1.350012   30.20828  0.1690E-13  0.1538E-04  0.4634E-07  0.1548E-02  0.9516E-04  0.1342E+02
   -1.400013   30.20886  0.1690E-13  0.1518E-04  0.4771E-07  0.1469E-02  0.8900E-04  0.1668E+02
   -1.450014   30.20947  0.1690E-13  0.1494E-04  0.4957E-07  0.1391E-02  0.8296E-04  0.2136E+02
   -1.500014   30.21012  0.1690E-13  0.1464E-04  0.5217E-07  0.1277E-02  0.7701E-04  0.2933E+02
   -1.550015   30.21083  0.1690E-13  0.1427E-04  0.5586E-07  0.1194E-02  0.7103E-04  0.4222E+02
   -1.600015   30.21159  0.1690E-13  0.1381E-04  0.6156E-07  0.1049E-02  0.6517E-04  0.8390E+02
   -1.650015   30.21254  0.1690E-13  0.1323E-04  0.7045E-07  0.9704E-03  0.5885E-04  0.5131E+04
   -1.700014   30.21361  0.1690E-13  0.1241E-04  0.8645E-07  0.7892E-03  0.5265E-04  0.2045E+05
   -1.750013   30.21556  0.1690E-13  0.1134E-04  0.1126E-06  0.7102E-03  0.4432E-04  0.4879E+05
   -1.800012   30.21714  0.1690E-13  0.9922E-05  0.1671E-06  0.4924E-03  0.3794E-04  0.9147E+05
   -1.850010   30.22383  0.1690E-13  0.8359E-05  0.2719E-06  0.4504E-03  0.2679E-04  0.2957E+10
   -1.900008   30.22232  0.1690E-13  0.6594E-05  0.5789E-06  0.2063E-03  0.2170E-04 -0.5018E+04
   -1.950006   30.24240  0.1690E-13  0.4646E-05  0.1422E-05  0.1949E-03  0.1152E-04 -0.1076E+07
   -2.000003   30.24359  0.1690E-13  0.0000E+00  0.0000E+00  0.0000E+00  0.2191E-04  0.0000E+00
