 1 - depth, m
 2 - temperature, C
 3 - salinity, kg/kg
 4 - turbulent kinetic energy, m**2/s**2
 5 - dissipation rate, m**2/s**3
 6 - kinematic heat conductance, m**2/s
 7 - modulus of horizontal velocity, m/s
 8 - Richardson number, n/d
   -0.000000   31.35437  0.1504E-13  0.5317E-05  0.3526E-06  0.5303E-04  0.1275E-02  0.7651E+04
   -0.049997   31.38790  0.1505E-13  0.9118E-05  0.1568E-06  0.1855E-03  0.7311E-03  0.1705E+03
   -0.099994   31.40098  0.1505E-13  0.1108E-04  0.1076E-06  0.4180E-03  0.5367E-03  0.3137E+02
   -0.149992   31.40451  0.1505E-13  0.1231E-04  0.9023E-07  0.4985E-03  0.4753E-03  0.1545E+02
   -0.199990   31.40735  0.1505E-13  0.1326E-04  0.8005E-07  0.6703E-03  0.4251E-03  0.9877E+01
   -0.249989   31.40939  0.1505E-13  0.1402E-04  0.7342E-07  0.7999E-03  0.3878E-03  0.7289E+01
   -0.299988   31.41106  0.1505E-13  0.1464E-04  0.6871E-07  0.9316E-03  0.3567E-03  0.5803E+01
   -0.349988   31.41245  0.1505E-13  0.1515E-04  0.6518E-07  0.1050E-02  0.3300E-03  0.4948E+01
   -0.399987   31.41366  0.1505E-13  0.1558E-04  0.6245E-07  0.1158E-02  0.3065E-03  0.4413E+01
   -0.449987   31.41474  0.1505E-13  0.1595E-04  0.6023E-07  0.1258E-02  0.2858E-03  0.4125E+01
   -0.499988   31.41571  0.1505E-13  0.1627E-04  0.5840E-07  0.1350E-02  0.2674E-03  0.4015E+01
   -0.549988   31.41659  0.1505E-13  0.1654E-04  0.5687E-07  0.1434E-02  0.2509E-03  0.3943E+01
   -0.599989   31.41741  0.1505E-13  0.1678E-04  0.5559E-07  0.1509E-02  0.2360E-03  0.3950E+01
   -0.649990   31.41818  0.1505E-13  0.1698E-04  0.5452E-07  0.1577E-02  0.2224E-03  0.3983E+01
   -0.699991   31.41890  0.1505E-13  0.1715E-04  0.5362E-07  0.1636E-02  0.2099E-03  0.4081E+01
   -0.749992   31.41959  0.1505E-13  0.1729E-04  0.5287E-07  0.1687E-02  0.1983E-03  0.4199E+01
   -0.799994   31.42024  0.1505E-13  0.1741E-04  0.5226E-07  0.1730E-02  0.1875E-03  0.4388E+01
   -0.849995   31.42088  0.1505E-13  0.1750E-04  0.5178E-07  0.1765E-02  0.1774E-03  0.4597E+01
   -0.899997   31.42149  0.1505E-13  0.1756E-04  0.5142E-07  0.1790E-02  0.1679E-03  0.4895E+01
   -0.949998   31.42209  0.1505E-13  0.1760E-04  0.5119E-07  0.1807E-02  0.1589E-03  0.5225E+01
   -1.000000   31.42269  0.1505E-13  0.1761E-04  0.5108E-07  0.1816E-02  0.1504E-03  0.5672E+01
   -1.050002   31.42327  0.1505E-13  0.1760E-04  0.5110E-07  0.1812E-02  0.1423E-03  0.6408E+01
   -1.100003   31.42385  0.1505E-13  0.1757E-04  0.5126E-07  0.1921E-02  0.1345E-03  0.2089E+02
   -1.150005   31.42439  0.1505E-13  0.1750E-04  0.5160E-07  0.1694E-02  0.1277E-03  0.5068E+02
   -1.200006   31.42501  0.1505E-13  0.1741E-04  0.5210E-07  0.1736E-02  0.1204E-03  0.9452E+01
   -1.250008   31.42561  0.1505E-13  0.1729E-04  0.5283E-07  0.1703E-02  0.1135E-03  0.1012E+02
   -1.300009   31.42621  0.1505E-13  0.1713E-04  0.5384E-07  0.1645E-02  0.1068E-03  0.1192E+02
   -1.350010   31.42684  0.1505E-13  0.1694E-04  0.5521E-07  0.1580E-02  0.1003E-03  0.1449E+02
   -1.400011   31.42749  0.1505E-13  0.1670E-04  0.5707E-07  0.1493E-02  0.9395E-04  0.1819E+02
   -1.450012   31.42819  0.1505E-13  0.1641E-04  0.5963E-07  0.1410E-02  0.8767E-04  0.2379E+02
   -1.500013   31.42893  0.1505E-13  0.1605E-04  0.6322E-07  0.1291E-02  0.8148E-04  0.3348E+02
   -1.550013   31.42975  0.1505E-13  0.1561E-04  0.6842E-07  0.1206E-02  0.7519E-04  0.5188E+02
   -1.600013   31.43065  0.1505E-13  0.1505E-04  0.7669E-07  0.1059E-02  0.6900E-04 -0.1848E+04
   -1.650013   31.43184  0.1505E-13  0.1431E-04  0.8969E-07  0.9720E-03  0.6206E-04  0.1991E+05
   -1.700012   31.43321  0.1505E-13  0.1329E-04  0.1129E-06  0.7918E-03  0.5513E-04  0.1984E+05
   -1.750011   31.43570  0.1505E-13  0.1205E-04  0.1498E-06  0.7097E-03  0.4591E-04  0.3604E+06
   -1.800010   31.43740  0.1505E-13  0.1044E-04  0.2330E-06  0.4872E-03  0.3936E-04  0.2489E+06
   -1.850008   31.44685  0.1505E-13  0.8826E-05  0.3860E-06  0.4596E-03  0.2694E-04  0.2345E+09
   -1.900006   31.44321  0.1505E-13  0.7014E-05  0.8042E-06  0.2135E-03  0.2229E-04 -0.3543E+06
   -1.950003   31.46899  0.1505E-13  0.5051E-05  0.1912E-05  0.2206E-03  0.1170E-04 -0.1869E+07
   -2.000000   31.46847  0.1505E-13  0.0000E+00  0.0000E+00  0.0000E+00  0.2365E-04  0.0000E+00
