 1 - depth, m
 2 - temperature, C
 3 - salinity, kg/kg
 4 - turbulent kinetic energy, m**2/s**2
 5 - dissipation rate, m**2/s**3
 6 - kinematic heat conductance, m**2/s
 7 - modulus of horizontal velocity, m/s
 8 - Richardson number, n/d
   -0.000000   29.62827  0.6036E-13  0.4247E-05  0.2439E-06  0.4570E-04  0.6264E-03  0.7988E+05
   -0.049997   29.65648  0.6036E-13  0.7538E-05  0.1082E-06  0.1785E-03  0.3461E-03  0.8269E+02
   -0.099994   29.66614  0.6036E-13  0.9107E-05  0.7561E-07  0.3975E-03  0.2544E-03  0.1234E+03
   -0.149992   29.66891  0.6036E-13  0.1009E-04  0.6404E-07  0.4772E-03  0.2249E-03  0.6042E+02
   -0.199991   29.67112  0.6036E-13  0.1086E-04  0.5720E-07  0.6321E-03  0.2010E-03  0.3972E+02
   -0.249989   29.67275  0.6036E-13  0.1148E-04  0.5269E-07  0.7540E-03  0.1830E-03  0.2959E+02
   -0.299989   29.67407  0.6036E-13  0.1199E-04  0.4947E-07  0.8740E-03  0.1679E-03  0.2378E+02
   -0.349988   29.67520  0.6036E-13  0.1242E-04  0.4705E-07  0.9830E-03  0.1550E-03  0.2042E+02
   -0.399988   29.67617  0.6036E-13  0.1278E-04  0.4518E-07  0.1083E-02  0.1436E-03  0.1831E+02
   -0.449988   29.67704  0.6036E-13  0.1309E-04  0.4366E-07  0.1176E-02  0.1335E-03  0.1721E+02
   -0.499988   29.67783  0.6036E-13  0.1336E-04  0.4241E-07  0.1261E-02  0.1246E-03  0.1682E+02
   -0.549989   29.67855  0.6036E-13  0.1360E-04  0.4137E-07  0.1339E-02  0.1166E-03  0.1661E+02
   -0.599990   29.67922  0.6036E-13  0.1381E-04  0.4051E-07  0.1410E-02  0.1093E-03  0.1671E+02
   -0.649991   29.67985  0.6036E-13  0.1399E-04  0.3978E-07  0.1474E-02  0.1028E-03  0.1692E+02
   -0.699992   29.68044  0.6036E-13  0.1415E-04  0.3918E-07  0.1531E-02  0.9670E-04  0.1741E+02
   -0.749993   29.68100  0.6036E-13  0.1429E-04  0.3869E-07  0.1581E-02  0.9112E-04  0.1799E+02
   -0.799995   29.68154  0.6036E-13  0.1440E-04  0.3830E-07  0.1623E-02  0.8591E-04  0.1887E+02
   -0.849996   29.68206  0.6036E-13  0.1450E-04  0.3799E-07  0.1658E-02  0.8107E-04  0.1985E+02
   -0.899998   29.68257  0.6036E-13  0.1457E-04  0.3778E-07  0.1685E-02  0.7651E-04  0.2119E+02
   -0.950000   29.68306  0.6036E-13  0.1463E-04  0.3764E-07  0.1705E-02  0.7224E-04  0.2269E+02
   -1.000002   29.68355  0.6036E-13  0.1467E-04  0.3760E-07  0.1717E-02  0.6818E-04  0.2466E+02
   -1.050003   29.68403  0.6036E-13  0.1469E-04  0.3764E-07  0.1720E-02  0.6434E-04  0.2800E+02
   -1.100005   29.68451  0.6036E-13  0.1469E-04  0.3777E-07  0.1793E-02  0.6068E-04  0.9456E+02
   -1.150007   29.68497  0.6036E-13  0.1467E-04  0.3802E-07  0.1657E-02  0.5740E-04  0.2066E+03
   -1.200008   29.68546  0.6036E-13  0.1463E-04  0.3838E-07  0.1672E-02  0.5405E-04  0.4047E+02
   -1.250010   29.68595  0.6036E-13  0.1457E-04  0.3888E-07  0.1643E-02  0.5082E-04  0.4352E+02
   -1.300011   29.68645  0.6036E-13  0.1448E-04  0.3955E-07  0.1599E-02  0.4772E-04  0.5079E+02
   -1.350012   29.68696  0.6036E-13  0.1437E-04  0.4044E-07  0.1544E-02  0.4471E-04  0.6086E+02
   -1.400013   29.68749  0.6036E-13  0.1423E-04  0.4161E-07  0.1474E-02  0.4180E-04  0.7463E+02
   -1.450014   29.68805  0.6036E-13  0.1404E-04  0.4315E-07  0.1399E-02  0.3894E-04  0.9471E+02
   -1.500015   29.68864  0.6036E-13  0.1382E-04  0.4524E-07  0.1297E-02  0.3614E-04  0.1263E+03
   -1.550015   29.68928  0.6036E-13  0.1354E-04  0.4812E-07  0.1211E-02  0.3335E-04  0.1768E+03
   -1.600015   29.68997  0.6036E-13  0.1319E-04  0.5237E-07  0.1074E-02  0.3061E-04  0.2965E+03
   -1.650015   29.69079  0.6036E-13  0.1275E-04  0.5878E-07  0.9906E-03  0.2774E-04  0.9258E+03
   -1.700015   29.69171  0.6036E-13  0.1214E-04  0.7011E-07  0.8182E-03  0.2495E-04  0.2074E+05
   -1.750014   29.69321  0.6036E-13  0.1130E-04  0.8904E-07  0.7331E-03  0.2144E-04  0.1403E+06
   -1.800013   29.69472  0.6036E-13  0.1011E-04  0.1275E-06  0.5229E-03  0.1840E-04  0.6451E+05
   -1.850011   29.69939  0.6036E-13  0.8688E-05  0.1997E-06  0.4651E-03  0.1367E-04  0.6401E+08
   -1.900009   29.69959  0.6036E-13  0.6900E-05  0.4101E-06  0.2134E-03  0.1095E-04 -0.6449E+07
   -1.950006   29.71634  0.6036E-13  0.4758E-05  0.1049E-05  0.1670E-03  0.6050E-05 -0.4426E+07
   -2.000003   29.71977  0.6036E-13  0.0000E+00  0.0000E+00  0.0000E+00  0.1025E-04  0.0000E+00
