 1 - depth, m
 2 - temperature, C
 3 - salinity, kg/kg
 4 - turbulent kinetic energy, m**2/s**2
 5 - dissipation rate, m**2/s**3
 6 - kinematic heat conductance, m**2/s
 7 - modulus of horizontal velocity, m/s
 8 - Richardson number, n/d
   -0.000000   31.03363  0.2061E-14  0.4949E-05  0.3039E-06  0.4787E-04  0.3796E-03  0.2289E+06
   -0.049997   31.06778  0.2061E-14  0.8807E-05  0.1355E-06  0.1985E-03  0.2108E-03  0.1190E+07
   -0.099994   31.07792  0.2061E-14  0.1057E-04  0.9536E-07  0.4197E-03  0.1557E-03  0.6122E+03
   -0.149992   31.08115  0.2061E-14  0.1171E-04  0.8068E-07  0.5048E-03  0.1379E-03  0.3109E+03
   -0.199991   31.08372  0.2061E-14  0.1259E-04  0.7199E-07  0.6701E-03  0.1234E-03  0.2058E+03
   -0.249989   31.08559  0.2061E-14  0.1330E-04  0.6624E-07  0.7989E-03  0.1125E-03  0.1544E+03
   -0.299988   31.08713  0.2061E-14  0.1387E-04  0.6213E-07  0.9258E-03  0.1034E-03  0.1241E+03
   -0.349988   31.08842  0.2061E-14  0.1435E-04  0.5904E-07  0.1041E-02  0.9561E-04  0.1069E+03
   -0.399988   31.08954  0.2061E-14  0.1475E-04  0.5663E-07  0.1146E-02  0.8873E-04  0.9553E+02
   -0.449988   31.09054  0.2061E-14  0.1510E-04  0.5467E-07  0.1244E-02  0.8264E-04  0.8998E+02
   -0.499988   31.09144  0.2061E-14  0.1540E-04  0.5306E-07  0.1333E-02  0.7726E-04  0.8756E+02
   -0.549989   31.09226  0.2061E-14  0.1566E-04  0.5170E-07  0.1414E-02  0.7242E-04  0.8662E+02
   -0.599989   31.09303  0.2061E-14  0.1588E-04  0.5057E-07  0.1488E-02  0.6805E-04  0.8667E+02
   -0.649990   31.09374  0.2061E-14  0.1607E-04  0.4961E-07  0.1554E-02  0.6405E-04  0.8800E+02
   -0.699992   31.09442  0.2061E-14  0.1624E-04  0.4881E-07  0.1612E-02  0.6038E-04  0.9001E+02
   -0.749993   31.09506  0.2061E-14  0.1637E-04  0.4814E-07  0.1662E-02  0.5697E-04  0.9327E+02
   -0.799994   31.09567  0.2061E-14  0.1648E-04  0.4760E-07  0.1704E-02  0.5382E-04  0.9723E+02
   -0.849996   31.09627  0.2061E-14  0.1657E-04  0.4717E-07  0.1739E-02  0.5085E-04  0.1026E+03
   -0.899998   31.09684  0.2061E-14  0.1663E-04  0.4685E-07  0.1764E-02  0.4808E-04  0.1089E+03
   -0.949999   31.09741  0.2061E-14  0.1667E-04  0.4664E-07  0.1781E-02  0.4544E-04  0.1171E+03
   -1.000001   31.09796  0.2061E-14  0.1669E-04  0.4654E-07  0.1790E-02  0.4297E-04  0.1266E+03
   -1.050003   31.09850  0.2061E-14  0.1668E-04  0.4655E-07  0.1789E-02  0.4060E-04  0.1441E+03
   -1.100004   31.09905  0.2061E-14  0.1665E-04  0.4669E-07  0.1889E-02  0.3836E-04  0.4732E+03
   -1.150006   31.09956  0.2061E-14  0.1660E-04  0.4698E-07  0.1684E-02  0.3636E-04  0.1106E+04
   -1.200008   31.10013  0.2061E-14  0.1652E-04  0.4742E-07  0.1720E-02  0.3425E-04  0.2112E+03
   -1.250009   31.10068  0.2061E-14  0.1641E-04  0.4805E-07  0.1687E-02  0.3226E-04  0.2259E+03
   -1.300010   31.10125  0.2061E-14  0.1628E-04  0.4892E-07  0.1633E-02  0.3032E-04  0.2665E+03
   -1.350011   31.10183  0.2061E-14  0.1610E-04  0.5010E-07  0.1570E-02  0.2845E-04  0.3210E+03
   -1.400013   31.10243  0.2061E-14  0.1589E-04  0.5168E-07  0.1487E-02  0.2662E-04  0.4012E+03
   -1.450013   31.10307  0.2061E-14  0.1563E-04  0.5384E-07  0.1406E-02  0.2482E-04  0.5166E+03
   -1.500014   31.10375  0.2061E-14  0.1531E-04  0.5685E-07  0.1289E-02  0.2304E-04  0.7155E+03
   -1.550014   31.10450  0.2061E-14  0.1492E-04  0.6116E-07  0.1204E-02  0.2125E-04  0.1045E+04
   -1.600014   31.10532  0.2061E-14  0.1443E-04  0.6780E-07  0.1057E-02  0.1948E-04  0.3571E+04
   -1.650014   31.10634  0.2061E-14  0.1379E-04  0.7818E-07  0.9773E-03  0.1758E-04  0.2870E+06
   -1.700013   31.10754  0.2061E-14  0.1290E-04  0.9661E-07  0.7947E-03  0.1564E-04 -0.6869E+03
   -1.750013   31.10967  0.2061E-14  0.1176E-04  0.1266E-06  0.7149E-03  0.1311E-04  0.3297E+07
   -1.800011   31.11132  0.2061E-14  0.1025E-04  0.1904E-06  0.4920E-03  0.1121E-04  0.1197E+07
   -1.850010   31.11903  0.2061E-14  0.8655E-05  0.3116E-06  0.4572E-03  0.7738E-05  0.3838E+09
   -1.900007   31.11689  0.2061E-14  0.6850E-05  0.6543E-06  0.2085E-03  0.6304E-05  0.1452E+09
   -1.950005   31.13943  0.2061E-14  0.4876E-05  0.1598E-05  0.2039E-03  0.3285E-05  0.1275E+08
   -2.000002   31.13966  0.2061E-14  0.0000E+00  0.0000E+00  0.0000E+00  0.6551E-05  0.0000E+00
