 1 - depth, m
 2 - temperature, C
 3 - salinity, kg/kg
 4 - turbulent kinetic energy, m**2/s**2
 5 - dissipation rate, m**2/s**3
 6 - kinematic heat conductance, m**2/s
 7 - modulus of horizontal velocity, m/s
 8 - Richardson number, n/d
   -0.000000   30.57366  0.2203E-14  0.5014E-05  0.3154E-06  0.4942E-04  0.1253E-02  0.6692E+04
   -0.049997   30.60711  0.2203E-14  0.8632E-05  0.1404E-06  0.1872E-03  0.7029E-03  0.4791E+02
   -0.099994   30.61892  0.2203E-14  0.1043E-04  0.9747E-07  0.4023E-03  0.5225E-03  0.3160E+02
   -0.149992   30.62236  0.2203E-14  0.1157E-04  0.8182E-07  0.4897E-03  0.4616E-03  0.1562E+02
   -0.199991   30.62507  0.2203E-14  0.1245E-04  0.7262E-07  0.6515E-03  0.4127E-03  0.1001E+02
   -0.249989   30.62704  0.2203E-14  0.1315E-04  0.6657E-07  0.7776E-03  0.3761E-03  0.7389E+01
   -0.299988   30.62864  0.2203E-14  0.1372E-04  0.6225E-07  0.9041E-03  0.3455E-03  0.5874E+01
   -0.349988   30.62998  0.2203E-14  0.1418E-04  0.5900E-07  0.1018E-02  0.3193E-03  0.5014E+01
   -0.399988   30.63114  0.2203E-14  0.1457E-04  0.5645E-07  0.1122E-02  0.2961E-03  0.4465E+01
   -0.449988   30.63217  0.2203E-14  0.1491E-04  0.5438E-07  0.1219E-02  0.2757E-03  0.4184E+01
   -0.499988   30.63310  0.2203E-14  0.1520E-04  0.5265E-07  0.1308E-02  0.2576E-03  0.4069E+01
   -0.549989   30.63394  0.2203E-14  0.1544E-04  0.5120E-07  0.1389E-02  0.2415E-03  0.4004E+01
   -0.599989   30.63472  0.2203E-14  0.1565E-04  0.4997E-07  0.1463E-02  0.2268E-03  0.4003E+01
   -0.649990   30.63545  0.2203E-14  0.1583E-04  0.4891E-07  0.1528E-02  0.2134E-03  0.4040E+01
   -0.699992   30.63614  0.2203E-14  0.1597E-04  0.4801E-07  0.1587E-02  0.2011E-03  0.4127E+01
   -0.749993   30.63679  0.2203E-14  0.1609E-04  0.4725E-07  0.1637E-02  0.1898E-03  0.4248E+01
   -0.799994   30.63741  0.2203E-14  0.1619E-04  0.4660E-07  0.1680E-02  0.1792E-03  0.4420E+01
   -0.849996   30.63801  0.2203E-14  0.1626E-04  0.4607E-07  0.1715E-02  0.1693E-03  0.4631E+01
   -0.899998   30.63859  0.2203E-14  0.1630E-04  0.4564E-07  0.1741E-02  0.1600E-03  0.4902E+01
   -0.949999   30.63915  0.2203E-14  0.1633E-04  0.4532E-07  0.1760E-02  0.1513E-03  0.5227E+01
   -1.000001   30.63969  0.2203E-14  0.1633E-04  0.4510E-07  0.1770E-02  0.1430E-03  0.5633E+01
   -1.050003   30.64023  0.2203E-14  0.1631E-04  0.4499E-07  0.1770E-02  0.1351E-03  0.6352E+01
   -1.100004   30.64076  0.2203E-14  0.1626E-04  0.4499E-07  0.1863E-02  0.1276E-03  0.2092E+02
   -1.150006   30.64126  0.2203E-14  0.1619E-04  0.4514E-07  0.1676E-02  0.1209E-03  0.4817E+02
   -1.200008   30.64181  0.2203E-14  0.1610E-04  0.4541E-07  0.1708E-02  0.1140E-03  0.9144E+01
   -1.250009   30.64235  0.2203E-14  0.1598E-04  0.4587E-07  0.1677E-02  0.1073E-03  0.9704E+01
   -1.300010   30.64289  0.2203E-14  0.1583E-04  0.4654E-07  0.1626E-02  0.1009E-03  0.1132E+02
   -1.350012   30.64344  0.2203E-14  0.1565E-04  0.4749E-07  0.1565E-02  0.9465E-04  0.1355E+02
   -1.400013   30.64401  0.2203E-14  0.1543E-04  0.4881E-07  0.1487E-02  0.8858E-04  0.1670E+02
   -1.450014   30.64460  0.2203E-14  0.1517E-04  0.5064E-07  0.1406E-02  0.8261E-04  0.2137E+02
   -1.500014   30.64523  0.2203E-14  0.1485E-04  0.5322E-07  0.1297E-02  0.7674E-04  0.2900E+02
   -1.550014   30.64592  0.2203E-14  0.1446E-04  0.5694E-07  0.1207E-02  0.7084E-04  0.4207E+02
   -1.600015   30.64666  0.2203E-14  0.1399E-04  0.6270E-07  0.1072E-02  0.6501E-04  0.8774E+02
   -1.650014   30.64755  0.2203E-14  0.1337E-04  0.7197E-07  0.9818E-03  0.5881E-04 -0.1001E+04
   -1.700014   30.64866  0.2203E-14  0.1252E-04  0.8822E-07  0.8092E-03  0.5236E-04 -0.2413E+04
   -1.750013   30.65043  0.2203E-14  0.1144E-04  0.1143E-06  0.7220E-03  0.4425E-04  0.7286E+05
   -1.800012   30.65191  0.2203E-14  0.9994E-05  0.1729E-06  0.5016E-03  0.3792E-04  0.2425E+06
   -1.850010   30.65838  0.2203E-14  0.8457E-05  0.2811E-06  0.4633E-03  0.2670E-04  0.3212E+08
   -1.900008   30.65669  0.2203E-14  0.6696E-05  0.5935E-06  0.2144E-03  0.2188E-04  0.6075E+05
   -1.950005   30.67567  0.2203E-14  0.4702E-05  0.1463E-05  0.1963E-03  0.1169E-04  0.4718E+07
   -2.000002   30.67717  0.2203E-14  0.0000E+00  0.0000E+00  0.0000E+00  0.2239E-04  0.0000E+00
