 1 - depth, m
 2 - temperature, C
 3 - salinity, kg/kg
 4 - turbulent kinetic energy, m**2/s**2
 5 - dissipation rate, m**2/s**3
 6 - kinematic heat conductance, m**2/s
 7 - modulus of horizontal velocity, m/s
 8 - Richardson number, n/d
   -0.000000   30.96447  0.1925E-14  0.5052E-05  0.3228E-06  0.5080E-04  0.5420E-03  0.3928E+05
   -0.049997   30.99781  0.1925E-14  0.8884E-05  0.1432E-06  0.1884E-03  0.3067E-03  0.1963E+03
   -0.099994   31.00962  0.1925E-14  0.1074E-04  0.9919E-07  0.4243E-03  0.2244E-03  0.1688E+03
   -0.149992   31.01294  0.1925E-14  0.1190E-04  0.8372E-07  0.5005E-03  0.1991E-03  0.8381E+02
   -0.199991   31.01563  0.1925E-14  0.1281E-04  0.7457E-07  0.6699E-03  0.1782E-03  0.5475E+02
   -0.249989   31.01758  0.1925E-14  0.1353E-04  0.6854E-07  0.7983E-03  0.1626E-03  0.4087E+02
   -0.299988   31.01918  0.1925E-14  0.1411E-04  0.6423E-07  0.9266E-03  0.1495E-03  0.3266E+02
   -0.349988   31.02051  0.1925E-14  0.1460E-04  0.6098E-07  0.1043E-02  0.1383E-03  0.2805E+02
   -0.399988   31.02168  0.1925E-14  0.1500E-04  0.5845E-07  0.1148E-02  0.1284E-03  0.2500E+02
   -0.449988   31.02271  0.1925E-14  0.1535E-04  0.5639E-07  0.1246E-02  0.1197E-03  0.2353E+02
   -0.499988   31.02364  0.1925E-14  0.1566E-04  0.5468E-07  0.1336E-02  0.1119E-03  0.2286E+02
   -0.549989   31.02449  0.1925E-14  0.1592E-04  0.5326E-07  0.1418E-02  0.1050E-03  0.2260E+02
   -0.599989   31.02528  0.1925E-14  0.1614E-04  0.5205E-07  0.1492E-02  0.9870E-04  0.2256E+02
   -0.649990   31.02601  0.1925E-14  0.1633E-04  0.5103E-07  0.1558E-02  0.9295E-04  0.2289E+02
   -0.699992   31.02671  0.1925E-14  0.1649E-04  0.5017E-07  0.1617E-02  0.8767E-04  0.2336E+02
   -0.749993   31.02737  0.1925E-14  0.1662E-04  0.4945E-07  0.1667E-02  0.8277E-04  0.2419E+02
   -0.799994   31.02800  0.1925E-14  0.1672E-04  0.4886E-07  0.1709E-02  0.7821E-04  0.2514E+02
   -0.849996   31.02861  0.1925E-14  0.1680E-04  0.4838E-07  0.1743E-02  0.7395E-04  0.2651E+02
   -0.899997   31.02920  0.1925E-14  0.1686E-04  0.4802E-07  0.1769E-02  0.6994E-04  0.2806E+02
   -0.949999   31.02978  0.1925E-14  0.1689E-04  0.4776E-07  0.1786E-02  0.6616E-04  0.3014E+02
   -1.000001   31.03034  0.1925E-14  0.1690E-04  0.4762E-07  0.1795E-02  0.6258E-04  0.3249E+02
   -1.050003   31.03090  0.1925E-14  0.1689E-04  0.4760E-07  0.1793E-02  0.5917E-04  0.3693E+02
   -1.100004   31.03145  0.1925E-14  0.1685E-04  0.4770E-07  0.1895E-02  0.5592E-04  0.1200E+03
   -1.150006   31.03197  0.1925E-14  0.1679E-04  0.4796E-07  0.1683E-02  0.5304E-04  0.2881E+03
   -1.200007   31.03255  0.1925E-14  0.1670E-04  0.4837E-07  0.1722E-02  0.4998E-04  0.5421E+02
   -1.250009   31.03311  0.1925E-14  0.1658E-04  0.4898E-07  0.1689E-02  0.4709E-04  0.5767E+02
   -1.300010   31.03368  0.1925E-14  0.1643E-04  0.4983E-07  0.1635E-02  0.4430E-04  0.6813E+02
   -1.350011   31.03427  0.1925E-14  0.1624E-04  0.5100E-07  0.1570E-02  0.4158E-04  0.8212E+02
   -1.400012   31.03488  0.1925E-14  0.1602E-04  0.5260E-07  0.1487E-02  0.3893E-04  0.1030E+03
   -1.450013   31.03553  0.1925E-14  0.1574E-04  0.5480E-07  0.1405E-02  0.3632E-04  0.1334E+03
   -1.500014   31.03621  0.1925E-14  0.1540E-04  0.5788E-07  0.1288E-02  0.3374E-04  0.1865E+03
   -1.550014   31.03697  0.1925E-14  0.1499E-04  0.6231E-07  0.1203E-02  0.3114E-04  0.2789E+03
   -1.600014   31.03779  0.1925E-14  0.1448E-04  0.6926E-07  0.1056E-02  0.2859E-04  0.2058E+04
   -1.650014   31.03884  0.1925E-14  0.1381E-04  0.8024E-07  0.9754E-03  0.2579E-04  0.2397E+05
   -1.700013   31.04006  0.1925E-14  0.1288E-04  0.9990E-07  0.7932E-03  0.2299E-04  0.3332E+05
   -1.750012   31.04224  0.1925E-14  0.1171E-04  0.1313E-06  0.7148E-03  0.1929E-04  0.1107E+08
   -1.800011   31.04382  0.1925E-14  0.1018E-04  0.2011E-06  0.4869E-03  0.1654E-04  0.8399E+08
   -1.850009   31.05194  0.1925E-14  0.8578E-05  0.3304E-06  0.4596E-03  0.1149E-04  0.5097E+09
   -1.900007   31.04919  0.1925E-14  0.6805E-05  0.6934E-06  0.2133E-03  0.9444E-05  0.3250E+05
   -1.950005   31.07167  0.1925E-14  0.4841E-05  0.1687E-05  0.2086E-03  0.4972E-05 -0.5024E+07
   -2.000002   31.07242  0.1925E-14  0.0000E+00  0.0000E+00  0.0000E+00  0.9749E-05  0.0000E+00
