 1 - depth, m
 2 - temperature, C
 3 - salinity, kg/kg
 4 - turbulent kinetic energy, m**2/s**2
 5 - dissipation rate, m**2/s**3
 6 - kinematic heat conductance, m**2/s
 7 - modulus of horizontal velocity, m/s
 8 - Richardson number, n/d
   -0.000000   30.29935  0.2408E-14  0.4945E-05  0.3119E-06  0.5078E-04  0.1416E-02  0.1058E+05
   -0.049997   30.33109  0.2408E-14  0.8478E-05  0.1391E-06  0.1805E-03  0.8064E-03  0.1995E+05
   -0.099994   30.34316  0.2408E-14  0.1029E-04  0.9584E-07  0.4021E-03  0.5925E-03  0.2457E+02
   -0.149992   30.34653  0.2408E-14  0.1142E-04  0.8038E-07  0.4845E-03  0.5233E-03  0.1210E+02
   -0.199991   30.34921  0.2408E-14  0.1230E-04  0.7134E-07  0.6480E-03  0.4675E-03  0.7745E+01
   -0.249989   30.35115  0.2408E-14  0.1300E-04  0.6542E-07  0.7743E-03  0.4257E-03  0.5724E+01
   -0.299988   30.35273  0.2408E-14  0.1357E-04  0.6120E-07  0.9009E-03  0.3909E-03  0.4547E+01
   -0.349988   30.35406  0.2408E-14  0.1404E-04  0.5803E-07  0.1015E-02  0.3611E-03  0.3892E+01
   -0.399988   30.35521  0.2408E-14  0.1444E-04  0.5557E-07  0.1120E-02  0.3348E-03  0.3462E+01
   -0.449988   30.35622  0.2408E-14  0.1478E-04  0.5356E-07  0.1217E-02  0.3117E-03  0.3254E+01
   -0.499988   30.35714  0.2408E-14  0.1507E-04  0.5190E-07  0.1306E-02  0.2912E-03  0.3158E+01
   -0.549989   30.35798  0.2408E-14  0.1533E-04  0.5051E-07  0.1387E-02  0.2728E-03  0.3121E+01
   -0.599989   30.35876  0.2408E-14  0.1554E-04  0.4934E-07  0.1461E-02  0.2562E-03  0.3113E+01
   -0.649991   30.35948  0.2408E-14  0.1573E-04  0.4834E-07  0.1527E-02  0.2411E-03  0.3157E+01
   -0.699992   30.36017  0.2408E-14  0.1588E-04  0.4750E-07  0.1586E-02  0.2272E-03  0.3217E+01
   -0.749993   30.36081  0.2408E-14  0.1601E-04  0.4679E-07  0.1637E-02  0.2143E-03  0.3329E+01
   -0.799995   30.36143  0.2408E-14  0.1611E-04  0.4620E-07  0.1680E-02  0.2023E-03  0.3455E+01
   -0.849996   30.36203  0.2408E-14  0.1619E-04  0.4572E-07  0.1715E-02  0.1911E-03  0.3640E+01
   -0.899998   30.36261  0.2408E-14  0.1625E-04  0.4534E-07  0.1742E-02  0.1806E-03  0.3844E+01
   -0.949999   30.36317  0.2408E-14  0.1628E-04  0.4507E-07  0.1760E-02  0.1707E-03  0.4123E+01
   -1.000001   30.36372  0.2408E-14  0.1630E-04  0.4490E-07  0.1770E-02  0.1614E-03  0.4432E+01
   -1.050003   30.36426  0.2408E-14  0.1629E-04  0.4485E-07  0.1771E-02  0.1525E-03  0.5029E+01
   -1.100005   30.36480  0.2408E-14  0.1625E-04  0.4490E-07  0.1863E-02  0.1440E-03  0.1654E+02
   -1.150006   30.36530  0.2408E-14  0.1620E-04  0.4510E-07  0.1679E-02  0.1364E-03  0.3792E+02
   -1.200008   30.36586  0.2408E-14  0.1612E-04  0.4543E-07  0.1709E-02  0.1285E-03  0.7261E+01
   -1.250009   30.36640  0.2408E-14  0.1601E-04  0.4594E-07  0.1678E-02  0.1210E-03  0.7701E+01
   -1.300011   30.36695  0.2408E-14  0.1587E-04  0.4667E-07  0.1627E-02  0.1138E-03  0.9033E+01
   -1.350012   30.36752  0.2408E-14  0.1570E-04  0.4768E-07  0.1567E-02  0.1067E-03  0.1078E+02
   -1.400013   30.36810  0.2408E-14  0.1549E-04  0.4905E-07  0.1488E-02  0.9988E-04  0.1336E+02
   -1.450014   30.36871  0.2408E-14  0.1524E-04  0.5093E-07  0.1409E-02  0.9314E-04  0.1701E+02
   -1.500014   30.36936  0.2408E-14  0.1493E-04  0.5356E-07  0.1296E-02  0.8651E-04  0.2319E+02
   -1.550015   30.37007  0.2408E-14  0.1456E-04  0.5731E-07  0.1210E-02  0.7985E-04  0.3327E+02
   -1.600015   30.37084  0.2408E-14  0.1409E-04  0.6309E-07  0.1066E-02  0.7329E-04  0.7914E+02
   -1.650014   30.37177  0.2408E-14  0.1350E-04  0.7215E-07  0.9846E-03  0.6625E-04  0.1026E+04
   -1.700014   30.37285  0.2408E-14  0.1268E-04  0.8837E-07  0.8049E-03  0.5927E-04  0.2227E+05
   -1.750013   30.37473  0.2408E-14  0.1160E-04  0.1150E-06  0.7221E-03  0.5006E-04  0.1563E+06
   -1.800012   30.37635  0.2408E-14  0.1016E-04  0.1721E-06  0.5078E-03  0.4280E-04  0.1141E+06
   -1.850010   30.38270  0.2408E-14  0.8597E-05  0.2774E-06  0.4648E-03  0.3037E-04  0.7043E+07
   -1.900008   30.38140  0.2408E-14  0.6780E-05  0.5778E-06  0.2117E-03  0.2468E-04  0.2258E+06
   -1.950005   30.40109  0.2408E-14  0.4774E-05  0.1439E-05  0.1942E-03  0.1309E-04 -0.3093E+06
   -2.000002   30.40275  0.2408E-14  0.0000E+00  0.0000E+00  0.0000E+00  0.2493E-04  0.0000E+00
