 1 - depth, m
 2 - temperature, C
 3 - salinity, kg/kg
 4 - turbulent kinetic energy, m**2/s**2
 5 - dissipation rate, m**2/s**3
 6 - kinematic heat conductance, m**2/s
 7 - modulus of horizontal velocity, m/s
 8 - Richardson number, n/d
   -0.000000   30.37899  0.1185E-13  0.4990E-05  0.3135E-06  0.4993E-04  0.5943E-03  0.9245E+03
   -0.049997   30.41327  0.1185E-13  0.8745E-05  0.1396E-06  0.1857E-03  0.3366E-03  0.8357E+02
   -0.099994   30.42518  0.1185E-13  0.1055E-04  0.9697E-07  0.4151E-03  0.2481E-03  0.1395E+03
   -0.149992   30.42861  0.1185E-13  0.1167E-04  0.8202E-07  0.4916E-03  0.2202E-03  0.6876E+02
   -0.199990   30.43139  0.1185E-13  0.1255E-04  0.7317E-07  0.6535E-03  0.1973E-03  0.4515E+02
   -0.249989   30.43342  0.1185E-13  0.1323E-04  0.6733E-07  0.7776E-03  0.1801E-03  0.3376E+02
   -0.299988   30.43507  0.1185E-13  0.1379E-04  0.6315E-07  0.8993E-03  0.1657E-03  0.2713E+02
   -0.349988   30.43647  0.1185E-13  0.1425E-04  0.6001E-07  0.1009E-02  0.1533E-03  0.2339E+02
   -0.399987   30.43768  0.1185E-13  0.1463E-04  0.5756E-07  0.1108E-02  0.1423E-03  0.2100E+02
   -0.449987   30.43876  0.1185E-13  0.1495E-04  0.5557E-07  0.1199E-02  0.1325E-03  0.1988E+02
   -0.499988   30.43974  0.1185E-13  0.1523E-04  0.5393E-07  0.1281E-02  0.1239E-03  0.1950E+02
   -0.549988   30.44064  0.1185E-13  0.1546E-04  0.5256E-07  0.1355E-02  0.1162E-03  0.1942E+02
   -0.599989   30.44148  0.1185E-13  0.1565E-04  0.5141E-07  0.1420E-02  0.1092E-03  0.1962E+02
   -0.649990   30.44226  0.1185E-13  0.1581E-04  0.5045E-07  0.1477E-02  0.1028E-03  0.2009E+02
   -0.699991   30.44300  0.1185E-13  0.1594E-04  0.4965E-07  0.1526E-02  0.9687E-04  0.2079E+02
   -0.749993   30.44371  0.1185E-13  0.1604E-04  0.4900E-07  0.1566E-02  0.9139E-04  0.2176E+02
   -0.799994   30.44439  0.1185E-13  0.1611E-04  0.4848E-07  0.1597E-02  0.8629E-04  0.2300E+02
   -0.849995   30.44505  0.1185E-13  0.1615E-04  0.4808E-07  0.1619E-02  0.8151E-04  0.2459E+02
   -0.899997   30.44570  0.1185E-13  0.1616E-04  0.4781E-07  0.1632E-02  0.7702E-04  0.2655E+02
   -0.949999   30.44633  0.1185E-13  0.1615E-04  0.4766E-07  0.1635E-02  0.7277E-04  0.2903E+02
   -1.000000   30.44695  0.1185E-13  0.1611E-04  0.4765E-07  0.1629E-02  0.6873E-04  0.3209E+02
   -1.050002   30.44758  0.1185E-13  0.1605E-04  0.4778E-07  0.1609E-02  0.6489E-04  0.3726E+02
   -1.100004   30.44820  0.1185E-13  0.1595E-04  0.4807E-07  0.1763E-02  0.6121E-04  0.1129E+03
   -1.150005   30.44876  0.1185E-13  0.1582E-04  0.4860E-07  0.1400E-02  0.5807E-04  0.3630E+03
   -1.200007   30.44947  0.1185E-13  0.1567E-04  0.4931E-07  0.1477E-02  0.5443E-04  0.6203E+02
   -1.250008   30.45014  0.1185E-13  0.1547E-04  0.5032E-07  0.1435E-02  0.5110E-04  0.6794E+02
   -1.300010   30.45082  0.1185E-13  0.1522E-04  0.5173E-07  0.1353E-02  0.4788E-04  0.8486E+02
   -1.350011   30.45155  0.1185E-13  0.1493E-04  0.5366E-07  0.1283E-02  0.4473E-04  0.1092E+03
   -1.400012   30.45231  0.1185E-13  0.1457E-04  0.5636E-07  0.1152E-02  0.4165E-04  0.1507E+03
   -1.450013   30.45317  0.1185E-13  0.1414E-04  0.6020E-07  0.1102E-02  0.3852E-04  0.2125E+03
   -1.500013   30.45409  0.1185E-13  0.1361E-04  0.6592E-07  0.9152E-03  0.3550E-04  0.3521E+03
   -1.550013   30.45526  0.1185E-13  0.1296E-04  0.7434E-07  0.9254E-03  0.3219E-04  0.5898E+03
   -1.600014   30.45645  0.1185E-13  0.1213E-04  0.8949E-07  0.7125E-03  0.2926E-04  0.1830E+04
   -1.650013   30.45845  0.1185E-13  0.1092E-04  0.1117E-06  0.7109E-03  0.2519E-04 -0.1278E+04
   -1.700013   30.46039  0.1185E-13  0.9251E-05  0.1544E-06  0.4528E-03  0.2176E-04 -0.4448E+04
   -1.750012   30.46694  0.1185E-13  0.7374E-05  0.2245E-06  0.4846E-03  0.1460E-04  0.4524E+07
   -1.800010   30.46697  0.1185E-13  0.5894E-05  0.3707E-06  0.2677E-03  0.1289E-04 -0.6826E+05
   -1.850009   30.49196  0.1185E-13  0.4641E-05  0.6821E-06  0.3346E-03  0.5871E-05  0.1577E+11
   -1.900007   30.47158  0.1185E-13  0.3961E-05  0.1463E-05  0.1694E-03  0.5866E-05 -0.8342E+07
   -1.950004   30.51210  0.1185E-13  0.3094E-05  0.3194E-05  0.3018E-03  0.2337E-05  0.2763E+04
   -2.000001   30.50827  0.1185E-13  0.0000E+00  0.0000E+00  0.0000E+00  0.9212E-05  0.0000E+00
