 1 - depth, m
 2 - temperature, C
 3 - salinity, kg/kg
 4 - turbulent kinetic energy, m**2/s**2
 5 - dissipation rate, m**2/s**3
 6 - kinematic heat conductance, m**2/s
 7 - modulus of horizontal velocity, m/s
 8 - Richardson number, n/d
   -0.000000   31.43438  0.6657E-13  0.5502E-05  0.3747E-06  0.5445E-04  0.9435E-03  0.8162E+04
   -0.049997   31.46955  0.6657E-13  0.9482E-05  0.1662E-06  0.1874E-03  0.5446E-03  0.6290E+03
   -0.099994   31.48347  0.6657E-13  0.1152E-04  0.1138E-06  0.4297E-03  0.3972E-03  0.5893E+02
   -0.149992   31.48714  0.6657E-13  0.1279E-04  0.9547E-07  0.5055E-03  0.3524E-03  0.2909E+02
   -0.199990   31.49013  0.6657E-13  0.1378E-04  0.8471E-07  0.6819E-03  0.3153E-03  0.1866E+02
   -0.249989   31.49227  0.6657E-13  0.1456E-04  0.7768E-07  0.8129E-03  0.2878E-03  0.1386E+02
   -0.299988   31.49402  0.6657E-13  0.1519E-04  0.7267E-07  0.9464E-03  0.2648E-03  0.1101E+02
   -0.349987   31.49548  0.6657E-13  0.1571E-04  0.6891E-07  0.1066E-02  0.2452E-03  0.9429E+01
   -0.399987   31.49674  0.6657E-13  0.1615E-04  0.6598E-07  0.1176E-02  0.2278E-03  0.8373E+01
   -0.449987   31.49786  0.6657E-13  0.1653E-04  0.6360E-07  0.1277E-02  0.2125E-03  0.7865E+01
   -0.499988   31.49887  0.6657E-13  0.1685E-04  0.6163E-07  0.1370E-02  0.1990E-03  0.7610E+01
   -0.549988   31.49979  0.6657E-13  0.1712E-04  0.5997E-07  0.1455E-02  0.1868E-03  0.7514E+01
   -0.599989   31.50064  0.6657E-13  0.1736E-04  0.5858E-07  0.1531E-02  0.1758E-03  0.7475E+01
   -0.649990   31.50144  0.6657E-13  0.1756E-04  0.5740E-07  0.1599E-02  0.1657E-03  0.7576E+01
   -0.699991   31.50219  0.6657E-13  0.1773E-04  0.5641E-07  0.1659E-02  0.1564E-03  0.7704E+01
   -0.749992   31.50290  0.6657E-13  0.1786E-04  0.5557E-07  0.1711E-02  0.1478E-03  0.7968E+01
   -0.799994   31.50359  0.6657E-13  0.1797E-04  0.5488E-07  0.1754E-02  0.1398E-03  0.8259E+01
   -0.849995   31.50424  0.6657E-13  0.1805E-04  0.5433E-07  0.1789E-02  0.1323E-03  0.8700E+01
   -0.899997   31.50488  0.6657E-13  0.1811E-04  0.5391E-07  0.1815E-02  0.1253E-03  0.9185E+01
   -0.949998   31.50550  0.6657E-13  0.1813E-04  0.5361E-07  0.1831E-02  0.1186E-03  0.9856E+01
   -1.000000   31.50611  0.6657E-13  0.1814E-04  0.5344E-07  0.1840E-02  0.1123E-03  0.1061E+02
   -1.050002   31.50671  0.6657E-13  0.1812E-04  0.5341E-07  0.1836E-02  0.1063E-03  0.1204E+02
   -1.100003   31.50730  0.6657E-13  0.1807E-04  0.5352E-07  0.1949E-02  0.1006E-03  0.3882E+02
   -1.150005   31.50786  0.6657E-13  0.1799E-04  0.5383E-07  0.1712E-02  0.9550E-04  0.9513E+02
   -1.200006   31.50849  0.6657E-13  0.1789E-04  0.5430E-07  0.1758E-02  0.9006E-04  0.1771E+02
   -1.250008   31.50910  0.6657E-13  0.1775E-04  0.5501E-07  0.1724E-02  0.8492E-04  0.1882E+02
   -1.300009   31.50972  0.6657E-13  0.1758E-04  0.5602E-07  0.1666E-02  0.7995E-04  0.2228E+02
   -1.350010   31.51035  0.6657E-13  0.1737E-04  0.5740E-07  0.1599E-02  0.7512E-04  0.2695E+02
   -1.400011   31.51102  0.6657E-13  0.1711E-04  0.5931E-07  0.1511E-02  0.7039E-04  0.3406E+02
   -1.450012   31.51172  0.6657E-13  0.1679E-04  0.6196E-07  0.1428E-02  0.6571E-04  0.4453E+02
   -1.500012   31.51247  0.6657E-13  0.1641E-04  0.6572E-07  0.1308E-02  0.6108E-04  0.6341E+02
   -1.550013   31.51331  0.6657E-13  0.1595E-04  0.7120E-07  0.1223E-02  0.5639E-04  0.1000E+03
   -1.600013   31.51422  0.6657E-13  0.1535E-04  0.7999E-07  0.1076E-02  0.5176E-04  0.1534E+03
   -1.650013   31.51545  0.6657E-13  0.1457E-04  0.9387E-07  0.9845E-03  0.4655E-04  0.3149E+05
   -1.700012   31.51689  0.6657E-13  0.1350E-04  0.1187E-06  0.8089E-03  0.4126E-04  0.3128E+05
   -1.750011   31.51946  0.6657E-13  0.1226E-04  0.1574E-06  0.7211E-03  0.3432E-04  0.1250E+07
   -1.800010   31.52095  0.6657E-13  0.1068E-04  0.2403E-06  0.4968E-03  0.2967E-04  0.3735E+05
   -1.850008   31.53084  0.6657E-13  0.9090E-05  0.4025E-06  0.4740E-03  0.2043E-04  0.1439E+10
   -1.900006   31.52662  0.6657E-13  0.7248E-05  0.8439E-06  0.2191E-03  0.1702E-04 -0.4668E+06
   -1.950003   31.55220  0.6657E-13  0.5193E-05  0.1993E-05  0.2224E-03  0.9031E-05 -0.1266E+07
   -2.000000   31.55168  0.6657E-13  0.0000E+00  0.0000E+00  0.0000E+00  0.1790E-04  0.0000E+00
