 1 - depth, m
 2 - temperature, C
 3 - salinity, kg/kg
 4 - turbulent kinetic energy, m**2/s**2
 5 - dissipation rate, m**2/s**3
 6 - kinematic heat conductance, m**2/s
 7 - modulus of horizontal velocity, m/s
 8 - Richardson number, n/d
   -0.000000   30.60094  0.3867E-13  0.4940E-05  0.3126E-06  0.5158E-04  0.1681E-02  0.9011E+04
   -0.049997   30.63125  0.3867E-13  0.8420E-05  0.1393E-06  0.1770E-03  0.9666E-03  0.3222E+04
   -0.099994   30.64331  0.3867E-13  0.1024E-04  0.9537E-07  0.4031E-03  0.7057E-03  0.1685E+02
   -0.149992   30.64658  0.3867E-13  0.1137E-04  0.7991E-07  0.4829E-03  0.6236E-03  0.8254E+01
   -0.199991   30.64920  0.3867E-13  0.1226E-04  0.7088E-07  0.6482E-03  0.5568E-03  0.5277E+01
   -0.249989   30.65109  0.3867E-13  0.1296E-04  0.6500E-07  0.7753E-03  0.5070E-03  0.3887E+01
   -0.299988   30.65263  0.3867E-13  0.1354E-04  0.6082E-07  0.9029E-03  0.4656E-03  0.3092E+01
   -0.349988   30.65392  0.3867E-13  0.1402E-04  0.5769E-07  0.1018E-02  0.4302E-03  0.2640E+01
   -0.399988   30.65504  0.3867E-13  0.1442E-04  0.5527E-07  0.1124E-02  0.3989E-03  0.2353E+01
   -0.449988   30.65603  0.3867E-13  0.1477E-04  0.5331E-07  0.1222E-02  0.3713E-03  0.2203E+01
   -0.499988   30.65692  0.3867E-13  0.1508E-04  0.5169E-07  0.1313E-02  0.3470E-03  0.2142E+01
   -0.549989   30.65774  0.3867E-13  0.1534E-04  0.5034E-07  0.1396E-02  0.3252E-03  0.2108E+01
   -0.599989   30.65850  0.3867E-13  0.1557E-04  0.4921E-07  0.1471E-02  0.3054E-03  0.2109E+01
   -0.649990   30.65920  0.3867E-13  0.1577E-04  0.4826E-07  0.1538E-02  0.2875E-03  0.2131E+01
   -0.699992   30.65987  0.3867E-13  0.1594E-04  0.4747E-07  0.1598E-02  0.2709E-03  0.2180E+01
   -0.749993   30.66050  0.3867E-13  0.1608E-04  0.4681E-07  0.1651E-02  0.2556E-03  0.2247E+01
   -0.799994   30.66111  0.3867E-13  0.1620E-04  0.4627E-07  0.1695E-02  0.2414E-03  0.2343E+01
   -0.849996   30.66170  0.3867E-13  0.1630E-04  0.4584E-07  0.1732E-02  0.2281E-03  0.2458E+01
   -0.899997   30.66226  0.3867E-13  0.1637E-04  0.4552E-07  0.1760E-02  0.2157E-03  0.2609E+01
   -0.949999   30.66282  0.3867E-13  0.1642E-04  0.4530E-07  0.1780E-02  0.2039E-03  0.2786E+01
   -1.000001   30.66336  0.3867E-13  0.1645E-04  0.4519E-07  0.1792E-02  0.1928E-03  0.3011E+01
   -1.050003   30.66389  0.3867E-13  0.1646E-04  0.4519E-07  0.1795E-02  0.1822E-03  0.3406E+01
   -1.100004   30.66443  0.3867E-13  0.1645E-04  0.4530E-07  0.1879E-02  0.1721E-03  0.1139E+02
   -1.150006   30.66493  0.3867E-13  0.1641E-04  0.4556E-07  0.1717E-02  0.1631E-03  0.2517E+02
   -1.200007   30.66548  0.3867E-13  0.1635E-04  0.4594E-07  0.1740E-02  0.1538E-03  0.4887E+01
   -1.250009   30.66602  0.3867E-13  0.1626E-04  0.4651E-07  0.1710E-02  0.1449E-03  0.5221E+01
   -1.300010   30.66657  0.3867E-13  0.1615E-04  0.4729E-07  0.1661E-02  0.1363E-03  0.6086E+01
   -1.350011   30.66713  0.3867E-13  0.1600E-04  0.4834E-07  0.1603E-02  0.1279E-03  0.7272E+01
   -1.400012   30.66772  0.3867E-13  0.1582E-04  0.4975E-07  0.1527E-02  0.1198E-03  0.8935E+01
   -1.450013   30.66833  0.3867E-13  0.1559E-04  0.5165E-07  0.1450E-02  0.1118E-03  0.1135E+02
   -1.500014   30.66898  0.3867E-13  0.1532E-04  0.5426E-07  0.1340E-02  0.1040E-03  0.1529E+02
   -1.550014   30.66969  0.3867E-13  0.1498E-04  0.5794E-07  0.1254E-02  0.9607E-04  0.2191E+02
   -1.600014   30.67046  0.3867E-13  0.1455E-04  0.6351E-07  0.1109E-02  0.8833E-04  0.1001E+03
   -1.650014   30.67140  0.3867E-13  0.1400E-04  0.7202E-07  0.1027E-02  0.8003E-04  0.7633E+02
   -1.700013   30.67244  0.3867E-13  0.1326E-04  0.8693E-07  0.8432E-03  0.7196E-04 -0.3371E+04
   -1.750012   30.67421  0.3867E-13  0.1227E-04  0.1114E-06  0.7627E-03  0.6146E-04  0.1075E+06
   -1.800011   30.67574  0.3867E-13  0.1093E-04  0.1650E-06  0.5400E-03  0.5307E-04  0.5231E+08
   -1.850009   30.68162  0.3867E-13  0.9411E-05  0.2626E-06  0.4935E-03  0.3886E-04  0.3002E+08
   -1.900007   30.68088  0.3867E-13  0.7502E-05  0.5451E-06  0.2261E-03  0.3165E-04  0.3886E+06
   -1.950005   30.69983  0.3867E-13  0.5228E-05  0.1383E-05  0.1836E-03  0.1748E-04 -0.5907E+06
   -2.000002   30.70386  0.3867E-13  0.0000E+00  0.0000E+00  0.0000E+00  0.3044E-04  0.0000E+00
