 1 - depth, m
 2 - temperature, C
 3 - salinity, kg/kg
 4 - turbulent kinetic energy, m**2/s**2
 5 - dissipation rate, m**2/s**3
 6 - kinematic heat conductance, m**2/s
 7 - modulus of horizontal velocity, m/s
 8 - Richardson number, n/d
   -0.000000   30.31505  0.1973E-14  0.4766E-05  0.2945E-06  0.5018E-04  0.1423E-02  0.8183E+04
   -0.049997   30.34519  0.1973E-14  0.8183E-05  0.1315E-06  0.1766E-03  0.8106E-03  0.1584E+03
   -0.099994   30.35679  0.1973E-14  0.9932E-05  0.9059E-07  0.3971E-03  0.5942E-03  0.2338E+02
   -0.149992   30.36002  0.1973E-14  0.1103E-04  0.7605E-07  0.4780E-03  0.5246E-03  0.1145E+02
   -0.199991   30.36258  0.1973E-14  0.1188E-04  0.6753E-07  0.6389E-03  0.4683E-03  0.7346E+01
   -0.249989   30.36445  0.1973E-14  0.1256E-04  0.6196E-07  0.7638E-03  0.4263E-03  0.5425E+01
   -0.299988   30.36596  0.1973E-14  0.1311E-04  0.5798E-07  0.8882E-03  0.3913E-03  0.4315E+01
   -0.349988   30.36723  0.1973E-14  0.1357E-04  0.5500E-07  0.1001E-02  0.3613E-03  0.3694E+01
   -0.399988   30.36833  0.1973E-14  0.1395E-04  0.5269E-07  0.1104E-02  0.3348E-03  0.3290E+01
   -0.449988   30.36931  0.1973E-14  0.1428E-04  0.5080E-07  0.1200E-02  0.3114E-03  0.3093E+01
   -0.499988   30.37019  0.1973E-14  0.1457E-04  0.4925E-07  0.1287E-02  0.2908E-03  0.3006E+01
   -0.549989   30.37100  0.1973E-14  0.1482E-04  0.4794E-07  0.1368E-02  0.2723E-03  0.2971E+01
   -0.599990   30.37175  0.1973E-14  0.1503E-04  0.4685E-07  0.1440E-02  0.2556E-03  0.2970E+01
   -0.649991   30.37244  0.1973E-14  0.1521E-04  0.4592E-07  0.1506E-02  0.2404E-03  0.3013E+01
   -0.699992   30.37310  0.1973E-14  0.1537E-04  0.4514E-07  0.1563E-02  0.2264E-03  0.3078E+01
   -0.749993   30.37372  0.1973E-14  0.1550E-04  0.4448E-07  0.1613E-02  0.2135E-03  0.3186E+01
   -0.799995   30.37432  0.1973E-14  0.1560E-04  0.4394E-07  0.1656E-02  0.2014E-03  0.3317E+01
   -0.849996   30.37490  0.1973E-14  0.1568E-04  0.4351E-07  0.1690E-02  0.1902E-03  0.3496E+01
   -0.899998   30.37545  0.1973E-14  0.1574E-04  0.4317E-07  0.1717E-02  0.1797E-03  0.3703E+01
   -0.950000   30.37600  0.1973E-14  0.1578E-04  0.4293E-07  0.1735E-02  0.1697E-03  0.3974E+01
   -1.000001   30.37653  0.1973E-14  0.1579E-04  0.4280E-07  0.1746E-02  0.1603E-03  0.4287E+01
   -1.050003   30.37705  0.1973E-14  0.1579E-04  0.4276E-07  0.1746E-02  0.1514E-03  0.4871E+01
   -1.100005   30.37757  0.1973E-14  0.1576E-04  0.4284E-07  0.1835E-02  0.1429E-03  0.1606E+02
   -1.150006   30.37807  0.1973E-14  0.1571E-04  0.4305E-07  0.1659E-02  0.1353E-03  0.3696E+02
   -1.200008   30.37861  0.1973E-14  0.1564E-04  0.4339E-07  0.1686E-02  0.1274E-03  0.7081E+01
   -1.250009   30.37913  0.1973E-14  0.1554E-04  0.4390E-07  0.1655E-02  0.1199E-03  0.7539E+01
   -1.300011   30.37967  0.1973E-14  0.1541E-04  0.4462E-07  0.1605E-02  0.1127E-03  0.8866E+01
   -1.350012   30.38022  0.1973E-14  0.1525E-04  0.4560E-07  0.1545E-02  0.1056E-03  0.1062E+02
   -1.400013   30.38079  0.1973E-14  0.1505E-04  0.4693E-07  0.1468E-02  0.9879E-04  0.1320E+02
   -1.450014   30.38138  0.1973E-14  0.1481E-04  0.4874E-07  0.1389E-02  0.9207E-04  0.1688E+02
   -1.500014   30.38202  0.1973E-14  0.1452E-04  0.5126E-07  0.1278E-02  0.8545E-04  0.2310E+02
   -1.550015   30.38271  0.1973E-14  0.1417E-04  0.5484E-07  0.1192E-02  0.7882E-04  0.3321E+02
   -1.600015   30.38347  0.1973E-14  0.1372E-04  0.6032E-07  0.1051E-02  0.7230E-04  0.7331E+02
   -1.650015   30.38438  0.1973E-14  0.1315E-04  0.6892E-07  0.9702E-03  0.6534E-04  0.2597E+04
   -1.700014   30.38544  0.1973E-14  0.1236E-04  0.8430E-07  0.7944E-03  0.5839E-04  0.1054E+05
   -1.750013   30.38729  0.1973E-14  0.1132E-04  0.1094E-06  0.7123E-03  0.4933E-04  0.3740E+06
   -1.800012   30.38882  0.1973E-14  0.9909E-05  0.1633E-06  0.4923E-03  0.4223E-04  0.1654E+05
   -1.850010   30.39536  0.1973E-14  0.8356E-05  0.2647E-06  0.4561E-03  0.2978E-04  0.2061E+08
   -1.900008   30.39395  0.1973E-14  0.6609E-05  0.5584E-06  0.2056E-03  0.2416E-04 -0.2766E+06
   -1.950006   30.41350  0.1973E-14  0.4642E-05  0.1389E-05  0.1910E-03  0.1282E-04 -0.1181E+07
   -2.000003   30.41532  0.1973E-14  0.0000E+00  0.0000E+00  0.0000E+00  0.2431E-04  0.0000E+00
