 1 - depth, m
 2 - temperature, C
 3 - salinity, kg/kg
 4 - turbulent kinetic energy, m**2/s**2
 5 - dissipation rate, m**2/s**3
 6 - kinematic heat conductance, m**2/s
 7 - modulus of horizontal velocity, m/s
 8 - Richardson number, n/d
   -0.000000   30.90432  0.3111E-13  0.4857E-05  0.3045E-06  0.5010E-04  0.6074E-03  0.4631E+05
   -0.049997   30.93583  0.3111E-13  0.8543E-05  0.1351E-06  0.1842E-03  0.3452E-03  0.1042E+04
   -0.099994   30.94723  0.3111E-13  0.1034E-04  0.9347E-07  0.4183E-03  0.2511E-03  0.1568E+03
   -0.149992   30.95039  0.3111E-13  0.1147E-04  0.7892E-07  0.4943E-03  0.2226E-03  0.7749E+02
   -0.199991   30.95295  0.3111E-13  0.1235E-04  0.7033E-07  0.6610E-03  0.1991E-03  0.5076E+02
   -0.249989   30.95481  0.3111E-13  0.1304E-04  0.6467E-07  0.7881E-03  0.1815E-03  0.3770E+02
   -0.299988   30.95632  0.3111E-13  0.1361E-04  0.6063E-07  0.9149E-03  0.1669E-03  0.3022E+02
   -0.349988   30.95760  0.3111E-13  0.1409E-04  0.5759E-07  0.1030E-02  0.1543E-03  0.2580E+02
   -0.399988   30.95871  0.3111E-13  0.1449E-04  0.5523E-07  0.1134E-02  0.1432E-03  0.2310E+02
   -0.449988   30.95969  0.3111E-13  0.1483E-04  0.5331E-07  0.1231E-02  0.1334E-03  0.2159E+02
   -0.499988   30.96058  0.3111E-13  0.1513E-04  0.5172E-07  0.1321E-02  0.1247E-03  0.2109E+02
   -0.549988   30.96139  0.3111E-13  0.1539E-04  0.5040E-07  0.1402E-02  0.1169E-03  0.2069E+02
   -0.599989   30.96215  0.3111E-13  0.1561E-04  0.4929E-07  0.1476E-02  0.1098E-03  0.2080E+02
   -0.649990   30.96285  0.3111E-13  0.1580E-04  0.4835E-07  0.1542E-02  0.1034E-03  0.2092E+02
   -0.699991   30.96352  0.3111E-13  0.1596E-04  0.4756E-07  0.1600E-02  0.9749E-04  0.2150E+02
   -0.749993   30.96415  0.3111E-13  0.1610E-04  0.4691E-07  0.1650E-02  0.9201E-04  0.2205E+02
   -0.799994   30.96476  0.3111E-13  0.1621E-04  0.4637E-07  0.1693E-02  0.8692E-04  0.2311E+02
   -0.849996   30.96534  0.3111E-13  0.1630E-04  0.4595E-07  0.1728E-02  0.8215E-04  0.2412E+02
   -0.899997   30.96591  0.3111E-13  0.1636E-04  0.4563E-07  0.1754E-02  0.7767E-04  0.2574E+02
   -0.949999   30.96646  0.3111E-13  0.1640E-04  0.4542E-07  0.1772E-02  0.7345E-04  0.2734E+02
   -1.000001   30.96701  0.3111E-13  0.1642E-04  0.4531E-07  0.1782E-02  0.6945E-04  0.2974E+02
   -1.050002   30.96754  0.3111E-13  0.1642E-04  0.4531E-07  0.1781E-02  0.6565E-04  0.3342E+02
   -1.100004   30.96807  0.3111E-13  0.1640E-04  0.4544E-07  0.1876E-02  0.6202E-04  0.1103E+03
   -1.150006   30.96858  0.3111E-13  0.1635E-04  0.4571E-07  0.1684E-02  0.5879E-04  0.2588E+03
   -1.200007   30.96913  0.3111E-13  0.1627E-04  0.4611E-07  0.1716E-02  0.5541E-04  0.4866E+02
   -1.250009   30.96968  0.3111E-13  0.1617E-04  0.4670E-07  0.1685E-02  0.5218E-04  0.5220E+02
   -1.300010   30.97023  0.3111E-13  0.1604E-04  0.4752E-07  0.1632E-02  0.4908E-04  0.6088E+02
   -1.350011   30.97080  0.3111E-13  0.1588E-04  0.4863E-07  0.1571E-02  0.4606E-04  0.7369E+02
   -1.400012   30.97139  0.3111E-13  0.1567E-04  0.5012E-07  0.1490E-02  0.4312E-04  0.9111E+02
   -1.450013   30.97201  0.3111E-13  0.1543E-04  0.5214E-07  0.1410E-02  0.4022E-04  0.1179E+03
   -1.500014   30.97267  0.3111E-13  0.1512E-04  0.5495E-07  0.1295E-02  0.3737E-04  0.1614E+03
   -1.550014   30.97340  0.3111E-13  0.1475E-04  0.5893E-07  0.1210E-02  0.3450E-04  0.2361E+03
   -1.600014   30.97419  0.3111E-13  0.1428E-04  0.6510E-07  0.1065E-02  0.3169E-04  0.5541E+03
   -1.650014   30.97517  0.3111E-13  0.1367E-04  0.7469E-07  0.9802E-03  0.2863E-04  0.4758E+05
   -1.700013   30.97629  0.3111E-13  0.1284E-04  0.9156E-07  0.8013E-03  0.2563E-04 -0.1531E+05
   -1.750012   30.97828  0.3111E-13  0.1175E-04  0.1192E-06  0.7218E-03  0.2166E-04  0.2226E+07
   -1.800011   30.97987  0.3111E-13  0.1028E-04  0.1807E-06  0.4921E-03  0.1862E-04  0.1624E+06
   -1.850009   30.98702  0.3111E-13  0.8692E-05  0.2938E-06  0.4596E-03  0.1321E-04  0.4058E+08
   -1.900007   30.98532  0.3111E-13  0.6882E-05  0.6192E-06  0.2109E-03  0.1076E-04  0.3779E+07
   -1.950005   31.00655  0.3111E-13  0.4862E-05  0.1515E-05  0.1985E-03  0.5780E-05 -0.1966E+07
   -2.000002   31.00780  0.3111E-13  0.0000E+00  0.0000E+00  0.0000E+00  0.1075E-04  0.0000E+00
