 1 - depth, m
 2 - temperature, C
 3 - salinity, kg/kg
 4 - turbulent kinetic energy, m**2/s**2
 5 - dissipation rate, m**2/s**3
 6 - kinematic heat conductance, m**2/s
 7 - modulus of horizontal velocity, m/s
 8 - Richardson number, n/d
   -0.000000   30.38089  0.3937E-13  0.5129E-05  0.2959E-06  0.5086E-04  0.2847E-02  0.2373E+04
   -0.049997   30.41067  0.3937E-13  0.8456E-05  0.1294E-06  0.1963E-03  0.1536E-02  0.4617E+02
   -0.099994   30.42013  0.3937E-13  0.1003E-04  0.9125E-07  0.3881E-03  0.1184E-02  0.5958E+01
   -0.149992   30.42335  0.3937E-13  0.1106E-04  0.7669E-07  0.4841E-03  0.1049E-02  0.3064E+01
   -0.199991   30.42582  0.3937E-13  0.1187E-04  0.6817E-07  0.6308E-03  0.9431E-03  0.2005E+01
   -0.249989   30.42767  0.3937E-13  0.1253E-04  0.6260E-07  0.7501E-03  0.8620E-03  0.1507E+01
   -0.299988   30.42918  0.3937E-13  0.1307E-04  0.5863E-07  0.8602E-03  0.7942E-03  0.1267E+01
   -0.349988   30.43047  0.3937E-13  0.1353E-04  0.5556E-07  0.9667E-03  0.7343E-03  0.1237E+01
   -0.399988   30.43159  0.3937E-13  0.1395E-04  0.5305E-07  0.1081E-02  0.6778E-03  0.1248E+01
   -0.449988   30.43257  0.3937E-13  0.1434E-04  0.5093E-07  0.1196E-02  0.6253E-03  0.1261E+01
   -0.499988   30.43344  0.3937E-13  0.1468E-04  0.4915E-07  0.1304E-02  0.5777E-03  0.1268E+01
   -0.549989   30.43422  0.3937E-13  0.1498E-04  0.4767E-07  0.1404E-02  0.5348E-03  0.1267E+01
   -0.599990   30.43493  0.3937E-13  0.1523E-04  0.4643E-07  0.1494E-02  0.4960E-03  0.1262E+01
   -0.649991   30.43559  0.3937E-13  0.1545E-04  0.4541E-07  0.1574E-02  0.4610E-03  0.1253E+01
   -0.699992   30.43621  0.3937E-13  0.1563E-04  0.4457E-07  0.1643E-02  0.4293E-03  0.1239E+01
   -0.749993   30.43679  0.3937E-13  0.1578E-04  0.4390E-07  0.1701E-02  0.4007E-03  0.1223E+01
   -0.799995   30.43735  0.3937E-13  0.1589E-04  0.4337E-07  0.1748E-02  0.3749E-03  0.1203E+01
   -0.849996   30.43789  0.3937E-13  0.1598E-04  0.4297E-07  0.1783E-02  0.3515E-03  0.1186E+01
   -0.899998   30.43841  0.3937E-13  0.1603E-04  0.4269E-07  0.1807E-02  0.3303E-03  0.1175E+01
   -0.949999   30.43892  0.3937E-13  0.1607E-04  0.4252E-07  0.1820E-02  0.3111E-03  0.1185E+01
   -1.000001   30.43942  0.3937E-13  0.1608E-04  0.4245E-07  0.1826E-02  0.2935E-03  0.1223E+01
   -1.050003   30.43991  0.3937E-13  0.1607E-04  0.4248E-07  0.1821E-02  0.2772E-03  0.1341E+01
   -1.100005   30.44040  0.3937E-13  0.1604E-04  0.4262E-07  0.1928E-02  0.2619E-03  0.4328E+01
   -1.150006   30.44087  0.3937E-13  0.1598E-04  0.4290E-07  0.1705E-02  0.2486E-03  0.1022E+02
   -1.200008   30.44139  0.3937E-13  0.1591E-04  0.4330E-07  0.1748E-02  0.2343E-03  0.1934E+01
   -1.250009   30.44189  0.3937E-13  0.1581E-04  0.4387E-07  0.1716E-02  0.2208E-03  0.2060E+01
   -1.300011   30.44240  0.3937E-13  0.1568E-04  0.4466E-07  0.1662E-02  0.2077E-03  0.2420E+01
   -1.350012   30.44293  0.3937E-13  0.1552E-04  0.4571E-07  0.1599E-02  0.1950E-03  0.2905E+01
   -1.400013   30.44348  0.3937E-13  0.1532E-04  0.4711E-07  0.1517E-02  0.1826E-03  0.3610E+01
   -1.450014   30.44405  0.3937E-13  0.1508E-04  0.4902E-07  0.1437E-02  0.1705E-03  0.4627E+01
   -1.500014   30.44467  0.3937E-13  0.1479E-04  0.5165E-07  0.1322E-02  0.1584E-03  0.6348E+01
   -1.550015   30.44534  0.3937E-13  0.1443E-04  0.5538E-07  0.1236E-02  0.1464E-03  0.9260E+01
   -1.600015   30.44607  0.3937E-13  0.1399E-04  0.6111E-07  0.1089E-02  0.1345E-03  0.1968E+02
   -1.650014   30.44697  0.3937E-13  0.1341E-04  0.7002E-07  0.1007E-02  0.1216E-03  0.1587E+03
   -1.700014   30.44802  0.3937E-13  0.1262E-04  0.8559E-07  0.8207E-03  0.1088E-03 -0.4453E+02
   -1.750013   30.44982  0.3937E-13  0.1160E-04  0.1107E-06  0.7414E-03  0.9212E-04  0.5501E+04
   -1.800012   30.45121  0.3937E-13  0.1026E-04  0.1647E-06  0.5149E-03  0.7946E-04  0.1600E+05
   -1.850010   30.45755  0.3937E-13  0.8774E-05  0.2664E-06  0.4776E-03  0.5692E-04  0.2468E+07
   -1.900008   30.45606  0.3937E-13  0.6984E-05  0.5526E-06  0.2188E-03  0.4674E-04 -0.2560E+06
   -1.950005   30.47505  0.3937E-13  0.4879E-05  0.1372E-05  0.1901E-03  0.2542E-04 -0.3632E+06
   -2.000002   30.47728  0.3937E-13  0.0000E+00  0.0000E+00  0.0000E+00  0.4614E-04  0.0000E+00
