 1 - depth, m
 2 - temperature, C
 3 - salinity, kg/kg
 4 - turbulent kinetic energy, m**2/s**2
 5 - dissipation rate, m**2/s**3
 6 - kinematic heat conductance, m**2/s
 7 - modulus of horizontal velocity, m/s
 8 - Richardson number, n/d
   -0.000000   30.13478  0.2117E-13  0.4776E-05  0.2945E-06  0.4939E-04  0.1112E-02  0.1742E+05
   -0.049997   30.16610  0.2118E-13  0.8275E-05  0.1312E-06  0.1806E-03  0.6296E-03  0.5780E+04
   -0.099994   30.17761  0.2118E-13  0.1002E-04  0.9076E-07  0.4016E-03  0.4635E-03  0.4999E+02
   -0.149992   30.18086  0.2118E-13  0.1111E-04  0.7635E-07  0.4829E-03  0.4097E-03  0.2447E+02
   -0.199991   30.18344  0.2118E-13  0.1196E-04  0.6786E-07  0.6439E-03  0.3661E-03  0.1585E+02
   -0.249989   30.18533  0.2118E-13  0.1264E-04  0.6228E-07  0.7689E-03  0.3334E-03  0.1169E+02
   -0.299989   30.18686  0.2118E-13  0.1319E-04  0.5829E-07  0.8933E-03  0.3062E-03  0.9339E+01
   -0.349988   30.18814  0.2118E-13  0.1364E-04  0.5529E-07  0.1006E-02  0.2829E-03  0.7948E+01
   -0.399988   30.18926  0.2118E-13  0.1402E-04  0.5294E-07  0.1109E-02  0.2622E-03  0.7108E+01
   -0.449988   30.19024  0.2118E-13  0.1435E-04  0.5103E-07  0.1205E-02  0.2440E-03  0.6632E+01
   -0.499988   30.19113  0.2118E-13  0.1463E-04  0.4944E-07  0.1292E-02  0.2279E-03  0.6483E+01
   -0.549989   30.19195  0.2118E-13  0.1487E-04  0.4811E-07  0.1373E-02  0.2135E-03  0.6347E+01
   -0.599990   30.19270  0.2118E-13  0.1508E-04  0.4698E-07  0.1446E-02  0.2005E-03  0.6383E+01
   -0.649991   30.19340  0.2118E-13  0.1526E-04  0.4602E-07  0.1511E-02  0.1886E-03  0.6404E+01
   -0.699992   30.19406  0.2118E-13  0.1541E-04  0.4520E-07  0.1569E-02  0.1777E-03  0.6585E+01
   -0.749993   30.19469  0.2118E-13  0.1553E-04  0.4451E-07  0.1619E-02  0.1676E-03  0.6733E+01
   -0.799995   30.19529  0.2118E-13  0.1563E-04  0.4393E-07  0.1662E-02  0.1582E-03  0.7056E+01
   -0.849996   30.19587  0.2118E-13  0.1570E-04  0.4346E-07  0.1697E-02  0.1494E-03  0.7338E+01
   -0.899998   30.19643  0.2118E-13  0.1576E-04  0.4308E-07  0.1724E-02  0.1411E-03  0.7827E+01
   -0.950000   30.19697  0.2118E-13  0.1579E-04  0.4280E-07  0.1743E-02  0.1334E-03  0.8282E+01
   -1.000001   30.19750  0.2118E-13  0.1580E-04  0.4262E-07  0.1754E-02  0.1260E-03  0.8995E+01
   -1.050003   30.19802  0.2118E-13  0.1579E-04  0.4254E-07  0.1755E-02  0.1191E-03  0.1007E+02
   -1.100005   30.19854  0.2118E-13  0.1575E-04  0.4256E-07  0.1842E-02  0.1124E-03  0.3354E+02
   -1.150006   30.19902  0.2118E-13  0.1570E-04  0.4272E-07  0.1673E-02  0.1065E-03  0.7640E+02
   -1.200008   30.19956  0.2118E-13  0.1562E-04  0.4299E-07  0.1699E-02  0.1003E-03  0.1447E+02
   -1.250010   30.20008  0.2118E-13  0.1552E-04  0.4344E-07  0.1669E-02  0.9441E-04  0.1547E+02
   -1.300011   30.20060  0.2118E-13  0.1539E-04  0.4408E-07  0.1620E-02  0.8875E-04  0.1792E+02
   -1.350012   30.20114  0.2118E-13  0.1522E-04  0.4497E-07  0.1562E-02  0.8324E-04  0.2155E+02
   -1.400013   30.20169  0.2118E-13  0.1503E-04  0.4619E-07  0.1486E-02  0.7790E-04  0.2642E+02
   -1.450014   30.20227  0.2118E-13  0.1479E-04  0.4786E-07  0.1409E-02  0.7263E-04  0.3380E+02
   -1.500015   30.20288  0.2118E-13  0.1450E-04  0.5019E-07  0.1297E-02  0.6748E-04  0.4578E+02
   -1.550015   30.20355  0.2118E-13  0.1415E-04  0.5351E-07  0.1215E-02  0.6229E-04  0.6531E+02
   -1.600015   30.20427  0.2118E-13  0.1372E-04  0.5861E-07  0.1068E-02  0.5722E-04  0.1261E+03
   -1.650015   30.20513  0.2118E-13  0.1316E-04  0.6654E-07  0.9946E-03  0.5179E-04  0.1409E+04
   -1.700014   30.20611  0.2118E-13  0.1241E-04  0.8083E-07  0.8063E-03  0.4648E-04  0.1020E+05
   -1.750013   30.20785  0.2118E-13  0.1140E-04  0.1042E-06  0.7359E-03  0.3944E-04  0.1244E+06
   -1.800012   30.20927  0.2118E-13  0.1005E-04  0.1523E-06  0.5117E-03  0.3393E-04  0.2318E+06
   -1.850010   30.21508  0.2118E-13  0.8521E-05  0.2446E-06  0.4678E-03  0.2433E-04  0.1196E+09
   -1.900008   30.21399  0.2118E-13  0.6742E-05  0.5067E-06  0.2150E-03  0.1982E-04  0.2237E+06
   -1.950006   30.23193  0.2118E-13  0.4697E-05  0.1284E-05  0.1855E-03  0.1069E-04 -0.1420E+07
   -2.000003   30.23371  0.2118E-13  0.0000E+00  0.0000E+00  0.0000E+00  0.1952E-04  0.0000E+00
