 1 - depth, m
 2 - temperature, C
 3 - salinity, kg/kg
 4 - turbulent kinetic energy, m**2/s**2
 5 - dissipation rate, m**2/s**3
 6 - kinematic heat conductance, m**2/s
 7 - modulus of horizontal velocity, m/s
 8 - Richardson number, n/d
   -0.000000   30.67848  0.8732E-13  0.5056E-05  0.3209E-06  0.5019E-04  0.6717E-03  0.2113E+05
   -0.049997   30.71257  0.8732E-13  0.8854E-05  0.1425E-06  0.1895E-03  0.3782E-03  0.5383E+03
   -0.099994   30.72431  0.8732E-13  0.1069E-04  0.9893E-07  0.4192E-03  0.2797E-03  0.1389E+03
   -0.149992   30.72770  0.8732E-13  0.1184E-04  0.8340E-07  0.4990E-03  0.2479E-03  0.6871E+02
   -0.199990   30.73041  0.8732E-13  0.1274E-04  0.7421E-07  0.6663E-03  0.2219E-03  0.4484E+02
   -0.249989   30.73238  0.8732E-13  0.1345E-04  0.6816E-07  0.7945E-03  0.2024E-03  0.3332E+02
   -0.299988   30.73398  0.8732E-13  0.1403E-04  0.6383E-07  0.9224E-03  0.1862E-03  0.2667E+02
   -0.349988   30.73533  0.8732E-13  0.1451E-04  0.6057E-07  0.1038E-02  0.1723E-03  0.2279E+02
   -0.399987   30.73649  0.8732E-13  0.1492E-04  0.5803E-07  0.1144E-02  0.1599E-03  0.2036E+02
   -0.449987   30.73753  0.8732E-13  0.1526E-04  0.5595E-07  0.1242E-02  0.1490E-03  0.1905E+02
   -0.499988   30.73846  0.8732E-13  0.1556E-04  0.5424E-07  0.1332E-02  0.1394E-03  0.1855E+02
   -0.549988   30.73931  0.8732E-13  0.1582E-04  0.5280E-07  0.1414E-02  0.1308E-03  0.1822E+02
   -0.599989   30.74010  0.8732E-13  0.1604E-04  0.5159E-07  0.1488E-02  0.1229E-03  0.1826E+02
   -0.649990   30.74083  0.8732E-13  0.1623E-04  0.5056E-07  0.1554E-02  0.1158E-03  0.1841E+02
   -0.699991   30.74153  0.8732E-13  0.1639E-04  0.4970E-07  0.1613E-02  0.1092E-03  0.1886E+02
   -0.749992   30.74218  0.8732E-13  0.1652E-04  0.4897E-07  0.1664E-02  0.1031E-03  0.1941E+02
   -0.799994   30.74281  0.8732E-13  0.1663E-04  0.4837E-07  0.1707E-02  0.9741E-04  0.2027E+02
   -0.849995   30.74342  0.8732E-13  0.1671E-04  0.4789E-07  0.1742E-02  0.9211E-04  0.2124E+02
   -0.899997   30.74401  0.8732E-13  0.1677E-04  0.4753E-07  0.1768E-02  0.8711E-04  0.2259E+02
   -0.949999   30.74458  0.8732E-13  0.1680E-04  0.4727E-07  0.1786E-02  0.8242E-04  0.2410E+02
   -1.000000   30.74514  0.8732E-13  0.1682E-04  0.4712E-07  0.1796E-02  0.7795E-04  0.2612E+02
   -1.050002   30.74569  0.8732E-13  0.1681E-04  0.4709E-07  0.1795E-02  0.7372E-04  0.2950E+02
   -1.100004   30.74624  0.8732E-13  0.1678E-04  0.4719E-07  0.1893E-02  0.6967E-04  0.9738E+02
   -1.150005   30.74676  0.8732E-13  0.1672E-04  0.4744E-07  0.1695E-02  0.6607E-04  0.2257E+03
   -1.200007   30.74733  0.8732E-13  0.1664E-04  0.4783E-07  0.1729E-02  0.6229E-04  0.4290E+02
   -1.250008   30.74789  0.8732E-13  0.1653E-04  0.4842E-07  0.1698E-02  0.5868E-04  0.4592E+02
   -1.300010   30.74846  0.8732E-13  0.1639E-04  0.4924E-07  0.1645E-02  0.5521E-04  0.5376E+02
   -1.350011   30.74904  0.8732E-13  0.1622E-04  0.5037E-07  0.1583E-02  0.5183E-04  0.6477E+02
   -1.400012   30.74965  0.8732E-13  0.1600E-04  0.5190E-07  0.1501E-02  0.4854E-04  0.8034E+02
   -1.450012   30.75029  0.8732E-13  0.1574E-04  0.5399E-07  0.1421E-02  0.4529E-04  0.1034E+03
   -1.500013   30.75096  0.8732E-13  0.1542E-04  0.5692E-07  0.1304E-02  0.4210E-04  0.1421E+03
   -1.550013   30.75171  0.8732E-13  0.1503E-04  0.6108E-07  0.1220E-02  0.3888E-04  0.2085E+03
   -1.600013   30.75251  0.8732E-13  0.1455E-04  0.6758E-07  0.1071E-02  0.3571E-04  0.6420E+03
   -1.650013   30.75353  0.8732E-13  0.1392E-04  0.7768E-07  0.9898E-03  0.3227E-04  0.4309E+04
   -1.700012   30.75468  0.8732E-13  0.1305E-04  0.9564E-07  0.8063E-03  0.2887E-04 -0.3848E+05
   -1.750012   30.75674  0.8732E-13  0.1194E-04  0.1247E-06  0.7276E-03  0.2434E-04  0.1386E+07
   -1.800010   30.75829  0.8732E-13  0.1048E-04  0.1852E-06  0.5058E-03  0.2093E-04  0.2622E+06
   -1.850009   30.76558  0.8732E-13  0.8871E-05  0.3030E-06  0.4639E-03  0.1474E-04  0.1010E+09
   -1.900006   30.76395  0.8732E-13  0.7014E-05  0.6298E-06  0.2150E-03  0.1201E-04  0.2003E+07
   -1.950004   30.78557  0.8732E-13  0.4961E-05  0.1549E-05  0.1997E-03  0.6410E-05 -0.7632E+07
   -2.000001   30.78720  0.8732E-13  0.0000E+00  0.0000E+00  0.0000E+00  0.1213E-04  0.0000E+00
