 1 - depth, m
 2 - temperature, C
 3 - salinity, kg/kg
 4 - turbulent kinetic energy, m**2/s**2
 5 - dissipation rate, m**2/s**3
 6 - kinematic heat conductance, m**2/s
 7 - modulus of horizontal velocity, m/s
 8 - Richardson number, n/d
   -0.000000   31.59065  0.2236E-14  0.5660E-05  0.3892E-06  0.5427E-04  0.9421E-03  0.5804E+04
   -0.049997   31.62736  0.2236E-14  0.9758E-05  0.1728E-06  0.1937E-03  0.5382E-03  0.4922E+03
   -0.099994   31.64115  0.2236E-14  0.1184E-04  0.1188E-06  0.4317E-03  0.3968E-03  0.5948E+02
   -0.149992   31.64495  0.2236E-14  0.1315E-04  0.9966E-07  0.5127E-03  0.3519E-03  0.2956E+02
   -0.199990   31.64800  0.2236E-14  0.1416E-04  0.8843E-07  0.6903E-03  0.3151E-03  0.1893E+02
   -0.249989   31.65020  0.2236E-14  0.1497E-04  0.8110E-07  0.8228E-03  0.2877E-03  0.1407E+02
   -0.299988   31.65199  0.2236E-14  0.1562E-04  0.7588E-07  0.9582E-03  0.2650E-03  0.1118E+02
   -0.349987   31.65348  0.2236E-14  0.1616E-04  0.7198E-07  0.1079E-02  0.2454E-03  0.9585E+01
   -0.399987   31.65478  0.2236E-14  0.1662E-04  0.6894E-07  0.1190E-02  0.2282E-03  0.8515E+01
   -0.449987   31.65593  0.2236E-14  0.1700E-04  0.6647E-07  0.1293E-02  0.2130E-03  0.8004E+01
   -0.499987   31.65697  0.2236E-14  0.1734E-04  0.6444E-07  0.1386E-02  0.1995E-03  0.7747E+01
   -0.549988   31.65792  0.2236E-14  0.1762E-04  0.6273E-07  0.1472E-02  0.1874E-03  0.7656E+01
   -0.599989   31.65880  0.2236E-14  0.1787E-04  0.6130E-07  0.1549E-02  0.1764E-03  0.7618E+01
   -0.649990   31.65962  0.2236E-14  0.1807E-04  0.6009E-07  0.1617E-02  0.1664E-03  0.7730E+01
   -0.699991   31.66040  0.2236E-14  0.1824E-04  0.5907E-07  0.1677E-02  0.1572E-03  0.7861E+01
   -0.749992   31.66113  0.2236E-14  0.1838E-04  0.5821E-07  0.1729E-02  0.1486E-03  0.8146E+01
   -0.799993   31.66184  0.2236E-14  0.1849E-04  0.5752E-07  0.1771E-02  0.1406E-03  0.8442E+01
   -0.849995   31.66252  0.2236E-14  0.1858E-04  0.5696E-07  0.1805E-02  0.1332E-03  0.8913E+01
   -0.899997   31.66317  0.2236E-14  0.1863E-04  0.5654E-07  0.1830E-02  0.1261E-03  0.9406E+01
   -0.949998   31.66382  0.2236E-14  0.1866E-04  0.5625E-07  0.1846E-02  0.1195E-03  0.1012E+02
   -1.000000   31.66445  0.2236E-14  0.1866E-04  0.5610E-07  0.1853E-02  0.1132E-03  0.1089E+02
   -1.050002   31.66507  0.2236E-14  0.1863E-04  0.5610E-07  0.1847E-02  0.1072E-03  0.1239E+02
   -1.100003   31.66569  0.2236E-14  0.1858E-04  0.5625E-07  0.1969E-02  0.1014E-03  0.3961E+02
   -1.150005   31.66627  0.2236E-14  0.1849E-04  0.5662E-07  0.1707E-02  0.9639E-04  0.9957E+02
   -1.200006   31.66693  0.2236E-14  0.1838E-04  0.5716E-07  0.1760E-02  0.9089E-04  0.1840E+02
   -1.250008   31.66757  0.2236E-14  0.1823E-04  0.5796E-07  0.1726E-02  0.8573E-04  0.1955E+02
   -1.300009   31.66822  0.2236E-14  0.1804E-04  0.5909E-07  0.1664E-02  0.8075E-04  0.2329E+02
   -1.350010   31.66888  0.2236E-14  0.1781E-04  0.6064E-07  0.1595E-02  0.7588E-04  0.2825E+02
   -1.400011   31.66958  0.2236E-14  0.1753E-04  0.6278E-07  0.1502E-02  0.7112E-04  0.3603E+02
   -1.450012   31.67033  0.2236E-14  0.1719E-04  0.6575E-07  0.1418E-02  0.6639E-04  0.4737E+02
   -1.500012   31.67112  0.2236E-14  0.1678E-04  0.6999E-07  0.1292E-02  0.6172E-04  0.6862E+02
   -1.550013   31.67202  0.2236E-14  0.1627E-04  0.7617E-07  0.1211E-02  0.5695E-04  0.1200E+03
   -1.600013   31.67300  0.2236E-14  0.1563E-04  0.8627E-07  0.1057E-02  0.5225E-04  0.3732E+03
   -1.650012   31.67438  0.2236E-14  0.1477E-04  0.1021E-06  0.9803E-03  0.4682E-04  0.1324E+05
   -1.700012   31.67591  0.2236E-14  0.1360E-04  0.1312E-06  0.7783E-03  0.4147E-04  0.4112E+05
   -1.750011   31.67890  0.2236E-14  0.1225E-04  0.1765E-06  0.7085E-03  0.3403E-04  0.2109E+06
   -1.800009   31.68052  0.2236E-14  0.1057E-04  0.2774E-06  0.4790E-03  0.2931E-04  0.5366E+06
   -1.850008   31.69190  0.2236E-14  0.8927E-05  0.4651E-06  0.4654E-03  0.1967E-04  0.7083E+09
   -1.900005   31.68644  0.2236E-14  0.7124E-05  0.9705E-06  0.2188E-03  0.1648E-04 -0.1028E+07
   -1.950003   31.71467  0.2236E-14  0.5166E-05  0.2260E-05  0.2366E-03  0.8556E-05 -0.1100E+07
   -2.000000   31.71314  0.2236E-14  0.0000E+00  0.0000E+00  0.0000E+00  0.1809E-04  0.0000E+00
