 1 - depth, m
 2 - temperature, C
 3 - salinity, kg/kg
 4 - turbulent kinetic energy, m**2/s**2
 5 - dissipation rate, m**2/s**3
 6 - kinematic heat conductance, m**2/s
 7 - modulus of horizontal velocity, m/s
 8 - Richardson number, n/d
   -0.000000   30.14470  0.1942E-14  0.4708E-05  0.2929E-06  0.5009E-04  0.7718E-03  0.8471E+04
   -0.049997   30.17507  0.1942E-14  0.8232E-05  0.1299E-06  0.1773E-03  0.4402E-03  0.4451E+02
   -0.099994   30.18689  0.1942E-14  0.9999E-05  0.8945E-07  0.4103E-03  0.3193E-03  0.7757E+02
   -0.149992   30.19003  0.1942E-14  0.1109E-04  0.7544E-07  0.4849E-03  0.2829E-03  0.3786E+02
   -0.199991   30.19257  0.1942E-14  0.1194E-04  0.6717E-07  0.6489E-03  0.2528E-03  0.2456E+02
   -0.249989   30.19442  0.1942E-14  0.1262E-04  0.6173E-07  0.7741E-03  0.2303E-03  0.1821E+02
   -0.299988   30.19593  0.1942E-14  0.1317E-04  0.5784E-07  0.8991E-03  0.2116E-03  0.1455E+02
   -0.349988   30.19719  0.1942E-14  0.1363E-04  0.5492E-07  0.1012E-02  0.1955E-03  0.1245E+02
   -0.399988   30.19829  0.1942E-14  0.1402E-04  0.5264E-07  0.1116E-02  0.1812E-03  0.1112E+02
   -0.449988   30.19927  0.1942E-14  0.1435E-04  0.5079E-07  0.1211E-02  0.1687E-03  0.1043E+02
   -0.499988   30.20015  0.1942E-14  0.1464E-04  0.4926E-07  0.1300E-02  0.1576E-03  0.1016E+02
   -0.549989   30.20095  0.1942E-14  0.1489E-04  0.4798E-07  0.1380E-02  0.1477E-03  0.1002E+02
   -0.599990   30.20170  0.1942E-14  0.1510E-04  0.4690E-07  0.1453E-02  0.1387E-03  0.1003E+02
   -0.649991   30.20240  0.1942E-14  0.1529E-04  0.4599E-07  0.1519E-02  0.1305E-03  0.1015E+02
   -0.699992   30.20305  0.1942E-14  0.1544E-04  0.4522E-07  0.1576E-02  0.1229E-03  0.1039E+02
   -0.749993   30.20368  0.1942E-14  0.1557E-04  0.4457E-07  0.1627E-02  0.1159E-03  0.1071E+02
   -0.799995   30.20428  0.1942E-14  0.1568E-04  0.4404E-07  0.1669E-02  0.1094E-03  0.1117E+02
   -0.849996   30.20485  0.1942E-14  0.1576E-04  0.4361E-07  0.1704E-02  0.1034E-03  0.1173E+02
   -0.899998   30.20541  0.1942E-14  0.1582E-04  0.4328E-07  0.1731E-02  0.9768E-04  0.1245E+02
   -0.950000   30.20595  0.1942E-14  0.1586E-04  0.4305E-07  0.1750E-02  0.9231E-04  0.1331E+02
   -1.000001   30.20649  0.1942E-14  0.1588E-04  0.4292E-07  0.1760E-02  0.8723E-04  0.1438E+02
   -1.050003   30.20701  0.1942E-14  0.1588E-04  0.4289E-07  0.1761E-02  0.8241E-04  0.1627E+02
   -1.100005   30.20753  0.1942E-14  0.1585E-04  0.4296E-07  0.1849E-02  0.7780E-04  0.5391E+02
   -1.150006   30.20802  0.1942E-14  0.1581E-04  0.4317E-07  0.1676E-02  0.7370E-04  0.1224E+03
   -1.200008   30.20856  0.1942E-14  0.1574E-04  0.4351E-07  0.1703E-02  0.6944E-04  0.2348E+02
   -1.250009   30.20909  0.1942E-14  0.1564E-04  0.4402E-07  0.1672E-02  0.6536E-04  0.2504E+02
   -1.300011   30.20962  0.1942E-14  0.1551E-04  0.4473E-07  0.1623E-02  0.6144E-04  0.2926E+02
   -1.350012   30.21017  0.1942E-14  0.1536E-04  0.4570E-07  0.1564E-02  0.5763E-04  0.3503E+02
   -1.400013   30.21074  0.1942E-14  0.1517E-04  0.4701E-07  0.1486E-02  0.5392E-04  0.4322E+02
   -1.450014   30.21133  0.1942E-14  0.1493E-04  0.4879E-07  0.1409E-02  0.5028E-04  0.5508E+02
   -1.500014   30.21196  0.1942E-14  0.1465E-04  0.5126E-07  0.1297E-02  0.4670E-04  0.7469E+02
   -1.550015   30.21265  0.1942E-14  0.1430E-04  0.5476E-07  0.1213E-02  0.4310E-04  0.1063E+03
   -1.600015   30.21339  0.1942E-14  0.1386E-04  0.6011E-07  0.1067E-02  0.3959E-04  0.2184E+03
   -1.650015   30.21430  0.1942E-14  0.1330E-04  0.6837E-07  0.9899E-03  0.3580E-04 -0.9079E+03
   -1.700014   30.21531  0.1942E-14  0.1254E-04  0.8318E-07  0.8055E-03  0.3213E-04 -0.6843E+04
   -1.750013   30.21712  0.1942E-14  0.1152E-04  0.1076E-06  0.7263E-03  0.2723E-04  0.5961E+06
   -1.800012   30.21864  0.1942E-14  0.1013E-04  0.1597E-06  0.5058E-03  0.2337E-04  0.2419E+06
   -1.850010   30.22477  0.1942E-14  0.8589E-05  0.2569E-06  0.4653E-03  0.1673E-04  0.1267E+09
   -1.900008   30.22371  0.1942E-14  0.6791E-05  0.5405E-06  0.2109E-03  0.1358E-04  0.3824E+06
   -1.950006   30.24283  0.1942E-14  0.4753E-05  0.1349E-05  0.1887E-03  0.7285E-05 -0.4924E+06
   -2.000003   30.24452  0.1942E-14  0.0000E+00  0.0000E+00  0.0000E+00  0.1342E-04  0.0000E+00
