 1 - depth, m
 2 - temperature, C
 3 - salinity, kg/kg
 4 - turbulent kinetic energy, m**2/s**2
 5 - dissipation rate, m**2/s**3
 6 - kinematic heat conductance, m**2/s
 7 - modulus of horizontal velocity, m/s
 8 - Richardson number, n/d
   -0.000000   31.26853  0.3099E-13  0.5077E-05  0.3275E-06  0.5197E-04  0.1243E-02  0.5857E+04
   -0.049997   31.30040  0.3100E-13  0.8728E-05  0.1458E-06  0.1812E-03  0.7127E-03  0.2757E+03
   -0.099994   31.31282  0.3100E-13  0.1060E-04  0.1002E-06  0.4105E-03  0.5224E-03  0.3590E+02
   -0.149992   31.31620  0.3100E-13  0.1177E-04  0.8406E-07  0.4899E-03  0.4622E-03  0.1757E+02
   -0.199991   31.31891  0.3100E-13  0.1268E-04  0.7460E-07  0.6574E-03  0.4131E-03  0.1128E+02
   -0.249989   31.32086  0.3100E-13  0.1340E-04  0.6841E-07  0.7852E-03  0.3765E-03  0.8301E+01
   -0.299988   31.32245  0.3100E-13  0.1399E-04  0.6400E-07  0.9138E-03  0.3460E-03  0.6612E+01
   -0.349988   31.32379  0.3100E-13  0.1447E-04  0.6069E-07  0.1030E-02  0.3199E-03  0.5622E+01
   -0.399988   31.32494  0.3100E-13  0.1488E-04  0.5811E-07  0.1136E-02  0.2968E-03  0.5017E+01
   -0.449988   31.32596  0.3100E-13  0.1523E-04  0.5602E-07  0.1234E-02  0.2765E-03  0.4676E+01
   -0.499988   31.32688  0.3100E-13  0.1553E-04  0.5428E-07  0.1325E-02  0.2585E-03  0.4558E+01
   -0.549988   31.32772  0.3100E-13  0.1579E-04  0.5283E-07  0.1408E-02  0.2424E-03  0.4460E+01
   -0.599989   31.32850  0.3100E-13  0.1602E-04  0.5161E-07  0.1482E-02  0.2278E-03  0.4474E+01
   -0.649990   31.32923  0.3100E-13  0.1621E-04  0.5057E-07  0.1550E-02  0.2145E-03  0.4489E+01
   -0.699991   31.32991  0.3100E-13  0.1637E-04  0.4969E-07  0.1609E-02  0.2023E-03  0.4606E+01
   -0.749993   31.33056  0.3100E-13  0.1650E-04  0.4896E-07  0.1660E-02  0.1909E-03  0.4712E+01
   -0.799994   31.33118  0.3100E-13  0.1661E-04  0.4835E-07  0.1704E-02  0.1804E-03  0.4928E+01
   -0.849996   31.33178  0.3100E-13  0.1669E-04  0.4785E-07  0.1739E-02  0.1705E-03  0.5131E+01
   -0.899997   31.33236  0.3100E-13  0.1675E-04  0.4747E-07  0.1766E-02  0.1613E-03  0.5462E+01
   -0.949999   31.33293  0.3100E-13  0.1679E-04  0.4720E-07  0.1785E-02  0.1525E-03  0.5789E+01
   -1.000001   31.33348  0.3100E-13  0.1680E-04  0.4703E-07  0.1796E-02  0.1443E-03  0.6276E+01
   -1.050002   31.33402  0.3100E-13  0.1679E-04  0.4698E-07  0.1796E-02  0.1364E-03  0.7038E+01
   -1.100004   31.33456  0.3100E-13  0.1676E-04  0.4706E-07  0.1890E-02  0.1289E-03  0.2334E+02
   -1.150006   31.33507  0.3100E-13  0.1670E-04  0.4729E-07  0.1700E-02  0.1222E-03  0.5344E+02
   -1.200007   31.33563  0.3100E-13  0.1662E-04  0.4765E-07  0.1732E-02  0.1152E-03  0.1012E+02
   -1.250009   31.33618  0.3100E-13  0.1651E-04  0.4821E-07  0.1701E-02  0.1086E-03  0.1082E+02
   -1.300010   31.33674  0.3100E-13  0.1637E-04  0.4900E-07  0.1649E-02  0.1021E-03  0.1256E+02
   -1.350011   31.33730  0.3100E-13  0.1620E-04  0.5008E-07  0.1588E-02  0.9588E-04  0.1511E+02
   -1.400012   31.33790  0.3100E-13  0.1598E-04  0.5156E-07  0.1508E-02  0.8979E-04  0.1855E+02
   -1.450013   31.33852  0.3100E-13  0.1572E-04  0.5358E-07  0.1427E-02  0.8378E-04  0.2384E+02
   -1.500014   31.33917  0.3100E-13  0.1541E-04  0.5641E-07  0.1313E-02  0.7788E-04  0.3233E+02
   -1.550014   31.33989  0.3100E-13  0.1503E-04  0.6046E-07  0.1228E-02  0.7192E-04  0.4704E+02
   -1.600014   31.34068  0.3100E-13  0.1454E-04  0.6671E-07  0.1081E-02  0.6606E-04  0.9683E+02
   -1.650014   31.34164  0.3100E-13  0.1392E-04  0.7651E-07  0.9988E-03  0.5973E-04  0.7067E+03
   -1.700013   31.34277  0.3100E-13  0.1307E-04  0.9370E-07  0.8175E-03  0.5339E-04  0.5862E+04
   -1.750012   31.34468  0.3100E-13  0.1198E-04  0.1218E-06  0.7372E-03  0.4518E-04  0.3088E+06
   -1.800011   31.34627  0.3100E-13  0.1052E-04  0.1819E-06  0.5178E-03  0.3879E-04  0.6830E+05
   -1.850009   31.35297  0.3100E-13  0.8938E-05  0.2948E-06  0.4740E-03  0.2759E-04  0.8763E+07
   -1.900007   31.35147  0.3100E-13  0.7083E-05  0.6110E-06  0.2182E-03  0.2252E-04 -0.2161E+06
   -1.950005   31.37172  0.3100E-13  0.4995E-05  0.1522E-05  0.1967E-03  0.1208E-04 -0.1304E+07
   -2.000002   31.37389  0.3100E-13  0.0000E+00  0.0000E+00  0.0000E+00  0.2257E-04  0.0000E+00
