 1 - depth, m
 2 - temperature, C
 3 - salinity, kg/kg
 4 - turbulent kinetic energy, m**2/s**2
 5 - dissipation rate, m**2/s**3
 6 - kinematic heat conductance, m**2/s
 7 - modulus of horizontal velocity, m/s
 8 - Richardson number, n/d
   -0.000000   30.56908  0.1459E-13  0.5317E-05  0.3252E-06  0.5254E-04  0.2560E-02  0.1321E+04
   -0.049997   30.60074  0.1459E-13  0.8848E-05  0.1432E-06  0.1940E-03  0.1404E-02  0.4001E+03
   -0.099994   30.61141  0.1459E-13  0.1058E-04  0.1001E-06  0.3972E-03  0.1071E-02  0.7472E+01
   -0.149992   30.61488  0.1459E-13  0.1169E-04  0.8386E-07  0.4910E-03  0.9470E-03  0.3799E+01
   -0.199991   30.61755  0.1459E-13  0.1257E-04  0.7437E-07  0.6472E-03  0.8492E-03  0.2454E+01
   -0.249989   30.61953  0.1459E-13  0.1327E-04  0.6816E-07  0.7732E-03  0.7751E-03  0.1819E+01
   -0.299988   30.62113  0.1459E-13  0.1384E-04  0.6375E-07  0.8941E-03  0.7134E-03  0.1467E+01
   -0.349988   30.62249  0.1459E-13  0.1432E-04  0.6042E-07  0.1004E-02  0.6600E-03  0.1310E+01
   -0.399988   30.62366  0.1459E-13  0.1474E-04  0.5777E-07  0.1111E-02  0.6115E-03  0.1242E+01
   -0.449988   30.62470  0.1459E-13  0.1511E-04  0.5556E-07  0.1218E-02  0.5674E-03  0.1226E+01
   -0.499988   30.62564  0.1459E-13  0.1544E-04  0.5371E-07  0.1319E-02  0.5275E-03  0.1228E+01
   -0.549989   30.62648  0.1459E-13  0.1572E-04  0.5216E-07  0.1412E-02  0.4914E-03  0.1225E+01
   -0.599989   30.62725  0.1459E-13  0.1597E-04  0.5085E-07  0.1497E-02  0.4587E-03  0.1223E+01
   -0.649990   30.62797  0.1459E-13  0.1618E-04  0.4975E-07  0.1572E-02  0.4290E-03  0.1219E+01
   -0.699992   30.62865  0.1459E-13  0.1635E-04  0.4884E-07  0.1638E-02  0.4019E-03  0.1217E+01
   -0.749993   30.62929  0.1459E-13  0.1649E-04  0.4809E-07  0.1693E-02  0.3773E-03  0.1215E+01
   -0.799994   30.62989  0.1459E-13  0.1661E-04  0.4749E-07  0.1739E-02  0.3548E-03  0.1220E+01
   -0.849996   30.63048  0.1459E-13  0.1669E-04  0.4701E-07  0.1773E-02  0.3343E-03  0.1232E+01
   -0.899998   30.63105  0.1459E-13  0.1675E-04  0.4666E-07  0.1799E-02  0.3154E-03  0.1265E+01
   -0.949999   30.63161  0.1459E-13  0.1678E-04  0.4642E-07  0.1815E-02  0.2980E-03  0.1317E+01
   -1.000001   30.63215  0.1459E-13  0.1679E-04  0.4628E-07  0.1823E-02  0.2817E-03  0.1401E+01
   -1.050003   30.63269  0.1459E-13  0.1678E-04  0.4626E-07  0.1821E-02  0.2664E-03  0.1569E+01
   -1.100004   30.63322  0.1459E-13  0.1674E-04  0.4636E-07  0.1924E-02  0.2519E-03  0.5148E+01
   -1.150006   30.63372  0.1459E-13  0.1668E-04  0.4661E-07  0.1713E-02  0.2390E-03  0.1201E+02
   -1.200008   30.63428  0.1459E-13  0.1660E-04  0.4699E-07  0.1752E-02  0.2253E-03  0.2273E+01
   -1.250009   30.63483  0.1459E-13  0.1649E-04  0.4757E-07  0.1720E-02  0.2124E-03  0.2422E+01
   -1.300010   30.63538  0.1459E-13  0.1635E-04  0.4837E-07  0.1666E-02  0.1999E-03  0.2833E+01
   -1.350012   30.63594  0.1459E-13  0.1617E-04  0.4946E-07  0.1604E-02  0.1877E-03  0.3403E+01
   -1.400013   30.63653  0.1459E-13  0.1596E-04  0.5095E-07  0.1522E-02  0.1758E-03  0.4216E+01
   -1.450013   30.63715  0.1459E-13  0.1570E-04  0.5297E-07  0.1441E-02  0.1641E-03  0.5407E+01
   -1.500014   30.63780  0.1459E-13  0.1538E-04  0.5580E-07  0.1325E-02  0.1526E-03  0.7423E+01
   -1.550014   30.63852  0.1459E-13  0.1500E-04  0.5983E-07  0.1240E-02  0.1410E-03  0.1088E+02
   -1.600014   30.63930  0.1459E-13  0.1452E-04  0.6611E-07  0.1091E-02  0.1296E-03  0.3522E+02
   -1.650014   30.64028  0.1459E-13  0.1390E-04  0.7583E-07  0.1009E-02  0.1172E-03  0.6693E+02
   -1.700014   30.64138  0.1459E-13  0.1306E-04  0.9289E-07  0.8222E-03  0.1049E-03  0.8153E+03
   -1.750013   30.64334  0.1459E-13  0.1198E-04  0.1207E-06  0.7456E-03  0.8874E-04  0.1056E+06
   -1.800011   30.64485  0.1459E-13  0.1054E-04  0.1803E-06  0.5166E-03  0.7648E-04  0.7931E+04
   -1.850010   30.65173  0.1459E-13  0.8977E-05  0.2923E-06  0.4796E-03  0.5457E-04  0.2072E+08
   -1.900008   30.65003  0.1459E-13  0.7112E-05  0.6132E-06  0.2162E-03  0.4471E-04  0.1936E+06
   -1.950005   30.67063  0.1459E-13  0.4997E-05  0.1511E-05  0.1974E-03  0.2402E-04 -0.1643E+06
   -2.000002   30.67186  0.1459E-13  0.0000E+00  0.0000E+00  0.0000E+00  0.4455E-04  0.0000E+00
