 1 - depth, m
 2 - temperature, C
 3 - salinity, kg/kg
 4 - turbulent kinetic energy, m**2/s**2
 5 - dissipation rate, m**2/s**3
 6 - kinematic heat conductance, m**2/s
 7 - modulus of horizontal velocity, m/s
 8 - Richardson number, n/d
   -0.000000   31.33706  0.5147E-13  0.5210E-05  0.3348E-06  0.5075E-04  0.4877E-03  0.3111E+05
   -0.049997   31.37216  0.5147E-13  0.9172E-05  0.1489E-06  0.1946E-03  0.2742E-03  0.1837E+06
   -0.099994   31.38371  0.5147E-13  0.1105E-04  0.1036E-06  0.4271E-03  0.2025E-03  0.2108E+03
   -0.149992   31.38715  0.5147E-13  0.1224E-04  0.8747E-07  0.5063E-03  0.1797E-03  0.1052E+03
   -0.199990   31.38991  0.5147E-13  0.1317E-04  0.7790E-07  0.6767E-03  0.1610E-03  0.6883E+02
   -0.249989   31.39191  0.5147E-13  0.1390E-04  0.7159E-07  0.8064E-03  0.1469E-03  0.5126E+02
   -0.299988   31.39355  0.5147E-13  0.1450E-04  0.6707E-07  0.9356E-03  0.1352E-03  0.4102E+02
   -0.349988   31.39492  0.5147E-13  0.1499E-04  0.6367E-07  0.1052E-02  0.1252E-03  0.3509E+02
   -0.399987   31.39611  0.5147E-13  0.1541E-04  0.6102E-07  0.1159E-02  0.1163E-03  0.3133E+02
   -0.449987   31.39717  0.5147E-13  0.1576E-04  0.5885E-07  0.1257E-02  0.1084E-03  0.2935E+02
   -0.499988   31.39812  0.5147E-13  0.1607E-04  0.5706E-07  0.1348E-02  0.1015E-03  0.2857E+02
   -0.549988   31.39899  0.5147E-13  0.1633E-04  0.5556E-07  0.1430E-02  0.9524E-04  0.2811E+02
   -0.599989   31.39980  0.5147E-13  0.1655E-04  0.5430E-07  0.1504E-02  0.8957E-04  0.2815E+02
   -0.649990   31.40056  0.5147E-13  0.1674E-04  0.5323E-07  0.1570E-02  0.8440E-04  0.2841E+02
   -0.699991   31.40127  0.5147E-13  0.1690E-04  0.5233E-07  0.1628E-02  0.7964E-04  0.2909E+02
   -0.749992   31.40194  0.5147E-13  0.1703E-04  0.5157E-07  0.1678E-02  0.7523E-04  0.2994E+02
   -0.799994   31.40259  0.5147E-13  0.1713E-04  0.5096E-07  0.1720E-02  0.7112E-04  0.3127E+02
   -0.849995   31.40322  0.5147E-13  0.1721E-04  0.5046E-07  0.1753E-02  0.6727E-04  0.3277E+02
   -0.899997   31.40382  0.5147E-13  0.1727E-04  0.5008E-07  0.1778E-02  0.6365E-04  0.3486E+02
   -0.949999   31.40441  0.5147E-13  0.1729E-04  0.4983E-07  0.1793E-02  0.6024E-04  0.3721E+02
   -1.000000   31.40499  0.5147E-13  0.1730E-04  0.4969E-07  0.1801E-02  0.5700E-04  0.4038E+02
   -1.050002   31.40556  0.5147E-13  0.1728E-04  0.4968E-07  0.1797E-02  0.5392E-04  0.4558E+02
   -1.100004   31.40613  0.5147E-13  0.1723E-04  0.4980E-07  0.1908E-02  0.5097E-04  0.1477E+03
   -1.150005   31.40666  0.5147E-13  0.1716E-04  0.5010E-07  0.1674E-02  0.4838E-04  0.3654E+03
   -1.200007   31.40727  0.5147E-13  0.1706E-04  0.5056E-07  0.1718E-02  0.4559E-04  0.6745E+02
   -1.250008   31.40785  0.5147E-13  0.1693E-04  0.5123E-07  0.1685E-02  0.4295E-04  0.7220E+02
   -1.300009   31.40844  0.5147E-13  0.1677E-04  0.5218E-07  0.1627E-02  0.4042E-04  0.8508E+02
   -1.350010   31.40905  0.5147E-13  0.1657E-04  0.5348E-07  0.1560E-02  0.3794E-04  0.1037E+03
   -1.400011   31.40969  0.5147E-13  0.1632E-04  0.5526E-07  0.1474E-02  0.3553E-04  0.1303E+03
   -1.450012   31.41036  0.5147E-13  0.1602E-04  0.5771E-07  0.1387E-02  0.3314E-04  0.1712E+03
   -1.500013   31.41108  0.5147E-13  0.1566E-04  0.6118E-07  0.1271E-02  0.3078E-04  0.2414E+03
   -1.550013   31.41188  0.5147E-13  0.1521E-04  0.6623E-07  0.1181E-02  0.2839E-04  0.3740E+03
   -1.600013   31.41276  0.5147E-13  0.1465E-04  0.7419E-07  0.1040E-02  0.2602E-04  0.4316E+04
   -1.650013   31.41389  0.5147E-13  0.1391E-04  0.8697E-07  0.9493E-03  0.2343E-04  0.1441E+05
   -1.700012   31.41529  0.5147E-13  0.1288E-04  0.1096E-06  0.7779E-03  0.2073E-04 -0.2733E+06
   -1.750011   31.41765  0.5147E-13  0.1164E-04  0.1455E-06  0.6887E-03  0.1729E-04  0.1188E+08
   -1.800010   31.41946  0.5147E-13  0.1003E-04  0.2251E-06  0.4696E-03  0.1473E-04  0.3225E+06
   -1.850008   31.42860  0.5147E-13  0.8416E-05  0.3735E-06  0.4469E-03  0.1005E-04  0.1824E+10
   -1.900006   31.42495  0.5147E-13  0.6680E-05  0.7965E-06  0.2059E-03  0.8284E-05 -0.3328E+06
   -1.950003   31.44993  0.5147E-13  0.4808E-05  0.1897E-05  0.2206E-03  0.4290E-05 -0.3173E+07
   -2.000000   31.44935  0.5147E-13  0.0000E+00  0.0000E+00  0.0000E+00  0.8854E-05  0.0000E+00
