 1 - depth, m
 2 - temperature, C
 3 - salinity, kg/kg
 4 - turbulent kinetic energy, m**2/s**2
 5 - dissipation rate, m**2/s**3
 6 - kinematic heat conductance, m**2/s
 7 - modulus of horizontal velocity, m/s
 8 - Richardson number, n/d
   -0.000000   29.81395  0.3394E-14  0.4563E-05  0.2738E-06  0.4907E-04  0.1672E-02  0.5716E+04
   -0.049997   29.84252  0.3394E-14  0.7802E-05  0.1220E-06  0.1724E-03  0.9527E-03  0.5753E+04
   -0.099994   29.85352  0.3394E-14  0.9463E-05  0.8392E-07  0.3893E-03  0.6958E-03  0.1656E+02
   -0.149992   29.85658  0.3394E-14  0.1050E-04  0.7046E-07  0.4693E-03  0.6139E-03  0.8055E+01
   -0.199991   29.85902  0.3394E-14  0.1131E-04  0.6258E-07  0.6259E-03  0.5476E-03  0.5180E+01
   -0.249989   29.86080  0.3394E-14  0.1195E-04  0.5741E-07  0.7485E-03  0.4980E-03  0.3820E+01
   -0.299989   29.86224  0.3394E-14  0.1248E-04  0.5372E-07  0.8702E-03  0.4567E-03  0.3040E+01
   -0.349988   29.86346  0.3394E-14  0.1292E-04  0.5096E-07  0.9807E-03  0.4213E-03  0.2599E+01
   -0.399988   29.86451  0.3394E-14  0.1329E-04  0.4882E-07  0.1082E-02  0.3901E-03  0.2317E+01
   -0.449988   29.86544  0.3394E-14  0.1360E-04  0.4707E-07  0.1176E-02  0.3626E-03  0.2176E+01
   -0.499988   29.86629  0.3394E-14  0.1388E-04  0.4563E-07  0.1262E-02  0.3382E-03  0.2119E+01
   -0.549989   29.86706  0.3394E-14  0.1412E-04  0.4442E-07  0.1342E-02  0.3165E-03  0.2092E+01
   -0.599990   29.86777  0.3394E-14  0.1432E-04  0.4341E-07  0.1413E-02  0.2968E-03  0.2095E+01
   -0.649991   29.86844  0.3394E-14  0.1450E-04  0.4255E-07  0.1478E-02  0.2789E-03  0.2122E+01
   -0.699992   29.86906  0.3394E-14  0.1465E-04  0.4182E-07  0.1536E-02  0.2625E-03  0.2171E+01
   -0.749993   29.86966  0.3394E-14  0.1478E-04  0.4121E-07  0.1586E-02  0.2473E-03  0.2243E+01
   -0.799995   29.87023  0.3394E-14  0.1488E-04  0.4071E-07  0.1628E-02  0.2332E-03  0.2338E+01
   -0.849996   29.87078  0.3394E-14  0.1496E-04  0.4031E-07  0.1663E-02  0.2200E-03  0.2459E+01
   -0.899998   29.87131  0.3394E-14  0.1503E-04  0.3999E-07  0.1691E-02  0.2077E-03  0.2607E+01
   -0.950000   29.87183  0.3394E-14  0.1507E-04  0.3977E-07  0.1710E-02  0.1961E-03  0.2791E+01
   -1.000002   29.87233  0.3394E-14  0.1509E-04  0.3964E-07  0.1722E-02  0.1851E-03  0.3012E+01
   -1.050003   29.87283  0.3394E-14  0.1509E-04  0.3960E-07  0.1724E-02  0.1747E-03  0.3415E+01
   -1.100005   29.87333  0.3394E-14  0.1507E-04  0.3966E-07  0.1803E-02  0.1647E-03  0.1141E+02
   -1.150007   29.87380  0.3394E-14  0.1503E-04  0.3983E-07  0.1654E-02  0.1559E-03  0.2526E+02
   -1.200008   29.87431  0.3394E-14  0.1497E-04  0.4013E-07  0.1673E-02  0.1467E-03  0.4901E+01
   -1.250010   29.87481  0.3394E-14  0.1489E-04  0.4057E-07  0.1645E-02  0.1380E-03  0.5218E+01
   -1.300011   29.87531  0.3394E-14  0.1478E-04  0.4120E-07  0.1599E-02  0.1296E-03  0.6088E+01
   -1.350012   29.87583  0.3394E-14  0.1464E-04  0.4205E-07  0.1543E-02  0.1214E-03  0.7255E+01
   -1.400013   29.87637  0.3394E-14  0.1446E-04  0.4321E-07  0.1470E-02  0.1135E-03  0.8912E+01
   -1.450014   29.87693  0.3394E-14  0.1425E-04  0.4477E-07  0.1396E-02  0.1058E-03  0.1127E+02
   -1.500015   29.87752  0.3394E-14  0.1400E-04  0.4692E-07  0.1289E-02  0.9815E-04  0.1513E+02
   -1.550015   29.87816  0.3394E-14  0.1368E-04  0.4995E-07  0.1207E-02  0.9054E-04  0.2118E+02
   -1.600015   29.87885  0.3394E-14  0.1329E-04  0.5453E-07  0.1064E-02  0.8309E-04  0.3706E+02
   -1.650015   29.87968  0.3394E-14  0.1279E-04  0.6152E-07  0.9900E-03  0.7518E-04  0.3486E+04
   -1.700015   29.88060  0.3394E-14  0.1211E-04  0.7418E-07  0.8058E-03  0.6758E-04  0.4519E+04
   -1.750014   29.88221  0.3394E-14  0.1118E-04  0.9514E-07  0.7326E-03  0.5746E-04  0.1325E+05
   -1.800012   29.88362  0.3394E-14  0.9926E-05  0.1390E-06  0.5089E-03  0.4942E-04  0.6637E+04
   -1.850011   29.88878  0.3394E-14  0.8463E-05  0.2209E-06  0.4682E-03  0.3581E-04  0.7179E+08
   -1.900009   29.88826  0.3394E-14  0.6729E-05  0.4576E-06  0.2136E-03  0.2905E-04  0.3600E+05
   -1.950006   29.90509  0.3394E-14  0.4650E-05  0.1166E-05  0.1761E-03  0.1584E-04 -0.4061E+06
   -2.000003   29.90804  0.3394E-14  0.0000E+00  0.0000E+00  0.0000E+00  0.2806E-04  0.0000E+00
