 1 - depth, m
 2 - temperature, C
 3 - salinity, kg/kg
 4 - turbulent kinetic energy, m**2/s**2
 5 - dissipation rate, m**2/s**3
 6 - kinematic heat conductance, m**2/s
 7 - modulus of horizontal velocity, m/s
 8 - Richardson number, n/d
   -0.000000   30.14903  0.6487E-14  0.4818E-05  0.2998E-06  0.5005E-04  0.1273E-02  0.9400E+04
   -0.049997   30.18003  0.6487E-14  0.8308E-05  0.1335E-06  0.1797E-03  0.7225E-03  0.1520E+04
   -0.099994   30.19180  0.6487E-14  0.1008E-04  0.9214E-07  0.4018E-03  0.5301E-03  0.2957E+02
   -0.149992   30.19506  0.6487E-14  0.1119E-04  0.7742E-07  0.4833E-03  0.4684E-03  0.1453E+02
   -0.199991   30.19766  0.6487E-14  0.1205E-04  0.6878E-07  0.6456E-03  0.4184E-03  0.9328E+01
   -0.249989   30.19955  0.6487E-14  0.1274E-04  0.6313E-07  0.7712E-03  0.3810E-03  0.6894E+01
   -0.299988   30.20108  0.6487E-14  0.1330E-04  0.5909E-07  0.8968E-03  0.3499E-03  0.5486E+01
   -0.349988   30.20237  0.6487E-14  0.1377E-04  0.5607E-07  0.1010E-02  0.3232E-03  0.4693E+01
   -0.399988   30.20349  0.6487E-14  0.1416E-04  0.5372E-07  0.1114E-02  0.2996E-03  0.4181E+01
   -0.449988   30.20448  0.6487E-14  0.1449E-04  0.5181E-07  0.1211E-02  0.2789E-03  0.3926E+01
   -0.499988   30.20538  0.6487E-14  0.1478E-04  0.5023E-07  0.1299E-02  0.2605E-03  0.3817E+01
   -0.549989   30.20620  0.6487E-14  0.1504E-04  0.4890E-07  0.1380E-02  0.2441E-03  0.3766E+01
   -0.599990   30.20696  0.6487E-14  0.1525E-04  0.4779E-07  0.1454E-02  0.2292E-03  0.3765E+01
   -0.649991   30.20767  0.6487E-14  0.1544E-04  0.4684E-07  0.1519E-02  0.2156E-03  0.3811E+01
   -0.699992   30.20834  0.6487E-14  0.1559E-04  0.4605E-07  0.1578E-02  0.2031E-03  0.3893E+01
   -0.749993   30.20897  0.6487E-14  0.1572E-04  0.4538E-07  0.1628E-02  0.1916E-03  0.4019E+01
   -0.799995   30.20958  0.6487E-14  0.1583E-04  0.4483E-07  0.1671E-02  0.1808E-03  0.4184E+01
   -0.849996   30.21016  0.6487E-14  0.1591E-04  0.4438E-07  0.1706E-02  0.1708E-03  0.4396E+01
   -0.899998   30.21073  0.6487E-14  0.1597E-04  0.4404E-07  0.1733E-02  0.1614E-03  0.4656E+01
   -0.950000   30.21128  0.6487E-14  0.1601E-04  0.4380E-07  0.1752E-02  0.1525E-03  0.4981E+01
   -1.000001   30.21182  0.6487E-14  0.1603E-04  0.4365E-07  0.1762E-02  0.1441E-03  0.5371E+01
   -1.050003   30.21236  0.6487E-14  0.1602E-04  0.4361E-07  0.1763E-02  0.1362E-03  0.6080E+01
   -1.100005   30.21288  0.6487E-14  0.1600E-04  0.4369E-07  0.1852E-02  0.1286E-03  0.2010E+02
   -1.150006   30.21338  0.6487E-14  0.1595E-04  0.4390E-07  0.1676E-02  0.1218E-03  0.4578E+02
   -1.200008   30.21393  0.6487E-14  0.1587E-04  0.4424E-07  0.1704E-02  0.1147E-03  0.8771E+01
   -1.250009   30.21447  0.6487E-14  0.1577E-04  0.4475E-07  0.1673E-02  0.1080E-03  0.9335E+01
   -1.300011   30.21501  0.6487E-14  0.1564E-04  0.4548E-07  0.1623E-02  0.1015E-03  0.1092E+02
   -1.350012   30.21557  0.6487E-14  0.1548E-04  0.4647E-07  0.1563E-02  0.9523E-04  0.1307E+02
   -1.400013   30.21614  0.6487E-14  0.1529E-04  0.4781E-07  0.1485E-02  0.8910E-04  0.1615E+02
   -1.450014   30.21675  0.6487E-14  0.1505E-04  0.4964E-07  0.1407E-02  0.8307E-04  0.2060E+02
   -1.500014   30.21739  0.6487E-14  0.1475E-04  0.5218E-07  0.1295E-02  0.7716E-04  0.2805E+02
   -1.550015   30.21809  0.6487E-14  0.1440E-04  0.5578E-07  0.1210E-02  0.7120E-04  0.4013E+02
   -1.600015   30.21885  0.6487E-14  0.1395E-04  0.6133E-07  0.1065E-02  0.6538E-04  0.8111E+02
   -1.650015   30.21978  0.6487E-14  0.1338E-04  0.6990E-07  0.9845E-03  0.5910E-04 -0.7714E+03
   -1.700014   30.22082  0.6487E-14  0.1259E-04  0.8522E-07  0.8042E-03  0.5297E-04 -0.9023E+04
   -1.750013   30.22268  0.6487E-14  0.1156E-04  0.1105E-06  0.7225E-03  0.4483E-04  0.4683E+05
   -1.800012   30.22420  0.6487E-14  0.1016E-04  0.1652E-06  0.5033E-03  0.3848E-04  0.2951E+05
   -1.850010   30.23066  0.6487E-14  0.8605E-05  0.2663E-06  0.4613E-03  0.2744E-04  0.1064E+08
   -1.900008   30.22929  0.6487E-14  0.6768E-05  0.5586E-06  0.2071E-03  0.2227E-04  0.1796E+06
   -1.950006   30.24909  0.6487E-14  0.4749E-05  0.1380E-05  0.1926E-03  0.1184E-04 -0.3167E+06
   -2.000003   30.25017  0.6487E-14  0.0000E+00  0.0000E+00  0.0000E+00  0.2208E-04  0.0000E+00
