 1 - depth, m
 2 - temperature, C
 3 - salinity, kg/kg
 4 - turbulent kinetic energy, m**2/s**2
 5 - dissipation rate, m**2/s**3
 6 - kinematic heat conductance, m**2/s
 7 - modulus of horizontal velocity, m/s
 8 - Richardson number, n/d
   -0.000000   30.32185  0.3075E-13  0.4861E-05  0.2891E-06  0.5031E-04  0.2296E-02  0.4415E+04
   -0.049997   30.35091  0.3075E-13  0.8159E-05  0.1279E-06  0.1825E-03  0.1271E-02  0.6857E+02
   -0.099994   30.36118  0.3075E-13  0.9801E-05  0.8891E-07  0.3880E-03  0.9532E-03  0.8924E+01
   -0.149992   30.36435  0.3075E-13  0.1085E-04  0.7451E-07  0.4766E-03  0.8405E-03  0.4446E+01
   -0.199991   30.36682  0.3075E-13  0.1168E-04  0.6610E-07  0.6307E-03  0.7512E-03  0.2865E+01
   -0.249989   30.36863  0.3075E-13  0.1233E-04  0.6060E-07  0.7549E-03  0.6837E-03  0.2118E+01
   -0.299988   30.37010  0.3075E-13  0.1287E-04  0.5668E-07  0.8766E-03  0.6276E-03  0.1687E+01
   -0.349988   30.37134  0.3075E-13  0.1332E-04  0.5376E-07  0.9859E-03  0.5795E-03  0.1450E+01
   -0.399988   30.37242  0.3075E-13  0.1370E-04  0.5147E-07  0.1086E-02  0.5369E-03  0.1318E+01
   -0.449988   30.37338  0.3075E-13  0.1403E-04  0.4960E-07  0.1182E-02  0.4990E-03  0.1276E+01
   -0.499988   30.37424  0.3075E-13  0.1432E-04  0.4804E-07  0.1274E-02  0.4649E-03  0.1263E+01
   -0.549989   30.37502  0.3075E-13  0.1458E-04  0.4673E-07  0.1358E-02  0.4342E-03  0.1258E+01
   -0.599990   30.37575  0.3075E-13  0.1480E-04  0.4563E-07  0.1435E-02  0.4064E-03  0.1256E+01
   -0.649991   30.37643  0.3075E-13  0.1499E-04  0.4471E-07  0.1504E-02  0.3810E-03  0.1262E+01
   -0.699992   30.37706  0.3075E-13  0.1515E-04  0.4394E-07  0.1564E-02  0.3580E-03  0.1272E+01
   -0.749993   30.37766  0.3075E-13  0.1528E-04  0.4331E-07  0.1615E-02  0.3368E-03  0.1293E+01
   -0.799995   30.37824  0.3075E-13  0.1539E-04  0.4280E-07  0.1658E-02  0.3175E-03  0.1325E+01
   -0.849996   30.37880  0.3075E-13  0.1548E-04  0.4239E-07  0.1691E-02  0.2995E-03  0.1380E+01
   -0.899998   30.37934  0.3075E-13  0.1554E-04  0.4209E-07  0.1717E-02  0.2828E-03  0.1456E+01
   -0.949999   30.37987  0.3075E-13  0.1558E-04  0.4189E-07  0.1735E-02  0.2671E-03  0.1560E+01
   -1.000001   30.38039  0.3075E-13  0.1560E-04  0.4178E-07  0.1745E-02  0.2523E-03  0.1686E+01
   -1.050003   30.38090  0.3075E-13  0.1560E-04  0.4177E-07  0.1746E-02  0.2383E-03  0.1918E+01
   -1.100005   30.38141  0.3075E-13  0.1558E-04  0.4187E-07  0.1833E-02  0.2249E-03  0.6350E+01
   -1.150006   30.38189  0.3075E-13  0.1554E-04  0.4210E-07  0.1661E-02  0.2130E-03  0.1451E+02
   -1.200008   30.38242  0.3075E-13  0.1547E-04  0.4246E-07  0.1687E-02  0.2005E-03  0.2789E+01
   -1.250009   30.38293  0.3075E-13  0.1538E-04  0.4298E-07  0.1656E-02  0.1887E-03  0.2978E+01
   -1.300011   30.38346  0.3075E-13  0.1526E-04  0.4371E-07  0.1607E-02  0.1773E-03  0.3496E+01
   -1.350012   30.38400  0.3075E-13  0.1511E-04  0.4469E-07  0.1548E-02  0.1662E-03  0.4194E+01
   -1.400013   30.38456  0.3075E-13  0.1493E-04  0.4601E-07  0.1470E-02  0.1554E-03  0.5202E+01
   -1.450014   30.38515  0.3075E-13  0.1470E-04  0.4780E-07  0.1394E-02  0.1448E-03  0.6646E+01
   -1.500014   30.38577  0.3075E-13  0.1442E-04  0.5027E-07  0.1281E-02  0.1345E-03  0.9085E+01
   -1.550015   30.38646  0.3075E-13  0.1408E-04  0.5375E-07  0.1200E-02  0.1240E-03  0.1296E+02
   -1.600015   30.38720  0.3075E-13  0.1366E-04  0.5910E-07  0.1051E-02  0.1138E-03  0.2552E+02
   -1.650015   30.38811  0.3075E-13  0.1311E-04  0.6730E-07  0.9783E-03  0.1028E-03  0.6468E+02
   -1.700014   30.38911  0.3075E-13  0.1235E-04  0.8212E-07  0.7902E-03  0.9225E-04  0.6077E+04
   -1.750013   30.39098  0.3075E-13  0.1134E-04  0.1065E-06  0.7196E-03  0.7779E-04  0.5505E+05
   -1.800012   30.39245  0.3075E-13  0.1000E-04  0.1566E-06  0.4957E-03  0.6694E-04  0.5961E+04
   -1.850010   30.39877  0.3075E-13  0.8458E-05  0.2535E-06  0.4574E-03  0.4763E-04  0.9396E+07
   -1.900008   30.39757  0.3075E-13  0.6698E-05  0.5301E-06  0.2091E-03  0.3861E-04 -0.2993E+06
   -1.950005   30.41684  0.3075E-13  0.4680E-05  0.1323E-05  0.1871E-03  0.2066E-04 -0.1937E+06
   -2.000002   30.41866  0.3075E-13  0.0000E+00  0.0000E+00  0.0000E+00  0.3820E-04  0.0000E+00
