 1 - depth, m
 2 - temperature, C
 3 - salinity, kg/kg
 4 - turbulent kinetic energy, m**2/s**2
 5 - dissipation rate, m**2/s**3
 6 - kinematic heat conductance, m**2/s
 7 - modulus of horizontal velocity, m/s
 8 - Richardson number, n/d
   -0.000000   30.51733  0.8152E-14  0.4675E-05  0.2893E-06  0.4988E-04  0.7268E-03  0.1168E+05
   -0.049997   30.54723  0.8152E-14  0.8191E-05  0.1282E-06  0.1769E-03  0.4149E-03  0.5350E+02
   -0.099994   30.55880  0.8152E-14  0.9943E-05  0.8833E-07  0.4108E-03  0.2998E-03  0.9736E+02
   -0.149992   30.56187  0.8152E-14  0.1103E-04  0.7455E-07  0.4845E-03  0.2656E-03  0.4774E+02
   -0.199991   30.56436  0.8152E-14  0.1187E-04  0.6640E-07  0.6480E-03  0.2373E-03  0.3108E+02
   -0.249989   30.56617  0.8152E-14  0.1254E-04  0.6103E-07  0.7730E-03  0.2161E-03  0.2317E+02
   -0.299988   30.56765  0.8152E-14  0.1309E-04  0.5719E-07  0.8975E-03  0.1985E-03  0.1848E+02
   -0.349988   30.56889  0.8152E-14  0.1354E-04  0.5431E-07  0.1010E-02  0.1833E-03  0.1590E+02
   -0.399988   30.56997  0.8152E-14  0.1393E-04  0.5206E-07  0.1113E-02  0.1699E-03  0.1414E+02
   -0.449988   30.57092  0.8152E-14  0.1426E-04  0.5023E-07  0.1209E-02  0.1581E-03  0.1335E+02
   -0.499988   30.57179  0.8152E-14  0.1454E-04  0.4872E-07  0.1297E-02  0.1477E-03  0.1294E+02
   -0.549989   30.57258  0.8152E-14  0.1479E-04  0.4745E-07  0.1377E-02  0.1384E-03  0.1284E+02
   -0.599990   30.57331  0.8152E-14  0.1500E-04  0.4638E-07  0.1450E-02  0.1299E-03  0.1278E+02
   -0.649991   30.57399  0.8152E-14  0.1518E-04  0.4548E-07  0.1515E-02  0.1222E-03  0.1301E+02
   -0.699992   30.57463  0.8152E-14  0.1534E-04  0.4472E-07  0.1573E-02  0.1151E-03  0.1322E+02
   -0.749993   30.57525  0.8152E-14  0.1547E-04  0.4408E-07  0.1623E-02  0.1085E-03  0.1374E+02
   -0.799995   30.57583  0.8152E-14  0.1557E-04  0.4355E-07  0.1666E-02  0.1024E-03  0.1421E+02
   -0.849996   30.57639  0.8152E-14  0.1566E-04  0.4313E-07  0.1701E-02  0.9671E-04  0.1503E+02
   -0.899998   30.57694  0.8152E-14  0.1572E-04  0.4280E-07  0.1728E-02  0.9137E-04  0.1582E+02
   -0.950000   30.57747  0.8152E-14  0.1576E-04  0.4257E-07  0.1746E-02  0.8632E-04  0.1702E+02
   -1.000001   30.57800  0.8152E-14  0.1578E-04  0.4244E-07  0.1757E-02  0.8156E-04  0.1823E+02
   -1.050003   30.57851  0.8152E-14  0.1577E-04  0.4241E-07  0.1758E-02  0.7702E-04  0.2076E+02
   -1.100005   30.57902  0.8152E-14  0.1575E-04  0.4248E-07  0.1845E-02  0.7271E-04  0.6845E+02
   -1.150006   30.57950  0.8152E-14  0.1571E-04  0.4269E-07  0.1674E-02  0.6886E-04  0.1538E+03
   -1.200008   30.58003  0.8152E-14  0.1564E-04  0.4302E-07  0.1701E-02  0.6486E-04  0.2978E+02
   -1.250009   30.58055  0.8152E-14  0.1554E-04  0.4352E-07  0.1670E-02  0.6105E-04  0.3151E+02
   -1.300011   30.58107  0.8152E-14  0.1542E-04  0.4421E-07  0.1621E-02  0.5736E-04  0.3695E+02
   -1.350012   30.58161  0.8152E-14  0.1527E-04  0.4517E-07  0.1562E-02  0.5380E-04  0.4385E+02
   -1.400013   30.58216  0.8152E-14  0.1508E-04  0.4645E-07  0.1486E-02  0.5032E-04  0.5415E+02
   -1.450014   30.58275  0.8152E-14  0.1485E-04  0.4819E-07  0.1408E-02  0.4691E-04  0.6834E+02
   -1.500014   30.58336  0.8152E-14  0.1457E-04  0.5060E-07  0.1297E-02  0.4357E-04  0.9240E+02
   -1.550015   30.58403  0.8152E-14  0.1422E-04  0.5400E-07  0.1213E-02  0.4021E-04  0.1297E+03
   -1.600015   30.58476  0.8152E-14  0.1380E-04  0.5919E-07  0.1067E-02  0.3692E-04  0.2347E+03
   -1.650015   30.58564  0.8152E-14  0.1325E-04  0.6717E-07  0.9898E-03  0.3338E-04  0.1019E+04
   -1.700014   30.58662  0.8152E-14  0.1251E-04  0.8152E-07  0.8076E-03  0.2997E-04 -0.1062E+05
   -1.750013   30.58835  0.8152E-14  0.1150E-04  0.1053E-06  0.7279E-03  0.2541E-04  0.1080E+06
   -1.800012   30.58985  0.8152E-14  0.1014E-04  0.1545E-06  0.5101E-03  0.2181E-04  0.1308E+07
   -1.850010   30.59558  0.8152E-14  0.8590E-05  0.2478E-06  0.4630E-03  0.1566E-04  0.1316E+09
   -1.900008   30.59484  0.8152E-14  0.6742E-05  0.5181E-06  0.2091E-03  0.1266E-04 -0.4378E+05
   -1.950006   30.61340  0.8152E-14  0.4714E-05  0.1305E-05  0.1873E-03  0.6742E-05 -0.3109E+07
   -2.000003   30.61520  0.8152E-14  0.0000E+00  0.0000E+00  0.0000E+00  0.1246E-04  0.0000E+00
