 1 - depth, m
 2 - temperature, C
 3 - salinity, kg/kg
 4 - turbulent kinetic energy, m**2/s**2
 5 - dissipation rate, m**2/s**3
 6 - kinematic heat conductance, m**2/s
 7 - modulus of horizontal velocity, m/s
 8 - Richardson number, n/d
   -0.000000   30.59879  0.2966E-13  0.4837E-05  0.2995E-06  0.4987E-04  0.1311E-02  0.6628E+04
   -0.049997   30.62993  0.2967E-13  0.8319E-05  0.1338E-06  0.1796E-03  0.7428E-03  0.2238E+03
   -0.099994   30.64159  0.2967E-13  0.1008E-04  0.9252E-07  0.3979E-03  0.5476E-03  0.2769E+02
   -0.149992   30.64489  0.2967E-13  0.1118E-04  0.7766E-07  0.4809E-03  0.4834E-03  0.1359E+02
   -0.199991   30.64749  0.2967E-13  0.1204E-04  0.6894E-07  0.6416E-03  0.4318E-03  0.8711E+01
   -0.249989   30.64938  0.2967E-13  0.1272E-04  0.6322E-07  0.7670E-03  0.3930E-03  0.6423E+01
   -0.299988   30.65092  0.2967E-13  0.1327E-04  0.5912E-07  0.8917E-03  0.3608E-03  0.5103E+01
   -0.349988   30.65220  0.2967E-13  0.1373E-04  0.5605E-07  0.1005E-02  0.3332E-03  0.4358E+01
   -0.399988   30.65332  0.2967E-13  0.1411E-04  0.5364E-07  0.1108E-02  0.3088E-03  0.3879E+01
   -0.449988   30.65430  0.2967E-13  0.1444E-04  0.5169E-07  0.1204E-02  0.2874E-03  0.3637E+01
   -0.499988   30.65519  0.2967E-13  0.1472E-04  0.5006E-07  0.1292E-02  0.2684E-03  0.3535E+01
   -0.549989   30.65601  0.2967E-13  0.1496E-04  0.4870E-07  0.1373E-02  0.2513E-03  0.3483E+01
   -0.599990   30.65676  0.2967E-13  0.1517E-04  0.4754E-07  0.1446E-02  0.2360E-03  0.3479E+01
   -0.649991   30.65746  0.2967E-13  0.1535E-04  0.4656E-07  0.1512E-02  0.2219E-03  0.3517E+01
   -0.699992   30.65812  0.2967E-13  0.1550E-04  0.4572E-07  0.1570E-02  0.2090E-03  0.3591E+01
   -0.749993   30.65874  0.2967E-13  0.1562E-04  0.4501E-07  0.1620E-02  0.1971E-03  0.3702E+01
   -0.799995   30.65934  0.2967E-13  0.1572E-04  0.4441E-07  0.1663E-02  0.1860E-03  0.3849E+01
   -0.849996   30.65991  0.2967E-13  0.1579E-04  0.4392E-07  0.1699E-02  0.1757E-03  0.4040E+01
   -0.899998   30.66047  0.2967E-13  0.1585E-04  0.4354E-07  0.1726E-02  0.1659E-03  0.4272E+01
   -0.950000   30.66100  0.2967E-13  0.1588E-04  0.4325E-07  0.1745E-02  0.1568E-03  0.4565E+01
   -1.000001   30.66153  0.2967E-13  0.1589E-04  0.4305E-07  0.1756E-02  0.1481E-03  0.4913E+01
   -1.050003   30.66205  0.2967E-13  0.1588E-04  0.4296E-07  0.1757E-02  0.1399E-03  0.5555E+01
   -1.100005   30.66256  0.2967E-13  0.1584E-04  0.4298E-07  0.1844E-02  0.1321E-03  0.1839E+02
   -1.150006   30.66304  0.2967E-13  0.1579E-04  0.4313E-07  0.1675E-02  0.1251E-03  0.4147E+02
   -1.200008   30.66357  0.2967E-13  0.1571E-04  0.4341E-07  0.1701E-02  0.1178E-03  0.7962E+01
   -1.250009   30.66409  0.2967E-13  0.1560E-04  0.4385E-07  0.1671E-02  0.1109E-03  0.8451E+01
   -1.300011   30.66461  0.2967E-13  0.1547E-04  0.4449E-07  0.1622E-02  0.1042E-03  0.9861E+01
   -1.350012   30.66514  0.2967E-13  0.1531E-04  0.4539E-07  0.1564E-02  0.9777E-04  0.1176E+02
   -1.400013   30.66569  0.2967E-13  0.1511E-04  0.4662E-07  0.1487E-02  0.9147E-04  0.1448E+02
   -1.450014   30.66626  0.2967E-13  0.1487E-04  0.4831E-07  0.1412E-02  0.8528E-04  0.1837E+02
   -1.500014   30.66687  0.2967E-13  0.1457E-04  0.5067E-07  0.1299E-02  0.7922E-04  0.2489E+02
   -1.550015   30.66753  0.2967E-13  0.1422E-04  0.5403E-07  0.1218E-02  0.7311E-04  0.3520E+02
   -1.600015   30.66824  0.2967E-13  0.1378E-04  0.5918E-07  0.1070E-02  0.6715E-04  0.6585E+02
   -1.650015   30.66911  0.2967E-13  0.1323E-04  0.6714E-07  0.9980E-03  0.6074E-04  0.9533E+03
   -1.700014   30.67006  0.2967E-13  0.1247E-04  0.8166E-07  0.8074E-03  0.5457E-04 -0.5335E+04
   -1.750013   30.67182  0.2967E-13  0.1145E-04  0.1055E-06  0.7371E-03  0.4613E-04  0.3307E+05
   -1.800012   30.67319  0.2967E-13  0.1009E-04  0.1568E-06  0.5035E-03  0.3977E-04 -0.7598E+04
   -1.850010   30.67908  0.2967E-13  0.8562E-05  0.2522E-06  0.4703E-03  0.2841E-04  0.7644E+07
   -1.900008   30.67795  0.2967E-13  0.6794E-05  0.5291E-06  0.2127E-03  0.2318E-04  0.6383E+04
   -1.950006   30.69585  0.2967E-13  0.4737E-05  0.1314E-05  0.1886E-03  0.1254E-04 -0.9902E+06
   -2.000003   30.69742  0.2967E-13  0.0000E+00  0.0000E+00  0.0000E+00  0.2283E-04  0.0000E+00
