 1 - depth, m
 2 - temperature, C
 3 - salinity, kg/kg
 4 - turbulent kinetic energy, m**2/s**2
 5 - dissipation rate, m**2/s**3
 6 - kinematic heat conductance, m**2/s
 7 - modulus of horizontal velocity, m/s
 8 - Richardson number, n/d
   -0.000000   30.50208  0.1838E-13  0.4969E-05  0.3133E-06  0.5159E-04  0.1914E-02  0.4921E+04
   -0.049997   30.53277  0.1838E-13  0.8400E-05  0.1396E-06  0.1748E-03  0.1104E-02  0.3201E+03
   -0.099994   30.54504  0.1838E-13  0.1019E-04  0.9539E-07  0.3987E-03  0.8050E-03  0.1337E+02
   -0.149992   30.54838  0.1838E-13  0.1131E-04  0.7986E-07  0.4774E-03  0.7111E-03  0.6525E+01
   -0.199991   30.55106  0.1838E-13  0.1217E-04  0.7075E-07  0.6396E-03  0.6346E-03  0.4168E+01
   -0.249989   30.55299  0.1838E-13  0.1286E-04  0.6479E-07  0.7649E-03  0.5775E-03  0.3069E+01
   -0.299988   30.55457  0.1838E-13  0.1342E-04  0.6053E-07  0.8902E-03  0.5301E-03  0.2433E+01
   -0.349988   30.55588  0.1838E-13  0.1388E-04  0.5734E-07  0.1004E-02  0.4894E-03  0.2078E+01
   -0.399988   30.55702  0.1838E-13  0.1426E-04  0.5484E-07  0.1107E-02  0.4535E-03  0.1847E+01
   -0.449988   30.55803  0.1838E-13  0.1460E-04  0.5281E-07  0.1204E-02  0.4219E-03  0.1733E+01
   -0.499988   30.55893  0.1838E-13  0.1488E-04  0.5112E-07  0.1292E-02  0.3940E-03  0.1682E+01
   -0.549989   30.55976  0.1838E-13  0.1513E-04  0.4970E-07  0.1373E-02  0.3690E-03  0.1659E+01
   -0.599990   30.56053  0.1838E-13  0.1533E-04  0.4850E-07  0.1447E-02  0.3464E-03  0.1655E+01
   -0.649991   30.56124  0.1838E-13  0.1551E-04  0.4748E-07  0.1513E-02  0.3258E-03  0.1675E+01
   -0.699992   30.56191  0.1838E-13  0.1566E-04  0.4660E-07  0.1571E-02  0.3068E-03  0.1707E+01
   -0.749993   30.56255  0.1838E-13  0.1578E-04  0.4586E-07  0.1622E-02  0.2893E-03  0.1763E+01
   -0.799995   30.56316  0.1838E-13  0.1588E-04  0.4524E-07  0.1665E-02  0.2731E-03  0.1830E+01
   -0.849996   30.56374  0.1838E-13  0.1595E-04  0.4472E-07  0.1701E-02  0.2579E-03  0.1922E+01
   -0.899998   30.56430  0.1838E-13  0.1600E-04  0.4431E-07  0.1728E-02  0.2436E-03  0.2030E+01
   -0.949999   30.56485  0.1838E-13  0.1603E-04  0.4400E-07  0.1747E-02  0.2302E-03  0.2170E+01
   -1.000001   30.56539  0.1838E-13  0.1604E-04  0.4379E-07  0.1759E-02  0.2175E-03  0.2332E+01
   -1.050003   30.56591  0.1838E-13  0.1602E-04  0.4368E-07  0.1760E-02  0.2054E-03  0.2638E+01
   -1.100005   30.56643  0.1838E-13  0.1598E-04  0.4369E-07  0.1848E-02  0.1939E-03  0.8711E+01
   -1.150006   30.56692  0.1838E-13  0.1592E-04  0.4383E-07  0.1675E-02  0.1837E-03  0.1972E+02
   -1.200008   30.56746  0.1838E-13  0.1584E-04  0.4409E-07  0.1703E-02  0.1730E-03  0.3780E+01
   -1.250009   30.56798  0.1838E-13  0.1573E-04  0.4453E-07  0.1673E-02  0.1629E-03  0.4004E+01
   -1.300011   30.56851  0.1838E-13  0.1559E-04  0.4517E-07  0.1624E-02  0.1531E-03  0.4674E+01
   -1.350012   30.56905  0.1838E-13  0.1542E-04  0.4607E-07  0.1565E-02  0.1436E-03  0.5568E+01
   -1.400013   30.56961  0.1838E-13  0.1522E-04  0.4731E-07  0.1488E-02  0.1343E-03  0.6858E+01
   -1.450014   30.57019  0.1838E-13  0.1497E-04  0.4902E-07  0.1411E-02  0.1253E-03  0.8699E+01
   -1.500014   30.57080  0.1838E-13  0.1467E-04  0.5141E-07  0.1299E-02  0.1164E-03  0.1177E+02
   -1.550015   30.57147  0.1838E-13  0.1431E-04  0.5483E-07  0.1214E-02  0.1074E-03  0.1668E+02
   -1.600015   30.57219  0.1838E-13  0.1386E-04  0.6009E-07  0.1070E-02  0.9865E-04  0.3194E+02
   -1.650014   30.57306  0.1838E-13  0.1329E-04  0.6825E-07  0.9907E-03  0.8925E-04  0.1354E+03
   -1.700014   30.57403  0.1838E-13  0.1252E-04  0.8292E-07  0.8107E-03  0.8011E-04  0.5014E+04
   -1.750013   30.57575  0.1838E-13  0.1148E-04  0.1072E-06  0.7294E-03  0.6791E-04  0.1249E+06
   -1.800012   30.57721  0.1838E-13  0.1008E-04  0.1592E-06  0.5114E-03  0.5827E-04  0.2108E+06
   -1.850010   30.58299  0.1838E-13  0.8536E-05  0.2558E-06  0.4658E-03  0.4169E-04  0.6479E+07
   -1.900008   30.58205  0.1838E-13  0.6719E-05  0.5382E-06  0.2105E-03  0.3377E-04  0.8312E+06
   -1.950005   30.60012  0.1838E-13  0.4703E-05  0.1338E-05  0.1892E-03  0.1810E-04 -0.1831E+06
   -2.000002   30.60173  0.1838E-13  0.0000E+00  0.0000E+00  0.0000E+00  0.3343E-04  0.0000E+00
