 1 - depth, m
 2 - temperature, C
 3 - salinity, kg/kg
 4 - turbulent kinetic energy, m**2/s**2
 5 - dissipation rate, m**2/s**3
 6 - kinematic heat conductance, m**2/s
 7 - modulus of horizontal velocity, m/s
 8 - Richardson number, n/d
   -0.000000   31.59102  0.1764E-14  0.5654E-05  0.3899E-06  0.5471E-04  0.9410E-03  0.6974E+04
   -0.049997   31.62741  0.1764E-14  0.9742E-05  0.1730E-06  0.1919E-03  0.5405E-03  0.1414E+04
   -0.099994   31.64142  0.1764E-14  0.1183E-04  0.1187E-06  0.4328E-03  0.3968E-03  0.5968E+02
   -0.149992   31.64520  0.1764E-14  0.1314E-04  0.9959E-07  0.5115E-03  0.3520E-03  0.2963E+02
   -0.199990   31.64826  0.1764E-14  0.1415E-04  0.8836E-07  0.6898E-03  0.3152E-03  0.1898E+02
   -0.249989   31.65046  0.1764E-14  0.1496E-04  0.8104E-07  0.8221E-03  0.2878E-03  0.1412E+02
   -0.299988   31.65225  0.1764E-14  0.1561E-04  0.7583E-07  0.9575E-03  0.2650E-03  0.1122E+02
   -0.349987   31.65376  0.1764E-14  0.1615E-04  0.7193E-07  0.1079E-02  0.2455E-03  0.9621E+01
   -0.399987   31.65505  0.1764E-14  0.1660E-04  0.6889E-07  0.1189E-02  0.2282E-03  0.8547E+01
   -0.449987   31.65621  0.1764E-14  0.1699E-04  0.6643E-07  0.1291E-02  0.2130E-03  0.8039E+01
   -0.499987   31.65725  0.1764E-14  0.1732E-04  0.6439E-07  0.1385E-02  0.1995E-03  0.7782E+01
   -0.549988   31.65820  0.1764E-14  0.1761E-04  0.6269E-07  0.1470E-02  0.1874E-03  0.7694E+01
   -0.599989   31.65908  0.1764E-14  0.1785E-04  0.6126E-07  0.1547E-02  0.1765E-03  0.7659E+01
   -0.649990   31.65990  0.1764E-14  0.1806E-04  0.6005E-07  0.1615E-02  0.1664E-03  0.7775E+01
   -0.699991   31.66068  0.1764E-14  0.1823E-04  0.5903E-07  0.1675E-02  0.1572E-03  0.7912E+01
   -0.749992   31.66142  0.1764E-14  0.1837E-04  0.5818E-07  0.1727E-02  0.1486E-03  0.8199E+01
   -0.799994   31.66212  0.1764E-14  0.1848E-04  0.5749E-07  0.1769E-02  0.1406E-03  0.8507E+01
   -0.849995   31.66281  0.1764E-14  0.1856E-04  0.5693E-07  0.1803E-02  0.1332E-03  0.8982E+01
   -0.899997   31.66347  0.1764E-14  0.1861E-04  0.5652E-07  0.1828E-02  0.1261E-03  0.9494E+01
   -0.949998   31.66411  0.1764E-14  0.1864E-04  0.5623E-07  0.1843E-02  0.1195E-03  0.1022E+02
   -1.000000   31.66474  0.1764E-14  0.1864E-04  0.5609E-07  0.1850E-02  0.1132E-03  0.1101E+02
   -1.050002   31.66537  0.1764E-14  0.1861E-04  0.5609E-07  0.1844E-02  0.1072E-03  0.1254E+02
   -1.100003   31.66599  0.1764E-14  0.1856E-04  0.5625E-07  0.1967E-02  0.1014E-03  0.3997E+02
   -1.150005   31.66657  0.1764E-14  0.1847E-04  0.5662E-07  0.1703E-02  0.9636E-04  0.1021E+03
   -1.200006   31.66724  0.1764E-14  0.1836E-04  0.5717E-07  0.1756E-02  0.9086E-04  0.1875E+02
   -1.250008   31.66788  0.1764E-14  0.1821E-04  0.5799E-07  0.1722E-02  0.8570E-04  0.1991E+02
   -1.300009   31.66853  0.1764E-14  0.1802E-04  0.5913E-07  0.1661E-02  0.8070E-04  0.2379E+02
   -1.350010   31.66920  0.1764E-14  0.1779E-04  0.6071E-07  0.1591E-02  0.7584E-04  0.2891E+02
   -1.400011   31.66990  0.1764E-14  0.1751E-04  0.6288E-07  0.1500E-02  0.7106E-04  0.3703E+02
   -1.450012   31.67065  0.1764E-14  0.1717E-04  0.6591E-07  0.1413E-02  0.6634E-04  0.4896E+02
   -1.500012   31.67145  0.1764E-14  0.1675E-04  0.7023E-07  0.1294E-02  0.6164E-04  0.7129E+02
   -1.550013   31.67235  0.1764E-14  0.1624E-04  0.7666E-07  0.1207E-02  0.5690E-04  0.1211E+03
   -1.600013   31.67336  0.1764E-14  0.1558E-04  0.8701E-07  0.1061E-02  0.5208E-04 -0.3220E+03
   -1.650012   31.67472  0.1764E-14  0.1471E-04  0.1033E-06  0.9742E-03  0.4672E-04  0.2607E+05
   -1.700012   31.67636  0.1764E-14  0.1353E-04  0.1331E-06  0.7870E-03  0.4114E-04  0.7667E+05
   -1.750011   31.67921  0.1764E-14  0.1220E-04  0.1783E-06  0.7066E-03  0.3392E-04  0.2664E+06
   -1.800009   31.68082  0.1764E-14  0.1054E-04  0.2786E-06  0.4801E-03  0.2924E-04  0.3063E+05
   -1.850008   31.69219  0.1764E-14  0.8935E-05  0.4700E-06  0.4701E-03  0.1960E-04  0.1108E+10
   -1.900005   31.68674  0.1764E-14  0.7185E-05  0.9884E-06  0.2225E-03  0.1650E-04  0.1469E+07
   -1.950003   31.71463  0.1764E-14  0.5194E-05  0.2298E-05  0.2367E-03  0.8662E-05 -0.1969E+07
   -2.000000   31.71466  0.1764E-14  0.0000E+00  0.0000E+00  0.0000E+00  0.1810E-04  0.0000E+00
