 1 - depth, m
 2 - temperature, C
 3 - salinity, kg/kg
 4 - turbulent kinetic energy, m**2/s**2
 5 - dissipation rate, m**2/s**3
 6 - kinematic heat conductance, m**2/s
 7 - modulus of horizontal velocity, m/s
 8 - Richardson number, n/d
   -0.000000   29.49454  0.8508E-14  0.4534E-05  0.2712E-06  0.4884E-04  0.1642E-02  0.4422E+04
   -0.049997   29.52281  0.8508E-14  0.7774E-05  0.1206E-06  0.1734E-03  0.9343E-03  0.1938E+03
   -0.099994   29.53371  0.8508E-14  0.9432E-05  0.8303E-07  0.3914E-03  0.6827E-03  0.1929E+02
   -0.149992   29.53672  0.8508E-14  0.1047E-04  0.6979E-07  0.4719E-03  0.6027E-03  0.9409E+01
   -0.199991   29.53912  0.8508E-14  0.1128E-04  0.6204E-07  0.6292E-03  0.5379E-03  0.6068E+01
   -0.249989   29.54087  0.8508E-14  0.1193E-04  0.5698E-07  0.7523E-03  0.4894E-03  0.4471E+01
   -0.299989   29.54230  0.8508E-14  0.1247E-04  0.5338E-07  0.8746E-03  0.4490E-03  0.3573E+01
   -0.349988   29.54351  0.8508E-14  0.1291E-04  0.5069E-07  0.9856E-03  0.4144E-03  0.3049E+01
   -0.399988   29.54455  0.8508E-14  0.1329E-04  0.4861E-07  0.1087E-02  0.3838E-03  0.2731E+01
   -0.449988   29.54549  0.8508E-14  0.1361E-04  0.4693E-07  0.1182E-02  0.3569E-03  0.2556E+01
   -0.499988   29.54633  0.8508E-14  0.1390E-04  0.4554E-07  0.1268E-02  0.3331E-03  0.2502E+01
   -0.549989   29.54710  0.8508E-14  0.1414E-04  0.4439E-07  0.1348E-02  0.3118E-03  0.2460E+01
   -0.599990   29.54781  0.8508E-14  0.1436E-04  0.4343E-07  0.1420E-02  0.2925E-03  0.2478E+01
   -0.649991   29.54848  0.8508E-14  0.1455E-04  0.4262E-07  0.1485E-02  0.2750E-03  0.2498E+01
   -0.699992   29.54911  0.8508E-14  0.1470E-04  0.4195E-07  0.1542E-02  0.2588E-03  0.2574E+01
   -0.749993   29.54971  0.8508E-14  0.1484E-04  0.4139E-07  0.1592E-02  0.2439E-03  0.2648E+01
   -0.799995   29.55029  0.8508E-14  0.1495E-04  0.4094E-07  0.1635E-02  0.2301E-03  0.2780E+01
   -0.849996   29.55085  0.8508E-14  0.1505E-04  0.4059E-07  0.1670E-02  0.2172E-03  0.2911E+01
   -0.899998   29.55138  0.8508E-14  0.1512E-04  0.4033E-07  0.1697E-02  0.2051E-03  0.3111E+01
   -0.950000   29.55191  0.8508E-14  0.1517E-04  0.4016E-07  0.1715E-02  0.1937E-03  0.3315E+01
   -1.000002   29.55243  0.8508E-14  0.1520E-04  0.4008E-07  0.1727E-02  0.1828E-03  0.3607E+01
   -1.050003   29.55294  0.8508E-14  0.1521E-04  0.4010E-07  0.1728E-02  0.1726E-03  0.4074E+01
   -1.100005   29.55345  0.8508E-14  0.1520E-04  0.4022E-07  0.1809E-02  0.1629E-03  0.1370E+02
   -1.150007   29.55393  0.8508E-14  0.1516E-04  0.4047E-07  0.1653E-02  0.1541E-03  0.3043E+02
   -1.200008   29.55446  0.8508E-14  0.1511E-04  0.4083E-07  0.1674E-02  0.1451E-03  0.5886E+01
   -1.250010   29.55498  0.8508E-14  0.1503E-04  0.4135E-07  0.1644E-02  0.1365E-03  0.6329E+01
   -1.300011   29.55550  0.8508E-14  0.1493E-04  0.4206E-07  0.1597E-02  0.1282E-03  0.7367E+01
   -1.350012   29.55604  0.8508E-14  0.1479E-04  0.4301E-07  0.1539E-02  0.1202E-03  0.8857E+01
   -1.400013   29.55661  0.8508E-14  0.1462E-04  0.4427E-07  0.1465E-02  0.1124E-03  0.1087E+02
   -1.450014   29.55719  0.8508E-14  0.1442E-04  0.4596E-07  0.1389E-02  0.1047E-03  0.1386E+02
   -1.500015   29.55782  0.8508E-14  0.1416E-04  0.4827E-07  0.1280E-02  0.9716E-04  0.1861E+02
   -1.550015   29.55850  0.8508E-14  0.1384E-04  0.5151E-07  0.1196E-02  0.8960E-04  0.2629E+02
   -1.600015   29.55924  0.8508E-14  0.1345E-04  0.5633E-07  0.1052E-02  0.8221E-04  0.4577E+02
   -1.650015   29.56012  0.8508E-14  0.1294E-04  0.6370E-07  0.9793E-03  0.7438E-04  0.9001E+02
   -1.700015   29.56111  0.8508E-14  0.1224E-04  0.7710E-07  0.7956E-03  0.6682E-04  0.3882E+05
   -1.750014   29.56284  0.8508E-14  0.1129E-04  0.9923E-07  0.7222E-03  0.5669E-04  0.5784E+05
   -1.800012   29.56438  0.8508E-14  0.9956E-05  0.1466E-06  0.5002E-03  0.4862E-04  0.7207E+04
   -1.850011   29.57031  0.8508E-14  0.8429E-05  0.2336E-06  0.4610E-03  0.3467E-04  0.2177E+08
   -1.900009   29.56950  0.8508E-14  0.6669E-05  0.4846E-06  0.2062E-03  0.2807E-04 -0.4884E+05
   -1.950006   29.58864  0.8508E-14  0.4654E-05  0.1240E-05  0.1807E-03  0.1499E-04 -0.8582E+06
   -2.000003   29.59076  0.8508E-14  0.0000E+00  0.0000E+00  0.0000E+00  0.2734E-04  0.0000E+00
