 1 - depth, m
 2 - temperature, C
 3 - salinity, kg/kg
 4 - turbulent kinetic energy, m**2/s**2
 5 - dissipation rate, m**2/s**3
 6 - kinematic heat conductance, m**2/s
 7 - modulus of horizontal velocity, m/s
 8 - Richardson number, n/d
   -0.000000   30.63507  0.1127E-13  0.4873E-05  0.3031E-06  0.5002E-04  0.1309E-02  0.5511E+04
   -0.049997   30.66644  0.1128E-13  0.8380E-05  0.1354E-06  0.1804E-03  0.7411E-03  0.2702E+03
   -0.099994   30.67816  0.1128E-13  0.1015E-04  0.9365E-07  0.3989E-03  0.5470E-03  0.2779E+02
   -0.149992   30.68148  0.1128E-13  0.1127E-04  0.7860E-07  0.4825E-03  0.4829E-03  0.1366E+02
   -0.199991   30.68410  0.1128E-13  0.1213E-04  0.6977E-07  0.6439E-03  0.4314E-03  0.8751E+01
   -0.249989   30.68601  0.1128E-13  0.1282E-04  0.6398E-07  0.7697E-03  0.3928E-03  0.6454E+01
   -0.299988   30.68755  0.1128E-13  0.1338E-04  0.5984E-07  0.8950E-03  0.3606E-03  0.5129E+01
   -0.349988   30.68885  0.1128E-13  0.1384E-04  0.5673E-07  0.1008E-02  0.3331E-03  0.4381E+01
   -0.399988   30.68997  0.1128E-13  0.1422E-04  0.5431E-07  0.1112E-02  0.3088E-03  0.3899E+01
   -0.449988   30.69096  0.1128E-13  0.1456E-04  0.5233E-07  0.1209E-02  0.2873E-03  0.3657E+01
   -0.499988   30.69186  0.1128E-13  0.1484E-04  0.5069E-07  0.1297E-02  0.2684E-03  0.3553E+01
   -0.549989   30.69268  0.1128E-13  0.1509E-04  0.4931E-07  0.1378E-02  0.2514E-03  0.3502E+01
   -0.599990   30.69343  0.1128E-13  0.1530E-04  0.4815E-07  0.1451E-02  0.2361E-03  0.3499E+01
   -0.649991   30.69414  0.1128E-13  0.1548E-04  0.4716E-07  0.1517E-02  0.2221E-03  0.3537E+01
   -0.699992   30.69480  0.1128E-13  0.1563E-04  0.4631E-07  0.1575E-02  0.2092E-03  0.3611E+01
   -0.749993   30.69544  0.1128E-13  0.1575E-04  0.4560E-07  0.1626E-02  0.1973E-03  0.3723E+01
   -0.799995   30.69604  0.1128E-13  0.1585E-04  0.4501E-07  0.1669E-02  0.1862E-03  0.3872E+01
   -0.849996   30.69662  0.1128E-13  0.1593E-04  0.4452E-07  0.1704E-02  0.1759E-03  0.4064E+01
   -0.899998   30.69718  0.1128E-13  0.1598E-04  0.4413E-07  0.1732E-02  0.1662E-03  0.4300E+01
   -0.950000   30.69772  0.1128E-13  0.1601E-04  0.4384E-07  0.1750E-02  0.1570E-03  0.4593E+01
   -1.000001   30.69825  0.1128E-13  0.1602E-04  0.4365E-07  0.1761E-02  0.1484E-03  0.4948E+01
   -1.050003   30.69878  0.1128E-13  0.1601E-04  0.4357E-07  0.1762E-02  0.1402E-03  0.5591E+01
   -1.100005   30.69930  0.1128E-13  0.1598E-04  0.4360E-07  0.1851E-02  0.1323E-03  0.1850E+02
   -1.150006   30.69978  0.1128E-13  0.1592E-04  0.4376E-07  0.1677E-02  0.1254E-03  0.4199E+02
   -1.200008   30.70032  0.1128E-13  0.1584E-04  0.4405E-07  0.1705E-02  0.1181E-03  0.8038E+01
   -1.250009   30.70084  0.1128E-13  0.1573E-04  0.4451E-07  0.1674E-02  0.1112E-03  0.8540E+01
   -1.300011   30.70137  0.1128E-13  0.1560E-04  0.4518E-07  0.1625E-02  0.1045E-03  0.9973E+01
   -1.350012   30.70191  0.1128E-13  0.1543E-04  0.4611E-07  0.1566E-02  0.9802E-04  0.1191E+02
   -1.400013   30.70247  0.1128E-13  0.1523E-04  0.4738E-07  0.1489E-02  0.9172E-04  0.1470E+02
   -1.450014   30.70305  0.1128E-13  0.1499E-04  0.4913E-07  0.1412E-02  0.8552E-04  0.1871E+02
   -1.500014   30.70367  0.1128E-13  0.1469E-04  0.5158E-07  0.1300E-02  0.7944E-04  0.2545E+02
   -1.550015   30.70434  0.1128E-13  0.1433E-04  0.5507E-07  0.1216E-02  0.7332E-04  0.3634E+02
   -1.600015   30.70506  0.1128E-13  0.1388E-04  0.6046E-07  0.1072E-02  0.6733E-04  0.6961E+02
   -1.650015   30.70595  0.1128E-13  0.1331E-04  0.6885E-07  0.9936E-03  0.6090E-04  0.1905E+04
   -1.700014   30.70695  0.1128E-13  0.1253E-04  0.8393E-07  0.8072E-03  0.5459E-04 -0.8504E+03
   -1.750013   30.70874  0.1128E-13  0.1149E-04  0.1086E-06  0.7329E-03  0.4618E-04  0.1232E+06
   -1.800012   30.71019  0.1128E-13  0.1012E-04  0.1621E-06  0.5089E-03  0.3969E-04  0.5152E+06
   -1.850010   30.71621  0.1128E-13  0.8597E-05  0.2612E-06  0.4713E-03  0.2842E-04  0.6278E+08
   -1.900008   30.71495  0.1128E-13  0.6838E-05  0.5488E-06  0.2188E-03  0.2319E-04 -0.8977E+06
   -1.950006   30.73307  0.1128E-13  0.4762E-05  0.1372E-05  0.1882E-03  0.1256E-04 -0.3353E+07
   -2.000003   30.73555  0.1128E-13  0.0000E+00  0.0000E+00  0.0000E+00  0.2299E-04  0.0000E+00
