 1 - depth, m
 2 - temperature, C
 3 - salinity, kg/kg
 4 - turbulent kinetic energy, m**2/s**2
 5 - dissipation rate, m**2/s**3
 6 - kinematic heat conductance, m**2/s
 7 - modulus of horizontal velocity, m/s
 8 - Richardson number, n/d
   -0.000000   30.45295  0.1192E-14  0.4835E-05  0.2998E-06  0.4874E-04  0.1017E-02  0.3686E+04
   -0.049997   30.48496  0.1192E-14  0.8399E-05  0.1332E-06  0.1859E-03  0.5669E-03  0.7265E+02
   -0.099994   30.49628  0.1192E-14  0.1016E-04  0.9249E-07  0.4036E-03  0.4204E-03  0.4953E+02
   -0.149992   30.49953  0.1192E-14  0.1127E-04  0.7783E-07  0.4889E-03  0.3716E-03  0.2437E+02
   -0.199991   30.50210  0.1192E-14  0.1214E-04  0.6921E-07  0.6504E-03  0.3323E-03  0.1572E+02
   -0.249989   30.50398  0.1192E-14  0.1282E-04  0.6356E-07  0.7758E-03  0.3028E-03  0.1162E+02
   -0.299988   30.50551  0.1192E-14  0.1338E-04  0.5952E-07  0.9015E-03  0.2782E-03  0.9274E+01
   -0.349988   30.50680  0.1192E-14  0.1385E-04  0.5649E-07  0.1015E-02  0.2571E-03  0.7913E+01
   -0.399988   30.50792  0.1192E-14  0.1424E-04  0.5413E-07  0.1118E-02  0.2384E-03  0.7073E+01
   -0.449988   30.50891  0.1192E-14  0.1457E-04  0.5221E-07  0.1215E-02  0.2220E-03  0.6617E+01
   -0.499988   30.50980  0.1192E-14  0.1486E-04  0.5062E-07  0.1303E-02  0.2074E-03  0.6460E+01
   -0.549989   30.51062  0.1192E-14  0.1511E-04  0.4929E-07  0.1384E-02  0.1944E-03  0.6346E+01
   -0.599990   30.51138  0.1192E-14  0.1533E-04  0.4817E-07  0.1457E-02  0.1826E-03  0.6372E+01
   -0.649991   30.51208  0.1192E-14  0.1551E-04  0.4722E-07  0.1522E-02  0.1718E-03  0.6421E+01
   -0.699992   30.51275  0.1192E-14  0.1567E-04  0.4641E-07  0.1580E-02  0.1619E-03  0.6591E+01
   -0.749993   30.51339  0.1192E-14  0.1579E-04  0.4574E-07  0.1630E-02  0.1528E-03  0.6773E+01
   -0.799995   30.51399  0.1192E-14  0.1590E-04  0.4519E-07  0.1672E-02  0.1442E-03  0.7085E+01
   -0.849996   30.51458  0.1192E-14  0.1598E-04  0.4474E-07  0.1706E-02  0.1363E-03  0.7411E+01
   -0.899998   30.51514  0.1192E-14  0.1603E-04  0.4439E-07  0.1733E-02  0.1288E-03  0.7891E+01
   -0.949999   30.51569  0.1192E-14  0.1607E-04  0.4415E-07  0.1750E-02  0.1217E-03  0.8402E+01
   -1.000001   30.51623  0.1192E-14  0.1608E-04  0.4400E-07  0.1760E-02  0.1150E-03  0.9112E+01
   -1.050003   30.51677  0.1192E-14  0.1607E-04  0.4397E-07  0.1760E-02  0.1087E-03  0.1027E+02
   -1.100005   30.51729  0.1192E-14  0.1604E-04  0.4405E-07  0.1852E-02  0.1027E-03  0.3391E+02
   -1.150006   30.51779  0.1192E-14  0.1599E-04  0.4427E-07  0.1666E-02  0.9728E-04  0.7891E+02
   -1.200008   30.51834  0.1192E-14  0.1591E-04  0.4462E-07  0.1697E-02  0.9164E-04  0.1491E+02
   -1.250009   30.51888  0.1192E-14  0.1580E-04  0.4515E-07  0.1665E-02  0.8627E-04  0.1595E+02
   -1.300011   30.51942  0.1192E-14  0.1567E-04  0.4589E-07  0.1614E-02  0.8110E-04  0.1861E+02
   -1.350012   30.51998  0.1192E-14  0.1550E-04  0.4692E-07  0.1553E-02  0.7608E-04  0.2245E+02
   -1.400013   30.52055  0.1192E-14  0.1529E-04  0.4831E-07  0.1474E-02  0.7119E-04  0.2776E+02
   -1.450014   30.52116  0.1192E-14  0.1504E-04  0.5021E-07  0.1394E-02  0.6637E-04  0.3578E+02
   -1.500014   30.52180  0.1192E-14  0.1474E-04  0.5288E-07  0.1282E-02  0.6164E-04  0.4893E+02
   -1.550015   30.52251  0.1192E-14  0.1437E-04  0.5668E-07  0.1196E-02  0.5687E-04  0.7128E+02
   -1.600015   30.52328  0.1192E-14  0.1390E-04  0.6257E-07  0.1057E-02  0.5219E-04  0.5039E+03
   -1.650014   30.52422  0.1192E-14  0.1330E-04  0.7190E-07  0.9700E-03  0.4715E-04  0.2706E+05
   -1.700014   30.52533  0.1192E-14  0.1246E-04  0.8834E-07  0.7958E-03  0.4204E-04 -0.1124E+04
   -1.750013   30.52724  0.1192E-14  0.1139E-04  0.1150E-06  0.7111E-03  0.3548E-04  0.2144E+06
   -1.800012   30.52880  0.1192E-14  0.9961E-05  0.1731E-06  0.4929E-03  0.3036E-04  0.4664E+05
   -1.850010   30.53563  0.1192E-14  0.8421E-05  0.2817E-06  0.4543E-03  0.2143E-04  0.3942E+09
   -1.900008   30.53386  0.1192E-14  0.6678E-05  0.5912E-06  0.2124E-03  0.1747E-04 -0.1780E+08
   -1.950005   30.55398  0.1192E-14  0.4698E-05  0.1453E-05  0.1950E-03  0.9351E-05 -0.1254E+07
   -2.000002   30.55527  0.1192E-14  0.0000E+00  0.0000E+00  0.0000E+00  0.1780E-04  0.0000E+00
