 1 - depth, m
 2 - temperature, C
 3 - salinity, kg/kg
 4 - turbulent kinetic energy, m**2/s**2
 5 - dissipation rate, m**2/s**3
 6 - kinematic heat conductance, m**2/s
 7 - modulus of horizontal velocity, m/s
 8 - Richardson number, n/d
   -0.000000   30.42100  0.1394E-14  0.5072E-05  0.3263E-06  0.5130E-04  0.5854E-03  0.5969E+05
   -0.049997   30.45471  0.1394E-14  0.8894E-05  0.1447E-06  0.1864E-03  0.3328E-03  0.8178E+02
   -0.099994   30.46706  0.1394E-14  0.1077E-04  0.9992E-07  0.4245E-03  0.2432E-03  0.1369E+03
   -0.149992   30.47045  0.1394E-14  0.1194E-04  0.8430E-07  0.4994E-03  0.2158E-03  0.6758E+02
   -0.199990   30.47321  0.1394E-14  0.1284E-04  0.7506E-07  0.6693E-03  0.1932E-03  0.4401E+02
   -0.249989   30.47521  0.1394E-14  0.1357E-04  0.6898E-07  0.7976E-03  0.1762E-03  0.3278E+02
   -0.299988   30.47684  0.1394E-14  0.1415E-04  0.6463E-07  0.9260E-03  0.1621E-03  0.2622E+02
   -0.349988   30.47820  0.1394E-14  0.1464E-04  0.6136E-07  0.1042E-02  0.1500E-03  0.2248E+02
   -0.399987   30.47939  0.1394E-14  0.1505E-04  0.5881E-07  0.1148E-02  0.1392E-03  0.2007E+02
   -0.449987   30.48044  0.1394E-14  0.1540E-04  0.5673E-07  0.1246E-02  0.1298E-03  0.1885E+02
   -0.499988   30.48139  0.1394E-14  0.1570E-04  0.5502E-07  0.1335E-02  0.1214E-03  0.1834E+02
   -0.549988   30.48226  0.1394E-14  0.1596E-04  0.5358E-07  0.1417E-02  0.1139E-03  0.1810E+02
   -0.599989   30.48307  0.1394E-14  0.1618E-04  0.5237E-07  0.1491E-02  0.1071E-03  0.1812E+02
   -0.649990   30.48382  0.1394E-14  0.1637E-04  0.5135E-07  0.1557E-02  0.1008E-03  0.1835E+02
   -0.699991   30.48453  0.1394E-14  0.1653E-04  0.5048E-07  0.1615E-02  0.9511E-04  0.1878E+02
   -0.749992   30.48520  0.1394E-14  0.1666E-04  0.4976E-07  0.1665E-02  0.8980E-04  0.1941E+02
   -0.799994   30.48585  0.1394E-14  0.1677E-04  0.4917E-07  0.1707E-02  0.8486E-04  0.2025E+02
   -0.849995   30.48647  0.1394E-14  0.1685E-04  0.4870E-07  0.1741E-02  0.8024E-04  0.2132E+02
   -0.899997   30.48708  0.1394E-14  0.1690E-04  0.4834E-07  0.1766E-02  0.7590E-04  0.2265E+02
   -0.949999   30.48766  0.1394E-14  0.1694E-04  0.4809E-07  0.1783E-02  0.7180E-04  0.2430E+02
   -1.000000   30.48824  0.1394E-14  0.1694E-04  0.4796E-07  0.1791E-02  0.6792E-04  0.2632E+02
   -1.050002   30.48881  0.1394E-14  0.1693E-04  0.4795E-07  0.1788E-02  0.6423E-04  0.2987E+02
   -1.100004   30.48938  0.1394E-14  0.1689E-04  0.4806E-07  0.1893E-02  0.6070E-04  0.9736E+02
   -1.150005   30.48991  0.1394E-14  0.1682E-04  0.4834E-07  0.1675E-02  0.5758E-04  0.2356E+03
   -1.200007   30.49051  0.1394E-14  0.1673E-04  0.4877E-07  0.1714E-02  0.5425E-04  0.4413E+02
   -1.250008   30.49109  0.1394E-14  0.1661E-04  0.4941E-07  0.1682E-02  0.5110E-04  0.4724E+02
   -1.300010   30.49167  0.1394E-14  0.1646E-04  0.5030E-07  0.1626E-02  0.4807E-04  0.5582E+02
   -1.350011   30.49228  0.1394E-14  0.1627E-04  0.5152E-07  0.1562E-02  0.4512E-04  0.6771E+02
   -1.400012   30.49291  0.1394E-14  0.1604E-04  0.5319E-07  0.1476E-02  0.4224E-04  0.8522E+02
   -1.450013   30.49357  0.1394E-14  0.1575E-04  0.5548E-07  0.1396E-02  0.3939E-04  0.1111E+03
   -1.500013   30.49428  0.1394E-14  0.1541E-04  0.5871E-07  0.1276E-02  0.3659E-04  0.1568E+03
   -1.550013   30.49507  0.1394E-14  0.1499E-04  0.6337E-07  0.1196E-02  0.3374E-04  0.2386E+03
   -1.600013   30.49593  0.1394E-14  0.1445E-04  0.7083E-07  0.1046E-02  0.3096E-04  0.2776E+04
   -1.650013   30.49706  0.1394E-14  0.1375E-04  0.8255E-07  0.9669E-03  0.2783E-04  0.1519E+04
   -1.700013   30.49833  0.1394E-14  0.1279E-04  0.1030E-06  0.7823E-03  0.2476E-04 -0.1201E+05
   -1.750012   30.50071  0.1394E-14  0.1160E-04  0.1363E-06  0.7058E-03  0.2058E-04  0.7443E+06
   -1.800010   30.50227  0.1394E-14  0.1008E-04  0.2103E-06  0.4811E-03  0.1770E-04  0.6679E+05
   -1.850009   30.51110  0.1394E-14  0.8507E-05  0.3491E-06  0.4582E-03  0.1214E-04  0.1554E+09
   -1.900006   30.50783  0.1394E-14  0.6750E-05  0.7361E-06  0.2097E-03  0.1002E-04  0.3386E+07
   -1.950004   30.53172  0.1394E-14  0.4813E-05  0.1765E-05  0.2142E-03  0.5239E-05 -0.2312E+07
   -2.000001   30.53208  0.1394E-14  0.0000E+00  0.0000E+00  0.0000E+00  0.1052E-04  0.0000E+00
