 1 - depth, m
 2 - temperature, C
 3 - salinity, kg/kg
 4 - turbulent kinetic energy, m**2/s**2
 5 - dissipation rate, m**2/s**3
 6 - kinematic heat conductance, m**2/s
 7 - modulus of horizontal velocity, m/s
 8 - Richardson number, n/d
   -0.000000   31.08268  0.5150E-13  0.5244E-05  0.3399E-06  0.5098E-04  0.9824E-03  0.2005E+05
   -0.049997   31.11754  0.5150E-13  0.9083E-05  0.1512E-06  0.1915E-03  0.5542E-03  0.3204E+05
   -0.099994   31.12974  0.5150E-13  0.1098E-04  0.1048E-06  0.4165E-03  0.4112E-03  0.7515E+02
   -0.149992   31.13327  0.5150E-13  0.1218E-04  0.8806E-07  0.5009E-03  0.3641E-03  0.3714E+02
   -0.199990   31.13608  0.5150E-13  0.1311E-04  0.7824E-07  0.6691E-03  0.3259E-03  0.2413E+02
   -0.249989   31.13811  0.5150E-13  0.1385E-04  0.7180E-07  0.7980E-03  0.2974E-03  0.1779E+02
   -0.299988   31.13977  0.5150E-13  0.1445E-04  0.6720E-07  0.9276E-03  0.2736E-03  0.1425E+02
   -0.349988   31.14116  0.5150E-13  0.1494E-04  0.6376E-07  0.1044E-02  0.2532E-03  0.1207E+02
   -0.399987   31.14237  0.5150E-13  0.1536E-04  0.6107E-07  0.1151E-02  0.2351E-03  0.1083E+02
   -0.449987   31.14344  0.5150E-13  0.1572E-04  0.5889E-07  0.1249E-02  0.2192E-03  0.1005E+02
   -0.499988   31.14440  0.5150E-13  0.1602E-04  0.5709E-07  0.1340E-02  0.2051E-03  0.9855E+01
   -0.549988   31.14528  0.5150E-13  0.1629E-04  0.5558E-07  0.1422E-02  0.1925E-03  0.9588E+01
   -0.599989   31.14610  0.5150E-13  0.1651E-04  0.5431E-07  0.1496E-02  0.1810E-03  0.9691E+01
   -0.649990   31.14686  0.5150E-13  0.1670E-04  0.5323E-07  0.1562E-02  0.1706E-03  0.9665E+01
   -0.699991   31.14758  0.5150E-13  0.1686E-04  0.5233E-07  0.1621E-02  0.1609E-03  0.1000E+02
   -0.749992   31.14827  0.5150E-13  0.1699E-04  0.5158E-07  0.1671E-02  0.1520E-03  0.1017E+02
   -0.799994   31.14892  0.5150E-13  0.1710E-04  0.5096E-07  0.1712E-02  0.1437E-03  0.1074E+02
   -0.849995   31.14955  0.5150E-13  0.1718E-04  0.5046E-07  0.1746E-02  0.1359E-03  0.1113E+02
   -0.899997   31.15016  0.5150E-13  0.1723E-04  0.5009E-07  0.1771E-02  0.1286E-03  0.1196E+02
   -0.949998   31.15076  0.5150E-13  0.1726E-04  0.4984E-07  0.1786E-02  0.1217E-03  0.1264E+02
   -1.000000   31.15135  0.5150E-13  0.1727E-04  0.4971E-07  0.1794E-02  0.1152E-03  0.1386E+02
   -1.050002   31.15192  0.5150E-13  0.1725E-04  0.4970E-07  0.1790E-02  0.1090E-03  0.1549E+02
   -1.100003   31.15250  0.5150E-13  0.1720E-04  0.4983E-07  0.1900E-02  0.1030E-03  0.5046E+02
   -1.150005   31.15304  0.5150E-13  0.1713E-04  0.5014E-07  0.1667E-02  0.9774E-04  0.1272E+03
   -1.200007   31.15365  0.5150E-13  0.1703E-04  0.5061E-07  0.1711E-02  0.9212E-04  0.2308E+02
   -1.250008   31.15424  0.5150E-13  0.1690E-04  0.5130E-07  0.1677E-02  0.8679E-04  0.2492E+02
   -1.300009   31.15484  0.5150E-13  0.1674E-04  0.5227E-07  0.1619E-02  0.8168E-04  0.2926E+02
   -1.350010   31.15546  0.5150E-13  0.1654E-04  0.5360E-07  0.1553E-02  0.7667E-04  0.3607E+02
   -1.400011   31.15610  0.5150E-13  0.1629E-04  0.5542E-07  0.1464E-02  0.7180E-04  0.4553E+02
   -1.450012   31.15679  0.5150E-13  0.1599E-04  0.5793E-07  0.1384E-02  0.6696E-04  0.6057E+02
   -1.500013   31.15752  0.5150E-13  0.1562E-04  0.6150E-07  0.1261E-02  0.6221E-04  0.8713E+02
   -1.550013   31.15835  0.5150E-13  0.1517E-04  0.6666E-07  0.1183E-02  0.5737E-04  0.1358E+03
   -1.600013   31.15924  0.5150E-13  0.1460E-04  0.7504E-07  0.1032E-02  0.5263E-04  0.5110E+03
   -1.650013   31.16044  0.5150E-13  0.1384E-04  0.8818E-07  0.9500E-03  0.4729E-04  0.3807E+03
   -1.700012   31.16182  0.5150E-13  0.1280E-04  0.1115E-06  0.7647E-03  0.4195E-04 -0.4714E+05
   -1.750011   31.16445  0.5150E-13  0.1154E-04  0.1487E-06  0.6918E-03  0.3475E-04  0.2121E+06
   -1.800010   31.16594  0.5150E-13  0.9999E-05  0.2291E-06  0.4701E-03  0.2992E-04  0.1870E+07
   -1.850008   31.17591  0.5150E-13  0.8429E-05  0.3855E-06  0.4498E-03  0.2040E-04  0.7703E+08
   -1.900006   31.17150  0.5150E-13  0.6702E-05  0.8131E-06  0.2085E-03  0.1693E-04 -0.2928E+07
   -1.950003   31.19698  0.5150E-13  0.4818E-05  0.1920E-05  0.2232E-03  0.8837E-05 -0.1143E+07
   -2.000000   31.19639  0.5150E-13  0.0000E+00  0.0000E+00  0.0000E+00  0.1789E-04  0.0000E+00
