 1 - depth, m
 2 - temperature, C
 3 - salinity, kg/kg
 4 - turbulent kinetic energy, m**2/s**2
 5 - dissipation rate, m**2/s**3
 6 - kinematic heat conductance, m**2/s
 7 - modulus of horizontal velocity, m/s
 8 - Richardson number, n/d
   -0.000000   30.28345  0.9203E-14  0.4802E-05  0.2984E-06  0.5084E-04  0.1799E-02  0.6786E+04
   -0.049997   30.31278  0.9203E-14  0.8165E-05  0.1328E-06  0.1739E-03  0.1034E-02  0.1128E+04
   -0.099994   30.32452  0.9203E-14  0.9923E-05  0.9088E-07  0.3978E-03  0.7527E-03  0.1437E+02
   -0.149992   30.32769  0.9203E-14  0.1102E-04  0.7617E-07  0.4767E-03  0.6649E-03  0.7014E+01
   -0.199991   30.33024  0.9203E-14  0.1188E-04  0.6758E-07  0.6387E-03  0.5933E-03  0.4491E+01
   -0.249989   30.33208  0.9203E-14  0.1256E-04  0.6197E-07  0.7639E-03  0.5399E-03  0.3310E+01
   -0.299988   30.33358  0.9203E-14  0.1311E-04  0.5798E-07  0.8892E-03  0.4955E-03  0.2633E+01
   -0.349988   30.33484  0.9203E-14  0.1358E-04  0.5500E-07  0.1003E-02  0.4575E-03  0.2251E+01
   -0.399988   30.33594  0.9203E-14  0.1397E-04  0.5268E-07  0.1107E-02  0.4239E-03  0.2005E+01
   -0.449988   30.33690  0.9203E-14  0.1430E-04  0.5080E-07  0.1203E-02  0.3944E-03  0.1882E+01
   -0.499988   30.33778  0.9203E-14  0.1460E-04  0.4925E-07  0.1292E-02  0.3683E-03  0.1830E+01
   -0.549989   30.33858  0.9203E-14  0.1485E-04  0.4796E-07  0.1374E-02  0.3449E-03  0.1805E+01
   -0.599990   30.33932  0.9203E-14  0.1507E-04  0.4687E-07  0.1448E-02  0.3238E-03  0.1806E+01
   -0.649991   30.34001  0.9203E-14  0.1526E-04  0.4596E-07  0.1514E-02  0.3045E-03  0.1828E+01
   -0.699992   30.34066  0.9203E-14  0.1542E-04  0.4519E-07  0.1573E-02  0.2868E-03  0.1870E+01
   -0.749993   30.34128  0.9203E-14  0.1556E-04  0.4455E-07  0.1624E-02  0.2705E-03  0.1931E+01
   -0.799995   30.34187  0.9203E-14  0.1567E-04  0.4402E-07  0.1668E-02  0.2553E-03  0.2012E+01
   -0.849996   30.34244  0.9203E-14  0.1576E-04  0.4360E-07  0.1704E-02  0.2411E-03  0.2115E+01
   -0.899998   30.34300  0.9203E-14  0.1583E-04  0.4327E-07  0.1732E-02  0.2277E-03  0.2242E+01
   -0.949999   30.34353  0.9203E-14  0.1587E-04  0.4305E-07  0.1752E-02  0.2152E-03  0.2399E+01
   -1.000001   30.34406  0.9203E-14  0.1590E-04  0.4293E-07  0.1764E-02  0.2033E-03  0.2589E+01
   -1.050003   30.34458  0.9203E-14  0.1590E-04  0.4290E-07  0.1766E-02  0.1921E-03  0.2934E+01
   -1.100005   30.34510  0.9203E-14  0.1589E-04  0.4299E-07  0.1848E-02  0.1813E-03  0.9799E+01
   -1.150006   30.34559  0.9203E-14  0.1585E-04  0.4321E-07  0.1691E-02  0.1717E-03  0.2167E+02
   -1.200008   30.34613  0.9203E-14  0.1579E-04  0.4355E-07  0.1713E-02  0.1618E-03  0.4210E+01
   -1.250009   30.34665  0.9203E-14  0.1570E-04  0.4406E-07  0.1683E-02  0.1523E-03  0.4489E+01
   -1.300011   30.34718  0.9203E-14  0.1559E-04  0.4477E-07  0.1635E-02  0.1432E-03  0.5236E+01
   -1.350012   30.34773  0.9203E-14  0.1544E-04  0.4574E-07  0.1578E-02  0.1343E-03  0.6247E+01
   -1.400013   30.34829  0.9203E-14  0.1526E-04  0.4703E-07  0.1503E-02  0.1257E-03  0.7673E+01
   -1.450014   30.34888  0.9203E-14  0.1504E-04  0.4878E-07  0.1426E-02  0.1172E-03  0.9722E+01
   -1.500014   30.34950  0.9203E-14  0.1477E-04  0.5119E-07  0.1316E-02  0.1089E-03  0.1307E+02
   -1.550015   30.35019  0.9203E-14  0.1444E-04  0.5457E-07  0.1233E-02  0.1006E-03  0.1838E+02
   -1.600015   30.35092  0.9203E-14  0.1403E-04  0.5969E-07  0.1087E-02  0.9242E-04  0.3435E+02
   -1.650014   30.35181  0.9203E-14  0.1350E-04  0.6753E-07  0.1010E-02  0.8369E-04  0.3528E+03
   -1.700014   30.35279  0.9203E-14  0.1277E-04  0.8149E-07  0.8247E-03  0.7525E-04  0.2433E+05
   -1.750013   30.35451  0.9203E-14  0.1180E-04  0.1044E-06  0.7494E-03  0.6412E-04  0.4297E+05
   -1.800012   30.35597  0.9203E-14  0.1049E-04  0.1518E-06  0.5266E-03  0.5527E-04  0.2453E+05
   -1.850010   30.36158  0.9203E-14  0.8967E-05  0.2419E-06  0.4810E-03  0.4015E-04  0.2080E+07
   -1.900008   30.36096  0.9203E-14  0.7107E-05  0.5004E-06  0.2153E-03  0.3263E-04  0.4811E+05
   -1.950005   30.37908  0.9203E-14  0.4950E-05  0.1273E-05  0.1825E-03  0.1775E-04 -0.5261E+06
   -2.000002   30.38209  0.9203E-14  0.0000E+00  0.0000E+00  0.0000E+00  0.3141E-04  0.0000E+00
