 1 - depth, m
 2 - temperature, C
 3 - salinity, kg/kg
 4 - turbulent kinetic energy, m**2/s**2
 5 - dissipation rate, m**2/s**3
 6 - kinematic heat conductance, m**2/s
 7 - modulus of horizontal velocity, m/s
 8 - Richardson number, n/d
   -0.000000   30.69814  0.7826E-13  0.4871E-05  0.3009E-06  0.4842E-04  0.8336E-03  0.3379E+05
   -0.049997   30.73108  0.7826E-13  0.8503E-05  0.1338E-06  0.1887E-03  0.4635E-03  0.3421E+03
   -0.099994   30.74212  0.7826E-13  0.1026E-04  0.9319E-07  0.4066E-03  0.3446E-03  0.9794E+02
   -0.149992   30.74539  0.7826E-13  0.1136E-04  0.7851E-07  0.4914E-03  0.3048E-03  0.4829E+02
   -0.199991   30.74798  0.7826E-13  0.1222E-04  0.6983E-07  0.6529E-03  0.2727E-03  0.3152E+02
   -0.249989   30.74986  0.7826E-13  0.1291E-04  0.6412E-07  0.7787E-03  0.2486E-03  0.2330E+02
   -0.299988   30.75140  0.7826E-13  0.1346E-04  0.6003E-07  0.9040E-03  0.2284E-03  0.1865E+02
   -0.349988   30.75269  0.7826E-13  0.1392E-04  0.5694E-07  0.1017E-02  0.2111E-03  0.1585E+02
   -0.399988   30.75381  0.7826E-13  0.1431E-04  0.5454E-07  0.1121E-02  0.1958E-03  0.1420E+02
   -0.449988   30.75480  0.7826E-13  0.1464E-04  0.5258E-07  0.1217E-02  0.1824E-03  0.1321E+02
   -0.499988   30.75569  0.7826E-13  0.1493E-04  0.5095E-07  0.1305E-02  0.1704E-03  0.1293E+02
   -0.549989   30.75651  0.7826E-13  0.1517E-04  0.4958E-07  0.1386E-02  0.1597E-03  0.1262E+02
   -0.599989   30.75726  0.7826E-13  0.1538E-04  0.4842E-07  0.1459E-02  0.1500E-03  0.1271E+02
   -0.649990   30.75796  0.7826E-13  0.1556E-04  0.4744E-07  0.1525E-02  0.1412E-03  0.1271E+02
   -0.699992   30.75863  0.7826E-13  0.1571E-04  0.4661E-07  0.1583E-02  0.1331E-03  0.1310E+02
   -0.749993   30.75926  0.7826E-13  0.1584E-04  0.4591E-07  0.1633E-02  0.1256E-03  0.1335E+02
   -0.799994   30.75986  0.7826E-13  0.1594E-04  0.4533E-07  0.1676E-02  0.1186E-03  0.1403E+02
   -0.849996   30.76044  0.7826E-13  0.1602E-04  0.4486E-07  0.1710E-02  0.1120E-03  0.1454E+02
   -0.899998   30.76100  0.7826E-13  0.1607E-04  0.4449E-07  0.1737E-02  0.1059E-03  0.1556E+02
   -0.949999   30.76154  0.7826E-13  0.1611E-04  0.4422E-07  0.1755E-02  0.1001E-03  0.1642E+02
   -1.000001   30.76207  0.7826E-13  0.1612E-04  0.4406E-07  0.1766E-02  0.9463E-04  0.1790E+02
   -1.050003   30.76260  0.7826E-13  0.1611E-04  0.4400E-07  0.1766E-02  0.8944E-04  0.1998E+02
   -1.100005   30.76312  0.7826E-13  0.1608E-04  0.4405E-07  0.1857E-02  0.8446E-04  0.6652E+02
   -1.150006   30.76361  0.7826E-13  0.1602E-04  0.4425E-07  0.1677E-02  0.8004E-04  0.1538E+03
   -1.200008   30.76415  0.7826E-13  0.1594E-04  0.4457E-07  0.1706E-02  0.7542E-04  0.2888E+02
   -1.250009   30.76468  0.7826E-13  0.1584E-04  0.4508E-07  0.1675E-02  0.7101E-04  0.3099E+02
   -1.300011   30.76521  0.7826E-13  0.1571E-04  0.4579E-07  0.1625E-02  0.6678E-04  0.3585E+02
   -1.350012   30.76576  0.7826E-13  0.1554E-04  0.4678E-07  0.1565E-02  0.6265E-04  0.4341E+02
   -1.400013   30.76632  0.7826E-13  0.1534E-04  0.4812E-07  0.1487E-02  0.5864E-04  0.5316E+02
   -1.450014   30.76692  0.7826E-13  0.1509E-04  0.4995E-07  0.1410E-02  0.5469E-04  0.6870E+02
   -1.500014   30.76755  0.7826E-13  0.1480E-04  0.5251E-07  0.1296E-02  0.5082E-04  0.9313E+02
   -1.550014   30.76824  0.7826E-13  0.1443E-04  0.5616E-07  0.1214E-02  0.4691E-04  0.1363E+03
   -1.600015   30.76898  0.7826E-13  0.1398E-04  0.6182E-07  0.1069E-02  0.4310E-04  0.2545E+03
   -1.650014   30.76989  0.7826E-13  0.1340E-04  0.7063E-07  0.9898E-03  0.3895E-04  0.4453E+05
   -1.700014   30.77093  0.7826E-13  0.1260E-04  0.8633E-07  0.8060E-03  0.3492E-04  0.1973E+07
   -1.750013   30.77279  0.7826E-13  0.1154E-04  0.1121E-06  0.7284E-03  0.2951E-04  0.4045E+06
   -1.800012   30.77428  0.7826E-13  0.1016E-04  0.1682E-06  0.5112E-03  0.2534E-04  0.3092E+07
   -1.850010   30.78057  0.7826E-13  0.8636E-05  0.2714E-06  0.4677E-03  0.1809E-04  0.5189E+09
   -1.900008   30.77914  0.7826E-13  0.6866E-05  0.5678E-06  0.2174E-03  0.1476E-04  0.1083E+07
   -1.950005   30.79824  0.7826E-13  0.4807E-05  0.1412E-05  0.1916E-03  0.7983E-05 -0.3942E+06
   -2.000002   30.80091  0.7826E-13  0.0000E+00  0.0000E+00  0.0000E+00  0.1475E-04  0.0000E+00
