 1 - depth, m
 2 - temperature, C
 3 - salinity, kg/kg
 4 - turbulent kinetic energy, m**2/s**2
 5 - dissipation rate, m**2/s**3
 6 - kinematic heat conductance, m**2/s
 7 - modulus of horizontal velocity, m/s
 8 - Richardson number, n/d
   -0.000000   31.12691  0.1087E-13  0.5149E-05  0.3327E-06  0.5239E-04  0.1577E-02  0.5586E+04
   -0.049997   31.15927  0.1087E-13  0.8760E-05  0.1486E-06  0.1793E-03  0.9091E-03  0.2293E+03
   -0.099994   31.17201  0.1087E-13  0.1063E-04  0.1019E-06  0.4053E-03  0.6663E-03  0.2048E+02
   -0.149992   31.17551  0.1087E-13  0.1180E-04  0.8528E-07  0.4851E-03  0.5890E-03  0.1004E+02
   -0.199991   31.17831  0.1087E-13  0.1270E-04  0.7556E-07  0.6509E-03  0.5261E-03  0.6409E+01
   -0.249989   31.18033  0.1087E-13  0.1342E-04  0.6919E-07  0.7780E-03  0.4793E-03  0.4720E+01
   -0.299988   31.18196  0.1087E-13  0.1400E-04  0.6464E-07  0.9055E-03  0.4402E-03  0.3744E+01
   -0.349988   31.18333  0.1087E-13  0.1447E-04  0.6122E-07  0.1021E-02  0.4068E-03  0.3193E+01
   -0.399988   31.18451  0.1087E-13  0.1487E-04  0.5855E-07  0.1126E-02  0.3773E-03  0.2839E+01
   -0.449988   31.18555  0.1087E-13  0.1521E-04  0.5637E-07  0.1223E-02  0.3513E-03  0.2660E+01
   -0.499988   31.18650  0.1087E-13  0.1550E-04  0.5456E-07  0.1313E-02  0.3283E-03  0.2583E+01
   -0.549989   31.18736  0.1087E-13  0.1575E-04  0.5304E-07  0.1395E-02  0.3077E-03  0.2543E+01
   -0.599989   31.18815  0.1087E-13  0.1597E-04  0.5174E-07  0.1469E-02  0.2891E-03  0.2539E+01
   -0.649990   31.18889  0.1087E-13  0.1614E-04  0.5064E-07  0.1535E-02  0.2721E-03  0.2564E+01
   -0.699992   31.18959  0.1087E-13  0.1629E-04  0.4969E-07  0.1594E-02  0.2565E-03  0.2617E+01
   -0.749993   31.19025  0.1087E-13  0.1641E-04  0.4889E-07  0.1644E-02  0.2420E-03  0.2697E+01
   -0.799994   31.19087  0.1087E-13  0.1651E-04  0.4821E-07  0.1687E-02  0.2285E-03  0.2804E+01
   -0.849996   31.19148  0.1087E-13  0.1657E-04  0.4766E-07  0.1722E-02  0.2160E-03  0.2941E+01
   -0.899998   31.19206  0.1087E-13  0.1662E-04  0.4721E-07  0.1748E-02  0.2042E-03  0.3112E+01
   -0.949999   31.19263  0.1087E-13  0.1664E-04  0.4687E-07  0.1766E-02  0.1930E-03  0.3324E+01
   -1.000001   31.19318  0.1087E-13  0.1664E-04  0.4663E-07  0.1776E-02  0.1825E-03  0.3582E+01
   -1.050003   31.19373  0.1087E-13  0.1661E-04  0.4652E-07  0.1775E-02  0.1725E-03  0.4047E+01
   -1.100004   31.19427  0.1087E-13  0.1656E-04  0.4652E-07  0.1873E-02  0.1629E-03  0.1325E+02
   -1.150006   31.19477  0.1087E-13  0.1649E-04  0.4667E-07  0.1675E-02  0.1544E-03  0.3110E+02
   -1.200008   31.19533  0.1087E-13  0.1639E-04  0.4697E-07  0.1710E-02  0.1455E-03  0.5866E+01
   -1.250009   31.19588  0.1087E-13  0.1627E-04  0.4745E-07  0.1679E-02  0.1370E-03  0.6227E+01
   -1.300010   31.19642  0.1087E-13  0.1611E-04  0.4816E-07  0.1626E-02  0.1289E-03  0.7298E+01
   -1.350012   31.19698  0.1087E-13  0.1592E-04  0.4916E-07  0.1564E-02  0.1209E-03  0.8760E+01
   -1.400013   31.19756  0.1087E-13  0.1569E-04  0.5056E-07  0.1483E-02  0.1132E-03  0.1089E+02
   -1.450013   31.19817  0.1087E-13  0.1541E-04  0.5250E-07  0.1403E-02  0.1056E-03  0.1399E+02
   -1.500014   31.19881  0.1087E-13  0.1507E-04  0.5526E-07  0.1288E-02  0.9806E-04  0.1929E+02
   -1.550014   31.19952  0.1087E-13  0.1467E-04  0.5925E-07  0.1204E-02  0.9049E-04  0.2838E+02
   -1.600014   31.20028  0.1087E-13  0.1417E-04  0.6553E-07  0.1059E-02  0.8306E-04  0.7169E+02
   -1.650014   31.20124  0.1087E-13  0.1352E-04  0.7547E-07  0.9778E-03  0.7496E-04  0.2684E+05
   -1.700014   31.20234  0.1087E-13  0.1262E-04  0.9322E-07  0.7962E-03  0.6689E-04  0.3364E+05
   -1.750013   31.20430  0.1087E-13  0.1148E-04  0.1221E-06  0.7161E-03  0.5614E-04  0.1128E+08
   -1.800011   31.20580  0.1087E-13  0.1000E-04  0.1856E-06  0.4938E-03  0.4810E-04  0.1779E+07
   -1.850010   31.21278  0.1087E-13  0.8435E-05  0.3029E-06  0.4600E-03  0.3362E-04  0.3754E+08
   -1.900008   31.21057  0.1087E-13  0.6662E-05  0.6376E-06  0.2120E-03  0.2764E-04 -0.9509E+05
   -1.950005   31.23069  0.1087E-13  0.4702E-05  0.1558E-05  0.2038E-03  0.1456E-04 -0.3860E+06
   -2.000002   31.23119  0.1087E-13  0.0000E+00  0.0000E+00  0.0000E+00  0.2852E-04  0.0000E+00
