 1 - depth, m
 2 - temperature, C
 3 - salinity, kg/kg
 4 - turbulent kinetic energy, m**2/s**2
 5 - dissipation rate, m**2/s**3
 6 - kinematic heat conductance, m**2/s
 7 - modulus of horizontal velocity, m/s
 8 - Richardson number, n/d
   -0.000000   31.03020  0.1383E-13  0.4943E-05  0.3033E-06  0.4784E-04  0.3796E-03  0.2046E+06
   -0.049997   31.06431  0.1383E-13  0.8796E-05  0.1352E-06  0.1986E-03  0.2107E-03  0.5526E+06
   -0.099994   31.07442  0.1383E-13  0.1056E-04  0.9516E-07  0.4197E-03  0.1556E-03  0.6111E+03
   -0.149992   31.07765  0.1383E-13  0.1169E-04  0.8051E-07  0.5047E-03  0.1378E-03  0.3103E+03
   -0.199991   31.08021  0.1383E-13  0.1258E-04  0.7183E-07  0.6700E-03  0.1233E-03  0.2054E+03
   -0.249989   31.08208  0.1383E-13  0.1328E-04  0.6610E-07  0.7988E-03  0.1124E-03  0.1541E+03
   -0.299988   31.08361  0.1383E-13  0.1386E-04  0.6199E-07  0.9258E-03  0.1033E-03  0.1239E+03
   -0.349988   31.08490  0.1383E-13  0.1433E-04  0.5890E-07  0.1041E-02  0.9550E-04  0.1067E+03
   -0.399988   31.08602  0.1383E-13  0.1473E-04  0.5650E-07  0.1146E-02  0.8863E-04  0.9533E+02
   -0.449988   31.08701  0.1383E-13  0.1508E-04  0.5454E-07  0.1244E-02  0.8254E-04  0.8978E+02
   -0.499988   31.08791  0.1383E-13  0.1538E-04  0.5292E-07  0.1333E-02  0.7717E-04  0.8736E+02
   -0.549989   31.08873  0.1383E-13  0.1564E-04  0.5157E-07  0.1415E-02  0.7233E-04  0.8642E+02
   -0.599989   31.08949  0.1383E-13  0.1586E-04  0.5043E-07  0.1489E-02  0.6797E-04  0.8646E+02
   -0.649990   31.09020  0.1383E-13  0.1606E-04  0.4947E-07  0.1555E-02  0.6397E-04  0.8778E+02
   -0.699992   31.09088  0.1383E-13  0.1622E-04  0.4867E-07  0.1613E-02  0.6031E-04  0.8978E+02
   -0.749993   31.09152  0.1383E-13  0.1635E-04  0.4800E-07  0.1664E-02  0.5691E-04  0.9304E+02
   -0.799994   31.09213  0.1383E-13  0.1646E-04  0.4746E-07  0.1706E-02  0.5376E-04  0.9698E+02
   -0.849996   31.09272  0.1383E-13  0.1655E-04  0.4703E-07  0.1741E-02  0.5079E-04  0.1024E+03
   -0.899998   31.09329  0.1383E-13  0.1662E-04  0.4670E-07  0.1767E-02  0.4803E-04  0.1086E+03
   -0.949999   31.09385  0.1383E-13  0.1666E-04  0.4649E-07  0.1785E-02  0.4540E-04  0.1168E+03
   -1.000001   31.09440  0.1383E-13  0.1667E-04  0.4638E-07  0.1794E-02  0.4293E-04  0.1263E+03
   -1.050003   31.09494  0.1383E-13  0.1667E-04  0.4639E-07  0.1793E-02  0.4057E-04  0.1437E+03
   -1.100004   31.09548  0.1383E-13  0.1664E-04  0.4652E-07  0.1890E-02  0.3833E-04  0.4723E+03
   -1.150006   31.09599  0.1383E-13  0.1659E-04  0.4680E-07  0.1692E-02  0.3633E-04  0.1102E+04
   -1.200008   31.09655  0.1383E-13  0.1652E-04  0.4723E-07  0.1726E-02  0.3423E-04  0.2105E+03
   -1.250009   31.09710  0.1383E-13  0.1641E-04  0.4784E-07  0.1694E-02  0.3224E-04  0.2252E+03
   -1.300010   31.09766  0.1383E-13  0.1628E-04  0.4870E-07  0.1641E-02  0.3031E-04  0.2656E+03
   -1.350011   31.09824  0.1383E-13  0.1611E-04  0.4986E-07  0.1578E-02  0.2845E-04  0.3200E+03
   -1.400013   31.09884  0.1383E-13  0.1590E-04  0.5142E-07  0.1497E-02  0.2662E-04  0.3999E+03
   -1.450013   31.09947  0.1383E-13  0.1564E-04  0.5354E-07  0.1416E-02  0.2483E-04  0.5153E+03
   -1.500014   31.10014  0.1383E-13  0.1533E-04  0.5650E-07  0.1301E-02  0.2306E-04  0.7142E+03
   -1.550014   31.10088  0.1383E-13  0.1495E-04  0.6071E-07  0.1215E-02  0.2128E-04  0.1041E+04
   -1.600014   31.10169  0.1383E-13  0.1446E-04  0.6725E-07  0.1072E-02  0.1953E-04  0.2494E+04
   -1.650014   31.10270  0.1383E-13  0.1383E-04  0.7755E-07  0.9843E-03  0.1764E-04  0.9449E+05
   -1.700013   31.10388  0.1383E-13  0.1296E-04  0.9584E-07  0.8074E-03  0.1573E-04 -0.2285E+06
   -1.750013   31.10598  0.1383E-13  0.1184E-04  0.1252E-06  0.7220E-03  0.1323E-04  0.2755E+07
   -1.800011   31.10759  0.1383E-13  0.1040E-04  0.1893E-06  0.5065E-03  0.1135E-04  0.3515E+06
   -1.850010   31.11506  0.1383E-13  0.8847E-05  0.3085E-06  0.4668E-03  0.7989E-05  0.2414E+09
   -1.900007   31.11290  0.1383E-13  0.7014E-05  0.6481E-06  0.2127E-03  0.6573E-05 -0.3817E+07
   -1.950005   31.13471  0.1383E-13  0.4961E-05  0.1584E-05  0.2020E-03  0.3499E-05 -0.1220E+08
   -2.000002   31.13609  0.1383E-13  0.0000E+00  0.0000E+00  0.0000E+00  0.6642E-05  0.0000E+00
