 1 - depth, m
 2 - temperature, C
 3 - salinity, kg/kg
 4 - turbulent kinetic energy, m**2/s**2
 5 - dissipation rate, m**2/s**3
 6 - kinematic heat conductance, m**2/s
 7 - modulus of horizontal velocity, m/s
 8 - Richardson number, n/d
   -0.000000   30.64196  0.1916E-13  0.5142E-05  0.3322E-06  0.5184E-04  0.1489E-02  0.7704E+04
   -0.049997   30.67475  0.1916E-13  0.8787E-05  0.1480E-06  0.1832E-03  0.8513E-03  0.5234E+04
   -0.099994   30.68727  0.1916E-13  0.1066E-04  0.1018E-06  0.4082E-03  0.6253E-03  0.2289E+02
   -0.149992   30.69075  0.1916E-13  0.1184E-04  0.8524E-07  0.4909E-03  0.5527E-03  0.1132E+02
   -0.199990   30.69351  0.1916E-13  0.1276E-04  0.7560E-07  0.6581E-03  0.4938E-03  0.7224E+01
   -0.249989   30.69551  0.1916E-13  0.1349E-04  0.6931E-07  0.7863E-03  0.4499E-03  0.5343E+01
   -0.299988   30.69714  0.1916E-13  0.1409E-04  0.6483E-07  0.9155E-03  0.4134E-03  0.4244E+01
   -0.349988   30.69850  0.1916E-13  0.1458E-04  0.6149E-07  0.1032E-02  0.3822E-03  0.3634E+01
   -0.399987   30.69968  0.1916E-13  0.1499E-04  0.5889E-07  0.1139E-02  0.3546E-03  0.3231E+01
   -0.449987   30.70073  0.1916E-13  0.1535E-04  0.5678E-07  0.1238E-02  0.3303E-03  0.3036E+01
   -0.499988   30.70167  0.1916E-13  0.1566E-04  0.5504E-07  0.1328E-02  0.3088E-03  0.2943E+01
   -0.549988   30.70254  0.1916E-13  0.1592E-04  0.5358E-07  0.1411E-02  0.2895E-03  0.2908E+01
   -0.599989   30.70333  0.1916E-13  0.1615E-04  0.5236E-07  0.1486E-02  0.2721E-03  0.2899E+01
   -0.649990   30.70408  0.1916E-13  0.1635E-04  0.5133E-07  0.1554E-02  0.2561E-03  0.2942E+01
   -0.699991   30.70478  0.1916E-13  0.1652E-04  0.5047E-07  0.1613E-02  0.2415E-03  0.2998E+01
   -0.749992   30.70545  0.1916E-13  0.1665E-04  0.4975E-07  0.1664E-02  0.2280E-03  0.3104E+01
   -0.799994   30.70609  0.1916E-13  0.1677E-04  0.4916E-07  0.1708E-02  0.2154E-03  0.3225E+01
   -0.849995   30.70670  0.1916E-13  0.1685E-04  0.4869E-07  0.1743E-02  0.2036E-03  0.3401E+01
   -0.899997   30.70730  0.1916E-13  0.1692E-04  0.4833E-07  0.1770E-02  0.1925E-03  0.3598E+01
   -0.949999   30.70788  0.1916E-13  0.1696E-04  0.4809E-07  0.1788E-02  0.1821E-03  0.3864E+01
   -1.000000   30.70845  0.1916E-13  0.1698E-04  0.4796E-07  0.1798E-02  0.1722E-03  0.4165E+01
   -1.050002   30.70902  0.1916E-13  0.1697E-04  0.4795E-07  0.1797E-02  0.1628E-03  0.4735E+01
   -1.100004   30.70958  0.1916E-13  0.1694E-04  0.4807E-07  0.1894E-02  0.1539E-03  0.1552E+02
   -1.150005   30.71011  0.1916E-13  0.1689E-04  0.4836E-07  0.1697E-02  0.1459E-03  0.3635E+02
   -1.200007   30.71069  0.1916E-13  0.1681E-04  0.4878E-07  0.1730E-02  0.1375E-03  0.6912E+01
   -1.250008   30.71127  0.1916E-13  0.1670E-04  0.4941E-07  0.1698E-02  0.1295E-03  0.7363E+01
   -1.300010   30.71185  0.1916E-13  0.1656E-04  0.5029E-07  0.1645E-02  0.1219E-03  0.8682E+01
   -1.350011   30.71245  0.1916E-13  0.1638E-04  0.5149E-07  0.1582E-02  0.1144E-03  0.1045E+02
   -1.400012   30.71307  0.1916E-13  0.1616E-04  0.5311E-07  0.1500E-02  0.1071E-03  0.1306E+02
   -1.450012   30.71373  0.1916E-13  0.1590E-04  0.5534E-07  0.1420E-02  0.9989E-04  0.1688E+02
   -1.500013   30.71443  0.1916E-13  0.1557E-04  0.5845E-07  0.1305E-02  0.9280E-04  0.2347E+02
   -1.550013   30.71520  0.1916E-13  0.1517E-04  0.6294E-07  0.1221E-02  0.8565E-04  0.3547E+02
   -1.600013   30.71605  0.1916E-13  0.1467E-04  0.6998E-07  0.1077E-02  0.7860E-04  0.7501E+02
   -1.650013   30.71711  0.1916E-13  0.1401E-04  0.8096E-07  0.9898E-03  0.7089E-04  0.4517E+03
   -1.700013   30.71838  0.1916E-13  0.1310E-04  0.1001E-06  0.8093E-03  0.6310E-04 -0.3185E+04
   -1.750012   30.72061  0.1916E-13  0.1197E-04  0.1311E-06  0.7287E-03  0.5282E-04  0.4901E+06
   -1.800010   30.72214  0.1916E-13  0.1052E-04  0.2001E-06  0.5028E-03  0.4554E-04  0.1049E+06
   -1.850009   30.73041  0.1916E-13  0.8999E-05  0.3292E-06  0.4745E-03  0.3197E-04  0.4370E+08
   -1.900006   30.72745  0.1916E-13  0.7208E-05  0.6844E-06  0.2166E-03  0.2656E-04 -0.1277E+06
   -1.950004   30.75002  0.1916E-13  0.5087E-05  0.1657E-05  0.2051E-03  0.1434E-04 -0.9740E+06
   -2.000001   30.75147  0.1916E-13  0.0000E+00  0.0000E+00  0.0000E+00  0.2707E-04  0.0000E+00
