 1 - depth, m
 2 - temperature, C
 3 - salinity, kg/kg
 4 - turbulent kinetic energy, m**2/s**2
 5 - dissipation rate, m**2/s**3
 6 - kinematic heat conductance, m**2/s
 7 - modulus of horizontal velocity, m/s
 8 - Richardson number, n/d
   -0.000000   30.27134  0.8945E-14  0.4986E-05  0.3107E-06  0.5154E-04  0.2131E-02  0.5348E+04
   -0.049997   30.30193  0.8945E-14  0.8389E-05  0.1382E-06  0.1770E-03  0.1217E-02  0.3668E+04
   -0.099994   30.31374  0.8945E-14  0.1015E-04  0.9475E-07  0.3955E-03  0.8953E-03  0.1064E+02
   -0.149992   30.31709  0.8945E-14  0.1125E-04  0.7929E-07  0.4770E-03  0.7904E-03  0.5216E+01
   -0.199991   30.31975  0.8945E-14  0.1211E-04  0.7024E-07  0.6371E-03  0.7056E-03  0.3339E+01
   -0.249989   30.32169  0.8945E-14  0.1279E-04  0.6431E-07  0.7622E-03  0.6421E-03  0.2457E+01
   -0.299989   30.32326  0.8945E-14  0.1334E-04  0.6009E-07  0.8867E-03  0.5894E-03  0.1950E+01
   -0.349988   30.32457  0.8945E-14  0.1380E-04  0.5691E-07  0.9996E-03  0.5442E-03  0.1663E+01
   -0.399988   30.32571  0.8945E-14  0.1418E-04  0.5444E-07  0.1103E-02  0.5042E-03  0.1481E+01
   -0.449988   30.32672  0.8945E-14  0.1451E-04  0.5242E-07  0.1198E-02  0.4691E-03  0.1389E+01
   -0.499988   30.32763  0.8945E-14  0.1479E-04  0.5075E-07  0.1287E-02  0.4380E-03  0.1354E+01
   -0.549989   30.32846  0.8945E-14  0.1504E-04  0.4934E-07  0.1367E-02  0.4101E-03  0.1336E+01
   -0.599990   30.32923  0.8945E-14  0.1525E-04  0.4815E-07  0.1441E-02  0.3849E-03  0.1336E+01
   -0.649991   30.32994  0.8945E-14  0.1542E-04  0.4713E-07  0.1507E-02  0.3619E-03  0.1349E+01
   -0.699992   30.33062  0.8945E-14  0.1557E-04  0.4627E-07  0.1565E-02  0.3408E-03  0.1376E+01
   -0.749993   30.33125  0.8945E-14  0.1569E-04  0.4554E-07  0.1615E-02  0.3214E-03  0.1418E+01
   -0.799995   30.33186  0.8945E-14  0.1579E-04  0.4492E-07  0.1658E-02  0.3033E-03  0.1475E+01
   -0.849996   30.33245  0.8945E-14  0.1586E-04  0.4442E-07  0.1693E-02  0.2864E-03  0.1547E+01
   -0.899998   30.33302  0.8945E-14  0.1591E-04  0.4402E-07  0.1720E-02  0.2705E-03  0.1639E+01
   -0.950000   30.33357  0.8945E-14  0.1593E-04  0.4371E-07  0.1738E-02  0.2556E-03  0.1750E+01
   -1.000001   30.33411  0.8945E-14  0.1594E-04  0.4351E-07  0.1749E-02  0.2415E-03  0.1887E+01
   -1.050003   30.33464  0.8945E-14  0.1592E-04  0.4341E-07  0.1749E-02  0.2281E-03  0.2133E+01
   -1.100005   30.33516  0.8945E-14  0.1588E-04  0.4343E-07  0.1839E-02  0.2153E-03  0.7038E+01
   -1.150006   30.33565  0.8945E-14  0.1582E-04  0.4358E-07  0.1661E-02  0.2039E-03  0.1615E+02
   -1.200008   30.33620  0.8945E-14  0.1574E-04  0.4385E-07  0.1690E-02  0.1920E-03  0.3075E+01
   -1.250009   30.33672  0.8945E-14  0.1563E-04  0.4430E-07  0.1659E-02  0.1807E-03  0.3267E+01
   -1.300011   30.33726  0.8945E-14  0.1549E-04  0.4496E-07  0.1610E-02  0.1698E-03  0.3816E+01
   -1.350012   30.33780  0.8945E-14  0.1531E-04  0.4588E-07  0.1550E-02  0.1593E-03  0.4568E+01
   -1.400013   30.33836  0.8945E-14  0.1510E-04  0.4714E-07  0.1472E-02  0.1490E-03  0.5643E+01
   -1.450014   30.33895  0.8945E-14  0.1485E-04  0.4889E-07  0.1395E-02  0.1389E-03  0.7207E+01
   -1.500015   30.33958  0.8945E-14  0.1455E-04  0.5135E-07  0.1281E-02  0.1289E-03  0.9829E+01
   -1.550015   30.34026  0.8945E-14  0.1418E-04  0.5487E-07  0.1200E-02  0.1190E-03  0.1413E+02
   -1.600015   30.34099  0.8945E-14  0.1372E-04  0.6035E-07  0.1053E-02  0.1092E-03  0.2802E+02
   -1.650015   30.34189  0.8945E-14  0.1313E-04  0.6888E-07  0.9788E-03  0.9863E-04  0.4093E+03
   -1.700014   30.34290  0.8945E-14  0.1233E-04  0.8434E-07  0.7910E-03  0.8835E-04 -0.3046E+04
   -1.750013   30.34474  0.8945E-14  0.1127E-04  0.1097E-06  0.7201E-03  0.7441E-04  0.3859E+05
   -1.800012   30.34620  0.8945E-14  0.9866E-05  0.1637E-06  0.4906E-03  0.6390E-04  0.3312E+05
   -1.850010   30.35251  0.8945E-14  0.8315E-05  0.2653E-06  0.4628E-03  0.4508E-04  0.1189E+09
   -1.900008   30.35100  0.8945E-14  0.6579E-05  0.5571E-06  0.2113E-03  0.3680E-04 -0.6309E+05
   -1.950006   30.36969  0.8945E-14  0.4597E-05  0.1388E-05  0.1921E-03  0.1953E-04 -0.3384E+06
   -2.000003   30.37101  0.8945E-14  0.0000E+00  0.0000E+00  0.0000E+00  0.3704E-04  0.0000E+00
