 1 - depth, m
 2 - temperature, C
 3 - salinity, kg/kg
 4 - turbulent kinetic energy, m**2/s**2
 5 - dissipation rate, m**2/s**3
 6 - kinematic heat conductance, m**2/s
 7 - modulus of horizontal velocity, m/s
 8 - Richardson number, n/d
   -0.000000   30.69573  0.1394E-14  0.5182E-05  0.3373E-06  0.5224E-04  0.1487E-02  0.2812E+04
   -0.049997   30.72863  0.1394E-14  0.8853E-05  0.1502E-06  0.1831E-03  0.8519E-03  0.3093E+04
   -0.099994   30.74135  0.1394E-14  0.1075E-04  0.1032E-06  0.4100E-03  0.6249E-03  0.2306E+02
   -0.149992   30.74485  0.1394E-14  0.1194E-04  0.8641E-07  0.4919E-03  0.5525E-03  0.1139E+02
   -0.199990   30.74764  0.1394E-14  0.1287E-04  0.7663E-07  0.6604E-03  0.4937E-03  0.7271E+01
   -0.249989   30.74966  0.1394E-14  0.1361E-04  0.7025E-07  0.7889E-03  0.4499E-03  0.5378E+01
   -0.299988   30.75130  0.1394E-14  0.1421E-04  0.6572E-07  0.9187E-03  0.4134E-03  0.4273E+01
   -0.349988   30.75268  0.1394E-14  0.1471E-04  0.6233E-07  0.1036E-02  0.3822E-03  0.3661E+01
   -0.399987   30.75387  0.1394E-14  0.1513E-04  0.5970E-07  0.1143E-02  0.3547E-03  0.3255E+01
   -0.449987   30.75492  0.1394E-14  0.1549E-04  0.5756E-07  0.1242E-02  0.3304E-03  0.3060E+01
   -0.499988   30.75588  0.1394E-14  0.1580E-04  0.5580E-07  0.1333E-02  0.3089E-03  0.2967E+01
   -0.549988   30.75675  0.1394E-14  0.1607E-04  0.5433E-07  0.1416E-02  0.2897E-03  0.2933E+01
   -0.599989   30.75755  0.1394E-14  0.1630E-04  0.5310E-07  0.1492E-02  0.2723E-03  0.2925E+01
   -0.649990   30.75830  0.1394E-14  0.1650E-04  0.5206E-07  0.1559E-02  0.2564E-03  0.2970E+01
   -0.699991   30.75901  0.1394E-14  0.1666E-04  0.5119E-07  0.1618E-02  0.2418E-03  0.3028E+01
   -0.749992   30.75969  0.1394E-14  0.1680E-04  0.5046E-07  0.1670E-02  0.2283E-03  0.3139E+01
   -0.799994   30.76033  0.1394E-14  0.1692E-04  0.4987E-07  0.1713E-02  0.2157E-03  0.3262E+01
   -0.849995   30.76096  0.1394E-14  0.1700E-04  0.4940E-07  0.1748E-02  0.2039E-03  0.3446E+01
   -0.899997   30.76156  0.1394E-14  0.1707E-04  0.4904E-07  0.1775E-02  0.1929E-03  0.3645E+01
   -0.949999   30.76215  0.1394E-14  0.1711E-04  0.4880E-07  0.1793E-02  0.1824E-03  0.3923E+01
   -1.000000   30.76273  0.1394E-14  0.1713E-04  0.4868E-07  0.1802E-02  0.1726E-03  0.4230E+01
   -1.050002   30.76330  0.1394E-14  0.1712E-04  0.4868E-07  0.1801E-02  0.1632E-03  0.4820E+01
   -1.100004   30.76386  0.1394E-14  0.1709E-04  0.4881E-07  0.1900E-02  0.1542E-03  0.1572E+02
   -1.150005   30.76440  0.1394E-14  0.1704E-04  0.4911E-07  0.1698E-02  0.1463E-03  0.3743E+02
   -1.200007   30.76499  0.1394E-14  0.1695E-04  0.4955E-07  0.1732E-02  0.1379E-03  0.7089E+01
   -1.250008   30.76557  0.1394E-14  0.1684E-04  0.5020E-07  0.1700E-02  0.1299E-03  0.7557E+01
   -1.300010   30.76616  0.1394E-14  0.1670E-04  0.5111E-07  0.1646E-02  0.1222E-03  0.8952E+01
   -1.350011   30.76677  0.1394E-14  0.1652E-04  0.5235E-07  0.1583E-02  0.1147E-03  0.1080E+02
   -1.400012   30.76740  0.1394E-14  0.1630E-04  0.5402E-07  0.1500E-02  0.1074E-03  0.1361E+02
   -1.450012   30.76807  0.1394E-14  0.1603E-04  0.5632E-07  0.1419E-02  0.1002E-03  0.1766E+02
   -1.500013   30.76878  0.1394E-14  0.1570E-04  0.5953E-07  0.1302E-02  0.9312E-04  0.2487E+02
   -1.550013   30.76957  0.1394E-14  0.1529E-04  0.6414E-07  0.1219E-02  0.8596E-04  0.3742E+02
   -1.600013   30.77043  0.1394E-14  0.1478E-04  0.7139E-07  0.1073E-02  0.7892E-04  0.1130E+03
   -1.650013   30.77154  0.1394E-14  0.1411E-04  0.8276E-07  0.9899E-03  0.7118E-04  0.2334E+04
   -1.700012   30.77282  0.1394E-14  0.1317E-04  0.1030E-06  0.8040E-03  0.6341E-04 -0.5656E+04
   -1.750011   30.77515  0.1394E-14  0.1202E-04  0.1351E-06  0.7291E-03  0.5311E-04  0.1155E+06
   -1.800010   30.77674  0.1394E-14  0.1055E-04  0.2051E-06  0.5012E-03  0.4580E-04 -0.2777E+04
   -1.850008   30.78531  0.1394E-14  0.9003E-05  0.3376E-06  0.4758E-03  0.3208E-04  0.1584E+08
   -1.900006   30.78211  0.1394E-14  0.7238E-05  0.6986E-06  0.2212E-03  0.2665E-04 -0.7878E+06
   -1.950004   30.80535  0.1394E-14  0.5115E-05  0.1710E-05  0.2048E-03  0.1443E-04 -0.4134E+06
   -2.000001   30.80693  0.1394E-14  0.0000E+00  0.0000E+00  0.0000E+00  0.2715E-04  0.0000E+00
