 1 - depth, m
 2 - temperature, C
 3 - salinity, kg/kg
 4 - turbulent kinetic energy, m**2/s**2
 5 - dissipation rate, m**2/s**3
 6 - kinematic heat conductance, m**2/s
 7 - modulus of horizontal velocity, m/s
 8 - Richardson number, n/d
   -0.000000   30.01233  0.1725E-13  0.4578E-05  0.2726E-06  0.4921E-04  0.1890E-02  0.5448E+04
   -0.049997   30.04009  0.1725E-13  0.7788E-05  0.1211E-06  0.1735E-03  0.1069E-02  0.1338E+04
   -0.099994   30.05068  0.1725E-13  0.9430E-05  0.8336E-07  0.3888E-03  0.7845E-03  0.1396E+02
   -0.149992   30.05367  0.1725E-13  0.1046E-04  0.6997E-07  0.4705E-03  0.6920E-03  0.6803E+01
   -0.199991   30.05604  0.1725E-13  0.1127E-04  0.6214E-07  0.6267E-03  0.6174E-03  0.4377E+01
   -0.249989   30.05777  0.1725E-13  0.1192E-04  0.5702E-07  0.7499E-03  0.5615E-03  0.3220E+01
   -0.299989   30.05918  0.1725E-13  0.1245E-04  0.5338E-07  0.8720E-03  0.5150E-03  0.2568E+01
   -0.349988   30.06037  0.1725E-13  0.1289E-04  0.5066E-07  0.9829E-03  0.4752E-03  0.2190E+01
   -0.399988   30.06140  0.1725E-13  0.1326E-04  0.4855E-07  0.1084E-02  0.4400E-03  0.1958E+01
   -0.449988   30.06231  0.1725E-13  0.1359E-04  0.4684E-07  0.1179E-02  0.4090E-03  0.1834E+01
   -0.499988   30.06314  0.1725E-13  0.1387E-04  0.4544E-07  0.1266E-02  0.3816E-03  0.1794E+01
   -0.549989   30.06389  0.1725E-13  0.1412E-04  0.4427E-07  0.1346E-02  0.3571E-03  0.1765E+01
   -0.599990   30.06459  0.1725E-13  0.1433E-04  0.4329E-07  0.1419E-02  0.3349E-03  0.1774E+01
   -0.649991   30.06525  0.1725E-13  0.1452E-04  0.4247E-07  0.1485E-02  0.3147E-03  0.1788E+01
   -0.699992   30.06586  0.1725E-13  0.1468E-04  0.4178E-07  0.1543E-02  0.2962E-03  0.1836E+01
   -0.749993   30.06645  0.1725E-13  0.1481E-04  0.4121E-07  0.1594E-02  0.2791E-03  0.1888E+01
   -0.799995   30.06701  0.1725E-13  0.1493E-04  0.4075E-07  0.1637E-02  0.2632E-03  0.1978E+01
   -0.849996   30.06756  0.1725E-13  0.1502E-04  0.4039E-07  0.1672E-02  0.2484E-03  0.2071E+01
   -0.899998   30.06808  0.1725E-13  0.1509E-04  0.4012E-07  0.1700E-02  0.2346E-03  0.2209E+01
   -0.950000   30.06860  0.1725E-13  0.1514E-04  0.3994E-07  0.1720E-02  0.2215E-03  0.2354E+01
   -1.000001   30.06910  0.1725E-13  0.1518E-04  0.3985E-07  0.1733E-02  0.2091E-03  0.2556E+01
   -1.050003   30.06960  0.1725E-13  0.1519E-04  0.3985E-07  0.1736E-02  0.1974E-03  0.2888E+01
   -1.100005   30.07009  0.1725E-13  0.1518E-04  0.3996E-07  0.1811E-02  0.1862E-03  0.9709E+01
   -1.150007   30.07056  0.1725E-13  0.1516E-04  0.4019E-07  0.1671E-02  0.1762E-03  0.2146E+02
   -1.200008   30.07107  0.1725E-13  0.1511E-04  0.4053E-07  0.1687E-02  0.1660E-03  0.4157E+01
   -1.250010   30.07158  0.1725E-13  0.1503E-04  0.4102E-07  0.1658E-02  0.1561E-03  0.4455E+01
   -1.300011   30.07209  0.1725E-13  0.1494E-04  0.4170E-07  0.1612E-02  0.1467E-03  0.5182E+01
   -1.350012   30.07261  0.1725E-13  0.1481E-04  0.4261E-07  0.1557E-02  0.1375E-03  0.6211E+01
   -1.400013   30.07315  0.1725E-13  0.1465E-04  0.4381E-07  0.1485E-02  0.1286E-03  0.7611E+01
   -1.450014   30.07372  0.1725E-13  0.1445E-04  0.4543E-07  0.1410E-02  0.1198E-03  0.9676E+01
   -1.500015   30.07432  0.1725E-13  0.1421E-04  0.4763E-07  0.1305E-02  0.1113E-03  0.1298E+02
   -1.550015   30.07498  0.1725E-13  0.1391E-04  0.5070E-07  0.1221E-02  0.1027E-03  0.1826E+02
   -1.600015   30.07569  0.1725E-13  0.1353E-04  0.5529E-07  0.1081E-02  0.9432E-04  0.3248E+02
   -1.650015   30.07653  0.1725E-13  0.1305E-04  0.6225E-07  0.1002E-02  0.8547E-04  0.4384E+02
   -1.700014   30.07746  0.1725E-13  0.1240E-04  0.7465E-07  0.8207E-03  0.7690E-04  0.1508E+04
   -1.750013   30.07907  0.1725E-13  0.1150E-04  0.9519E-07  0.7439E-03  0.6585E-04  0.5151E+05
   -1.800012   30.08054  0.1725E-13  0.1027E-04  0.1365E-06  0.5244E-03  0.5665E-04  0.7902E+06
   -1.850011   30.08557  0.1725E-13  0.8816E-05  0.2158E-06  0.4755E-03  0.4180E-04  0.1277E+09
   -1.900008   30.08534  0.1725E-13  0.7042E-05  0.4497E-06  0.2194E-03  0.3378E-04 -0.4131E+05
   -1.950006   30.10240  0.1725E-13  0.4865E-05  0.1149E-05  0.1724E-03  0.1877E-04 -0.7920E+06
   -2.000003   30.10600  0.1725E-13  0.0000E+00  0.0000E+00  0.0000E+00  0.3194E-04  0.0000E+00
