 1 - depth, m
 2 - temperature, C
 3 - salinity, kg/kg
 4 - turbulent kinetic energy, m**2/s**2
 5 - dissipation rate, m**2/s**3
 6 - kinematic heat conductance, m**2/s
 7 - modulus of horizontal velocity, m/s
 8 - Richardson number, n/d
   -0.000000   30.35842  0.6458E-13  0.4657E-05  0.2874E-06  0.4978E-04  0.8405E-03  0.1966E+05
   -0.049997   30.38813  0.6458E-13  0.8132E-05  0.1274E-06  0.1762E-03  0.4786E-03  0.5861E+02
   -0.099994   30.39973  0.6458E-13  0.9876E-05  0.8775E-07  0.4079E-03  0.3473E-03  0.7311E+02
   -0.149992   30.40279  0.6458E-13  0.1096E-04  0.7399E-07  0.4829E-03  0.3073E-03  0.3567E+02
   -0.199991   30.40527  0.6458E-13  0.1180E-04  0.6587E-07  0.6459E-03  0.2745E-03  0.2315E+02
   -0.249989   30.40708  0.6458E-13  0.1247E-04  0.6054E-07  0.7708E-03  0.2499E-03  0.1720E+02
   -0.299988   30.40855  0.6458E-13  0.1302E-04  0.5673E-07  0.8954E-03  0.2295E-03  0.1374E+02
   -0.349988   30.40978  0.6458E-13  0.1347E-04  0.5387E-07  0.1008E-02  0.2119E-03  0.1179E+02
   -0.399988   30.41085  0.6458E-13  0.1386E-04  0.5165E-07  0.1111E-02  0.1964E-03  0.1052E+02
   -0.449988   30.41181  0.6458E-13  0.1419E-04  0.4985E-07  0.1207E-02  0.1828E-03  0.9893E+01
   -0.499988   30.41266  0.6458E-13  0.1448E-04  0.4836E-07  0.1295E-02  0.1707E-03  0.9620E+01
   -0.549989   30.41345  0.6458E-13  0.1473E-04  0.4712E-07  0.1376E-02  0.1599E-03  0.9504E+01
   -0.599989   30.41418  0.6458E-13  0.1495E-04  0.4607E-07  0.1449E-02  0.1501E-03  0.9507E+01
   -0.649990   30.41486  0.6458E-13  0.1513E-04  0.4520E-07  0.1515E-02  0.1411E-03  0.9640E+01
   -0.699992   30.41550  0.6458E-13  0.1529E-04  0.4446E-07  0.1573E-02  0.1329E-03  0.9859E+01
   -0.749993   30.41611  0.6458E-13  0.1543E-04  0.4385E-07  0.1624E-02  0.1254E-03  0.1020E+02
   -0.799994   30.41669  0.6458E-13  0.1554E-04  0.4335E-07  0.1667E-02  0.1183E-03  0.1063E+02
   -0.849996   30.41725  0.6458E-13  0.1563E-04  0.4295E-07  0.1702E-02  0.1117E-03  0.1120E+02
   -0.899998   30.41780  0.6458E-13  0.1570E-04  0.4266E-07  0.1729E-02  0.1055E-03  0.1188E+02
   -0.949999   30.41833  0.6458E-13  0.1575E-04  0.4246E-07  0.1748E-02  0.9970E-04  0.1274E+02
   -1.000001   30.41886  0.6458E-13  0.1577E-04  0.4235E-07  0.1760E-02  0.9420E-04  0.1376E+02
   -1.050003   30.41937  0.6458E-13  0.1578E-04  0.4235E-07  0.1761E-02  0.8896E-04  0.1563E+02
   -1.100004   30.41988  0.6458E-13  0.1576E-04  0.4246E-07  0.1845E-02  0.8398E-04  0.5217E+02
   -1.150006   30.42037  0.6458E-13  0.1573E-04  0.4270E-07  0.1683E-02  0.7952E-04  0.1157E+03
   -1.200008   30.42090  0.6458E-13  0.1567E-04  0.4307E-07  0.1706E-02  0.7491E-04  0.2253E+02
   -1.250009   30.42142  0.6458E-13  0.1558E-04  0.4360E-07  0.1676E-02  0.7051E-04  0.2407E+02
   -1.300010   30.42195  0.6458E-13  0.1547E-04  0.4433E-07  0.1628E-02  0.6625E-04  0.2816E+02
   -1.350012   30.42249  0.6458E-13  0.1533E-04  0.4532E-07  0.1569E-02  0.6214E-04  0.3363E+02
   -1.400013   30.42306  0.6458E-13  0.1515E-04  0.4664E-07  0.1494E-02  0.5812E-04  0.4145E+02
   -1.450013   30.42365  0.6458E-13  0.1493E-04  0.4842E-07  0.1417E-02  0.5419E-04  0.5257E+02
   -1.500014   30.42428  0.6458E-13  0.1467E-04  0.5087E-07  0.1307E-02  0.5032E-04  0.7088E+02
   -1.550014   30.42496  0.6458E-13  0.1434E-04  0.5430E-07  0.1222E-02  0.4645E-04  0.9987E+02
   -1.600014   30.42570  0.6458E-13  0.1392E-04  0.5946E-07  0.1077E-02  0.4265E-04  0.1785E+03
   -1.650014   30.42660  0.6458E-13  0.1340E-04  0.6741E-07  0.9992E-03  0.3860E-04  0.4839E+03
   -1.700014   30.42760  0.6458E-13  0.1267E-04  0.8160E-07  0.8127E-03  0.3464E-04 -0.4504E+05
   -1.750013   30.42935  0.6458E-13  0.1170E-04  0.1049E-06  0.7405E-03  0.2943E-04  0.1281E+06
   -1.800011   30.43086  0.6458E-13  0.1037E-04  0.1535E-06  0.5106E-03  0.2534E-04  0.3834E+06
   -1.850010   30.43672  0.6458E-13  0.8842E-05  0.2452E-06  0.4731E-03  0.1824E-04  0.2490E+08
   -1.900008   30.43593  0.6458E-13  0.7020E-05  0.5056E-06  0.2137E-03  0.1484E-04  0.3660E+06
   -1.950005   30.45506  0.6458E-13  0.4888E-05  0.1280E-05  0.1826E-03  0.8038E-05 -0.3072E+07
   -2.000002   30.45708  0.6458E-13  0.0000E+00  0.0000E+00  0.0000E+00  0.1440E-04  0.0000E+00
