 1 - depth, m
 2 - temperature, C
 3 - salinity, kg/kg
 4 - turbulent kinetic energy, m**2/s**2
 5 - dissipation rate, m**2/s**3
 6 - kinematic heat conductance, m**2/s
 7 - modulus of horizontal velocity, m/s
 8 - Richardson number, n/d
   -0.000000   30.05022  0.8227E-13  0.4708E-05  0.2737E-06  0.4913E-04  0.2259E-02  0.4921E+04
   -0.049997   30.07919  0.8227E-13  0.7890E-05  0.1215E-06  0.1783E-03  0.1254E-02  0.2464E+04
   -0.099994   30.08936  0.8227E-13  0.9463E-05  0.8444E-07  0.3795E-03  0.9404E-03  0.9983E+01
   -0.149992   30.09252  0.8227E-13  0.1046E-04  0.7079E-07  0.4661E-03  0.8290E-03  0.4901E+01
   -0.199991   30.09497  0.8227E-13  0.1124E-04  0.6277E-07  0.6150E-03  0.7407E-03  0.3160E+01
   -0.249989   30.09678  0.8227E-13  0.1186E-04  0.5749E-07  0.7358E-03  0.6739E-03  0.2324E+01
   -0.299989   30.09824  0.8227E-13  0.1236E-04  0.5370E-07  0.8526E-03  0.6182E-03  0.1851E+01
   -0.349988   30.09947  0.8227E-13  0.1278E-04  0.5085E-07  0.9584E-03  0.5704E-03  0.1597E+01
   -0.399988   30.10053  0.8227E-13  0.1313E-04  0.4860E-07  0.1057E-02  0.5277E-03  0.1460E+01
   -0.449988   30.10147  0.8227E-13  0.1344E-04  0.4673E-07  0.1153E-02  0.4895E-03  0.1399E+01
   -0.499988   30.10231  0.8227E-13  0.1371E-04  0.4517E-07  0.1242E-02  0.4553E-03  0.1382E+01
   -0.549989   30.10308  0.8227E-13  0.1394E-04  0.4385E-07  0.1324E-02  0.4245E-03  0.1368E+01
   -0.599990   30.10379  0.8227E-13  0.1414E-04  0.4272E-07  0.1399E-02  0.3966E-03  0.1367E+01
   -0.649991   30.10445  0.8227E-13  0.1430E-04  0.4177E-07  0.1467E-02  0.3713E-03  0.1368E+01
   -0.699992   30.10506  0.8227E-13  0.1444E-04  0.4096E-07  0.1525E-02  0.3482E-03  0.1383E+01
   -0.749993   30.10564  0.8227E-13  0.1455E-04  0.4027E-07  0.1576E-02  0.3271E-03  0.1400E+01
   -0.799995   30.10620  0.8227E-13  0.1464E-04  0.3970E-07  0.1618E-02  0.3078E-03  0.1437E+01
   -0.849996   30.10673  0.8227E-13  0.1470E-04  0.3923E-07  0.1652E-02  0.2899E-03  0.1483E+01
   -0.899998   30.10725  0.8227E-13  0.1475E-04  0.3885E-07  0.1678E-02  0.2733E-03  0.1558E+01
   -0.950000   30.10775  0.8227E-13  0.1477E-04  0.3856E-07  0.1696E-02  0.2579E-03  0.1647E+01
   -1.000002   30.10824  0.8227E-13  0.1477E-04  0.3836E-07  0.1706E-02  0.2433E-03  0.1773E+01
   -1.050003   30.10872  0.8227E-13  0.1475E-04  0.3825E-07  0.1708E-02  0.2296E-03  0.1996E+01
   -1.100005   30.10919  0.8227E-13  0.1472E-04  0.3824E-07  0.1790E-02  0.2165E-03  0.6654E+01
   -1.150007   30.10964  0.8227E-13  0.1466E-04  0.3833E-07  0.1632E-02  0.2048E-03  0.1487E+02
   -1.200008   30.11012  0.8227E-13  0.1459E-04  0.3854E-07  0.1655E-02  0.1927E-03  0.2853E+01
   -1.250010   30.11060  0.8227E-13  0.1448E-04  0.3889E-07  0.1626E-02  0.1812E-03  0.3029E+01
   -1.300011   30.11108  0.8227E-13  0.1436E-04  0.3941E-07  0.1580E-02  0.1701E-03  0.3516E+01
   -1.350012   30.11156  0.8227E-13  0.1420E-04  0.4015E-07  0.1524E-02  0.1593E-03  0.4188E+01
   -1.400013   30.11207  0.8227E-13  0.1402E-04  0.4117E-07  0.1452E-02  0.1489E-03  0.5117E+01
   -1.450014   30.11259  0.8227E-13  0.1380E-04  0.4258E-07  0.1376E-02  0.1386E-03  0.6466E+01
   -1.500015   30.11314  0.8227E-13  0.1353E-04  0.4455E-07  0.1271E-02  0.1286E-03  0.8616E+01
   -1.550015   30.11374  0.8227E-13  0.1321E-04  0.4735E-07  0.1186E-02  0.1186E-03  0.1206E+02
   -1.600015   30.11438  0.8227E-13  0.1281E-04  0.5159E-07  0.1048E-02  0.1087E-03  0.2017E+02
   -1.650015   30.11514  0.8227E-13  0.1231E-04  0.5819E-07  0.9706E-03  0.9836E-04  0.1460E+04
   -1.700015   30.11599  0.8227E-13  0.1163E-04  0.7022E-07  0.7929E-03  0.8822E-04 -0.8732E+03
   -1.750014   30.11746  0.8227E-13  0.1070E-04  0.9029E-07  0.7141E-03  0.7494E-04  0.1491E+05
   -1.800013   30.11883  0.8227E-13  0.9421E-05  0.1323E-06  0.4962E-03  0.6404E-04  0.2725E+05
   -1.850011   30.12362  0.8227E-13  0.7967E-05  0.2099E-06  0.4541E-03  0.4597E-04  0.2436E+07
   -1.900009   30.12299  0.8227E-13  0.6280E-05  0.4331E-06  0.2018E-03  0.3725E-04  0.3447E+04
   -1.950006   30.13880  0.8227E-13  0.4341E-05  0.1099E-05  0.1775E-03  0.1992E-04 -0.2175E+06
   -2.000003   30.14031  0.8227E-13  0.0000E+00  0.0000E+00  0.0000E+00  0.3641E-04  0.0000E+00
