 1 - depth, m
 2 - temperature, C
 3 - salinity, kg/kg
 4 - turbulent kinetic energy, m**2/s**2
 5 - dissipation rate, m**2/s**3
 6 - kinematic heat conductance, m**2/s
 7 - modulus of horizontal velocity, m/s
 8 - Richardson number, n/d
   -0.000000   30.24233  0.1558E-14  0.4604E-05  0.2806E-06  0.4920E-04  0.1121E-02  0.7257E+04
   -0.049997   30.27144  0.1558E-14  0.7991E-05  0.1248E-06  0.1765E-03  0.6344E-03  0.1074E+03
   -0.099994   30.28262  0.1558E-14  0.9704E-05  0.8618E-07  0.3993E-03  0.4638E-03  0.3655E+02
   -0.149992   30.28566  0.1558E-14  0.1078E-04  0.7254E-07  0.4793E-03  0.4097E-03  0.1788E+02
   -0.199991   30.28810  0.1558E-14  0.1161E-04  0.6454E-07  0.6399E-03  0.3659E-03  0.1153E+02
   -0.249989   30.28988  0.1558E-14  0.1228E-04  0.5930E-07  0.7644E-03  0.3330E-03  0.8545E+01
   -0.299988   30.29132  0.1558E-14  0.1283E-04  0.5557E-07  0.8885E-03  0.3057E-03  0.6815E+01
   -0.349988   30.29254  0.1558E-14  0.1328E-04  0.5278E-07  0.1001E-02  0.2822E-03  0.5847E+01
   -0.399988   30.29360  0.1558E-14  0.1366E-04  0.5061E-07  0.1104E-02  0.2615E-03  0.5215E+01
   -0.449988   30.29454  0.1558E-14  0.1400E-04  0.4886E-07  0.1199E-02  0.2433E-03  0.4907E+01
   -0.499988   30.29539  0.1558E-14  0.1429E-04  0.4741E-07  0.1287E-02  0.2272E-03  0.4774E+01
   -0.549989   30.29616  0.1558E-14  0.1454E-04  0.4621E-07  0.1368E-02  0.2127E-03  0.4722E+01
   -0.599990   30.29688  0.1558E-14  0.1476E-04  0.4520E-07  0.1441E-02  0.1996E-03  0.4724E+01
   -0.649991   30.29756  0.1558E-14  0.1495E-04  0.4436E-07  0.1506E-02  0.1877E-03  0.4797E+01
   -0.699992   30.29819  0.1558E-14  0.1511E-04  0.4365E-07  0.1564E-02  0.1768E-03  0.4905E+01
   -0.749993   30.29880  0.1558E-14  0.1525E-04  0.4306E-07  0.1615E-02  0.1667E-03  0.5082E+01
   -0.799995   30.29938  0.1558E-14  0.1536E-04  0.4259E-07  0.1657E-02  0.1573E-03  0.5295E+01
   -0.849996   30.29993  0.1558E-14  0.1545E-04  0.4221E-07  0.1693E-02  0.1485E-03  0.5585E+01
   -0.899998   30.30048  0.1558E-14  0.1552E-04  0.4194E-07  0.1720E-02  0.1403E-03  0.5922E+01
   -0.950000   30.30101  0.1558E-14  0.1557E-04  0.4175E-07  0.1739E-02  0.1325E-03  0.6359E+01
   -1.000001   30.30152  0.1558E-14  0.1560E-04  0.4167E-07  0.1750E-02  0.1252E-03  0.6865E+01
   -1.050003   30.30204  0.1558E-14  0.1561E-04  0.4168E-07  0.1752E-02  0.1182E-03  0.7809E+01
   -1.100005   30.30255  0.1558E-14  0.1560E-04  0.4180E-07  0.1834E-02  0.1115E-03  0.2599E+02
   -1.150006   30.30303  0.1558E-14  0.1556E-04  0.4205E-07  0.1674E-02  0.1056E-03  0.5814E+02
   -1.200008   30.30356  0.1558E-14  0.1551E-04  0.4242E-07  0.1696E-02  0.9948E-04  0.1129E+02
   -1.250009   30.30408  0.1558E-14  0.1542E-04  0.4296E-07  0.1666E-02  0.9361E-04  0.1205E+02
   -1.300011   30.30460  0.1558E-14  0.1531E-04  0.4369E-07  0.1618E-02  0.8795E-04  0.1413E+02
   -1.350012   30.30515  0.1558E-14  0.1518E-04  0.4468E-07  0.1560E-02  0.8247E-04  0.1687E+02
   -1.400013   30.30570  0.1558E-14  0.1500E-04  0.4599E-07  0.1485E-02  0.7714E-04  0.2085E+02
   -1.450014   30.30629  0.1558E-14  0.1478E-04  0.4776E-07  0.1408E-02  0.7190E-04  0.2647E+02
   -1.500014   30.30692  0.1558E-14  0.1452E-04  0.5018E-07  0.1298E-02  0.6677E-04  0.3586E+02
   -1.550015   30.30760  0.1558E-14  0.1419E-04  0.5358E-07  0.1215E-02  0.6161E-04  0.5063E+02
   -1.600015   30.30834  0.1558E-14  0.1378E-04  0.5875E-07  0.1069E-02  0.5657E-04  0.9537E+02
   -1.650015   30.30924  0.1558E-14  0.1326E-04  0.6667E-07  0.9914E-03  0.5114E-04  0.3846E+05
   -1.700014   30.31023  0.1558E-14  0.1253E-04  0.8079E-07  0.8071E-03  0.4592E-04 -0.4716E+04
   -1.750013   30.31200  0.1558E-14  0.1156E-04  0.1040E-06  0.7316E-03  0.3895E-04  0.6810E+05
   -1.800012   30.31350  0.1558E-14  0.1025E-04  0.1518E-06  0.5115E-03  0.3351E-04  0.3314E+05
   -1.850010   30.31927  0.1558E-14  0.8753E-05  0.2426E-06  0.4676E-03  0.2419E-04  0.1281E+08
   -1.900008   30.31850  0.1558E-14  0.6968E-05  0.5041E-06  0.2150E-03  0.1966E-04 -0.6107E+05
   -1.950006   30.33713  0.1558E-14  0.4843E-05  0.1272E-05  0.1820E-03  0.1070E-04 -0.3593E+07
   -2.000003   30.33975  0.1558E-14  0.0000E+00  0.0000E+00  0.0000E+00  0.1912E-04  0.0000E+00
