 1 - depth, m
 2 - temperature, C
 3 - salinity, kg/kg
 4 - turbulent kinetic energy, m**2/s**2
 5 - dissipation rate, m**2/s**3
 6 - kinematic heat conductance, m**2/s
 7 - modulus of horizontal velocity, m/s
 8 - Richardson number, n/d
   -0.000000   30.90111  0.1267E-14  0.5105E-05  0.3275E-06  0.5127E-04  0.1347E-02  0.1375E+05
   -0.049997   30.93388  0.1267E-14  0.8753E-05  0.1459E-06  0.1839E-03  0.7661E-03  0.6242E+02
   -0.099994   30.94623  0.1267E-14  0.1061E-04  0.1006E-06  0.4070E-03  0.5648E-03  0.2748E+02
   -0.149992   30.94968  0.1267E-14  0.1178E-04  0.8438E-07  0.4906E-03  0.4992E-03  0.1355E+02
   -0.199991   30.95242  0.1267E-14  0.1269E-04  0.7486E-07  0.6564E-03  0.4462E-03  0.8661E+01
   -0.249989   30.95440  0.1267E-14  0.1341E-04  0.6863E-07  0.7841E-03  0.4065E-03  0.6394E+01
   -0.299988   30.95602  0.1267E-14  0.1400E-04  0.6419E-07  0.9126E-03  0.3736E-03  0.5078E+01
   -0.349988   30.95737  0.1267E-14  0.1448E-04  0.6085E-07  0.1028E-02  0.3453E-03  0.4339E+01
   -0.399988   30.95854  0.1267E-14  0.1489E-04  0.5826E-07  0.1134E-02  0.3204E-03  0.3859E+01
   -0.449988   30.95957  0.1267E-14  0.1524E-04  0.5615E-07  0.1233E-02  0.2984E-03  0.3619E+01
   -0.499988   30.96051  0.1267E-14  0.1554E-04  0.5440E-07  0.1323E-02  0.2789E-03  0.3513E+01
   -0.549989   30.96136  0.1267E-14  0.1580E-04  0.5294E-07  0.1405E-02  0.2615E-03  0.3462E+01
   -0.599989   30.96215  0.1267E-14  0.1602E-04  0.5170E-07  0.1480E-02  0.2457E-03  0.3456E+01
   -0.649990   30.96289  0.1267E-14  0.1621E-04  0.5065E-07  0.1547E-02  0.2313E-03  0.3495E+01
   -0.699992   30.96358  0.1267E-14  0.1637E-04  0.4976E-07  0.1606E-02  0.2181E-03  0.3565E+01
   -0.749993   30.96424  0.1267E-14  0.1650E-04  0.4902E-07  0.1657E-02  0.2059E-03  0.3678E+01
   -0.799994   30.96487  0.1267E-14  0.1660E-04  0.4840E-07  0.1701E-02  0.1945E-03  0.3824E+01
   -0.849996   30.96547  0.1267E-14  0.1668E-04  0.4789E-07  0.1736E-02  0.1838E-03  0.4016E+01
   -0.899998   30.96606  0.1267E-14  0.1674E-04  0.4750E-07  0.1763E-02  0.1738E-03  0.4249E+01
   -0.949999   30.96663  0.1267E-14  0.1677E-04  0.4722E-07  0.1781E-02  0.1644E-03  0.4544E+01
   -1.000001   30.96719  0.1267E-14  0.1678E-04  0.4705E-07  0.1792E-02  0.1554E-03  0.4897E+01
   -1.050003   30.96774  0.1267E-14  0.1677E-04  0.4699E-07  0.1791E-02  0.1470E-03  0.5539E+01
   -1.100004   30.96829  0.1267E-14  0.1674E-04  0.4706E-07  0.1887E-02  0.1389E-03  0.1819E+02
   -1.150006   30.96880  0.1267E-14  0.1668E-04  0.4728E-07  0.1694E-02  0.1317E-03  0.4224E+02
   -1.200008   30.96937  0.1267E-14  0.1659E-04  0.4763E-07  0.1727E-02  0.1241E-03  0.8027E+01
   -1.250009   30.96993  0.1267E-14  0.1648E-04  0.4819E-07  0.1696E-02  0.1169E-03  0.8526E+01
   -1.300010   30.97049  0.1267E-14  0.1634E-04  0.4897E-07  0.1644E-02  0.1099E-03  0.1000E+02
   -1.350011   30.97106  0.1267E-14  0.1616E-04  0.5005E-07  0.1582E-02  0.1032E-03  0.1198E+02
   -1.400013   30.97166  0.1267E-14  0.1594E-04  0.5153E-07  0.1501E-02  0.9662E-04  0.1489E+02
   -1.450013   30.97229  0.1267E-14  0.1567E-04  0.5357E-07  0.1420E-02  0.9015E-04  0.1909E+02
   -1.500014   30.97295  0.1267E-14  0.1535E-04  0.5642E-07  0.1307E-02  0.8377E-04  0.2624E+02
   -1.550014   30.97368  0.1267E-14  0.1496E-04  0.6051E-07  0.1219E-02  0.7735E-04  0.3835E+02
   -1.600014   30.97447  0.1267E-14  0.1447E-04  0.6684E-07  0.1076E-02  0.7102E-04  0.9929E+02
   -1.650014   30.97546  0.1267E-14  0.1384E-04  0.7685E-07  0.9898E-03  0.6420E-04  0.2563E+03
   -1.700013   30.97661  0.1267E-14  0.1297E-04  0.9450E-07  0.8087E-03  0.5730E-04 -0.5406E+03
   -1.750013   30.97858  0.1267E-14  0.1187E-04  0.1229E-06  0.7285E-03  0.4842E-04  0.3303E+06
   -1.800011   30.98014  0.1267E-14  0.1041E-04  0.1832E-06  0.5059E-03  0.4162E-04  0.2970E+04
   -1.850010   30.98719  0.1267E-14  0.8827E-05  0.2989E-06  0.4686E-03  0.2953E-04  0.4504E+08
   -1.900007   30.98540  0.1267E-14  0.6983E-05  0.6308E-06  0.2108E-03  0.2412E-04 -0.2510E+06
   -1.950005   31.00625  0.1267E-14  0.4919E-05  0.1548E-05  0.1996E-03  0.1287E-04 -0.8968E+06
   -2.000002   31.00734  0.1267E-14  0.0000E+00  0.0000E+00  0.0000E+00  0.2422E-04  0.0000E+00
