 1 - depth, m
 2 - temperature, C
 3 - salinity, kg/kg
 4 - turbulent kinetic energy, m**2/s**2
 5 - dissipation rate, m**2/s**3
 6 - kinematic heat conductance, m**2/s
 7 - modulus of horizontal velocity, m/s
 8 - Richardson number, n/d
   -0.000000   31.69700  0.1098E-14  0.5628E-05  0.3779E-06  0.5287E-04  0.4477E-03  0.2813E+05
   -0.049997   31.73491  0.1098E-14  0.9882E-05  0.1680E-06  0.2015E-03  0.2525E-03  0.3406E+05
   -0.099994   31.74735  0.1098E-14  0.1191E-04  0.1167E-06  0.4410E-03  0.1874E-03  0.2496E+03
   -0.149992   31.75107  0.1098E-14  0.1319E-04  0.9837E-07  0.5199E-03  0.1665E-03  0.1255E+03
   -0.199990   31.75406  0.1098E-14  0.1419E-04  0.8755E-07  0.6977E-03  0.1493E-03  0.8199E+02
   -0.249989   31.75623  0.1098E-14  0.1498E-04  0.8043E-07  0.8308E-03  0.1365E-03  0.6131E+02
   -0.299988   31.75800  0.1098E-14  0.1563E-04  0.7534E-07  0.9647E-03  0.1258E-03  0.4907E+02
   -0.349987   31.75948  0.1098E-14  0.1616E-04  0.7152E-07  0.1085E-02  0.1165E-03  0.4212E+02
   -0.399987   31.76077  0.1098E-14  0.1660E-04  0.6853E-07  0.1195E-02  0.1084E-03  0.3757E+02
   -0.449987   31.76191  0.1098E-14  0.1698E-04  0.6610E-07  0.1296E-02  0.1012E-03  0.3531E+02
   -0.499987   31.76294  0.1098E-14  0.1731E-04  0.6409E-07  0.1389E-02  0.9483E-04  0.3431E+02
   -0.549988   31.76388  0.1098E-14  0.1759E-04  0.6240E-07  0.1473E-02  0.8910E-04  0.3387E+02
   -0.599989   31.76476  0.1098E-14  0.1782E-04  0.6098E-07  0.1549E-02  0.8390E-04  0.3385E+02
   -0.649990   31.76558  0.1098E-14  0.1802E-04  0.5978E-07  0.1616E-02  0.7914E-04  0.3431E+02
   -0.699991   31.76635  0.1098E-14  0.1819E-04  0.5877E-07  0.1675E-02  0.7476E-04  0.3507E+02
   -0.749992   31.76708  0.1098E-14  0.1832E-04  0.5792E-07  0.1725E-02  0.7069E-04  0.3629E+02
   -0.799994   31.76778  0.1098E-14  0.1842E-04  0.5723E-07  0.1767E-02  0.6690E-04  0.3782E+02
   -0.849995   31.76846  0.1098E-14  0.1850E-04  0.5667E-07  0.1799E-02  0.6335E-04  0.3990E+02
   -0.899997   31.76911  0.1098E-14  0.1855E-04  0.5626E-07  0.1823E-02  0.6001E-04  0.4236E+02
   -0.949998   31.76975  0.1098E-14  0.1857E-04  0.5597E-07  0.1837E-02  0.5684E-04  0.4557E+02
   -1.000000   31.77038  0.1098E-14  0.1856E-04  0.5582E-07  0.1843E-02  0.5384E-04  0.4934E+02
   -1.050002   31.77100  0.1098E-14  0.1852E-04  0.5582E-07  0.1835E-02  0.5098E-04  0.5618E+02
   -1.100003   31.77162  0.1098E-14  0.1846E-04  0.5598E-07  0.1963E-02  0.4825E-04  0.1789E+03
   -1.150005   31.77219  0.1098E-14  0.1837E-04  0.5635E-07  0.1684E-02  0.4585E-04  0.4633E+03
   -1.200006   31.77286  0.1098E-14  0.1825E-04  0.5691E-07  0.1742E-02  0.4322E-04  0.8464E+02
   -1.250008   31.77349  0.1098E-14  0.1809E-04  0.5773E-07  0.1708E-02  0.4076E-04  0.9048E+02
   -1.300009   31.77414  0.1098E-14  0.1789E-04  0.5888E-07  0.1643E-02  0.3838E-04  0.1082E+03
   -1.350010   31.77481  0.1098E-14  0.1765E-04  0.6047E-07  0.1574E-02  0.3606E-04  0.1325E+03
   -1.400011   31.77551  0.1098E-14  0.1736E-04  0.6268E-07  0.1477E-02  0.3379E-04  0.1703E+03
   -1.450012   31.77625  0.1098E-14  0.1700E-04  0.6575E-07  0.1395E-02  0.3152E-04  0.2265E+03
   -1.500012   31.77705  0.1098E-14  0.1657E-04  0.7017E-07  0.1267E-02  0.2929E-04  0.3329E+03
   -1.550013   31.77795  0.1098E-14  0.1605E-04  0.7671E-07  0.1190E-02  0.2701E-04  0.5852E+03
   -1.600013   31.77895  0.1098E-14  0.1537E-04  0.8749E-07  0.1034E-02  0.2474E-04  0.1890E+04
   -1.650012   31.78037  0.1098E-14  0.1448E-04  0.1042E-06  0.9529E-03  0.2210E-04  0.2146E+06
   -1.700012   31.78195  0.1098E-14  0.1326E-04  0.1336E-06  0.7669E-03  0.1950E-04  0.3677E+06
   -1.750011   31.78501  0.1098E-14  0.1188E-04  0.1810E-06  0.6946E-03  0.1589E-04  0.8412E+07
   -1.800009   31.78653  0.1098E-14  0.1019E-04  0.2866E-06  0.4661E-03  0.1369E-04  0.1125E+07
   -1.850008   31.79843  0.1098E-14  0.8581E-05  0.4856E-06  0.4566E-03  0.8959E-05  0.2779E+10
   -1.900005   31.79240  0.1098E-14  0.6879E-05  0.1016E-05  0.2153E-03  0.7573E-05  0.6986E+08
   -1.950003   31.82137  0.1098E-14  0.5007E-05  0.2354E-05  0.2426E-03  0.3876E-05 -0.1889E+08
   -2.000000   31.81959  0.1098E-14  0.0000E+00  0.0000E+00  0.0000E+00  0.8491E-05  0.0000E+00
