 1 - depth, m
 2 - temperature, C
 3 - salinity, kg/kg
 4 - turbulent kinetic energy, m**2/s**2
 5 - dissipation rate, m**2/s**3
 6 - kinematic heat conductance, m**2/s
 7 - modulus of horizontal velocity, m/s
 8 - Richardson number, n/d
   -0.000000   31.64167  0.4561E-14  0.5222E-05  0.3459E-06  0.5312E-04  0.7608E-03  0.1746E+04
   -0.049997   31.67449  0.4561E-14  0.9085E-05  0.1532E-06  0.1845E-03  0.4383E-03  0.4707E+03
   -0.099994   31.68739  0.4561E-14  0.1104E-04  0.1051E-06  0.4277E-03  0.3183E-03  0.8317E+02
   -0.149992   31.69078  0.4561E-14  0.1226E-04  0.8847E-07  0.5011E-03  0.2826E-03  0.4097E+02
   -0.199990   31.69354  0.4561E-14  0.1320E-04  0.7868E-07  0.6750E-03  0.2528E-03  0.2648E+02
   -0.249989   31.69554  0.4561E-14  0.1395E-04  0.7227E-07  0.8045E-03  0.2307E-03  0.1967E+02
   -0.299988   31.69716  0.4561E-14  0.1456E-04  0.6771E-07  0.9356E-03  0.2123E-03  0.1570E+02
   -0.349988   31.69853  0.4561E-14  0.1507E-04  0.6429E-07  0.1053E-02  0.1965E-03  0.1345E+02
   -0.399987   31.69972  0.4561E-14  0.1550E-04  0.6163E-07  0.1161E-02  0.1825E-03  0.1199E+02
   -0.449987   31.70077  0.4561E-14  0.1587E-04  0.5948E-07  0.1261E-02  0.1702E-03  0.1125E+02
   -0.499988   31.70172  0.4561E-14  0.1618E-04  0.5770E-07  0.1352E-02  0.1593E-03  0.1094E+02
   -0.549988   31.70259  0.4561E-14  0.1646E-04  0.5622E-07  0.1435E-02  0.1495E-03  0.1079E+02
   -0.599989   31.70339  0.4561E-14  0.1669E-04  0.5498E-07  0.1510E-02  0.1406E-03  0.1079E+02
   -0.649990   31.70415  0.4561E-14  0.1689E-04  0.5394E-07  0.1577E-02  0.1325E-03  0.1092E+02
   -0.699991   31.70486  0.4561E-14  0.1706E-04  0.5307E-07  0.1636E-02  0.1250E-03  0.1118E+02
   -0.749992   31.70554  0.4561E-14  0.1720E-04  0.5235E-07  0.1686E-02  0.1181E-03  0.1155E+02
   -0.799994   31.70618  0.4561E-14  0.1732E-04  0.5177E-07  0.1729E-02  0.1117E-03  0.1205E+02
   -0.849995   31.70681  0.4561E-14  0.1741E-04  0.5131E-07  0.1762E-02  0.1057E-03  0.1268E+02
   -0.899997   31.70742  0.4561E-14  0.1747E-04  0.5097E-07  0.1788E-02  0.9998E-04  0.1348E+02
   -0.949998   31.70801  0.4561E-14  0.1751E-04  0.5076E-07  0.1804E-02  0.9463E-04  0.1446E+02
   -1.000000   31.70860  0.4561E-14  0.1752E-04  0.5067E-07  0.1811E-02  0.8956E-04  0.1567E+02
   -1.050002   31.70917  0.4561E-14  0.1751E-04  0.5071E-07  0.1807E-02  0.8473E-04  0.1779E+02
   -1.100003   31.70975  0.4561E-14  0.1747E-04  0.5089E-07  0.1918E-02  0.8012E-04  0.5764E+02
   -1.150005   31.71029  0.4561E-14  0.1741E-04  0.5125E-07  0.1685E-02  0.7605E-04  0.1420E+03
   -1.200007   31.71090  0.4561E-14  0.1732E-04  0.5177E-07  0.1728E-02  0.7168E-04  0.2642E+02
   -1.250008   31.71149  0.4561E-14  0.1720E-04  0.5252E-07  0.1695E-02  0.6755E-04  0.2830E+02
   -1.300009   31.71210  0.4561E-14  0.1704E-04  0.5356E-07  0.1636E-02  0.6357E-04  0.3351E+02
   -1.350010   31.71272  0.4561E-14  0.1685E-04  0.5496E-07  0.1571E-02  0.5969E-04  0.4078E+02
   -1.400011   31.71337  0.4561E-14  0.1661E-04  0.5685E-07  0.1482E-02  0.5590E-04  0.5157E+02
   -1.450012   31.71406  0.4561E-14  0.1631E-04  0.5945E-07  0.1400E-02  0.5214E-04  0.6760E+02
   -1.500013   31.71480  0.4561E-14  0.1595E-04  0.6312E-07  0.1277E-02  0.4845E-04  0.9626E+02
   -1.550013   31.71563  0.4561E-14  0.1551E-04  0.6841E-07  0.1198E-02  0.4468E-04  0.1496E+03
   -1.600013   31.71653  0.4561E-14  0.1494E-04  0.7690E-07  0.1044E-02  0.4099E-04  0.2064E+04
   -1.650013   31.71774  0.4561E-14  0.1419E-04  0.9013E-07  0.9655E-03  0.3680E-04  0.1265E+05
   -1.700012   31.71911  0.4561E-14  0.1317E-04  0.1132E-06  0.7789E-03  0.3271E-04  0.8895E+05
   -1.750011   31.72166  0.4561E-14  0.1192E-04  0.1506E-06  0.7065E-03  0.2710E-04  0.1541E+07
   -1.800010   31.72323  0.4561E-14  0.1033E-04  0.2359E-06  0.4795E-03  0.2333E-04  0.1615E+06
   -1.850008   31.73311  0.4561E-14  0.8702E-05  0.3934E-06  0.4571E-03  0.1581E-04  0.6991E+09
   -1.900006   31.72916  0.4561E-14  0.6931E-05  0.8191E-06  0.2154E-03  0.1311E-04 -0.2119E+07
   -1.950003   31.75490  0.4561E-14  0.4985E-05  0.1955E-05  0.2214E-03  0.6852E-05 -0.2878E+07
   -2.000000   31.75519  0.4561E-14  0.0000E+00  0.0000E+00  0.0000E+00  0.1398E-04  0.0000E+00
