 1 - depth, m
 2 - temperature, C
 3 - salinity, kg/kg
 4 - turbulent kinetic energy, m**2/s**2
 5 - dissipation rate, m**2/s**3
 6 - kinematic heat conductance, m**2/s
 7 - modulus of horizontal velocity, m/s
 8 - Richardson number, n/d
   -0.000000   30.24559  0.4463E-14  0.4955E-05  0.2932E-06  0.5060E-04  0.2404E-02  0.4105E+04
   -0.049997   30.27526  0.4463E-14  0.8297E-05  0.1296E-06  0.1874E-03  0.1317E-02  0.3763E+03
   -0.099994   30.28523  0.4463E-14  0.9930E-05  0.9065E-07  0.3875E-03  0.9985E-03  0.8030E+01
   -0.149992   30.28848  0.4463E-14  0.1099E-04  0.7595E-07  0.4799E-03  0.8805E-03  0.4052E+01
   -0.199991   30.29098  0.4463E-14  0.1182E-04  0.6737E-07  0.6328E-03  0.7876E-03  0.2619E+01
   -0.249989   30.29282  0.4463E-14  0.1248E-04  0.6175E-07  0.7577E-03  0.7172E-03  0.1934E+01
   -0.299988   30.29432  0.4463E-14  0.1302E-04  0.5775E-07  0.8791E-03  0.6588E-03  0.1543E+01
   -0.349988   30.29558  0.4463E-14  0.1347E-04  0.5475E-07  0.9876E-03  0.6085E-03  0.1330E+01
   -0.399988   30.29667  0.4463E-14  0.1385E-04  0.5241E-07  0.1087E-02  0.5640E-03  0.1226E+01
   -0.449988   30.29765  0.4463E-14  0.1419E-04  0.5048E-07  0.1185E-02  0.5241E-03  0.1203E+01
   -0.499988   30.29853  0.4463E-14  0.1449E-04  0.4885E-07  0.1280E-02  0.4880E-03  0.1203E+01
   -0.549989   30.29932  0.4463E-14  0.1475E-04  0.4749E-07  0.1367E-02  0.4554E-03  0.1200E+01
   -0.599990   30.30006  0.4463E-14  0.1497E-04  0.4633E-07  0.1446E-02  0.4258E-03  0.1198E+01
   -0.649991   30.30074  0.4463E-14  0.1516E-04  0.4537E-07  0.1517E-02  0.3989E-03  0.1196E+01
   -0.699992   30.30138  0.4464E-14  0.1533E-04  0.4456E-07  0.1579E-02  0.3745E-03  0.1195E+01
   -0.749993   30.30199  0.4464E-14  0.1546E-04  0.4390E-07  0.1631E-02  0.3522E-03  0.1200E+01
   -0.799995   30.30257  0.4464E-14  0.1557E-04  0.4336E-07  0.1674E-02  0.3318E-03  0.1218E+01
   -0.849996   30.30313  0.4464E-14  0.1565E-04  0.4293E-07  0.1708E-02  0.3130E-03  0.1253E+01
   -0.899998   30.30368  0.4464E-14  0.1571E-04  0.4261E-07  0.1734E-02  0.2956E-03  0.1313E+01
   -0.950000   30.30421  0.4464E-14  0.1575E-04  0.4238E-07  0.1752E-02  0.2792E-03  0.1398E+01
   -1.000001   30.30473  0.4464E-14  0.1576E-04  0.4225E-07  0.1762E-02  0.2639E-03  0.1510E+01
   -1.050003   30.30524  0.4464E-14  0.1576E-04  0.4222E-07  0.1763E-02  0.2493E-03  0.1710E+01
   -1.100005   30.30575  0.4464E-14  0.1573E-04  0.4229E-07  0.1851E-02  0.2353E-03  0.5670E+01
   -1.150006   30.30623  0.4464E-14  0.1569E-04  0.4250E-07  0.1677E-02  0.2229E-03  0.1289E+02
   -1.200008   30.30676  0.4464E-14  0.1562E-04  0.4283E-07  0.1704E-02  0.2100E-03  0.2472E+01
   -1.250009   30.30727  0.4464E-14  0.1552E-04  0.4333E-07  0.1674E-02  0.1977E-03  0.2635E+01
   -1.300011   30.30780  0.4464E-14  0.1540E-04  0.4403E-07  0.1625E-02  0.1858E-03  0.3081E+01
   -1.350012   30.30833  0.4464E-14  0.1525E-04  0.4498E-07  0.1566E-02  0.1742E-03  0.3687E+01
   -1.400013   30.30889  0.4464E-14  0.1506E-04  0.4626E-07  0.1489E-02  0.1630E-03  0.4553E+01
   -1.450014   30.30947  0.4464E-14  0.1483E-04  0.4800E-07  0.1412E-02  0.1520E-03  0.5796E+01
   -1.500014   30.31009  0.4464E-14  0.1455E-04  0.5041E-07  0.1300E-02  0.1412E-03  0.7867E+01
   -1.550015   30.31076  0.4464E-14  0.1421E-04  0.5382E-07  0.1216E-02  0.1303E-03  0.1116E+02
   -1.600015   30.31149  0.4464E-14  0.1378E-04  0.5900E-07  0.1073E-02  0.1197E-03  0.2034E+02
   -1.650015   30.31237  0.4464E-14  0.1324E-04  0.6699E-07  0.9931E-03  0.1083E-03  0.4032E+03
   -1.700014   30.31336  0.4464E-14  0.1249E-04  0.8140E-07  0.8120E-03  0.9719E-04 -0.2699E+04
   -1.750013   30.31514  0.4464E-14  0.1149E-04  0.1052E-06  0.7310E-03  0.8238E-04  0.1661E+05
   -1.800012   30.31665  0.4464E-14  0.1013E-04  0.1563E-06  0.5114E-03  0.7072E-04  0.8756E+04
   -1.850010   30.32258  0.4464E-14  0.8627E-05  0.2502E-06  0.4675E-03  0.5090E-04  0.3960E+07
   -1.900008   30.32153  0.4464E-14  0.6847E-05  0.5278E-06  0.2147E-03  0.4137E-04  0.6745E+05
   -1.950006   30.34005  0.4464E-14  0.4777E-05  0.1312E-05  0.1870E-03  0.2242E-04 -0.2592E+06
   -2.000003   30.34198  0.4464E-14  0.0000E+00  0.0000E+00  0.0000E+00  0.4072E-04  0.0000E+00
