 1 - depth, m
 2 - temperature, C
 3 - salinity, kg/kg
 4 - turbulent kinetic energy, m**2/s**2
 5 - dissipation rate, m**2/s**3
 6 - kinematic heat conductance, m**2/s
 7 - modulus of horizontal velocity, m/s
 8 - Richardson number, n/d
   -0.000000   30.14213  0.3901E-13  0.4677E-05  0.2819E-06  0.4936E-04  0.1823E-02  0.3303E+04
   -0.049997   30.17126  0.3901E-13  0.7953E-05  0.1254E-06  0.1745E-03  0.1037E-02  0.6354E+04
   -0.099994   30.18228  0.3901E-13  0.9621E-05  0.8635E-07  0.3897E-03  0.7610E-03  0.1654E+02
   -0.149992   30.18539  0.3901E-13  0.1067E-04  0.7244E-07  0.4713E-03  0.6716E-03  0.8067E+01
   -0.199991   30.18787  0.3901E-13  0.1148E-04  0.6429E-07  0.6276E-03  0.5994E-03  0.5188E+01
   -0.249989   30.18967  0.3901E-13  0.1213E-04  0.5895E-07  0.7505E-03  0.5453E-03  0.3810E+01
   -0.299989   30.19114  0.3901E-13  0.1266E-04  0.5513E-07  0.8724E-03  0.5002E-03  0.3037E+01
   -0.349988   30.19237  0.3901E-13  0.1310E-04  0.5227E-07  0.9830E-03  0.4616E-03  0.2584E+01
   -0.399988   30.19343  0.3901E-13  0.1347E-04  0.5004E-07  0.1084E-02  0.4274E-03  0.2310E+01
   -0.449988   30.19438  0.3901E-13  0.1379E-04  0.4823E-07  0.1178E-02  0.3974E-03  0.2156E+01
   -0.499988   30.19523  0.3901E-13  0.1406E-04  0.4673E-07  0.1265E-02  0.3709E-03  0.2109E+01
   -0.549989   30.19601  0.3901E-13  0.1430E-04  0.4548E-07  0.1344E-02  0.3471E-03  0.2069E+01
   -0.599990   30.19673  0.3901E-13  0.1450E-04  0.4442E-07  0.1416E-02  0.3256E-03  0.2081E+01
   -0.649991   30.19741  0.3901E-13  0.1468E-04  0.4352E-07  0.1481E-02  0.3060E-03  0.2094E+01
   -0.699992   30.19804  0.3901E-13  0.1483E-04  0.4276E-07  0.1538E-02  0.2880E-03  0.2152E+01
   -0.749993   30.19864  0.3901E-13  0.1495E-04  0.4213E-07  0.1587E-02  0.2714E-03  0.2207E+01
   -0.799995   30.19922  0.3901E-13  0.1505E-04  0.4160E-07  0.1630E-02  0.2560E-03  0.2313E+01
   -0.849996   30.19977  0.3901E-13  0.1513E-04  0.4117E-07  0.1664E-02  0.2416E-03  0.2414E+01
   -0.899998   30.20031  0.3901E-13  0.1519E-04  0.4084E-07  0.1691E-02  0.2281E-03  0.2576E+01
   -0.950000   30.20083  0.3901E-13  0.1522E-04  0.4060E-07  0.1710E-02  0.2154E-03  0.2735E+01
   -1.000001   30.20134  0.3901E-13  0.1524E-04  0.4045E-07  0.1721E-02  0.2033E-03  0.2973E+01
   -1.050003   30.20184  0.3901E-13  0.1524E-04  0.4041E-07  0.1722E-02  0.1919E-03  0.3342E+01
   -1.100005   30.20234  0.3901E-13  0.1521E-04  0.4046E-07  0.1805E-02  0.1811E-03  0.1120E+02
   -1.150006   30.20282  0.3901E-13  0.1517E-04  0.4064E-07  0.1645E-02  0.1714E-03  0.2517E+02
   -1.200008   30.20333  0.3901E-13  0.1510E-04  0.4094E-07  0.1668E-02  0.1613E-03  0.4808E+01
   -1.250010   30.20384  0.3901E-13  0.1501E-04  0.4139E-07  0.1638E-02  0.1517E-03  0.5160E+01
   -1.300011   30.20435  0.3901E-13  0.1489E-04  0.4204E-07  0.1590E-02  0.1425E-03  0.5978E+01
   -1.350012   30.20487  0.3901E-13  0.1474E-04  0.4293E-07  0.1533E-02  0.1335E-03  0.7201E+01
   -1.400013   30.20541  0.3901E-13  0.1455E-04  0.4413E-07  0.1458E-02  0.1248E-03  0.8803E+01
   -1.450014   30.20598  0.3901E-13  0.1433E-04  0.4577E-07  0.1383E-02  0.1163E-03  0.1127E+02
   -1.500015   30.20658  0.3901E-13  0.1406E-04  0.4805E-07  0.1273E-02  0.1079E-03  0.1512E+02
   -1.550015   30.20724  0.3901E-13  0.1372E-04  0.5126E-07  0.1192E-02  0.9950E-04  0.2157E+02
   -1.600015   30.20794  0.3901E-13  0.1331E-04  0.5621E-07  0.1049E-02  0.9131E-04  0.3997E+02
   -1.650015   30.20880  0.3901E-13  0.1278E-04  0.6386E-07  0.9717E-03  0.8244E-04  0.8367E+02
   -1.700014   30.20976  0.3901E-13  0.1205E-04  0.7760E-07  0.7919E-03  0.7393E-04  0.5359E+04
   -1.750013   30.21147  0.3901E-13  0.1108E-04  0.1003E-06  0.7157E-03  0.6252E-04  0.2791E+05
   -1.800012   30.21292  0.3901E-13  0.9768E-05  0.1469E-06  0.4986E-03  0.5364E-04  0.2491E+06
   -1.850010   30.21859  0.3901E-13  0.8273E-05  0.2362E-06  0.4544E-03  0.3832E-04  0.3494E+08
   -1.900008   30.21768  0.3901E-13  0.6535E-05  0.4943E-06  0.2099E-03  0.3101E-04  0.1576E+07
   -1.950006   30.23563  0.3901E-13  0.4541E-05  0.1245E-05  0.1821E-03  0.1656E-04 -0.3797E+06
   -2.000003   30.23787  0.3901E-13  0.0000E+00  0.0000E+00  0.0000E+00  0.3064E-04  0.0000E+00
