 1 - depth, m
 2 - temperature, C
 3 - salinity, kg/kg
 4 - turbulent kinetic energy, m**2/s**2
 5 - dissipation rate, m**2/s**3
 6 - kinematic heat conductance, m**2/s
 7 - modulus of horizontal velocity, m/s
 8 - Richardson number, n/d
   -0.000000   30.29645  0.2402E-14  0.5980E-05  0.3337E-06  0.5400E-04  0.4090E-02  0.3682E+03
   -0.049997   30.32966  0.2402E-14  0.9461E-05  0.1426E-06  0.2251E-03  0.2166E-02  0.2571E+03
   -0.099994   30.33834  0.2402E-14  0.1097E-04  0.1033E-06  0.3947E-03  0.1756E-02  0.3402E+01
   -0.149992   30.34192  0.2402E-14  0.1201E-04  0.8762E-07  0.4965E-03  0.1576E-02  0.1850E+01
   -0.199991   30.34466  0.2402E-14  0.1284E-04  0.7838E-07  0.6213E-03  0.1435E-02  0.1345E+01
   -0.249989   30.34677  0.2402E-14  0.1355E-04  0.7209E-07  0.7323E-03  0.1322E-02  0.1286E+01
   -0.299988   30.34852  0.2402E-14  0.1421E-04  0.6721E-07  0.8627E-03  0.1217E-02  0.1358E+01
   -0.349988   30.34997  0.2402E-14  0.1483E-04  0.6321E-07  0.1009E-02  0.1114E-02  0.1451E+01
   -0.399988   30.35118  0.2402E-14  0.1541E-04  0.5991E-07  0.1162E-02  0.1014E-02  0.1474E+01
   -0.449988   30.35221  0.2402E-14  0.1592E-04  0.5716E-07  0.1311E-02  0.9208E-03  0.1477E+01
   -0.499988   30.35310  0.2402E-14  0.1637E-04  0.5491E-07  0.1449E-02  0.8377E-03  0.1473E+01
   -0.549989   30.35389  0.2402E-14  0.1675E-04  0.5307E-07  0.1575E-02  0.7637E-03  0.1460E+01
   -0.599989   30.35461  0.2402E-14  0.1706E-04  0.5157E-07  0.1686E-02  0.6978E-03  0.1441E+01
   -0.649990   30.35527  0.2402E-14  0.1731E-04  0.5036E-07  0.1780E-02  0.6391E-03  0.1420E+01
   -0.699992   30.35588  0.2402E-14  0.1751E-04  0.4940E-07  0.1858E-02  0.5867E-03  0.1393E+01
   -0.749993   30.35646  0.2402E-14  0.1765E-04  0.4866E-07  0.1917E-02  0.5400E-03  0.1365E+01
   -0.799994   30.35701  0.2402E-14  0.1774E-04  0.4812E-07  0.1960E-02  0.4983E-03  0.1332E+01
   -0.849996   30.35755  0.2402E-14  0.1779E-04  0.4775E-07  0.1986E-02  0.4611E-03  0.1299E+01
   -0.899998   30.35807  0.2402E-14  0.1781E-04  0.4755E-07  0.1996E-02  0.4280E-03  0.1260E+01
   -0.949999   30.35859  0.2402E-14  0.1779E-04  0.4749E-07  0.1991E-02  0.3983E-03  0.1221E+01
   -1.000001   30.35910  0.2402E-14  0.1774E-04  0.4757E-07  0.1974E-02  0.3719E-03  0.1177E+01
   -1.050003   30.35961  0.2402E-14  0.1767E-04  0.4779E-07  0.1936E-02  0.3483E-03  0.1147E+01
   -1.100004   30.36012  0.2402E-14  0.1758E-04  0.4810E-07  0.2131E-02  0.3274E-03  0.2739E+01
   -1.150006   30.36058  0.2402E-14  0.1747E-04  0.4859E-07  0.1709E-02  0.3123E-03  0.7701E+01
   -1.200008   30.36116  0.2402E-14  0.1733E-04  0.4923E-07  0.1817E-02  0.2945E-03  0.1371E+01
   -1.250009   30.36170  0.2402E-14  0.1716E-04  0.5011E-07  0.1775E-02  0.2779E-03  0.1442E+01
   -1.300010   30.36225  0.2402E-14  0.1695E-04  0.5129E-07  0.1700E-02  0.2621E-03  0.1714E+01
   -1.350012   30.36282  0.2402E-14  0.1670E-04  0.5286E-07  0.1622E-02  0.2466E-03  0.2107E+01
   -1.400013   30.36342  0.2402E-14  0.1641E-04  0.5499E-07  0.1515E-02  0.2314E-03  0.2720E+01
   -1.450013   30.36406  0.2402E-14  0.1606E-04  0.5792E-07  0.1425E-02  0.2162E-03  0.3644E+01
   -1.500014   30.36475  0.2402E-14  0.1564E-04  0.6208E-07  0.1288E-02  0.2012E-03  0.5398E+01
   -1.550014   30.36554  0.2402E-14  0.1512E-04  0.6815E-07  0.1210E-02  0.1857E-03  0.9665E+01
   -1.600014   30.36641  0.2402E-14  0.1447E-04  0.7821E-07  0.1044E-02  0.1704E-03  0.2567E+02
   -1.650014   30.36769  0.2402E-14  0.1359E-04  0.9393E-07  0.9617E-03  0.1520E-03  0.6512E+03
   -1.700014   30.36910  0.2402E-14  0.1240E-04  0.1233E-06  0.7577E-03  0.1340E-03  0.8270E+04
   -1.750013   30.37195  0.2402E-14  0.1106E-04  0.1670E-06  0.6935E-03  0.1087E-03  0.1412E+06
   -1.800011   30.37314  0.2402E-14  0.9459E-05  0.2616E-06  0.4589E-03  0.9399E-04  0.4911E+06
   -1.850010   30.38440  0.2402E-14  0.7911E-05  0.4449E-06  0.4509E-03  0.6115E-04  0.4982E+08
   -1.900008   30.37831  0.2402E-14  0.6278E-05  0.9305E-06  0.2108E-03  0.5181E-04 -0.8262E+05
   -1.950005   30.40498  0.2402E-14  0.4558E-05  0.2145E-05  0.2439E-03  0.2605E-04 -0.3161E+05
   -2.000002   30.40197  0.2402E-14  0.0000E+00  0.0000E+00  0.0000E+00  0.5893E-04  0.0000E+00
