 1 - depth, m
 2 - temperature, C
 3 - salinity, kg/kg
 4 - turbulent kinetic energy, m**2/s**2
 5 - dissipation rate, m**2/s**3
 6 - kinematic heat conductance, m**2/s
 7 - modulus of horizontal velocity, m/s
 8 - Richardson number, n/d
   -0.000000   30.69395  0.1066E-14  0.5013E-05  0.3205E-06  0.5206E-04  0.1677E-02  0.7023E+04
   -0.049997   30.72468  0.1066E-14  0.8543E-05  0.1429E-06  0.1778E-03  0.9662E-03  0.7420E+03
   -0.099994   30.73698  0.1066E-14  0.1039E-04  0.9781E-07  0.4054E-03  0.7057E-03  0.1708E+02
   -0.149992   30.74030  0.1066E-14  0.1155E-04  0.8194E-07  0.4850E-03  0.6238E-03  0.8382E+01
   -0.199991   30.74297  0.1066E-14  0.1245E-04  0.7269E-07  0.6515E-03  0.5572E-03  0.5359E+01
   -0.249989   30.74489  0.1066E-14  0.1316E-04  0.6666E-07  0.7790E-03  0.5075E-03  0.3951E+01
   -0.299988   30.74646  0.1066E-14  0.1375E-04  0.6239E-07  0.9072E-03  0.4662E-03  0.3145E+01
   -0.349988   30.74777  0.1066E-14  0.1424E-04  0.5920E-07  0.1023E-02  0.4309E-03  0.2687E+01
   -0.399988   30.74892  0.1066E-14  0.1465E-04  0.5672E-07  0.1129E-02  0.3997E-03  0.2397E+01
   -0.449988   30.74993  0.1066E-14  0.1500E-04  0.5472E-07  0.1227E-02  0.3722E-03  0.2246E+01
   -0.499988   30.75084  0.1066E-14  0.1531E-04  0.5307E-07  0.1318E-02  0.3479E-03  0.2187E+01
   -0.549988   30.75168  0.1066E-14  0.1558E-04  0.5170E-07  0.1400E-02  0.3261E-03  0.2154E+01
   -0.599989   30.75245  0.1066E-14  0.1581E-04  0.5055E-07  0.1475E-02  0.3064E-03  0.2158E+01
   -0.649990   30.75318  0.1066E-14  0.1601E-04  0.4959E-07  0.1542E-02  0.2884E-03  0.2183E+01
   -0.699991   30.75386  0.1066E-14  0.1618E-04  0.4879E-07  0.1601E-02  0.2719E-03  0.2237E+01
   -0.749993   30.75451  0.1066E-14  0.1632E-04  0.4812E-07  0.1653E-02  0.2566E-03  0.2309E+01
   -0.799994   30.75513  0.1066E-14  0.1644E-04  0.4758E-07  0.1696E-02  0.2424E-03  0.2412E+01
   -0.849996   30.75573  0.1066E-14  0.1653E-04  0.4716E-07  0.1731E-02  0.2291E-03  0.2536E+01
   -0.899997   30.75631  0.1066E-14  0.1660E-04  0.4684E-07  0.1758E-02  0.2166E-03  0.2698E+01
   -0.949999   30.75688  0.1066E-14  0.1665E-04  0.4664E-07  0.1776E-02  0.2049E-03  0.2888E+01
   -1.000001   30.75744  0.1066E-14  0.1667E-04  0.4654E-07  0.1787E-02  0.1937E-03  0.3131E+01
   -1.050003   30.75799  0.1066E-14  0.1667E-04  0.4656E-07  0.1786E-02  0.1831E-03  0.3550E+01
   -1.100004   30.75854  0.1066E-14  0.1665E-04  0.4671E-07  0.1880E-02  0.1730E-03  0.1173E+02
   -1.150006   30.75906  0.1066E-14  0.1661E-04  0.4701E-07  0.1691E-02  0.1640E-03  0.2720E+02
   -1.200007   30.75964  0.1066E-14  0.1654E-04  0.4745E-07  0.1722E-02  0.1546E-03  0.5187E+01
   -1.250009   30.76020  0.1066E-14  0.1644E-04  0.4808E-07  0.1690E-02  0.1456E-03  0.5564E+01
   -1.300010   30.76077  0.1066E-14  0.1631E-04  0.4895E-07  0.1638E-02  0.1370E-03  0.6535E+01
   -1.350011   30.76136  0.1066E-14  0.1614E-04  0.5013E-07  0.1576E-02  0.1285E-03  0.7895E+01
   -1.400012   30.76197  0.1066E-14  0.1594E-04  0.5171E-07  0.1495E-02  0.1203E-03  0.9828E+01
   -1.450013   30.76262  0.1066E-14  0.1569E-04  0.5386E-07  0.1416E-02  0.1122E-03  0.1271E+02
   -1.500014   30.76330  0.1066E-14  0.1538E-04  0.5684E-07  0.1301E-02  0.1043E-03  0.1757E+02
   -1.550014   30.76406  0.1066E-14  0.1500E-04  0.6109E-07  0.1217E-02  0.9627E-04  0.2600E+02
   -1.600014   30.76489  0.1066E-14  0.1452E-04  0.6765E-07  0.1070E-02  0.8838E-04  0.8220E+02
   -1.650014   30.76593  0.1066E-14  0.1390E-04  0.7787E-07  0.9897E-03  0.7982E-04  0.1867E+03
   -1.700013   30.76712  0.1066E-14  0.1304E-04  0.9596E-07  0.8044E-03  0.7130E-04  0.8605E+03
   -1.750012   30.76923  0.1066E-14  0.1194E-04  0.1252E-06  0.7269E-03  0.6004E-04  0.1128E+06
   -1.800011   30.77087  0.1066E-14  0.1050E-04  0.1881E-06  0.5078E-03  0.5162E-04 -0.2344E+05
   -1.850009   30.77838  0.1066E-14  0.8940E-05  0.3069E-06  0.4714E-03  0.3648E-04  0.1586E+08
   -1.900007   30.77633  0.1066E-14  0.7121E-05  0.6430E-06  0.2123E-03  0.2995E-04 -0.5671E+07
   -1.950005   30.79858  0.1066E-14  0.5031E-05  0.1575E-05  0.2000E-03  0.1606E-04 -0.5367E+06
   -2.000002   30.79992  0.1066E-14  0.0000E+00  0.0000E+00  0.0000E+00  0.3002E-04  0.0000E+00
