 1 - depth, m
 2 - temperature, C
 3 - salinity, kg/kg
 4 - turbulent kinetic energy, m**2/s**2
 5 - dissipation rate, m**2/s**3
 6 - kinematic heat conductance, m**2/s
 7 - modulus of horizontal velocity, m/s
 8 - Richardson number, n/d
   -0.000000   31.37740  0.5786E-14  0.5341E-05  0.3544E-06  0.5286E-04  0.1274E-02  0.7749E+04
   -0.049997   31.41124  0.5786E-14  0.9163E-05  0.1576E-06  0.1871E-03  0.7283E-03  0.1264E+05
   -0.099994   31.42423  0.5786E-14  0.1113E-04  0.1084E-06  0.4181E-03  0.5361E-03  0.3137E+02
   -0.149992   31.42778  0.5786E-14  0.1236E-04  0.9083E-07  0.5002E-03  0.4746E-03  0.1547E+02
   -0.199990   31.43062  0.5786E-14  0.1332E-04  0.8058E-07  0.6721E-03  0.4245E-03  0.9889E+01
   -0.249989   31.43267  0.5786E-14  0.1409E-04  0.7390E-07  0.8022E-03  0.3873E-03  0.7298E+01
   -0.299988   31.43434  0.5786E-14  0.1471E-04  0.6916E-07  0.9344E-03  0.3563E-03  0.5810E+01
   -0.349988   31.43574  0.5786E-14  0.1522E-04  0.6561E-07  0.1053E-02  0.3297E-03  0.4955E+01
   -0.399987   31.43695  0.5786E-14  0.1566E-04  0.6286E-07  0.1162E-02  0.3062E-03  0.4419E+01
   -0.449987   31.43803  0.5786E-14  0.1603E-04  0.6062E-07  0.1262E-02  0.2855E-03  0.4131E+01
   -0.499988   31.43900  0.5786E-14  0.1635E-04  0.5878E-07  0.1354E-02  0.2672E-03  0.4021E+01
   -0.549988   31.43989  0.5786E-14  0.1663E-04  0.5725E-07  0.1439E-02  0.2508E-03  0.3950E+01
   -0.599989   31.44071  0.5786E-14  0.1687E-04  0.5596E-07  0.1515E-02  0.2359E-03  0.3957E+01
   -0.649990   31.44148  0.5786E-14  0.1707E-04  0.5488E-07  0.1583E-02  0.2223E-03  0.3989E+01
   -0.699991   31.44221  0.5786E-14  0.1724E-04  0.5398E-07  0.1642E-02  0.2098E-03  0.4088E+01
   -0.749992   31.44290  0.5786E-14  0.1739E-04  0.5322E-07  0.1694E-02  0.1982E-03  0.4207E+01
   -0.799994   31.44356  0.5786E-14  0.1750E-04  0.5261E-07  0.1737E-02  0.1874E-03  0.4396E+01
   -0.849995   31.44419  0.5786E-14  0.1759E-04  0.5213E-07  0.1772E-02  0.1774E-03  0.4610E+01
   -0.899997   31.44481  0.5786E-14  0.1766E-04  0.5177E-07  0.1798E-02  0.1679E-03  0.4905E+01
   -0.949998   31.44541  0.5786E-14  0.1770E-04  0.5153E-07  0.1815E-02  0.1589E-03  0.5242E+01
   -1.000000   31.44601  0.5786E-14  0.1771E-04  0.5142E-07  0.1824E-02  0.1504E-03  0.5686E+01
   -1.050002   31.44659  0.5786E-14  0.1770E-04  0.5144E-07  0.1821E-02  0.1424E-03  0.6431E+01
   -1.100003   31.44717  0.5786E-14  0.1767E-04  0.5160E-07  0.1928E-02  0.1346E-03  0.2092E+02
   -1.150005   31.44772  0.5786E-14  0.1760E-04  0.5194E-07  0.1704E-02  0.1278E-03  0.5109E+02
   -1.200006   31.44834  0.5786E-14  0.1752E-04  0.5244E-07  0.1745E-02  0.1205E-03  0.9501E+01
   -1.250008   31.44893  0.5786E-14  0.1739E-04  0.5317E-07  0.1712E-02  0.1136E-03  0.1018E+02
   -1.300009   31.44954  0.5786E-14  0.1724E-04  0.5417E-07  0.1655E-02  0.1069E-03  0.1201E+02
   -1.350010   31.45017  0.5786E-14  0.1705E-04  0.5554E-07  0.1590E-02  0.1005E-03  0.1461E+02
   -1.400011   31.45082  0.5786E-14  0.1681E-04  0.5740E-07  0.1502E-02  0.9412E-04  0.1841E+02
   -1.450012   31.45152  0.5786E-14  0.1651E-04  0.5996E-07  0.1421E-02  0.8785E-04  0.2412E+02
   -1.500013   31.45226  0.5786E-14  0.1616E-04  0.6356E-07  0.1299E-02  0.8168E-04  0.3430E+02
   -1.550013   31.45308  0.5786E-14  0.1572E-04  0.6874E-07  0.1219E-02  0.7540E-04  0.5327E+02
   -1.600013   31.45398  0.5786E-14  0.1516E-04  0.7703E-07  0.1065E-02  0.6924E-04  0.1562E+03
   -1.650013   31.45519  0.5786E-14  0.1442E-04  0.8994E-07  0.9854E-03  0.6233E-04  0.1388E+04
   -1.700012   31.45653  0.5786E-14  0.1341E-04  0.1131E-06  0.7939E-03  0.5551E-04  0.4607E+05
   -1.750011   31.45908  0.5786E-14  0.1218E-04  0.1499E-06  0.7233E-03  0.4622E-04  0.7777E+05
   -1.800010   31.46063  0.5786E-14  0.1062E-04  0.2295E-06  0.4942E-03  0.3991E-04  0.1630E+07
   -1.850008   31.47014  0.5786E-14  0.9021E-05  0.3815E-06  0.4715E-03  0.2761E-04  0.1071E+09
   -1.900006   31.46637  0.5786E-14  0.7203E-05  0.7991E-06  0.2156E-03  0.2294E-04 -0.2576E+06
   -1.950003   31.49158  0.5786E-14  0.5157E-05  0.1905E-05  0.2191E-03  0.1220E-04 -0.3224E+06
   -2.000000   31.49141  0.5786E-14  0.0000E+00  0.0000E+00  0.0000E+00  0.2384E-04  0.0000E+00
