 1 - depth, m
 2 - temperature, C
 3 - salinity, kg/kg
 4 - turbulent kinetic energy, m**2/s**2
 5 - dissipation rate, m**2/s**3
 6 - kinematic heat conductance, m**2/s
 7 - modulus of horizontal velocity, m/s
 8 - Richardson number, n/d
   -0.000000   30.70138  0.5605E-14  0.5160E-05  0.3337E-06  0.5273E-04  0.1918E-02  0.3643E+04
   -0.049997   30.73320  0.5605E-14  0.8715E-05  0.1487E-06  0.1775E-03  0.1110E-02  0.3323E+04
   -0.099994   30.74600  0.5605E-14  0.1058E-04  0.1015E-06  0.4049E-03  0.8104E-03  0.1339E+02
   -0.149992   30.74947  0.5605E-14  0.1175E-04  0.8493E-07  0.4838E-03  0.7164E-03  0.6562E+01
   -0.199991   30.75226  0.5605E-14  0.1266E-04  0.7523E-07  0.6500E-03  0.6397E-03  0.4185E+01
   -0.249989   30.75427  0.5605E-14  0.1338E-04  0.6890E-07  0.7770E-03  0.5826E-03  0.3083E+01
   -0.299988   30.75590  0.5605E-14  0.1396E-04  0.6440E-07  0.9049E-03  0.5352E-03  0.2446E+01
   -0.349988   30.75727  0.5605E-14  0.1445E-04  0.6102E-07  0.1020E-02  0.4945E-03  0.2090E+01
   -0.399988   30.75845  0.5605E-14  0.1485E-04  0.5840E-07  0.1126E-02  0.4586E-03  0.1859E+01
   -0.449988   30.75950  0.5605E-14  0.1520E-04  0.5627E-07  0.1224E-02  0.4271E-03  0.1744E+01
   -0.499988   30.76045  0.5605E-14  0.1550E-04  0.5450E-07  0.1313E-02  0.3991E-03  0.1694E+01
   -0.549989   30.76131  0.5605E-14  0.1575E-04  0.5303E-07  0.1395E-02  0.3741E-03  0.1672E+01
   -0.599989   30.76211  0.5605E-14  0.1597E-04  0.5178E-07  0.1469E-02  0.3514E-03  0.1670E+01
   -0.649990   30.76286  0.5605E-14  0.1616E-04  0.5073E-07  0.1536E-02  0.3308E-03  0.1692E+01
   -0.699992   30.76356  0.5605E-14  0.1632E-04  0.4984E-07  0.1594E-02  0.3118E-03  0.1728E+01
   -0.749993   30.76423  0.5605E-14  0.1645E-04  0.4909E-07  0.1644E-02  0.2942E-03  0.1787E+01
   -0.799994   30.76486  0.5605E-14  0.1655E-04  0.4847E-07  0.1687E-02  0.2779E-03  0.1859E+01
   -0.849996   30.76548  0.5605E-14  0.1663E-04  0.4797E-07  0.1721E-02  0.2626E-03  0.1957E+01
   -0.899998   30.76607  0.5605E-14  0.1668E-04  0.4758E-07  0.1747E-02  0.2483E-03  0.2074E+01
   -0.949999   30.76665  0.5605E-14  0.1671E-04  0.4730E-07  0.1765E-02  0.2347E-03  0.2224E+01
   -1.000001   30.76722  0.5605E-14  0.1672E-04  0.4714E-07  0.1774E-02  0.2219E-03  0.2402E+01
   -1.050003   30.76778  0.5605E-14  0.1670E-04  0.4709E-07  0.1772E-02  0.2097E-03  0.2726E+01
   -1.100004   30.76834  0.5605E-14  0.1666E-04  0.4717E-07  0.1872E-02  0.1981E-03  0.8892E+01
   -1.150006   30.76886  0.5605E-14  0.1659E-04  0.4740E-07  0.1666E-02  0.1879E-03  0.2124E+02
   -1.200007   30.76944  0.5605E-14  0.1650E-04  0.4778E-07  0.1702E-02  0.1770E-03  0.4000E+01
   -1.250009   30.77001  0.5605E-14  0.1638E-04  0.4837E-07  0.1670E-02  0.1666E-03  0.4260E+01
   -1.300010   30.77058  0.5605E-14  0.1623E-04  0.4919E-07  0.1616E-02  0.1567E-03  0.5027E+01
   -1.350011   30.77117  0.5605E-14  0.1604E-04  0.5033E-07  0.1552E-02  0.1470E-03  0.6063E+01
   -1.400012   30.77178  0.5605E-14  0.1581E-04  0.5189E-07  0.1469E-02  0.1376E-03  0.7603E+01
   -1.450013   30.77242  0.5605E-14  0.1553E-04  0.5405E-07  0.1388E-02  0.1282E-03  0.9839E+01
   -1.500014   30.77311  0.5605E-14  0.1519E-04  0.5709E-07  0.1271E-02  0.1191E-03  0.1375E+02
   -1.550014   30.77387  0.5605E-14  0.1478E-04  0.6148E-07  0.1189E-02  0.1098E-03  0.2052E+02
   -1.600014   30.77469  0.5605E-14  0.1426E-04  0.6843E-07  0.1042E-02  0.1007E-03  0.4702E+02
   -1.650014   30.77575  0.5605E-14  0.1358E-04  0.7943E-07  0.9608E-03  0.9070E-04  0.2235E+03
   -1.700013   30.77698  0.5605E-14  0.1265E-04  0.9887E-07  0.7785E-03  0.8066E-04  0.1336E+05
   -1.750012   30.77919  0.5605E-14  0.1147E-04  0.1303E-06  0.7038E-03  0.6732E-04  0.1127E+06
   -1.800011   30.78077  0.5605E-14  0.9962E-05  0.2000E-06  0.4813E-03  0.5768E-04  0.9826E+04
   -1.850010   30.78890  0.5605E-14  0.8373E-05  0.3308E-06  0.4528E-03  0.3979E-04  0.1143E+08
   -1.900007   30.78610  0.5605E-14  0.6618E-05  0.7017E-06  0.2098E-03  0.3264E-04 -0.4126E+06
   -1.950005   30.80859  0.5605E-14  0.4705E-05  0.1695E-05  0.2099E-03  0.1705E-04 -0.3220E+06
   -2.000002   30.80933  0.5605E-14  0.0000E+00  0.0000E+00  0.0000E+00  0.3414E-04  0.0000E+00
