 1 - depth, m
 2 - temperature, C
 3 - salinity, kg/kg
 4 - turbulent kinetic energy, m**2/s**2
 5 - dissipation rate, m**2/s**3
 6 - kinematic heat conductance, m**2/s
 7 - modulus of horizontal velocity, m/s
 8 - Richardson number, n/d
   -0.000000   30.75270  0.1569E-14  0.4839E-05  0.3018E-06  0.4964E-04  0.6692E-03  0.2497E+05
   -0.049997   30.78443  0.1569E-14  0.8488E-05  0.1339E-06  0.1839E-03  0.3771E-03  0.1090E+03
   -0.099994   30.79588  0.1569E-14  0.1027E-04  0.9273E-07  0.4144E-03  0.2767E-03  0.1161E+03
   -0.149992   30.79907  0.1569E-14  0.1138E-04  0.7824E-07  0.4921E-03  0.2452E-03  0.5707E+02
   -0.199991   30.80164  0.1569E-14  0.1225E-04  0.6967E-07  0.6570E-03  0.2193E-03  0.3717E+02
   -0.249989   30.80351  0.1569E-14  0.1294E-04  0.6402E-07  0.7835E-03  0.1999E-03  0.2761E+02
   -0.299988   30.80503  0.1569E-14  0.1350E-04  0.5998E-07  0.9096E-03  0.1837E-03  0.2208E+02
   -0.349988   30.80631  0.1569E-14  0.1397E-04  0.5694E-07  0.1024E-02  0.1699E-03  0.1889E+02
   -0.399988   30.80742  0.1569E-14  0.1436E-04  0.5456E-07  0.1128E-02  0.1576E-03  0.1687E+02
   -0.449988   30.80840  0.1569E-14  0.1470E-04  0.5263E-07  0.1225E-02  0.1468E-03  0.1581E+02
   -0.499988   30.80929  0.1569E-14  0.1499E-04  0.5103E-07  0.1314E-02  0.1372E-03  0.1539E+02
   -0.549989   30.81010  0.1569E-14  0.1524E-04  0.4969E-07  0.1395E-02  0.1286E-03  0.1514E+02
   -0.599989   30.81085  0.1569E-14  0.1545E-04  0.4856E-07  0.1469E-02  0.1208E-03  0.1517E+02
   -0.649990   30.81155  0.1569E-14  0.1564E-04  0.4760E-07  0.1535E-02  0.1137E-03  0.1531E+02
   -0.699992   30.81221  0.1569E-14  0.1580E-04  0.4679E-07  0.1593E-02  0.1072E-03  0.1567E+02
   -0.749993   30.81284  0.1569E-14  0.1593E-04  0.4611E-07  0.1644E-02  0.1011E-03  0.1613E+02
   -0.799994   30.81344  0.1569E-14  0.1603E-04  0.4555E-07  0.1687E-02  0.9550E-04  0.1682E+02
   -0.849996   30.81402  0.1569E-14  0.1612E-04  0.4509E-07  0.1722E-02  0.9025E-04  0.1762E+02
   -0.899998   30.81458  0.1569E-14  0.1618E-04  0.4474E-07  0.1749E-02  0.8531E-04  0.1871E+02
   -0.949999   30.81512  0.1569E-14  0.1622E-04  0.4449E-07  0.1768E-02  0.8066E-04  0.1995E+02
   -1.000001   30.81566  0.1569E-14  0.1623E-04  0.4434E-07  0.1779E-02  0.7624E-04  0.2155E+02
   -1.050003   30.81618  0.1569E-14  0.1623E-04  0.4430E-07  0.1780E-02  0.7206E-04  0.2433E+02
   -1.100004   30.81670  0.1569E-14  0.1620E-04  0.4438E-07  0.1869E-02  0.6806E-04  0.8091E+02
   -1.150006   30.81719  0.1569E-14  0.1615E-04  0.4459E-07  0.1693E-02  0.6450E-04  0.1813E+03
   -1.200008   30.81774  0.1569E-14  0.1608E-04  0.4492E-07  0.1721E-02  0.6079E-04  0.3492E+02
   -1.250009   30.81826  0.1569E-14  0.1598E-04  0.4544E-07  0.1690E-02  0.5724E-04  0.3725E+02
   -1.300011   30.81880  0.1569E-14  0.1585E-04  0.4617E-07  0.1640E-02  0.5384E-04  0.4340E+02
   -1.350012   30.81935  0.1569E-14  0.1569E-04  0.4716E-07  0.1580E-02  0.5052E-04  0.5187E+02
   -1.400013   30.81991  0.1569E-14  0.1549E-04  0.4850E-07  0.1503E-02  0.4729E-04  0.6370E+02
   -1.450014   30.82051  0.1569E-14  0.1525E-04  0.5033E-07  0.1424E-02  0.4411E-04  0.8100E+02
   -1.500014   30.82114  0.1569E-14  0.1496E-04  0.5286E-07  0.1312E-02  0.4100E-04  0.1089E+03
   -1.550014   30.82182  0.1569E-14  0.1461E-04  0.5645E-07  0.1225E-02  0.3786E-04  0.1546E+03
   -1.600015   30.82257  0.1569E-14  0.1417E-04  0.6190E-07  0.1081E-02  0.3478E-04  0.2898E+03
   -1.650014   30.82347  0.1569E-14  0.1360E-04  0.7036E-07  0.9982E-03  0.3148E-04  0.1098E+05
   -1.700014   30.82450  0.1569E-14  0.1282E-04  0.8534E-07  0.8179E-03  0.2822E-04 -0.2524E+05
   -1.750013   30.82624  0.1569E-14  0.1180E-04  0.1099E-06  0.7350E-03  0.2397E-04  0.3663E+06
   -1.800012   30.82779  0.1569E-14  0.1039E-04  0.1618E-06  0.5132E-03  0.2058E-04  0.1432E+07
   -1.850010   30.83372  0.1569E-14  0.8823E-05  0.2592E-06  0.4689E-03  0.1473E-04  0.1190E+09
   -1.900008   30.83286  0.1569E-14  0.6965E-05  0.5400E-06  0.2146E-03  0.1198E-04 -0.5187E+05
   -1.950005   30.85190  0.1569E-14  0.4875E-05  0.1357E-05  0.1882E-03  0.6435E-05 -0.2888E+07
   -2.000002   30.85331  0.1569E-14  0.0000E+00  0.0000E+00  0.0000E+00  0.1185E-04  0.0000E+00
