 1 - depth, m
 2 - temperature, C
 3 - salinity, kg/kg
 4 - turbulent kinetic energy, m**2/s**2
 5 - dissipation rate, m**2/s**3
 6 - kinematic heat conductance, m**2/s
 7 - modulus of horizontal velocity, m/s
 8 - Richardson number, n/d
   -0.000000   29.57685  0.1326E-12  0.4149E-05  0.2359E-06  0.4620E-04  0.9403E-03  0.5158E+05
   -0.049997   29.60460  0.1326E-12  0.7227E-05  0.1049E-06  0.1663E-03  0.5304E-03  0.2955E+02
   -0.099994   29.61489  0.1326E-12  0.8734E-05  0.7250E-07  0.3819E-03  0.3846E-03  0.5343E+02
   -0.149992   29.61773  0.1326E-12  0.9660E-05  0.6121E-07  0.4570E-03  0.3396E-03  0.2545E+02
   -0.199991   29.62000  0.1326E-12  0.1038E-04  0.5448E-07  0.6047E-03  0.3028E-03  0.1655E+02
   -0.249989   29.62166  0.1326E-12  0.1094E-04  0.5000E-07  0.7218E-03  0.2750E-03  0.1222E+02
   -0.299989   29.62300  0.1326E-12  0.1140E-04  0.4677E-07  0.8363E-03  0.2519E-03  0.9726E+01
   -0.349988   29.62413  0.1326E-12  0.1178E-04  0.4432E-07  0.9406E-03  0.2320E-03  0.8309E+01
   -0.399988   29.62510  0.1326E-12  0.1210E-04  0.4240E-07  0.1036E-02  0.2144E-03  0.7395E+01
   -0.449988   29.62596  0.1326E-12  0.1237E-04  0.4082E-07  0.1125E-02  0.1990E-03  0.6938E+01
   -0.499988   29.62673  0.1326E-12  0.1261E-04  0.3951E-07  0.1206E-02  0.1853E-03  0.6746E+01
   -0.549989   29.62744  0.1326E-12  0.1281E-04  0.3840E-07  0.1281E-02  0.1731E-03  0.6651E+01
   -0.599990   29.62809  0.1326E-12  0.1298E-04  0.3745E-07  0.1350E-02  0.1620E-03  0.6648E+01
   -0.649991   29.62869  0.1326E-12  0.1313E-04  0.3665E-07  0.1411E-02  0.1520E-03  0.6724E+01
   -0.699992   29.62926  0.1326E-12  0.1326E-04  0.3596E-07  0.1466E-02  0.1427E-03  0.6868E+01
   -0.749993   29.62980  0.1326E-12  0.1336E-04  0.3537E-07  0.1514E-02  0.1342E-03  0.7083E+01
   -0.799995   29.63031  0.1326E-12  0.1344E-04  0.3487E-07  0.1555E-02  0.1263E-03  0.7369E+01
   -0.849997   29.63080  0.1326E-12  0.1351E-04  0.3446E-07  0.1589E-02  0.1190E-03  0.7734E+01
   -0.899998   29.63128  0.1326E-12  0.1355E-04  0.3413E-07  0.1617E-02  0.1121E-03  0.8183E+01
   -0.950000   29.63174  0.1326E-12  0.1359E-04  0.3387E-07  0.1636E-02  0.1056E-03  0.8738E+01
   -1.000002   29.63219  0.1326E-12  0.1360E-04  0.3370E-07  0.1649E-02  0.9953E-04  0.9408E+01
   -1.050003   29.63263  0.1326E-12  0.1359E-04  0.3360E-07  0.1654E-02  0.9375E-04  0.1064E+02
   -1.100005   29.63306  0.1326E-12  0.1357E-04  0.3358E-07  0.1719E-02  0.8826E-04  0.3589E+02
   -1.150007   29.63348  0.1326E-12  0.1354E-04  0.3366E-07  0.1605E-02  0.8332E-04  0.7715E+02
   -1.200008   29.63392  0.1326E-12  0.1348E-04  0.3383E-07  0.1614E-02  0.7834E-04  0.1510E+02
   -1.250010   29.63436  0.1326E-12  0.1341E-04  0.3413E-07  0.1588E-02  0.7354E-04  0.1601E+02
   -1.300011   29.63479  0.1326E-12  0.1331E-04  0.3456E-07  0.1548E-02  0.6892E-04  0.1856E+02
   -1.350013   29.63524  0.1326E-12  0.1319E-04  0.3518E-07  0.1497E-02  0.6447E-04  0.2196E+02
   -1.400014   29.63570  0.1326E-12  0.1304E-04  0.3602E-07  0.1434E-02  0.6015E-04  0.2668E+02
   -1.450014   29.63618  0.1326E-12  0.1286E-04  0.3716E-07  0.1363E-02  0.5595E-04  0.3332E+02
   -1.500015   29.63668  0.1326E-12  0.1265E-04  0.3872E-07  0.1269E-02  0.5184E-04  0.4373E+02
   -1.550015   29.63722  0.1326E-12  0.1239E-04  0.4092E-07  0.1184E-02  0.4776E-04  0.5980E+02
   -1.600015   29.63780  0.1326E-12  0.1207E-04  0.4413E-07  0.1055E-02  0.4377E-04  0.9284E+02
   -1.650015   29.63846  0.1326E-12  0.1167E-04  0.4900E-07  0.9727E-03  0.3966E-04  0.3249E+03
   -1.700015   29.63920  0.1326E-12  0.1113E-04  0.5766E-07  0.8048E-03  0.3564E-04 -0.5301E+03
   -1.750014   29.64036  0.1326E-12  0.1039E-04  0.7223E-07  0.7229E-03  0.3072E-04  0.1049E+06
   -1.800013   29.64156  0.1326E-12  0.9346E-05  0.1016E-06  0.5157E-03  0.2637E-04  0.1690E+06
   -1.850011   29.64496  0.1326E-12  0.8033E-05  0.1571E-06  0.4584E-03  0.1972E-04  0.1678E+08
   -1.900009   29.64546  0.1326E-12  0.6336E-05  0.3216E-06  0.2024E-03  0.1573E-04 -0.1223E+06
   -1.950006   29.65859  0.1326E-12  0.4297E-05  0.8404E-06  0.1549E-03  0.8603E-05 -0.1137E+07
   -2.000003   29.66232  0.1326E-12  0.0000E+00  0.0000E+00  0.0000E+00  0.1444E-04  0.0000E+00
