 1 - depth, m
 2 - temperature, C
 3 - salinity, kg/kg
 4 - turbulent kinetic energy, m**2/s**2
 5 - dissipation rate, m**2/s**3
 6 - kinematic heat conductance, m**2/s
 7 - modulus of horizontal velocity, m/s
 8 - Richardson number, n/d
   -0.000000   30.91605  0.1761E-13  0.4901E-05  0.3102E-06  0.5066E-04  0.6316E-03  0.4204E+05
   -0.049997   30.94766  0.1761E-13  0.8601E-05  0.1375E-06  0.1832E-03  0.3607E-03  0.1426E+04
   -0.099994   30.95944  0.1761E-13  0.1043E-04  0.9492E-07  0.4196E-03  0.2622E-03  0.1390E+03
   -0.149992   30.96263  0.1761E-13  0.1156E-04  0.8010E-07  0.4944E-03  0.2326E-03  0.6854E+02
   -0.199991   30.96523  0.1761E-13  0.1245E-04  0.7135E-07  0.6622E-03  0.2081E-03  0.4477E+02
   -0.249989   30.96711  0.1761E-13  0.1315E-04  0.6559E-07  0.7896E-03  0.1898E-03  0.3319E+02
   -0.299988   30.96864  0.1761E-13  0.1373E-04  0.6148E-07  0.9169E-03  0.1745E-03  0.2662E+02
   -0.349988   30.96994  0.1761E-13  0.1421E-04  0.5840E-07  0.1032E-02  0.1614E-03  0.2271E+02
   -0.399988   30.97106  0.1761E-13  0.1461E-04  0.5600E-07  0.1137E-02  0.1498E-03  0.2035E+02
   -0.449988   30.97205  0.1761E-13  0.1496E-04  0.5406E-07  0.1234E-02  0.1396E-03  0.1898E+02
   -0.499988   30.97295  0.1761E-13  0.1526E-04  0.5245E-07  0.1324E-02  0.1305E-03  0.1856E+02
   -0.549989   30.97377  0.1761E-13  0.1552E-04  0.5111E-07  0.1406E-02  0.1224E-03  0.1817E+02
   -0.599989   30.97453  0.1761E-13  0.1574E-04  0.4998E-07  0.1479E-02  0.1150E-03  0.1830E+02
   -0.649990   30.97525  0.1761E-13  0.1593E-04  0.4904E-07  0.1545E-02  0.1083E-03  0.1837E+02
   -0.699992   30.97592  0.1761E-13  0.1610E-04  0.4824E-07  0.1604E-02  0.1022E-03  0.1893E+02
   -0.749993   30.97656  0.1761E-13  0.1623E-04  0.4759E-07  0.1654E-02  0.9644E-04  0.1937E+02
   -0.799994   30.97717  0.1761E-13  0.1635E-04  0.4705E-07  0.1697E-02  0.9111E-04  0.2036E+02
   -0.849996   30.97776  0.1761E-13  0.1643E-04  0.4663E-07  0.1731E-02  0.8614E-04  0.2121E+02
   -0.899997   30.97833  0.1761E-13  0.1650E-04  0.4632E-07  0.1757E-02  0.8145E-04  0.2271E+02
   -0.949999   30.97890  0.1761E-13  0.1654E-04  0.4611E-07  0.1775E-02  0.7705E-04  0.2410E+02
   -1.000001   30.97944  0.1761E-13  0.1656E-04  0.4601E-07  0.1785E-02  0.7286E-04  0.2629E+02
   -1.050003   30.97999  0.1761E-13  0.1656E-04  0.4603E-07  0.1783E-02  0.6889E-04  0.2954E+02
   -1.100004   30.98053  0.1761E-13  0.1654E-04  0.4617E-07  0.1880E-02  0.6509E-04  0.9799E+02
   -1.150006   30.98104  0.1761E-13  0.1649E-04  0.4646E-07  0.1684E-02  0.6172E-04  0.2291E+03
   -1.200007   30.98161  0.1761E-13  0.1641E-04  0.4689E-07  0.1717E-02  0.5816E-04  0.4318E+02
   -1.250009   30.98216  0.1761E-13  0.1631E-04  0.4752E-07  0.1685E-02  0.5478E-04  0.4647E+02
   -1.300010   30.98272  0.1761E-13  0.1618E-04  0.4838E-07  0.1632E-02  0.5153E-04  0.5426E+02
   -1.350011   30.98330  0.1761E-13  0.1601E-04  0.4955E-07  0.1569E-02  0.4835E-04  0.6585E+02
   -1.400012   30.98390  0.1761E-13  0.1580E-04  0.5112E-07  0.1489E-02  0.4527E-04  0.8164E+02
   -1.450013   30.98454  0.1761E-13  0.1555E-04  0.5326E-07  0.1407E-02  0.4222E-04  0.1060E+03
   -1.500014   30.98522  0.1761E-13  0.1524E-04  0.5624E-07  0.1296E-02  0.3922E-04  0.1460E+03
   -1.550014   30.98596  0.1761E-13  0.1486E-04  0.6051E-07  0.1207E-02  0.3620E-04  0.2195E+03
   -1.600014   30.98678  0.1761E-13  0.1438E-04  0.6711E-07  0.1067E-02  0.3321E-04  0.8531E+03
   -1.650014   30.98780  0.1761E-13  0.1375E-04  0.7752E-07  0.9783E-03  0.2999E-04  0.7391E+04
   -1.700013   30.98902  0.1761E-13  0.1288E-04  0.9560E-07  0.8028E-03  0.2670E-04 -0.3038E+05
   -1.750012   30.99108  0.1761E-13  0.1177E-04  0.1250E-06  0.7218E-03  0.2251E-04  0.2757E+08
   -1.800011   30.99277  0.1761E-13  0.1032E-04  0.1922E-06  0.4991E-03  0.1927E-04  0.1083E+07
   -1.850010   31.00040  0.1761E-13  0.8770E-05  0.3132E-06  0.4636E-03  0.1357E-04  0.3602E+09
   -1.900007   30.99808  0.1761E-13  0.7005E-05  0.6555E-06  0.2184E-03  0.1111E-04  0.1431E+06
   -1.950005   31.01991  0.1761E-13  0.4944E-05  0.1604E-05  0.1983E-03  0.5977E-05 -0.2158E+07
   -2.000002   31.02188  0.1761E-13  0.0000E+00  0.0000E+00  0.0000E+00  0.1137E-04  0.0000E+00
