 1 - depth, m
 2 - temperature, C
 3 - salinity, kg/kg
 4 - turbulent kinetic energy, m**2/s**2
 5 - dissipation rate, m**2/s**3
 6 - kinematic heat conductance, m**2/s
 7 - modulus of horizontal velocity, m/s
 8 - Richardson number, n/d
   -0.000000   31.10533  0.4529E-14  0.5143E-05  0.3301E-06  0.5098E-04  0.6209E-03  0.5580E+05
   -0.049997   31.13977  0.4529E-14  0.9004E-05  0.1470E-06  0.1895E-03  0.3540E-03  0.2991E+06
   -0.099994   31.15179  0.4529E-14  0.1087E-04  0.1019E-06  0.4209E-03  0.2586E-03  0.2061E+03
   -0.149992   31.15525  0.4529E-14  0.1205E-04  0.8593E-07  0.4991E-03  0.2293E-03  0.1041E+03
   -0.199991   31.15803  0.4529E-14  0.1295E-04  0.7647E-07  0.6670E-03  0.2051E-03  0.6832E+02
   -0.249989   31.16005  0.4529E-14  0.1367E-04  0.7022E-07  0.7952E-03  0.1870E-03  0.5141E+02
   -0.299988   31.16170  0.4529E-14  0.1426E-04  0.6574E-07  0.9227E-03  0.1720E-03  0.4099E+02
   -0.349988   31.16308  0.4529E-14  0.1474E-04  0.6236E-07  0.1038E-02  0.1590E-03  0.3551E+02
   -0.399988   31.16427  0.4529E-14  0.1514E-04  0.5972E-07  0.1143E-02  0.1476E-03  0.3151E+02
   -0.449988   31.16533  0.4529E-14  0.1548E-04  0.5756E-07  0.1240E-02  0.1375E-03  0.3001E+02
   -0.499988   31.16628  0.4529E-14  0.1577E-04  0.5576E-07  0.1329E-02  0.1286E-03  0.2899E+02
   -0.549988   31.16716  0.4529E-14  0.1602E-04  0.5425E-07  0.1409E-02  0.1206E-03  0.2905E+02
   -0.599989   31.16797  0.4529E-14  0.1623E-04  0.5297E-07  0.1482E-02  0.1133E-03  0.2881E+02
   -0.649990   31.16872  0.4529E-14  0.1641E-04  0.5188E-07  0.1547E-02  0.1067E-03  0.2966E+02
   -0.699991   31.16944  0.4529E-14  0.1655E-04  0.5095E-07  0.1604E-02  0.1006E-03  0.3003E+02
   -0.749993   31.17011  0.4529E-14  0.1667E-04  0.5016E-07  0.1653E-02  0.9496E-04  0.3159E+02
   -0.799994   31.17076  0.4529E-14  0.1676E-04  0.4950E-07  0.1694E-02  0.8972E-04  0.3257E+02
   -0.849996   31.17138  0.4529E-14  0.1682E-04  0.4896E-07  0.1726E-02  0.8479E-04  0.3495E+02
   -0.899997   31.17198  0.4529E-14  0.1686E-04  0.4854E-07  0.1750E-02  0.8018E-04  0.3669E+02
   -0.949999   31.17256  0.4529E-14  0.1687E-04  0.4823E-07  0.1765E-02  0.7582E-04  0.4019E+02
   -1.000001   31.17314  0.4529E-14  0.1686E-04  0.4803E-07  0.1772E-02  0.7170E-04  0.4302E+02
   -1.050002   31.17370  0.4529E-14  0.1683E-04  0.4795E-07  0.1767E-02  0.6777E-04  0.4985E+02
   -1.100004   31.17426  0.4529E-14  0.1677E-04  0.4801E-07  0.1879E-02  0.6403E-04  0.1547E+03
   -1.150006   31.17478  0.4529E-14  0.1668E-04  0.4823E-07  0.1641E-02  0.6072E-04  0.4232E+03
   -1.200007   31.17537  0.4529E-14  0.1657E-04  0.4860E-07  0.1687E-02  0.5719E-04  0.7658E+02
   -1.250009   31.17594  0.4529E-14  0.1642E-04  0.4918E-07  0.1654E-02  0.5385E-04  0.8102E+02
   -1.300010   31.17652  0.4529E-14  0.1625E-04  0.5003E-07  0.1595E-02  0.5063E-04  0.9892E+02
   -1.350011   31.17711  0.4529E-14  0.1603E-04  0.5122E-07  0.1530E-02  0.4751E-04  0.1209E+03
   -1.400012   31.17772  0.4529E-14  0.1577E-04  0.5287E-07  0.1441E-02  0.4444E-04  0.1598E+03
   -1.450013   31.17838  0.4529E-14  0.1546E-04  0.5518E-07  0.1360E-02  0.4143E-04  0.2127E+03
   -1.500014   31.17907  0.4529E-14  0.1508E-04  0.5850E-07  0.1238E-02  0.3845E-04  0.3263E+03
   -1.550014   31.17985  0.4529E-14  0.1462E-04  0.6335E-07  0.1160E-02  0.3545E-04  0.5141E+03
   -1.600014   31.18068  0.4529E-14  0.1404E-04  0.7126E-07  0.1013E-02  0.3248E-04  0.3543E+04
   -1.650014   31.18180  0.4529E-14  0.1328E-04  0.8385E-07  0.9329E-03  0.2921E-04  0.3672E+04
   -1.700013   31.18312  0.4529E-14  0.1222E-04  0.1063E-06  0.7494E-03  0.2584E-04  0.8808E+04
   -1.750012   31.18560  0.4529E-14  0.1094E-04  0.1421E-06  0.6729E-03  0.2141E-04  0.1765E+07
   -1.800011   31.18707  0.4529E-14  0.9382E-05  0.2195E-06  0.4545E-03  0.1828E-04 -0.4623E+04
   -1.850009   31.19647  0.4529E-14  0.7848E-05  0.3693E-06  0.4381E-03  0.1234E-04  0.1092E+11
   -1.900007   31.19198  0.4529E-14  0.6242E-05  0.7764E-06  0.2048E-03  0.1025E-04 -0.5399E+07
   -1.950005   31.21551  0.4529E-14  0.4483E-05  0.1837E-05  0.2223E-03  0.5298E-05 -0.3375E+07
   -2.000002   31.21416  0.4529E-14  0.0000E+00  0.0000E+00  0.0000E+00  0.1102E-04  0.0000E+00
