 1 - depth, m
 2 - temperature, C
 3 - salinity, kg/kg
 4 - turbulent kinetic energy, m**2/s**2
 5 - dissipation rate, m**2/s**3
 6 - kinematic heat conductance, m**2/s
 7 - modulus of horizontal velocity, m/s
 8 - Richardson number, n/d
   -0.000000   29.90027  0.2200E-13  0.4821E-05  0.2774E-06  0.4952E-04  0.2478E-02  0.4043E+04
   -0.049997   29.92909  0.2200E-13  0.8047E-05  0.1224E-06  0.1860E-03  0.1353E-02  0.1436E+04
   -0.099994   29.93875  0.2200E-13  0.9613E-05  0.8572E-07  0.3832E-03  0.1027E-02  0.7693E+01
   -0.149992   29.94188  0.2200E-13  0.1062E-04  0.7196E-07  0.4746E-03  0.9062E-03  0.3867E+01
   -0.199991   29.94430  0.2200E-13  0.1142E-04  0.6390E-07  0.6233E-03  0.8113E-03  0.2509E+01
   -0.249989   29.94609  0.2200E-13  0.1205E-04  0.5861E-07  0.7451E-03  0.7392E-03  0.1857E+01
   -0.299989   29.94755  0.2200E-13  0.1257E-04  0.5485E-07  0.8614E-03  0.6791E-03  0.1491E+01
   -0.349988   29.94878  0.2200E-13  0.1300E-04  0.5202E-07  0.9656E-03  0.6273E-03  0.1319E+01
   -0.399988   29.94986  0.2200E-13  0.1338E-04  0.4977E-07  0.1067E-02  0.5807E-03  0.1258E+01
   -0.449988   29.95081  0.2200E-13  0.1371E-04  0.4789E-07  0.1168E-02  0.5381E-03  0.1240E+01
   -0.499988   29.95166  0.2200E-13  0.1401E-04  0.4632E-07  0.1264E-02  0.4997E-03  0.1239E+01
   -0.549989   29.95243  0.2200E-13  0.1427E-04  0.4500E-07  0.1352E-02  0.4651E-03  0.1234E+01
   -0.599990   29.95314  0.2200E-13  0.1449E-04  0.4389E-07  0.1432E-02  0.4337E-03  0.1232E+01
   -0.649991   29.95380  0.2200E-13  0.1468E-04  0.4296E-07  0.1503E-02  0.4053E-03  0.1228E+01
   -0.699992   29.95442  0.2200E-13  0.1484E-04  0.4219E-07  0.1565E-02  0.3795E-03  0.1228E+01
   -0.749993   29.95501  0.2200E-13  0.1497E-04  0.4156E-07  0.1618E-02  0.3560E-03  0.1227E+01
   -0.799995   29.95557  0.2200E-13  0.1507E-04  0.4105E-07  0.1661E-02  0.3346E-03  0.1235E+01
   -0.849996   29.95611  0.2200E-13  0.1515E-04  0.4064E-07  0.1694E-02  0.3151E-03  0.1254E+01
   -0.899998   29.95664  0.2200E-13  0.1521E-04  0.4034E-07  0.1719E-02  0.2971E-03  0.1298E+01
   -0.950000   29.95715  0.2200E-13  0.1524E-04  0.4013E-07  0.1735E-02  0.2804E-03  0.1364E+01
   -1.000002   29.95765  0.2200E-13  0.1526E-04  0.4002E-07  0.1744E-02  0.2648E-03  0.1466E+01
   -1.050003   29.95815  0.2200E-13  0.1525E-04  0.4000E-07  0.1743E-02  0.2501E-03  0.1659E+01
   -1.100005   29.95864  0.2200E-13  0.1522E-04  0.4008E-07  0.1833E-02  0.2360E-03  0.5491E+01
   -1.150007   29.95910  0.2200E-13  0.1517E-04  0.4028E-07  0.1654E-02  0.2235E-03  0.1261E+02
   -1.200008   29.95962  0.2200E-13  0.1510E-04  0.4060E-07  0.1683E-02  0.2104E-03  0.2408E+01
   -1.250010   29.96012  0.2200E-13  0.1501E-04  0.4108E-07  0.1652E-02  0.1980E-03  0.2570E+01
   -1.300011   29.96062  0.2200E-13  0.1489E-04  0.4175E-07  0.1602E-02  0.1860E-03  0.3006E+01
   -1.350012   29.96114  0.2200E-13  0.1474E-04  0.4266E-07  0.1543E-02  0.1744E-03  0.3606E+01
   -1.400013   29.96168  0.2200E-13  0.1455E-04  0.4389E-07  0.1467E-02  0.1630E-03  0.4454E+01
   -1.450014   29.96224  0.2200E-13  0.1433E-04  0.4556E-07  0.1390E-02  0.1519E-03  0.5684E+01
   -1.500015   29.96284  0.2200E-13  0.1405E-04  0.4787E-07  0.1279E-02  0.1410E-03  0.7715E+01
   -1.550015   29.96350  0.2200E-13  0.1372E-04  0.5114E-07  0.1195E-02  0.1301E-03  0.1099E+02
   -1.600015   29.96420  0.2200E-13  0.1330E-04  0.5615E-07  0.1054E-02  0.1193E-03  0.2058E+02
   -1.650015   29.96506  0.2200E-13  0.1277E-04  0.6390E-07  0.9718E-03  0.1078E-03  0.5237E+03
   -1.700014   29.96603  0.2200E-13  0.1203E-04  0.7781E-07  0.7970E-03  0.9660E-04  0.7742E+04
   -1.750014   29.96775  0.2200E-13  0.1105E-04  0.1007E-06  0.7142E-03  0.8174E-04  0.1420E+05
   -1.800012   29.96920  0.2200E-13  0.9730E-05  0.1484E-06  0.4995E-03  0.7001E-04  0.4933E+05
   -1.850011   29.97499  0.2200E-13  0.8245E-05  0.2392E-06  0.4564E-03  0.5008E-04  0.8772E+07
   -1.900009   29.97400  0.2200E-13  0.6505E-05  0.4985E-06  0.2058E-03  0.4047E-04 -0.5705E+04
   -1.950006   29.99203  0.2200E-13  0.4533E-05  0.1249E-05  0.1846E-03  0.2161E-04 -0.4699E+06
   -2.000003   29.99400  0.2200E-13  0.0000E+00  0.0000E+00  0.0000E+00  0.4002E-04  0.0000E+00
