 1 - depth, m
 2 - temperature, C
 3 - salinity, kg/kg
 4 - turbulent kinetic energy, m**2/s**2
 5 - dissipation rate, m**2/s**3
 6 - kinematic heat conductance, m**2/s
 7 - modulus of horizontal velocity, m/s
 8 - Richardson number, n/d
   -0.000000   31.63345  0.2836E-14  0.5447E-05  0.3563E-06  0.5140E-04  0.4397E-03  0.8156E+05
   -0.049997   31.67069  0.2836E-14  0.9585E-05  0.1588E-06  0.2007E-03  0.2462E-03  0.1272E+06
   -0.099994   31.68240  0.2836E-14  0.1153E-04  0.1108E-06  0.4326E-03  0.1832E-03  0.2557E+03
   -0.149992   31.68603  0.2836E-14  0.1276E-04  0.9342E-07  0.5137E-03  0.1627E-03  0.1284E+03
   -0.199990   31.68893  0.2836E-14  0.1372E-04  0.8315E-07  0.6867E-03  0.1458E-03  0.8398E+02
   -0.249989   31.69103  0.2836E-14  0.1448E-04  0.7637E-07  0.8181E-03  0.1332E-03  0.6263E+02
   -0.299988   31.69275  0.2836E-14  0.1510E-04  0.7150E-07  0.9492E-03  0.1227E-03  0.5005E+02
   -0.349988   31.69418  0.2836E-14  0.1560E-04  0.6783E-07  0.1068E-02  0.1136E-03  0.4284E+02
   -0.399987   31.69543  0.2836E-14  0.1602E-04  0.6496E-07  0.1176E-02  0.1056E-03  0.3818E+02
   -0.449987   31.69654  0.2836E-14  0.1639E-04  0.6262E-07  0.1275E-02  0.9853E-04  0.3581E+02
   -0.499988   31.69753  0.2836E-14  0.1669E-04  0.6067E-07  0.1366E-02  0.9226E-04  0.3480E+02
   -0.549988   31.69844  0.2836E-14  0.1696E-04  0.5902E-07  0.1449E-02  0.8663E-04  0.3427E+02
   -0.599989   31.69929  0.2836E-14  0.1718E-04  0.5763E-07  0.1524E-02  0.8152E-04  0.3423E+02
   -0.649990   31.70007  0.2836E-14  0.1737E-04  0.5645E-07  0.1591E-02  0.7685E-04  0.3459E+02
   -0.699991   31.70082  0.2836E-14  0.1752E-04  0.5544E-07  0.1649E-02  0.7255E-04  0.3531E+02
   -0.749992   31.70152  0.2836E-14  0.1764E-04  0.5459E-07  0.1700E-02  0.6856E-04  0.3639E+02
   -0.799994   31.70219  0.2836E-14  0.1774E-04  0.5388E-07  0.1741E-02  0.6485E-04  0.3786E+02
   -0.849995   31.70284  0.2836E-14  0.1781E-04  0.5330E-07  0.1775E-02  0.6137E-04  0.3974E+02
   -0.899997   31.70347  0.2836E-14  0.1785E-04  0.5284E-07  0.1799E-02  0.5810E-04  0.4210E+02
   -0.949999   31.70408  0.2836E-14  0.1786E-04  0.5251E-07  0.1814E-02  0.5501E-04  0.4503E+02
   -1.000000   31.70468  0.2836E-14  0.1785E-04  0.5230E-07  0.1821E-02  0.5208E-04  0.4861E+02
   -1.050002   31.70527  0.2836E-14  0.1782E-04  0.5223E-07  0.1816E-02  0.4928E-04  0.5496E+02
   -1.100004   31.70585  0.2836E-14  0.1775E-04  0.5230E-07  0.1934E-02  0.4661E-04  0.1761E+03
   -1.150005   31.70639  0.2836E-14  0.1766E-04  0.5255E-07  0.1682E-02  0.4427E-04  0.4436E+03
   -1.200007   31.70701  0.2836E-14  0.1754E-04  0.5297E-07  0.1733E-02  0.4172E-04  0.8130E+02
   -1.250008   31.70761  0.2836E-14  0.1739E-04  0.5362E-07  0.1700E-02  0.3933E-04  0.8638E+02
   -1.300010   31.70821  0.2836E-14  0.1721E-04  0.5456E-07  0.1639E-02  0.3703E-04  0.1021E+03
   -1.350011   31.70883  0.2836E-14  0.1698E-04  0.5588E-07  0.1572E-02  0.3478E-04  0.1239E+03
   -1.400012   31.70947  0.2836E-14  0.1670E-04  0.5770E-07  0.1480E-02  0.3258E-04  0.1569E+03
   -1.450013   31.71015  0.2836E-14  0.1637E-04  0.6026E-07  0.1400E-02  0.3040E-04  0.2054E+03
   -1.500013   31.71088  0.2836E-14  0.1598E-04  0.6393E-07  0.1273E-02  0.2825E-04  0.2946E+03
   -1.550013   31.71169  0.2836E-14  0.1549E-04  0.6930E-07  0.1197E-02  0.2606E-04  0.4609E+03
   -1.600013   31.71257  0.2836E-14  0.1488E-04  0.7814E-07  0.1040E-02  0.2391E-04  0.1558E+04
   -1.650013   31.71379  0.2836E-14  0.1407E-04  0.9201E-07  0.9647E-03  0.2143E-04  0.5061E+04
   -1.700013   31.71512  0.2836E-14  0.1297E-04  0.1167E-06  0.7730E-03  0.1901E-04 -0.6204E+04
   -1.750012   31.71772  0.2836E-14  0.1165E-04  0.1560E-06  0.7027E-03  0.1565E-04  0.6522E+07
   -1.800010   31.71910  0.2836E-14  0.1002E-04  0.2426E-06  0.4685E-03  0.1349E-04  0.2090E+06
   -1.850009   31.72904  0.2836E-14  0.8399E-05  0.4084E-06  0.4568E-03  0.9001E-05  0.1477E+11
   -1.900006   31.72458  0.2836E-14  0.6691E-05  0.8564E-06  0.2154E-03  0.7534E-05 -0.2923E+07
   -1.950004   31.74936  0.2836E-14  0.4823E-05  0.2028E-05  0.2285E-03  0.3896E-05 -0.8271E+05
   -2.000001   31.74837  0.2836E-14  0.0000E+00  0.0000E+00  0.0000E+00  0.8240E-05  0.0000E+00
