 1 - depth, m
 2 - temperature, C
 3 - salinity, kg/kg
 4 - turbulent kinetic energy, m**2/s**2
 5 - dissipation rate, m**2/s**3
 6 - kinematic heat conductance, m**2/s
 7 - modulus of horizontal velocity, m/s
 8 - Richardson number, n/d
   -0.000000   31.05010  0.2095E-13  0.5069E-05  0.3250E-06  0.5117E-04  0.6353E-03  0.2351E+05
   -0.049997   31.08345  0.2095E-13  0.8877E-05  0.1443E-06  0.1864E-03  0.3621E-03  0.1429E+03
   -0.099994   31.09549  0.2095E-13  0.1074E-04  0.9970E-07  0.4222E-03  0.2643E-03  0.1311E+03
   -0.149992   31.09885  0.2095E-13  0.1190E-04  0.8408E-07  0.4977E-03  0.2345E-03  0.6477E+02
   -0.199991   31.10156  0.2095E-13  0.1280E-04  0.7484E-07  0.6665E-03  0.2098E-03  0.4223E+02
   -0.249989   31.10354  0.2095E-13  0.1352E-04  0.6875E-07  0.7944E-03  0.1914E-03  0.3140E+02
   -0.299988   31.10514  0.2095E-13  0.1410E-04  0.6438E-07  0.9222E-03  0.1760E-03  0.2507E+02
   -0.349988   31.10649  0.2095E-13  0.1458E-04  0.6110E-07  0.1038E-02  0.1628E-03  0.2145E+02
   -0.399988   31.10766  0.2095E-13  0.1498E-04  0.5853E-07  0.1143E-02  0.1511E-03  0.1912E+02
   -0.449988   31.10869  0.2095E-13  0.1533E-04  0.5644E-07  0.1241E-02  0.1408E-03  0.1793E+02
   -0.499988   31.10963  0.2095E-13  0.1562E-04  0.5470E-07  0.1330E-02  0.1317E-03  0.1743E+02
   -0.549989   31.11048  0.2095E-13  0.1588E-04  0.5325E-07  0.1411E-02  0.1235E-03  0.1717E+02
   -0.599989   31.11127  0.2095E-13  0.1609E-04  0.5202E-07  0.1485E-02  0.1161E-03  0.1716E+02
   -0.649990   31.11201  0.2095E-13  0.1628E-04  0.5097E-07  0.1551E-02  0.1093E-03  0.1733E+02
   -0.699992   31.11271  0.2095E-13  0.1643E-04  0.5009E-07  0.1609E-02  0.1031E-03  0.1770E+02
   -0.749993   31.11337  0.2095E-13  0.1656E-04  0.4934E-07  0.1659E-02  0.9733E-04  0.1824E+02
   -0.799994   31.11400  0.2095E-13  0.1666E-04  0.4873E-07  0.1701E-02  0.9196E-04  0.1899E+02
   -0.849996   31.11461  0.2095E-13  0.1673E-04  0.4823E-07  0.1734E-02  0.8694E-04  0.1992E+02
   -0.899998   31.11520  0.2095E-13  0.1678E-04  0.4784E-07  0.1760E-02  0.8222E-04  0.2110E+02
   -0.949999   31.11577  0.2095E-13  0.1681E-04  0.4756E-07  0.1776E-02  0.7777E-04  0.2254E+02
   -1.000001   31.11634  0.2095E-13  0.1681E-04  0.4740E-07  0.1785E-02  0.7355E-04  0.2432E+02
   -1.050003   31.11689  0.2095E-13  0.1679E-04  0.4735E-07  0.1782E-02  0.6954E-04  0.2749E+02
   -1.100004   31.11744  0.2095E-13  0.1675E-04  0.4743E-07  0.1886E-02  0.6571E-04  0.8942E+02
   -1.150006   31.11796  0.2095E-13  0.1668E-04  0.4767E-07  0.1671E-02  0.6232E-04  0.2144E+03
   -1.200007   31.11853  0.2095E-13  0.1659E-04  0.4806E-07  0.1710E-02  0.5871E-04  0.4016E+02
   -1.250009   31.11909  0.2095E-13  0.1646E-04  0.4865E-07  0.1678E-02  0.5530E-04  0.4263E+02
   -1.300010   31.11966  0.2095E-13  0.1631E-04  0.4948E-07  0.1622E-02  0.5201E-04  0.5017E+02
   -1.350011   31.12024  0.2095E-13  0.1611E-04  0.5064E-07  0.1559E-02  0.4881E-04  0.6035E+02
   -1.400012   31.12085  0.2095E-13  0.1588E-04  0.5222E-07  0.1474E-02  0.4568E-04  0.7542E+02
   -1.450013   31.12149  0.2095E-13  0.1560E-04  0.5441E-07  0.1394E-02  0.4259E-04  0.9746E+02
   -1.500014   31.12217  0.2095E-13  0.1525E-04  0.5750E-07  0.1273E-02  0.3956E-04  0.1359E+03
   -1.550014   31.12292  0.2095E-13  0.1484E-04  0.6195E-07  0.1194E-02  0.3648E-04  0.2011E+03
   -1.600014   31.12373  0.2095E-13  0.1431E-04  0.6903E-07  0.1043E-02  0.3348E-04  0.6538E+03
   -1.650014   31.12479  0.2095E-13  0.1363E-04  0.8017E-07  0.9659E-03  0.3011E-04  0.6770E+05
   -1.700013   31.12599  0.2095E-13  0.1268E-04  0.1001E-06  0.7797E-03  0.2683E-04  0.1892E+06
   -1.750013   31.12823  0.2095E-13  0.1150E-04  0.1321E-06  0.7058E-03  0.2229E-04  0.1175E+07
   -1.800011   31.12965  0.2095E-13  0.9980E-05  0.2015E-06  0.4820E-03  0.1920E-04  0.7617E+06
   -1.850010   31.13791  0.2095E-13  0.8401E-05  0.3345E-06  0.4531E-03  0.1316E-04  0.6021E+08
   -1.900007   31.13499  0.2095E-13  0.6639E-05  0.7026E-06  0.2085E-03  0.1083E-04 -0.1519E+07
   -1.950005   31.15719  0.2095E-13  0.4746E-05  0.1694E-05  0.2107E-03  0.5672E-05 -0.1885E+07
   -2.000002   31.15788  0.2095E-13  0.0000E+00  0.0000E+00  0.0000E+00  0.1133E-04  0.0000E+00
