 1 - depth, m
 2 - temperature, C
 3 - salinity, kg/kg
 4 - turbulent kinetic energy, m**2/s**2
 5 - dissipation rate, m**2/s**3
 6 - kinematic heat conductance, m**2/s
 7 - modulus of horizontal velocity, m/s
 8 - Richardson number, n/d
   -0.000000   29.91282  0.9817E-13  0.4457E-05  0.2671E-06  0.4831E-04  0.7331E-03  0.9178E+05
   -0.049997   29.94190  0.9818E-13  0.7823E-05  0.1184E-06  0.1742E-03  0.4154E-03  0.4707E+02
   -0.099994   29.95288  0.9818E-13  0.9484E-05  0.8180E-07  0.4023E-03  0.3008E-03  0.8908E+02
   -0.149992   29.95584  0.9818E-13  0.1051E-04  0.6911E-07  0.4769E-03  0.2662E-03  0.4334E+02
   -0.199991   29.95823  0.9818E-13  0.1131E-04  0.6159E-07  0.6353E-03  0.2377E-03  0.2826E+02
   -0.249989   29.95997  0.9818E-13  0.1195E-04  0.5662E-07  0.7581E-03  0.2163E-03  0.2101E+02
   -0.299989   29.96139  0.9818E-13  0.1247E-04  0.5307E-07  0.8794E-03  0.1985E-03  0.1678E+02
   -0.349988   29.96259  0.9818E-13  0.1290E-04  0.5040E-07  0.9896E-03  0.1832E-03  0.1441E+02
   -0.399988   29.96362  0.9818E-13  0.1326E-04  0.4831E-07  0.1090E-02  0.1697E-03  0.1285E+02
   -0.449988   29.96454  0.9818E-13  0.1358E-04  0.4661E-07  0.1184E-02  0.1578E-03  0.1209E+02
   -0.499988   29.96538  0.9818E-13  0.1385E-04  0.4521E-07  0.1270E-02  0.1473E-03  0.1176E+02
   -0.549989   29.96613  0.9818E-13  0.1409E-04  0.4404E-07  0.1349E-02  0.1378E-03  0.1163E+02
   -0.599990   29.96684  0.9818E-13  0.1429E-04  0.4305E-07  0.1420E-02  0.1293E-03  0.1163E+02
   -0.649991   29.96749  0.9818E-13  0.1447E-04  0.4221E-07  0.1484E-02  0.1215E-03  0.1180E+02
   -0.699992   29.96811  0.9818E-13  0.1462E-04  0.4151E-07  0.1541E-02  0.1144E-03  0.1205E+02
   -0.749993   29.96870  0.9818E-13  0.1475E-04  0.4092E-07  0.1591E-02  0.1078E-03  0.1248E+02
   -0.799995   29.96926  0.9818E-13  0.1485E-04  0.4044E-07  0.1633E-02  0.1016E-03  0.1299E+02
   -0.849996   29.96980  0.9818E-13  0.1493E-04  0.4005E-07  0.1668E-02  0.9592E-04  0.1369E+02
   -0.899998   29.97033  0.9818E-13  0.1500E-04  0.3976E-07  0.1695E-02  0.9055E-04  0.1449E+02
   -0.950000   29.97084  0.9818E-13  0.1504E-04  0.3955E-07  0.1714E-02  0.8548E-04  0.1555E+02
   -1.000001   29.97134  0.9818E-13  0.1506E-04  0.3944E-07  0.1725E-02  0.8070E-04  0.1676E+02
   -1.050003   29.97184  0.9818E-13  0.1507E-04  0.3942E-07  0.1727E-02  0.7616E-04  0.1904E+02
   -1.100005   29.97233  0.9818E-13  0.1505E-04  0.3949E-07  0.1807E-02  0.7184E-04  0.6344E+02
   -1.150006   29.97280  0.9818E-13  0.1502E-04  0.3969E-07  0.1656E-02  0.6798E-04  0.1410E+03
   -1.200008   29.97330  0.9818E-13  0.1496E-04  0.4000E-07  0.1675E-02  0.6400E-04  0.2739E+02
   -1.250010   29.97380  0.9818E-13  0.1488E-04  0.4047E-07  0.1646E-02  0.6019E-04  0.2917E+02
   -1.300011   29.97431  0.9818E-13  0.1477E-04  0.4111E-07  0.1600E-02  0.5652E-04  0.3411E+02
   -1.350012   29.97482  0.9818E-13  0.1463E-04  0.4199E-07  0.1543E-02  0.5297E-04  0.4065E+02
   -1.400013   29.97536  0.9818E-13  0.1447E-04  0.4316E-07  0.1471E-02  0.4951E-04  0.5002E+02
   -1.450014   29.97592  0.9818E-13  0.1426E-04  0.4474E-07  0.1395E-02  0.4612E-04  0.6327E+02
   -1.500015   29.97651  0.9818E-13  0.1401E-04  0.4691E-07  0.1289E-02  0.4281E-04  0.8498E+02
   -1.550015   29.97716  0.9818E-13  0.1370E-04  0.4994E-07  0.1204E-02  0.3949E-04  0.1189E+03
   -1.600015   29.97786  0.9818E-13  0.1331E-04  0.5448E-07  0.1062E-02  0.3624E-04  0.2028E+03
   -1.650015   29.97869  0.9818E-13  0.1282E-04  0.6140E-07  0.9855E-03  0.3280E-04  0.1474E+05
   -1.700014   29.97961  0.9818E-13  0.1215E-04  0.7388E-07  0.8063E-03  0.2949E-04 -0.1323E+05
   -1.750013   29.98121  0.9818E-13  0.1123E-04  0.9464E-07  0.7285E-03  0.2513E-04  0.1976E+06
   -1.800012   29.98268  0.9818E-13  0.9949E-05  0.1381E-06  0.5079E-03  0.2158E-04  0.4576E+06
   -1.850010   29.98800  0.9818E-13  0.8461E-05  0.2183E-06  0.4630E-03  0.1562E-04  0.1126E+09
   -1.900008   29.98744  0.9818E-13  0.6703E-05  0.4484E-06  0.2071E-03  0.1264E-04  0.2344E+07
   -1.950006   30.00523  0.9818E-13  0.4655E-05  0.1153E-05  0.1761E-03  0.6839E-05 -0.3053E+07
   -2.000003   30.00774  0.9818E-13  0.0000E+00  0.0000E+00  0.0000E+00  0.1214E-04  0.0000E+00
