 1 - depth, m
 2 - temperature, C
 3 - salinity, kg/kg
 4 - turbulent kinetic energy, m**2/s**2
 5 - dissipation rate, m**2/s**3
 6 - kinematic heat conductance, m**2/s
 7 - modulus of horizontal velocity, m/s
 8 - Richardson number, n/d
   -0.000000   29.49606  0.8196E-13  0.4164E-05  0.2390E-06  0.4683E-04  0.9835E-03  0.4821E+05
   -0.049997   29.52300  0.8196E-13  0.7270E-05  0.1061E-06  0.1665E-03  0.5592E-03  0.2739E+02
   -0.099994   29.53344  0.8197E-13  0.8812E-05  0.7325E-07  0.3870E-03  0.4038E-03  0.5265E+02
   -0.149992   29.53623  0.8197E-13  0.9760E-05  0.6188E-07  0.4610E-03  0.3568E-03  0.2521E+02
   -0.199991   29.53849  0.8197E-13  0.1049E-04  0.5513E-07  0.6116E-03  0.3183E-03  0.1646E+02
   -0.249990   29.54013  0.8197E-13  0.1108E-04  0.5066E-07  0.7302E-03  0.2893E-03  0.1215E+02
   -0.299989   29.54147  0.8197E-13  0.1156E-04  0.4744E-07  0.8464E-03  0.2651E-03  0.9717E+01
   -0.349988   29.54260  0.8197E-13  0.1195E-04  0.4501E-07  0.9523E-03  0.2444E-03  0.8290E+01
   -0.399988   29.54357  0.8197E-13  0.1228E-04  0.4311E-07  0.1049E-02  0.2260E-03  0.7419E+01
   -0.449988   29.54444  0.8197E-13  0.1257E-04  0.4156E-07  0.1139E-02  0.2099E-03  0.6945E+01
   -0.499988   29.54522  0.8197E-13  0.1281E-04  0.4027E-07  0.1222E-02  0.1956E-03  0.6796E+01
   -0.549989   29.54593  0.8197E-13  0.1303E-04  0.3918E-07  0.1298E-02  0.1828E-03  0.6678E+01
   -0.599990   29.54659  0.8197E-13  0.1321E-04  0.3826E-07  0.1367E-02  0.1713E-03  0.6720E+01
   -0.649991   29.54721  0.8197E-13  0.1337E-04  0.3747E-07  0.1429E-02  0.1607E-03  0.6768E+01
   -0.699992   29.54778  0.8197E-13  0.1350E-04  0.3680E-07  0.1484E-02  0.1511E-03  0.6961E+01
   -0.749994   29.54833  0.8197E-13  0.1361E-04  0.3623E-07  0.1533E-02  0.1422E-03  0.7143E+01
   -0.799995   29.54886  0.8197E-13  0.1370E-04  0.3575E-07  0.1574E-02  0.1339E-03  0.7485E+01
   -0.849997   29.54936  0.8197E-13  0.1377E-04  0.3535E-07  0.1609E-02  0.1262E-03  0.7811E+01
   -0.899998   29.54985  0.8197E-13  0.1382E-04  0.3504E-07  0.1636E-02  0.1190E-03  0.8327E+01
   -0.950000   29.55032  0.8197E-13  0.1385E-04  0.3480E-07  0.1655E-02  0.1122E-03  0.8835E+01
   -1.000002   29.55078  0.8197E-13  0.1387E-04  0.3463E-07  0.1668E-02  0.1058E-03  0.9588E+01
   -1.050004   29.55123  0.8197E-13  0.1387E-04  0.3455E-07  0.1672E-02  0.9969E-04  0.1077E+02
   -1.100005   29.55168  0.8197E-13  0.1384E-04  0.3455E-07  0.1741E-02  0.9391E-04  0.3646E+02
   -1.150007   29.55211  0.8197E-13  0.1381E-04  0.3464E-07  0.1616E-02  0.8872E-04  0.7915E+02
   -1.200009   29.55256  0.8197E-13  0.1375E-04  0.3483E-07  0.1629E-02  0.8346E-04  0.1533E+02
   -1.250010   29.55301  0.8197E-13  0.1367E-04  0.3515E-07  0.1602E-02  0.7838E-04  0.1638E+02
   -1.300012   29.55346  0.8197E-13  0.1357E-04  0.3561E-07  0.1560E-02  0.7352E-04  0.1888E+02
   -1.350013   29.55392  0.8197E-13  0.1344E-04  0.3625E-07  0.1508E-02  0.6881E-04  0.2255E+02
   -1.400014   29.55439  0.8197E-13  0.1329E-04  0.3713E-07  0.1442E-02  0.6426E-04  0.2725E+02
   -1.450015   29.55488  0.8197E-13  0.1310E-04  0.3833E-07  0.1370E-02  0.5980E-04  0.3444E+02
   -1.500015   29.55540  0.8197E-13  0.1287E-04  0.3997E-07  0.1273E-02  0.5545E-04  0.4509E+02
   -1.550016   29.55595  0.8197E-13  0.1260E-04  0.4227E-07  0.1188E-02  0.5112E-04  0.6256E+02
   -1.600016   29.55655  0.8197E-13  0.1226E-04  0.4566E-07  0.1055E-02  0.4688E-04  0.9762E+02
   -1.650016   29.55723  0.8197E-13  0.1184E-04  0.5078E-07  0.9733E-03  0.4249E-04  0.2849E+03
   -1.700015   29.55799  0.8197E-13  0.1128E-04  0.5996E-07  0.8062E-03  0.3822E-04 -0.8969E+04
   -1.750014   29.55920  0.8197E-13  0.1051E-04  0.7540E-07  0.7221E-03  0.3296E-04 -0.7817E+04
   -1.800013   29.56044  0.8197E-13  0.9392E-05  0.1064E-06  0.5174E-03  0.2828E-04  0.6662E+06
   -1.850011   29.56414  0.8197E-13  0.8011E-05  0.1650E-06  0.4532E-03  0.2102E-04  0.1207E+08
   -1.900009   29.56448  0.8197E-13  0.6248E-05  0.3382E-06  0.1991E-03  0.1674E-04 -0.1971E+06
   -1.950007   29.57833  0.8197E-13  0.4256E-05  0.8841E-06  0.1595E-03  0.9056E-05 -0.1463E+07
   -2.000004   29.58097  0.8197E-13  0.0000E+00  0.0000E+00  0.0000E+00  0.1551E-04  0.0000E+00
