 1 - depth, m
 2 - temperature, C
 3 - salinity, kg/kg
 4 - turbulent kinetic energy, m**2/s**2
 5 - dissipation rate, m**2/s**3
 6 - kinematic heat conductance, m**2/s
 7 - modulus of horizontal velocity, m/s
 8 - Richardson number, n/d
   -0.000000   30.14262  0.1104E-12  0.4452E-05  0.2626E-06  0.4853E-04  0.1703E-02  0.4232E+04
   -0.049997   30.17012  0.1104E-12  0.7592E-05  0.1169E-06  0.1689E-03  0.9712E-03  0.3599E+03
   -0.099994   30.18081  0.1104E-12  0.9201E-05  0.8022E-07  0.3852E-03  0.7073E-03  0.1786E+02
   -0.149992   30.18374  0.1104E-12  0.1020E-04  0.6738E-07  0.4635E-03  0.6239E-03  0.8592E+01
   -0.199991   30.18609  0.1104E-12  0.1098E-04  0.5983E-07  0.6173E-03  0.5563E-03  0.5534E+01
   -0.249989   30.18779  0.1104E-12  0.1160E-04  0.5488E-07  0.7383E-03  0.5057E-03  0.4065E+01
   -0.299989   30.18918  0.1104E-12  0.1211E-04  0.5134E-07  0.8579E-03  0.4635E-03  0.3239E+01
   -0.349988   30.19034  0.1104E-12  0.1253E-04  0.4868E-07  0.9667E-03  0.4273E-03  0.2758E+01
   -0.399988   30.19135  0.1104E-12  0.1288E-04  0.4662E-07  0.1066E-02  0.3954E-03  0.2464E+01
   -0.449988   30.19224  0.1104E-12  0.1319E-04  0.4494E-07  0.1159E-02  0.3673E-03  0.2302E+01
   -0.499988   30.19305  0.1104E-12  0.1346E-04  0.4355E-07  0.1244E-02  0.3425E-03  0.2248E+01
   -0.549989   30.19378  0.1104E-12  0.1369E-04  0.4239E-07  0.1323E-02  0.3203E-03  0.2207E+01
   -0.599990   30.19446  0.1104E-12  0.1389E-04  0.4141E-07  0.1394E-02  0.3002E-03  0.2218E+01
   -0.649991   30.19510  0.1104E-12  0.1406E-04  0.4059E-07  0.1458E-02  0.2820E-03  0.2233E+01
   -0.699992   30.19569  0.1104E-12  0.1421E-04  0.3989E-07  0.1515E-02  0.2652E-03  0.2297E+01
   -0.749993   30.19626  0.1104E-12  0.1433E-04  0.3931E-07  0.1565E-02  0.2498E-03  0.2358E+01
   -0.799995   30.19680  0.1104E-12  0.1443E-04  0.3883E-07  0.1607E-02  0.2354E-03  0.2472E+01
   -0.849996   30.19732  0.1104E-12  0.1452E-04  0.3845E-07  0.1643E-02  0.2220E-03  0.2583E+01
   -0.899998   30.19783  0.1104E-12  0.1458E-04  0.3815E-07  0.1671E-02  0.2095E-03  0.2757E+01
   -0.950000   30.19832  0.1104E-12  0.1463E-04  0.3794E-07  0.1691E-02  0.1977E-03  0.2931E+01
   -1.000001   30.19880  0.1104E-12  0.1465E-04  0.3782E-07  0.1703E-02  0.1865E-03  0.3186E+01
   -1.050003   30.19928  0.1104E-12  0.1466E-04  0.3779E-07  0.1707E-02  0.1759E-03  0.3588E+01
   -1.100005   30.19975  0.1104E-12  0.1465E-04  0.3786E-07  0.1779E-02  0.1659E-03  0.1213E+02
   -1.150006   30.20020  0.1104E-12  0.1462E-04  0.3803E-07  0.1647E-02  0.1568E-03  0.2658E+02
   -1.200008   30.20069  0.1104E-12  0.1457E-04  0.3832E-07  0.1661E-02  0.1476E-03  0.5144E+01
   -1.250010   30.20116  0.1104E-12  0.1450E-04  0.3875E-07  0.1633E-02  0.1388E-03  0.5526E+01
   -1.300011   30.20165  0.1104E-12  0.1440E-04  0.3935E-07  0.1589E-02  0.1303E-03  0.6394E+01
   -1.350012   30.20214  0.1104E-12  0.1427E-04  0.4016E-07  0.1535E-02  0.1220E-03  0.7680E+01
   -1.400013   30.20266  0.1104E-12  0.1412E-04  0.4125E-07  0.1466E-02  0.1140E-03  0.9352E+01
   -1.450014   30.20319  0.1104E-12  0.1393E-04  0.4271E-07  0.1393E-02  0.1062E-03  0.1189E+02
   -1.500015   30.20376  0.1104E-12  0.1369E-04  0.4471E-07  0.1291E-02  0.9855E-04  0.1580E+02
   -1.550015   30.20437  0.1104E-12  0.1341E-04  0.4750E-07  0.1207E-02  0.9090E-04  0.2215E+02
   -1.600015   30.20504  0.1104E-12  0.1305E-04  0.5166E-07  0.1071E-02  0.8342E-04  0.3742E+02
   -1.650015   30.20582  0.1104E-12  0.1260E-04  0.5797E-07  0.9892E-03  0.7557E-04  0.6515E+03
   -1.700014   30.20669  0.1104E-12  0.1198E-04  0.6920E-07  0.8172E-03  0.6793E-04 -0.1120E+05
   -1.750013   30.20815  0.1104E-12  0.1113E-04  0.8784E-07  0.7332E-03  0.5827E-04  0.3050E+05
   -1.800012   30.20953  0.1104E-12  0.9966E-05  0.1251E-06  0.5277E-03  0.5008E-04  0.6107E+06
   -1.850010   30.21404  0.1104E-12  0.8561E-05  0.1965E-06  0.4675E-03  0.3712E-04  0.5222E+07
   -1.900008   30.21402  0.1104E-12  0.6808E-05  0.4046E-06  0.2168E-03  0.2988E-04  0.7911E+06
   -1.950006   30.22982  0.1104E-12  0.4673E-05  0.1048E-05  0.1653E-03  0.1655E-04 -0.1426E+06
   -2.000003   30.23387  0.1104E-12  0.0000E+00  0.0000E+00  0.0000E+00  0.2810E-04  0.0000E+00
