 1 - depth, m
 2 - temperature, C
 3 - salinity, kg/kg
 4 - turbulent kinetic energy, m**2/s**2
 5 - dissipation rate, m**2/s**3
 6 - kinematic heat conductance, m**2/s
 7 - modulus of horizontal velocity, m/s
 8 - Richardson number, n/d
   -0.000000   30.64912  0.1631E-13  0.4784E-05  0.3013E-06  0.5079E-04  0.7396E-03  0.5495E+04
   -0.049997   30.67954  0.1631E-13  0.8361E-05  0.1335E-06  0.1773E-03  0.4238E-03  0.3911E+02
   -0.099994   30.69157  0.1631E-13  0.1016E-04  0.9172E-07  0.4143E-03  0.3063E-03  0.8471E+02
   -0.149992   30.69471  0.1631E-13  0.1127E-04  0.7734E-07  0.4871E-03  0.2715E-03  0.4137E+02
   -0.199991   30.69727  0.1631E-13  0.1213E-04  0.6885E-07  0.6530E-03  0.2426E-03  0.2683E+02
   -0.249989   30.69913  0.1631E-13  0.1282E-04  0.6326E-07  0.7789E-03  0.2211E-03  0.1993E+02
   -0.299988   30.70064  0.1631E-13  0.1338E-04  0.5927E-07  0.9048E-03  0.2031E-03  0.1590E+02
   -0.349988   30.70191  0.1631E-13  0.1385E-04  0.5627E-07  0.1019E-02  0.1877E-03  0.1363E+02
   -0.399988   30.70302  0.1631E-13  0.1424E-04  0.5393E-07  0.1123E-02  0.1741E-03  0.1215E+02
   -0.449988   30.70400  0.1631E-13  0.1457E-04  0.5203E-07  0.1219E-02  0.1621E-03  0.1142E+02
   -0.499988   30.70488  0.1631E-13  0.1487E-04  0.5045E-07  0.1308E-02  0.1515E-03  0.1110E+02
   -0.549989   30.70569  0.1631E-13  0.1512E-04  0.4914E-07  0.1389E-02  0.1419E-03  0.1095E+02
   -0.599989   30.70643  0.1631E-13  0.1534E-04  0.4802E-07  0.1463E-02  0.1333E-03  0.1095E+02
   -0.649990   30.70713  0.1631E-13  0.1552E-04  0.4709E-07  0.1528E-02  0.1254E-03  0.1109E+02
   -0.699992   30.70779  0.1631E-13  0.1568E-04  0.4629E-07  0.1587E-02  0.1182E-03  0.1133E+02
   -0.749993   30.70842  0.1631E-13  0.1581E-04  0.4563E-07  0.1637E-02  0.1115E-03  0.1170E+02
   -0.799995   30.70902  0.1631E-13  0.1592E-04  0.4508E-07  0.1680E-02  0.1053E-03  0.1218E+02
   -0.849996   30.70959  0.1631E-13  0.1600E-04  0.4464E-07  0.1715E-02  0.9946E-04  0.1280E+02
   -0.899998   30.71015  0.1631E-13  0.1606E-04  0.4430E-07  0.1742E-02  0.9400E-04  0.1356E+02
   -0.949999   30.71070  0.1631E-13  0.1610E-04  0.4407E-07  0.1761E-02  0.8885E-04  0.1451E+02
   -1.000001   30.71123  0.1631E-13  0.1612E-04  0.4393E-07  0.1771E-02  0.8398E-04  0.1566E+02
   -1.050003   30.71176  0.1631E-13  0.1611E-04  0.4390E-07  0.1772E-02  0.7935E-04  0.1773E+02
   -1.100005   30.71228  0.1631E-13  0.1609E-04  0.4398E-07  0.1861E-02  0.7494E-04  0.5865E+02
   -1.150006   30.71277  0.1631E-13  0.1604E-04  0.4420E-07  0.1684E-02  0.7100E-04  0.1336E+03
   -1.200008   30.71331  0.1631E-13  0.1597E-04  0.4455E-07  0.1712E-02  0.6690E-04  0.2561E+02
   -1.250009   30.71384  0.1631E-13  0.1587E-04  0.4507E-07  0.1681E-02  0.6299E-04  0.2726E+02
   -1.300011   30.71438  0.1631E-13  0.1574E-04  0.4581E-07  0.1631E-02  0.5922E-04  0.3191E+02
   -1.350012   30.71493  0.1631E-13  0.1558E-04  0.4681E-07  0.1571E-02  0.5556E-04  0.3818E+02
   -1.400013   30.71549  0.1631E-13  0.1538E-04  0.4817E-07  0.1493E-02  0.5199E-04  0.4722E+02
   -1.450014   30.71609  0.1631E-13  0.1514E-04  0.5003E-07  0.1415E-02  0.4848E-04  0.6020E+02
   -1.500014   30.71672  0.1631E-13  0.1485E-04  0.5260E-07  0.1302E-02  0.4504E-04  0.8202E+02
   -1.550015   30.71742  0.1631E-13  0.1449E-04  0.5626E-07  0.1219E-02  0.4157E-04  0.1177E+03
   -1.600015   30.71817  0.1631E-13  0.1405E-04  0.6190E-07  0.1072E-02  0.3818E-04  0.5613E+03
   -1.650014   30.71909  0.1631E-13  0.1347E-04  0.7062E-07  0.9942E-03  0.3450E-04  0.1082E+06
   -1.700014   30.72013  0.1631E-13  0.1268E-04  0.8617E-07  0.8082E-03  0.3092E-04 -0.3506E+05
   -1.750013   30.72199  0.1631E-13  0.1165E-04  0.1115E-06  0.7366E-03  0.2612E-04  0.3067E+06
   -1.800012   30.72341  0.1631E-13  0.1027E-04  0.1662E-06  0.5022E-03  0.2255E-04  0.2637E+06
   -1.850010   30.72992  0.1631E-13  0.8725E-05  0.2690E-06  0.4704E-03  0.1601E-04  0.9682E+07
   -1.900008   30.72849  0.1631E-13  0.6948E-05  0.5599E-06  0.2167E-03  0.1311E-04  0.2123E+10
   -1.950005   30.74790  0.1631E-13  0.4853E-05  0.1396E-05  0.1903E-03  0.7097E-05 -0.7477E+07
   -2.000002   30.74937  0.1631E-13  0.0000E+00  0.0000E+00  0.0000E+00  0.1298E-04  0.0000E+00
