 1 - depth, m
 2 - temperature, C
 3 - salinity, kg/kg
 4 - turbulent kinetic energy, m**2/s**2
 5 - dissipation rate, m**2/s**3
 6 - kinematic heat conductance, m**2/s
 7 - modulus of horizontal velocity, m/s
 8 - Richardson number, n/d
   -0.000000   29.49028  0.1273E-14  0.4538E-05  0.2709E-06  0.4866E-04  0.1642E-02  0.3714E+04
   -0.049997   29.51869  0.1273E-14  0.7783E-05  0.1205E-06  0.1744E-03  0.9317E-03  0.2954E+03
   -0.099994   29.52948  0.1273E-14  0.9438E-05  0.8311E-07  0.3907E-03  0.6821E-03  0.1925E+02
   -0.149992   29.53249  0.1273E-14  0.1048E-04  0.6985E-07  0.4725E-03  0.6021E-03  0.9419E+01
   -0.199991   29.53490  0.1273E-14  0.1129E-04  0.6209E-07  0.6296E-03  0.5374E-03  0.6071E+01
   -0.249989   29.53665  0.1273E-14  0.1194E-04  0.5702E-07  0.7528E-03  0.4889E-03  0.4474E+01
   -0.299989   29.53808  0.1273E-14  0.1248E-04  0.5342E-07  0.8753E-03  0.4485E-03  0.3575E+01
   -0.349988   29.53928  0.1273E-14  0.1292E-04  0.5073E-07  0.9863E-03  0.4140E-03  0.3052E+01
   -0.399988   29.54033  0.1273E-14  0.1330E-04  0.4865E-07  0.1088E-02  0.3834E-03  0.2733E+01
   -0.449988   29.54126  0.1273E-14  0.1362E-04  0.4696E-07  0.1183E-02  0.3565E-03  0.2558E+01
   -0.499988   29.54210  0.1273E-14  0.1391E-04  0.4557E-07  0.1270E-02  0.3327E-03  0.2504E+01
   -0.549989   29.54287  0.1273E-14  0.1416E-04  0.4442E-07  0.1349E-02  0.3115E-03  0.2462E+01
   -0.599990   29.54359  0.1273E-14  0.1437E-04  0.4346E-07  0.1422E-02  0.2922E-03  0.2480E+01
   -0.649991   29.54426  0.1273E-14  0.1456E-04  0.4265E-07  0.1487E-02  0.2747E-03  0.2501E+01
   -0.699992   29.54489  0.1273E-14  0.1472E-04  0.4198E-07  0.1544E-02  0.2586E-03  0.2577E+01
   -0.749993   29.54549  0.1273E-14  0.1486E-04  0.4142E-07  0.1594E-02  0.2438E-03  0.2651E+01
   -0.799995   29.54606  0.1273E-14  0.1497E-04  0.4097E-07  0.1637E-02  0.2299E-03  0.2785E+01
   -0.849996   29.54662  0.1273E-14  0.1506E-04  0.4061E-07  0.1672E-02  0.2170E-03  0.2914E+01
   -0.899998   29.54716  0.1273E-14  0.1513E-04  0.4035E-07  0.1699E-02  0.2049E-03  0.3118E+01
   -0.950000   29.54768  0.1273E-14  0.1518E-04  0.4018E-07  0.1719E-02  0.1935E-03  0.3320E+01
   -1.000002   29.54820  0.1273E-14  0.1522E-04  0.4010E-07  0.1730E-02  0.1827E-03  0.3617E+01
   -1.050003   29.54871  0.1273E-14  0.1523E-04  0.4012E-07  0.1732E-02  0.1725E-03  0.4082E+01
   -1.100005   29.54922  0.1273E-14  0.1522E-04  0.4024E-07  0.1812E-02  0.1628E-03  0.1373E+02
   -1.150007   29.54970  0.1273E-14  0.1519E-04  0.4048E-07  0.1659E-02  0.1541E-03  0.3061E+02
   -1.200008   29.55023  0.1273E-14  0.1513E-04  0.4084E-07  0.1679E-02  0.1451E-03  0.5905E+01
   -1.250010   29.55074  0.1273E-14  0.1506E-04  0.4136E-07  0.1650E-02  0.1365E-03  0.6361E+01
   -1.300011   29.55127  0.1273E-14  0.1495E-04  0.4206E-07  0.1603E-02  0.1282E-03  0.7398E+01
   -1.350012   29.55181  0.1273E-14  0.1482E-04  0.4301E-07  0.1546E-02  0.1202E-03  0.8918E+01
   -1.400013   29.55237  0.1273E-14  0.1465E-04  0.4426E-07  0.1472E-02  0.1124E-03  0.1093E+02
   -1.450014   29.55296  0.1273E-14  0.1445E-04  0.4594E-07  0.1396E-02  0.1047E-03  0.1400E+02
   -1.500015   29.55358  0.1273E-14  0.1419E-04  0.4824E-07  0.1288E-02  0.9724E-04  0.1880E+02
   -1.550015   29.55426  0.1273E-14  0.1388E-04  0.5145E-07  0.1204E-02  0.8971E-04  0.2673E+02
   -1.600015   29.55500  0.1273E-14  0.1349E-04  0.5626E-07  0.1062E-02  0.8235E-04  0.4673E+02
   -1.650015   29.55588  0.1273E-14  0.1299E-04  0.6359E-07  0.9853E-03  0.7454E-04  0.2625E+03
   -1.700015   29.55686  0.1273E-14  0.1230E-04  0.7681E-07  0.8029E-03  0.6699E-04  0.2015E+03
   -1.750014   29.55858  0.1273E-14  0.1136E-04  0.9867E-07  0.7297E-03  0.5703E-04  0.2404E+05
   -1.800012   29.56015  0.1273E-14  0.1007E-04  0.1436E-06  0.5105E-03  0.4902E-04  0.9024E+05
   -1.850011   29.56576  0.1273E-14  0.8571E-05  0.2286E-06  0.4653E-03  0.3555E-04  0.1988E+07
   -1.900009   29.56524  0.1273E-14  0.6778E-05  0.4777E-06  0.2074E-03  0.2874E-04  0.8770E+05
   -1.950006   29.58402  0.1273E-14  0.4712E-05  0.1215E-05  0.1790E-03  0.1555E-04 -0.6540E+06
   -2.000003   29.58634  0.1273E-14  0.0000E+00  0.0000E+00  0.0000E+00  0.2761E-04  0.0000E+00
