 1 - depth, m
 2 - temperature, C
 3 - salinity, kg/kg
 4 - turbulent kinetic energy, m**2/s**2
 5 - dissipation rate, m**2/s**3
 6 - kinematic heat conductance, m**2/s
 7 - modulus of horizontal velocity, m/s
 8 - Richardson number, n/d
   -0.000000   30.67292  0.4565E-14  0.5169E-05  0.3351E-06  0.5174E-04  0.1491E-02  0.8082E+04
   -0.049997   30.70602  0.4565E-14  0.8831E-05  0.1491E-06  0.1841E-03  0.8510E-03  0.5306E+03
   -0.099994   30.71861  0.4565E-14  0.1072E-04  0.1026E-06  0.4088E-03  0.6257E-03  0.2302E+02
   -0.149992   30.72210  0.4565E-14  0.1190E-04  0.8592E-07  0.4919E-03  0.5532E-03  0.1137E+02
   -0.199990   30.72489  0.4565E-14  0.1282E-04  0.7620E-07  0.6592E-03  0.4943E-03  0.7260E+01
   -0.249989   30.72690  0.4565E-14  0.1356E-04  0.6987E-07  0.7872E-03  0.4505E-03  0.5372E+01
   -0.299988   30.72853  0.4565E-14  0.1415E-04  0.6536E-07  0.9165E-03  0.4140E-03  0.4268E+01
   -0.349988   30.72991  0.4565E-14  0.1465E-04  0.6199E-07  0.1033E-02  0.3827E-03  0.3657E+01
   -0.399987   30.73110  0.4565E-14  0.1506E-04  0.5938E-07  0.1139E-02  0.3551E-03  0.3253E+01
   -0.449987   30.73215  0.4565E-14  0.1542E-04  0.5725E-07  0.1238E-02  0.3308E-03  0.3059E+01
   -0.499988   30.73310  0.4565E-14  0.1573E-04  0.5550E-07  0.1329E-02  0.3093E-03  0.2966E+01
   -0.549988   30.73397  0.4565E-14  0.1599E-04  0.5404E-07  0.1411E-02  0.2900E-03  0.2933E+01
   -0.599989   30.73478  0.4565E-14  0.1622E-04  0.5282E-07  0.1486E-02  0.2725E-03  0.2926E+01
   -0.649990   30.73553  0.4565E-14  0.1642E-04  0.5178E-07  0.1553E-02  0.2566E-03  0.2971E+01
   -0.699991   30.73624  0.4565E-14  0.1658E-04  0.5092E-07  0.1612E-02  0.2420E-03  0.3030E+01
   -0.749992   30.73691  0.4565E-14  0.1672E-04  0.5020E-07  0.1662E-02  0.2284E-03  0.3142E+01
   -0.799994   30.73756  0.4565E-14  0.1683E-04  0.4961E-07  0.1705E-02  0.2158E-03  0.3265E+01
   -0.849995   30.73818  0.4565E-14  0.1692E-04  0.4914E-07  0.1740E-02  0.2040E-03  0.3450E+01
   -0.899997   30.73878  0.4565E-14  0.1698E-04  0.4879E-07  0.1766E-02  0.1929E-03  0.3650E+01
   -0.949999   30.73937  0.4565E-14  0.1702E-04  0.4855E-07  0.1783E-02  0.1825E-03  0.3930E+01
   -1.000000   30.73995  0.4565E-14  0.1703E-04  0.4843E-07  0.1792E-02  0.1726E-03  0.4238E+01
   -1.050002   30.74052  0.4565E-14  0.1702E-04  0.4844E-07  0.1789E-02  0.1632E-03  0.4829E+01
   -1.100004   30.74109  0.4565E-14  0.1699E-04  0.4857E-07  0.1891E-02  0.1542E-03  0.1574E+02
   -1.150005   30.74162  0.4565E-14  0.1693E-04  0.4888E-07  0.1681E-02  0.1462E-03  0.3759E+02
   -1.200007   30.74222  0.4565E-14  0.1685E-04  0.4933E-07  0.1718E-02  0.1378E-03  0.7108E+01
   -1.250008   30.74280  0.4565E-14  0.1673E-04  0.5000E-07  0.1685E-02  0.1298E-03  0.7575E+01
   -1.300010   30.74339  0.4565E-14  0.1658E-04  0.5092E-07  0.1630E-02  0.1221E-03  0.8972E+01
   -1.350011   30.74400  0.4565E-14  0.1640E-04  0.5218E-07  0.1567E-02  0.1146E-03  0.1082E+02
   -1.400012   30.74464  0.4565E-14  0.1617E-04  0.5389E-07  0.1480E-02  0.1072E-03  0.1363E+02
   -1.450012   30.74531  0.4565E-14  0.1589E-04  0.5624E-07  0.1403E-02  0.9997E-04  0.1763E+02
   -1.500013   30.74603  0.4565E-14  0.1555E-04  0.5954E-07  0.1279E-02  0.9286E-04  0.2491E+02
   -1.550013   30.74683  0.4565E-14  0.1514E-04  0.6426E-07  0.1206E-02  0.8560E-04  0.3693E+02
   -1.600013   30.74769  0.4565E-14  0.1461E-04  0.7189E-07  0.1046E-02  0.7860E-04 -0.2025E+02
   -1.650013   30.74885  0.4565E-14  0.1392E-04  0.8364E-07  0.9788E-03  0.7054E-04  0.1141E+04
   -1.700012   30.75008  0.4565E-14  0.1297E-04  0.1046E-06  0.7817E-03  0.6301E-04 -0.1238E+05
   -1.750012   30.75259  0.4565E-14  0.1177E-04  0.1389E-06  0.7157E-03  0.5203E-04  0.6794E+06
   -1.800010   30.75411  0.4565E-14  0.1029E-04  0.2127E-06  0.4869E-03  0.4492E-04  0.3116E+05
   -1.850008   30.76305  0.4565E-14  0.8721E-05  0.3526E-06  0.4635E-03  0.3077E-04  0.1566E+09
   -1.900006   30.75961  0.4565E-14  0.6984E-05  0.7361E-06  0.2163E-03  0.2565E-04 -0.1213E+06
   -1.950004   30.78344  0.4565E-14  0.4974E-05  0.1783E-05  0.2108E-03  0.1361E-04 -0.5766E+06
   -2.000001   30.78502  0.4565E-14  0.0000E+00  0.0000E+00  0.0000E+00  0.2666E-04  0.0000E+00
