 1 - depth, m
 2 - temperature, C
 3 - salinity, kg/kg
 4 - turbulent kinetic energy, m**2/s**2
 5 - dissipation rate, m**2/s**3
 6 - kinematic heat conductance, m**2/s
 7 - modulus of horizontal velocity, m/s
 8 - Richardson number, n/d
   -0.000000   30.05939  0.5237E-14  0.5089E-05  0.2902E-06  0.5060E-04  0.2978E-02  0.1131E+04
   -0.049997   30.08906  0.5237E-14  0.8337E-05  0.1269E-06  0.1939E-03  0.1612E-02  0.9639E+02
   -0.099994   30.09857  0.5237E-14  0.9880E-05  0.8947E-07  0.3835E-03  0.1248E-02  0.6198E+01
   -0.149992   30.10181  0.5237E-14  0.1089E-04  0.7527E-07  0.4771E-03  0.1108E-02  0.3150E+01
   -0.199991   30.10431  0.5237E-14  0.1168E-04  0.6695E-07  0.6189E-03  0.9976E-03  0.2068E+01
   -0.249989   30.10618  0.5237E-14  0.1231E-04  0.6149E-07  0.7322E-03  0.9130E-03  0.1590E+01
   -0.299989   30.10771  0.5237E-14  0.1285E-04  0.5752E-07  0.8429E-03  0.8411E-03  0.1405E+01
   -0.349988   30.10902  0.5237E-14  0.1333E-04  0.5439E-07  0.9587E-03  0.7751E-03  0.1381E+01
   -0.399988   30.11013  0.5237E-14  0.1376E-04  0.5183E-07  0.1078E-02  0.7122E-03  0.1358E+01
   -0.449988   30.11110  0.5237E-14  0.1414E-04  0.4969E-07  0.1195E-02  0.6542E-03  0.1351E+01
   -0.499988   30.11196  0.5237E-14  0.1448E-04  0.4790E-07  0.1304E-02  0.6021E-03  0.1347E+01
   -0.549989   30.11274  0.5237E-14  0.1477E-04  0.4641E-07  0.1404E-02  0.5553E-03  0.1343E+01
   -0.599990   30.11344  0.5237E-14  0.1502E-04  0.4517E-07  0.1494E-02  0.5132E-03  0.1333E+01
   -0.649991   30.11409  0.5237E-14  0.1523E-04  0.4414E-07  0.1574E-02  0.4754E-03  0.1327E+01
   -0.699992   30.11470  0.5237E-14  0.1539E-04  0.4328E-07  0.1642E-02  0.4413E-03  0.1315E+01
   -0.749993   30.11528  0.5237E-14  0.1552E-04  0.4259E-07  0.1699E-02  0.4105E-03  0.1309E+01
   -0.799995   30.11583  0.5237E-14  0.1562E-04  0.4204E-07  0.1743E-02  0.3828E-03  0.1298E+01
   -0.849996   30.11636  0.5237E-14  0.1569E-04  0.4161E-07  0.1776E-02  0.3577E-03  0.1296E+01
   -0.899998   30.11687  0.5237E-14  0.1573E-04  0.4131E-07  0.1798E-02  0.3350E-03  0.1291E+01
   -0.950000   30.11737  0.5237E-14  0.1575E-04  0.4111E-07  0.1810E-02  0.3144E-03  0.1301E+01
   -1.000002   30.11786  0.5237E-14  0.1574E-04  0.4101E-07  0.1812E-02  0.2957E-03  0.1320E+01
   -1.050003   30.11834  0.5237E-14  0.1572E-04  0.4101E-07  0.1804E-02  0.2786E-03  0.1417E+01
   -1.100005   30.11883  0.5237E-14  0.1567E-04  0.4111E-07  0.1922E-02  0.2629E-03  0.4401E+01
   -1.150007   30.11928  0.5237E-14  0.1560E-04  0.4135E-07  0.1672E-02  0.2495E-03  0.1063E+02
   -1.200008   30.11979  0.5237E-14  0.1550E-04  0.4170E-07  0.1724E-02  0.2351E-03  0.1987E+01
   -1.250010   30.12028  0.5237E-14  0.1538E-04  0.4222E-07  0.1690E-02  0.2214E-03  0.2105E+01
   -1.300011   30.12078  0.5237E-14  0.1523E-04  0.4294E-07  0.1634E-02  0.2083E-03  0.2478E+01
   -1.350012   30.12129  0.5237E-14  0.1506E-04  0.4393E-07  0.1569E-02  0.1955E-03  0.2973E+01
   -1.400013   30.12182  0.5237E-14  0.1484E-04  0.4528E-07  0.1485E-02  0.1830E-03  0.3708E+01
   -1.450014   30.12238  0.5237E-14  0.1458E-04  0.4711E-07  0.1402E-02  0.1707E-03  0.4763E+01
   -1.500015   30.12297  0.5237E-14  0.1427E-04  0.4968E-07  0.1285E-02  0.1586E-03  0.6580E+01
   -1.550015   30.12362  0.5237E-14  0.1389E-04  0.5336E-07  0.1199E-02  0.1463E-03  0.9638E+01
   -1.600015   30.12433  0.5237E-14  0.1342E-04  0.5911E-07  0.1053E-02  0.1343E-03  0.4552E+02
   -1.650015   30.12522  0.5237E-14  0.1282E-04  0.6815E-07  0.9675E-03  0.1211E-03  0.2432E+03
   -1.700014   30.12624  0.5237E-14  0.1199E-04  0.8409E-07  0.7894E-03  0.1080E-03  0.4211E+05
   -1.750014   30.12807  0.5237E-14  0.1092E-04  0.1100E-06  0.7069E-03  0.9069E-04  0.4468E+05
   -1.800012   30.12946  0.5237E-14  0.9513E-05  0.1661E-06  0.4895E-03  0.7767E-04  0.1417E+06
   -1.850011   30.13599  0.5237E-14  0.7997E-05  0.2717E-06  0.4504E-03  0.5425E-04  0.5670E+07
   -1.900009   30.13412  0.5237E-14  0.6275E-05  0.5749E-06  0.2045E-03  0.4419E-04 -0.2973E+05
   -1.950006   30.15293  0.5237E-14  0.4413E-05  0.1402E-05  0.1982E-03  0.2311E-04 -0.1878E+06
   -2.000003   30.15387  0.5237E-14  0.0000E+00  0.0000E+00  0.0000E+00  0.4554E-04  0.0000E+00
