 1 - depth, m
 2 - temperature, C
 3 - salinity, kg/kg
 4 - turbulent kinetic energy, m**2/s**2
 5 - dissipation rate, m**2/s**3
 6 - kinematic heat conductance, m**2/s
 7 - modulus of horizontal velocity, m/s
 8 - Richardson number, n/d
   -0.000000   30.55929  0.1482E-13  0.5387E-05  0.3078E-06  0.5231E-04  0.3399E-02  0.1285E+04
   -0.049997   30.58933  0.1482E-13  0.8717E-05  0.1332E-06  0.2036E-03  0.1830E-02  0.5314E+02
   -0.099994   30.59850  0.1482E-13  0.1027E-04  0.9455E-07  0.3886E-03  0.1436E-02  0.4564E+01
   -0.149992   30.60178  0.1482E-13  0.1129E-04  0.7970E-07  0.4856E-03  0.1280E-02  0.2373E+01
   -0.199991   30.60430  0.1482E-13  0.1210E-04  0.7105E-07  0.6233E-03  0.1158E-02  0.1595E+01
   -0.249989   30.60621  0.1482E-13  0.1277E-04  0.6537E-07  0.7327E-03  0.1063E-02  0.1295E+01
   -0.299988   30.60780  0.1482E-13  0.1335E-04  0.6118E-07  0.8449E-03  0.9809E-03  0.1262E+01
   -0.349988   30.60914  0.1482E-13  0.1389E-04  0.5781E-07  0.9710E-03  0.9029E-03  0.1328E+01
   -0.399988   30.61028  0.1482E-13  0.1438E-04  0.5503E-07  0.1105E-02  0.8271E-03  0.1352E+01
   -0.449988   30.61127  0.1482E-13  0.1483E-04  0.5270E-07  0.1236E-02  0.7568E-03  0.1360E+01
   -0.499988   30.61213  0.1482E-13  0.1522E-04  0.5078E-07  0.1358E-02  0.6936E-03  0.1364E+01
   -0.549989   30.61290  0.1482E-13  0.1557E-04  0.4920E-07  0.1470E-02  0.6369E-03  0.1356E+01
   -0.599989   30.61360  0.1482E-13  0.1586E-04  0.4791E-07  0.1570E-02  0.5861E-03  0.1346E+01
   -0.649990   30.61425  0.1482E-13  0.1610E-04  0.4687E-07  0.1657E-02  0.5406E-03  0.1331E+01
   -0.699992   30.61485  0.1482E-13  0.1630E-04  0.4604E-07  0.1730E-02  0.4998E-03  0.1313E+01
   -0.749993   30.61543  0.1482E-13  0.1645E-04  0.4540E-07  0.1789E-02  0.4632E-03  0.1290E+01
   -0.799994   30.61597  0.1482E-13  0.1657E-04  0.4492E-07  0.1834E-02  0.4303E-03  0.1266E+01
   -0.849996   30.61650  0.1482E-13  0.1665E-04  0.4460E-07  0.1865E-02  0.4008E-03  0.1237E+01
   -0.899998   30.61702  0.1482E-13  0.1670E-04  0.4441E-07  0.1883E-02  0.3743E-03  0.1209E+01
   -0.949999   30.61752  0.1482E-13  0.1672E-04  0.4434E-07  0.1889E-02  0.3506E-03  0.1179E+01
   -1.000001   30.61802  0.1482E-13  0.1672E-04  0.4439E-07  0.1885E-02  0.3292E-03  0.1161E+01
   -1.050003   30.61852  0.1482E-13  0.1669E-04  0.4456E-07  0.1867E-02  0.3100E-03  0.1190E+01
   -1.100004   30.61902  0.1482E-13  0.1664E-04  0.4482E-07  0.2016E-02  0.2926E-03  0.3449E+01
   -1.150006   30.61948  0.1482E-13  0.1657E-04  0.4525E-07  0.1693E-02  0.2783E-03  0.9004E+01
   -1.200008   30.62003  0.1482E-13  0.1647E-04  0.4581E-07  0.1767E-02  0.2623E-03  0.1634E+01
   -1.250009   30.62055  0.1482E-13  0.1634E-04  0.4657E-07  0.1730E-02  0.2474E-03  0.1749E+01
   -1.300010   30.62108  0.1482E-13  0.1618E-04  0.4759E-07  0.1666E-02  0.2331E-03  0.2078E+01
   -1.350012   30.62163  0.1482E-13  0.1599E-04  0.4895E-07  0.1593E-02  0.2190E-03  0.2540E+01
   -1.400013   30.62221  0.1482E-13  0.1575E-04  0.5076E-07  0.1500E-02  0.2053E-03  0.3219E+01
   -1.450013   30.62282  0.1482E-13  0.1546E-04  0.5321E-07  0.1412E-02  0.1916E-03  0.4245E+01
   -1.500014   30.62349  0.1482E-13  0.1511E-04  0.5664E-07  0.1288E-02  0.1781E-03  0.6042E+01
   -1.550014   30.62423  0.1482E-13  0.1469E-04  0.6157E-07  0.1200E-02  0.1644E-03  0.9512E+01
   -1.600014   30.62505  0.1482E-13  0.1415E-04  0.6938E-07  0.1051E-02  0.1508E-03  0.2712E+02
   -1.650014   30.62613  0.1482E-13  0.1343E-04  0.8169E-07  0.9622E-03  0.1356E-03  0.1856E+04
   -1.700014   30.62740  0.1482E-13  0.1244E-04  0.1036E-06  0.7812E-03  0.1201E-03  0.1232E+05
   -1.750013   30.62972  0.1482E-13  0.1123E-04  0.1381E-06  0.7004E-03  0.9961E-04  0.1805E+05
   -1.800011   30.63132  0.1482E-13  0.9700E-05  0.2165E-06  0.4748E-03  0.8516E-04  0.8296E+04
   -1.850010   30.64018  0.1482E-13  0.8158E-05  0.3588E-06  0.4517E-03  0.5782E-04  0.8226E+08
   -1.900008   30.63661  0.1482E-13  0.6494E-05  0.7562E-06  0.2105E-03  0.4783E-04 -0.7548E+05
   -1.950005   30.66047  0.1482E-13  0.4652E-05  0.1803E-05  0.2176E-03  0.2486E-04 -0.8673E+05
   -2.000002   30.66039  0.1482E-13  0.0000E+00  0.0000E+00  0.0000E+00  0.5157E-04  0.0000E+00
