 1 - depth, m
 2 - temperature, C
 3 - salinity, kg/kg
 4 - turbulent kinetic energy, m**2/s**2
 5 - dissipation rate, m**2/s**3
 6 - kinematic heat conductance, m**2/s
 7 - modulus of horizontal velocity, m/s
 8 - Richardson number, n/d
   -0.000000   30.45702  0.5123E-14  0.4870E-05  0.3042E-06  0.5032E-04  0.1426E-02  0.8645E+04
   -0.049997   30.48797  0.5123E-14  0.8363E-05  0.1356E-06  0.1798E-03  0.8115E-03  0.3450E+03
   -0.099994   30.49971  0.5123E-14  0.1014E-04  0.9354E-07  0.4008E-03  0.5961E-03  0.2374E+02
   -0.149992   30.50299  0.5123E-14  0.1126E-04  0.7850E-07  0.4833E-03  0.5266E-03  0.1167E+02
   -0.199991   30.50559  0.5123E-14  0.1214E-04  0.6970E-07  0.6459E-03  0.4704E-03  0.7482E+01
   -0.249989   30.50748  0.5123E-14  0.1283E-04  0.6394E-07  0.7719E-03  0.4284E-03  0.5515E+01
   -0.299988   30.50902  0.5123E-14  0.1339E-04  0.5984E-07  0.8980E-03  0.3934E-03  0.4390E+01
   -0.349988   30.51031  0.5123E-14  0.1386E-04  0.5677E-07  0.1012E-02  0.3635E-03  0.3746E+01
   -0.399988   30.51143  0.5123E-14  0.1426E-04  0.5438E-07  0.1116E-02  0.3370E-03  0.3341E+01
   -0.449988   30.51242  0.5123E-14  0.1460E-04  0.5244E-07  0.1213E-02  0.3137E-03  0.3129E+01
   -0.499988   30.51332  0.5123E-14  0.1489E-04  0.5084E-07  0.1302E-02  0.2931E-03  0.3047E+01
   -0.549989   30.51414  0.5123E-14  0.1514E-04  0.4950E-07  0.1383E-02  0.2746E-03  0.2998E+01
   -0.599989   30.51490  0.5123E-14  0.1536E-04  0.4837E-07  0.1457E-02  0.2579E-03  0.3004E+01
   -0.649991   30.51560  0.5123E-14  0.1555E-04  0.4742E-07  0.1523E-02  0.2426E-03  0.3032E+01
   -0.699992   30.51627  0.5123E-14  0.1571E-04  0.4661E-07  0.1582E-02  0.2286E-03  0.3106E+01
   -0.749993   30.51691  0.5123E-14  0.1584E-04  0.4594E-07  0.1632E-02  0.2157E-03  0.3198E+01
   -0.799995   30.51751  0.5123E-14  0.1595E-04  0.4539E-07  0.1675E-02  0.2036E-03  0.3338E+01
   -0.849996   30.51810  0.5123E-14  0.1603E-04  0.4494E-07  0.1711E-02  0.1924E-03  0.3499E+01
   -0.899998   30.51866  0.5123E-14  0.1610E-04  0.4460E-07  0.1738E-02  0.1818E-03  0.3716E+01
   -0.949999   30.51921  0.5123E-14  0.1614E-04  0.4436E-07  0.1756E-02  0.1718E-03  0.3967E+01
   -1.000001   30.51976  0.5123E-14  0.1615E-04  0.4422E-07  0.1767E-02  0.1624E-03  0.4289E+01
   -1.050003   30.52029  0.5123E-14  0.1615E-04  0.4419E-07  0.1767E-02  0.1535E-03  0.4847E+01
   -1.100005   30.52082  0.5123E-14  0.1612E-04  0.4427E-07  0.1857E-02  0.1449E-03  0.1605E+02
   -1.150006   30.52132  0.5123E-14  0.1607E-04  0.4450E-07  0.1679E-02  0.1373E-03  0.3668E+02
   -1.200008   30.52187  0.5123E-14  0.1600E-04  0.4485E-07  0.1707E-02  0.1294E-03  0.7001E+01
   -1.250009   30.52240  0.5123E-14  0.1590E-04  0.4538E-07  0.1676E-02  0.1218E-03  0.7472E+01
   -1.300011   30.52295  0.5123E-14  0.1577E-04  0.4613E-07  0.1626E-02  0.1145E-03  0.8721E+01
   -1.350012   30.52350  0.5123E-14  0.1561E-04  0.4715E-07  0.1566E-02  0.1074E-03  0.1047E+02
   -1.400013   30.52408  0.5123E-14  0.1541E-04  0.4853E-07  0.1487E-02  0.1005E-03  0.1292E+02
   -1.450014   30.52469  0.5123E-14  0.1517E-04  0.5041E-07  0.1410E-02  0.9375E-04  0.1654E+02
   -1.500014   30.52533  0.5123E-14  0.1487E-04  0.5303E-07  0.1295E-02  0.8710E-04  0.2254E+02
   -1.550015   30.52604  0.5123E-14  0.1451E-04  0.5673E-07  0.1214E-02  0.8038E-04  0.3234E+02
   -1.600015   30.52680  0.5123E-14  0.1406E-04  0.6249E-07  0.1065E-02  0.7384E-04  0.7112E+02
   -1.650014   30.52775  0.5123E-14  0.1348E-04  0.7134E-07  0.9872E-03  0.6667E-04  0.1003E+05
   -1.700014   30.52879  0.5123E-14  0.1268E-04  0.8707E-07  0.8042E-03  0.5983E-04 -0.2325E+04
   -1.750013   30.53069  0.5123E-14  0.1163E-04  0.1132E-06  0.7248E-03  0.5052E-04  0.1373E+06
   -1.800012   30.53218  0.5123E-14  0.1023E-04  0.1700E-06  0.5063E-03  0.4344E-04  0.4717E+05
   -1.850010   30.53860  0.5123E-14  0.8679E-05  0.2749E-06  0.4618E-03  0.3095E-04  0.6962E+07
   -1.900008   30.53732  0.5123E-14  0.6863E-05  0.5787E-06  0.2126E-03  0.2517E-04 -0.1155E+05
   -1.950005   30.55690  0.5123E-14  0.4820E-05  0.1428E-05  0.1928E-03  0.1353E-04 -0.1697E+07
   -2.000002   30.55921  0.5123E-14  0.0000E+00  0.0000E+00  0.0000E+00  0.2507E-04  0.0000E+00
