 1 - depth, m
 2 - temperature, C
 3 - salinity, kg/kg
 4 - turbulent kinetic energy, m**2/s**2
 5 - dissipation rate, m**2/s**3
 6 - kinematic heat conductance, m**2/s
 7 - modulus of horizontal velocity, m/s
 8 - Richardson number, n/d
   -0.000000   30.89549  0.3105E-13  0.4908E-05  0.3089E-06  0.5122E-04  0.1646E-02  0.1077E+05
   -0.049997   30.92565  0.3105E-13  0.8372E-05  0.1378E-06  0.1770E-03  0.9443E-03  0.1925E+04
   -0.099994   30.93748  0.3105E-13  0.1017E-04  0.9450E-07  0.4006E-03  0.6906E-03  0.1750E+02
   -0.149992   30.94073  0.3105E-13  0.1129E-04  0.7920E-07  0.4808E-03  0.6100E-03  0.8573E+01
   -0.199991   30.94332  0.3105E-13  0.1217E-04  0.7026E-07  0.6444E-03  0.5446E-03  0.5485E+01
   -0.249989   30.94520  0.3105E-13  0.1287E-04  0.6443E-07  0.7706E-03  0.4958E-03  0.4046E+01
   -0.299988   30.94673  0.3105E-13  0.1344E-04  0.6028E-07  0.8969E-03  0.4553E-03  0.3215E+01
   -0.349988   30.94801  0.3105E-13  0.1391E-04  0.5717E-07  0.1011E-02  0.4205E-03  0.2749E+01
   -0.399988   30.94912  0.3105E-13  0.1431E-04  0.5476E-07  0.1116E-02  0.3898E-03  0.2448E+01
   -0.449988   30.95011  0.3105E-13  0.1465E-04  0.5280E-07  0.1213E-02  0.3628E-03  0.2298E+01
   -0.499988   30.95100  0.3105E-13  0.1494E-04  0.5119E-07  0.1302E-02  0.3389E-03  0.2232E+01
   -0.549989   30.95181  0.3105E-13  0.1520E-04  0.4984E-07  0.1384E-02  0.3175E-03  0.2203E+01
   -0.599989   30.95256  0.3105E-13  0.1542E-04  0.4871E-07  0.1458E-02  0.2982E-03  0.2202E+01
   -0.649990   30.95327  0.3105E-13  0.1561E-04  0.4775E-07  0.1524E-02  0.2805E-03  0.2231E+01
   -0.699992   30.95393  0.3105E-13  0.1577E-04  0.4695E-07  0.1583E-02  0.2643E-03  0.2279E+01
   -0.749993   30.95456  0.3105E-13  0.1591E-04  0.4628E-07  0.1634E-02  0.2493E-03  0.2356E+01
   -0.799994   30.95516  0.3105E-13  0.1602E-04  0.4573E-07  0.1677E-02  0.2354E-03  0.2453E+01
   -0.849996   30.95574  0.3105E-13  0.1610E-04  0.4529E-07  0.1712E-02  0.2224E-03  0.2583E+01
   -0.899998   30.95630  0.3105E-13  0.1617E-04  0.4495E-07  0.1739E-02  0.2101E-03  0.2736E+01
   -0.949999   30.95685  0.3105E-13  0.1621E-04  0.4472E-07  0.1758E-02  0.1986E-03  0.2933E+01
   -1.000001   30.95739  0.3105E-13  0.1623E-04  0.4460E-07  0.1768E-02  0.1877E-03  0.3165E+01
   -1.050003   30.95792  0.3105E-13  0.1623E-04  0.4458E-07  0.1769E-02  0.1774E-03  0.3593E+01
   -1.100004   30.95845  0.3105E-13  0.1621E-04  0.4468E-07  0.1859E-02  0.1675E-03  0.1186E+02
   -1.150006   30.95894  0.3105E-13  0.1616E-04  0.4492E-07  0.1680E-02  0.1587E-03  0.2714E+02
   -1.200008   30.95949  0.3105E-13  0.1609E-04  0.4529E-07  0.1708E-02  0.1495E-03  0.5208E+01
   -1.250009   30.96003  0.3105E-13  0.1599E-04  0.4585E-07  0.1677E-02  0.1408E-03  0.5553E+01
   -1.300010   30.96057  0.3105E-13  0.1586E-04  0.4662E-07  0.1627E-02  0.1323E-03  0.6520E+01
   -1.350012   30.96113  0.3105E-13  0.1570E-04  0.4767E-07  0.1567E-02  0.1241E-03  0.7813E+01
   -1.400013   30.96171  0.3105E-13  0.1550E-04  0.4908E-07  0.1488E-02  0.1162E-03  0.9700E+01
   -1.450013   30.96232  0.3105E-13  0.1526E-04  0.5101E-07  0.1409E-02  0.1083E-03  0.1240E+02
   -1.500014   30.96297  0.3105E-13  0.1497E-04  0.5368E-07  0.1296E-02  0.1006E-03  0.1699E+02
   -1.550014   30.96368  0.3105E-13  0.1460E-04  0.5746E-07  0.1211E-02  0.9286E-04  0.2440E+02
   -1.600014   30.96445  0.3105E-13  0.1415E-04  0.6328E-07  0.1068E-02  0.8526E-04  0.5162E+02
   -1.650014   30.96540  0.3105E-13  0.1357E-04  0.7232E-07  0.9869E-03  0.7708E-04  0.4738E+03
   -1.700014   30.96646  0.3105E-13  0.1276E-04  0.8858E-07  0.8083E-03  0.6907E-04 -0.4298E+04
   -1.750013   30.96839  0.3105E-13  0.1169E-04  0.1152E-06  0.7253E-03  0.5839E-04  0.3991E+05
   -1.800011   30.97001  0.3105E-13  0.1025E-04  0.1731E-06  0.5028E-03  0.5000E-04  0.2629E+05
   -1.850010   30.97676  0.3105E-13  0.8698E-05  0.2789E-06  0.4645E-03  0.3556E-04  0.2798E+08
   -1.900007   30.97518  0.3105E-13  0.6921E-05  0.5810E-06  0.2160E-03  0.2901E-04  0.5569E+06
   -1.950005   30.99549  0.3105E-13  0.4866E-05  0.1444E-05  0.1923E-03  0.1565E-04 -0.4890E+06
   -2.000002   30.99697  0.3105E-13  0.0000E+00  0.0000E+00  0.0000E+00  0.2898E-04  0.0000E+00
