 1 - depth, m
 2 - temperature, C
 3 - salinity, kg/kg
 4 - turbulent kinetic energy, m**2/s**2
 5 - dissipation rate, m**2/s**3
 6 - kinematic heat conductance, m**2/s
 7 - modulus of horizontal velocity, m/s
 8 - Richardson number, n/d
   -0.000000   30.53013  0.9725E-13  0.4654E-05  0.2756E-06  0.4630E-04  0.3779E-03  0.1205E+06
   -0.049997   30.56252  0.9726E-13  0.8302E-05  0.1229E-06  0.1930E-03  0.2072E-03  0.1576E+06
   -0.099994   30.57208  0.9726E-13  0.9964E-05  0.8667E-07  0.4101E-03  0.1540E-03  0.4175E+03
   -0.149992   30.57514  0.9726E-13  0.1103E-04  0.7340E-07  0.4947E-03  0.1364E-03  0.2096E+03
   -0.199991   30.57755  0.9726E-13  0.1186E-04  0.6553E-07  0.6548E-03  0.1221E-03  0.1385E+03
   -0.249989   30.57931  0.9726E-13  0.1252E-04  0.6033E-07  0.7809E-03  0.1113E-03  0.1028E+03
   -0.299988   30.58076  0.9726E-13  0.1307E-04  0.5660E-07  0.9045E-03  0.1023E-03  0.8265E+02
   -0.349988   30.58197  0.9726E-13  0.1352E-04  0.5379E-07  0.1017E-02  0.9459E-04  0.7042E+02
   -0.399988   30.58303  0.9726E-13  0.1390E-04  0.5161E-07  0.1120E-02  0.8774E-04  0.6316E+02
   -0.449988   30.58397  0.9726E-13  0.1423E-04  0.4983E-07  0.1215E-02  0.8170E-04  0.5882E+02
   -0.499988   30.58482  0.9726E-13  0.1452E-04  0.4836E-07  0.1303E-02  0.7634E-04  0.5760E+02
   -0.549989   30.58560  0.9726E-13  0.1477E-04  0.4714E-07  0.1383E-02  0.7155E-04  0.5628E+02
   -0.599989   30.58632  0.9726E-13  0.1498E-04  0.4612E-07  0.1455E-02  0.6720E-04  0.5672E+02
   -0.649990   30.58699  0.9726E-13  0.1517E-04  0.4526E-07  0.1520E-02  0.6324E-04  0.5682E+02
   -0.699992   30.58762  0.9726E-13  0.1533E-04  0.4454E-07  0.1578E-02  0.5958E-04  0.5859E+02
   -0.749993   30.58823  0.9726E-13  0.1547E-04  0.4395E-07  0.1628E-02  0.5621E-04  0.5986E+02
   -0.799994   30.58881  0.9726E-13  0.1558E-04  0.4347E-07  0.1670E-02  0.5307E-04  0.6293E+02
   -0.849996   30.58936  0.9726E-13  0.1567E-04  0.4310E-07  0.1705E-02  0.5014E-04  0.6544E+02
   -0.899998   30.58991  0.9726E-13  0.1574E-04  0.4282E-07  0.1731E-02  0.4738E-04  0.7004E+02
   -0.949999   30.59044  0.9726E-13  0.1579E-04  0.4265E-07  0.1750E-02  0.4478E-04  0.7416E+02
   -1.000001   30.59096  0.9726E-13  0.1582E-04  0.4257E-07  0.1760E-02  0.4232E-04  0.8084E+02
   -1.050003   30.59147  0.9726E-13  0.1582E-04  0.4260E-07  0.1761E-02  0.3998E-04  0.9065E+02
   -1.100004   30.59198  0.9726E-13  0.1581E-04  0.4274E-07  0.1848E-02  0.3775E-04  0.3036E+03
   -1.150006   30.59247  0.9726E-13  0.1578E-04  0.4302E-07  0.1677E-02  0.3576E-04  0.6861E+03
   -1.200008   30.59300  0.9726E-13  0.1572E-04  0.4342E-07  0.1702E-02  0.3369E-04  0.1308E+03
   -1.250009   30.59353  0.9726E-13  0.1563E-04  0.4400E-07  0.1671E-02  0.3171E-04  0.1408E+03
   -1.300010   30.59406  0.9726E-13  0.1552E-04  0.4479E-07  0.1622E-02  0.2981E-04  0.1631E+03
   -1.350012   30.59461  0.9726E-13  0.1538E-04  0.4584E-07  0.1562E-02  0.2796E-04  0.1970E+03
   -1.400013   30.59518  0.9726E-13  0.1520E-04  0.4723E-07  0.1486E-02  0.2616E-04  0.2409E+03
   -1.450013   30.59578  0.9726E-13  0.1498E-04  0.4911E-07  0.1407E-02  0.2439E-04  0.3098E+03
   -1.500014   30.59642  0.9726E-13  0.1471E-04  0.5169E-07  0.1298E-02  0.2265E-04  0.4163E+03
   -1.550014   30.59712  0.9726E-13  0.1438E-04  0.5531E-07  0.1210E-02  0.2090E-04  0.6001E+03
   -1.600014   30.59788  0.9726E-13  0.1396E-04  0.6077E-07  0.1069E-02  0.1919E-04  0.1238E+04
   -1.650014   30.59881  0.9726E-13  0.1342E-04  0.6923E-07  0.9822E-03  0.1736E-04  0.6222E+06
   -1.700014   30.59989  0.9726E-13  0.1267E-04  0.8408E-07  0.8061E-03  0.1554E-04  0.7587E+05
   -1.750013   30.60168  0.9726E-13  0.1169E-04  0.1083E-06  0.7243E-03  0.1321E-04  0.2349E+07
   -1.800011   30.60330  0.9726E-13  0.1034E-04  0.1595E-06  0.5057E-03  0.1134E-04  0.4175E+07
   -1.850010   30.60947  0.9726E-13  0.8809E-05  0.2559E-06  0.4612E-03  0.8171E-05  0.2911E+09
   -1.900008   30.60864  0.9726E-13  0.6952E-05  0.5361E-06  0.2046E-03  0.6607E-05  0.2452E+08
   -1.950005   30.62879  0.9726E-13  0.4874E-05  0.1331E-05  0.1867E-03  0.3551E-05 -0.5676E+08
   -2.000002   30.63093  0.9726E-13  0.0000E+00  0.0000E+00  0.0000E+00  0.6455E-05  0.0000E+00
