 1 - depth, m
 2 - temperature, C
 3 - salinity, kg/kg
 4 - turbulent kinetic energy, m**2/s**2
 5 - dissipation rate, m**2/s**3
 6 - kinematic heat conductance, m**2/s
 7 - modulus of horizontal velocity, m/s
 8 - Richardson number, n/d
   -0.000000   30.50009  0.3934E-13  0.5338E-05  0.3025E-06  0.5200E-04  0.3413E-02  0.8543E+03
   -0.049997   30.52985  0.3934E-13  0.8629E-05  0.1309E-06  0.2029E-03  0.1835E-02  0.2264E+02
   -0.099994   30.53888  0.3934E-13  0.1016E-04  0.9293E-07  0.3866E-03  0.1441E-02  0.4528E+01
   -0.149992   30.54213  0.3934E-13  0.1117E-04  0.7835E-07  0.4834E-03  0.1285E-02  0.2354E+01
   -0.199991   30.54462  0.3934E-13  0.1197E-04  0.6984E-07  0.6199E-03  0.1162E-02  0.1584E+01
   -0.249989   30.54651  0.3934E-13  0.1263E-04  0.6425E-07  0.7287E-03  0.1067E-02  0.1292E+01
   -0.299988   30.54808  0.3934E-13  0.1320E-04  0.6012E-07  0.8408E-03  0.9838E-03  0.1265E+01
   -0.349988   30.54941  0.3934E-13  0.1373E-04  0.5679E-07  0.9671E-03  0.9051E-03  0.1333E+01
   -0.399988   30.55053  0.3934E-13  0.1422E-04  0.5404E-07  0.1101E-02  0.8287E-03  0.1358E+01
   -0.449988   30.55150  0.3934E-13  0.1467E-04  0.5173E-07  0.1232E-02  0.7579E-03  0.1365E+01
   -0.499988   30.55236  0.3934E-13  0.1506E-04  0.4983E-07  0.1355E-02  0.6941E-03  0.1368E+01
   -0.549989   30.55312  0.3934E-13  0.1540E-04  0.4827E-07  0.1467E-02  0.6371E-03  0.1360E+01
   -0.599989   30.55381  0.3934E-13  0.1569E-04  0.4699E-07  0.1568E-02  0.5860E-03  0.1350E+01
   -0.649990   30.55444  0.3934E-13  0.1593E-04  0.4596E-07  0.1656E-02  0.5401E-03  0.1334E+01
   -0.699992   30.55504  0.3934E-13  0.1613E-04  0.4513E-07  0.1730E-02  0.4990E-03  0.1316E+01
   -0.749993   30.55560  0.3934E-13  0.1629E-04  0.4449E-07  0.1790E-02  0.4622E-03  0.1293E+01
   -0.799994   30.55614  0.3934E-13  0.1641E-04  0.4401E-07  0.1836E-02  0.4291E-03  0.1269E+01
   -0.849996   30.55665  0.3934E-13  0.1649E-04  0.4368E-07  0.1868E-02  0.3995E-03  0.1240E+01
   -0.899998   30.55716  0.3934E-13  0.1654E-04  0.4348E-07  0.1887E-02  0.3728E-03  0.1211E+01
   -0.949999   30.55765  0.3934E-13  0.1656E-04  0.4341E-07  0.1894E-02  0.3489E-03  0.1181E+01
   -1.000001   30.55814  0.3934E-13  0.1656E-04  0.4345E-07  0.1890E-02  0.3275E-03  0.1162E+01
   -1.050003   30.55863  0.3934E-13  0.1654E-04  0.4360E-07  0.1874E-02  0.3082E-03  0.1186E+01
   -1.100004   30.55912  0.3934E-13  0.1649E-04  0.4385E-07  0.2017E-02  0.2907E-03  0.3410E+01
   -1.150006   30.55957  0.3934E-13  0.1642E-04  0.4425E-07  0.1707E-02  0.2765E-03  0.8726E+01
   -1.200008   30.56010  0.3934E-13  0.1633E-04  0.4477E-07  0.1778E-02  0.2606E-03  0.1596E+01
   -1.250009   30.56061  0.3934E-13  0.1620E-04  0.4550E-07  0.1741E-02  0.2459E-03  0.1706E+01
   -1.300010   30.56113  0.3934E-13  0.1605E-04  0.4646E-07  0.1678E-02  0.2316E-03  0.2021E+01
   -1.350012   30.56166  0.3934E-13  0.1587E-04  0.4774E-07  0.1608E-02  0.2177E-03  0.2462E+01
   -1.400013   30.56223  0.3934E-13  0.1564E-04  0.4944E-07  0.1515E-02  0.2040E-03  0.3108E+01
   -1.450013   30.56282  0.3934E-13  0.1537E-04  0.5173E-07  0.1430E-02  0.1905E-03  0.4068E+01
   -1.500014   30.56346  0.3934E-13  0.1504E-04  0.5492E-07  0.1304E-02  0.1772E-03  0.5757E+01
   -1.550014   30.56418  0.3934E-13  0.1463E-04  0.5949E-07  0.1220E-02  0.1636E-03  0.9038E+01
   -1.600014   30.56496  0.3934E-13  0.1412E-04  0.6669E-07  0.1063E-02  0.1502E-03  0.4676E+02
   -1.650014   30.56599  0.3934E-13  0.1345E-04  0.7790E-07  0.9828E-03  0.1352E-03  0.2183E+04
   -1.700014   30.56716  0.3934E-13  0.1253E-04  0.9779E-07  0.7903E-03  0.1205E-03  0.1888E+04
   -1.750013   30.56935  0.3934E-13  0.1137E-04  0.1295E-06  0.7161E-03  0.1004E-03  0.2499E+05
   -1.800011   30.57084  0.3934E-13  0.9904E-05  0.1992E-06  0.4924E-03  0.8621E-04  0.7303E+04
   -1.850010   30.57895  0.3934E-13  0.8361E-05  0.3280E-06  0.4608E-03  0.5957E-04  0.2389E+07
   -1.900008   30.57595  0.3934E-13  0.6612E-05  0.6839E-06  0.2101E-03  0.4918E-04  0.2072E+06
   -1.950005   30.59851  0.3934E-13  0.4712E-05  0.1651E-05  0.2111E-03  0.2576E-04 -0.1018E+06
   -2.000002   30.59919  0.3934E-13  0.0000E+00  0.0000E+00  0.0000E+00  0.5147E-04  0.0000E+00
