 1 - depth, m
 2 - temperature, C
 3 - salinity, kg/kg
 4 - turbulent kinetic energy, m**2/s**2
 5 - dissipation rate, m**2/s**3
 6 - kinematic heat conductance, m**2/s
 7 - modulus of horizontal velocity, m/s
 8 - Richardson number, n/d
   -0.000000   30.05153  0.1634E-14  0.4571E-05  0.2757E-06  0.4914E-04  0.1423E-02  0.5728E+04
   -0.049997   30.08019  0.1634E-14  0.7872E-05  0.1229E-06  0.1742E-03  0.8093E-03  0.9738E+04
   -0.099994   30.09120  0.1634E-14  0.9556E-05  0.8475E-07  0.3933E-03  0.5919E-03  0.2316E+02
   -0.149992   30.09425  0.1634E-14  0.1061E-04  0.7123E-07  0.4736E-03  0.5225E-03  0.1130E+02
   -0.199991   30.09667  0.1634E-14  0.1143E-04  0.6333E-07  0.6321E-03  0.4664E-03  0.7275E+01
   -0.249989   30.09844  0.1634E-14  0.1209E-04  0.5815E-07  0.7557E-03  0.4244E-03  0.5367E+01
   -0.299989   30.09988  0.1634E-14  0.1263E-04  0.5447E-07  0.8785E-03  0.3894E-03  0.4281E+01
   -0.349988   30.10109  0.1634E-14  0.1307E-04  0.5171E-07  0.9899E-03  0.3594E-03  0.3660E+01
   -0.399988   30.10214  0.1634E-14  0.1345E-04  0.4958E-07  0.1092E-02  0.3329E-03  0.3270E+01
   -0.449988   30.10307  0.1634E-14  0.1378E-04  0.4785E-07  0.1187E-02  0.3096E-03  0.3066E+01
   -0.499988   30.10391  0.1634E-14  0.1406E-04  0.4642E-07  0.1274E-02  0.2890E-03  0.2991E+01
   -0.549989   30.10468  0.1634E-14  0.1431E-04  0.4523E-07  0.1353E-02  0.2705E-03  0.2948E+01
   -0.599990   30.10540  0.1634E-14  0.1452E-04  0.4424E-07  0.1426E-02  0.2539E-03  0.2960E+01
   -0.649991   30.10606  0.1634E-14  0.1471E-04  0.4341E-07  0.1491E-02  0.2387E-03  0.2994E+01
   -0.699992   30.10669  0.1634E-14  0.1487E-04  0.4271E-07  0.1548E-02  0.2247E-03  0.3074E+01
   -0.749993   30.10729  0.1634E-14  0.1500E-04  0.4213E-07  0.1598E-02  0.2118E-03  0.3173E+01
   -0.799995   30.10787  0.1634E-14  0.1511E-04  0.4166E-07  0.1641E-02  0.1998E-03  0.3320E+01
   -0.849996   30.10842  0.1634E-14  0.1520E-04  0.4129E-07  0.1675E-02  0.1886E-03  0.3488E+01
   -0.899998   30.10896  0.1634E-14  0.1527E-04  0.4102E-07  0.1702E-02  0.1781E-03  0.3715E+01
   -0.950000   30.10948  0.1634E-14  0.1532E-04  0.4084E-07  0.1721E-02  0.1682E-03  0.3974E+01
   -1.000001   30.11000  0.1634E-14  0.1535E-04  0.4075E-07  0.1732E-02  0.1588E-03  0.4311E+01
   -1.050003   30.11050  0.1634E-14  0.1536E-04  0.4076E-07  0.1734E-02  0.1500E-03  0.4887E+01
   -1.100005   30.11101  0.1634E-14  0.1534E-04  0.4088E-07  0.1816E-02  0.1415E-03  0.1633E+02
   -1.150006   30.11149  0.1634E-14  0.1531E-04  0.4112E-07  0.1657E-02  0.1340E-03  0.3666E+02
   -1.200008   30.11201  0.1634E-14  0.1525E-04  0.4149E-07  0.1679E-02  0.1261E-03  0.7082E+01
   -1.250010   30.11253  0.1634E-14  0.1517E-04  0.4201E-07  0.1649E-02  0.1187E-03  0.7597E+01
   -1.300011   30.11305  0.1634E-14  0.1506E-04  0.4273E-07  0.1601E-02  0.1115E-03  0.8879E+01
   -1.350012   30.11359  0.1634E-14  0.1493E-04  0.4370E-07  0.1543E-02  0.1045E-03  0.1067E+02
   -1.400013   30.11415  0.1634E-14  0.1475E-04  0.4499E-07  0.1468E-02  0.9770E-04  0.1315E+02
   -1.450014   30.11473  0.1634E-14  0.1454E-04  0.4672E-07  0.1392E-02  0.9103E-04  0.1679E+02
   -1.500015   30.11536  0.1634E-14  0.1428E-04  0.4909E-07  0.1283E-02  0.8450E-04  0.2269E+02
   -1.550015   30.11604  0.1634E-14  0.1395E-04  0.5242E-07  0.1199E-02  0.7794E-04  0.3222E+02
   -1.600015   30.11677  0.1634E-14  0.1355E-04  0.5746E-07  0.1056E-02  0.7152E-04  0.5985E+02
   -1.650015   30.11766  0.1634E-14  0.1303E-04  0.6521E-07  0.9767E-03  0.6466E-04  0.1890E+03
   -1.700014   30.11866  0.1634E-14  0.1232E-04  0.7902E-07  0.7977E-03  0.5802E-04  0.4328E+04
   -1.750013   30.12041  0.1634E-14  0.1135E-04  0.1019E-06  0.7179E-03  0.4929E-04  0.1134E+05
   -1.800012   30.12198  0.1634E-14  0.1004E-04  0.1490E-06  0.5093E-03  0.4220E-04  0.4592E+05
   -1.850010   30.12764  0.1634E-14  0.8516E-05  0.2388E-06  0.4542E-03  0.3048E-04  0.2246E+08
   -1.900008   30.12714  0.1634E-14  0.6702E-05  0.5075E-06  0.2075E-03  0.2442E-04 -0.6327E+06
   -1.950006   30.14581  0.1634E-14  0.4680E-05  0.1271E-05  0.1819E-03  0.1309E-04 -0.4307E+06
   -2.000003   30.14871  0.1634E-14  0.0000E+00  0.0000E+00  0.0000E+00  0.2394E-04  0.0000E+00
