 1 - depth, m
 2 - temperature, C
 3 - salinity, kg/kg
 4 - turbulent kinetic energy, m**2/s**2
 5 - dissipation rate, m**2/s**3
 6 - kinematic heat conductance, m**2/s
 7 - modulus of horizontal velocity, m/s
 8 - Richardson number, n/d
   -0.000000   29.70051  0.3335E-14  0.4760E-05  0.2723E-06  0.4928E-04  0.2443E-02  0.5040E+04
   -0.049997   29.72889  0.3335E-14  0.7968E-05  0.1201E-06  0.1862E-03  0.1327E-02  0.6931E+02
   -0.099994   29.73827  0.3335E-14  0.9521E-05  0.8425E-07  0.3824E-03  0.1008E-02  0.7643E+01
   -0.149992   29.74135  0.3335E-14  0.1053E-04  0.7073E-07  0.4750E-03  0.8890E-03  0.3859E+01
   -0.199991   29.74372  0.3335E-14  0.1132E-04  0.6283E-07  0.6241E-03  0.7955E-03  0.2505E+01
   -0.249989   29.74548  0.3335E-14  0.1196E-04  0.5766E-07  0.7467E-03  0.7244E-03  0.1857E+01
   -0.299989   29.74691  0.3335E-14  0.1248E-04  0.5399E-07  0.8642E-03  0.6653E-03  0.1490E+01
   -0.349988   29.74812  0.3335E-14  0.1292E-04  0.5123E-07  0.9699E-03  0.6144E-03  0.1310E+01
   -0.399988   29.74918  0.3335E-14  0.1330E-04  0.4907E-07  0.1070E-02  0.5687E-03  0.1232E+01
   -0.449988   29.75011  0.3335E-14  0.1363E-04  0.4727E-07  0.1170E-02  0.5275E-03  0.1215E+01
   -0.499988   29.75096  0.3335E-14  0.1393E-04  0.4578E-07  0.1265E-02  0.4902E-03  0.1215E+01
   -0.549989   29.75172  0.3335E-14  0.1420E-04  0.4452E-07  0.1353E-02  0.4565E-03  0.1213E+01
   -0.599990   29.75243  0.3335E-14  0.1442E-04  0.4348E-07  0.1433E-02  0.4261E-03  0.1210E+01
   -0.649991   29.75308  0.3335E-14  0.1462E-04  0.4261E-07  0.1504E-02  0.3985E-03  0.1207E+01
   -0.699992   29.75370  0.3335E-14  0.1479E-04  0.4189E-07  0.1565E-02  0.3734E-03  0.1205E+01
   -0.749993   29.75428  0.3335E-14  0.1493E-04  0.4131E-07  0.1618E-02  0.3506E-03  0.1209E+01
   -0.799995   29.75484  0.3335E-14  0.1504E-04  0.4085E-07  0.1660E-02  0.3298E-03  0.1221E+01
   -0.849996   29.75538  0.3335E-14  0.1513E-04  0.4050E-07  0.1694E-02  0.3107E-03  0.1250E+01
   -0.899998   29.75591  0.3335E-14  0.1519E-04  0.4024E-07  0.1719E-02  0.2932E-03  0.1303E+01
   -0.950000   29.75642  0.3335E-14  0.1524E-04  0.4007E-07  0.1736E-02  0.2768E-03  0.1384E+01
   -1.000001   29.75693  0.3335E-14  0.1526E-04  0.4000E-07  0.1746E-02  0.2614E-03  0.1493E+01
   -1.050003   29.75743  0.3335E-14  0.1527E-04  0.4002E-07  0.1746E-02  0.2468E-03  0.1696E+01
   -1.100005   29.75792  0.3335E-14  0.1525E-04  0.4015E-07  0.1832E-02  0.2329E-03  0.5637E+01
   -1.150007   29.75839  0.3335E-14  0.1522E-04  0.4040E-07  0.1662E-02  0.2206E-03  0.1279E+02
   -1.200008   29.75891  0.3335E-14  0.1516E-04  0.4077E-07  0.1688E-02  0.2077E-03  0.2466E+01
   -1.250010   29.75942  0.3335E-14  0.1508E-04  0.4129E-07  0.1657E-02  0.1954E-03  0.2637E+01
   -1.300011   29.75994  0.3335E-14  0.1497E-04  0.4201E-07  0.1608E-02  0.1836E-03  0.3093E+01
   -1.350012   29.76047  0.3335E-14  0.1483E-04  0.4297E-07  0.1550E-02  0.1721E-03  0.3709E+01
   -1.400013   29.76102  0.3335E-14  0.1466E-04  0.4425E-07  0.1474E-02  0.1609E-03  0.4589E+01
   -1.450014   29.76160  0.3335E-14  0.1445E-04  0.4596E-07  0.1398E-02  0.1499E-03  0.5852E+01
   -1.500015   29.76221  0.3335E-14  0.1419E-04  0.4831E-07  0.1287E-02  0.1392E-03  0.7950E+01
   -1.550015   29.76288  0.3335E-14  0.1387E-04  0.5160E-07  0.1205E-02  0.1284E-03  0.1128E+02
   -1.600015   29.76361  0.3335E-14  0.1346E-04  0.5660E-07  0.1059E-02  0.1178E-03  0.2123E+02
   -1.650015   29.76450  0.3335E-14  0.1295E-04  0.6420E-07  0.9844E-03  0.1065E-03  0.4761E+02
   -1.700014   29.76547  0.3335E-14  0.1225E-04  0.7784E-07  0.7976E-03  0.9567E-04 -0.3325E+03
   -1.750013   29.76724  0.3335E-14  0.1129E-04  0.1005E-06  0.7268E-03  0.8107E-04  0.8654E+05
   -1.800012   29.76874  0.3335E-14  0.9999E-05  0.1483E-06  0.5036E-03  0.6969E-04 -0.5210E+04
   -1.850011   29.77464  0.3335E-14  0.8509E-05  0.2366E-06  0.4665E-03  0.5011E-04  0.1339E+08
   -1.900008   29.77366  0.3335E-14  0.6752E-05  0.4873E-06  0.2075E-03  0.4073E-04  0.4476E+06
   -1.950006   29.79245  0.3335E-14  0.4685E-05  0.1240E-05  0.1806E-03  0.2190E-04 -0.1843E+06
   -2.000003   29.79485  0.3335E-14  0.0000E+00  0.0000E+00  0.0000E+00  0.3950E-04  0.0000E+00
