 1 - depth, m
 2 - temperature, C
 3 - salinity, kg/kg
 4 - turbulent kinetic energy, m**2/s**2
 5 - dissipation rate, m**2/s**3
 6 - kinematic heat conductance, m**2/s
 7 - modulus of horizontal velocity, m/s
 8 - Richardson number, n/d
   -0.000000   30.48154  0.1719E-13  0.4465E-05  0.2651E-06  0.4712E-04  0.4685E-03  0.8821E+05
   -0.049997   30.51056  0.1719E-13  0.7955E-05  0.1173E-06  0.1828E-03  0.2601E-03  0.1152E+03
   -0.099994   30.52055  0.1719E-13  0.9615E-05  0.8181E-07  0.4116E-03  0.1902E-03  0.1970E+03
   -0.149992   30.52336  0.1719E-13  0.1066E-04  0.6934E-07  0.4891E-03  0.1685E-03  0.9724E+02
   -0.199991   30.52564  0.1719E-13  0.1147E-04  0.6196E-07  0.6503E-03  0.1507E-03  0.6403E+02
   -0.249989   30.52730  0.1719E-13  0.1213E-04  0.5710E-07  0.7753E-03  0.1373E-03  0.4789E+02
   -0.299988   30.52867  0.1719E-13  0.1267E-04  0.5364E-07  0.8988E-03  0.1262E-03  0.3852E+02
   -0.349988   30.52982  0.1719E-13  0.1312E-04  0.5105E-07  0.1011E-02  0.1166E-03  0.3318E+02
   -0.399988   30.53082  0.1719E-13  0.1351E-04  0.4904E-07  0.1114E-02  0.1081E-03  0.2973E+02
   -0.449988   30.53172  0.1719E-13  0.1384E-04  0.4741E-07  0.1209E-02  0.1006E-03  0.2801E+02
   -0.499988   30.53253  0.1719E-13  0.1413E-04  0.4608E-07  0.1297E-02  0.9397E-04  0.2732E+02
   -0.549989   30.53327  0.1719E-13  0.1439E-04  0.4498E-07  0.1377E-02  0.8802E-04  0.2704E+02
   -0.599989   30.53396  0.1719E-13  0.1461E-04  0.4407E-07  0.1450E-02  0.8265E-04  0.2714E+02
   -0.649991   30.53460  0.1719E-13  0.1481E-04  0.4331E-07  0.1515E-02  0.7774E-04  0.2758E+02
   -0.699992   30.53522  0.1719E-13  0.1498E-04  0.4269E-07  0.1573E-02  0.7323E-04  0.2831E+02
   -0.749993   30.53580  0.1719E-13  0.1513E-04  0.4218E-07  0.1624E-02  0.6906E-04  0.2936E+02
   -0.799995   30.53636  0.1719E-13  0.1525E-04  0.4178E-07  0.1666E-02  0.6518E-04  0.3072E+02
   -0.849996   30.53690  0.1719E-13  0.1535E-04  0.4148E-07  0.1702E-02  0.6155E-04  0.3244E+02
   -0.899998   30.53742  0.1719E-13  0.1544E-04  0.4127E-07  0.1729E-02  0.5815E-04  0.3456E+02
   -0.949999   30.53794  0.1719E-13  0.1550E-04  0.4116E-07  0.1748E-02  0.5494E-04  0.3717E+02
   -1.000001   30.53845  0.1719E-13  0.1554E-04  0.4114E-07  0.1759E-02  0.5191E-04  0.4032E+02
   -1.050003   30.53895  0.1719E-13  0.1557E-04  0.4122E-07  0.1761E-02  0.4903E-04  0.4597E+02
   -1.100005   30.53945  0.1719E-13  0.1557E-04  0.4141E-07  0.1842E-02  0.4628E-04  0.1542E+03
   -1.150006   30.53993  0.1719E-13  0.1555E-04  0.4173E-07  0.1687E-02  0.4382E-04  0.3403E+03
   -1.200008   30.54045  0.1719E-13  0.1551E-04  0.4216E-07  0.1707E-02  0.4129E-04  0.6676E+02
   -1.250009   30.54096  0.1719E-13  0.1545E-04  0.4276E-07  0.1677E-02  0.3886E-04  0.7181E+02
   -1.300011   30.54149  0.1719E-13  0.1535E-04  0.4356E-07  0.1630E-02  0.3652E-04  0.8426E+02
   -1.350012   30.54203  0.1719E-13  0.1523E-04  0.4461E-07  0.1572E-02  0.3426E-04  0.1010E+03
   -1.400013   30.54259  0.1719E-13  0.1508E-04  0.4597E-07  0.1498E-02  0.3205E-04  0.1246E+03
   -1.450014   30.54318  0.1719E-13  0.1488E-04  0.4778E-07  0.1421E-02  0.2988E-04  0.1585E+03
   -1.500014   30.54381  0.1719E-13  0.1464E-04  0.5023E-07  0.1312E-02  0.2776E-04  0.2134E+03
   -1.550015   30.54450  0.1719E-13  0.1433E-04  0.5361E-07  0.1226E-02  0.2563E-04  0.3001E+03
   -1.600015   30.54524  0.1719E-13  0.1395E-04  0.5861E-07  0.1082E-02  0.2354E-04  0.5211E+03
   -1.650014   30.54614  0.1719E-13  0.1346E-04  0.6615E-07  0.1003E-02  0.2133E-04  0.1371E+04
   -1.700014   30.54713  0.1719E-13  0.1278E-04  0.7959E-07  0.8225E-03  0.1920E-04 -0.2439E+06
   -1.750013   30.54883  0.1719E-13  0.1185E-04  0.1018E-06  0.7399E-03  0.1641E-04  0.2244E+06
   -1.800012   30.55042  0.1719E-13  0.1055E-04  0.1480E-06  0.5237E-03  0.1411E-04  0.1742E+07
   -1.850010   30.55600  0.1719E-13  0.9035E-05  0.2341E-06  0.4714E-03  0.1032E-04  0.1104E+09
   -1.900008   30.55577  0.1719E-13  0.7197E-05  0.4875E-06  0.2155E-03  0.8314E-05  0.2493E+07
   -1.950005   30.57487  0.1719E-13  0.5015E-05  0.1235E-05  0.1773E-03  0.4574E-05 -0.2589E+07
   -2.000002   30.57779  0.1719E-13  0.0000E+00  0.0000E+00  0.0000E+00  0.7923E-05  0.0000E+00
