 1 - depth, m
 2 - temperature, C
 3 - salinity, kg/kg
 4 - turbulent kinetic energy, m**2/s**2
 5 - dissipation rate, m**2/s**3
 6 - kinematic heat conductance, m**2/s
 7 - modulus of horizontal velocity, m/s
 8 - Richardson number, n/d
   -0.000000   30.00645  0.7445E-13  0.4560E-05  0.2780E-06  0.4924E-04  0.7778E-03  0.1486E+05
   -0.049997   30.03605  0.7445E-13  0.7975E-05  0.1233E-06  0.1739E-03  0.4436E-03  0.3689E+02
   -0.099994   30.04755  0.7445E-13  0.9678E-05  0.8488E-07  0.4046E-03  0.3210E-03  0.7660E+02
   -0.149992   30.05059  0.7445E-13  0.1073E-04  0.7163E-07  0.4782E-03  0.2842E-03  0.3714E+02
   -0.199991   30.05307  0.7445E-13  0.1154E-04  0.6379E-07  0.6384E-03  0.2538E-03  0.2413E+02
   -0.249989   30.05487  0.7445E-13  0.1219E-04  0.5861E-07  0.7618E-03  0.2311E-03  0.1788E+02
   -0.299989   30.05633  0.7445E-13  0.1272E-04  0.5490E-07  0.8841E-03  0.2122E-03  0.1427E+02
   -0.349988   30.05756  0.7445E-13  0.1316E-04  0.5211E-07  0.9950E-03  0.1959E-03  0.1221E+02
   -0.399988   30.05862  0.7445E-13  0.1353E-04  0.4992E-07  0.1096E-02  0.1815E-03  0.1090E+02
   -0.449988   30.05957  0.7445E-13  0.1385E-04  0.4815E-07  0.1190E-02  0.1688E-03  0.1022E+02
   -0.499988   30.06042  0.7445E-13  0.1412E-04  0.4667E-07  0.1277E-02  0.1576E-03  0.9953E+01
   -0.549989   30.06120  0.7445E-13  0.1436E-04  0.4544E-07  0.1356E-02  0.1476E-03  0.9803E+01
   -0.599990   30.06192  0.7445E-13  0.1456E-04  0.4439E-07  0.1428E-02  0.1385E-03  0.9819E+01
   -0.649991   30.06260  0.7445E-13  0.1474E-04  0.4351E-07  0.1493E-02  0.1302E-03  0.9920E+01
   -0.699992   30.06323  0.7445E-13  0.1488E-04  0.4276E-07  0.1550E-02  0.1226E-03  0.1016E+02
   -0.749993   30.06383  0.7445E-13  0.1501E-04  0.4213E-07  0.1599E-02  0.1155E-03  0.1046E+02
   -0.799995   30.06441  0.7445E-13  0.1511E-04  0.4160E-07  0.1642E-02  0.1090E-03  0.1091E+02
   -0.849996   30.06496  0.7445E-13  0.1519E-04  0.4118E-07  0.1676E-02  0.1029E-03  0.1144E+02
   -0.899998   30.06550  0.7445E-13  0.1524E-04  0.4085E-07  0.1703E-02  0.9714E-04  0.1214E+02
   -0.950000   30.06602  0.7445E-13  0.1528E-04  0.4061E-07  0.1722E-02  0.9175E-04  0.1295E+02
   -1.000001   30.06653  0.7445E-13  0.1530E-04  0.4046E-07  0.1734E-02  0.8664E-04  0.1399E+02
   -1.050003   30.06704  0.7445E-13  0.1529E-04  0.4041E-07  0.1735E-02  0.8179E-04  0.1580E+02
   -1.100005   30.06753  0.7445E-13  0.1527E-04  0.4046E-07  0.1818E-02  0.7717E-04  0.5273E+02
   -1.150007   30.06801  0.7445E-13  0.1523E-04  0.4063E-07  0.1659E-02  0.7305E-04  0.1174E+03
   -1.200008   30.06852  0.7445E-13  0.1516E-04  0.4092E-07  0.1682E-02  0.6879E-04  0.2266E+02
   -1.250010   30.06902  0.7445E-13  0.1507E-04  0.4136E-07  0.1652E-02  0.6471E-04  0.2414E+02
   -1.300011   30.06953  0.7445E-13  0.1495E-04  0.4199E-07  0.1605E-02  0.6078E-04  0.2810E+02
   -1.350012   30.07005  0.7445E-13  0.1480E-04  0.4285E-07  0.1548E-02  0.5698E-04  0.3353E+02
   -1.400013   30.07059  0.7445E-13  0.1462E-04  0.4402E-07  0.1474E-02  0.5328E-04  0.4110E+02
   -1.450014   30.07115  0.7445E-13  0.1440E-04  0.4561E-07  0.1398E-02  0.4965E-04  0.5203E+02
   -1.500015   30.07175  0.7445E-13  0.1414E-04  0.4781E-07  0.1290E-02  0.4610E-04  0.6974E+02
   -1.550015   30.07239  0.7445E-13  0.1381E-04  0.5090E-07  0.1206E-02  0.4253E-04  0.9770E+02
   -1.600015   30.07309  0.7445E-13  0.1341E-04  0.5558E-07  0.1061E-02  0.3905E-04  0.1731E+03
   -1.650015   30.07393  0.7445E-13  0.1290E-04  0.6273E-07  0.9850E-03  0.3533E-04  0.2741E+03
   -1.700014   30.07485  0.7445E-13  0.1220E-04  0.7561E-07  0.8013E-03  0.3176E-04 -0.1537E+05
   -1.750013   30.07646  0.7445E-13  0.1126E-04  0.9703E-07  0.7256E-03  0.2703E-04  0.1282E+06
   -1.800012   30.07788  0.7445E-13  0.9955E-05  0.1414E-06  0.5079E-03  0.2322E-04  0.1666E+06
   -1.850010   30.08318  0.7445E-13  0.8436E-05  0.2252E-06  0.4603E-03  0.1678E-04  0.1740E+09
   -1.900008   30.08266  0.7445E-13  0.6605E-05  0.4679E-06  0.2002E-03  0.1351E-04  0.7485E+06
   -1.950006   30.10032  0.7445E-13  0.4600E-05  0.1185E-05  0.1807E-03  0.7187E-05 -0.2019E+07
   -2.000003   30.10228  0.7445E-13  0.0000E+00  0.0000E+00  0.0000E+00  0.1308E-04  0.0000E+00
