 1 - depth, m
 2 - temperature, C
 3 - salinity, kg/kg
 4 - turbulent kinetic energy, m**2/s**2
 5 - dissipation rate, m**2/s**3
 6 - kinematic heat conductance, m**2/s
 7 - modulus of horizontal velocity, m/s
 8 - Richardson number, n/d
   -0.000000   30.47217  0.2190E-13  0.4450E-05  0.2632E-06  0.4690E-04  0.4696E-03  0.8137E+05
   -0.049997   30.50126  0.2190E-13  0.7928E-05  0.1166E-06  0.1830E-03  0.2604E-03  0.1255E+03
   -0.099994   30.51116  0.2190E-13  0.9577E-05  0.8137E-07  0.4100E-03  0.1908E-03  0.1973E+03
   -0.149992   30.51397  0.2190E-13  0.1061E-04  0.6898E-07  0.4878E-03  0.1690E-03  0.9740E+02
   -0.199991   30.51625  0.2190E-13  0.1143E-04  0.6165E-07  0.6480E-03  0.1511E-03  0.6420E+02
   -0.249989   30.51791  0.2190E-13  0.1208E-04  0.5682E-07  0.7724E-03  0.1377E-03  0.4804E+02
   -0.299988   30.51928  0.2190E-13  0.1261E-04  0.5338E-07  0.8951E-03  0.1265E-03  0.3865E+02
   -0.349988   30.52043  0.2190E-13  0.1306E-04  0.5080E-07  0.1007E-02  0.1169E-03  0.3331E+02
   -0.399988   30.52144  0.2190E-13  0.1344E-04  0.4880E-07  0.1108E-02  0.1083E-03  0.2987E+02
   -0.449988   30.52234  0.2190E-13  0.1377E-04  0.4719E-07  0.1203E-02  0.1008E-03  0.2815E+02
   -0.499988   30.52315  0.2190E-13  0.1406E-04  0.4586E-07  0.1290E-02  0.9418E-04  0.2749E+02
   -0.549989   30.52389  0.2190E-13  0.1431E-04  0.4477E-07  0.1369E-02  0.8821E-04  0.2722E+02
   -0.599989   30.52458  0.2190E-13  0.1453E-04  0.4386E-07  0.1441E-02  0.8281E-04  0.2735E+02
   -0.649991   30.52523  0.2190E-13  0.1473E-04  0.4311E-07  0.1506E-02  0.7788E-04  0.2782E+02
   -0.699992   30.52584  0.2190E-13  0.1489E-04  0.4249E-07  0.1563E-02  0.7336E-04  0.2859E+02
   -0.749993   30.52642  0.2190E-13  0.1504E-04  0.4198E-07  0.1612E-02  0.6917E-04  0.2968E+02
   -0.799995   30.52698  0.2190E-13  0.1516E-04  0.4159E-07  0.1654E-02  0.6527E-04  0.3110E+02
   -0.849996   30.52753  0.2190E-13  0.1526E-04  0.4129E-07  0.1688E-02  0.6163E-04  0.3289E+02
   -0.899998   30.52805  0.2190E-13  0.1534E-04  0.4109E-07  0.1714E-02  0.5822E-04  0.3509E+02
   -0.949999   30.52857  0.2190E-13  0.1540E-04  0.4099E-07  0.1732E-02  0.5500E-04  0.3780E+02
   -1.000001   30.52908  0.2190E-13  0.1543E-04  0.4098E-07  0.1742E-02  0.5195E-04  0.4110E+02
   -1.050003   30.52959  0.2190E-13  0.1545E-04  0.4107E-07  0.1742E-02  0.4906E-04  0.4694E+02
   -1.100005   30.53009  0.2190E-13  0.1545E-04  0.4126E-07  0.1828E-02  0.4630E-04  0.1564E+03
   -1.150006   30.53057  0.2190E-13  0.1543E-04  0.4160E-07  0.1659E-02  0.4384E-04  0.3556E+03
   -1.200008   30.53110  0.2190E-13  0.1538E-04  0.4205E-07  0.1683E-02  0.4128E-04  0.6899E+02
   -1.250009   30.53162  0.2190E-13  0.1531E-04  0.4267E-07  0.1652E-02  0.3884E-04  0.7439E+02
   -1.300011   30.53215  0.2190E-13  0.1521E-04  0.4350E-07  0.1602E-02  0.3649E-04  0.8769E+02
   -1.350012   30.53270  0.2190E-13  0.1508E-04  0.4459E-07  0.1543E-02  0.3421E-04  0.1058E+03
   -1.400013   30.53327  0.2190E-13  0.1491E-04  0.4602E-07  0.1466E-02  0.3198E-04  0.1317E+03
   -1.450014   30.53387  0.2190E-13  0.1470E-04  0.4793E-07  0.1389E-02  0.2980E-04  0.1691E+03
   -1.500014   30.53451  0.2190E-13  0.1444E-04  0.5052E-07  0.1277E-02  0.2766E-04  0.2315E+03
   -1.550015   30.53522  0.2190E-13  0.1412E-04  0.5414E-07  0.1194E-02  0.2550E-04  0.3321E+03
   -1.600015   30.53599  0.2190E-13  0.1371E-04  0.5964E-07  0.1047E-02  0.2340E-04  0.6485E+03
   -1.650014   30.53694  0.2190E-13  0.1318E-04  0.6803E-07  0.9702E-03  0.2112E-04  0.2725E+05
   -1.700014   30.53800  0.2190E-13  0.1244E-04  0.8294E-07  0.7866E-03  0.1893E-04 -0.1832E+06
   -1.750013   30.53992  0.2190E-13  0.1146E-04  0.1076E-06  0.7137E-03  0.1598E-04 -0.2313E+06
   -1.800012   30.54152  0.2190E-13  0.1012E-04  0.1588E-06  0.4958E-03  0.1372E-04  0.3772E+07
   -1.850010   30.54810  0.2190E-13  0.8582E-05  0.2558E-06  0.4531E-03  0.9776E-05  0.1335E+09
   -1.900008   30.54694  0.2190E-13  0.6763E-05  0.5365E-06  0.1997E-03  0.7920E-05  0.2796E+07
   -1.950005   30.56805  0.2190E-13  0.4747E-05  0.1335E-05  0.1877E-03  0.4199E-05 -0.1282E+07
   -2.000002   30.56943  0.2190E-13  0.0000E+00  0.0000E+00  0.0000E+00  0.7803E-05  0.0000E+00
