 1 - depth, m
 2 - temperature, C
 3 - salinity, kg/kg
 4 - turbulent kinetic energy, m**2/s**2
 5 - dissipation rate, m**2/s**3
 6 - kinematic heat conductance, m**2/s
 7 - modulus of horizontal velocity, m/s
 8 - Richardson number, n/d
   -0.000000   30.57783  0.1602E-14  0.4921E-05  0.3094E-06  0.5027E-04  0.1229E-02  0.6827E+04
   -0.049997   30.60964  0.1602E-14  0.8481E-05  0.1377E-06  0.1819E-03  0.6965E-03  0.6937E+02
   -0.099994   30.62156  0.1602E-14  0.1028E-04  0.9513E-07  0.4039E-03  0.5124E-03  0.3232E+02
   -0.149992   30.62488  0.1602E-14  0.1141E-04  0.7990E-07  0.4863E-03  0.4529E-03  0.1589E+02
   -0.199991   30.62753  0.1602E-14  0.1228E-04  0.7096E-07  0.6494E-03  0.4047E-03  0.1020E+02
   -0.249989   30.62945  0.1602E-14  0.1298E-04  0.6510E-07  0.7754E-03  0.3687E-03  0.7541E+01
   -0.299988   30.63102  0.1602E-14  0.1355E-04  0.6091E-07  0.9016E-03  0.3386E-03  0.5996E+01
   -0.349988   30.63233  0.1602E-14  0.1401E-04  0.5777E-07  0.1016E-02  0.3129E-03  0.5128E+01
   -0.399988   30.63346  0.1602E-14  0.1441E-04  0.5532E-07  0.1120E-02  0.2901E-03  0.4565E+01
   -0.449988   30.63447  0.1602E-14  0.1474E-04  0.5332E-07  0.1217E-02  0.2701E-03  0.4285E+01
   -0.499988   30.63538  0.1602E-14  0.1503E-04  0.5167E-07  0.1305E-02  0.2524E-03  0.4165E+01
   -0.549989   30.63621  0.1602E-14  0.1528E-04  0.5028E-07  0.1386E-02  0.2365E-03  0.4107E+01
   -0.599989   30.63698  0.1602E-14  0.1550E-04  0.4911E-07  0.1460E-02  0.2221E-03  0.4104E+01
   -0.649991   30.63769  0.1602E-14  0.1568E-04  0.4811E-07  0.1526E-02  0.2090E-03  0.4153E+01
   -0.699992   30.63837  0.1602E-14  0.1583E-04  0.4727E-07  0.1584E-02  0.1969E-03  0.4240E+01
   -0.749993   30.63901  0.1602E-14  0.1596E-04  0.4656E-07  0.1634E-02  0.1858E-03  0.4377E+01
   -0.799995   30.63962  0.1602E-14  0.1606E-04  0.4596E-07  0.1677E-02  0.1754E-03  0.4551E+01
   -0.849996   30.64021  0.1602E-14  0.1614E-04  0.4548E-07  0.1712E-02  0.1657E-03  0.4783E+01
   -0.899998   30.64078  0.1602E-14  0.1619E-04  0.4510E-07  0.1739E-02  0.1566E-03  0.5060E+01
   -0.949999   30.64134  0.1602E-14  0.1622E-04  0.4483E-07  0.1757E-02  0.1480E-03  0.5414E+01
   -1.000001   30.64188  0.1602E-14  0.1623E-04  0.4465E-07  0.1767E-02  0.1399E-03  0.5832E+01
   -1.050003   30.64242  0.1602E-14  0.1622E-04  0.4459E-07  0.1767E-02  0.1322E-03  0.6600E+01
   -1.100005   30.64295  0.1602E-14  0.1619E-04  0.4464E-07  0.1860E-02  0.1248E-03  0.2170E+02
   -1.150006   30.64344  0.1602E-14  0.1613E-04  0.4483E-07  0.1674E-02  0.1183E-03  0.5016E+02
   -1.200008   30.64400  0.1602E-14  0.1604E-04  0.4515E-07  0.1705E-02  0.1114E-03  0.9542E+01
   -1.250009   30.64453  0.1602E-14  0.1593E-04  0.4566E-07  0.1674E-02  0.1049E-03  0.1014E+02
   -1.300011   30.64507  0.1602E-14  0.1579E-04  0.4638E-07  0.1623E-02  0.9864E-04  0.1188E+02
   -1.350012   30.64563  0.1602E-14  0.1562E-04  0.4738E-07  0.1562E-02  0.9254E-04  0.1423E+02
   -1.400013   30.64620  0.1602E-14  0.1541E-04  0.4874E-07  0.1483E-02  0.8659E-04  0.1763E+02
   -1.450014   30.64681  0.1602E-14  0.1516E-04  0.5061E-07  0.1403E-02  0.8074E-04  0.2256E+02
   -1.500014   30.64744  0.1602E-14  0.1485E-04  0.5324E-07  0.1290E-02  0.7499E-04  0.3082E+02
   -1.550015   30.64814  0.1602E-14  0.1447E-04  0.5699E-07  0.1205E-02  0.6921E-04  0.4444E+02
   -1.600015   30.64890  0.1602E-14  0.1400E-04  0.6276E-07  0.1061E-02  0.6353E-04  0.8725E+02
   -1.650014   30.64982  0.1602E-14  0.1340E-04  0.7185E-07  0.9835E-03  0.5743E-04  0.2563E+03
   -1.700014   30.65090  0.1602E-14  0.1257E-04  0.8828E-07  0.7979E-03  0.5136E-04 -0.5015E+04
   -1.750013   30.65279  0.1602E-14  0.1149E-04  0.1149E-06  0.7216E-03  0.4328E-04  0.4538E+05
   -1.800012   30.65431  0.1602E-14  0.1005E-04  0.1719E-06  0.4938E-03  0.3711E-04  0.2035E+09
   -1.850010   30.66095  0.1602E-14  0.8498E-05  0.2786E-06  0.4644E-03  0.2616E-04  0.2032E+08
   -1.900008   30.65928  0.1602E-14  0.6749E-05  0.5815E-06  0.2099E-03  0.2141E-04  0.1429E+07
   -1.950005   30.67892  0.1602E-14  0.4738E-05  0.1444E-05  0.1948E-03  0.1144E-04 -0.1649E+07
   -2.000002   30.68032  0.1602E-14  0.0000E+00  0.0000E+00  0.0000E+00  0.2152E-04  0.0000E+00
