 1 - depth, m
 2 - temperature, C
 3 - salinity, kg/kg
 4 - turbulent kinetic energy, m**2/s**2
 5 - dissipation rate, m**2/s**3
 6 - kinematic heat conductance, m**2/s
 7 - modulus of horizontal velocity, m/s
 8 - Richardson number, n/d
   -0.000000   31.15534  0.2228E-14  0.4994E-05  0.3191E-06  0.5187E-04  0.1657E-02  0.7784E+04
   -0.049997   31.18549  0.2228E-14  0.8519E-05  0.1421E-06  0.1785E-03  0.9521E-03  0.6461E+04
   -0.099994   31.19752  0.2228E-14  0.1036E-04  0.9728E-07  0.4061E-03  0.6950E-03  0.1690E+02
   -0.149992   31.20076  0.2228E-14  0.1152E-04  0.8150E-07  0.4862E-03  0.6143E-03  0.8298E+01
   -0.199991   31.20336  0.2228E-14  0.1242E-04  0.7230E-07  0.6533E-03  0.5486E-03  0.5300E+01
   -0.249989   31.20524  0.2228E-14  0.1314E-04  0.6632E-07  0.7810E-03  0.4997E-03  0.3909E+01
   -0.299988   31.20677  0.2228E-14  0.1373E-04  0.6208E-07  0.9098E-03  0.4590E-03  0.3111E+01
   -0.349988   31.20806  0.2228E-14  0.1422E-04  0.5892E-07  0.1026E-02  0.4242E-03  0.2659E+01
   -0.399987   31.20917  0.2228E-14  0.1464E-04  0.5648E-07  0.1133E-02  0.3935E-03  0.2370E+01
   -0.449988   31.21016  0.2228E-14  0.1500E-04  0.5450E-07  0.1232E-02  0.3664E-03  0.2222E+01
   -0.499988   31.21105  0.2228E-14  0.1531E-04  0.5287E-07  0.1323E-02  0.3425E-03  0.2160E+01
   -0.549988   31.21187  0.2228E-14  0.1558E-04  0.5153E-07  0.1406E-02  0.3211E-03  0.2129E+01
   -0.599989   31.21263  0.2228E-14  0.1582E-04  0.5040E-07  0.1482E-02  0.3017E-03  0.2130E+01
   -0.649990   31.21333  0.2228E-14  0.1602E-04  0.4946E-07  0.1549E-02  0.2840E-03  0.2155E+01
   -0.699991   31.21400  0.2228E-14  0.1620E-04  0.4867E-07  0.1609E-02  0.2678E-03  0.2206E+01
   -0.749993   31.21464  0.2228E-14  0.1635E-04  0.4803E-07  0.1662E-02  0.2527E-03  0.2278E+01
   -0.799994   31.21525  0.2228E-14  0.1647E-04  0.4750E-07  0.1706E-02  0.2387E-03  0.2376E+01
   -0.849996   31.21583  0.2228E-14  0.1657E-04  0.4710E-07  0.1742E-02  0.2257E-03  0.2499E+01
   -0.899997   31.21640  0.2228E-14  0.1665E-04  0.4680E-07  0.1770E-02  0.2134E-03  0.2654E+01
   -0.949999   31.21696  0.2228E-14  0.1670E-04  0.4661E-07  0.1790E-02  0.2018E-03  0.2841E+01
   -1.000001   31.21751  0.2228E-14  0.1674E-04  0.4654E-07  0.1801E-02  0.1909E-03  0.3073E+01
   -1.050002   31.21805  0.2228E-14  0.1675E-04  0.4657E-07  0.1802E-02  0.1804E-03  0.3485E+01
   -1.100004   31.21859  0.2228E-14  0.1674E-04  0.4673E-07  0.1891E-02  0.1705E-03  0.1159E+02
   -1.150006   31.21910  0.2228E-14  0.1670E-04  0.4704E-07  0.1716E-02  0.1617E-03  0.2615E+02
   -1.200007   31.21966  0.2228E-14  0.1664E-04  0.4748E-07  0.1742E-02  0.1524E-03  0.5045E+01
   -1.250009   31.22021  0.2228E-14  0.1655E-04  0.4812E-07  0.1712E-02  0.1436E-03  0.5400E+01
   -1.300010   31.22077  0.2228E-14  0.1644E-04  0.4899E-07  0.1661E-02  0.1351E-03  0.6323E+01
   -1.350011   31.22135  0.2228E-14  0.1629E-04  0.5015E-07  0.1601E-02  0.1268E-03  0.7593E+01
   -1.400012   31.22195  0.2228E-14  0.1610E-04  0.5169E-07  0.1523E-02  0.1188E-03  0.9386E+01
   -1.450013   31.22258  0.2228E-14  0.1586E-04  0.5377E-07  0.1443E-02  0.1109E-03  0.1203E+02
   -1.500014   31.22325  0.2228E-14  0.1557E-04  0.5663E-07  0.1331E-02  0.1031E-03  0.1636E+02
   -1.550014   31.22399  0.2228E-14  0.1522E-04  0.6067E-07  0.1243E-02  0.9524E-04  0.2385E+02
   -1.600014   31.22479  0.2228E-14  0.1477E-04  0.6678E-07  0.1101E-02  0.8752E-04  0.4441E+02
   -1.650014   31.22577  0.2228E-14  0.1419E-04  0.7628E-07  0.1015E-02  0.7927E-04  0.8206E+04
   -1.700013   31.22692  0.2228E-14  0.1339E-04  0.9290E-07  0.8344E-03  0.7099E-04  0.6328E+02
   -1.750012   31.22882  0.2228E-14  0.1235E-04  0.1197E-06  0.7516E-03  0.6045E-04  0.3489E+06
   -1.800011   31.23045  0.2228E-14  0.1095E-04  0.1759E-06  0.5297E-03  0.5206E-04  0.4507E+06
   -1.850009   31.23704  0.2228E-14  0.9389E-05  0.2831E-06  0.4838E-03  0.3771E-04  0.1041E+09
   -1.900007   31.23591  0.2228E-14  0.7487E-05  0.5913E-06  0.2199E-03  0.3074E-04  0.1716E+05
   -1.950004   31.25664  0.2228E-14  0.5255E-05  0.1476E-05  0.1907E-03  0.1684E-04 -0.4606E+06
   -2.000001   31.25941  0.2228E-14  0.0000E+00  0.0000E+00  0.0000E+00  0.3006E-04  0.0000E+00
