 1 - depth, m
 2 - temperature, C
 3 - salinity, kg/kg
 4 - turbulent kinetic energy, m**2/s**2
 5 - dissipation rate, m**2/s**3
 6 - kinematic heat conductance, m**2/s
 7 - modulus of horizontal velocity, m/s
 8 - Richardson number, n/d
   -0.000000   30.98032  0.1763E-14  0.4901E-05  0.3061E-06  0.4951E-04  0.6122E-03  0.2648E+05
   -0.049997   31.01279  0.1763E-14  0.8617E-05  0.1360E-06  0.1869E-03  0.3452E-03  0.1146E+04
   -0.099994   31.02404  0.1763E-14  0.1041E-04  0.9456E-07  0.4154E-03  0.2537E-03  0.1591E+03
   -0.149992   31.02727  0.1763E-14  0.1153E-04  0.7992E-07  0.4941E-03  0.2249E-03  0.7876E+02
   -0.199991   31.02988  0.1763E-14  0.1241E-04  0.7128E-07  0.6580E-03  0.2014E-03  0.5172E+02
   -0.249989   31.03178  0.1763E-14  0.1310E-04  0.6559E-07  0.7837E-03  0.1837E-03  0.3850E+02
   -0.299988   31.03333  0.1763E-14  0.1367E-04  0.6153E-07  0.9083E-03  0.1689E-03  0.3092E+02
   -0.349988   31.03464  0.1763E-14  0.1414E-04  0.5848E-07  0.1021E-02  0.1562E-03  0.2647E+02
   -0.399987   31.03578  0.1763E-14  0.1453E-04  0.5611E-07  0.1123E-02  0.1450E-03  0.2376E+02
   -0.449988   31.03680  0.1763E-14  0.1487E-04  0.5419E-07  0.1217E-02  0.1351E-03  0.2228E+02
   -0.499988   31.03772  0.1763E-14  0.1516E-04  0.5260E-07  0.1303E-02  0.1263E-03  0.2185E+02
   -0.549988   31.03856  0.1763E-14  0.1541E-04  0.5129E-07  0.1381E-02  0.1184E-03  0.2152E+02
   -0.599989   31.03934  0.1763E-14  0.1562E-04  0.5018E-07  0.1451E-02  0.1113E-03  0.2172E+02
   -0.649990   31.04008  0.1763E-14  0.1580E-04  0.4926E-07  0.1512E-02  0.1048E-03  0.2196E+02
   -0.699991   31.04077  0.1763E-14  0.1595E-04  0.4849E-07  0.1566E-02  0.9875E-04  0.2268E+02
   -0.749993   31.04143  0.1763E-14  0.1607E-04  0.4786E-07  0.1611E-02  0.9319E-04  0.2341E+02
   -0.799994   31.04207  0.1763E-14  0.1617E-04  0.4735E-07  0.1648E-02  0.8801E-04  0.2467E+02
   -0.849996   31.04268  0.1763E-14  0.1624E-04  0.4697E-07  0.1677E-02  0.8316E-04  0.2596E+02
   -0.899997   31.04328  0.1763E-14  0.1628E-04  0.4669E-07  0.1697E-02  0.7860E-04  0.2790E+02
   -0.949999   31.04387  0.1763E-14  0.1630E-04  0.4653E-07  0.1708E-02  0.7430E-04  0.2994E+02
   -1.000001   31.04444  0.1763E-14  0.1630E-04  0.4649E-07  0.1710E-02  0.7022E-04  0.3288E+02
   -1.050002   31.04502  0.1763E-14  0.1627E-04  0.4658E-07  0.1700E-02  0.6634E-04  0.3739E+02
   -1.100004   31.04559  0.1763E-14  0.1621E-04  0.4681E-07  0.1823E-02  0.6262E-04  0.1189E+03
   -1.150006   31.04612  0.1763E-14  0.1613E-04  0.4722E-07  0.1549E-02  0.5939E-04  0.3267E+03
   -1.200007   31.04675  0.1763E-14  0.1602E-04  0.4780E-07  0.1603E-02  0.5582E-04  0.5816E+02
   -1.250009   31.04735  0.1763E-14  0.1588E-04  0.4862E-07  0.1566E-02  0.5249E-04  0.6319E+02
   -1.300010   31.04796  0.1763E-14  0.1570E-04  0.4975E-07  0.1499E-02  0.4927E-04  0.7621E+02
   -1.350011   31.04861  0.1763E-14  0.1547E-04  0.5128E-07  0.1433E-02  0.4614E-04  0.9556E+02
   -1.400012   31.04928  0.1763E-14  0.1520E-04  0.5338E-07  0.1329E-02  0.4307E-04  0.1256E+03
   -1.450013   31.05002  0.1763E-14  0.1487E-04  0.5631E-07  0.1262E-02  0.4001E-04  0.1711E+03
   -1.500014   31.05080  0.1763E-14  0.1446E-04  0.6055E-07  0.1113E-02  0.3702E-04  0.2640E+03
   -1.550014   31.05174  0.1763E-14  0.1396E-04  0.6673E-07  0.1071E-02  0.3388E-04  0.4210E+03
   -1.600014   31.05273  0.1763E-14  0.1332E-04  0.7707E-07  0.8965E-03  0.3094E-04  0.1154E+04
   -1.650014   31.05417  0.1763E-14  0.1243E-04  0.9254E-07  0.8518E-03  0.2741E-04 -0.1293E+05
   -1.700013   31.05570  0.1763E-14  0.1120E-04  0.1221E-06  0.6369E-03  0.2413E-04 -0.1162E+05
   -1.750012   31.05991  0.1763E-14  0.9720E-05  0.1702E-06  0.6076E-03  0.1852E-04  0.2035E+07
   -1.800011   31.06084  0.1763E-14  0.8244E-05  0.2732E-06  0.3922E-03  0.1600E-04  0.6355E+05
   -1.850009   31.07653  0.1763E-14  0.6817E-05  0.4811E-06  0.4022E-03  0.9768E-05  0.4864E+10
   -1.900007   31.06592  0.1763E-14  0.5556E-05  0.1028E-05  0.1935E-03  0.8471E-05 -0.3544E+07
   -1.950004   31.09611  0.1763E-14  0.4066E-05  0.2355E-05  0.2463E-03  0.4161E-05 -0.2977E+07
   -2.000001   31.09762  0.1763E-14  0.0000E+00  0.0000E+00  0.0000E+00  0.1008E-04  0.0000E+00
