 1 - depth, m
 2 - temperature, C
 3 - salinity, kg/kg
 4 - turbulent kinetic energy, m**2/s**2
 5 - dissipation rate, m**2/s**3
 6 - kinematic heat conductance, m**2/s
 7 - modulus of horizontal velocity, m/s
 8 - Richardson number, n/d
   -0.000000   29.95618  0.2025E-14  0.4892E-05  0.2795E-06  0.4965E-04  0.2583E-02  0.2036E+04
   -0.049997   29.98525  0.2025E-14  0.8142E-05  0.1230E-06  0.1900E-03  0.1397E-02  0.1305E+02
   -0.099994   29.99464  0.2025E-14  0.9695E-05  0.8667E-07  0.3829E-03  0.1070E-02  0.6957E+01
   -0.149992   29.99781  0.2025E-14  0.1071E-04  0.7279E-07  0.4773E-03  0.9444E-03  0.3546E+01
   -0.199991   30.00023  0.2025E-14  0.1150E-04  0.6466E-07  0.6245E-03  0.8463E-03  0.2309E+01
   -0.249989   30.00203  0.2025E-14  0.1213E-04  0.5932E-07  0.7463E-03  0.7715E-03  0.1715E+01
   -0.299989   30.00350  0.2025E-14  0.1265E-04  0.5553E-07  0.8616E-03  0.7092E-03  0.1382E+01
   -0.349988   30.00475  0.2025E-14  0.1309E-04  0.5267E-07  0.9640E-03  0.6555E-03  0.1237E+01
   -0.399988   30.00583  0.2025E-14  0.1347E-04  0.5039E-07  0.1064E-02  0.6068E-03  0.1208E+01
   -0.449988   30.00679  0.2025E-14  0.1381E-04  0.4847E-07  0.1168E-02  0.5622E-03  0.1217E+01
   -0.499988   30.00765  0.2025E-14  0.1411E-04  0.4685E-07  0.1267E-02  0.5215E-03  0.1226E+01
   -0.549989   30.00843  0.2025E-14  0.1438E-04  0.4549E-07  0.1357E-02  0.4847E-03  0.1226E+01
   -0.599990   30.00915  0.2025E-14  0.1461E-04  0.4434E-07  0.1440E-02  0.4514E-03  0.1222E+01
   -0.649991   30.00981  0.2025E-14  0.1480E-04  0.4339E-07  0.1513E-02  0.4213E-03  0.1213E+01
   -0.699992   30.01043  0.2025E-14  0.1496E-04  0.4260E-07  0.1576E-02  0.3939E-03  0.1202E+01
   -0.749993   30.01102  0.2025E-14  0.1509E-04  0.4195E-07  0.1629E-02  0.3692E-03  0.1188E+01
   -0.799995   30.01159  0.2025E-14  0.1519E-04  0.4143E-07  0.1671E-02  0.3468E-03  0.1180E+01
   -0.849996   30.01213  0.2025E-14  0.1527E-04  0.4103E-07  0.1704E-02  0.3264E-03  0.1187E+01
   -0.899998   30.01266  0.2025E-14  0.1532E-04  0.4073E-07  0.1727E-02  0.3077E-03  0.1220E+01
   -0.950000   30.01317  0.2025E-14  0.1535E-04  0.4053E-07  0.1742E-02  0.2904E-03  0.1278E+01
   -1.000001   30.01368  0.2025E-14  0.1536E-04  0.4042E-07  0.1750E-02  0.2743E-03  0.1370E+01
   -1.050003   30.01417  0.2025E-14  0.1535E-04  0.4041E-07  0.1747E-02  0.2590E-03  0.1550E+01
   -1.100005   30.01467  0.2025E-14  0.1532E-04  0.4050E-07  0.1843E-02  0.2445E-03  0.5090E+01
   -1.150007   30.01513  0.2025E-14  0.1526E-04  0.4072E-07  0.1647E-02  0.2317E-03  0.1197E+02
   -1.200008   30.01565  0.2025E-14  0.1518E-04  0.4105E-07  0.1681E-02  0.2181E-03  0.2269E+01
   -1.250010   30.01616  0.2025E-14  0.1508E-04  0.4155E-07  0.1649E-02  0.2052E-03  0.2423E+01
   -1.300011   30.01667  0.2025E-14  0.1495E-04  0.4225E-07  0.1598E-02  0.1928E-03  0.2847E+01
   -1.350012   30.01719  0.2025E-14  0.1479E-04  0.4320E-07  0.1536E-02  0.1808E-03  0.3427E+01
   -1.400013   30.01774  0.2025E-14  0.1460E-04  0.4448E-07  0.1457E-02  0.1690E-03  0.4259E+01
   -1.450014   30.01831  0.2025E-14  0.1436E-04  0.4622E-07  0.1378E-02  0.1575E-03  0.5473E+01
   -1.500015   30.01892  0.2025E-14  0.1407E-04  0.4864E-07  0.1264E-02  0.1462E-03  0.7504E+01
   -1.550015   30.01958  0.2025E-14  0.1372E-04  0.5207E-07  0.1181E-02  0.1347E-03  0.1081E+02
   -1.600015   30.02030  0.2025E-14  0.1328E-04  0.5735E-07  0.1034E-02  0.1236E-03  0.2127E+02
   -1.650015   30.02119  0.2025E-14  0.1272E-04  0.6558E-07  0.9593E-03  0.1115E-03  0.2939E+03
   -1.700014   30.02219  0.2025E-14  0.1194E-04  0.8048E-07  0.7755E-03  0.9981E-04  0.4135E+03
   -1.750014   30.02402  0.2025E-14  0.1090E-04  0.1051E-06  0.6995E-03  0.8392E-04  0.4676E+05
   -1.800012   30.02559  0.2025E-14  0.9505E-05  0.1571E-06  0.4792E-03  0.7163E-04  0.2368E+05
   -1.850011   30.03195  0.2025E-14  0.7969E-05  0.2541E-06  0.4480E-03  0.5021E-04  0.4892E+09
   -1.900009   30.03044  0.2025E-14  0.6286E-05  0.5324E-06  0.2032E-03  0.4078E-04 -0.4944E+05
   -1.950006   30.04978  0.2025E-14  0.4414E-05  0.1319E-05  0.1927E-03  0.2147E-04 -0.1366E+06
   -2.000003   30.05000  0.2025E-14  0.0000E+00  0.0000E+00  0.0000E+00  0.4139E-04  0.0000E+00
