 1 - depth, m
 2 - temperature, C
 3 - salinity, kg/kg
 4 - turbulent kinetic energy, m**2/s**2
 5 - dissipation rate, m**2/s**3
 6 - kinematic heat conductance, m**2/s
 7 - modulus of horizontal velocity, m/s
 8 - Richardson number, n/d
   -0.000000   30.63656  0.1064E-14  0.5239E-05  0.3263E-06  0.5247E-04  0.2347E-02  0.2131E+04
   -0.049997   30.66799  0.1064E-14  0.8763E-05  0.1443E-06  0.1875E-03  0.1309E-02  0.3936E+04
   -0.099994   30.67936  0.1064E-14  0.1054E-04  0.9998E-07  0.3997E-03  0.9831E-03  0.9041E+01
   -0.149992   30.68280  0.1064E-14  0.1167E-04  0.8369E-07  0.4881E-03  0.8689E-03  0.4524E+01
   -0.199991   30.68549  0.1064E-14  0.1255E-04  0.7418E-07  0.6479E-03  0.7777E-03  0.2905E+01
   -0.249989   30.68746  0.1064E-14  0.1326E-04  0.6797E-07  0.7746E-03  0.7090E-03  0.2149E+01
   -0.299988   30.68906  0.1064E-14  0.1383E-04  0.6356E-07  0.8987E-03  0.6519E-03  0.1715E+01
   -0.349988   30.69041  0.1064E-14  0.1431E-04  0.6024E-07  0.1010E-02  0.6028E-03  0.1493E+01
   -0.399988   30.69158  0.1064E-14  0.1472E-04  0.5764E-07  0.1115E-02  0.5589E-03  0.1371E+01
   -0.449988   30.69262  0.1064E-14  0.1508E-04  0.5549E-07  0.1217E-02  0.5194E-03  0.1328E+01
   -0.499988   30.69355  0.1064E-14  0.1539E-04  0.5369E-07  0.1313E-02  0.4839E-03  0.1311E+01
   -0.549989   30.69439  0.1064E-14  0.1566E-04  0.5219E-07  0.1401E-02  0.4519E-03  0.1304E+01
   -0.599989   30.69517  0.1064E-14  0.1590E-04  0.5092E-07  0.1481E-02  0.4229E-03  0.1301E+01
   -0.649990   30.69590  0.1064E-14  0.1610E-04  0.4985E-07  0.1552E-02  0.3965E-03  0.1308E+01
   -0.699992   30.69658  0.1064E-14  0.1626E-04  0.4896E-07  0.1615E-02  0.3724E-03  0.1316E+01
   -0.749993   30.69723  0.1064E-14  0.1640E-04  0.4822E-07  0.1668E-02  0.3504E-03  0.1338E+01
   -0.799994   30.69785  0.1064E-14  0.1651E-04  0.4762E-07  0.1711E-02  0.3301E-03  0.1363E+01
   -0.849996   30.69844  0.1064E-14  0.1659E-04  0.4714E-07  0.1746E-02  0.3115E-03  0.1410E+01
   -0.899998   30.69902  0.1064E-14  0.1665E-04  0.4678E-07  0.1771E-02  0.2942E-03  0.1469E+01
   -0.949999   30.69959  0.1064E-14  0.1668E-04  0.4653E-07  0.1788E-02  0.2781E-03  0.1564E+01
   -1.000001   30.70014  0.1064E-14  0.1669E-04  0.4639E-07  0.1797E-02  0.2629E-03  0.1677E+01
   -1.050003   30.70068  0.1064E-14  0.1668E-04  0.4637E-07  0.1795E-02  0.2485E-03  0.1901E+01
   -1.100004   30.70122  0.1064E-14  0.1664E-04  0.4646E-07  0.1895E-02  0.2349E-03  0.6213E+01
   -1.150006   30.70173  0.1064E-14  0.1658E-04  0.4671E-07  0.1690E-02  0.2227E-03  0.1465E+02
   -1.200008   30.70230  0.1064E-14  0.1650E-04  0.4710E-07  0.1727E-02  0.2099E-03  0.2778E+01
   -1.250009   30.70285  0.1064E-14  0.1638E-04  0.4768E-07  0.1694E-02  0.1977E-03  0.2955E+01
   -1.300010   30.70341  0.1064E-14  0.1624E-04  0.4850E-07  0.1641E-02  0.1860E-03  0.3486E+01
   -1.350012   30.70399  0.1064E-14  0.1606E-04  0.4961E-07  0.1578E-02  0.1746E-03  0.4187E+01
   -1.400013   30.70458  0.1064E-14  0.1584E-04  0.5113E-07  0.1495E-02  0.1634E-03  0.5241E+01
   -1.450013   30.70521  0.1064E-14  0.1558E-04  0.5321E-07  0.1416E-02  0.1524E-03  0.6739E+01
   -1.500014   30.70588  0.1064E-14  0.1526E-04  0.5612E-07  0.1298E-02  0.1416E-03  0.9373E+01
   -1.550014   30.70662  0.1064E-14  0.1486E-04  0.6028E-07  0.1215E-02  0.1307E-03  0.1374E+02
   -1.600014   30.70742  0.1064E-14  0.1437E-04  0.6676E-07  0.1068E-02  0.1200E-03  0.3014E+02
   -1.650014   30.70842  0.1064E-14  0.1374E-04  0.7692E-07  0.9865E-03  0.1084E-03  0.1751E+03
   -1.700014   30.70958  0.1064E-14  0.1285E-04  0.9507E-07  0.8046E-03  0.9676E-04  0.9201E+04
   -1.750013   30.71168  0.1064E-14  0.1173E-04  0.1245E-06  0.7249E-03  0.8125E-04  0.3705E+05
   -1.800011   30.71323  0.1064E-14  0.1025E-04  0.1905E-06  0.5032E-03  0.6977E-04  0.2814E+05
   -1.850010   30.72086  0.1064E-14  0.8695E-05  0.3109E-06  0.4694E-03  0.4897E-04  0.9859E+08
   -1.900008   30.71842  0.1064E-14  0.6918E-05  0.6489E-06  0.2168E-03  0.4029E-04 -0.2372E+06
   -1.950005   30.73991  0.1064E-14  0.4885E-05  0.1592E-05  0.2020E-03  0.2156E-04 -0.3151E+06
   -2.000002   30.74084  0.1064E-14  0.0000E+00  0.0000E+00  0.0000E+00  0.4112E-04  0.0000E+00
