 1 - depth, m
 2 - temperature, C
 3 - salinity, kg/kg
 4 - turbulent kinetic energy, m**2/s**2
 5 - dissipation rate, m**2/s**3
 6 - kinematic heat conductance, m**2/s
 7 - modulus of horizontal velocity, m/s
 8 - Richardson number, n/d
   -0.000000   30.58565  0.1631E-14  0.4838E-05  0.3018E-06  0.5037E-04  0.1375E-02  0.8686E+04
   -0.049997   30.61616  0.1631E-14  0.8316E-05  0.1345E-06  0.1791E-03  0.7833E-03  0.1204E+04
   -0.099994   30.62782  0.1631E-14  0.1009E-04  0.9268E-07  0.4011E-03  0.5743E-03  0.2525E+02
   -0.149992   30.63105  0.1631E-14  0.1121E-04  0.7780E-07  0.4828E-03  0.5074E-03  0.1239E+02
   -0.199991   30.63362  0.1631E-14  0.1208E-04  0.6909E-07  0.6458E-03  0.4532E-03  0.7944E+01
   -0.249989   30.63548  0.1631E-14  0.1277E-04  0.6340E-07  0.7718E-03  0.4127E-03  0.5857E+01
   -0.299988   30.63700  0.1631E-14  0.1334E-04  0.5935E-07  0.8979E-03  0.3790E-03  0.4665E+01
   -0.349988   30.63827  0.1631E-14  0.1381E-04  0.5632E-07  0.1012E-02  0.3501E-03  0.3983E+01
   -0.399988   30.63938  0.1631E-14  0.1420E-04  0.5397E-07  0.1116E-02  0.3246E-03  0.3553E+01
   -0.449988   30.64036  0.1631E-14  0.1455E-04  0.5206E-07  0.1213E-02  0.3021E-03  0.3327E+01
   -0.499988   30.64124  0.1631E-14  0.1484E-04  0.5049E-07  0.1302E-02  0.2823E-03  0.3239E+01
   -0.549989   30.64205  0.1631E-14  0.1510E-04  0.4918E-07  0.1384E-02  0.2645E-03  0.3187E+01
   -0.599989   30.64280  0.1631E-14  0.1532E-04  0.4808E-07  0.1458E-02  0.2484E-03  0.3194E+01
   -0.649990   30.64350  0.1631E-14  0.1551E-04  0.4716E-07  0.1524E-02  0.2337E-03  0.3224E+01
   -0.699992   30.64416  0.1631E-14  0.1568E-04  0.4638E-07  0.1583E-02  0.2202E-03  0.3305E+01
   -0.749993   30.64479  0.1631E-14  0.1581E-04  0.4574E-07  0.1634E-02  0.2077E-03  0.3404E+01
   -0.799994   30.64539  0.1631E-14  0.1593E-04  0.4521E-07  0.1677E-02  0.1961E-03  0.3556E+01
   -0.849996   30.64597  0.1631E-14  0.1602E-04  0.4479E-07  0.1712E-02  0.1853E-03  0.3729E+01
   -0.899998   30.64653  0.1631E-14  0.1608E-04  0.4448E-07  0.1739E-02  0.1751E-03  0.3966E+01
   -0.949999   30.64708  0.1631E-14  0.1613E-04  0.4427E-07  0.1758E-02  0.1655E-03  0.4234E+01
   -1.000001   30.64761  0.1631E-14  0.1615E-04  0.4416E-07  0.1769E-02  0.1564E-03  0.4587E+01
   -1.050003   30.64814  0.1631E-14  0.1616E-04  0.4416E-07  0.1770E-02  0.1478E-03  0.5187E+01
   -1.100004   30.64867  0.1631E-14  0.1614E-04  0.4428E-07  0.1858E-02  0.1396E-03  0.1725E+02
   -1.150006   30.64917  0.1631E-14  0.1610E-04  0.4454E-07  0.1685E-02  0.1322E-03  0.3913E+02
   -1.200008   30.64972  0.1631E-14  0.1603E-04  0.4492E-07  0.1711E-02  0.1246E-03  0.7509E+01
   -1.250009   30.65026  0.1631E-14  0.1594E-04  0.4549E-07  0.1680E-02  0.1173E-03  0.8043E+01
   -1.300011   30.65080  0.1631E-14  0.1582E-04  0.4628E-07  0.1630E-02  0.1103E-03  0.9403E+01
   -1.350012   30.65136  0.1631E-14  0.1567E-04  0.4733E-07  0.1571E-02  0.1035E-03  0.1131E+02
   -1.400013   30.65195  0.1631E-14  0.1547E-04  0.4876E-07  0.1493E-02  0.9682E-04  0.1399E+02
   -1.450014   30.65256  0.1631E-14  0.1524E-04  0.5068E-07  0.1415E-02  0.9028E-04  0.1793E+02
   -1.500014   30.65321  0.1631E-14  0.1495E-04  0.5334E-07  0.1302E-02  0.8387E-04  0.2450E+02
   -1.550014   30.65393  0.1631E-14  0.1460E-04  0.5710E-07  0.1219E-02  0.7741E-04  0.3535E+02
   -1.600015   30.65470  0.1631E-14  0.1416E-04  0.6285E-07  0.1073E-02  0.7108E-04  0.6911E+02
   -1.650014   30.65566  0.1631E-14  0.1359E-04  0.7172E-07  0.9973E-03  0.6427E-04 -0.2286E+04
   -1.700014   30.65673  0.1631E-14  0.1281E-04  0.8764E-07  0.8083E-03  0.5764E-04 -0.1572E+03
   -1.750013   30.65869  0.1631E-14  0.1176E-04  0.1137E-06  0.7375E-03  0.4871E-04  0.2703E+05
   -1.800012   30.66024  0.1631E-14  0.1039E-04  0.1699E-06  0.5093E-03  0.4188E-04  0.1575E+05
   -1.850010   30.66693  0.1631E-14  0.8849E-05  0.2738E-06  0.4740E-03  0.2996E-04  0.3627E+08
   -1.900008   30.66543  0.1631E-14  0.7055E-05  0.5715E-06  0.2152E-03  0.2448E-04  0.5825E+07
   -1.950005   30.68562  0.1631E-14  0.4943E-05  0.1427E-05  0.1896E-03  0.1329E-04 -0.1559E+07
   -2.000002   30.68795  0.1631E-14  0.0000E+00  0.0000E+00  0.0000E+00  0.2412E-04  0.0000E+00
