 1 - depth, m
 2 - temperature, C
 3 - salinity, kg/kg
 4 - turbulent kinetic energy, m**2/s**2
 5 - dissipation rate, m**2/s**3
 6 - kinematic heat conductance, m**2/s
 7 - modulus of horizontal velocity, m/s
 8 - Richardson number, n/d
   -0.000000   29.49710  0.2045E-14  0.4544E-05  0.2726E-06  0.4904E-04  0.1638E-02  0.3935E+04
   -0.049997   29.52530  0.2045E-14  0.7796E-05  0.1212E-06  0.1735E-03  0.9327E-03  0.2490E+03
   -0.099994   29.53623  0.2045E-14  0.9463E-05  0.8338E-07  0.3928E-03  0.6806E-03  0.1924E+02
   -0.149992   29.53923  0.2045E-14  0.1051E-04  0.7007E-07  0.4731E-03  0.6009E-03  0.9386E+01
   -0.199991   29.54163  0.2045E-14  0.1133E-04  0.6228E-07  0.6315E-03  0.5363E-03  0.6051E+01
   -0.249989   29.54338  0.2045E-14  0.1198E-04  0.5719E-07  0.7551E-03  0.4879E-03  0.4457E+01
   -0.299989   29.54481  0.2045E-14  0.1252E-04  0.5358E-07  0.8782E-03  0.4476E-03  0.3561E+01
   -0.349988   29.54601  0.2045E-14  0.1296E-04  0.5088E-07  0.9900E-03  0.4132E-03  0.3038E+01
   -0.399988   29.54705  0.2045E-14  0.1334E-04  0.4879E-07  0.1092E-02  0.3827E-03  0.2720E+01
   -0.449988   29.54798  0.2045E-14  0.1367E-04  0.4709E-07  0.1188E-02  0.3559E-03  0.2544E+01
   -0.499988   29.54882  0.2045E-14  0.1396E-04  0.4570E-07  0.1275E-02  0.3322E-03  0.2488E+01
   -0.549989   29.54959  0.2045E-14  0.1421E-04  0.4454E-07  0.1356E-02  0.3110E-03  0.2444E+01
   -0.599990   29.55030  0.2045E-14  0.1443E-04  0.4358E-07  0.1429E-02  0.2918E-03  0.2460E+01
   -0.649991   29.55097  0.2045E-14  0.1462E-04  0.4276E-07  0.1495E-02  0.2743E-03  0.2478E+01
   -0.699992   29.55159  0.2045E-14  0.1478E-04  0.4209E-07  0.1553E-02  0.2582E-03  0.2550E+01
   -0.749993   29.55219  0.2045E-14  0.1492E-04  0.4152E-07  0.1604E-02  0.2434E-03  0.2620E+01
   -0.799995   29.55277  0.2045E-14  0.1504E-04  0.4107E-07  0.1648E-02  0.2296E-03  0.2748E+01
   -0.849996   29.55332  0.2045E-14  0.1513E-04  0.4071E-07  0.1684E-02  0.2168E-03  0.2872E+01
   -0.899998   29.55385  0.2045E-14  0.1521E-04  0.4044E-07  0.1713E-02  0.2047E-03  0.3066E+01
   -0.950000   29.55438  0.2045E-14  0.1526E-04  0.4026E-07  0.1733E-02  0.1934E-03  0.3260E+01
   -1.000002   29.55489  0.2045E-14  0.1530E-04  0.4018E-07  0.1746E-02  0.1826E-03  0.3542E+01
   -1.050003   29.55540  0.2045E-14  0.1531E-04  0.4019E-07  0.1749E-02  0.1724E-03  0.3991E+01
   -1.100005   29.55590  0.2045E-14  0.1531E-04  0.4029E-07  0.1824E-02  0.1627E-03  0.1351E+02
   -1.150007   29.55638  0.2045E-14  0.1528E-04  0.4052E-07  0.1685E-02  0.1540E-03  0.2919E+02
   -1.200008   29.55690  0.2045E-14  0.1524E-04  0.4086E-07  0.1701E-02  0.1451E-03  0.5701E+01
   -1.250010   29.55741  0.2045E-14  0.1517E-04  0.4135E-07  0.1673E-02  0.1365E-03  0.6115E+01
   -1.300011   29.55793  0.2045E-14  0.1507E-04  0.4203E-07  0.1627E-02  0.1283E-03  0.7081E+01
   -1.350012   29.55846  0.2045E-14  0.1494E-04  0.4292E-07  0.1572E-02  0.1203E-03  0.8456E+01
   -1.400013   29.55901  0.2045E-14  0.1479E-04  0.4412E-07  0.1501E-02  0.1126E-03  0.1028E+02
   -1.450014   29.55958  0.2045E-14  0.1459E-04  0.4571E-07  0.1426E-02  0.1050E-03  0.1298E+02
   -1.500015   29.56019  0.2045E-14  0.1435E-04  0.4787E-07  0.1320E-02  0.9752E-04  0.1715E+02
   -1.550015   29.56085  0.2045E-14  0.1406E-04  0.5086E-07  0.1235E-02  0.9007E-04  0.2378E+02
   -1.600015   29.56156  0.2045E-14  0.1369E-04  0.5527E-07  0.1091E-02  0.8277E-04  0.3992E+02
   -1.650015   29.56240  0.2045E-14  0.1322E-04  0.6187E-07  0.1015E-02  0.7510E-04  0.7778E+02
   -1.700015   29.56331  0.2045E-14  0.1259E-04  0.7371E-07  0.8297E-03  0.6775E-04 -0.4456E+04
   -1.750014   29.56485  0.2045E-14  0.1171E-04  0.9353E-07  0.7530E-03  0.5823E-04  0.1455E+04
   -1.800012   29.56632  0.2045E-14  0.1046E-04  0.1343E-06  0.5291E-03  0.5019E-04 -0.1876E+04
   -1.850011   29.57112  0.2045E-14  0.8975E-05  0.2100E-06  0.4800E-03  0.3710E-04  0.1503E+07
   -1.900009   29.57128  0.2045E-14  0.7130E-05  0.4322E-06  0.2166E-03  0.2995E-04 -0.2038E+07
   -1.950006   29.58846  0.2045E-14  0.4913E-05  0.1117E-05  0.1712E-03  0.1653E-04 -0.5761E+06
   -2.000003   29.59137  0.2045E-14  0.0000E+00  0.0000E+00  0.0000E+00  0.2798E-04  0.0000E+00
