 1 - depth, m
 2 - temperature, C
 3 - salinity, kg/kg
 4 - turbulent kinetic energy, m**2/s**2
 5 - dissipation rate, m**2/s**3
 6 - kinematic heat conductance, m**2/s
 7 - modulus of horizontal velocity, m/s
 8 - Richardson number, n/d
   -0.000000   30.42947  0.3007E-13  0.5067E-05  0.2999E-06  0.5084E-04  0.2542E-02  0.4418E+04
   -0.049997   30.45988  0.3007E-13  0.8426E-05  0.1324E-06  0.1888E-03  0.1395E-02  0.1193E+03
   -0.099994   30.47011  0.3007E-13  0.1006E-04  0.9262E-07  0.3878E-03  0.1062E-02  0.7652E+01
   -0.149992   30.47343  0.3007E-13  0.1111E-04  0.7766E-07  0.4797E-03  0.9386E-03  0.3855E+01
   -0.199991   30.47600  0.3007E-13  0.1194E-04  0.6889E-07  0.6305E-03  0.8411E-03  0.2495E+01
   -0.249989   30.47789  0.3007E-13  0.1259E-04  0.6314E-07  0.7533E-03  0.7671E-03  0.1846E+01
   -0.299988   30.47943  0.3007E-13  0.1313E-04  0.5904E-07  0.8699E-03  0.7053E-03  0.1484E+01
   -0.349988   30.48073  0.3007E-13  0.1357E-04  0.5593E-07  0.9753E-03  0.6521E-03  0.1326E+01
   -0.399988   30.48186  0.3007E-13  0.1396E-04  0.5345E-07  0.1079E-02  0.6037E-03  0.1267E+01
   -0.449988   30.48286  0.3007E-13  0.1430E-04  0.5137E-07  0.1182E-02  0.5595E-03  0.1246E+01
   -0.499988   30.48376  0.3007E-13  0.1460E-04  0.4963E-07  0.1279E-02  0.5195E-03  0.1245E+01
   -0.549989   30.48456  0.3007E-13  0.1486E-04  0.4815E-07  0.1368E-02  0.4835E-03  0.1240E+01
   -0.599990   30.48531  0.3007E-13  0.1509E-04  0.4691E-07  0.1449E-02  0.4509E-03  0.1237E+01
   -0.649991   30.48600  0.3007E-13  0.1527E-04  0.4586E-07  0.1521E-02  0.4213E-03  0.1232E+01
   -0.699992   30.48664  0.3007E-13  0.1543E-04  0.4499E-07  0.1584E-02  0.3944E-03  0.1230E+01
   -0.749993   30.48725  0.3007E-13  0.1555E-04  0.4426E-07  0.1636E-02  0.3699E-03  0.1228E+01
   -0.799995   30.48784  0.3007E-13  0.1564E-04  0.4367E-07  0.1679E-02  0.3476E-03  0.1236E+01
   -0.849996   30.48840  0.3007E-13  0.1571E-04  0.4320E-07  0.1712E-02  0.3272E-03  0.1249E+01
   -0.899998   30.48894  0.3007E-13  0.1575E-04  0.4283E-07  0.1736E-02  0.3085E-03  0.1283E+01
   -0.950000   30.48947  0.3007E-13  0.1577E-04  0.4258E-07  0.1751E-02  0.2913E-03  0.1337E+01
   -1.000001   30.48999  0.3007E-13  0.1577E-04  0.4242E-07  0.1758E-02  0.2752E-03  0.1432E+01
   -1.050003   30.49050  0.3007E-13  0.1575E-04  0.4236E-07  0.1755E-02  0.2600E-03  0.1612E+01
   -1.100005   30.49100  0.3007E-13  0.1571E-04  0.4241E-07  0.1856E-02  0.2455E-03  0.5281E+01
   -1.150006   30.49148  0.3007E-13  0.1564E-04  0.4260E-07  0.1646E-02  0.2327E-03  0.1251E+02
   -1.200008   30.49201  0.3007E-13  0.1555E-04  0.4292E-07  0.1685E-02  0.2191E-03  0.2352E+01
   -1.250009   30.49252  0.3007E-13  0.1543E-04  0.4341E-07  0.1653E-02  0.2062E-03  0.2506E+01
   -1.300011   30.49304  0.3007E-13  0.1528E-04  0.4411E-07  0.1600E-02  0.1938E-03  0.2936E+01
   -1.350012   30.49358  0.3007E-13  0.1510E-04  0.4508E-07  0.1537E-02  0.1817E-03  0.3534E+01
   -1.400013   30.49413  0.3007E-13  0.1489E-04  0.4640E-07  0.1456E-02  0.1700E-03  0.4390E+01
   -1.450014   30.49471  0.3007E-13  0.1463E-04  0.4824E-07  0.1376E-02  0.1584E-03  0.5644E+01
   -1.500014   30.49532  0.3007E-13  0.1431E-04  0.5081E-07  0.1260E-02  0.1470E-03  0.7766E+01
   -1.550015   30.49600  0.3007E-13  0.1393E-04  0.5450E-07  0.1178E-02  0.1355E-03  0.1123E+02
   -1.600015   30.49673  0.3007E-13  0.1346E-04  0.6026E-07  0.1030E-02  0.1243E-03  0.2827E+02
   -1.650015   30.49765  0.3007E-13  0.1285E-04  0.6933E-07  0.9559E-03  0.1120E-03  0.6188E+02
   -1.700014   30.49868  0.3007E-13  0.1201E-04  0.8571E-07  0.7694E-03  0.1000E-03  0.3951E+04
   -1.750013   30.50060  0.3007E-13  0.1091E-04  0.1125E-06  0.6960E-03  0.8358E-04  0.2741E+05
   -1.800012   30.50207  0.3007E-13  0.9460E-05  0.1714E-06  0.4755E-03  0.7142E-04  0.1172E+06
   -1.850010   30.50889  0.3007E-13  0.7907E-05  0.2795E-06  0.4428E-03  0.4928E-04  0.2628E+07
   -1.900008   30.50681  0.3007E-13  0.6181E-05  0.5881E-06  0.1960E-03  0.4033E-04 -0.5544E+05
   -1.950006   30.52671  0.3007E-13  0.4374E-05  0.1446E-05  0.2008E-03  0.2069E-04 -0.2111E+06
   -2.000003   30.52698  0.3007E-13  0.0000E+00  0.0000E+00  0.0000E+00  0.4164E-04  0.0000E+00
