 1 - depth, m
 2 - temperature, C
 3 - salinity, kg/kg
 4 - turbulent kinetic energy, m**2/s**2
 5 - dissipation rate, m**2/s**3
 6 - kinematic heat conductance, m**2/s
 7 - modulus of horizontal velocity, m/s
 8 - Richardson number, n/d
   -0.000000   31.14979  0.2837E-14  0.5427E-05  0.3636E-06  0.5396E-04  0.1602E-02  0.4294E+04
   -0.049997   31.18367  0.2837E-14  0.9222E-05  0.1620E-06  0.1842E-03  0.9265E-03  0.6846E+04
   -0.099994   31.19716  0.2837E-14  0.1121E-04  0.1109E-06  0.4167E-03  0.6792E-03  0.1979E+02
   -0.149992   31.20081  0.2837E-14  0.1246E-04  0.9273E-07  0.4973E-03  0.6013E-03  0.9767E+01
   -0.199990   31.20373  0.2837E-14  0.1343E-04  0.8216E-07  0.6701E-03  0.5376E-03  0.6215E+01
   -0.249989   31.20583  0.2837E-14  0.1420E-04  0.7528E-07  0.8004E-03  0.4903E-03  0.4578E+01
   -0.299988   31.20754  0.2837E-14  0.1483E-04  0.7040E-07  0.9329E-03  0.4510E-03  0.3638E+01
   -0.349987   31.20898  0.2837E-14  0.1535E-04  0.6676E-07  0.1052E-02  0.4173E-03  0.3101E+01
   -0.399987   31.21022  0.2837E-14  0.1579E-04  0.6393E-07  0.1161E-02  0.3876E-03  0.2763E+01
   -0.449987   31.21132  0.2837E-14  0.1616E-04  0.6164E-07  0.1262E-02  0.3614E-03  0.2583E+01
   -0.499987   31.21231  0.2837E-14  0.1649E-04  0.5975E-07  0.1354E-02  0.3382E-03  0.2513E+01
   -0.549988   31.21322  0.2837E-14  0.1677E-04  0.5818E-07  0.1439E-02  0.3174E-03  0.2469E+01
   -0.599989   31.21406  0.2837E-14  0.1700E-04  0.5685E-07  0.1515E-02  0.2986E-03  0.2472E+01
   -0.649990   31.21485  0.2837E-14  0.1721E-04  0.5574E-07  0.1583E-02  0.2814E-03  0.2493E+01
   -0.699991   31.21559  0.2837E-14  0.1738E-04  0.5481E-07  0.1643E-02  0.2655E-03  0.2554E+01
   -0.749992   31.21629  0.2837E-14  0.1752E-04  0.5404E-07  0.1694E-02  0.2509E-03  0.2629E+01
   -0.799994   31.21696  0.2837E-14  0.1764E-04  0.5341E-07  0.1738E-02  0.2373E-03  0.2747E+01
   -0.849995   31.21762  0.2837E-14  0.1773E-04  0.5291E-07  0.1772E-02  0.2245E-03  0.2881E+01
   -0.899997   31.21825  0.2837E-14  0.1779E-04  0.5254E-07  0.1798E-02  0.2125E-03  0.3066E+01
   -0.949998   31.21886  0.2837E-14  0.1783E-04  0.5229E-07  0.1815E-02  0.2012E-03  0.3278E+01
   -1.000000   31.21947  0.2837E-14  0.1784E-04  0.5217E-07  0.1824E-02  0.1904E-03  0.3555E+01
   -1.050002   31.22006  0.2837E-14  0.1783E-04  0.5219E-07  0.1820E-02  0.1802E-03  0.4024E+01
   -1.100003   31.22066  0.2837E-14  0.1779E-04  0.5234E-07  0.1929E-02  0.1704E-03  0.1309E+02
   -1.150005   31.22121  0.2837E-14  0.1772E-04  0.5269E-07  0.1701E-02  0.1618E-03  0.3200E+02
   -1.200006   31.22185  0.2837E-14  0.1763E-04  0.5320E-07  0.1743E-02  0.1525E-03  0.5957E+01
   -1.250008   31.22246  0.2837E-14  0.1751E-04  0.5394E-07  0.1710E-02  0.1438E-03  0.6375E+01
   -1.300009   31.22308  0.2837E-14  0.1735E-04  0.5498E-07  0.1653E-02  0.1353E-03  0.7539E+01
   -1.350010   31.22372  0.2837E-14  0.1715E-04  0.5638E-07  0.1586E-02  0.1271E-03  0.9173E+01
   -1.400011   31.22439  0.2837E-14  0.1690E-04  0.5830E-07  0.1500E-02  0.1191E-03  0.1159E+02
   -1.450012   31.22509  0.2837E-14  0.1660E-04  0.6095E-07  0.1417E-02  0.1111E-03  0.1522E+02
   -1.500012   31.22585  0.2837E-14  0.1623E-04  0.6468E-07  0.1298E-02  0.1033E-03  0.2167E+02
   -1.550013   31.22670  0.2837E-14  0.1578E-04  0.7013E-07  0.1215E-02  0.9533E-04  0.3466E+02
   -1.600013   31.22763  0.2837E-14  0.1521E-04  0.7878E-07  0.1068E-02  0.8742E-04  0.3279E+04
   -1.650012   31.22885  0.2837E-14  0.1445E-04  0.9239E-07  0.9830E-03  0.7868E-04  0.1128E+05
   -1.700012   31.23032  0.2837E-14  0.1340E-04  0.1163E-06  0.7987E-03  0.6967E-04  0.6172E+04
   -1.750011   31.23289  0.2837E-14  0.1216E-04  0.1539E-06  0.7202E-03  0.5794E-04  0.6542E+06
   -1.800010   31.23449  0.2837E-14  0.1059E-04  0.2388E-06  0.4893E-03  0.4995E-04  0.2139E+05
   -1.850008   31.24459  0.2837E-14  0.9018E-05  0.3988E-06  0.4747E-03  0.3410E-04  0.2597E+08
   -1.900006   31.24024  0.2837E-14  0.7288E-05  0.8316E-06  0.2270E-03  0.2860E-04  0.1124E+07
   -1.950003   31.26614  0.2837E-14  0.5209E-05  0.2000E-05  0.2172E-03  0.1535E-04 -0.3666E+06
   -2.000000   31.26714  0.2837E-14  0.0000E+00  0.0000E+00  0.0000E+00  0.3036E-04  0.0000E+00
