 1 - depth, m
 2 - temperature, C
 3 - salinity, kg/kg
 4 - turbulent kinetic energy, m**2/s**2
 5 - dissipation rate, m**2/s**3
 6 - kinematic heat conductance, m**2/s
 7 - modulus of horizontal velocity, m/s
 8 - Richardson number, n/d
   -0.000000   31.03269  0.5118E-13  0.4877E-05  0.3062E-06  0.5112E-04  0.1668E-02  0.9423E+04
   -0.049997   31.06233  0.5118E-13  0.8321E-05  0.1365E-06  0.1766E-03  0.9565E-03  0.1918E+04
   -0.099994   31.07398  0.5118E-13  0.1011E-04  0.9357E-07  0.4007E-03  0.6989E-03  0.1669E+02
   -0.149992   31.07717  0.5118E-13  0.1123E-04  0.7843E-07  0.4809E-03  0.6174E-03  0.8173E+01
   -0.199991   31.07971  0.5118E-13  0.1211E-04  0.6959E-07  0.6448E-03  0.5512E-03  0.5231E+01
   -0.249989   31.08155  0.5118E-13  0.1281E-04  0.6383E-07  0.7711E-03  0.5019E-03  0.3857E+01
   -0.299988   31.08305  0.5118E-13  0.1338E-04  0.5975E-07  0.8977E-03  0.4608E-03  0.3070E+01
   -0.349988   31.08431  0.5118E-13  0.1385E-04  0.5670E-07  0.1012E-02  0.4256E-03  0.2624E+01
   -0.399988   31.08540  0.5118E-13  0.1425E-04  0.5433E-07  0.1117E-02  0.3946E-03  0.2339E+01
   -0.449988   31.08637  0.5118E-13  0.1460E-04  0.5242E-07  0.1215E-02  0.3673E-03  0.2194E+01
   -0.499988   31.08725  0.5118E-13  0.1490E-04  0.5085E-07  0.1304E-02  0.3431E-03  0.2134E+01
   -0.549988   31.08805  0.5118E-13  0.1516E-04  0.4954E-07  0.1386E-02  0.3215E-03  0.2104E+01
   -0.599989   31.08879  0.5118E-13  0.1539E-04  0.4844E-07  0.1460E-02  0.3019E-03  0.2106E+01
   -0.649990   31.08948  0.5118E-13  0.1559E-04  0.4753E-07  0.1527E-02  0.2840E-03  0.2133E+01
   -0.699991   31.09014  0.5118E-13  0.1576E-04  0.4677E-07  0.1586E-02  0.2676E-03  0.2184E+01
   -0.749993   31.09076  0.5118E-13  0.1590E-04  0.4614E-07  0.1637E-02  0.2525E-03  0.2257E+01
   -0.799994   31.09135  0.5118E-13  0.1602E-04  0.4563E-07  0.1681E-02  0.2384E-03  0.2356E+01
   -0.849996   31.09193  0.5118E-13  0.1611E-04  0.4523E-07  0.1716E-02  0.2252E-03  0.2480E+01
   -0.899997   31.09249  0.5118E-13  0.1619E-04  0.4494E-07  0.1744E-02  0.2128E-03  0.2636E+01
   -0.949999   31.09303  0.5118E-13  0.1624E-04  0.4476E-07  0.1763E-02  0.2012E-03  0.2827E+01
   -1.000001   31.09357  0.5118E-13  0.1627E-04  0.4468E-07  0.1774E-02  0.1902E-03  0.3059E+01
   -1.050002   31.09409  0.5118E-13  0.1628E-04  0.4471E-07  0.1775E-02  0.1797E-03  0.3477E+01
   -1.100004   31.09462  0.5118E-13  0.1627E-04  0.4485E-07  0.1862E-02  0.1697E-03  0.1154E+02
   -1.150006   31.09512  0.5118E-13  0.1623E-04  0.4515E-07  0.1691E-02  0.1608E-03  0.2625E+02
   -1.200007   31.09567  0.5118E-13  0.1617E-04  0.4557E-07  0.1716E-02  0.1515E-03  0.5063E+01
   -1.250009   31.09621  0.5118E-13  0.1609E-04  0.4618E-07  0.1685E-02  0.1427E-03  0.5419E+01
   -1.300010   31.09676  0.5118E-13  0.1597E-04  0.4702E-07  0.1635E-02  0.1341E-03  0.6370E+01
   -1.350011   31.09732  0.5118E-13  0.1582E-04  0.4813E-07  0.1576E-02  0.1258E-03  0.7653E+01
   -1.400012   31.09791  0.5118E-13  0.1564E-04  0.4962E-07  0.1497E-02  0.1178E-03  0.9521E+01
   -1.450013   31.09853  0.5118E-13  0.1541E-04  0.5162E-07  0.1421E-02  0.1098E-03  0.1219E+02
   -1.500014   31.09918  0.5118E-13  0.1512E-04  0.5438E-07  0.1306E-02  0.1020E-03  0.1679E+02
   -1.550014   31.09991  0.5118E-13  0.1477E-04  0.5825E-07  0.1226E-02  0.9418E-04  0.2417E+02
   -1.600014   31.10069  0.5118E-13  0.1433E-04  0.6427E-07  0.1075E-02  0.8653E-04  0.1928E+04
   -1.650014   31.10169  0.5118E-13  0.1376E-04  0.7344E-07  0.9971E-03  0.7811E-04  0.1401E+03
   -1.700013   31.10276  0.5118E-13  0.1298E-04  0.8957E-07  0.8132E-03  0.7012E-04  0.2289E+05
   -1.750012   31.10475  0.5118E-13  0.1195E-04  0.1162E-06  0.7362E-03  0.5928E-04  0.3450E+05
   -1.800011   31.10623  0.5118E-13  0.1058E-04  0.1734E-06  0.5186E-03  0.5117E-04  0.5137E+05
   -1.850009   31.11301  0.5118E-13  0.9032E-05  0.2813E-06  0.4696E-03  0.3677E-04  0.6722E+08
   -1.900007   31.11170  0.5118E-13  0.7138E-05  0.5942E-06  0.2127E-03  0.2987E-04  0.3062E+06
   -1.950005   31.13251  0.5118E-13  0.5026E-05  0.1463E-05  0.1922E-03  0.1616E-04 -0.4928E+06
   -2.000002   31.13496  0.5118E-13  0.0000E+00  0.0000E+00  0.0000E+00  0.2929E-04  0.0000E+00
