 1 - depth, m
 2 - temperature, C
 3 - salinity, kg/kg
 4 - turbulent kinetic energy, m**2/s**2
 5 - dissipation rate, m**2/s**3
 6 - kinematic heat conductance, m**2/s
 7 - modulus of horizontal velocity, m/s
 8 - Richardson number, n/d
   -0.000000   31.34403  0.3577E-14  0.5148E-05  0.3332E-06  0.5172E-04  0.1242E-02  0.6247E+04
   -0.049997   31.37671  0.3577E-14  0.8852E-05  0.1484E-06  0.1848E-03  0.7089E-03  0.1060E+05
   -0.099994   31.38903  0.3577E-14  0.1074E-04  0.1023E-06  0.4110E-03  0.5221E-03  0.3603E+02
   -0.149992   31.39246  0.3577E-14  0.1192E-04  0.8580E-07  0.4933E-03  0.4619E-03  0.1773E+02
   -0.199991   31.39519  0.3577E-14  0.1284E-04  0.7614E-07  0.6611E-03  0.4130E-03  0.1138E+02
   -0.249989   31.39717  0.3577E-14  0.1358E-04  0.6983E-07  0.7895E-03  0.3765E-03  0.8379E+01
   -0.299988   31.39878  0.3577E-14  0.1417E-04  0.6533E-07  0.9188E-03  0.3461E-03  0.6676E+01
   -0.349988   31.40013  0.3577E-14  0.1466E-04  0.6196E-07  0.1035E-02  0.3201E-03  0.5677E+01
   -0.399987   31.40130  0.3577E-14  0.1508E-04  0.5933E-07  0.1142E-02  0.2970E-03  0.5069E+01
   -0.449988   31.40234  0.3577E-14  0.1543E-04  0.5720E-07  0.1241E-02  0.2768E-03  0.4725E+01
   -0.499988   31.40327  0.3577E-14  0.1574E-04  0.5544E-07  0.1332E-02  0.2588E-03  0.4608E+01
   -0.549988   31.40412  0.3577E-14  0.1600E-04  0.5396E-07  0.1414E-02  0.2428E-03  0.4511E+01
   -0.599989   31.40491  0.3577E-14  0.1623E-04  0.5272E-07  0.1489E-02  0.2282E-03  0.4527E+01
   -0.649990   31.40565  0.3577E-14  0.1642E-04  0.5167E-07  0.1557E-02  0.2149E-03  0.4546E+01
   -0.699991   31.40635  0.3577E-14  0.1658E-04  0.5078E-07  0.1616E-02  0.2027E-03  0.4666E+01
   -0.749993   31.40701  0.3577E-14  0.1672E-04  0.5004E-07  0.1667E-02  0.1914E-03  0.4778E+01
   -0.799994   31.40764  0.3577E-14  0.1683E-04  0.4942E-07  0.1710E-02  0.1809E-03  0.4999E+01
   -0.849996   31.40825  0.3577E-14  0.1691E-04  0.4893E-07  0.1745E-02  0.1710E-03  0.5212E+01
   -0.899997   31.40883  0.3577E-14  0.1697E-04  0.4855E-07  0.1772E-02  0.1618E-03  0.5551E+01
   -0.949999   31.40941  0.3577E-14  0.1700E-04  0.4828E-07  0.1790E-02  0.1530E-03  0.5894E+01
   -1.000001   31.40997  0.3577E-14  0.1701E-04  0.4812E-07  0.1800E-02  0.1448E-03  0.6394E+01
   -1.050002   31.41053  0.3577E-14  0.1700E-04  0.4809E-07  0.1798E-02  0.1369E-03  0.7184E+01
   -1.100004   31.41108  0.3577E-14  0.1697E-04  0.4818E-07  0.1897E-02  0.1294E-03  0.2368E+02
   -1.150006   31.41159  0.3577E-14  0.1691E-04  0.4843E-07  0.1696E-02  0.1227E-03  0.5551E+02
   -1.200007   31.41217  0.3577E-14  0.1682E-04  0.4883E-07  0.1731E-02  0.1157E-03  0.1043E+02
   -1.250009   31.41273  0.3577E-14  0.1671E-04  0.4943E-07  0.1699E-02  0.1090E-03  0.1116E+02
   -1.300010   31.41330  0.3577E-14  0.1656E-04  0.5028E-07  0.1645E-02  0.1026E-03  0.1302E+02
   -1.350011   31.41388  0.3577E-14  0.1638E-04  0.5144E-07  0.1582E-02  0.9628E-04  0.1576E+02
   -1.400012   31.41449  0.3577E-14  0.1615E-04  0.5302E-07  0.1500E-02  0.9017E-04  0.1949E+02
   -1.450013   31.41513  0.3577E-14  0.1588E-04  0.5520E-07  0.1418E-02  0.8413E-04  0.2531E+02
   -1.500014   31.41580  0.3577E-14  0.1555E-04  0.5825E-07  0.1304E-02  0.7819E-04  0.3482E+02
   -1.550014   31.41655  0.3577E-14  0.1514E-04  0.6266E-07  0.1217E-02  0.7218E-04  0.5281E+02
   -1.600014   31.41737  0.3577E-14  0.1464E-04  0.6955E-07  0.1074E-02  0.6627E-04  0.1559E+03
   -1.650014   31.41840  0.3577E-14  0.1397E-04  0.8046E-07  0.9875E-03  0.5980E-04  0.6729E+03
   -1.700013   31.41963  0.3577E-14  0.1305E-04  0.9978E-07  0.8069E-03  0.5326E-04  0.7342E+05
   -1.750012   31.42174  0.3577E-14  0.1192E-04  0.1303E-06  0.7276E-03  0.4473E-04  0.1584E+06
   -1.800011   31.42324  0.3577E-14  0.1043E-04  0.1989E-06  0.4966E-03  0.3856E-04  0.1132E+06
   -1.850009   31.43131  0.3577E-14  0.8852E-05  0.3274E-06  0.4729E-03  0.2690E-04  0.2065E+08
   -1.900007   31.42854  0.3577E-14  0.7060E-05  0.6829E-06  0.2141E-03  0.2221E-04 -0.1619E+06
   -1.950004   31.45057  0.3577E-14  0.4993E-05  0.1665E-05  0.2049E-03  0.1188E-04 -0.1137E+07
   -2.000001   31.45160  0.3577E-14  0.0000E+00  0.0000E+00  0.0000E+00  0.2280E-04  0.0000E+00
