 1 - depth, m
 2 - temperature, C
 3 - salinity, kg/kg
 4 - turbulent kinetic energy, m**2/s**2
 5 - dissipation rate, m**2/s**3
 6 - kinematic heat conductance, m**2/s
 7 - modulus of horizontal velocity, m/s
 8 - Richardson number, n/d
   -0.000000   30.39592  0.7349E-14  0.5055E-05  0.3245E-06  0.5121E-04  0.5854E-03  0.2072E+05
   -0.049997   30.42952  0.7349E-14  0.8866E-05  0.1439E-06  0.1861E-03  0.3327E-03  0.8122E+02
   -0.099994   30.44183  0.7349E-14  0.1073E-04  0.9939E-07  0.4241E-03  0.2431E-03  0.1366E+03
   -0.149992   30.44521  0.7349E-14  0.1190E-04  0.8385E-07  0.4990E-03  0.2157E-03  0.6741E+02
   -0.199990   30.44795  0.7349E-14  0.1280E-04  0.7466E-07  0.6687E-03  0.1930E-03  0.4390E+02
   -0.249989   30.44994  0.7349E-14  0.1352E-04  0.6861E-07  0.7969E-03  0.1761E-03  0.3269E+02
   -0.299988   30.45157  0.7349E-14  0.1411E-04  0.6428E-07  0.9252E-03  0.1620E-03  0.2614E+02
   -0.349988   30.45293  0.7349E-14  0.1459E-04  0.6103E-07  0.1041E-02  0.1499E-03  0.2241E+02
   -0.399987   30.45411  0.7349E-14  0.1500E-04  0.5849E-07  0.1147E-02  0.1391E-03  0.2000E+02
   -0.449987   30.45516  0.7349E-14  0.1535E-04  0.5643E-07  0.1245E-02  0.1297E-03  0.1878E+02
   -0.499988   30.45611  0.7349E-14  0.1565E-04  0.5472E-07  0.1335E-02  0.1213E-03  0.1827E+02
   -0.549988   30.45697  0.7349E-14  0.1591E-04  0.5328E-07  0.1417E-02  0.1138E-03  0.1803E+02
   -0.599989   30.45777  0.7349E-14  0.1613E-04  0.5208E-07  0.1491E-02  0.1069E-03  0.1803E+02
   -0.649990   30.45852  0.7349E-14  0.1632E-04  0.5106E-07  0.1557E-02  0.1007E-03  0.1826E+02
   -0.699991   30.45923  0.7349E-14  0.1648E-04  0.5020E-07  0.1615E-02  0.9499E-04  0.1868E+02
   -0.749993   30.45990  0.7349E-14  0.1661E-04  0.4948E-07  0.1665E-02  0.8969E-04  0.1930E+02
   -0.799994   30.46054  0.7349E-14  0.1672E-04  0.4889E-07  0.1707E-02  0.8475E-04  0.2012E+02
   -0.849995   30.46116  0.7349E-14  0.1680E-04  0.4841E-07  0.1741E-02  0.8013E-04  0.2117E+02
   -0.899997   30.46176  0.7349E-14  0.1686E-04  0.4805E-07  0.1767E-02  0.7579E-04  0.2247E+02
   -0.949999   30.46235  0.7349E-14  0.1689E-04  0.4780E-07  0.1784E-02  0.7169E-04  0.2409E+02
   -1.000000   30.46292  0.7349E-14  0.1690E-04  0.4766E-07  0.1792E-02  0.6781E-04  0.2606E+02
   -1.050002   30.46349  0.7349E-14  0.1688E-04  0.4765E-07  0.1790E-02  0.6412E-04  0.2955E+02
   -1.100004   30.46405  0.7349E-14  0.1685E-04  0.4776E-07  0.1893E-02  0.6060E-04  0.9665E+02
   -1.150005   30.46458  0.7349E-14  0.1678E-04  0.4802E-07  0.1680E-02  0.5748E-04  0.2300E+03
   -1.200007   30.46517  0.7349E-14  0.1669E-04  0.4844E-07  0.1719E-02  0.5416E-04  0.4337E+02
   -1.250008   30.46575  0.7349E-14  0.1658E-04  0.4906E-07  0.1686E-02  0.5102E-04  0.4638E+02
   -1.300010   30.46633  0.7349E-14  0.1643E-04  0.4993E-07  0.1631E-02  0.4799E-04  0.5463E+02
   -1.350011   30.46693  0.7349E-14  0.1624E-04  0.5112E-07  0.1566E-02  0.4505E-04  0.6609E+02
   -1.400012   30.46755  0.7349E-14  0.1601E-04  0.5273E-07  0.1483E-02  0.4217E-04  0.8263E+02
   -1.450013   30.46821  0.7349E-14  0.1573E-04  0.5496E-07  0.1399E-02  0.3933E-04  0.1073E+03
   -1.500013   30.46891  0.7349E-14  0.1540E-04  0.5808E-07  0.1285E-02  0.3653E-04  0.1491E+03
   -1.550013   30.46969  0.7349E-14  0.1498E-04  0.6258E-07  0.1195E-02  0.3371E-04  0.2231E+03
   -1.600013   30.47054  0.7349E-14  0.1447E-04  0.6956E-07  0.1055E-02  0.3091E-04  0.5125E+03
   -1.650013   30.47160  0.7349E-14  0.1379E-04  0.8074E-07  0.9649E-03  0.2790E-04  0.9809E+05
   -1.700013   30.47289  0.7349E-14  0.1284E-04  0.1008E-06  0.7903E-03  0.2476E-04 -0.3810E+04
   -1.750012   30.47510  0.7349E-14  0.1167E-04  0.1327E-06  0.7023E-03  0.2073E-04  0.6695E+06
   -1.800010   30.47689  0.7349E-14  0.1014E-04  0.2026E-06  0.4883E-03  0.1768E-04  0.1037E+08
   -1.850009   30.48511  0.7349E-14  0.8561E-05  0.3322E-06  0.4543E-03  0.1224E-04  0.3141E+10
   -1.900007   30.48228  0.7349E-14  0.6773E-05  0.6955E-06  0.2071E-03  0.1006E-04  0.4563E+07
   -1.950004   30.50578  0.7349E-14  0.4826E-05  0.1677E-05  0.2104E-03  0.5263E-05 -0.3220E+07
   -2.000001   30.50505  0.7349E-14  0.0000E+00  0.0000E+00  0.0000E+00  0.1050E-04  0.0000E+00
