 1 - depth, m
 2 - temperature, C
 3 - salinity, kg/kg
 4 - turbulent kinetic energy, m**2/s**2
 5 - dissipation rate, m**2/s**3
 6 - kinematic heat conductance, m**2/s
 7 - modulus of horizontal velocity, m/s
 8 - Richardson number, n/d
   -0.000000   30.95043  0.3919E-14  0.5117E-05  0.3338E-06  0.5221E-04  0.8594E-03  0.8856E+04
   -0.049997   30.98323  0.3919E-14  0.8885E-05  0.1481E-06  0.1835E-03  0.4912E-03  0.5108E+02
   -0.099994   30.99597  0.3919E-14  0.1079E-04  0.1018E-06  0.4206E-03  0.3584E-03  0.7384E+02
   -0.149992   30.99937  0.3919E-14  0.1198E-04  0.8563E-07  0.4965E-03  0.3176E-03  0.3640E+02
   -0.199991   31.00213  0.3919E-14  0.1290E-04  0.7613E-07  0.6669E-03  0.2840E-03  0.2352E+02
   -0.249989   31.00412  0.3919E-14  0.1364E-04  0.6990E-07  0.7952E-03  0.2589E-03  0.1752E+02
   -0.299988   31.00574  0.3919E-14  0.1423E-04  0.6547E-07  0.9247E-03  0.2381E-03  0.1397E+02
   -0.349988   31.00711  0.3919E-14  0.1473E-04  0.6214E-07  0.1041E-02  0.2202E-03  0.1201E+02
   -0.399988   31.00829  0.3919E-14  0.1514E-04  0.5956E-07  0.1148E-02  0.2044E-03  0.1069E+02
   -0.449988   31.00934  0.3919E-14  0.1550E-04  0.5746E-07  0.1246E-02  0.1904E-03  0.1008E+02
   -0.499988   31.01029  0.3919E-14  0.1581E-04  0.5572E-07  0.1337E-02  0.1781E-03  0.9784E+01
   -0.549989   31.01115  0.3919E-14  0.1607E-04  0.5427E-07  0.1419E-02  0.1670E-03  0.9697E+01
   -0.599989   31.01195  0.3919E-14  0.1630E-04  0.5306E-07  0.1493E-02  0.1570E-03  0.9676E+01
   -0.649990   31.01271  0.3919E-14  0.1650E-04  0.5203E-07  0.1560E-02  0.1478E-03  0.9848E+01
   -0.699991   31.01341  0.3919E-14  0.1666E-04  0.5117E-07  0.1618E-02  0.1394E-03  0.1004E+02
   -0.749993   31.01409  0.3919E-14  0.1679E-04  0.5045E-07  0.1668E-02  0.1316E-03  0.1044E+02
   -0.799994   31.01473  0.3919E-14  0.1690E-04  0.4986E-07  0.1710E-02  0.1244E-03  0.1085E+02
   -0.849996   31.01535  0.3919E-14  0.1699E-04  0.4939E-07  0.1744E-02  0.1176E-03  0.1149E+02
   -0.899997   31.01596  0.3919E-14  0.1704E-04  0.4904E-07  0.1770E-02  0.1112E-03  0.1216E+02
   -0.949999   31.01654  0.3919E-14  0.1708E-04  0.4881E-07  0.1786E-02  0.1052E-03  0.1313E+02
   -1.000001   31.01712  0.3919E-14  0.1709E-04  0.4869E-07  0.1794E-02  0.9953E-04  0.1416E+02
   -1.050003   31.01769  0.3919E-14  0.1708E-04  0.4869E-07  0.1791E-02  0.9409E-04  0.1617E+02
   -1.100004   31.01826  0.3919E-14  0.1704E-04  0.4883E-07  0.1897E-02  0.8893E-04  0.5226E+02
   -1.150006   31.01879  0.3919E-14  0.1698E-04  0.4913E-07  0.1676E-02  0.8435E-04  0.1278E+03
   -1.200007   31.01939  0.3919E-14  0.1689E-04  0.4959E-07  0.1717E-02  0.7948E-04  0.2401E+02
   -1.250009   31.01997  0.3919E-14  0.1676E-04  0.5026E-07  0.1684E-02  0.7488E-04  0.2559E+02
   -1.300010   31.02056  0.3919E-14  0.1661E-04  0.5119E-07  0.1627E-02  0.7042E-04  0.3044E+02
   -1.350011   31.02117  0.3919E-14  0.1642E-04  0.5246E-07  0.1562E-02  0.6610E-04  0.3682E+02
   -1.400012   31.02180  0.3919E-14  0.1619E-04  0.5419E-07  0.1477E-02  0.6187E-04  0.4664E+02
   -1.450013   31.02247  0.3919E-14  0.1590E-04  0.5657E-07  0.1395E-02  0.5771E-04  0.6072E+02
   -1.500014   31.02319  0.3919E-14  0.1555E-04  0.5992E-07  0.1277E-02  0.5359E-04  0.8607E+02
   -1.550014   31.02398  0.3919E-14  0.1512E-04  0.6477E-07  0.1193E-02  0.4944E-04  0.1322E+03
   -1.600014   31.02485  0.3919E-14  0.1458E-04  0.7247E-07  0.1047E-02  0.4534E-04  0.3409E+03
   -1.650014   31.02599  0.3919E-14  0.1387E-04  0.8462E-07  0.9612E-03  0.4081E-04  0.1257E+04
   -1.700013   31.02731  0.3919E-14  0.1289E-04  0.1057E-06  0.7843E-03  0.3623E-04  0.7822E+05
   -1.750012   31.02965  0.3919E-14  0.1169E-04  0.1397E-06  0.7029E-03  0.3026E-04  0.1719E+06
   -1.800011   31.03126  0.3919E-14  0.1014E-04  0.2136E-06  0.4800E-03  0.2594E-04  0.6198E+06
   -1.850009   31.04013  0.3919E-14  0.8560E-05  0.3552E-06  0.4503E-03  0.1789E-04  0.5820E+08
   -1.900007   31.03695  0.3919E-14  0.6789E-05  0.7475E-06  0.2098E-03  0.1472E-04  0.3049E+07
   -1.950005   31.06105  0.3919E-14  0.4866E-05  0.1788E-05  0.2142E-03  0.7757E-05 -0.1023E+07
   -2.000002   31.06117  0.3919E-14  0.0000E+00  0.0000E+00  0.0000E+00  0.1539E-04  0.0000E+00
