 1 - depth, m
 2 - temperature, C
 3 - salinity, kg/kg
 4 - turbulent kinetic energy, m**2/s**2
 5 - dissipation rate, m**2/s**3
 6 - kinematic heat conductance, m**2/s
 7 - modulus of horizontal velocity, m/s
 8 - Richardson number, n/d
   -0.000000   30.05483  0.2027E-14  0.5087E-05  0.2902E-06  0.5070E-04  0.2978E-02  0.1383E+04
   -0.049997   30.08444  0.2027E-14  0.8334E-05  0.1269E-06  0.1937E-03  0.1613E-02  0.2849E+03
   -0.099994   30.09397  0.2027E-14  0.9877E-05  0.8941E-07  0.3837E-03  0.1248E-02  0.6206E+01
   -0.149992   30.09721  0.2027E-14  0.1088E-04  0.7522E-07  0.4770E-03  0.1108E-02  0.3152E+01
   -0.199991   30.09970  0.2027E-14  0.1167E-04  0.6692E-07  0.6188E-03  0.9979E-03  0.2069E+01
   -0.249989   30.10157  0.2027E-14  0.1231E-04  0.6146E-07  0.7320E-03  0.9133E-03  0.1591E+01
   -0.299989   30.10311  0.2027E-14  0.1285E-04  0.5750E-07  0.8427E-03  0.8414E-03  0.1406E+01
   -0.349988   30.10441  0.2027E-14  0.1332E-04  0.5437E-07  0.9584E-03  0.7754E-03  0.1383E+01
   -0.399988   30.10553  0.2027E-14  0.1375E-04  0.5181E-07  0.1078E-02  0.7124E-03  0.1360E+01
   -0.449988   30.10650  0.2027E-14  0.1414E-04  0.4967E-07  0.1195E-02  0.6544E-03  0.1354E+01
   -0.499988   30.10736  0.2027E-14  0.1448E-04  0.4789E-07  0.1304E-02  0.6023E-03  0.1349E+01
   -0.549989   30.10814  0.2027E-14  0.1477E-04  0.4640E-07  0.1404E-02  0.5554E-03  0.1346E+01
   -0.599990   30.10884  0.2027E-14  0.1501E-04  0.4516E-07  0.1494E-02  0.5134E-03  0.1336E+01
   -0.649991   30.10950  0.2027E-14  0.1522E-04  0.4413E-07  0.1574E-02  0.4755E-03  0.1331E+01
   -0.699992   30.11011  0.2027E-14  0.1539E-04  0.4327E-07  0.1642E-02  0.4414E-03  0.1320E+01
   -0.749993   30.11068  0.2027E-14  0.1552E-04  0.4258E-07  0.1698E-02  0.4106E-03  0.1314E+01
   -0.799995   30.11123  0.2027E-14  0.1562E-04  0.4203E-07  0.1743E-02  0.3828E-03  0.1304E+01
   -0.849996   30.11176  0.2027E-14  0.1569E-04  0.4161E-07  0.1776E-02  0.3577E-03  0.1303E+01
   -0.899998   30.11228  0.2027E-14  0.1573E-04  0.4130E-07  0.1797E-02  0.3350E-03  0.1298E+01
   -0.950000   30.11278  0.2027E-14  0.1574E-04  0.4110E-07  0.1809E-02  0.3144E-03  0.1309E+01
   -1.000002   30.11327  0.2027E-14  0.1574E-04  0.4101E-07  0.1811E-02  0.2957E-03  0.1327E+01
   -1.050003   30.11375  0.2027E-14  0.1571E-04  0.4101E-07  0.1802E-02  0.2786E-03  0.1425E+01
   -1.100005   30.11424  0.2027E-14  0.1566E-04  0.4112E-07  0.1921E-02  0.2629E-03  0.4420E+01
   -1.150007   30.11469  0.2027E-14  0.1559E-04  0.4135E-07  0.1669E-02  0.2496E-03  0.1074E+02
   -1.200008   30.11520  0.2027E-14  0.1549E-04  0.4170E-07  0.1722E-02  0.2351E-03  0.2007E+01
   -1.250010   30.11569  0.2027E-14  0.1537E-04  0.4223E-07  0.1688E-02  0.2214E-03  0.2124E+01
   -1.300011   30.11619  0.2027E-14  0.1522E-04  0.4296E-07  0.1632E-02  0.2083E-03  0.2507E+01
   -1.350012   30.11670  0.2027E-14  0.1504E-04  0.4395E-07  0.1566E-02  0.1955E-03  0.3006E+01
   -1.400013   30.11724  0.2027E-14  0.1483E-04  0.4530E-07  0.1482E-02  0.1830E-03  0.3760E+01
   -1.450014   30.11780  0.2027E-14  0.1457E-04  0.4714E-07  0.1397E-02  0.1707E-03  0.4827E+01
   -1.500015   30.11839  0.2027E-14  0.1425E-04  0.4971E-07  0.1282E-02  0.1585E-03  0.6677E+01
   -1.550015   30.11905  0.2027E-14  0.1387E-04  0.5339E-07  0.1191E-02  0.1463E-03  0.9718E+01
   -1.600015   30.11976  0.2027E-14  0.1340E-04  0.5910E-07  0.1050E-02  0.1342E-03  0.2470E+02
   -1.650015   30.12063  0.2027E-14  0.1280E-04  0.6820E-07  0.9613E-03  0.1212E-03 -0.4700E+02
   -1.700015   30.12169  0.2027E-14  0.1196E-04  0.8427E-07  0.7864E-03  0.1079E-03  0.1583E+04
   -1.750014   30.12348  0.2027E-14  0.1088E-04  0.1104E-06  0.6981E-03  0.9071E-04  0.2248E+05
   -1.800012   30.12504  0.2027E-14  0.9441E-05  0.1678E-06  0.4811E-03  0.7724E-04  0.2739E+04
   -1.850011   30.13143  0.2027E-14  0.7924E-05  0.2727E-06  0.4466E-03  0.5400E-04  0.3343E+07
   -1.900009   30.12964  0.2027E-14  0.6215E-05  0.5760E-06  0.2019E-03  0.4389E-04 -0.6857E+05
   -1.950006   30.14860  0.2027E-14  0.4378E-05  0.1404E-05  0.1986E-03  0.2291E-04 -0.1384E+06
   -2.000003   30.14884  0.2027E-14  0.0000E+00  0.0000E+00  0.0000E+00  0.4536E-04  0.0000E+00
