 1 - depth, m
 2 - temperature, C
 3 - salinity, kg/kg
 4 - turbulent kinetic energy, m**2/s**2
 5 - dissipation rate, m**2/s**3
 6 - kinematic heat conductance, m**2/s
 7 - modulus of horizontal velocity, m/s
 8 - Richardson number, n/d
   -0.000000   30.75162  0.2163E-13  0.4826E-05  0.2999E-06  0.4939E-04  0.6704E-03  0.1827E+05
   -0.049997   30.78343  0.2163E-13  0.8465E-05  0.1331E-06  0.1843E-03  0.3770E-03  0.8180E+02
   -0.099994   30.79477  0.2163E-13  0.1024E-04  0.9229E-07  0.4129E-03  0.2772E-03  0.1160E+03
   -0.149992   30.79796  0.2163E-13  0.1134E-04  0.7787E-07  0.4913E-03  0.2455E-03  0.5706E+02
   -0.199991   30.80052  0.2163E-13  0.1221E-04  0.6934E-07  0.6553E-03  0.2196E-03  0.3719E+02
   -0.249989   30.80239  0.2163E-13  0.1289E-04  0.6371E-07  0.7815E-03  0.2002E-03  0.2763E+02
   -0.299988   30.80391  0.2163E-13  0.1345E-04  0.5968E-07  0.9071E-03  0.1840E-03  0.2210E+02
   -0.349988   30.80518  0.2163E-13  0.1391E-04  0.5665E-07  0.1021E-02  0.1701E-03  0.1891E+02
   -0.399988   30.80629  0.2163E-13  0.1430E-04  0.5429E-07  0.1125E-02  0.1578E-03  0.1689E+02
   -0.449988   30.80727  0.2163E-13  0.1463E-04  0.5236E-07  0.1221E-02  0.1469E-03  0.1583E+02
   -0.499988   30.80815  0.2163E-13  0.1492E-04  0.5077E-07  0.1310E-02  0.1373E-03  0.1542E+02
   -0.549989   30.80896  0.2163E-13  0.1517E-04  0.4943E-07  0.1390E-02  0.1287E-03  0.1518E+02
   -0.599989   30.80971  0.2163E-13  0.1539E-04  0.4830E-07  0.1464E-02  0.1209E-03  0.1521E+02
   -0.649990   30.81041  0.2163E-13  0.1557E-04  0.4734E-07  0.1529E-02  0.1138E-03  0.1536E+02
   -0.699992   30.81107  0.2163E-13  0.1572E-04  0.4653E-07  0.1587E-02  0.1072E-03  0.1573E+02
   -0.749993   30.81170  0.2163E-13  0.1585E-04  0.4586E-07  0.1638E-02  0.1012E-03  0.1620E+02
   -0.799994   30.81230  0.2163E-13  0.1596E-04  0.4529E-07  0.1681E-02  0.9555E-04  0.1691E+02
   -0.849996   30.81287  0.2163E-13  0.1604E-04  0.4484E-07  0.1715E-02  0.9029E-04  0.1773E+02
   -0.899998   30.81343  0.2163E-13  0.1610E-04  0.4449E-07  0.1742E-02  0.8533E-04  0.1883E+02
   -0.949999   30.81397  0.2163E-13  0.1613E-04  0.4424E-07  0.1761E-02  0.8067E-04  0.2011E+02
   -1.000001   30.81451  0.2163E-13  0.1615E-04  0.4409E-07  0.1771E-02  0.7625E-04  0.2175E+02
   -1.050003   30.81503  0.2163E-13  0.1614E-04  0.4405E-07  0.1771E-02  0.7206E-04  0.2459E+02
   -1.100004   30.81555  0.2163E-13  0.1611E-04  0.4413E-07  0.1862E-02  0.6806E-04  0.8146E+02
   -1.150006   30.81604  0.2163E-13  0.1606E-04  0.4434E-07  0.1682E-02  0.6449E-04  0.1861E+03
   -1.200008   30.81658  0.2163E-13  0.1599E-04  0.4468E-07  0.1711E-02  0.6077E-04  0.3557E+02
   -1.250009   30.81711  0.2163E-13  0.1588E-04  0.4520E-07  0.1680E-02  0.5721E-04  0.3798E+02
   -1.300011   30.81765  0.2163E-13  0.1575E-04  0.4594E-07  0.1630E-02  0.5380E-04  0.4440E+02
   -1.350012   30.81819  0.2163E-13  0.1559E-04  0.4694E-07  0.1569E-02  0.5047E-04  0.5329E+02
   -1.400013   30.81876  0.2163E-13  0.1539E-04  0.4831E-07  0.1491E-02  0.4724E-04  0.6584E+02
   -1.450014   30.81936  0.2163E-13  0.1515E-04  0.5017E-07  0.1413E-02  0.4405E-04  0.8429E+02
   -1.500014   30.81999  0.2163E-13  0.1485E-04  0.5276E-07  0.1300E-02  0.4093E-04  0.1148E+03
   -1.550014   30.82068  0.2163E-13  0.1449E-04  0.5644E-07  0.1217E-02  0.3778E-04  0.1652E+03
   -1.600015   30.82143  0.2163E-13  0.1404E-04  0.6209E-07  0.1071E-02  0.3470E-04  0.1365E+04
   -1.650014   30.82234  0.2163E-13  0.1346E-04  0.7091E-07  0.9929E-03  0.3138E-04  0.6757E+04
   -1.700014   30.82339  0.2163E-13  0.1267E-04  0.8662E-07  0.8091E-03  0.2811E-04  0.3900E+05
   -1.750013   30.82523  0.2163E-13  0.1162E-04  0.1121E-06  0.7326E-03  0.2376E-04  0.1457E+06
   -1.800012   30.82668  0.2163E-13  0.1023E-04  0.1685E-06  0.5082E-03  0.2043E-04  0.4107E+05
   -1.850010   30.83315  0.2163E-13  0.8687E-05  0.2722E-06  0.4707E-03  0.1448E-04  0.8682E+08
   -1.900008   30.83169  0.2163E-13  0.6910E-05  0.5611E-06  0.2171E-03  0.1182E-04  0.1977E+07
   -1.950005   30.85077  0.2163E-13  0.4841E-05  0.1408E-05  0.1899E-03  0.6376E-05 -0.4142E+07
   -2.000002   30.85324  0.2163E-13  0.0000E+00  0.0000E+00  0.0000E+00  0.1182E-04  0.0000E+00
