 1 - depth, m
 2 - temperature, C
 3 - salinity, kg/kg
 4 - turbulent kinetic energy, m**2/s**2
 5 - dissipation rate, m**2/s**3
 6 - kinematic heat conductance, m**2/s
 7 - modulus of horizontal velocity, m/s
 8 - Richardson number, n/d
   -0.000000   30.09001  0.1116E-12  0.4477E-05  0.2673E-06  0.4889E-04  0.1370E-02  0.9435E+04
   -0.049997   30.11828  0.1116E-12  0.7705E-05  0.1190E-06  0.1699E-03  0.7828E-03  0.4615E+03
   -0.099994   30.12937  0.1116E-12  0.9347E-05  0.8174E-07  0.3907E-03  0.5688E-03  0.2687E+02
   -0.149992   30.13236  0.1116E-12  0.1036E-04  0.6875E-07  0.4672E-03  0.5023E-03  0.1292E+02
   -0.199991   30.13477  0.1116E-12  0.1115E-04  0.6109E-07  0.6229E-03  0.4481E-03  0.8338E+01
   -0.249989   30.13651  0.1116E-12  0.1178E-04  0.5605E-07  0.7445E-03  0.4074E-03  0.6135E+01
   -0.299989   30.13793  0.1116E-12  0.1229E-04  0.5244E-07  0.8648E-03  0.3736E-03  0.4888E+01
   -0.349988   30.13912  0.1116E-12  0.1271E-04  0.4973E-07  0.9742E-03  0.3446E-03  0.4163E+01
   -0.399988   30.14015  0.1116E-12  0.1307E-04  0.4761E-07  0.1074E-02  0.3190E-03  0.3715E+01
   -0.449988   30.14106  0.1116E-12  0.1338E-04  0.4588E-07  0.1167E-02  0.2964E-03  0.3473E+01
   -0.499988   30.14188  0.1116E-12  0.1364E-04  0.4445E-07  0.1253E-02  0.2765E-03  0.3386E+01
   -0.549989   30.14263  0.1116E-12  0.1387E-04  0.4325E-07  0.1331E-02  0.2586E-03  0.3325E+01
   -0.599990   30.14333  0.1116E-12  0.1407E-04  0.4224E-07  0.1403E-02  0.2425E-03  0.3335E+01
   -0.649991   30.14397  0.1116E-12  0.1424E-04  0.4138E-07  0.1467E-02  0.2278E-03  0.3359E+01
   -0.699992   30.14458  0.1116E-12  0.1439E-04  0.4065E-07  0.1524E-02  0.2143E-03  0.3445E+01
   -0.749993   30.14516  0.1116E-12  0.1451E-04  0.4004E-07  0.1574E-02  0.2019E-03  0.3538E+01
   -0.799995   30.14571  0.1116E-12  0.1461E-04  0.3953E-07  0.1617E-02  0.1903E-03  0.3698E+01
   -0.849996   30.14624  0.1116E-12  0.1469E-04  0.3911E-07  0.1652E-02  0.1795E-03  0.3864E+01
   -0.899998   30.14675  0.1116E-12  0.1475E-04  0.3879E-07  0.1680E-02  0.1694E-03  0.4110E+01
   -0.950000   30.14725  0.1116E-12  0.1479E-04  0.3855E-07  0.1700E-02  0.1599E-03  0.4369E+01
   -1.000001   30.14774  0.1116E-12  0.1481E-04  0.3840E-07  0.1712E-02  0.1509E-03  0.4730E+01
   -1.050003   30.14822  0.1116E-12  0.1481E-04  0.3834E-07  0.1716E-02  0.1424E-03  0.5328E+01
   -1.100005   30.14869  0.1116E-12  0.1479E-04  0.3837E-07  0.1790E-02  0.1342E-03  0.1796E+02
   -1.150006   30.14915  0.1116E-12  0.1475E-04  0.3852E-07  0.1654E-02  0.1270E-03  0.3904E+02
   -1.200008   30.14963  0.1116E-12  0.1470E-04  0.3878E-07  0.1670E-02  0.1195E-03  0.7585E+01
   -1.250010   30.15011  0.1116E-12  0.1462E-04  0.3918E-07  0.1642E-02  0.1124E-03  0.8101E+01
   -1.300011   30.15060  0.1116E-12  0.1451E-04  0.3975E-07  0.1598E-02  0.1055E-03  0.9371E+01
   -1.350012   30.15109  0.1116E-12  0.1438E-04  0.4053E-07  0.1543E-02  0.9886E-04  0.1118E+02
   -1.400013   30.15161  0.1116E-12  0.1422E-04  0.4159E-07  0.1474E-02  0.9241E-04  0.1358E+02
   -1.450014   30.15214  0.1116E-12  0.1402E-04  0.4302E-07  0.1400E-02  0.8608E-04  0.1715E+02
   -1.500015   30.15270  0.1116E-12  0.1378E-04  0.4498E-07  0.1298E-02  0.7990E-04  0.2262E+02
   -1.550015   30.15331  0.1116E-12  0.1349E-04  0.4772E-07  0.1212E-02  0.7372E-04  0.3144E+02
   -1.600015   30.15397  0.1116E-12  0.1312E-04  0.5176E-07  0.1074E-02  0.6766E-04  0.5039E+02
   -1.650015   30.15474  0.1116E-12  0.1267E-04  0.5790E-07  0.9934E-03  0.6135E-04  0.2599E+03
   -1.700014   30.15559  0.1116E-12  0.1205E-04  0.6893E-07  0.8180E-03  0.5520E-04  0.1886E+05
   -1.750013   30.15699  0.1116E-12  0.1119E-04  0.8721E-07  0.7359E-03  0.4740E-04  0.5388E+05
   -1.800012   30.15834  0.1116E-12  0.9989E-05  0.1245E-06  0.5200E-03  0.4078E-04  0.5951E+05
   -1.850010   30.16281  0.1116E-12  0.8545E-05  0.1953E-06  0.4697E-03  0.3004E-04  0.2418E+08
   -1.900008   30.16287  0.1116E-12  0.6749E-05  0.4060E-06  0.2049E-03  0.2416E-04  0.4468E+06
   -1.950006   30.17878  0.1116E-12  0.4646E-05  0.1046E-05  0.1692E-03  0.1318E-04 -0.4259E+06
   -2.000003   30.18147  0.1116E-12  0.0000E+00  0.0000E+00  0.0000E+00  0.2262E-04  0.0000E+00
