 1 - depth, m
 2 - temperature, C
 3 - salinity, kg/kg
 4 - turbulent kinetic energy, m**2/s**2
 5 - dissipation rate, m**2/s**3
 6 - kinematic heat conductance, m**2/s
 7 - modulus of horizontal velocity, m/s
 8 - Richardson number, n/d
   -0.000000   30.24714  0.3921E-13  0.4518E-05  0.2688E-06  0.4777E-04  0.1234E-02  0.4073E+04
   -0.049997   30.27617  0.3921E-13  0.7829E-05  0.1198E-06  0.1778E-03  0.6921E-03  0.1410E+04
   -0.099994   30.28670  0.3921E-13  0.9479E-05  0.8314E-07  0.3915E-03  0.5097E-03  0.3042E+02
   -0.149992   30.28970  0.3921E-13  0.1052E-04  0.6996E-07  0.4752E-03  0.4497E-03  0.1491E+02
   -0.199991   30.29208  0.3921E-13  0.1133E-04  0.6222E-07  0.6317E-03  0.4015E-03  0.9609E+01
   -0.249989   30.29382  0.3921E-13  0.1197E-04  0.5714E-07  0.7549E-03  0.3653E-03  0.7091E+01
   -0.299988   30.29523  0.3921E-13  0.1250E-04  0.5351E-07  0.8772E-03  0.3352E-03  0.5653E+01
   -0.349988   30.29642  0.3921E-13  0.1294E-04  0.5080E-07  0.9881E-03  0.3093E-03  0.4830E+01
   -0.399988   30.29745  0.3921E-13  0.1331E-04  0.4868E-07  0.1090E-02  0.2865E-03  0.4311E+01
   -0.449988   30.29836  0.3921E-13  0.1363E-04  0.4696E-07  0.1184E-02  0.2664E-03  0.4041E+01
   -0.499988   30.29918  0.3921E-13  0.1391E-04  0.4554E-07  0.1271E-02  0.2486E-03  0.3938E+01
   -0.549989   30.29994  0.3921E-13  0.1415E-04  0.4436E-07  0.1351E-02  0.2327E-03  0.3877E+01
   -0.599990   30.30064  0.3921E-13  0.1436E-04  0.4336E-07  0.1423E-02  0.2183E-03  0.3886E+01
   -0.649991   30.30129  0.3921E-13  0.1454E-04  0.4252E-07  0.1488E-02  0.2052E-03  0.3924E+01
   -0.699992   30.30190  0.3921E-13  0.1470E-04  0.4181E-07  0.1546E-02  0.1931E-03  0.4021E+01
   -0.749993   30.30249  0.3921E-13  0.1483E-04  0.4122E-07  0.1597E-02  0.1820E-03  0.4141E+01
   -0.799995   30.30305  0.3921E-13  0.1494E-04  0.4073E-07  0.1640E-02  0.1717E-03  0.4323E+01
   -0.849996   30.30359  0.3921E-13  0.1502E-04  0.4034E-07  0.1676E-02  0.1620E-03  0.4530E+01
   -0.899998   30.30411  0.3921E-13  0.1509E-04  0.4004E-07  0.1704E-02  0.1530E-03  0.4811E+01
   -0.950000   30.30461  0.3921E-13  0.1514E-04  0.3982E-07  0.1724E-02  0.1445E-03  0.5130E+01
   -1.000001   30.30511  0.3921E-13  0.1517E-04  0.3970E-07  0.1737E-02  0.1364E-03  0.5543E+01
   -1.050003   30.30560  0.3921E-13  0.1517E-04  0.3967E-07  0.1740E-02  0.1288E-03  0.6261E+01
   -1.100005   30.30609  0.3921E-13  0.1516E-04  0.3974E-07  0.1815E-02  0.1215E-03  0.2108E+02
   -1.150006   30.30655  0.3921E-13  0.1513E-04  0.3993E-07  0.1676E-02  0.1150E-03  0.4563E+02
   -1.200008   30.30705  0.3921E-13  0.1508E-04  0.4023E-07  0.1692E-02  0.1083E-03  0.8912E+01
   -1.250009   30.30754  0.3921E-13  0.1500E-04  0.4068E-07  0.1664E-02  0.1019E-03  0.9508E+01
   -1.300011   30.30804  0.3921E-13  0.1489E-04  0.4131E-07  0.1619E-02  0.9570E-04  0.1103E+02
   -1.350012   30.30855  0.3921E-13  0.1476E-04  0.4216E-07  0.1564E-02  0.8972E-04  0.1312E+02
   -1.400013   30.30907  0.3921E-13  0.1460E-04  0.4330E-07  0.1493E-02  0.8391E-04  0.1597E+02
   -1.450014   30.30962  0.3921E-13  0.1440E-04  0.4483E-07  0.1418E-02  0.7822E-04  0.2012E+02
   -1.500014   30.31020  0.3921E-13  0.1416E-04  0.4692E-07  0.1314E-02  0.7264E-04  0.2659E+02
   -1.550015   30.31083  0.3921E-13  0.1386E-04  0.4985E-07  0.1228E-02  0.6707E-04  0.3690E+02
   -1.600015   30.31151  0.3921E-13  0.1349E-04  0.5417E-07  0.1089E-02  0.6160E-04  0.6054E+02
   -1.650015   30.31230  0.3921E-13  0.1301E-04  0.6076E-07  0.1008E-02  0.5587E-04  0.1170E+03
   -1.700014   30.31320  0.3921E-13  0.1237E-04  0.7251E-07  0.8282E-03  0.5029E-04  0.1344E+04
   -1.750013   30.31466  0.3921E-13  0.1150E-04  0.9189E-07  0.7469E-03  0.4313E-04  0.6607E+05
   -1.800012   30.31604  0.3921E-13  0.1028E-04  0.1322E-06  0.5278E-03  0.3721E-04  0.2955E+06
   -1.850010   30.32073  0.3921E-13  0.8838E-05  0.2075E-06  0.4804E-03  0.2746E-04  0.2341E+07
   -1.900008   30.32066  0.3921E-13  0.7023E-05  0.4240E-06  0.2149E-03  0.2224E-04  0.8986E+06
   -1.950006   30.33689  0.3921E-13  0.4833E-05  0.1090E-05  0.1713E-03  0.1224E-04 -0.1001E+07
   -2.000003   30.33959  0.3921E-13  0.0000E+00  0.0000E+00  0.0000E+00  0.2083E-04  0.0000E+00
