 1 - depth, m
 2 - temperature, C
 3 - salinity, kg/kg
 4 - turbulent kinetic energy, m**2/s**2
 5 - dissipation rate, m**2/s**3
 6 - kinematic heat conductance, m**2/s
 7 - modulus of horizontal velocity, m/s
 8 - Richardson number, n/d
   -0.000000   30.58571  0.1687E-14  0.4830E-05  0.2985E-06  0.5083E-04  0.1869E-02  0.3658E+04
   -0.049997   30.61485  0.1687E-14  0.8203E-05  0.1327E-06  0.1765E-03  0.1064E-02  0.1634E+03
   -0.099994   30.62618  0.1687E-14  0.9949E-05  0.9110E-07  0.3971E-03  0.7798E-03  0.1414E+02
   -0.149992   30.62932  0.1687E-14  0.1105E-04  0.7635E-07  0.4785E-03  0.6883E-03  0.6935E+01
   -0.199991   30.63183  0.1687E-14  0.1190E-04  0.6775E-07  0.6399E-03  0.6144E-03  0.4445E+01
   -0.249989   30.63366  0.1687E-14  0.1259E-04  0.6214E-07  0.7656E-03  0.5591E-03  0.3285E+01
   -0.299988   30.63514  0.1687E-14  0.1315E-04  0.5815E-07  0.8910E-03  0.5132E-03  0.2612E+01
   -0.349988   30.63639  0.1687E-14  0.1361E-04  0.5517E-07  0.1005E-02  0.4738E-03  0.2238E+01
   -0.399988   30.63747  0.1687E-14  0.1401E-04  0.5287E-07  0.1109E-02  0.4391E-03  0.1993E+01
   -0.449988   30.63843  0.1687E-14  0.1435E-04  0.5100E-07  0.1205E-02  0.4085E-03  0.1877E+01
   -0.499988   30.63929  0.1687E-14  0.1464E-04  0.4946E-07  0.1295E-02  0.3815E-03  0.1825E+01
   -0.549989   30.64009  0.1687E-14  0.1490E-04  0.4818E-07  0.1377E-02  0.3572E-03  0.1807E+01
   -0.599989   30.64082  0.1687E-14  0.1513E-04  0.4711E-07  0.1451E-02  0.3353E-03  0.1804E+01
   -0.649990   30.64151  0.1687E-14  0.1532E-04  0.4621E-07  0.1518E-02  0.3153E-03  0.1832E+01
   -0.699992   30.64215  0.1687E-14  0.1549E-04  0.4546E-07  0.1577E-02  0.2970E-03  0.1868E+01
   -0.749993   30.64277  0.1687E-14  0.1563E-04  0.4483E-07  0.1628E-02  0.2800E-03  0.1936E+01
   -0.799994   30.64336  0.1687E-14  0.1574E-04  0.4433E-07  0.1672E-02  0.2643E-03  0.2012E+01
   -0.849996   30.64393  0.1687E-14  0.1584E-04  0.4393E-07  0.1708E-02  0.2496E-03  0.2126E+01
   -0.899998   30.64448  0.1687E-14  0.1591E-04  0.4363E-07  0.1735E-02  0.2358E-03  0.2249E+01
   -0.949999   30.64502  0.1687E-14  0.1596E-04  0.4344E-07  0.1755E-02  0.2229E-03  0.2420E+01
   -1.000001   30.64554  0.1687E-14  0.1599E-04  0.4334E-07  0.1767E-02  0.2106E-03  0.2605E+01
   -1.050003   30.64607  0.1687E-14  0.1600E-04  0.4335E-07  0.1769E-02  0.1989E-03  0.2970E+01
   -1.100005   30.64658  0.1687E-14  0.1599E-04  0.4347E-07  0.1852E-02  0.1878E-03  0.9842E+01
   -1.150006   30.64708  0.1687E-14  0.1595E-04  0.4372E-07  0.1691E-02  0.1779E-03  0.2213E+02
   -1.200008   30.64761  0.1687E-14  0.1590E-04  0.4411E-07  0.1714E-02  0.1676E-03  0.4299E+01
   -1.250009   30.64814  0.1687E-14  0.1581E-04  0.4466E-07  0.1684E-02  0.1578E-03  0.4573E+01
   -1.300011   30.64868  0.1687E-14  0.1570E-04  0.4542E-07  0.1635E-02  0.1483E-03  0.5380E+01
   -1.350012   30.64923  0.1687E-14  0.1556E-04  0.4644E-07  0.1577E-02  0.1392E-03  0.6412E+01
   -1.400013   30.64980  0.1687E-14  0.1538E-04  0.4780E-07  0.1501E-02  0.1302E-03  0.7949E+01
   -1.450014   30.65040  0.1687E-14  0.1516E-04  0.4963E-07  0.1423E-02  0.1215E-03  0.1009E+02
   -1.500014   30.65104  0.1687E-14  0.1489E-04  0.5214E-07  0.1314E-02  0.1128E-03  0.1370E+02
   -1.550014   30.65173  0.1687E-14  0.1456E-04  0.5567E-07  0.1226E-02  0.1042E-03  0.1948E+02
   -1.600015   30.65249  0.1687E-14  0.1414E-04  0.6097E-07  0.1086E-02  0.9572E-04  0.3585E+02
   -1.650014   30.65339  0.1687E-14  0.1361E-04  0.6912E-07  0.9985E-03  0.8674E-04  0.1535E+04
   -1.700014   30.65442  0.1687E-14  0.1288E-04  0.8347E-07  0.8262E-03  0.7789E-04  0.1384E+05
   -1.750013   30.65615  0.1687E-14  0.1190E-04  0.1072E-06  0.7369E-03  0.6662E-04  0.3487E+05
   -1.800012   30.65776  0.1687E-14  0.1054E-04  0.1568E-06  0.5261E-03  0.5716E-04  0.1192E+05
   -1.850010   30.66341  0.1687E-14  0.8999E-05  0.2498E-06  0.4695E-03  0.4180E-04  0.2894E+08
   -1.900008   30.66306  0.1687E-14  0.7106E-05  0.5262E-06  0.2144E-03  0.3357E-04  0.3366E+04
   -1.950005   30.68211  0.1687E-14  0.4974E-05  0.1317E-05  0.1842E-03  0.1831E-04 -0.8212E+06
   -2.000002   30.68443  0.1687E-14  0.0000E+00  0.0000E+00  0.0000E+00  0.3243E-04  0.0000E+00
