 1 - depth, m
 2 - temperature, C
 3 - salinity, kg/kg
 4 - turbulent kinetic energy, m**2/s**2
 5 - dissipation rate, m**2/s**3
 6 - kinematic heat conductance, m**2/s
 7 - modulus of horizontal velocity, m/s
 8 - Richardson number, n/d
   -0.000000   30.52966  0.3599E-14  0.4985E-05  0.3181E-06  0.5060E-04  0.9435E-03  0.3121E+04
   -0.049997   30.56230  0.3599E-14  0.8651E-05  0.1412E-06  0.1842E-03  0.5345E-03  0.1702E+05
   -0.099994   30.57450  0.3599E-14  0.1049E-04  0.9748E-07  0.4119E-03  0.3925E-03  0.5671E+02
   -0.149992   30.57785  0.3599E-14  0.1164E-04  0.8207E-07  0.4921E-03  0.3475E-03  0.2789E+02
   -0.199990   30.58055  0.3599E-14  0.1254E-04  0.7303E-07  0.6573E-03  0.3109E-03  0.1804E+02
   -0.249989   30.58250  0.3599E-14  0.1325E-04  0.6711E-07  0.7835E-03  0.2834E-03  0.1344E+02
   -0.299988   30.58410  0.3599E-14  0.1383E-04  0.6291E-07  0.9100E-03  0.2606E-03  0.1074E+02
   -0.349988   30.58545  0.3599E-14  0.1431E-04  0.5976E-07  0.1024E-02  0.2409E-03  0.9254E+01
   -0.399987   30.58662  0.3599E-14  0.1472E-04  0.5732E-07  0.1127E-02  0.2236E-03  0.8269E+01
   -0.449987   30.58766  0.3599E-14  0.1506E-04  0.5535E-07  0.1223E-02  0.2083E-03  0.7820E+01
   -0.499988   30.58860  0.3599E-14  0.1536E-04  0.5373E-07  0.1310E-02  0.1948E-03  0.7624E+01
   -0.549988   30.58946  0.3599E-14  0.1562E-04  0.5238E-07  0.1390E-02  0.1826E-03  0.7586E+01
   -0.599989   30.59026  0.3599E-14  0.1584E-04  0.5125E-07  0.1461E-02  0.1716E-03  0.7612E+01
   -0.649990   30.59101  0.3599E-14  0.1603E-04  0.5032E-07  0.1524E-02  0.1615E-03  0.7786E+01
   -0.699991   30.59172  0.3599E-14  0.1619E-04  0.4954E-07  0.1579E-02  0.1523E-03  0.7995E+01
   -0.749992   30.59240  0.3599E-14  0.1632E-04  0.4890E-07  0.1626E-02  0.1437E-03  0.8359E+01
   -0.799994   30.59305  0.3599E-14  0.1642E-04  0.4840E-07  0.1664E-02  0.1358E-03  0.8760E+01
   -0.849995   30.59368  0.3599E-14  0.1650E-04  0.4801E-07  0.1694E-02  0.1283E-03  0.9347E+01
   -0.899997   30.59429  0.3599E-14  0.1655E-04  0.4775E-07  0.1715E-02  0.1213E-03  0.9991E+01
   -0.949999   30.59489  0.3599E-14  0.1658E-04  0.4760E-07  0.1727E-02  0.1147E-03  0.1089E+02
   -1.000000   30.59548  0.3599E-14  0.1659E-04  0.4757E-07  0.1731E-02  0.1084E-03  0.1189E+02
   -1.050002   30.59606  0.3599E-14  0.1657E-04  0.4767E-07  0.1722E-02  0.1024E-03  0.1375E+02
   -1.100004   30.59665  0.3599E-14  0.1652E-04  0.4791E-07  0.1841E-02  0.9674E-04  0.4303E+02
   -1.150005   30.59720  0.3599E-14  0.1645E-04  0.4835E-07  0.1580E-02  0.9175E-04  0.1218E+03
   -1.200007   30.59783  0.3599E-14  0.1635E-04  0.4894E-07  0.1629E-02  0.8631E-04  0.2179E+02
   -1.250008   30.59845  0.3599E-14  0.1621E-04  0.4979E-07  0.1593E-02  0.8121E-04  0.2360E+02
   -1.300010   30.59908  0.3599E-14  0.1604E-04  0.5093E-07  0.1529E-02  0.7628E-04  0.2899E+02
   -1.350011   30.59973  0.3599E-14  0.1583E-04  0.5248E-07  0.1463E-02  0.7148E-04  0.3632E+02
   -1.400012   30.60042  0.3599E-14  0.1557E-04  0.5459E-07  0.1361E-02  0.6679E-04  0.4867E+02
   -1.450012   30.60117  0.3599E-14  0.1525E-04  0.5752E-07  0.1294E-02  0.6212E-04  0.6649E+02
   -1.500013   30.60197  0.3599E-14  0.1485E-04  0.6174E-07  0.1148E-02  0.5755E-04  0.1049E+03
   -1.550013   30.60292  0.3599E-14  0.1436E-04  0.6784E-07  0.1104E-02  0.5280E-04  0.1695E+03
   -1.600013   30.60392  0.3599E-14  0.1374E-04  0.7811E-07  0.9294E-03  0.4832E-04  0.4837E+03
   -1.650013   30.60538  0.3599E-14  0.1288E-04  0.9349E-07  0.8823E-03  0.4294E-04  0.2535E+02
   -1.700012   30.60693  0.3599E-14  0.1167E-04  0.1223E-06  0.6631E-03  0.3794E-04 -0.4886E+03
   -1.750012   30.61101  0.3599E-14  0.1025E-04  0.1689E-06  0.6365E-03  0.2979E-04  0.1044E+07
   -1.800010   30.61196  0.3599E-14  0.8787E-05  0.2676E-06  0.4045E-03  0.2591E-04  0.1963E+06
   -1.850008   30.62730  0.3599E-14  0.7344E-05  0.4692E-06  0.4208E-03  0.1644E-04  0.1070E+10
   -1.900006   30.61739  0.3599E-14  0.6011E-05  0.9925E-06  0.2003E-03  0.1417E-04 -0.1777E+07
   -1.950004   30.64823  0.3599E-14  0.4365E-05  0.2278E-05  0.2413E-03  0.7254E-05 -0.4477E+06
   -2.000001   30.64804  0.3599E-14  0.0000E+00  0.0000E+00  0.0000E+00  0.1607E-04  0.0000E+00
