 1 - depth, m
 2 - temperature, C
 3 - salinity, kg/kg
 4 - turbulent kinetic energy, m**2/s**2
 5 - dissipation rate, m**2/s**3
 6 - kinematic heat conductance, m**2/s
 7 - modulus of horizontal velocity, m/s
 8 - Richardson number, n/d
   -0.000000   30.29818  0.1746E-14  0.5080E-05  0.3193E-06  0.5201E-04  0.2114E-02  0.2773E+04
   -0.049997   30.32925  0.1746E-14  0.8552E-05  0.1419E-06  0.1807E-03  0.1199E-02  0.1581E+04
   -0.099994   30.34107  0.1746E-14  0.1034E-04  0.9750E-07  0.3988E-03  0.8866E-03  0.1091E+02
   -0.149992   30.34446  0.1746E-14  0.1147E-04  0.8157E-07  0.4827E-03  0.7828E-03  0.5388E+01
   -0.199991   30.34715  0.1746E-14  0.1235E-04  0.7228E-07  0.6447E-03  0.6993E-03  0.3447E+01
   -0.249989   30.34911  0.1746E-14  0.1305E-04  0.6621E-07  0.7713E-03  0.6367E-03  0.2541E+01
   -0.299988   30.35069  0.1746E-14  0.1362E-04  0.6189E-07  0.8976E-03  0.5847E-03  0.2018E+01
   -0.349988   30.35203  0.1746E-14  0.1410E-04  0.5866E-07  0.1012E-02  0.5402E-03  0.1725E+01
   -0.399988   30.35318  0.1746E-14  0.1450E-04  0.5614E-07  0.1116E-02  0.5008E-03  0.1541E+01
   -0.449988   30.35421  0.1746E-14  0.1484E-04  0.5410E-07  0.1213E-02  0.4661E-03  0.1456E+01
   -0.499988   30.35513  0.1746E-14  0.1514E-04  0.5240E-07  0.1304E-02  0.4353E-03  0.1422E+01
   -0.549989   30.35597  0.1746E-14  0.1540E-04  0.5098E-07  0.1387E-02  0.4075E-03  0.1407E+01
   -0.599989   30.35675  0.1746E-14  0.1562E-04  0.4978E-07  0.1463E-02  0.3825E-03  0.1406E+01
   -0.649990   30.35748  0.1746E-14  0.1581E-04  0.4877E-07  0.1530E-02  0.3596E-03  0.1419E+01
   -0.699992   30.35816  0.1746E-14  0.1597E-04  0.4791E-07  0.1590E-02  0.3386E-03  0.1443E+01
   -0.749993   30.35881  0.1746E-14  0.1610E-04  0.4720E-07  0.1641E-02  0.3193E-03  0.1483E+01
   -0.799994   30.35943  0.1746E-14  0.1621E-04  0.4661E-07  0.1684E-02  0.3014E-03  0.1537E+01
   -0.849996   30.36003  0.1746E-14  0.1629E-04  0.4614E-07  0.1719E-02  0.2847E-03  0.1612E+01
   -0.899998   30.36061  0.1746E-14  0.1635E-04  0.4577E-07  0.1746E-02  0.2691E-03  0.1707E+01
   -0.949999   30.36118  0.1746E-14  0.1639E-04  0.4551E-07  0.1765E-02  0.2544E-03  0.1827E+01
   -1.000001   30.36173  0.1746E-14  0.1640E-04  0.4535E-07  0.1775E-02  0.2405E-03  0.1973E+01
   -1.050003   30.36228  0.1746E-14  0.1639E-04  0.4531E-07  0.1775E-02  0.2272E-03  0.2235E+01
   -1.100004   30.36282  0.1746E-14  0.1636E-04  0.4538E-07  0.1867E-02  0.2146E-03  0.7359E+01
   -1.150006   30.36333  0.1746E-14  0.1631E-04  0.4560E-07  0.1684E-02  0.2034E-03  0.1708E+02
   -1.200008   30.36389  0.1746E-14  0.1623E-04  0.4595E-07  0.1714E-02  0.1917E-03  0.3248E+01
   -1.250009   30.36444  0.1746E-14  0.1612E-04  0.4649E-07  0.1683E-02  0.1805E-03  0.3458E+01
   -1.300010   30.36500  0.1746E-14  0.1599E-04  0.4725E-07  0.1632E-02  0.1697E-03  0.4061E+01
   -1.350012   30.36557  0.1746E-14  0.1582E-04  0.4829E-07  0.1572E-02  0.1592E-03  0.4876E+01
   -1.400013   30.36616  0.1746E-14  0.1561E-04  0.4972E-07  0.1491E-02  0.1490E-03  0.6070E+01
   -1.450014   30.36678  0.1746E-14  0.1536E-04  0.5166E-07  0.1414E-02  0.1390E-03  0.7787E+01
   -1.500014   30.36744  0.1746E-14  0.1505E-04  0.5439E-07  0.1299E-02  0.1291E-03  0.1076E+02
   -1.550014   30.36816  0.1746E-14  0.1468E-04  0.5827E-07  0.1219E-02  0.1192E-03  0.1563E+02
   -1.600015   30.36894  0.1746E-14  0.1421E-04  0.6436E-07  0.1071E-02  0.1094E-03  0.3479E+02
   -1.650014   30.36993  0.1746E-14  0.1360E-04  0.7383E-07  0.9919E-03  0.9880E-04  0.2753E+04
   -1.700014   30.37103  0.1746E-14  0.1276E-04  0.9062E-07  0.8064E-03  0.8842E-04  0.7670E+03
   -1.750013   30.37307  0.1746E-14  0.1168E-04  0.1180E-06  0.7311E-03  0.7443E-04  0.6319E+05
   -1.800012   30.37453  0.1746E-14  0.1029E-04  0.1773E-06  0.5039E-03  0.6421E-04  0.6546E+05
   -1.850010   30.38168  0.1746E-14  0.8755E-05  0.2889E-06  0.4744E-03  0.4557E-04  0.3812E+08
   -1.900008   30.37963  0.1746E-14  0.6969E-05  0.6048E-06  0.2134E-03  0.3746E-04 -0.2864E+06
   -1.950005   30.40011  0.1746E-14  0.4886E-05  0.1487E-05  0.1963E-03  0.2021E-04 -0.2382E+06
   -2.000002   30.40183  0.1746E-14  0.0000E+00  0.0000E+00  0.0000E+00  0.3747E-04  0.0000E+00
