 1 - depth, m
 2 - temperature, C
 3 - salinity, kg/kg
 4 - turbulent kinetic energy, m**2/s**2
 5 - dissipation rate, m**2/s**3
 6 - kinematic heat conductance, m**2/s
 7 - modulus of horizontal velocity, m/s
 8 - Richardson number, n/d
   -0.000000   30.91019  0.1366E-13  0.5104E-05  0.3267E-06  0.5103E-04  0.1349E-02  0.1520E+05
   -0.049997   30.94314  0.1366E-13  0.8753E-05  0.1456E-06  0.1847E-03  0.7660E-03  0.8731E+04
   -0.099994   30.95539  0.1366E-13  0.1061E-04  0.1005E-06  0.4062E-03  0.5655E-03  0.2748E+02
   -0.149992   30.95885  0.1366E-13  0.1177E-04  0.8429E-07  0.4905E-03  0.4998E-03  0.1356E+02
   -0.199991   30.96159  0.1366E-13  0.1268E-04  0.7478E-07  0.6558E-03  0.4467E-03  0.8671E+01
   -0.249989   30.96357  0.1366E-13  0.1340E-04  0.6856E-07  0.7832E-03  0.4071E-03  0.6403E+01
   -0.299988   30.96519  0.1366E-13  0.1398E-04  0.6412E-07  0.9114E-03  0.3741E-03  0.5086E+01
   -0.349988   30.96654  0.1366E-13  0.1446E-04  0.6079E-07  0.1027E-02  0.3458E-03  0.4346E+01
   -0.399988   30.96771  0.1366E-13  0.1487E-04  0.5820E-07  0.1133E-02  0.3208E-03  0.3867E+01
   -0.449988   30.96875  0.1366E-13  0.1522E-04  0.5609E-07  0.1230E-02  0.2987E-03  0.3628E+01
   -0.499988   30.96968  0.1366E-13  0.1551E-04  0.5434E-07  0.1320E-02  0.2793E-03  0.3523E+01
   -0.549989   30.97054  0.1366E-13  0.1577E-04  0.5287E-07  0.1403E-02  0.2618E-03  0.3474E+01
   -0.599989   30.97133  0.1366E-13  0.1599E-04  0.5164E-07  0.1477E-02  0.2460E-03  0.3468E+01
   -0.649990   30.97207  0.1366E-13  0.1618E-04  0.5059E-07  0.1543E-02  0.2316E-03  0.3511E+01
   -0.699992   30.97276  0.1366E-13  0.1634E-04  0.4970E-07  0.1602E-02  0.2183E-03  0.3580E+01
   -0.749993   30.97342  0.1366E-13  0.1646E-04  0.4895E-07  0.1653E-02  0.2060E-03  0.3700E+01
   -0.799994   30.97405  0.1366E-13  0.1657E-04  0.4833E-07  0.1696E-02  0.1946E-03  0.3844E+01
   -0.849996   30.97466  0.1366E-13  0.1665E-04  0.4783E-07  0.1731E-02  0.1840E-03  0.4044E+01
   -0.899998   30.97524  0.1366E-13  0.1670E-04  0.4744E-07  0.1757E-02  0.1739E-03  0.4276E+01
   -0.949999   30.97582  0.1366E-13  0.1673E-04  0.4716E-07  0.1775E-02  0.1645E-03  0.4581E+01
   -1.000001   30.97638  0.1366E-13  0.1674E-04  0.4699E-07  0.1785E-02  0.1555E-03  0.4935E+01
   -1.050003   30.97693  0.1366E-13  0.1673E-04  0.4693E-07  0.1784E-02  0.1470E-03  0.5592E+01
   -1.100004   30.97748  0.1366E-13  0.1669E-04  0.4700E-07  0.1882E-02  0.1389E-03  0.1829E+02
   -1.150006   30.97799  0.1366E-13  0.1663E-04  0.4722E-07  0.1683E-02  0.1317E-03  0.4296E+02
   -1.200008   30.97856  0.1366E-13  0.1654E-04  0.4758E-07  0.1718E-02  0.1241E-03  0.8137E+01
   -1.250009   30.97912  0.1366E-13  0.1642E-04  0.4814E-07  0.1686E-02  0.1169E-03  0.8648E+01
   -1.300010   30.97968  0.1366E-13  0.1628E-04  0.4894E-07  0.1633E-02  0.1099E-03  0.1017E+02
   -1.350011   30.98026  0.1366E-13  0.1609E-04  0.5003E-07  0.1570E-02  0.1032E-03  0.1221E+02
   -1.400013   30.98086  0.1366E-13  0.1587E-04  0.5153E-07  0.1488E-02  0.9657E-04  0.1521E+02
   -1.450013   30.98149  0.1366E-13  0.1560E-04  0.5360E-07  0.1408E-02  0.9008E-04  0.1955E+02
   -1.500014   30.98216  0.1366E-13  0.1528E-04  0.5650E-07  0.1292E-02  0.8368E-04  0.2702E+02
   -1.550014   30.98290  0.1366E-13  0.1488E-04  0.6065E-07  0.1207E-02  0.7723E-04  0.3947E+02
   -1.600014   30.98370  0.1366E-13  0.1438E-04  0.6712E-07  0.1060E-02  0.7089E-04  0.9393E+02
   -1.650014   30.98470  0.1366E-13  0.1374E-04  0.7730E-07  0.9812E-03  0.6401E-04 -0.6370E+04
   -1.700013   30.98585  0.1366E-13  0.1285E-04  0.9533E-07  0.7974E-03  0.5716E-04  0.5077E+04
   -1.750013   30.98789  0.1366E-13  0.1171E-04  0.1250E-06  0.7193E-03  0.4808E-04  0.3599E+05
   -1.800011   30.98955  0.1366E-13  0.1020E-04  0.1903E-06  0.4926E-03  0.4111E-04 -0.5604E+05
   -1.850010   30.99687  0.1366E-13  0.8603E-05  0.3092E-06  0.4635E-03  0.2877E-04  0.7013E+08
   -1.900007   30.99474  0.1366E-13  0.6828E-05  0.6466E-06  0.2109E-03  0.2359E-04 -0.1482E+06
   -1.950005   31.01613  0.1366E-13  0.4835E-05  0.1586E-05  0.2031E-03  0.1250E-04 -0.3772E+06
   -2.000002   31.01680  0.1366E-13  0.0000E+00  0.0000E+00  0.0000E+00  0.2410E-04  0.0000E+00
