 1 - depth, m
 2 - temperature, C
 3 - salinity, kg/kg
 4 - turbulent kinetic energy, m**2/s**2
 5 - dissipation rate, m**2/s**3
 6 - kinematic heat conductance, m**2/s
 7 - modulus of horizontal velocity, m/s
 8 - Richardson number, n/d
   -0.000000   30.96454  0.6303E-14  0.5280E-05  0.3393E-06  0.5310E-04  0.2059E-02  0.5260E+04
   -0.049997   30.99661  0.6303E-14  0.8887E-05  0.1508E-06  0.1843E-03  0.1166E-02  0.1528E+04
   -0.099994   31.00876  0.6303E-14  0.1075E-04  0.1038E-06  0.4045E-03  0.8661E-03  0.1244E+02
   -0.149992   31.01227  0.6303E-14  0.1192E-04  0.8675E-07  0.4894E-03  0.7651E-03  0.6171E+01
   -0.199991   31.01504  0.6303E-14  0.1284E-04  0.7684E-07  0.6545E-03  0.6840E-03  0.3938E+01
   -0.249989   31.01706  0.6303E-14  0.1357E-04  0.7038E-07  0.7829E-03  0.6232E-03  0.2909E+01
   -0.299988   31.01869  0.6303E-14  0.1416E-04  0.6579E-07  0.9111E-03  0.5727E-03  0.2307E+01
   -0.349988   31.02007  0.6303E-14  0.1465E-04  0.6235E-07  0.1027E-02  0.5295E-03  0.1976E+01
   -0.399988   31.02125  0.6303E-14  0.1507E-04  0.5968E-07  0.1132E-02  0.4912E-03  0.1764E+01
   -0.449988   31.02231  0.6303E-14  0.1542E-04  0.5750E-07  0.1231E-02  0.4574E-03  0.1671E+01
   -0.499988   31.02326  0.6303E-14  0.1573E-04  0.5570E-07  0.1323E-02  0.4273E-03  0.1629E+01
   -0.549988   31.02413  0.6303E-14  0.1600E-04  0.5419E-07  0.1408E-02  0.4002E-03  0.1615E+01
   -0.599989   31.02493  0.6303E-14  0.1623E-04  0.5292E-07  0.1485E-02  0.3757E-03  0.1608E+01
   -0.649990   31.02567  0.6303E-14  0.1643E-04  0.5185E-07  0.1554E-02  0.3533E-03  0.1628E+01
   -0.699991   31.02638  0.6303E-14  0.1659E-04  0.5095E-07  0.1614E-02  0.3329E-03  0.1649E+01
   -0.749993   31.02705  0.6303E-14  0.1673E-04  0.5020E-07  0.1665E-02  0.3140E-03  0.1700E+01
   -0.799994   31.02769  0.6303E-14  0.1684E-04  0.4958E-07  0.1708E-02  0.2965E-03  0.1755E+01
   -0.849996   31.02830  0.6303E-14  0.1692E-04  0.4909E-07  0.1742E-02  0.2802E-03  0.1846E+01
   -0.899997   31.02890  0.6303E-14  0.1698E-04  0.4871E-07  0.1768E-02  0.2650E-03  0.1945E+01
   -0.949999   31.02948  0.6303E-14  0.1701E-04  0.4845E-07  0.1785E-02  0.2506E-03  0.2090E+01
   -1.000001   31.03005  0.6303E-14  0.1702E-04  0.4831E-07  0.1795E-02  0.2370E-03  0.2247E+01
   -1.050003   31.03062  0.6303E-14  0.1701E-04  0.4828E-07  0.1792E-02  0.2241E-03  0.2557E+01
   -1.100004   31.03118  0.6303E-14  0.1697E-04  0.4839E-07  0.1894E-02  0.2118E-03  0.8316E+01
   -1.150006   31.03170  0.6303E-14  0.1691E-04  0.4865E-07  0.1685E-02  0.2009E-03  0.1977E+02
   -1.200007   31.03229  0.6303E-14  0.1682E-04  0.4907E-07  0.1722E-02  0.1893E-03  0.3740E+01
   -1.250009   31.03286  0.6303E-14  0.1670E-04  0.4969E-07  0.1690E-02  0.1783E-03  0.3964E+01
   -1.300010   31.03344  0.6303E-14  0.1655E-04  0.5057E-07  0.1635E-02  0.1677E-03  0.4688E+01
   -1.350011   31.03403  0.6303E-14  0.1637E-04  0.5177E-07  0.1572E-02  0.1574E-03  0.5622E+01
   -1.400012   31.03465  0.6303E-14  0.1614E-04  0.5340E-07  0.1487E-02  0.1474E-03  0.7059E+01
   -1.450013   31.03531  0.6303E-14  0.1586E-04  0.5565E-07  0.1407E-02  0.1375E-03  0.9081E+01
   -1.500014   31.03600  0.6303E-14  0.1552E-04  0.5881E-07  0.1288E-02  0.1277E-03  0.1268E+02
   -1.550014   31.03677  0.6303E-14  0.1511E-04  0.6337E-07  0.1206E-02  0.1178E-03  0.1891E+02
   -1.600014   31.03761  0.6303E-14  0.1459E-04  0.7056E-07  0.1059E-02  0.1081E-03  0.4239E+02
   -1.650014   31.03868  0.6303E-14  0.1390E-04  0.8184E-07  0.9780E-03  0.9741E-04  0.1482E+04
   -1.700013   31.03991  0.6303E-14  0.1296E-04  0.1020E-06  0.7950E-03  0.8678E-04 -0.1448E+04
   -1.750012   31.04217  0.6303E-14  0.1178E-04  0.1344E-06  0.7170E-03  0.7238E-04  0.7425E+05
   -1.800011   31.04377  0.6303E-14  0.1025E-04  0.2075E-06  0.4909E-03  0.6219E-04  0.7548E+04
   -1.850009   31.05207  0.6303E-14  0.8678E-05  0.3417E-06  0.4665E-03  0.4290E-04  0.2173E+08
   -1.900007   31.04915  0.6303E-14  0.6943E-05  0.7292E-06  0.2164E-03  0.3546E-04 -0.5910E+07
   -1.950005   31.07198  0.6303E-14  0.4936E-05  0.1759E-05  0.2104E-03  0.1889E-04 -0.3209E+06
   -2.000002   31.07276  0.6303E-14  0.0000E+00  0.0000E+00  0.0000E+00  0.3708E-04  0.0000E+00
