 1 - depth, m
 2 - temperature, C
 3 - salinity, kg/kg
 4 - turbulent kinetic energy, m**2/s**2
 5 - dissipation rate, m**2/s**3
 6 - kinematic heat conductance, m**2/s
 7 - modulus of horizontal velocity, m/s
 8 - Richardson number, n/d
   -0.000000   30.44126  0.2081E-13  0.4742E-05  0.2928E-06  0.4923E-04  0.5483E-03  0.3310E+05
   -0.049997   30.47240  0.2081E-13  0.8370E-05  0.1298E-06  0.1833E-03  0.3089E-03  0.9376E+02
   -0.099994   30.48358  0.2081E-13  0.1013E-04  0.8999E-07  0.4162E-03  0.2256E-03  0.1506E+03
   -0.149992   30.48668  0.2081E-13  0.1123E-04  0.7607E-07  0.4921E-03  0.2000E-03  0.7415E+02
   -0.199991   30.48919  0.2081E-13  0.1208E-04  0.6783E-07  0.6568E-03  0.1789E-03  0.4850E+02
   -0.249989   30.49102  0.2081E-13  0.1276E-04  0.6240E-07  0.7830E-03  0.1631E-03  0.3612E+02
   -0.299988   30.49251  0.2081E-13  0.1332E-04  0.5851E-07  0.9085E-03  0.1499E-03  0.2894E+02
   -0.349988   30.49377  0.2081E-13  0.1379E-04  0.5559E-07  0.1022E-02  0.1386E-03  0.2481E+02
   -0.399988   30.49486  0.2081E-13  0.1418E-04  0.5332E-07  0.1126E-02  0.1286E-03  0.2219E+02
   -0.449988   30.49583  0.2081E-13  0.1451E-04  0.5147E-07  0.1222E-02  0.1197E-03  0.2083E+02
   -0.499988   30.49671  0.2081E-13  0.1480E-04  0.4994E-07  0.1311E-02  0.1119E-03  0.2031E+02
   -0.549989   30.49751  0.2081E-13  0.1506E-04  0.4867E-07  0.1391E-02  0.1049E-03  0.2003E+02
   -0.599990   30.49826  0.2081E-13  0.1528E-04  0.4759E-07  0.1465E-02  0.9853E-04  0.2007E+02
   -0.649991   30.49895  0.2081E-13  0.1546E-04  0.4669E-07  0.1530E-02  0.9273E-04  0.2031E+02
   -0.699992   30.49961  0.2081E-13  0.1562E-04  0.4593E-07  0.1588E-02  0.8739E-04  0.2081E+02
   -0.749993   30.50023  0.2081E-13  0.1576E-04  0.4530E-07  0.1638E-02  0.8246E-04  0.2149E+02
   -0.799995   30.50083  0.2081E-13  0.1587E-04  0.4478E-07  0.1681E-02  0.7786E-04  0.2244E+02
   -0.849996   30.50141  0.2081E-13  0.1595E-04  0.4437E-07  0.1716E-02  0.7357E-04  0.2358E+02
   -0.899998   30.50197  0.2081E-13  0.1602E-04  0.4405E-07  0.1742E-02  0.6953E-04  0.2506E+02
   -0.949999   30.50251  0.2081E-13  0.1606E-04  0.4384E-07  0.1760E-02  0.6573E-04  0.2681E+02
   -1.000001   30.50305  0.2081E-13  0.1608E-04  0.4373E-07  0.1771E-02  0.6213E-04  0.2903E+02
   -1.050003   30.50357  0.2081E-13  0.1608E-04  0.4373E-07  0.1771E-02  0.5871E-04  0.3288E+02
   -1.100005   30.50410  0.2081E-13  0.1606E-04  0.4384E-07  0.1861E-02  0.5544E-04  0.1089E+03
   -1.150006   30.50459  0.2081E-13  0.1601E-04  0.4409E-07  0.1682E-02  0.5254E-04  0.2496E+03
   -1.200008   30.50514  0.2081E-13  0.1594E-04  0.4446E-07  0.1710E-02  0.4950E-04  0.4776E+02
   -1.250009   30.50567  0.2081E-13  0.1585E-04  0.4502E-07  0.1679E-02  0.4660E-04  0.5108E+02
   -1.300011   30.50622  0.2081E-13  0.1572E-04  0.4579E-07  0.1629E-02  0.4382E-04  0.5985E+02
   -1.350012   30.50677  0.2081E-13  0.1557E-04  0.4683E-07  0.1568E-02  0.4111E-04  0.7197E+02
   -1.400013   30.50735  0.2081E-13  0.1537E-04  0.4823E-07  0.1491E-02  0.3847E-04  0.8915E+02
   -1.450014   30.50796  0.2081E-13  0.1514E-04  0.5013E-07  0.1412E-02  0.3587E-04  0.1145E+03
   -1.500014   30.50860  0.2081E-13  0.1485E-04  0.5278E-07  0.1301E-02  0.3332E-04  0.1563E+03
   -1.550015   30.50930  0.2081E-13  0.1449E-04  0.5652E-07  0.1215E-02  0.3076E-04  0.2267E+03
   -1.600015   30.51007  0.2081E-13  0.1404E-04  0.6227E-07  0.1076E-02  0.2824E-04  0.4523E+03
   -1.650014   30.51101  0.2081E-13  0.1347E-04  0.7128E-07  0.9894E-03  0.2553E-04  0.5442E+04
   -1.700014   30.51210  0.2081E-13  0.1267E-04  0.8712E-07  0.8149E-03  0.2281E-04 -0.3496E+05
   -1.750013   30.51398  0.2081E-13  0.1163E-04  0.1128E-06  0.7293E-03  0.1930E-04  0.1718E+07
   -1.800012   30.51555  0.2081E-13  0.1024E-04  0.1695E-06  0.5136E-03  0.1657E-04  0.1148E+06
   -1.850010   30.52217  0.2081E-13  0.8744E-05  0.2737E-06  0.4688E-03  0.1184E-04  0.1803E+10
   -1.900008   30.52056  0.2081E-13  0.6989E-05  0.5705E-06  0.2212E-03  0.9682E-05  0.4400E+07
   -1.950005   30.54028  0.2081E-13  0.4893E-05  0.1418E-05  0.1900E-03  0.5287E-05 -0.4626E+07
   -2.000002   30.54284  0.2081E-13  0.0000E+00  0.0000E+00  0.0000E+00  0.9713E-05  0.0000E+00
