 1 - depth, m
 2 - temperature, C
 3 - salinity, kg/kg
 4 - turbulent kinetic energy, m**2/s**2
 5 - dissipation rate, m**2/s**3
 6 - kinematic heat conductance, m**2/s
 7 - modulus of horizontal velocity, m/s
 8 - Richardson number, n/d
   -0.000000   30.36449  0.1619E-13  0.5343E-05  0.3274E-06  0.5270E-04  0.2632E-02  0.1371E+04
   -0.049997   30.39632  0.1619E-13  0.8863E-05  0.1438E-06  0.1945E-03  0.1445E-02  0.8840E+02
   -0.099994   30.40711  0.1619E-13  0.1059E-04  0.1004E-06  0.3978E-03  0.1101E-02  0.7312E+01
   -0.149992   30.41059  0.1619E-13  0.1171E-04  0.8414E-07  0.4909E-03  0.9750E-03  0.3712E+01
   -0.199991   30.41328  0.1619E-13  0.1258E-04  0.7465E-07  0.6463E-03  0.8750E-03  0.2400E+01
   -0.249989   30.41527  0.1619E-13  0.1328E-04  0.6846E-07  0.7707E-03  0.7992E-03  0.1788E+01
   -0.299988   30.41690  0.1619E-13  0.1385E-04  0.6406E-07  0.8892E-03  0.7360E-03  0.1456E+01
   -0.349988   30.41827  0.1619E-13  0.1434E-04  0.6070E-07  0.9993E-03  0.6809E-03  0.1333E+01
   -0.399988   30.41946  0.1619E-13  0.1476E-04  0.5801E-07  0.1110E-02  0.6301E-03  0.1278E+01
   -0.449988   30.42052  0.1619E-13  0.1514E-04  0.5577E-07  0.1219E-02  0.5837E-03  0.1264E+01
   -0.499988   30.42145  0.1619E-13  0.1548E-04  0.5389E-07  0.1322E-02  0.5418E-03  0.1261E+01
   -0.549989   30.42230  0.1619E-13  0.1577E-04  0.5232E-07  0.1416E-02  0.5039E-03  0.1258E+01
   -0.599989   30.42308  0.1619E-13  0.1602E-04  0.5101E-07  0.1502E-02  0.4696E-03  0.1253E+01
   -0.649990   30.42380  0.1619E-13  0.1623E-04  0.4991E-07  0.1578E-02  0.4385E-03  0.1252E+01
   -0.699992   30.42448  0.1619E-13  0.1641E-04  0.4900E-07  0.1644E-02  0.4103E-03  0.1248E+01
   -0.749993   30.42512  0.1619E-13  0.1655E-04  0.4826E-07  0.1699E-02  0.3846E-03  0.1249E+01
   -0.799994   30.42574  0.1619E-13  0.1666E-04  0.4767E-07  0.1743E-02  0.3613E-03  0.1253E+01
   -0.849996   30.42633  0.1619E-13  0.1674E-04  0.4722E-07  0.1777E-02  0.3399E-03  0.1269E+01
   -0.899998   30.42690  0.1619E-13  0.1679E-04  0.4688E-07  0.1801E-02  0.3204E-03  0.1296E+01
   -0.949999   30.42746  0.1619E-13  0.1682E-04  0.4667E-07  0.1815E-02  0.3024E-03  0.1349E+01
   -1.000001   30.42801  0.1619E-13  0.1683E-04  0.4657E-07  0.1821E-02  0.2857E-03  0.1424E+01
   -1.050003   30.42856  0.1619E-13  0.1681E-04  0.4658E-07  0.1816E-02  0.2701E-03  0.1594E+01
   -1.100004   30.42910  0.1619E-13  0.1677E-04  0.4672E-07  0.1927E-02  0.2553E-03  0.5152E+01
   -1.150006   30.42961  0.1619E-13  0.1671E-04  0.4702E-07  0.1693E-02  0.2423E-03  0.1242E+02
   -1.200008   30.43018  0.1619E-13  0.1662E-04  0.4745E-07  0.1739E-02  0.2284E-03  0.2332E+01
   -1.250009   30.43073  0.1619E-13  0.1650E-04  0.4809E-07  0.1706E-02  0.2152E-03  0.2483E+01
   -1.300010   30.43130  0.1619E-13  0.1635E-04  0.4897E-07  0.1649E-02  0.2025E-03  0.2933E+01
   -1.350012   30.43188  0.1619E-13  0.1617E-04  0.5017E-07  0.1584E-02  0.1902E-03  0.3535E+01
   -1.400013   30.43248  0.1619E-13  0.1594E-04  0.5180E-07  0.1499E-02  0.1781E-03  0.4435E+01
   -1.450013   30.43312  0.1619E-13  0.1567E-04  0.5402E-07  0.1417E-02  0.1662E-03  0.5740E+01
   -1.500014   30.43380  0.1619E-13  0.1533E-04  0.5715E-07  0.1299E-02  0.1544E-03  0.8025E+01
   -1.550014   30.43455  0.1619E-13  0.1493E-04  0.6165E-07  0.1215E-02  0.1425E-03  0.1216E+02
   -1.600014   30.43537  0.1619E-13  0.1441E-04  0.6875E-07  0.1068E-02  0.1308E-03 -0.4768E+00
   -1.650014   30.43643  0.1619E-13  0.1374E-04  0.7985E-07  0.9829E-03  0.1178E-03  0.2110E+03
   -1.700014   30.43765  0.1619E-13  0.1282E-04  0.9925E-07  0.8021E-03  0.1049E-03  0.1773E+04
   -1.750013   30.43982  0.1619E-13  0.1168E-04  0.1305E-06  0.7189E-03  0.8774E-04  0.5406E+05
   -1.800011   30.44130  0.1619E-13  0.1019E-04  0.2013E-06  0.4949E-03  0.7554E-04  0.1496E+05
   -1.850010   30.44948  0.1619E-13  0.8656E-05  0.3318E-06  0.4648E-03  0.5237E-04  0.1324E+09
   -1.900008   30.44660  0.1619E-13  0.6881E-05  0.6989E-06  0.2140E-03  0.4332E-04 -0.1601E+06
   -1.950005   30.46895  0.1619E-13  0.4882E-05  0.1676E-05  0.2087E-03  0.2299E-04 -0.6481E+06
   -2.000002   30.46966  0.1619E-13  0.0000E+00  0.0000E+00  0.0000E+00  0.4494E-04  0.0000E+00
