 1 - depth, m
 2 - temperature, C
 3 - salinity, kg/kg
 4 - turbulent kinetic energy, m**2/s**2
 5 - dissipation rate, m**2/s**3
 6 - kinematic heat conductance, m**2/s
 7 - modulus of horizontal velocity, m/s
 8 - Richardson number, n/d
   -0.000000   30.03699  0.8490E-13  0.4766E-05  0.2728E-06  0.4926E-04  0.2440E-02  0.4446E+04
   -0.049997   30.06575  0.8490E-13  0.7958E-05  0.1206E-06  0.1843E-03  0.1330E-02  0.3367E+02
   -0.099994   30.07521  0.8490E-13  0.9500E-05  0.8455E-07  0.3786E-03  0.1010E-02  0.7859E+01
   -0.149992   30.07835  0.8490E-13  0.1050E-04  0.7089E-07  0.4706E-03  0.8902E-03  0.3944E+01
   -0.199991   30.08076  0.8490E-13  0.1128E-04  0.6289E-07  0.6182E-03  0.7960E-03  0.2554E+01
   -0.249989   30.08253  0.8490E-13  0.1190E-04  0.5763E-07  0.7401E-03  0.7244E-03  0.1885E+01
   -0.299989   30.08398  0.8490E-13  0.1241E-04  0.5388E-07  0.8574E-03  0.6649E-03  0.1504E+01
   -0.349988   30.08519  0.8490E-13  0.1284E-04  0.5106E-07  0.9620E-03  0.6138E-03  0.1303E+01
   -0.399988   30.08624  0.8490E-13  0.1320E-04  0.4884E-07  0.1059E-02  0.5682E-03  0.1219E+01
   -0.449988   30.08718  0.8490E-13  0.1352E-04  0.4700E-07  0.1157E-02  0.5272E-03  0.1203E+01
   -0.499988   30.08802  0.8490E-13  0.1380E-04  0.4544E-07  0.1250E-02  0.4900E-03  0.1206E+01
   -0.549989   30.08879  0.8490E-13  0.1405E-04  0.4413E-07  0.1336E-02  0.4565E-03  0.1203E+01
   -0.599990   30.08949  0.8490E-13  0.1426E-04  0.4303E-07  0.1415E-02  0.4260E-03  0.1200E+01
   -0.649991   30.09014  0.8490E-13  0.1444E-04  0.4210E-07  0.1485E-02  0.3984E-03  0.1194E+01
   -0.699992   30.09075  0.8490E-13  0.1460E-04  0.4132E-07  0.1546E-02  0.3734E-03  0.1189E+01
   -0.749993   30.09133  0.8490E-13  0.1472E-04  0.4068E-07  0.1598E-02  0.3506E-03  0.1188E+01
   -0.799995   30.09188  0.8490E-13  0.1482E-04  0.4016E-07  0.1641E-02  0.3298E-03  0.1198E+01
   -0.849996   30.09241  0.8490E-13  0.1489E-04  0.3974E-07  0.1674E-02  0.3107E-03  0.1223E+01
   -0.899998   30.09292  0.8490E-13  0.1495E-04  0.3942E-07  0.1700E-02  0.2931E-03  0.1276E+01
   -0.950000   30.09342  0.8490E-13  0.1498E-04  0.3919E-07  0.1717E-02  0.2767E-03  0.1354E+01
   -1.000001   30.09392  0.8490E-13  0.1500E-04  0.3905E-07  0.1727E-02  0.2613E-03  0.1463E+01
   -1.050003   30.09440  0.8490E-13  0.1499E-04  0.3900E-07  0.1729E-02  0.2466E-03  0.1656E+01
   -1.100005   30.09488  0.8490E-13  0.1497E-04  0.3905E-07  0.1812E-02  0.2326E-03  0.5518E+01
   -1.150007   30.09533  0.8490E-13  0.1492E-04  0.3922E-07  0.1652E-02  0.2201E-03  0.1236E+02
   -1.200008   30.09583  0.8490E-13  0.1486E-04  0.3950E-07  0.1675E-02  0.2073E-03  0.2381E+01
   -1.250010   30.09632  0.8490E-13  0.1477E-04  0.3993E-07  0.1645E-02  0.1949E-03  0.2538E+01
   -1.300011   30.09681  0.8490E-13  0.1466E-04  0.4054E-07  0.1598E-02  0.1831E-03  0.2956E+01
   -1.350012   30.09731  0.8490E-13  0.1451E-04  0.4138E-07  0.1541E-02  0.1716E-03  0.3530E+01
   -1.400013   30.09783  0.8490E-13  0.1434E-04  0.4250E-07  0.1469E-02  0.1604E-03  0.4326E+01
   -1.450014   30.09837  0.8490E-13  0.1413E-04  0.4403E-07  0.1392E-02  0.1494E-03  0.5481E+01
   -1.500015   30.09895  0.8490E-13  0.1387E-04  0.4614E-07  0.1287E-02  0.1387E-03  0.7323E+01
   -1.550015   30.09957  0.8490E-13  0.1355E-04  0.4911E-07  0.1199E-02  0.1279E-03  0.1028E+02
   -1.600015   30.10025  0.8490E-13  0.1316E-04  0.5354E-07  0.1063E-02  0.1174E-03  0.1717E+02
   -1.650015   30.10104  0.8490E-13  0.1267E-04  0.6037E-07  0.9772E-03  0.1063E-03  0.6585E+02
   -1.700014   30.10194  0.8490E-13  0.1200E-04  0.7260E-07  0.8091E-03  0.9544E-04  0.4973E+03
   -1.750013   30.10344  0.8490E-13  0.1107E-04  0.9313E-07  0.7194E-03  0.8155E-04 -0.1789E+05
   -1.800012   30.10493  0.8490E-13  0.9772E-05  0.1377E-06  0.5108E-03  0.6959E-04  0.9862E+04
   -1.850010   30.10982  0.8490E-13  0.8310E-05  0.2168E-06  0.4563E-03  0.5054E-04  0.9179E+07
   -1.900008   30.10945  0.8490E-13  0.6546E-05  0.4512E-06  0.2083E-03  0.4067E-04  0.9425E+06
   -1.950006   30.12631  0.8490E-13  0.4546E-05  0.1144E-05  0.1771E-03  0.2195E-04 -0.2161E+06
   -2.000003   30.12862  0.8490E-13  0.0000E+00  0.0000E+00  0.0000E+00  0.3940E-04  0.0000E+00
