 1 - depth, m
 2 - temperature, C
 3 - salinity, kg/kg
 4 - turbulent kinetic energy, m**2/s**2
 5 - dissipation rate, m**2/s**3
 6 - kinematic heat conductance, m**2/s
 7 - modulus of horizontal velocity, m/s
 8 - Richardson number, n/d
   -0.000000   30.16849  0.1886E-14  0.5964E-05  0.3350E-06  0.5356E-04  0.4074E-02  0.4160E+03
   -0.049997   30.20182  0.1886E-14  0.9454E-05  0.1429E-06  0.2256E-03  0.2153E-02  0.3556E+03
   -0.099994   30.21055  0.1886E-14  0.1097E-04  0.1035E-06  0.3956E-03  0.1744E-02  0.3346E+01
   -0.149992   30.21413  0.1886E-14  0.1202E-04  0.8770E-07  0.4979E-03  0.1565E-02  0.1817E+01
   -0.199991   30.21686  0.1886E-14  0.1285E-04  0.7847E-07  0.6225E-03  0.1426E-02  0.1309E+01
   -0.249989   30.21898  0.1886E-14  0.1357E-04  0.7220E-07  0.7315E-03  0.1314E-02  0.1262E+01
   -0.299988   30.22073  0.1886E-14  0.1423E-04  0.6734E-07  0.8624E-03  0.1210E-02  0.1349E+01
   -0.349988   30.22219  0.1886E-14  0.1486E-04  0.6334E-07  0.1011E-02  0.1108E-02  0.1442E+01
   -0.399988   30.22340  0.1886E-14  0.1544E-04  0.6004E-07  0.1165E-02  0.1009E-02  0.1467E+01
   -0.449988   30.22443  0.1886E-14  0.1596E-04  0.5729E-07  0.1315E-02  0.9173E-03  0.1470E+01
   -0.499988   30.22532  0.1886E-14  0.1642E-04  0.5505E-07  0.1455E-02  0.8349E-03  0.1468E+01
   -0.549989   30.22611  0.1886E-14  0.1681E-04  0.5321E-07  0.1583E-02  0.7616E-03  0.1455E+01
   -0.599989   30.22683  0.1886E-14  0.1714E-04  0.5173E-07  0.1696E-02  0.6961E-03  0.1438E+01
   -0.649990   30.22749  0.1886E-14  0.1740E-04  0.5053E-07  0.1793E-02  0.6378E-03  0.1417E+01
   -0.699992   30.22810  0.1886E-14  0.1761E-04  0.4958E-07  0.1872E-02  0.5857E-03  0.1392E+01
   -0.749993   30.22868  0.1886E-14  0.1776E-04  0.4886E-07  0.1934E-02  0.5392E-03  0.1364E+01
   -0.799994   30.22923  0.1886E-14  0.1787E-04  0.4833E-07  0.1979E-02  0.4977E-03  0.1333E+01
   -0.849996   30.22977  0.1886E-14  0.1793E-04  0.4798E-07  0.2007E-02  0.4606E-03  0.1299E+01
   -0.899997   30.23029  0.1886E-14  0.1795E-04  0.4779E-07  0.2019E-02  0.4275E-03  0.1263E+01
   -0.949999   30.23080  0.1886E-14  0.1795E-04  0.4775E-07  0.2017E-02  0.3979E-03  0.1224E+01
   -1.000001   30.23131  0.1886E-14  0.1791E-04  0.4784E-07  0.2002E-02  0.3715E-03  0.1182E+01
   -1.050003   30.23182  0.1886E-14  0.1785E-04  0.4807E-07  0.1965E-02  0.3478E-03  0.1150E+01
   -1.100004   30.23233  0.1886E-14  0.1777E-04  0.4841E-07  0.2157E-02  0.3269E-03  0.2694E+01
   -1.150006   30.23280  0.1886E-14  0.1766E-04  0.4891E-07  0.1744E-02  0.3118E-03  0.7487E+01
   -1.200007   30.23337  0.1886E-14  0.1753E-04  0.4956E-07  0.1849E-02  0.2942E-03  0.1342E+01
   -1.250009   30.23391  0.1886E-14  0.1737E-04  0.5045E-07  0.1807E-02  0.2777E-03  0.1406E+01
   -1.300010   30.23446  0.1886E-14  0.1717E-04  0.5164E-07  0.1736E-02  0.2620E-03  0.1666E+01
   -1.350011   30.23503  0.1886E-14  0.1694E-04  0.5322E-07  0.1657E-02  0.2467E-03  0.2053E+01
   -1.400012   30.23563  0.1886E-14  0.1666E-04  0.5535E-07  0.1556E-02  0.2316E-03  0.2641E+01
   -1.450013   30.23627  0.1886E-14  0.1632E-04  0.5828E-07  0.1463E-02  0.2166E-03  0.3563E+01
   -1.500014   30.23696  0.1886E-14  0.1591E-04  0.6241E-07  0.1334E-02  0.2016E-03  0.5316E+01
   -1.550014   30.23773  0.1886E-14  0.1542E-04  0.6851E-07  0.1246E-02  0.1863E-03 -0.8929E+02
   -1.600014   30.23863  0.1886E-14  0.1478E-04  0.7833E-07  0.1090E-02  0.1709E-03 -0.3898E+03
   -1.650014   30.23986  0.1886E-14  0.1395E-04  0.9354E-07  0.1003E-02  0.1531E-03  0.1730E+04
   -1.700013   30.24127  0.1886E-14  0.1282E-04  0.1208E-06  0.7970E-03  0.1352E-03  0.1119E+04
   -1.750012   30.24389  0.1886E-14  0.1156E-04  0.1625E-06  0.7216E-03  0.1112E-03  0.1745E+06
   -1.800011   30.24512  0.1886E-14  0.1002E-04  0.2534E-06  0.4906E-03  0.9638E-04  0.1540E+06
   -1.850009   30.25560  0.1886E-14  0.8530E-05  0.4273E-06  0.4756E-03  0.6502E-04  0.1534E+08
   -1.900007   30.25028  0.1886E-14  0.6820E-05  0.8905E-06  0.2183E-03  0.5502E-04 -0.9390E+05
   -1.950005   30.27571  0.1886E-14  0.4910E-05  0.2052E-05  0.2358E-03  0.2890E-04 -0.2046E+06
   -2.000002   30.27446  0.1886E-14  0.0000E+00  0.0000E+00  0.0000E+00  0.6002E-04  0.0000E+00
