 1 - depth, m
 2 - temperature, C
 3 - salinity, kg/kg
 4 - turbulent kinetic energy, m**2/s**2
 5 - dissipation rate, m**2/s**3
 6 - kinematic heat conductance, m**2/s
 7 - modulus of horizontal velocity, m/s
 8 - Richardson number, n/d
   -0.000000   30.31969  0.6468E-14  0.4774E-05  0.2949E-06  0.5009E-04  0.1421E-02  0.1122E+05
   -0.049997   30.34991  0.6468E-14  0.8198E-05  0.1317E-06  0.1773E-03  0.8079E-03  0.2530E+04
   -0.099994   30.36146  0.6468E-14  0.9948E-05  0.9082E-07  0.3970E-03  0.5932E-03  0.2329E+02
   -0.149992   30.36469  0.6468E-14  0.1105E-04  0.7621E-07  0.4790E-03  0.5235E-03  0.1142E+02
   -0.199991   30.36725  0.6468E-14  0.1190E-04  0.6766E-07  0.6402E-03  0.4674E-03  0.7319E+01
   -0.249989   30.36911  0.6468E-14  0.1258E-04  0.6206E-07  0.7657E-03  0.4254E-03  0.5401E+01
   -0.299988   30.37062  0.6468E-14  0.1314E-04  0.5808E-07  0.8908E-03  0.3904E-03  0.4293E+01
   -0.349988   30.37189  0.6468E-14  0.1360E-04  0.5509E-07  0.1004E-02  0.3605E-03  0.3673E+01
   -0.399988   30.37299  0.6468E-14  0.1399E-04  0.5276E-07  0.1108E-02  0.3341E-03  0.3269E+01
   -0.449988   30.37396  0.6468E-14  0.1432E-04  0.5087E-07  0.1204E-02  0.3108E-03  0.3070E+01
   -0.499988   30.37484  0.6468E-14  0.1461E-04  0.4931E-07  0.1293E-02  0.2902E-03  0.2982E+01
   -0.549989   30.37564  0.6468E-14  0.1486E-04  0.4800E-07  0.1374E-02  0.2718E-03  0.2944E+01
   -0.599990   30.37639  0.6468E-14  0.1508E-04  0.4690E-07  0.1447E-02  0.2551E-03  0.2940E+01
   -0.649991   30.37708  0.6468E-14  0.1526E-04  0.4597E-07  0.1514E-02  0.2399E-03  0.2979E+01
   -0.699992   30.37774  0.6468E-14  0.1542E-04  0.4518E-07  0.1572E-02  0.2260E-03  0.3039E+01
   -0.749993   30.37836  0.6468E-14  0.1555E-04  0.4452E-07  0.1623E-02  0.2131E-03  0.3143E+01
   -0.799995   30.37895  0.6468E-14  0.1566E-04  0.4398E-07  0.1667E-02  0.2011E-03  0.3265E+01
   -0.849996   30.37952  0.6468E-14  0.1574E-04  0.4353E-07  0.1702E-02  0.1899E-03  0.3438E+01
   -0.899998   30.38008  0.6468E-14  0.1580E-04  0.4319E-07  0.1730E-02  0.1794E-03  0.3632E+01
   -0.950000   30.38062  0.6468E-14  0.1585E-04  0.4295E-07  0.1750E-02  0.1695E-03  0.3893E+01
   -1.000001   30.38114  0.6468E-14  0.1587E-04  0.4280E-07  0.1762E-02  0.1601E-03  0.4185E+01
   -1.050003   30.38166  0.6468E-14  0.1587E-04  0.4275E-07  0.1764E-02  0.1512E-03  0.4748E+01
   -1.100005   30.38218  0.6468E-14  0.1584E-04  0.4282E-07  0.1847E-02  0.1428E-03  0.1578E+02
   -1.150006   30.38267  0.6468E-14  0.1580E-04  0.4301E-07  0.1687E-02  0.1352E-03  0.3504E+02
   -1.200008   30.38320  0.6468E-14  0.1573E-04  0.4333E-07  0.1710E-02  0.1274E-03  0.6801E+01
   -1.250009   30.38372  0.6468E-14  0.1564E-04  0.4381E-07  0.1680E-02  0.1199E-03  0.7223E+01
   -1.300011   30.38425  0.6468E-14  0.1552E-04  0.4449E-07  0.1632E-02  0.1127E-03  0.8445E+01
   -1.350012   30.38479  0.6468E-14  0.1537E-04  0.4542E-07  0.1574E-02  0.1057E-03  0.1004E+02
   -1.400013   30.38535  0.6468E-14  0.1519E-04  0.4668E-07  0.1500E-02  0.9888E-04  0.1237E+02
   -1.450014   30.38593  0.6468E-14  0.1496E-04  0.4839E-07  0.1422E-02  0.9221E-04  0.1563E+02
   -1.500014   30.38655  0.6468E-14  0.1469E-04  0.5075E-07  0.1314E-02  0.8565E-04  0.2106E+02
   -1.550015   30.38722  0.6468E-14  0.1435E-04  0.5409E-07  0.1226E-02  0.7908E-04  0.2962E+02
   -1.600015   30.38795  0.6468E-14  0.1393E-04  0.5911E-07  0.1086E-02  0.7263E-04  0.5308E+02
   -1.650015   30.38882  0.6468E-14  0.1340E-04  0.6687E-07  0.1001E-02  0.6581E-04  0.1840E+03
   -1.700014   30.38981  0.6468E-14  0.1267E-04  0.8067E-07  0.8246E-03  0.5906E-04 -0.2184E+03
   -1.750013   30.39147  0.6468E-14  0.1171E-04  0.1033E-06  0.7406E-03  0.5041E-04  0.1756E+05
   -1.800012   30.39295  0.6468E-14  0.1037E-04  0.1514E-06  0.5224E-03  0.4336E-04  0.4780E+05
   -1.850010   30.39858  0.6468E-14  0.8855E-05  0.2412E-06  0.4735E-03  0.3148E-04  0.1507E+08
   -1.900008   30.39788  0.6468E-14  0.7014E-05  0.4987E-06  0.2150E-03  0.2553E-04  0.1393E+07
   -1.950006   30.41592  0.6468E-14  0.4870E-05  0.1269E-05  0.1808E-03  0.1390E-04 -0.6918E+06
   -2.000003   30.41843  0.6468E-14  0.0000E+00  0.0000E+00  0.0000E+00  0.2460E-04  0.0000E+00
