 1 - depth, m
 2 - temperature, C
 3 - salinity, kg/kg
 4 - turbulent kinetic energy, m**2/s**2
 5 - dissipation rate, m**2/s**3
 6 - kinematic heat conductance, m**2/s
 7 - modulus of horizontal velocity, m/s
 8 - Richardson number, n/d
   -0.000000   30.37322  0.1463E-13  0.4761E-05  0.2923E-06  0.4926E-04  0.1353E-02  0.1052E+05
   -0.049997   30.40376  0.1463E-13  0.8202E-05  0.1303E-06  0.1803E-03  0.7645E-03  0.3966E+04
   -0.099994   30.41500  0.1463E-13  0.9937E-05  0.9023E-07  0.3970E-03  0.5637E-03  0.2739E+02
   -0.149992   30.41820  0.1463E-13  0.1103E-04  0.7578E-07  0.4812E-03  0.4977E-03  0.1348E+02
   -0.199991   30.42073  0.1463E-13  0.1189E-04  0.6732E-07  0.6416E-03  0.4445E-03  0.8658E+01
   -0.249989   30.42257  0.1463E-13  0.1256E-04  0.6179E-07  0.7668E-03  0.4047E-03  0.6382E+01
   -0.299988   30.42407  0.1463E-13  0.1312E-04  0.5784E-07  0.8917E-03  0.3716E-03  0.5087E+01
   -0.349988   30.42533  0.1463E-13  0.1358E-04  0.5489E-07  0.1005E-02  0.3432E-03  0.4340E+01
   -0.399988   30.42642  0.1463E-13  0.1397E-04  0.5259E-07  0.1108E-02  0.3181E-03  0.3877E+01
   -0.449988   30.42739  0.1463E-13  0.1430E-04  0.5073E-07  0.1204E-02  0.2960E-03  0.3627E+01
   -0.499988   30.42827  0.1463E-13  0.1459E-04  0.4919E-07  0.1292E-02  0.2765E-03  0.3539E+01
   -0.549989   30.42907  0.1463E-13  0.1484E-04  0.4790E-07  0.1373E-02  0.2590E-03  0.3478E+01
   -0.599990   30.42981  0.1463E-13  0.1506E-04  0.4682E-07  0.1446E-02  0.2431E-03  0.3493E+01
   -0.649991   30.43050  0.1463E-13  0.1524E-04  0.4591E-07  0.1512E-02  0.2287E-03  0.3521E+01
   -0.699992   30.43115  0.1463E-13  0.1540E-04  0.4514E-07  0.1570E-02  0.2154E-03  0.3616E+01
   -0.749993   30.43177  0.1463E-13  0.1553E-04  0.4450E-07  0.1621E-02  0.2032E-03  0.3717E+01
   -0.799995   30.43237  0.1463E-13  0.1564E-04  0.4397E-07  0.1664E-02  0.1918E-03  0.3892E+01
   -0.849996   30.43294  0.1463E-13  0.1573E-04  0.4355E-07  0.1699E-02  0.1811E-03  0.4072E+01
   -0.899998   30.43349  0.1463E-13  0.1579E-04  0.4323E-07  0.1726E-02  0.1711E-03  0.4341E+01
   -0.949999   30.43403  0.1463E-13  0.1583E-04  0.4300E-07  0.1745E-02  0.1617E-03  0.4625E+01
   -1.000001   30.43456  0.1463E-13  0.1585E-04  0.4288E-07  0.1756E-02  0.1528E-03  0.5020E+01
   -1.050003   30.43509  0.1463E-13  0.1585E-04  0.4286E-07  0.1757E-02  0.1443E-03  0.5666E+01
   -1.100005   30.43560  0.1463E-13  0.1583E-04  0.4294E-07  0.1843E-02  0.1363E-03  0.1884E+02
   -1.150006   30.43609  0.1463E-13  0.1579E-04  0.4317E-07  0.1675E-02  0.1291E-03  0.4302E+02
   -1.200008   30.43663  0.1463E-13  0.1572E-04  0.4352E-07  0.1699E-02  0.1216E-03  0.8218E+01
   -1.250009   30.43716  0.1463E-13  0.1563E-04  0.4404E-07  0.1669E-02  0.1144E-03  0.8799E+01
   -1.300011   30.43769  0.1463E-13  0.1551E-04  0.4476E-07  0.1620E-02  0.1076E-03  0.1028E+02
   -1.350012   30.43824  0.1463E-13  0.1535E-04  0.4575E-07  0.1562E-02  0.1009E-03  0.1237E+02
   -1.400013   30.43880  0.1463E-13  0.1516E-04  0.4708E-07  0.1484E-02  0.9440E-04  0.1530E+02
   -1.450014   30.43940  0.1463E-13  0.1493E-04  0.4888E-07  0.1409E-02  0.8801E-04  0.1961E+02
   -1.500014   30.44003  0.1463E-13  0.1465E-04  0.5139E-07  0.1295E-02  0.8175E-04  0.2682E+02
   -1.550015   30.44073  0.1463E-13  0.1430E-04  0.5492E-07  0.1216E-02  0.7544E-04  0.3843E+02
   -1.600015   30.44147  0.1463E-13  0.1387E-04  0.6039E-07  0.1067E-02  0.6930E-04  0.7796E+02
   -1.650014   30.44240  0.1463E-13  0.1331E-04  0.6879E-07  0.9932E-03  0.6261E-04  0.5396E+04
   -1.700014   30.44341  0.1463E-13  0.1255E-04  0.8390E-07  0.8058E-03  0.5622E-04 -0.1006E+04
   -1.750013   30.44530  0.1463E-13  0.1153E-04  0.1086E-06  0.7335E-03  0.4752E-04  0.8876E+05
   -1.800012   30.44672  0.1463E-13  0.1019E-04  0.1600E-06  0.5093E-03  0.4098E-04  0.3689E+05
   -1.850010   30.45311  0.1463E-13  0.8670E-05  0.2590E-06  0.4685E-03  0.2940E-04  0.2848E+07
   -1.900008   30.45180  0.1463E-13  0.6890E-05  0.5440E-06  0.2142E-03  0.2395E-04 -0.1060E+07
   -1.950005   30.47099  0.1463E-13  0.4824E-05  0.1352E-05  0.1883E-03  0.1305E-04 -0.1298E+07
   -2.000002   30.47319  0.1463E-13  0.0000E+00  0.0000E+00  0.0000E+00  0.2356E-04  0.0000E+00
