 1 - depth, m
 2 - temperature, C
 3 - salinity, kg/kg
 4 - turbulent kinetic energy, m**2/s**2
 5 - dissipation rate, m**2/s**3
 6 - kinematic heat conductance, m**2/s
 7 - modulus of horizontal velocity, m/s
 8 - Richardson number, n/d
   -0.000000   30.72457  0.2204E-14  0.5102E-05  0.3144E-06  0.5173E-04  0.2211E-02  0.4225E+04
   -0.049997   30.75520  0.2204E-14  0.8572E-05  0.1393E-06  0.1858E-03  0.1232E-02  0.5938E+02
   -0.099994   30.76625  0.2204E-14  0.1032E-04  0.9653E-07  0.3971E-03  0.9250E-03  0.1046E+02
   -0.149992   30.76958  0.2204E-14  0.1143E-04  0.8085E-07  0.4852E-03  0.8171E-03  0.5197E+01
   -0.199991   30.77219  0.2204E-14  0.1230E-04  0.7169E-07  0.6443E-03  0.7311E-03  0.3339E+01
   -0.249989   30.77410  0.2204E-14  0.1299E-04  0.6571E-07  0.7707E-03  0.6664E-03  0.2459E+01
   -0.299988   30.77565  0.2204E-14  0.1356E-04  0.6146E-07  0.8951E-03  0.6125E-03  0.1961E+01
   -0.349988   30.77696  0.2204E-14  0.1403E-04  0.5828E-07  0.1006E-02  0.5663E-03  0.1684E+01
   -0.399988   30.77809  0.2204E-14  0.1443E-04  0.5579E-07  0.1109E-02  0.5251E-03  0.1536E+01
   -0.449988   30.77910  0.2204E-14  0.1478E-04  0.5374E-07  0.1209E-02  0.4884E-03  0.1473E+01
   -0.499988   30.78000  0.2204E-14  0.1509E-04  0.5203E-07  0.1304E-02  0.4552E-03  0.1457E+01
   -0.549989   30.78083  0.2204E-14  0.1536E-04  0.5060E-07  0.1391E-02  0.4254E-03  0.1441E+01
   -0.599989   30.78159  0.2204E-14  0.1559E-04  0.4940E-07  0.1470E-02  0.3983E-03  0.1444E+01
   -0.649990   30.78230  0.2204E-14  0.1579E-04  0.4839E-07  0.1540E-02  0.3737E-03  0.1445E+01
   -0.699992   30.78296  0.2204E-14  0.1596E-04  0.4754E-07  0.1602E-02  0.3512E-03  0.1464E+01
   -0.749993   30.78359  0.2204E-14  0.1609E-04  0.4685E-07  0.1654E-02  0.3306E-03  0.1483E+01
   -0.799994   30.78420  0.2204E-14  0.1620E-04  0.4628E-07  0.1698E-02  0.3117E-03  0.1526E+01
   -0.849996   30.78478  0.2204E-14  0.1629E-04  0.4584E-07  0.1732E-02  0.2942E-03  0.1577E+01
   -0.899998   30.78534  0.2204E-14  0.1635E-04  0.4550E-07  0.1758E-02  0.2780E-03  0.1663E+01
   -0.949999   30.78590  0.2204E-14  0.1639E-04  0.4527E-07  0.1775E-02  0.2628E-03  0.1765E+01
   -1.000001   30.78644  0.2204E-14  0.1641E-04  0.4515E-07  0.1785E-02  0.2484E-03  0.1911E+01
   -1.050003   30.78697  0.2204E-14  0.1640E-04  0.4513E-07  0.1784E-02  0.2349E-03  0.2158E+01
   -1.100004   30.78750  0.2204E-14  0.1637E-04  0.4524E-07  0.1879E-02  0.2219E-03  0.7117E+01
   -1.150006   30.78800  0.2204E-14  0.1632E-04  0.4549E-07  0.1688E-02  0.2104E-03  0.1663E+02
   -1.200007   30.78855  0.2204E-14  0.1625E-04  0.4587E-07  0.1720E-02  0.1983E-03  0.3146E+01
   -1.250009   30.78909  0.2204E-14  0.1614E-04  0.4644E-07  0.1689E-02  0.1867E-03  0.3365E+01
   -1.300010   30.78964  0.2204E-14  0.1601E-04  0.4724E-07  0.1637E-02  0.1756E-03  0.3942E+01
   -1.350011   30.79021  0.2204E-14  0.1585E-04  0.4831E-07  0.1575E-02  0.1648E-03  0.4755E+01
   -1.400012   30.79079  0.2204E-14  0.1564E-04  0.4977E-07  0.1495E-02  0.1543E-03  0.5909E+01
   -1.450013   30.79141  0.2204E-14  0.1539E-04  0.5176E-07  0.1416E-02  0.1439E-03  0.7617E+01
   -1.500014   30.79206  0.2204E-14  0.1509E-04  0.5453E-07  0.1301E-02  0.1338E-03  0.1051E+02
   -1.550014   30.79278  0.2204E-14  0.1472E-04  0.5846E-07  0.1218E-02  0.1235E-03  0.1535E+02
   -1.600014   30.79356  0.2204E-14  0.1425E-04  0.6460E-07  0.1070E-02  0.1134E-03  0.3593E+02
   -1.650014   30.79454  0.2204E-14  0.1364E-04  0.7413E-07  0.9902E-03  0.1024E-03  0.6843E+02
   -1.700013   30.79564  0.2204E-14  0.1281E-04  0.9099E-07  0.8034E-03  0.9174E-04  0.7907E+03
   -1.750013   30.79766  0.2204E-14  0.1173E-04  0.1186E-06  0.7279E-03  0.7733E-04  0.7803E+05
   -1.800011   30.79918  0.2204E-14  0.1033E-04  0.1767E-06  0.5045E-03  0.6654E-04  0.3253E+06
   -1.850010   30.80609  0.2204E-14  0.8789E-05  0.2876E-06  0.4686E-03  0.4757E-04  0.1503E+08
   -1.900007   30.80437  0.2204E-14  0.6966E-05  0.5983E-06  0.2121E-03  0.3880E-04 -0.9830E+05
   -1.950005   30.82489  0.2204E-14  0.4894E-05  0.1473E-05  0.1961E-03  0.2091E-04 -0.7607E+05
   -2.000002   30.82653  0.2204E-14  0.0000E+00  0.0000E+00  0.0000E+00  0.3874E-04  0.0000E+00
