 1 - depth, m
 2 - temperature, C
 3 - salinity, kg/kg
 4 - turbulent kinetic energy, m**2/s**2
 5 - dissipation rate, m**2/s**3
 6 - kinematic heat conductance, m**2/s
 7 - modulus of horizontal velocity, m/s
 8 - Richardson number, n/d
   -0.000000   29.63345  0.5471E-14  0.4440E-05  0.2644E-06  0.4879E-04  0.1369E-02  0.4619E+04
   -0.049997   29.66141  0.5471E-14  0.7659E-05  0.1177E-06  0.1701E-03  0.7808E-03  0.4647E+04
   -0.099994   29.67244  0.5471E-14  0.9301E-05  0.8092E-07  0.3913E-03  0.5668E-03  0.2735E+02
   -0.149992   29.67541  0.5471E-14  0.1032E-04  0.6810E-07  0.4681E-03  0.5003E-03  0.1325E+02
   -0.199991   29.67780  0.5471E-14  0.1111E-04  0.6056E-07  0.6243E-03  0.4463E-03  0.8563E+01
   -0.249989   29.67955  0.5471E-14  0.1174E-04  0.5560E-07  0.7461E-03  0.4057E-03  0.6349E+01
   -0.299989   29.68097  0.5471E-14  0.1226E-04  0.5206E-07  0.8668E-03  0.3720E-03  0.5052E+01
   -0.349988   29.68216  0.5471E-14  0.1269E-04  0.4941E-07  0.9764E-03  0.3431E-03  0.4341E+01
   -0.399988   29.68319  0.5471E-14  0.1305E-04  0.4734E-07  0.1077E-02  0.3175E-03  0.3862E+01
   -0.449988   29.68411  0.5471E-14  0.1336E-04  0.4565E-07  0.1170E-02  0.2951E-03  0.3647E+01
   -0.499988   29.68494  0.5471E-14  0.1363E-04  0.4426E-07  0.1256E-02  0.2752E-03  0.3538E+01
   -0.549989   29.68569  0.5471E-14  0.1386E-04  0.4309E-07  0.1334E-02  0.2574E-03  0.3512E+01
   -0.599990   29.68640  0.5471E-14  0.1407E-04  0.4211E-07  0.1406E-02  0.2414E-03  0.3501E+01
   -0.649991   29.68705  0.5471E-14  0.1424E-04  0.4128E-07  0.1470E-02  0.2267E-03  0.3567E+01
   -0.699992   29.68767  0.5471E-14  0.1439E-04  0.4057E-07  0.1527E-02  0.2133E-03  0.3630E+01
   -0.749993   29.68825  0.5471E-14  0.1451E-04  0.3998E-07  0.1577E-02  0.2009E-03  0.3773E+01
   -0.799995   29.68881  0.5471E-14  0.1461E-04  0.3949E-07  0.1619E-02  0.1894E-03  0.3908E+01
   -0.849997   29.68935  0.5471E-14  0.1469E-04  0.3909E-07  0.1654E-02  0.1786E-03  0.4134E+01
   -0.899998   29.68987  0.5471E-14  0.1475E-04  0.3877E-07  0.1682E-02  0.1685E-03  0.4355E+01
   -0.950000   29.69038  0.5471E-14  0.1479E-04  0.3855E-07  0.1701E-02  0.1590E-03  0.4687E+01
   -1.000002   29.69088  0.5471E-14  0.1481E-04  0.3841E-07  0.1713E-02  0.1501E-03  0.5022E+01
   -1.050003   29.69137  0.5471E-14  0.1481E-04  0.3836E-07  0.1716E-02  0.1416E-03  0.5722E+01
   -1.100005   29.69185  0.5471E-14  0.1480E-04  0.3840E-07  0.1792E-02  0.1335E-03  0.1905E+02
   -1.150007   29.69231  0.5471E-14  0.1476E-04  0.3856E-07  0.1650E-02  0.1263E-03  0.4169E+02
   -1.200008   29.69281  0.5471E-14  0.1470E-04  0.3883E-07  0.1667E-02  0.1188E-03  0.8168E+01
   -1.250010   29.69330  0.5471E-14  0.1461E-04  0.3924E-07  0.1639E-02  0.1117E-03  0.8636E+01
   -1.300011   29.69379  0.5471E-14  0.1451E-04  0.3982E-07  0.1594E-02  0.1049E-03  0.1011E+02
   -1.350012   29.69430  0.5471E-14  0.1437E-04  0.4061E-07  0.1539E-02  0.9826E-04  0.1194E+02
   -1.400014   29.69482  0.5471E-14  0.1420E-04  0.4169E-07  0.1469E-02  0.9182E-04  0.1466E+02
   -1.450014   29.69536  0.5471E-14  0.1400E-04  0.4315E-07  0.1394E-02  0.8552E-04  0.1836E+02
   -1.500015   29.69594  0.5471E-14  0.1375E-04  0.4515E-07  0.1290E-02  0.7935E-04  0.2448E+02
   -1.550015   29.69656  0.5471E-14  0.1345E-04  0.4797E-07  0.1204E-02  0.7320E-04  0.3384E+02
   -1.600015   29.69723  0.5471E-14  0.1307E-04  0.5217E-07  0.1067E-02  0.6715E-04  0.5602E+02
   -1.650015   29.69802  0.5471E-14  0.1260E-04  0.5859E-07  0.9870E-03  0.6082E-04  0.1624E+03
   -1.700015   29.69889  0.5471E-14  0.1195E-04  0.7014E-07  0.8111E-03  0.5467E-04 -0.1664E+04
   -1.750014   29.70036  0.5471E-14  0.1107E-04  0.8944E-07  0.7298E-03  0.4674E-04  0.3072E+06
   -1.800013   29.70178  0.5471E-14  0.9825E-05  0.1295E-06  0.5119E-03  0.4009E-04  0.2790E+07
   -1.850011   29.70651  0.5471E-14  0.8372E-05  0.2038E-06  0.4634E-03  0.2929E-04  0.8007E+07
   -1.900009   29.70628  0.5471E-14  0.6618E-05  0.4277E-06  0.2094E-03  0.2362E-04  0.2665E+06
   -1.950006   29.72250  0.5471E-14  0.4565E-05  0.1091E-05  0.1729E-03  0.1286E-04 -0.5961E+06
   -2.000003   29.72458  0.5471E-14  0.0000E+00  0.0000E+00  0.0000E+00  0.2259E-04  0.0000E+00
