 1 - depth, m
 2 - temperature, C
 3 - salinity, kg/kg
 4 - turbulent kinetic energy, m**2/s**2
 5 - dissipation rate, m**2/s**3
 6 - kinematic heat conductance, m**2/s
 7 - modulus of horizontal velocity, m/s
 8 - Richardson number, n/d
   -0.000000   30.11796  0.1027E-13  0.4664E-05  0.2896E-06  0.5008E-04  0.7238E-03  0.7203E+05
   -0.049997   30.14779  0.1027E-13  0.8179E-05  0.1283E-06  0.1766E-03  0.4136E-03  0.4549E+02
   -0.099994   30.15951  0.1027E-13  0.9942E-05  0.8829E-07  0.4121E-03  0.2987E-03  0.9123E+02
   -0.149992   30.16258  0.1027E-13  0.1103E-04  0.7453E-07  0.4853E-03  0.2647E-03  0.4465E+02
   -0.199991   30.16508  0.1027E-13  0.1188E-04  0.6641E-07  0.6498E-03  0.2365E-03  0.2906E+02
   -0.249989   30.16690  0.1027E-13  0.1256E-04  0.6107E-07  0.7751E-03  0.2155E-03  0.2163E+02
   -0.299988   30.16839  0.1027E-13  0.1311E-04  0.5726E-07  0.9001E-03  0.1979E-03  0.1729E+02
   -0.349988   30.16964  0.1027E-13  0.1357E-04  0.5441E-07  0.1013E-02  0.1829E-03  0.1486E+02
   -0.399988   30.17072  0.1027E-13  0.1396E-04  0.5219E-07  0.1117E-02  0.1695E-03  0.1326E+02
   -0.449988   30.17169  0.1027E-13  0.1430E-04  0.5039E-07  0.1212E-02  0.1578E-03  0.1249E+02
   -0.499988   30.17256  0.1027E-13  0.1459E-04  0.4891E-07  0.1301E-02  0.1474E-03  0.1215E+02
   -0.549989   30.17336  0.1027E-13  0.1484E-04  0.4767E-07  0.1381E-02  0.1381E-03  0.1202E+02
   -0.599990   30.17410  0.1027E-13  0.1506E-04  0.4663E-07  0.1454E-02  0.1297E-03  0.1203E+02
   -0.649991   30.17479  0.1027E-13  0.1525E-04  0.4576E-07  0.1519E-02  0.1220E-03  0.1222E+02
   -0.699992   30.17544  0.1027E-13  0.1541E-04  0.4502E-07  0.1577E-02  0.1150E-03  0.1248E+02
   -0.749993   30.17607  0.1027E-13  0.1555E-04  0.4442E-07  0.1627E-02  0.1084E-03  0.1294E+02
   -0.799995   30.17666  0.1027E-13  0.1566E-04  0.4392E-07  0.1670E-02  0.1023E-03  0.1347E+02
   -0.849996   30.17723  0.1027E-13  0.1575E-04  0.4353E-07  0.1704E-02  0.9666E-04  0.1423E+02
   -0.899998   30.17779  0.1027E-13  0.1581E-04  0.4324E-07  0.1731E-02  0.9134E-04  0.1507E+02
   -0.950000   30.17834  0.1027E-13  0.1586E-04  0.4305E-07  0.1749E-02  0.8631E-04  0.1620E+02
   -1.000001   30.17887  0.1027E-13  0.1588E-04  0.4296E-07  0.1759E-02  0.8156E-04  0.1747E+02
   -1.050003   30.17940  0.1027E-13  0.1589E-04  0.4297E-07  0.1759E-02  0.7704E-04  0.1989E+02
   -1.100005   30.17992  0.1027E-13  0.1587E-04  0.4309E-07  0.1848E-02  0.7274E-04  0.6561E+02
   -1.150006   30.18042  0.1027E-13  0.1582E-04  0.4335E-07  0.1672E-02  0.6890E-04  0.1508E+03
   -1.200008   30.18096  0.1027E-13  0.1576E-04  0.4374E-07  0.1699E-02  0.6490E-04  0.2894E+02
   -1.250009   30.18150  0.1027E-13  0.1567E-04  0.4430E-07  0.1668E-02  0.6109E-04  0.3086E+02
   -1.300011   30.18204  0.1027E-13  0.1555E-04  0.4507E-07  0.1617E-02  0.5741E-04  0.3631E+02
   -1.350012   30.18260  0.1027E-13  0.1540E-04  0.4611E-07  0.1558E-02  0.5384E-04  0.4353E+02
   -1.400013   30.18318  0.1027E-13  0.1521E-04  0.4751E-07  0.1479E-02  0.5036E-04  0.5417E+02
   -1.450014   30.18379  0.1027E-13  0.1497E-04  0.4940E-07  0.1403E-02  0.4694E-04  0.6932E+02
   -1.500014   30.18444  0.1027E-13  0.1469E-04  0.5202E-07  0.1289E-02  0.4359E-04  0.9531E+02
   -1.550015   30.18515  0.1027E-13  0.1434E-04  0.5571E-07  0.1208E-02  0.4021E-04  0.1370E+03
   -1.600015   30.18592  0.1027E-13  0.1390E-04  0.6144E-07  0.1059E-02  0.3691E-04  0.3022E+03
   -1.650015   30.18689  0.1027E-13  0.1333E-04  0.7029E-07  0.9849E-03  0.3330E-04  0.1751E+05
   -1.700014   30.18796  0.1027E-13  0.1254E-04  0.8602E-07  0.7975E-03  0.2982E-04 -0.1013E+05
   -1.750013   30.18992  0.1027E-13  0.1152E-04  0.1117E-06  0.7254E-03  0.2512E-04  0.1571E+07
   -1.800012   30.19139  0.1027E-13  0.1017E-04  0.1643E-06  0.5023E-03  0.2164E-04  0.3567E+05
   -1.850010   30.19814  0.1027E-13  0.8649E-05  0.2669E-06  0.4632E-03  0.1539E-04  0.6229E+08
   -1.900008   30.19657  0.1027E-13  0.6891E-05  0.5534E-06  0.2141E-03  0.1256E-04  0.4913E+06
   -1.950006   30.21656  0.1027E-13  0.4813E-05  0.1386E-05  0.1882E-03  0.6788E-05 -0.4758E+07
   -2.000003   30.21937  0.1027E-13  0.0000E+00  0.0000E+00  0.0000E+00  0.1245E-04  0.0000E+00
