 1 - depth, m
 2 - temperature, C
 3 - salinity, kg/kg
 4 - turbulent kinetic energy, m**2/s**2
 5 - dissipation rate, m**2/s**3
 6 - kinematic heat conductance, m**2/s
 7 - modulus of horizontal velocity, m/s
 8 - Richardson number, n/d
   -0.000000   30.65368  0.2168E-14  0.5136E-05  0.3312E-06  0.5275E-04  0.2003E-02  0.3039E+04
   -0.049997   30.68486  0.2168E-14  0.8663E-05  0.1473E-06  0.1771E-03  0.1159E-02  0.2387E+03
   -0.099994   30.69754  0.2168E-14  0.1052E-04  0.1004E-06  0.4057E-03  0.8444E-03  0.1196E+02
   -0.149992   30.70094  0.2168E-14  0.1169E-04  0.8398E-07  0.4844E-03  0.7465E-03  0.5856E+01
   -0.199991   30.70367  0.2168E-14  0.1259E-04  0.7439E-07  0.6511E-03  0.6666E-03  0.3734E+01
   -0.249989   30.70565  0.2168E-14  0.1331E-04  0.6814E-07  0.7784E-03  0.6071E-03  0.2749E+01
   -0.299988   30.70725  0.2168E-14  0.1390E-04  0.6369E-07  0.9069E-03  0.5576E-03  0.2183E+01
   -0.349988   30.70860  0.2168E-14  0.1438E-04  0.6037E-07  0.1023E-02  0.5152E-03  0.1863E+01
   -0.399988   30.70976  0.2168E-14  0.1479E-04  0.5779E-07  0.1129E-02  0.4778E-03  0.1658E+01
   -0.449988   30.71079  0.2168E-14  0.1514E-04  0.5569E-07  0.1228E-02  0.4449E-03  0.1554E+01
   -0.499988   30.71172  0.2168E-14  0.1545E-04  0.5396E-07  0.1318E-02  0.4158E-03  0.1509E+01
   -0.549989   30.71257  0.2168E-14  0.1571E-04  0.5252E-07  0.1401E-02  0.3898E-03  0.1487E+01
   -0.599989   30.71336  0.2168E-14  0.1594E-04  0.5130E-07  0.1477E-02  0.3662E-03  0.1486E+01
   -0.649990   30.71410  0.2168E-14  0.1613E-04  0.5027E-07  0.1544E-02  0.3447E-03  0.1502E+01
   -0.699992   30.71479  0.2168E-14  0.1629E-04  0.4940E-07  0.1604E-02  0.3249E-03  0.1535E+01
   -0.749993   30.71544  0.2168E-14  0.1643E-04  0.4868E-07  0.1656E-02  0.3066E-03  0.1583E+01
   -0.799994   30.71607  0.2168E-14  0.1654E-04  0.4808E-07  0.1700E-02  0.2896E-03  0.1649E+01
   -0.849996   30.71668  0.2168E-14  0.1663E-04  0.4759E-07  0.1735E-02  0.2737E-03  0.1731E+01
   -0.899998   30.71726  0.2168E-14  0.1669E-04  0.4722E-07  0.1763E-02  0.2588E-03  0.1835E+01
   -0.949999   30.71784  0.2168E-14  0.1673E-04  0.4696E-07  0.1782E-02  0.2447E-03  0.1962E+01
   -1.000001   30.71840  0.2168E-14  0.1675E-04  0.4681E-07  0.1793E-02  0.2314E-03  0.2118E+01
   -1.050003   30.71895  0.2168E-14  0.1674E-04  0.4677E-07  0.1794E-02  0.2188E-03  0.2397E+01
   -1.100004   30.71950  0.2168E-14  0.1672E-04  0.4685E-07  0.1885E-02  0.2067E-03  0.7918E+01
   -1.150006   30.72001  0.2168E-14  0.1666E-04  0.4709E-07  0.1704E-02  0.1959E-03  0.1818E+02
   -1.200007   30.72058  0.2168E-14  0.1659E-04  0.4746E-07  0.1733E-02  0.1847E-03  0.3469E+01
   -1.250009   30.72114  0.2168E-14  0.1648E-04  0.4802E-07  0.1702E-02  0.1740E-03  0.3696E+01
   -1.300010   30.72170  0.2168E-14  0.1635E-04  0.4882E-07  0.1651E-02  0.1637E-03  0.4329E+01
   -1.350011   30.72228  0.2168E-14  0.1618E-04  0.4990E-07  0.1591E-02  0.1536E-03  0.5195E+01
   -1.400012   30.72288  0.2168E-14  0.1597E-04  0.5139E-07  0.1511E-02  0.1439E-03  0.6444E+01
   -1.450013   30.72351  0.2168E-14  0.1572E-04  0.5341E-07  0.1433E-02  0.1342E-03  0.8267E+01
   -1.500014   30.72418  0.2168E-14  0.1541E-04  0.5624E-07  0.1319E-02  0.1248E-03  0.1136E+02
   -1.550014   30.72491  0.2168E-14  0.1503E-04  0.6027E-07  0.1236E-02  0.1152E-03  0.1664E+02
   -1.600014   30.72570  0.2168E-14  0.1456E-04  0.6660E-07  0.1091E-02  0.1059E-03  0.3875E+02
   -1.650014   30.72670  0.2168E-14  0.1394E-04  0.7650E-07  0.1007E-02  0.9565E-04  0.1300E+04
   -1.700013   30.72785  0.2168E-14  0.1309E-04  0.9376E-07  0.8215E-03  0.8553E-04  0.1657E+04
   -1.750013   30.72983  0.2168E-14  0.1202E-04  0.1218E-06  0.7466E-03  0.7228E-04  0.6241E+05
   -1.800011   30.73139  0.2168E-14  0.1063E-04  0.1812E-06  0.5198E-03  0.6230E-04 -0.5252E+04
   -1.850010   30.73822  0.2168E-14  0.9105E-05  0.2942E-06  0.4825E-03  0.4471E-04  0.5627E+07
   -1.900007   30.73646  0.2168E-14  0.7279E-05  0.6136E-06  0.2197E-03  0.3680E-04 -0.6584E+03
   -1.950005   30.75689  0.2168E-14  0.5097E-05  0.1512E-05  0.1952E-03  0.2011E-04 -0.3312E+06
   -2.000002   30.75891  0.2168E-14  0.0000E+00  0.0000E+00  0.0000E+00  0.3664E-04  0.0000E+00
