 1 - depth, m
 2 - temperature, C
 3 - salinity, kg/kg
 4 - turbulent kinetic energy, m**2/s**2
 5 - dissipation rate, m**2/s**3
 6 - kinematic heat conductance, m**2/s
 7 - modulus of horizontal velocity, m/s
 8 - Richardson number, n/d
   -0.000000   30.59137  0.5340E-14  0.4840E-05  0.3014E-06  0.5018E-04  0.1376E-02  0.1449E+05
   -0.049997   30.62203  0.5340E-14  0.8320E-05  0.1344E-06  0.1797E-03  0.7818E-03  0.1225E+03
   -0.099994   30.63360  0.5340E-14  0.1009E-04  0.9274E-07  0.4000E-03  0.5748E-03  0.2528E+02
   -0.149992   30.63684  0.5340E-14  0.1121E-04  0.7784E-07  0.4829E-03  0.5077E-03  0.1242E+02
   -0.199991   30.63941  0.5340E-14  0.1208E-04  0.6913E-07  0.6454E-03  0.4535E-03  0.7959E+01
   -0.249989   30.64128  0.5340E-14  0.1277E-04  0.6343E-07  0.7714E-03  0.4129E-03  0.5867E+01
   -0.299988   30.64280  0.5340E-14  0.1334E-04  0.5938E-07  0.8974E-03  0.3792E-03  0.4673E+01
   -0.349988   30.64407  0.5340E-14  0.1381E-04  0.5635E-07  0.1011E-02  0.3503E-03  0.3990E+01
   -0.399988   30.64518  0.5340E-14  0.1420E-04  0.5400E-07  0.1116E-02  0.3248E-03  0.3559E+01
   -0.449988   30.64616  0.5340E-14  0.1454E-04  0.5209E-07  0.1212E-02  0.3023E-03  0.3334E+01
   -0.499988   30.64704  0.5340E-14  0.1484E-04  0.5051E-07  0.1301E-02  0.2824E-03  0.3246E+01
   -0.549989   30.64785  0.5340E-14  0.1510E-04  0.4920E-07  0.1383E-02  0.2646E-03  0.3195E+01
   -0.599989   30.64860  0.5340E-14  0.1532E-04  0.4810E-07  0.1457E-02  0.2485E-03  0.3202E+01
   -0.649990   30.64930  0.5340E-14  0.1551E-04  0.4718E-07  0.1523E-02  0.2338E-03  0.3235E+01
   -0.699992   30.64996  0.5340E-14  0.1567E-04  0.4640E-07  0.1581E-02  0.2203E-03  0.3315E+01
   -0.749993   30.65059  0.5340E-14  0.1581E-04  0.4576E-07  0.1632E-02  0.2078E-03  0.3416E+01
   -0.799994   30.65119  0.5340E-14  0.1592E-04  0.4523E-07  0.1675E-02  0.1962E-03  0.3569E+01
   -0.849996   30.65177  0.5340E-14  0.1601E-04  0.4481E-07  0.1710E-02  0.1854E-03  0.3745E+01
   -0.899998   30.65233  0.5340E-14  0.1608E-04  0.4450E-07  0.1737E-02  0.1752E-03  0.3983E+01
   -0.949999   30.65288  0.5340E-14  0.1612E-04  0.4429E-07  0.1756E-02  0.1656E-03  0.4257E+01
   -1.000001   30.65342  0.5340E-14  0.1615E-04  0.4419E-07  0.1766E-02  0.1565E-03  0.4611E+01
   -1.050003   30.65395  0.5340E-14  0.1615E-04  0.4419E-07  0.1767E-02  0.1479E-03  0.5220E+01
   -1.100004   30.65447  0.5340E-14  0.1613E-04  0.4430E-07  0.1856E-02  0.1396E-03  0.1732E+02
   -1.150006   30.65497  0.5340E-14  0.1608E-04  0.4457E-07  0.1680E-02  0.1323E-03  0.3956E+02
   -1.200008   30.65552  0.5340E-14  0.1602E-04  0.4496E-07  0.1707E-02  0.1246E-03  0.7577E+01
   -1.250009   30.65606  0.5340E-14  0.1592E-04  0.4553E-07  0.1676E-02  0.1173E-03  0.8108E+01
   -1.300010   30.65661  0.5340E-14  0.1580E-04  0.4632E-07  0.1625E-02  0.1103E-03  0.9492E+01
   -1.350012   30.65717  0.5340E-14  0.1565E-04  0.4739E-07  0.1566E-02  0.1035E-03  0.1142E+02
   -1.400013   30.65776  0.5340E-14  0.1545E-04  0.4882E-07  0.1487E-02  0.9684E-04  0.1413E+02
   -1.450014   30.65837  0.5340E-14  0.1522E-04  0.5076E-07  0.1410E-02  0.9029E-04  0.1813E+02
   -1.500014   30.65902  0.5340E-14  0.1493E-04  0.5345E-07  0.1296E-02  0.8387E-04  0.2480E+02
   -1.550014   30.65974  0.5340E-14  0.1457E-04  0.5724E-07  0.1214E-02  0.7739E-04  0.3574E+02
   -1.600015   30.66052  0.5340E-14  0.1413E-04  0.6311E-07  0.1066E-02  0.7107E-04  0.7781E+02
   -1.650014   30.66149  0.5340E-14  0.1355E-04  0.7217E-07  0.9891E-03  0.6418E-04  0.6530E+04
   -1.700014   30.66257  0.5340E-14  0.1275E-04  0.8819E-07  0.8043E-03  0.5752E-04  0.1024E+04
   -1.750013   30.66451  0.5340E-14  0.1171E-04  0.1145E-06  0.7289E-03  0.4858E-04  0.4805E+05
   -1.800012   30.66605  0.5340E-14  0.1033E-04  0.1706E-06  0.5117E-03  0.4179E-04  0.3978E+05
   -1.850010   30.67272  0.5340E-14  0.8775E-05  0.2763E-06  0.4664E-03  0.2982E-04  0.9976E+07
   -1.900008   30.67134  0.5340E-14  0.6932E-05  0.5778E-06  0.2114E-03  0.2425E-04  0.9725E+06
   -1.950005   30.69154  0.5340E-14  0.4879E-05  0.1435E-05  0.1919E-03  0.1300E-04 -0.6756E+06
   -2.000002   30.69405  0.5340E-14  0.0000E+00  0.0000E+00  0.0000E+00  0.2407E-04  0.0000E+00
