 1 - depth, m
 2 - temperature, C
 3 - salinity, kg/kg
 4 - turbulent kinetic energy, m**2/s**2
 5 - dissipation rate, m**2/s**3
 6 - kinematic heat conductance, m**2/s
 7 - modulus of horizontal velocity, m/s
 8 - Richardson number, n/d
   -0.000000   30.23115  0.1185E-14  0.4986E-05  0.3160E-06  0.5187E-04  0.1781E-02  0.3462E+04
   -0.049997   30.26182  0.1185E-14  0.8477E-05  0.1406E-06  0.1781E-03  0.1021E-02  0.1635E+04
   -0.099994   30.27396  0.1185E-14  0.1030E-04  0.9635E-07  0.4034E-03  0.7485E-03  0.1612E+02
   -0.149992   30.27728  0.1185E-14  0.1144E-04  0.8072E-07  0.4838E-03  0.6616E-03  0.7902E+01
   -0.199991   30.27994  0.1185E-14  0.1232E-04  0.7160E-07  0.6488E-03  0.5910E-03  0.5059E+01
   -0.249989   30.28187  0.1185E-14  0.1303E-04  0.6566E-07  0.7758E-03  0.5384E-03  0.3723E+01
   -0.299988   30.28344  0.1185E-14  0.1361E-04  0.6144E-07  0.9033E-03  0.4945E-03  0.2965E+01
   -0.349988   30.28475  0.1185E-14  0.1409E-04  0.5829E-07  0.1018E-02  0.4570E-03  0.2528E+01
   -0.399988   30.28589  0.1185E-14  0.1450E-04  0.5585E-07  0.1124E-02  0.4238E-03  0.2258E+01
   -0.449988   30.28691  0.1185E-14  0.1485E-04  0.5387E-07  0.1222E-02  0.3947E-03  0.2113E+01
   -0.499988   30.28782  0.1185E-14  0.1516E-04  0.5223E-07  0.1312E-02  0.3688E-03  0.2063E+01
   -0.549989   30.28866  0.1185E-14  0.1542E-04  0.5087E-07  0.1395E-02  0.3456E-03  0.2028E+01
   -0.599989   30.28944  0.1185E-14  0.1565E-04  0.4973E-07  0.1470E-02  0.3246E-03  0.2035E+01
   -0.649990   30.29016  0.1185E-14  0.1584E-04  0.4877E-07  0.1537E-02  0.3054E-03  0.2050E+01
   -0.699992   30.29084  0.1185E-14  0.1601E-04  0.4796E-07  0.1596E-02  0.2878E-03  0.2103E+01
   -0.749993   30.29149  0.1185E-14  0.1615E-04  0.4730E-07  0.1648E-02  0.2716E-03  0.2160E+01
   -0.799994   30.29211  0.1185E-14  0.1627E-04  0.4675E-07  0.1691E-02  0.2565E-03  0.2259E+01
   -0.849996   30.29271  0.1185E-14  0.1636E-04  0.4632E-07  0.1727E-02  0.2424E-03  0.2364E+01
   -0.899998   30.29330  0.1185E-14  0.1643E-04  0.4600E-07  0.1754E-02  0.2291E-03  0.2516E+01
   -0.949999   30.29386  0.1185E-14  0.1647E-04  0.4578E-07  0.1773E-02  0.2167E-03  0.2683E+01
   -1.000001   30.29442  0.1185E-14  0.1650E-04  0.4567E-07  0.1784E-02  0.2049E-03  0.2910E+01
   -1.050003   30.29497  0.1185E-14  0.1650E-04  0.4567E-07  0.1784E-02  0.1937E-03  0.3285E+01
   -1.100004   30.29552  0.1185E-14  0.1648E-04  0.4579E-07  0.1875E-02  0.1830E-03  0.1090E+02
   -1.150006   30.29603  0.1185E-14  0.1643E-04  0.4605E-07  0.1694E-02  0.1734E-03  0.2495E+02
   -1.200008   30.29660  0.1185E-14  0.1636E-04  0.4646E-07  0.1723E-02  0.1635E-03  0.4766E+01
   -1.250009   30.29716  0.1185E-14  0.1627E-04  0.4705E-07  0.1692E-02  0.1539E-03  0.5104E+01
   -1.300011   30.29772  0.1185E-14  0.1614E-04  0.4786E-07  0.1641E-02  0.1448E-03  0.5969E+01
   -1.350012   30.29830  0.1185E-14  0.1598E-04  0.4897E-07  0.1580E-02  0.1359E-03  0.7186E+01
   -1.400013   30.29891  0.1185E-14  0.1578E-04  0.5046E-07  0.1501E-02  0.1272E-03  0.8897E+01
   -1.450014   30.29954  0.1185E-14  0.1554E-04  0.5247E-07  0.1423E-02  0.1187E-03  0.1143E+02
   -1.500014   30.30022  0.1185E-14  0.1524E-04  0.5528E-07  0.1308E-02  0.1103E-03  0.1565E+02
   -1.550014   30.30096  0.1185E-14  0.1487E-04  0.5924E-07  0.1226E-02  0.1018E-03  0.2269E+02
   -1.600015   30.30176  0.1185E-14  0.1441E-04  0.6535E-07  0.1078E-02  0.9357E-04  0.4667E+02
   -1.650014   30.30276  0.1185E-14  0.1381E-04  0.7481E-07  0.1001E-02  0.8457E-04  0.2087E+04
   -1.700014   30.30389  0.1185E-14  0.1299E-04  0.9161E-07  0.8131E-03  0.7579E-04  0.8935E+04
   -1.750013   30.30592  0.1185E-14  0.1193E-04  0.1190E-06  0.7407E-03  0.6399E-04  0.9618E+05
   -1.800012   30.30748  0.1185E-14  0.1051E-04  0.1782E-06  0.5092E-03  0.5517E-04  0.2832E+05
   -1.850010   30.31458  0.1185E-14  0.8954E-05  0.2888E-06  0.4781E-03  0.3931E-04  0.5139E+08
   -1.900008   30.31283  0.1185E-14  0.7127E-05  0.6000E-06  0.2182E-03  0.3225E-04 -0.4388E+07
   -1.950005   30.33393  0.1185E-14  0.5013E-05  0.1492E-05  0.1945E-03  0.1746E-04 -0.3454E+06
   -2.000002   30.33563  0.1185E-14  0.0000E+00  0.0000E+00  0.0000E+00  0.3207E-04  0.0000E+00
