 1 - depth, m
 2 - temperature, C
 3 - salinity, kg/kg
 4 - turbulent kinetic energy, m**2/s**2
 5 - dissipation rate, m**2/s**3
 6 - kinematic heat conductance, m**2/s
 7 - modulus of horizontal velocity, m/s
 8 - Richardson number, n/d
   -0.000000   29.35751  0.6564E-14  0.5141E-05  0.2789E-06  0.5026E-04  0.3530E-02  0.5142E+03
   -0.049997   29.38693  0.6564E-14  0.8254E-05  0.1209E-06  0.1995E-03  0.1893E-02  0.3030E+02
   -0.099994   29.39563  0.6564E-14  0.9678E-05  0.8627E-07  0.3757E-03  0.1494E-02  0.4298E+01
   -0.149992   29.39886  0.6564E-14  0.1062E-04  0.7283E-07  0.4716E-03  0.1331E-02  0.2235E+01
   -0.199991   29.40133  0.6564E-14  0.1137E-04  0.6496E-07  0.6005E-03  0.1205E-02  0.1522E+01
   -0.249990   29.40321  0.6564E-14  0.1199E-04  0.5974E-07  0.7047E-03  0.1106E-02  0.1277E+01
   -0.299989   29.40478  0.6564E-14  0.1253E-04  0.5581E-07  0.8150E-03  0.1019E-02  0.1294E+01
   -0.349988   29.40609  0.6564E-14  0.1303E-04  0.5259E-07  0.9420E-03  0.9355E-03  0.1376E+01
   -0.399988   29.40720  0.6564E-14  0.1350E-04  0.4991E-07  0.1075E-02  0.8540E-03  0.1401E+01
   -0.449988   29.40815  0.6564E-14  0.1391E-04  0.4766E-07  0.1205E-02  0.7786E-03  0.1408E+01
   -0.499988   29.40898  0.6564E-14  0.1428E-04  0.4578E-07  0.1327E-02  0.7109E-03  0.1410E+01
   -0.549989   29.40973  0.6564E-14  0.1459E-04  0.4422E-07  0.1439E-02  0.6504E-03  0.1402E+01
   -0.599990   29.41040  0.6564E-14  0.1486E-04  0.4293E-07  0.1539E-02  0.5963E-03  0.1390E+01
   -0.649991   29.41101  0.6564E-14  0.1507E-04  0.4186E-07  0.1627E-02  0.5480E-03  0.1372E+01
   -0.699992   29.41159  0.6564E-14  0.1524E-04  0.4099E-07  0.1701E-02  0.5046E-03  0.1352E+01
   -0.749994   29.41213  0.6564E-14  0.1537E-04  0.4028E-07  0.1761E-02  0.4659E-03  0.1327E+01
   -0.799995   29.41264  0.6564E-14  0.1546E-04  0.3972E-07  0.1808E-02  0.4311E-03  0.1300E+01
   -0.849997   29.41313  0.6564E-14  0.1552E-04  0.3930E-07  0.1841E-02  0.3999E-03  0.1268E+01
   -0.899998   29.41361  0.6564E-14  0.1555E-04  0.3899E-07  0.1861E-02  0.3720E-03  0.1235E+01
   -0.950000   29.41408  0.6564E-14  0.1555E-04  0.3881E-07  0.1868E-02  0.3470E-03  0.1197E+01
   -1.000002   29.41454  0.6564E-14  0.1552E-04  0.3872E-07  0.1865E-02  0.3245E-03  0.1161E+01
   -1.050004   29.41499  0.6564E-14  0.1548E-04  0.3874E-07  0.1849E-02  0.3044E-03  0.1148E+01
   -1.100005   29.41544  0.6564E-14  0.1542E-04  0.3885E-07  0.1985E-02  0.2865E-03  0.3157E+01
   -1.150007   29.41586  0.6564E-14  0.1534E-04  0.3908E-07  0.1694E-02  0.2723E-03  0.7784E+01
   -1.200009   29.41634  0.6564E-14  0.1523E-04  0.3941E-07  0.1762E-02  0.2566E-03  0.1432E+01
   -1.250010   29.41680  0.6564E-14  0.1511E-04  0.3990E-07  0.1727E-02  0.2419E-03  0.1511E+01
   -1.300011   29.41726  0.6564E-14  0.1495E-04  0.4058E-07  0.1668E-02  0.2277E-03  0.1767E+01
   -1.350013   29.41774  0.6564E-14  0.1477E-04  0.4151E-07  0.1600E-02  0.2139E-03  0.2123E+01
   -1.400014   29.41823  0.6564E-14  0.1455E-04  0.4277E-07  0.1513E-02  0.2005E-03  0.2632E+01
   -1.450015   29.41875  0.6564E-14  0.1429E-04  0.4448E-07  0.1429E-02  0.1871E-03  0.3380E+01
   -1.500015   29.41929  0.6564E-14  0.1398E-04  0.4688E-07  0.1308E-02  0.1740E-03  0.4640E+01
   -1.550016   29.41989  0.6564E-14  0.1360E-04  0.5030E-07  0.1223E-02  0.1607E-03  0.6732E+01
   -1.600016   29.42054  0.6564E-14  0.1315E-04  0.5564E-07  0.1073E-02  0.1477E-03  0.1445E+02
   -1.650015   29.42135  0.6564E-14  0.1256E-04  0.6405E-07  0.9925E-03  0.1334E-03  0.1968E+04
   -1.700015   29.42227  0.6564E-14  0.1175E-04  0.7891E-07  0.8066E-03  0.1194E-03  0.1296E+05
   -1.750014   29.42393  0.6564E-14  0.1070E-04  0.1032E-06  0.7224E-03  0.1004E-03  0.3281E+04
   -1.800013   29.42521  0.6564E-14  0.9314E-05  0.1567E-06  0.4966E-03  0.8603E-04  0.3484E+05
   -1.850011   29.43101  0.6564E-14  0.7859E-05  0.2532E-06  0.4617E-03  0.6029E-04  0.2400E+08
   -1.900009   29.42926  0.6564E-14  0.6223E-05  0.5273E-06  0.2146E-03  0.4959E-04 -0.5516E+05
   -1.950007   29.44592  0.6564E-14  0.4350E-05  0.1305E-05  0.1931E-03  0.2640E-04 -0.2470E+06
   -2.000004   29.44714  0.6564E-14  0.0000E+00  0.0000E+00  0.0000E+00  0.5085E-04  0.0000E+00
