 1 - depth, m
 2 - temperature, C
 3 - salinity, kg/kg
 4 - turbulent kinetic energy, m**2/s**2
 5 - dissipation rate, m**2/s**3
 6 - kinematic heat conductance, m**2/s
 7 - modulus of horizontal velocity, m/s
 8 - Richardson number, n/d
   -0.000000   30.44479  0.1377E-13  0.5690E-05  0.3222E-06  0.5453E-04  0.3877E-02  0.6389E+03
   -0.049997   30.47573  0.1377E-13  0.9052E-05  0.1385E-06  0.2096E-03  0.2089E-02  0.2049E+03
   -0.099994   30.48484  0.1377E-13  0.1057E-04  0.9908E-07  0.3887E-03  0.1666E-02  0.3708E+01
   -0.149992   30.48832  0.1377E-13  0.1159E-04  0.8371E-07  0.4857E-03  0.1491E-02  0.1963E+01
   -0.199991   30.49098  0.1377E-13  0.1240E-04  0.7474E-07  0.6133E-03  0.1355E-02  0.1371E+01
   -0.249989   30.49303  0.1377E-13  0.1308E-04  0.6872E-07  0.7186E-03  0.1247E-02  0.1251E+01
   -0.299988   30.49473  0.1377E-13  0.1370E-04  0.6409E-07  0.8408E-03  0.1149E-02  0.1328E+01
   -0.349988   30.49614  0.1377E-13  0.1428E-04  0.6027E-07  0.9820E-03  0.1054E-02  0.1419E+01
   -0.399988   30.49732  0.1377E-13  0.1482E-04  0.5710E-07  0.1128E-02  0.9602E-03  0.1444E+01
   -0.449988   30.49832  0.1377E-13  0.1530E-04  0.5445E-07  0.1271E-02  0.8738E-03  0.1450E+01
   -0.499988   30.49920  0.1377E-13  0.1572E-04  0.5226E-07  0.1405E-02  0.7963E-03  0.1450E+01
   -0.549989   30.49997  0.1377E-13  0.1608E-04  0.5045E-07  0.1527E-02  0.7271E-03  0.1439E+01
   -0.599989   30.50067  0.1377E-13  0.1638E-04  0.4897E-07  0.1637E-02  0.6653E-03  0.1425E+01
   -0.649991   30.50131  0.1377E-13  0.1662E-04  0.4775E-07  0.1731E-02  0.6101E-03  0.1405E+01
   -0.699992   30.50190  0.1377E-13  0.1681E-04  0.4677E-07  0.1810E-02  0.5607E-03  0.1382E+01
   -0.749993   30.50247  0.1377E-13  0.1695E-04  0.4599E-07  0.1873E-02  0.5166E-03  0.1355E+01
   -0.799995   30.50300  0.1377E-13  0.1705E-04  0.4540E-07  0.1919E-02  0.4771E-03  0.1326E+01
   -0.849996   30.50352  0.1377E-13  0.1710E-04  0.4496E-07  0.1950E-02  0.4418E-03  0.1293E+01
   -0.899998   30.50401  0.1377E-13  0.1712E-04  0.4468E-07  0.1966E-02  0.4102E-03  0.1257E+01
   -0.949999   30.50450  0.1377E-13  0.1711E-04  0.4453E-07  0.1968E-02  0.3819E-03  0.1219E+01
   -1.000001   30.50499  0.1377E-13  0.1708E-04  0.4451E-07  0.1958E-02  0.3566E-03  0.1177E+01
   -1.050003   30.50547  0.1377E-13  0.1701E-04  0.4461E-07  0.1929E-02  0.3339E-03  0.1141E+01
   -1.100005   30.50595  0.1377E-13  0.1694E-04  0.4482E-07  0.2100E-02  0.3139E-03  0.2787E+01
   -1.150006   30.50639  0.1377E-13  0.1684E-04  0.4517E-07  0.1731E-02  0.2990E-03  0.7257E+01
   -1.200008   30.50692  0.1377E-13  0.1671E-04  0.4565E-07  0.1825E-02  0.2821E-03  0.1312E+01
   -1.250009   30.50741  0.1377E-13  0.1656E-04  0.4633E-07  0.1786E-02  0.2663E-03  0.1378E+01
   -1.300011   30.50791  0.1377E-13  0.1638E-04  0.4725E-07  0.1720E-02  0.2511E-03  0.1623E+01
   -1.350012   30.50843  0.1377E-13  0.1616E-04  0.4849E-07  0.1643E-02  0.2363E-03  0.1967E+01
   -1.400013   30.50897  0.1377E-13  0.1590E-04  0.5017E-07  0.1548E-02  0.2218E-03  0.2473E+01
   -1.450014   30.50954  0.1377E-13  0.1559E-04  0.5246E-07  0.1454E-02  0.2074E-03  0.3232E+01
   -1.500014   30.51015  0.1377E-13  0.1522E-04  0.5569E-07  0.1328E-02  0.1931E-03  0.4542E+01
   -1.550015   30.51083  0.1377E-13  0.1477E-04  0.6035E-07  0.1235E-02  0.1785E-03  0.7058E+01
   -1.600015   30.51157  0.1377E-13  0.1421E-04  0.6778E-07  0.1084E-02  0.1641E-03  0.1252E+04
   -1.650014   30.51255  0.1377E-13  0.1349E-04  0.7964E-07  0.9902E-03  0.1479E-03  0.5916E+03
   -1.700014   30.51372  0.1377E-13  0.1249E-04  0.1005E-06  0.8060E-03  0.1312E-03  0.8432E+03
   -1.750013   30.51570  0.1377E-13  0.1129E-04  0.1332E-06  0.7161E-03  0.1098E-03  0.3117E+05
   -1.800012   30.51723  0.1377E-13  0.9698E-05  0.2075E-06  0.4887E-03  0.9384E-04  0.4845E+05
   -1.850010   30.52488  0.1377E-13  0.8133E-05  0.3408E-06  0.4600E-03  0.6414E-04  0.2697E+08
   -1.900008   30.52191  0.1377E-13  0.6372E-05  0.7104E-06  0.2065E-03  0.5303E-04 -0.1355E+05
   -1.950005   30.54320  0.1377E-13  0.4566E-05  0.1691E-05  0.2209E-03  0.2725E-04 -0.2900E+05
   -2.000002   30.54150  0.1377E-13  0.0000E+00  0.0000E+00  0.0000E+00  0.5679E-04  0.0000E+00
