 1 - depth, m
 2 - temperature, C
 3 - salinity, kg/kg
 4 - turbulent kinetic energy, m**2/s**2
 5 - dissipation rate, m**2/s**3
 6 - kinematic heat conductance, m**2/s
 7 - modulus of horizontal velocity, m/s
 8 - Richardson number, n/d
   -0.000000   30.63117  0.1149E-13  0.5203E-05  0.3223E-06  0.5212E-04  0.2239E-02  0.3342E+04
   -0.049997   30.66241  0.1149E-13  0.8731E-05  0.1425E-06  0.1890E-03  0.1240E-02  0.3538E+02
   -0.099994   30.67356  0.1149E-13  0.1050E-04  0.9897E-07  0.4002E-03  0.9342E-03  0.1070E+02
   -0.149992   30.67695  0.1149E-13  0.1163E-04  0.8290E-07  0.4901E-03  0.8254E-03  0.5362E+01
   -0.199991   30.67960  0.1149E-13  0.1251E-04  0.7352E-07  0.6502E-03  0.7389E-03  0.3442E+01
   -0.249989   30.68153  0.1149E-13  0.1322E-04  0.6740E-07  0.7775E-03  0.6737E-03  0.2553E+01
   -0.299988   30.68311  0.1149E-13  0.1380E-04  0.6306E-07  0.9027E-03  0.6195E-03  0.2032E+01
   -0.349988   30.68444  0.1149E-13  0.1428E-04  0.5981E-07  0.1014E-02  0.5729E-03  0.1762E+01
   -0.399988   30.68560  0.1149E-13  0.1469E-04  0.5726E-07  0.1117E-02  0.5315E-03  0.1618E+01
   -0.449988   30.68663  0.1149E-13  0.1506E-04  0.5516E-07  0.1221E-02  0.4940E-03  0.1571E+01
   -0.499988   30.68755  0.1149E-13  0.1538E-04  0.5340E-07  0.1318E-02  0.4602E-03  0.1547E+01
   -0.549989   30.68839  0.1149E-13  0.1566E-04  0.5192E-07  0.1407E-02  0.4297E-03  0.1543E+01
   -0.599989   30.68916  0.1149E-13  0.1590E-04  0.5069E-07  0.1489E-02  0.4020E-03  0.1536E+01
   -0.649990   30.68988  0.1149E-13  0.1611E-04  0.4966E-07  0.1561E-02  0.3768E-03  0.1550E+01
   -0.699992   30.69056  0.1149E-13  0.1628E-04  0.4880E-07  0.1625E-02  0.3538E-03  0.1558E+01
   -0.749993   30.69120  0.1149E-13  0.1643E-04  0.4809E-07  0.1679E-02  0.3328E-03  0.1591E+01
   -0.799994   30.69181  0.1149E-13  0.1655E-04  0.4753E-07  0.1724E-02  0.3136E-03  0.1619E+01
   -0.849996   30.69240  0.1149E-13  0.1664E-04  0.4709E-07  0.1759E-02  0.2959E-03  0.1682E+01
   -0.899998   30.69298  0.1149E-13  0.1670E-04  0.4676E-07  0.1785E-02  0.2795E-03  0.1748E+01
   -0.949999   30.69354  0.1149E-13  0.1675E-04  0.4655E-07  0.1802E-02  0.2642E-03  0.1870E+01
   -1.000001   30.69409  0.1149E-13  0.1677E-04  0.4644E-07  0.1812E-02  0.2499E-03  0.2003E+01
   -1.050003   30.69463  0.1149E-13  0.1677E-04  0.4645E-07  0.1811E-02  0.2363E-03  0.2288E+01
   -1.100004   30.69517  0.1149E-13  0.1674E-04  0.4657E-07  0.1908E-02  0.2234E-03  0.7484E+01
   -1.150006   30.69568  0.1149E-13  0.1669E-04  0.4685E-07  0.1713E-02  0.2119E-03  0.1735E+02
   -1.200007   30.69625  0.1149E-13  0.1662E-04  0.4727E-07  0.1746E-02  0.1997E-03  0.3335E+01
   -1.250009   30.69680  0.1149E-13  0.1652E-04  0.4788E-07  0.1715E-02  0.1882E-03  0.3534E+01
   -1.300010   30.69736  0.1149E-13  0.1639E-04  0.4871E-07  0.1663E-02  0.1771E-03  0.4182E+01
   -1.350011   30.69794  0.1149E-13  0.1623E-04  0.4984E-07  0.1601E-02  0.1663E-03  0.4990E+01
   -1.400012   30.69853  0.1149E-13  0.1602E-04  0.5137E-07  0.1521E-02  0.1557E-03  0.6244E+01
   -1.450013   30.69916  0.1149E-13  0.1578E-04  0.5343E-07  0.1439E-02  0.1453E-03  0.7972E+01
   -1.500014   30.69983  0.1149E-13  0.1547E-04  0.5629E-07  0.1327E-02  0.1351E-03  0.1102E+02
   -1.550014   30.70057  0.1149E-13  0.1510E-04  0.6035E-07  0.1238E-02  0.1249E-03  0.1607E+02
   -1.600014   30.70137  0.1149E-13  0.1464E-04  0.6657E-07  0.1095E-02  0.1147E-03  0.5977E+02
   -1.650014   30.70236  0.1149E-13  0.1403E-04  0.7630E-07  0.1007E-02  0.1038E-03  0.1286E+04
   -1.700013   30.70352  0.1149E-13  0.1320E-04  0.9318E-07  0.8289E-03  0.9282E-04  0.1490E+05
   -1.750013   30.70544  0.1149E-13  0.1214E-04  0.1206E-06  0.7434E-03  0.7894E-04  0.1096E+05
   -1.800011   30.70705  0.1149E-13  0.1070E-04  0.1805E-06  0.5215E-03  0.6789E-04  0.1468E+06
   -1.850010   30.71401  0.1149E-13  0.9146E-05  0.2910E-06  0.4808E-03  0.4882E-04  0.4607E+09
   -1.900007   30.71234  0.1149E-13  0.7269E-05  0.6005E-06  0.2186E-03  0.3995E-04 -0.2828E+05
   -1.950005   30.73359  0.1149E-13  0.5110E-05  0.1492E-05  0.1953E-03  0.2174E-04 -0.5035E+05
   -2.000002   30.73481  0.1149E-13  0.0000E+00  0.0000E+00  0.0000E+00  0.3941E-04  0.0000E+00
