 1 - depth, m
 2 - temperature, C
 3 - salinity, kg/kg
 4 - turbulent kinetic energy, m**2/s**2
 5 - dissipation rate, m**2/s**3
 6 - kinematic heat conductance, m**2/s
 7 - modulus of horizontal velocity, m/s
 8 - Richardson number, n/d
   -0.000000   30.64938  0.1506E-13  0.5144E-05  0.3336E-06  0.5224E-04  0.1488E-02  0.7200E+04
   -0.049997   30.68194  0.1506E-13  0.8787E-05  0.1486E-06  0.1816E-03  0.8535E-03  0.3164E+03
   -0.099994   30.69468  0.1506E-13  0.1067E-04  0.1020E-06  0.4093E-03  0.6254E-03  0.2303E+02
   -0.149992   30.69815  0.1506E-13  0.1186E-04  0.8542E-07  0.4902E-03  0.5528E-03  0.1134E+02
   -0.199990   30.70093  0.1506E-13  0.1278E-04  0.7575E-07  0.6582E-03  0.4939E-03  0.7245E+01
   -0.249989   30.70293  0.1506E-13  0.1351E-04  0.6945E-07  0.7863E-03  0.4500E-03  0.5360E+01
   -0.299988   30.70456  0.1506E-13  0.1410E-04  0.6497E-07  0.9157E-03  0.4135E-03  0.4257E+01
   -0.349988   30.70593  0.1506E-13  0.1460E-04  0.6161E-07  0.1032E-02  0.3822E-03  0.3647E+01
   -0.399987   30.70711  0.1506E-13  0.1501E-04  0.5901E-07  0.1139E-02  0.3546E-03  0.3242E+01
   -0.449987   30.70816  0.1506E-13  0.1537E-04  0.5690E-07  0.1238E-02  0.3303E-03  0.3047E+01
   -0.499988   30.70911  0.1506E-13  0.1568E-04  0.5515E-07  0.1329E-02  0.3088E-03  0.2954E+01
   -0.549988   30.70998  0.1506E-13  0.1594E-04  0.5370E-07  0.1412E-02  0.2895E-03  0.2921E+01
   -0.599989   30.71078  0.1506E-13  0.1617E-04  0.5247E-07  0.1487E-02  0.2721E-03  0.2912E+01
   -0.649990   30.71153  0.1506E-13  0.1637E-04  0.5144E-07  0.1554E-02  0.2561E-03  0.2956E+01
   -0.699991   30.71223  0.1506E-13  0.1654E-04  0.5058E-07  0.1613E-02  0.2415E-03  0.3013E+01
   -0.749992   30.71290  0.1506E-13  0.1667E-04  0.4986E-07  0.1665E-02  0.2280E-03  0.3122E+01
   -0.799994   30.71354  0.1506E-13  0.1679E-04  0.4926E-07  0.1708E-02  0.2154E-03  0.3243E+01
   -0.849995   30.71416  0.1506E-13  0.1687E-04  0.4879E-07  0.1743E-02  0.2036E-03  0.3423E+01
   -0.899997   30.71476  0.1506E-13  0.1694E-04  0.4844E-07  0.1770E-02  0.1926E-03  0.3620E+01
   -0.949999   30.71534  0.1506E-13  0.1698E-04  0.4820E-07  0.1788E-02  0.1821E-03  0.3892E+01
   -1.000000   30.71592  0.1506E-13  0.1700E-04  0.4807E-07  0.1798E-02  0.1722E-03  0.4194E+01
   -1.050002   30.71648  0.1506E-13  0.1699E-04  0.4806E-07  0.1797E-02  0.1628E-03  0.4773E+01
   -1.100004   30.71705  0.1506E-13  0.1696E-04  0.4818E-07  0.1895E-02  0.1539E-03  0.1562E+02
   -1.150005   30.71757  0.1506E-13  0.1691E-04  0.4847E-07  0.1696E-02  0.1459E-03  0.3659E+02
   -1.200007   30.71817  0.1506E-13  0.1683E-04  0.4889E-07  0.1730E-02  0.1375E-03  0.6977E+01
   -1.250008   30.71874  0.1506E-13  0.1672E-04  0.4952E-07  0.1698E-02  0.1296E-03  0.7423E+01
   -1.300010   30.71932  0.1506E-13  0.1658E-04  0.5040E-07  0.1644E-02  0.1219E-03  0.8765E+01
   -1.350011   30.71992  0.1506E-13  0.1640E-04  0.5159E-07  0.1581E-02  0.1144E-03  0.1052E+02
   -1.400012   30.72055  0.1506E-13  0.1619E-04  0.5321E-07  0.1499E-02  0.1071E-03  0.1316E+02
   -1.450012   30.72121  0.1506E-13  0.1592E-04  0.5541E-07  0.1417E-02  0.9990E-04  0.1691E+02
   -1.500013   30.72191  0.1506E-13  0.1560E-04  0.5849E-07  0.1303E-02  0.9281E-04  0.2342E+02
   -1.550013   30.72268  0.1506E-13  0.1520E-04  0.6289E-07  0.1214E-02  0.8568E-04  0.3431E+02
   -1.600013   30.72353  0.1506E-13  0.1470E-04  0.6969E-07  0.1074E-02  0.7863E-04 -0.1798E+03
   -1.650013   30.72457  0.1506E-13  0.1405E-04  0.8049E-07  0.9840E-03  0.7105E-04  0.5978E+03
   -1.700012   30.72583  0.1506E-13  0.1314E-04  0.9999E-07  0.8085E-03  0.6320E-04  0.1353E+05
   -1.750012   30.72797  0.1506E-13  0.1200E-04  0.1304E-06  0.7202E-03  0.5316E-04  0.8823E+05
   -1.800010   30.72962  0.1506E-13  0.1049E-04  0.1979E-06  0.4982E-03  0.4567E-04  0.6389E+05
   -1.850009   30.73755  0.1506E-13  0.8910E-05  0.3238E-06  0.4653E-03  0.3189E-04  0.2480E+08
   -1.900006   30.73524  0.1506E-13  0.7085E-05  0.6819E-06  0.2143E-03  0.2622E-04  0.3877E+06
   -1.950004   30.75812  0.1506E-13  0.5037E-05  0.1643E-05  0.2068E-03  0.1404E-04 -0.2117E+07
   -2.000001   30.75829  0.1506E-13  0.0000E+00  0.0000E+00  0.0000E+00  0.2685E-04  0.0000E+00
