 1 - depth, m
 2 - temperature, C
 3 - salinity, kg/kg
 4 - turbulent kinetic energy, m**2/s**2
 5 - dissipation rate, m**2/s**3
 6 - kinematic heat conductance, m**2/s
 7 - modulus of horizontal velocity, m/s
 8 - Richardson number, n/d
   -0.000000   29.35421  0.2538E-14  0.5140E-05  0.2787E-06  0.5022E-04  0.3532E-02  0.4534E+03
   -0.049997   29.38361  0.2538E-14  0.8250E-05  0.1208E-06  0.1994E-03  0.1894E-02  0.4846E+04
   -0.099994   29.39232  0.2538E-14  0.9673E-05  0.8621E-07  0.3756E-03  0.1494E-02  0.4298E+01
   -0.149992   29.39555  0.2538E-14  0.1062E-04  0.7279E-07  0.4714E-03  0.1332E-02  0.2236E+01
   -0.199991   29.39803  0.2538E-14  0.1136E-04  0.6493E-07  0.6001E-03  0.1206E-02  0.1523E+01
   -0.249990   29.39991  0.2538E-14  0.1198E-04  0.5971E-07  0.7041E-03  0.1107E-02  0.1278E+01
   -0.299989   29.40148  0.2538E-14  0.1252E-04  0.5578E-07  0.8142E-03  0.1020E-02  0.1296E+01
   -0.349988   29.40280  0.2538E-14  0.1302E-04  0.5256E-07  0.9409E-03  0.9361E-03  0.1378E+01
   -0.399988   29.40391  0.2538E-14  0.1348E-04  0.4989E-07  0.1074E-02  0.8545E-03  0.1403E+01
   -0.449988   29.40486  0.2538E-14  0.1390E-04  0.4764E-07  0.1203E-02  0.7791E-03  0.1410E+01
   -0.499988   29.40569  0.2538E-14  0.1426E-04  0.4577E-07  0.1324E-02  0.7113E-03  0.1412E+01
   -0.549989   29.40644  0.2538E-14  0.1458E-04  0.4422E-07  0.1435E-02  0.6508E-03  0.1404E+01
   -0.599990   29.40711  0.2538E-14  0.1484E-04  0.4293E-07  0.1535E-02  0.5967E-03  0.1391E+01
   -0.649991   29.40773  0.2538E-14  0.1505E-04  0.4186E-07  0.1622E-02  0.5483E-03  0.1374E+01
   -0.699992   29.40830  0.2538E-14  0.1522E-04  0.4099E-07  0.1695E-02  0.5050E-03  0.1353E+01
   -0.749994   29.40885  0.2538E-14  0.1534E-04  0.4028E-07  0.1755E-02  0.4662E-03  0.1328E+01
   -0.799995   29.40936  0.2538E-14  0.1543E-04  0.3973E-07  0.1800E-02  0.4314E-03  0.1300E+01
   -0.849997   29.40986  0.2538E-14  0.1549E-04  0.3931E-07  0.1832E-02  0.4003E-03  0.1269E+01
   -0.899998   29.41034  0.2538E-14  0.1551E-04  0.3901E-07  0.1851E-02  0.3724E-03  0.1235E+01
   -0.950000   29.41081  0.2538E-14  0.1551E-04  0.3882E-07  0.1858E-02  0.3474E-03  0.1198E+01
   -1.000002   29.41127  0.2538E-14  0.1548E-04  0.3874E-07  0.1854E-02  0.3250E-03  0.1161E+01
   -1.050004   29.41173  0.2538E-14  0.1544E-04  0.3877E-07  0.1837E-02  0.3049E-03  0.1151E+01
   -1.100005   29.41218  0.2538E-14  0.1537E-04  0.3888E-07  0.1975E-02  0.2870E-03  0.3183E+01
   -1.150007   29.41260  0.2538E-14  0.1529E-04  0.3911E-07  0.1677E-02  0.2728E-03  0.7968E+01
   -1.200009   29.41309  0.2538E-14  0.1518E-04  0.3945E-07  0.1747E-02  0.2570E-03  0.1459E+01
   -1.250010   29.41355  0.2538E-14  0.1505E-04  0.3995E-07  0.1712E-02  0.2422E-03  0.1541E+01
   -1.300011   29.41402  0.2538E-14  0.1489E-04  0.4065E-07  0.1652E-02  0.2280E-03  0.1810E+01
   -1.350013   29.41450  0.2538E-14  0.1470E-04  0.4159E-07  0.1583E-02  0.2141E-03  0.2179E+01
   -1.400014   29.41500  0.2538E-14  0.1448E-04  0.4287E-07  0.1494E-02  0.2006E-03  0.2715E+01
   -1.450015   29.41552  0.2538E-14  0.1421E-04  0.4463E-07  0.1409E-02  0.1872E-03  0.3496E+01
   -1.500015   29.41608  0.2538E-14  0.1389E-04  0.4708E-07  0.1287E-02  0.1740E-03  0.4826E+01
   -1.550016   29.41669  0.2538E-14  0.1351E-04  0.5059E-07  0.1198E-02  0.1606E-03  0.7027E+01
   -1.600016   29.41735  0.2538E-14  0.1304E-04  0.5605E-07  0.1052E-02  0.1475E-03  0.1696E+02
   -1.650015   29.41817  0.2538E-14  0.1244E-04  0.6470E-07  0.9668E-03  0.1332E-03  0.7204E+02
   -1.700015   29.41913  0.2538E-14  0.1160E-04  0.8019E-07  0.7861E-03  0.1189E-03 -0.5154E+03
   -1.750014   29.42086  0.2538E-14  0.1051E-04  0.1055E-06  0.6996E-03  0.9961E-04  0.2307E+05
   -1.800013   29.42228  0.2538E-14  0.9059E-05  0.1628E-06  0.4764E-03  0.8480E-04  0.1298E+05
   -1.850011   29.42842  0.2538E-14  0.7557E-05  0.2636E-06  0.4461E-03  0.5862E-04  0.3376E+07
   -1.900009   29.42651  0.2538E-14  0.5905E-05  0.5526E-06  0.1990E-03  0.4792E-04 -0.1376E+05
   -1.950007   29.44438  0.2538E-14  0.4156E-05  0.1358E-05  0.1999E-03  0.2470E-04 -0.1760E+06
   -2.000004   29.44462  0.2538E-14  0.0000E+00  0.0000E+00  0.0000E+00  0.4986E-04  0.0000E+00
