 1 - depth, m
 2 - temperature, C
 3 - salinity, kg/kg
 4 - turbulent kinetic energy, m**2/s**2
 5 - dissipation rate, m**2/s**3
 6 - kinematic heat conductance, m**2/s
 7 - modulus of horizontal velocity, m/s
 8 - Richardson number, n/d
   -0.000000   30.65588  0.3495E-14  0.5213E-05  0.3236E-06  0.5223E-04  0.2241E-02  0.5130E+04
   -0.049997   30.68721  0.3495E-14  0.8744E-05  0.1431E-06  0.1885E-03  0.1243E-02  0.1597E+03
   -0.099994   30.69846  0.3495E-14  0.1052E-04  0.9938E-07  0.4001E-03  0.9359E-03  0.1080E+02
   -0.149992   30.70186  0.3495E-14  0.1165E-04  0.8324E-07  0.4895E-03  0.8270E-03  0.5403E+01
   -0.199991   30.70453  0.3495E-14  0.1253E-04  0.7384E-07  0.6493E-03  0.7404E-03  0.3469E+01
   -0.249989   30.70648  0.3495E-14  0.1324E-04  0.6770E-07  0.7762E-03  0.6750E-03  0.2573E+01
   -0.299988   30.70807  0.3495E-14  0.1382E-04  0.6334E-07  0.9010E-03  0.6207E-03  0.2049E+01
   -0.349988   30.70941  0.3495E-14  0.1430E-04  0.6008E-07  0.1012E-02  0.5740E-03  0.1778E+01
   -0.399988   30.71057  0.3495E-14  0.1471E-04  0.5752E-07  0.1115E-02  0.5325E-03  0.1629E+01
   -0.449988   30.71161  0.3495E-14  0.1507E-04  0.5542E-07  0.1217E-02  0.4950E-03  0.1581E+01
   -0.499988   30.71254  0.3495E-14  0.1539E-04  0.5366E-07  0.1314E-02  0.4612E-03  0.1557E+01
   -0.549989   30.71338  0.3495E-14  0.1567E-04  0.5218E-07  0.1402E-02  0.4306E-03  0.1553E+01
   -0.599989   30.71416  0.3495E-14  0.1591E-04  0.5095E-07  0.1482E-02  0.4030E-03  0.1547E+01
   -0.649990   30.71489  0.3495E-14  0.1611E-04  0.4992E-07  0.1553E-02  0.3778E-03  0.1562E+01
   -0.699992   30.71557  0.3495E-14  0.1628E-04  0.4907E-07  0.1615E-02  0.3548E-03  0.1571E+01
   -0.749993   30.71622  0.3495E-14  0.1642E-04  0.4837E-07  0.1668E-02  0.3338E-03  0.1605E+01
   -0.799994   30.71684  0.3495E-14  0.1654E-04  0.4781E-07  0.1711E-02  0.3146E-03  0.1638E+01
   -0.849996   30.71744  0.3495E-14  0.1662E-04  0.4737E-07  0.1744E-02  0.2969E-03  0.1707E+01
   -0.899997   30.71802  0.3495E-14  0.1668E-04  0.4706E-07  0.1769E-02  0.2805E-03  0.1785E+01
   -0.949999   30.71859  0.3495E-14  0.1672E-04  0.4685E-07  0.1785E-02  0.2652E-03  0.1914E+01
   -1.000001   30.71915  0.3495E-14  0.1674E-04  0.4676E-07  0.1793E-02  0.2508E-03  0.2058E+01
   -1.050003   30.71970  0.3495E-14  0.1673E-04  0.4678E-07  0.1790E-02  0.2371E-03  0.2353E+01
   -1.100004   30.72025  0.3495E-14  0.1670E-04  0.4693E-07  0.1893E-02  0.2241E-03  0.7638E+01
   -1.150006   30.72076  0.3495E-14  0.1664E-04  0.4724E-07  0.1679E-02  0.2125E-03  0.1841E+02
   -1.200007   30.72134  0.3495E-14  0.1656E-04  0.4769E-07  0.1717E-02  0.2002E-03  0.3481E+01
   -1.250009   30.72191  0.3495E-14  0.1645E-04  0.4834E-07  0.1685E-02  0.1886E-03  0.3707E+01
   -1.300010   30.72248  0.3495E-14  0.1631E-04  0.4924E-07  0.1629E-02  0.1774E-03  0.4405E+01
   -1.350011   30.72307  0.3495E-14  0.1613E-04  0.5046E-07  0.1565E-02  0.1665E-03  0.5311E+01
   -1.400012   30.72369  0.3495E-14  0.1591E-04  0.5210E-07  0.1482E-02  0.1558E-03  0.6707E+01
   -1.450013   30.72434  0.3495E-14  0.1564E-04  0.5434E-07  0.1400E-02  0.1453E-03  0.8683E+01
   -1.500014   30.72503  0.3495E-14  0.1532E-04  0.5747E-07  0.1283E-02  0.1350E-03  0.1223E+02
   -1.550014   30.72580  0.3495E-14  0.1491E-04  0.6195E-07  0.1198E-02  0.1245E-03  0.1823E+02
   -1.600014   30.72664  0.3495E-14  0.1441E-04  0.6897E-07  0.1052E-02  0.1142E-03  0.2089E+03
   -1.650014   30.72771  0.3495E-14  0.1374E-04  0.8006E-07  0.9682E-03  0.1029E-03  0.5835E+03
   -1.700013   30.72898  0.3495E-14  0.1282E-04  0.9931E-07  0.7873E-03  0.9148E-04  0.1572E+02
   -1.750012   30.73116  0.3495E-14  0.1167E-04  0.1305E-06  0.7092E-03  0.7673E-04  0.8316E+05
   -1.800011   30.73285  0.3495E-14  0.1017E-04  0.2005E-06  0.4836E-03  0.6568E-04 -0.1229E+05
   -1.850010   30.74103  0.3495E-14  0.8583E-05  0.3297E-06  0.4568E-03  0.4555E-04  0.3694E+08
   -1.900007   30.73840  0.3495E-14  0.6807E-05  0.7017E-06  0.2076E-03  0.3735E-04 -0.3551E+05
   -1.950005   30.76159  0.3495E-14  0.4852E-05  0.1689E-05  0.2089E-03  0.1968E-04 -0.3066E+06
   -2.000002   30.76239  0.3495E-14  0.0000E+00  0.0000E+00  0.0000E+00  0.3870E-04  0.0000E+00
