 1 - depth, m
 2 - temperature, C
 3 - salinity, kg/kg
 4 - turbulent kinetic energy, m**2/s**2
 5 - dissipation rate, m**2/s**3
 6 - kinematic heat conductance, m**2/s
 7 - modulus of horizontal velocity, m/s
 8 - Richardson number, n/d
   -0.000000   29.95591  0.2566E-14  0.4898E-05  0.2799E-06  0.4969E-04  0.2580E-02  0.2805E+04
   -0.049997   29.98495  0.2566E-14  0.8153E-05  0.1232E-06  0.1904E-03  0.1395E-02  0.1286E+02
   -0.099994   29.99434  0.2566E-14  0.9709E-05  0.8677E-07  0.3837E-03  0.1068E-02  0.6925E+01
   -0.149992   29.99749  0.2566E-14  0.1072E-04  0.7287E-07  0.4783E-03  0.9428E-03  0.3534E+01
   -0.199991   29.99991  0.2566E-14  0.1152E-04  0.6473E-07  0.6259E-03  0.8449E-03  0.2301E+01
   -0.249989   30.00171  0.2566E-14  0.1215E-04  0.5938E-07  0.7481E-03  0.7703E-03  0.1708E+01
   -0.299989   30.00318  0.2566E-14  0.1267E-04  0.5558E-07  0.8639E-03  0.7081E-03  0.1376E+01
   -0.349988   30.00442  0.2566E-14  0.1311E-04  0.5272E-07  0.9665E-03  0.6545E-03  0.1232E+01
   -0.399988   30.00550  0.2566E-14  0.1349E-04  0.5043E-07  0.1067E-02  0.6060E-03  0.1206E+01
   -0.449988   30.00646  0.2566E-14  0.1384E-04  0.4851E-07  0.1172E-02  0.5614E-03  0.1215E+01
   -0.499988   30.00732  0.2566E-14  0.1415E-04  0.4689E-07  0.1271E-02  0.5207E-03  0.1225E+01
   -0.549989   30.00809  0.2566E-14  0.1441E-04  0.4552E-07  0.1363E-02  0.4840E-03  0.1225E+01
   -0.599990   30.00881  0.2566E-14  0.1464E-04  0.4437E-07  0.1446E-02  0.4507E-03  0.1221E+01
   -0.649991   30.00947  0.2566E-14  0.1484E-04  0.4341E-07  0.1520E-02  0.4205E-03  0.1213E+01
   -0.699992   30.01008  0.2566E-14  0.1500E-04  0.4261E-07  0.1585E-02  0.3932E-03  0.1202E+01
   -0.749993   30.01067  0.2566E-14  0.1514E-04  0.4196E-07  0.1639E-02  0.3684E-03  0.1187E+01
   -0.799995   30.01123  0.2566E-14  0.1524E-04  0.4144E-07  0.1683E-02  0.3460E-03  0.1175E+01
   -0.849996   30.01177  0.2566E-14  0.1532E-04  0.4103E-07  0.1716E-02  0.3256E-03  0.1174E+01
   -0.899998   30.01229  0.2566E-14  0.1538E-04  0.4073E-07  0.1741E-02  0.3069E-03  0.1198E+01
   -0.950000   30.01280  0.2566E-14  0.1541E-04  0.4052E-07  0.1757E-02  0.2898E-03  0.1251E+01
   -1.000001   30.01330  0.2566E-14  0.1542E-04  0.4040E-07  0.1765E-02  0.2737E-03  0.1339E+01
   -1.050003   30.01379  0.2566E-14  0.1542E-04  0.4038E-07  0.1764E-02  0.2586E-03  0.1512E+01
   -1.100005   30.01428  0.2566E-14  0.1539E-04  0.4046E-07  0.1856E-02  0.2441E-03  0.5005E+01
   -1.150007   30.01475  0.2566E-14  0.1534E-04  0.4066E-07  0.1672E-02  0.2313E-03  0.1141E+02
   -1.200008   30.01526  0.2566E-14  0.1527E-04  0.4098E-07  0.1703E-02  0.2179E-03  0.2183E+01
   -1.250010   30.01575  0.2566E-14  0.1517E-04  0.4146E-07  0.1672E-02  0.2050E-03  0.2328E+01
   -1.300011   30.01626  0.2566E-14  0.1505E-04  0.4212E-07  0.1623E-02  0.1927E-03  0.2717E+01
   -1.350012   30.01677  0.2566E-14  0.1490E-04  0.4303E-07  0.1563E-02  0.1807E-03  0.3251E+01
   -1.400013   30.01730  0.2566E-14  0.1472E-04  0.4425E-07  0.1486E-02  0.1691E-03  0.4000E+01
   -1.450014   30.01786  0.2566E-14  0.1449E-04  0.4590E-07  0.1409E-02  0.1576E-03  0.5085E+01
   -1.500015   30.01846  0.2566E-14  0.1422E-04  0.4818E-07  0.1297E-02  0.1464E-03  0.6859E+01
   -1.550015   30.01910  0.2566E-14  0.1388E-04  0.5139E-07  0.1214E-02  0.1351E-03  0.9678E+01
   -1.600015   30.01980  0.2566E-14  0.1347E-04  0.5627E-07  0.1068E-02  0.1241E-03  0.1731E+02
   -1.650015   30.02064  0.2566E-14  0.1295E-04  0.6375E-07  0.9898E-03  0.1123E-03  0.8168E+02
   -1.700014   30.02157  0.2566E-14  0.1222E-04  0.7728E-07  0.8056E-03  0.1009E-03 -0.6275E+03
   -1.750014   30.02325  0.2566E-14  0.1125E-04  0.9958E-07  0.7288E-03  0.8555E-04  0.1465E+05
   -1.800012   30.02465  0.2566E-14  0.9936E-05  0.1476E-06  0.5097E-03  0.7351E-04  0.6798E+04
   -1.850011   30.03013  0.2566E-14  0.8431E-05  0.2356E-06  0.4634E-03  0.5297E-04  0.4809E+08
   -1.900009   30.02944  0.2566E-14  0.6616E-05  0.4962E-06  0.2058E-03  0.4285E-04 -0.7167E+04
   -1.950006   30.04697  0.2566E-14  0.4611E-05  0.1239E-05  0.1850E-03  0.2293E-04 -0.5474E+06
   -2.000003   30.04904  0.2566E-14  0.0000E+00  0.0000E+00  0.0000E+00  0.4203E-04  0.0000E+00
