 1 - depth, m
 2 - temperature, C
 3 - salinity, kg/kg
 4 - turbulent kinetic energy, m**2/s**2
 5 - dissipation rate, m**2/s**3
 6 - kinematic heat conductance, m**2/s
 7 - modulus of horizontal velocity, m/s
 8 - Richardson number, n/d
   -0.000000   30.14495  0.3967E-14  0.4789E-05  0.2963E-06  0.4965E-04  0.1111E-02  0.1435E+05
   -0.049997   30.17621  0.3967E-14  0.8297E-05  0.1320E-06  0.1800E-03  0.6296E-03  0.5739E+02
   -0.099994   30.18786  0.3967E-14  0.1005E-04  0.9130E-07  0.4022E-03  0.4637E-03  0.5015E+02
   -0.149992   30.19112  0.3967E-14  0.1115E-04  0.7680E-07  0.4831E-03  0.4098E-03  0.2452E+02
   -0.199991   30.19372  0.3967E-14  0.1200E-04  0.6827E-07  0.6445E-03  0.3663E-03  0.1588E+02
   -0.249989   30.19561  0.3967E-14  0.1268E-04  0.6265E-07  0.7698E-03  0.3336E-03  0.1171E+02
   -0.299989   30.19715  0.3967E-14  0.1323E-04  0.5864E-07  0.8944E-03  0.3064E-03  0.9351E+01
   -0.349988   30.19844  0.3967E-14  0.1369E-04  0.5563E-07  0.1007E-02  0.2831E-03  0.7955E+01
   -0.399988   30.19956  0.3967E-14  0.1407E-04  0.5327E-07  0.1110E-02  0.2624E-03  0.7116E+01
   -0.449988   30.20055  0.3967E-14  0.1440E-04  0.5136E-07  0.1206E-02  0.2443E-03  0.6635E+01
   -0.499988   30.20144  0.3967E-14  0.1469E-04  0.4977E-07  0.1294E-02  0.2282E-03  0.6486E+01
   -0.549989   30.20226  0.3967E-14  0.1493E-04  0.4843E-07  0.1374E-02  0.2138E-03  0.6347E+01
   -0.599990   30.20302  0.3967E-14  0.1514E-04  0.4730E-07  0.1447E-02  0.2007E-03  0.6383E+01
   -0.649991   30.20372  0.3967E-14  0.1532E-04  0.4634E-07  0.1512E-02  0.1888E-03  0.6401E+01
   -0.699992   30.20439  0.3967E-14  0.1547E-04  0.4552E-07  0.1570E-02  0.1779E-03  0.6582E+01
   -0.749993   30.20502  0.3967E-14  0.1559E-04  0.4483E-07  0.1620E-02  0.1678E-03  0.6726E+01
   -0.799995   30.20562  0.3967E-14  0.1569E-04  0.4425E-07  0.1663E-02  0.1584E-03  0.7048E+01
   -0.849996   30.20620  0.3967E-14  0.1576E-04  0.4378E-07  0.1698E-02  0.1496E-03  0.7325E+01
   -0.899998   30.20676  0.3967E-14  0.1582E-04  0.4341E-07  0.1724E-02  0.1414E-03  0.7813E+01
   -0.950000   30.20731  0.3967E-14  0.1585E-04  0.4313E-07  0.1743E-02  0.1336E-03  0.8261E+01
   -1.000001   30.20784  0.3967E-14  0.1586E-04  0.4295E-07  0.1753E-02  0.1262E-03  0.8972E+01
   -1.050003   30.20837  0.3967E-14  0.1584E-04  0.4288E-07  0.1754E-02  0.1193E-03  0.1004E+02
   -1.100005   30.20889  0.3967E-14  0.1581E-04  0.4291E-07  0.1843E-02  0.1126E-03  0.3348E+02
   -1.150006   30.20938  0.3967E-14  0.1575E-04  0.4308E-07  0.1667E-02  0.1067E-03  0.7581E+02
   -1.200008   30.20991  0.3967E-14  0.1567E-04  0.4337E-07  0.1695E-02  0.1005E-03  0.1438E+02
   -1.250009   30.21044  0.3967E-14  0.1557E-04  0.4383E-07  0.1665E-02  0.9456E-04  0.1538E+02
   -1.300011   30.21097  0.3967E-14  0.1543E-04  0.4449E-07  0.1615E-02  0.8889E-04  0.1777E+02
   -1.350012   30.21151  0.3967E-14  0.1527E-04  0.4541E-07  0.1557E-02  0.8336E-04  0.2137E+02
   -1.400013   30.21207  0.3967E-14  0.1507E-04  0.4667E-07  0.1479E-02  0.7800E-04  0.2608E+02
   -1.450014   30.21265  0.3967E-14  0.1482E-04  0.4841E-07  0.1402E-02  0.7271E-04  0.3340E+02
   -1.500015   30.21327  0.3967E-14  0.1453E-04  0.5083E-07  0.1289E-02  0.6754E-04  0.4491E+02
   -1.550015   30.21395  0.3967E-14  0.1417E-04  0.5428E-07  0.1208E-02  0.6230E-04  0.6426E+02
   -1.600015   30.21468  0.3967E-14  0.1372E-04  0.5964E-07  0.1063E-02  0.5722E-04  0.1257E+03
   -1.650015   30.21557  0.3967E-14  0.1315E-04  0.6795E-07  0.9838E-03  0.5169E-04  0.1208E+04
   -1.700014   30.21656  0.3967E-14  0.1237E-04  0.8293E-07  0.8021E-03  0.4633E-04 -0.2787E+04
   -1.750013   30.21838  0.3967E-14  0.1133E-04  0.1075E-06  0.7230E-03  0.3904E-04  0.4796E+06
   -1.800012   30.21978  0.3967E-14  0.9961E-05  0.1596E-06  0.5065E-03  0.3353E-04  0.1259E+06
   -1.850010   30.22588  0.3967E-14  0.8438E-05  0.2585E-06  0.4592E-03  0.2384E-04  0.1062E+09
   -1.900008   30.22468  0.3967E-14  0.6644E-05  0.5455E-06  0.2122E-03  0.1929E-04 -0.5121E+06
   -1.950006   30.24301  0.3967E-14  0.4644E-05  0.1349E-05  0.1904E-03  0.1027E-04 -0.6957E+06
   -2.000003   30.24509  0.3967E-14  0.0000E+00  0.0000E+00  0.0000E+00  0.1946E-04  0.0000E+00
