 1 - depth, m
 2 - temperature, C
 3 - salinity, kg/kg
 4 - turbulent kinetic energy, m**2/s**2
 5 - dissipation rate, m**2/s**3
 6 - kinematic heat conductance, m**2/s
 7 - modulus of horizontal velocity, m/s
 8 - Richardson number, n/d
   -0.000000   29.84086  0.3687E-13  0.4623E-05  0.2747E-06  0.4930E-04  0.2044E-02  0.5030E+04
   -0.049997   29.86905  0.3687E-13  0.7827E-05  0.1219E-06  0.1747E-03  0.1153E-02  0.1160E+04
   -0.099994   29.87955  0.3687E-13  0.9458E-05  0.8399E-07  0.3869E-03  0.8492E-03  0.1115E+02
   -0.149992   29.88259  0.3687E-13  0.1049E-04  0.7044E-07  0.4697E-03  0.7488E-03  0.5452E+01
   -0.199991   29.88499  0.3687E-13  0.1129E-04  0.6252E-07  0.6250E-03  0.6681E-03  0.3507E+01
   -0.249989   29.88674  0.3687E-13  0.1194E-04  0.5733E-07  0.7480E-03  0.6075E-03  0.2582E+01
   -0.299989   29.88817  0.3687E-13  0.1246E-04  0.5365E-07  0.8696E-03  0.5572E-03  0.2057E+01
   -0.349988   29.88937  0.3687E-13  0.1290E-04  0.5089E-07  0.9803E-03  0.5140E-03  0.1757E+01
   -0.399988   29.89041  0.3687E-13  0.1327E-04  0.4875E-07  0.1082E-02  0.4759E-03  0.1568E+01
   -0.449988   29.89134  0.3687E-13  0.1359E-04  0.4701E-07  0.1176E-02  0.4423E-03  0.1473E+01
   -0.499988   29.89217  0.3687E-13  0.1387E-04  0.4558E-07  0.1263E-02  0.4126E-03  0.1440E+01
   -0.549989   29.89294  0.3687E-13  0.1412E-04  0.4439E-07  0.1343E-02  0.3860E-03  0.1421E+01
   -0.599990   29.89364  0.3687E-13  0.1433E-04  0.4339E-07  0.1416E-02  0.3620E-03  0.1425E+01
   -0.649991   29.89430  0.3687E-13  0.1452E-04  0.4255E-07  0.1482E-02  0.3401E-03  0.1438E+01
   -0.699992   29.89492  0.3687E-13  0.1467E-04  0.4185E-07  0.1540E-02  0.3200E-03  0.1471E+01
   -0.749993   29.89551  0.3687E-13  0.1481E-04  0.4127E-07  0.1590E-02  0.3015E-03  0.1516E+01
   -0.799995   29.89608  0.3687E-13  0.1492E-04  0.4080E-07  0.1633E-02  0.2843E-03  0.1583E+01
   -0.849996   29.89662  0.3687E-13  0.1501E-04  0.4042E-07  0.1668E-02  0.2683E-03  0.1663E+01
   -0.899998   29.89715  0.3687E-13  0.1508E-04  0.4014E-07  0.1696E-02  0.2532E-03  0.1769E+01
   -0.950000   29.89767  0.3687E-13  0.1513E-04  0.3995E-07  0.1716E-02  0.2391E-03  0.1891E+01
   -1.000001   29.89818  0.3687E-13  0.1516E-04  0.3985E-07  0.1728E-02  0.2257E-03  0.2048E+01
   -1.050003   29.89868  0.3687E-13  0.1517E-04  0.3985E-07  0.1731E-02  0.2131E-03  0.2320E+01
   -1.100005   29.89917  0.3687E-13  0.1516E-04  0.3995E-07  0.1808E-02  0.2010E-03  0.7799E+01
   -1.150007   29.89965  0.3687E-13  0.1513E-04  0.4017E-07  0.1665E-02  0.1902E-03  0.1711E+02
   -1.200008   29.90016  0.3687E-13  0.1508E-04  0.4050E-07  0.1682E-02  0.1791E-03  0.3334E+01
   -1.250010   29.90066  0.3687E-13  0.1501E-04  0.4099E-07  0.1653E-02  0.1684E-03  0.3568E+01
   -1.300011   29.90117  0.3687E-13  0.1491E-04  0.4166E-07  0.1607E-02  0.1582E-03  0.4158E+01
   -1.350012   29.90170  0.3687E-13  0.1478E-04  0.4257E-07  0.1552E-02  0.1483E-03  0.4970E+01
   -1.400013   29.90224  0.3687E-13  0.1462E-04  0.4377E-07  0.1480E-02  0.1386E-03  0.6090E+01
   -1.450014   29.90282  0.3687E-13  0.1442E-04  0.4538E-07  0.1405E-02  0.1292E-03  0.7718E+01
   -1.500015   29.90342  0.3687E-13  0.1417E-04  0.4758E-07  0.1300E-02  0.1199E-03  0.1030E+02
   -1.550015   29.90408  0.3687E-13  0.1387E-04  0.5066E-07  0.1215E-02  0.1107E-03  0.1445E+02
   -1.600015   29.90479  0.3687E-13  0.1349E-04  0.5523E-07  0.1076E-02  0.1016E-03  0.2412E+02
   -1.650015   29.90563  0.3687E-13  0.1301E-04  0.6219E-07  0.9966E-03  0.9202E-04  0.5904E+02
   -1.700014   29.90657  0.3687E-13  0.1235E-04  0.7467E-07  0.8200E-03  0.8273E-04  0.2234E+05
   -1.750013   29.90817  0.3687E-13  0.1144E-04  0.9534E-07  0.7373E-03  0.7068E-04  0.4357E+05
   -1.800012   29.90969  0.3687E-13  0.1018E-04  0.1387E-06  0.5216E-03  0.6072E-04  0.1916E+05
   -1.850011   29.91487  0.3687E-13  0.8716E-05  0.2188E-06  0.4750E-03  0.4435E-04  0.3399E+07
   -1.900008   29.91450  0.3687E-13  0.6946E-05  0.4533E-06  0.2138E-03  0.3594E-04  0.4193E+06
   -1.950006   29.93212  0.3687E-13  0.4810E-05  0.1159E-05  0.1747E-03  0.1973E-04 -0.1818E+06
   -2.000003   29.93480  0.3687E-13  0.0000E+00  0.0000E+00  0.0000E+00  0.3438E-04  0.0000E+00
