 1 - depth, m
 2 - temperature, C
 3 - salinity, kg/kg
 4 - turbulent kinetic energy, m**2/s**2
 5 - dissipation rate, m**2/s**3
 6 - kinematic heat conductance, m**2/s
 7 - modulus of horizontal velocity, m/s
 8 - Richardson number, n/d
   -0.000000   30.54599  0.2217E-13  0.4546E-05  0.2754E-06  0.4850E-04  0.5906E-03  0.6938E+05
   -0.049997   30.57509  0.2217E-13  0.8035E-05  0.1219E-06  0.1793E-03  0.3326E-03  0.6422E+02
   -0.099994   30.58580  0.2217E-13  0.9740E-05  0.8445E-07  0.4113E-03  0.2417E-03  0.1250E+03
   -0.149992   30.58870  0.2217E-13  0.1080E-04  0.7145E-07  0.4865E-03  0.2142E-03  0.6132E+02
   -0.199991   30.59106  0.2217E-13  0.1163E-04  0.6377E-07  0.6491E-03  0.1915E-03  0.4012E+02
   -0.249989   30.59278  0.2217E-13  0.1230E-04  0.5872E-07  0.7740E-03  0.1744E-03  0.2993E+02
   -0.299988   30.59418  0.2217E-13  0.1284E-04  0.5513E-07  0.8980E-03  0.1603E-03  0.2401E+02
   -0.349988   30.59537  0.2217E-13  0.1330E-04  0.5244E-07  0.1010E-02  0.1481E-03  0.2066E+02
   -0.399988   30.59640  0.2217E-13  0.1369E-04  0.5036E-07  0.1113E-02  0.1373E-03  0.1848E+02
   -0.449988   30.59732  0.2217E-13  0.1402E-04  0.4867E-07  0.1208E-02  0.1278E-03  0.1741E+02
   -0.499988   30.59815  0.2217E-13  0.1432E-04  0.4729E-07  0.1296E-02  0.1194E-03  0.1697E+02
   -0.549989   30.59891  0.2217E-13  0.1457E-04  0.4615E-07  0.1376E-02  0.1118E-03  0.1680E+02
   -0.599989   30.59962  0.2217E-13  0.1480E-04  0.4520E-07  0.1448E-02  0.1050E-03  0.1685E+02
   -0.649990   30.60028  0.2217E-13  0.1499E-04  0.4441E-07  0.1513E-02  0.9876E-04  0.1712E+02
   -0.699992   30.60091  0.2217E-13  0.1516E-04  0.4376E-07  0.1571E-02  0.9304E-04  0.1757E+02
   -0.749993   30.60150  0.2217E-13  0.1530E-04  0.4323E-07  0.1620E-02  0.8774E-04  0.1823E+02
   -0.799994   30.60208  0.2217E-13  0.1542E-04  0.4281E-07  0.1662E-02  0.8282E-04  0.1906E+02
   -0.849996   30.60263  0.2217E-13  0.1552E-04  0.4250E-07  0.1696E-02  0.7821E-04  0.2015E+02
   -0.899998   30.60317  0.2217E-13  0.1560E-04  0.4228E-07  0.1723E-02  0.7389E-04  0.2146E+02
   -0.949999   30.60370  0.2217E-13  0.1566E-04  0.4217E-07  0.1740E-02  0.6982E-04  0.2311E+02
   -1.000001   30.60422  0.2217E-13  0.1569E-04  0.4215E-07  0.1750E-02  0.6597E-04  0.2508E+02
   -1.050003   30.60473  0.2217E-13  0.1571E-04  0.4224E-07  0.1750E-02  0.6231E-04  0.2863E+02
   -1.100005   30.60525  0.2217E-13  0.1571E-04  0.4243E-07  0.1838E-02  0.5882E-04  0.9495E+02
   -1.150006   30.60573  0.2217E-13  0.1568E-04  0.4277E-07  0.1664E-02  0.5571E-04  0.2183E+03
   -1.200008   30.60627  0.2217E-13  0.1563E-04  0.4323E-07  0.1689E-02  0.5247E-04  0.4210E+02
   -1.250009   30.60680  0.2217E-13  0.1555E-04  0.4388E-07  0.1658E-02  0.4937E-04  0.4530E+02
   -1.300011   30.60734  0.2217E-13  0.1545E-04  0.4473E-07  0.1607E-02  0.4639E-04  0.5348E+02
   -1.350012   30.60790  0.2217E-13  0.1531E-04  0.4586E-07  0.1548E-02  0.4350E-04  0.6456E+02
   -1.400013   30.60848  0.2217E-13  0.1514E-04  0.4734E-07  0.1469E-02  0.4068E-04  0.8066E+02
   -1.450014   30.60910  0.2217E-13  0.1492E-04  0.4932E-07  0.1393E-02  0.3791E-04  0.1038E+03
   -1.500014   30.60976  0.2217E-13  0.1465E-04  0.5203E-07  0.1279E-02  0.3519E-04  0.1434E+03
   -1.550015   30.61048  0.2217E-13  0.1432E-04  0.5581E-07  0.1199E-02  0.3245E-04  0.2069E+03
   -1.600015   30.61127  0.2217E-13  0.1390E-04  0.6162E-07  0.1050E-02  0.2978E-04  0.4400E+03
   -1.650014   30.61226  0.2217E-13  0.1335E-04  0.7046E-07  0.9758E-03  0.2687E-04  0.1205E+04
   -1.700014   30.61333  0.2217E-13  0.1259E-04  0.8620E-07  0.7922E-03  0.2409E-04  0.3037E+05
   -1.750013   30.61534  0.2217E-13  0.1157E-04  0.1122E-06  0.7167E-03  0.2031E-04  0.3564E+06
   -1.800012   30.61698  0.2217E-13  0.1022E-04  0.1652E-06  0.5063E-03  0.1742E-04  0.3067E+06
   -1.850010   30.62365  0.2217E-13  0.8672E-05  0.2675E-06  0.4569E-03  0.1243E-04  0.3559E+09
   -1.900008   30.62251  0.2217E-13  0.6876E-05  0.5622E-06  0.2151E-03  0.1003E-04  0.1430E+08
   -1.950005   30.64326  0.2217E-13  0.4844E-05  0.1414E-05  0.1868E-03  0.5390E-05 -0.5425E+07
   -2.000002   30.64689  0.2217E-13  0.0000E+00  0.0000E+00  0.0000E+00  0.9969E-05  0.0000E+00
