 1 - depth, m
 2 - temperature, C
 3 - salinity, kg/kg
 4 - turbulent kinetic energy, m**2/s**2
 5 - dissipation rate, m**2/s**3
 6 - kinematic heat conductance, m**2/s
 7 - modulus of horizontal velocity, m/s
 8 - Richardson number, n/d
   -0.000000   30.36792  0.5584E-14  0.4828E-05  0.2999E-06  0.5096E-04  0.1910E-02  0.9925E+04
   -0.049997   30.39730  0.5584E-14  0.8179E-05  0.1335E-06  0.1732E-03  0.1100E-02  0.1515E+04
   -0.099994   30.40911  0.5584E-14  0.9933E-05  0.9123E-07  0.3967E-03  0.8009E-03  0.1299E+02
   -0.149992   30.41230  0.5584E-14  0.1102E-04  0.7644E-07  0.4752E-03  0.7074E-03  0.6323E+01
   -0.199991   30.41486  0.5584E-14  0.1188E-04  0.6779E-07  0.6363E-03  0.6313E-03  0.4048E+01
   -0.249989   30.41672  0.5584E-14  0.1255E-04  0.6214E-07  0.7610E-03  0.5745E-03  0.2979E+01
   -0.299988   30.41823  0.5584E-14  0.1310E-04  0.5811E-07  0.8856E-03  0.5272E-03  0.2368E+01
   -0.349988   30.41950  0.5584E-14  0.1356E-04  0.5510E-07  0.9985E-03  0.4867E-03  0.2022E+01
   -0.399988   30.42060  0.5584E-14  0.1395E-04  0.5275E-07  0.1102E-02  0.4510E-03  0.1802E+01
   -0.449988   30.42157  0.5584E-14  0.1428E-04  0.5085E-07  0.1198E-02  0.4195E-03  0.1689E+01
   -0.499988   30.42245  0.5584E-14  0.1457E-04  0.4928E-07  0.1286E-02  0.3917E-03  0.1644E+01
   -0.549989   30.42325  0.5584E-14  0.1482E-04  0.4796E-07  0.1367E-02  0.3668E-03  0.1620E+01
   -0.599990   30.42399  0.5584E-14  0.1503E-04  0.4685E-07  0.1440E-02  0.3443E-03  0.1622E+01
   -0.649991   30.42469  0.5584E-14  0.1521E-04  0.4592E-07  0.1506E-02  0.3238E-03  0.1640E+01
   -0.699992   30.42534  0.5584E-14  0.1537E-04  0.4513E-07  0.1564E-02  0.3049E-03  0.1679E+01
   -0.749993   30.42596  0.5584E-14  0.1550E-04  0.4446E-07  0.1615E-02  0.2875E-03  0.1731E+01
   -0.799995   30.42655  0.5584E-14  0.1561E-04  0.4391E-07  0.1658E-02  0.2713E-03  0.1806E+01
   -0.849996   30.42712  0.5584E-14  0.1569E-04  0.4347E-07  0.1694E-02  0.2562E-03  0.1896E+01
   -0.899998   30.42768  0.5584E-14  0.1575E-04  0.4313E-07  0.1721E-02  0.2420E-03  0.2011E+01
   -0.950000   30.42822  0.5584E-14  0.1579E-04  0.4288E-07  0.1740E-02  0.2287E-03  0.2149E+01
   -1.000001   30.42874  0.5584E-14  0.1581E-04  0.4273E-07  0.1752E-02  0.2160E-03  0.2322E+01
   -1.050003   30.42926  0.5584E-14  0.1581E-04  0.4269E-07  0.1753E-02  0.2040E-03  0.2627E+01
   -1.100005   30.42978  0.5584E-14  0.1578E-04  0.4275E-07  0.1838E-02  0.1926E-03  0.8735E+01
   -1.150006   30.43027  0.5584E-14  0.1574E-04  0.4295E-07  0.1673E-02  0.1824E-03  0.1966E+02
   -1.200008   30.43080  0.5584E-14  0.1567E-04  0.4327E-07  0.1697E-02  0.1718E-03  0.3782E+01
   -1.250009   30.43132  0.5584E-14  0.1557E-04  0.4376E-07  0.1667E-02  0.1617E-03  0.4034E+01
   -1.300011   30.43185  0.5584E-14  0.1545E-04  0.4445E-07  0.1619E-02  0.1520E-03  0.4706E+01
   -1.350012   30.43239  0.5584E-14  0.1529E-04  0.4539E-07  0.1561E-02  0.1425E-03  0.5633E+01
   -1.400013   30.43295  0.5584E-14  0.1510E-04  0.4667E-07  0.1485E-02  0.1333E-03  0.6931E+01
   -1.450014   30.43354  0.5584E-14  0.1487E-04  0.4841E-07  0.1408E-02  0.1243E-03  0.8829E+01
   -1.500014   30.43416  0.5584E-14  0.1459E-04  0.5083E-07  0.1298E-02  0.1154E-03  0.1193E+02
   -1.550015   30.43484  0.5584E-14  0.1425E-04  0.5425E-07  0.1213E-02  0.1065E-03  0.1693E+02
   -1.600015   30.43558  0.5584E-14  0.1382E-04  0.5947E-07  0.1070E-02  0.9783E-04  0.3166E+02
   -1.650015   30.43646  0.5584E-14  0.1327E-04  0.6756E-07  0.9908E-03  0.8853E-04  0.2320E+03
   -1.700014   30.43746  0.5584E-14  0.1252E-04  0.8204E-07  0.8088E-03  0.7939E-04  0.1033E+04
   -1.750013   30.43920  0.5584E-14  0.1151E-04  0.1058E-06  0.7315E-03  0.6744E-04  0.3907E+05
   -1.800012   30.44070  0.5584E-14  0.1015E-04  0.1560E-06  0.5096E-03  0.5787E-04  0.5217E+05
   -1.850010   30.44661  0.5584E-14  0.8618E-05  0.2504E-06  0.4683E-03  0.4151E-04  0.2122E+08
   -1.900008   30.44564  0.5584E-14  0.6811E-05  0.5211E-06  0.2082E-03  0.3375E-04 -0.7848E+05
   -1.950006   30.46442  0.5584E-14  0.4763E-05  0.1312E-05  0.1872E-03  0.1810E-04 -0.6997E+06
   -2.000002   30.46629  0.5584E-14  0.0000E+00  0.0000E+00  0.0000E+00  0.3304E-04  0.0000E+00
