 1 - depth, m
 2 - temperature, C
 3 - salinity, kg/kg
 4 - turbulent kinetic energy, m**2/s**2
 5 - dissipation rate, m**2/s**3
 6 - kinematic heat conductance, m**2/s
 7 - modulus of horizontal velocity, m/s
 8 - Richardson number, n/d
   -0.000000   29.65344  0.2889E-13  0.4515E-05  0.2685E-06  0.4882E-04  0.1793E-02  0.4603E+04
   -0.049997   29.68159  0.2889E-13  0.7692E-05  0.1196E-06  0.1705E-03  0.1023E-02  0.4986E+04
   -0.099994   29.69250  0.2889E-13  0.9326E-05  0.8210E-07  0.3868E-03  0.7453E-03  0.1447E+02
   -0.149992   29.69552  0.2889E-13  0.1035E-04  0.6893E-07  0.4659E-03  0.6573E-03  0.7018E+01
   -0.199991   29.69793  0.2889E-13  0.1114E-04  0.6120E-07  0.6210E-03  0.5862E-03  0.4514E+01
   -0.249989   29.69969  0.2889E-13  0.1177E-04  0.5613E-07  0.7428E-03  0.5328E-03  0.3329E+01
   -0.299989   29.70112  0.2889E-13  0.1229E-04  0.5252E-07  0.8634E-03  0.4884E-03  0.2648E+01
   -0.349988   29.70232  0.2889E-13  0.1272E-04  0.4981E-07  0.9730E-03  0.4504E-03  0.2266E+01
   -0.399988   29.70336  0.2889E-13  0.1308E-04  0.4770E-07  0.1073E-02  0.4168E-03  0.2019E+01
   -0.449988   29.70428  0.2889E-13  0.1339E-04  0.4598E-07  0.1167E-02  0.3873E-03  0.1898E+01
   -0.499988   29.70511  0.2889E-13  0.1366E-04  0.4457E-07  0.1253E-02  0.3612E-03  0.1846E+01
   -0.549989   29.70587  0.2889E-13  0.1390E-04  0.4338E-07  0.1331E-02  0.3378E-03  0.1825E+01
   -0.599990   29.70657  0.2889E-13  0.1410E-04  0.4238E-07  0.1403E-02  0.3167E-03  0.1826E+01
   -0.649991   29.70723  0.2889E-13  0.1427E-04  0.4154E-07  0.1467E-02  0.2975E-03  0.1853E+01
   -0.699992   29.70785  0.2889E-13  0.1442E-04  0.4083E-07  0.1525E-02  0.2799E-03  0.1894E+01
   -0.749993   29.70844  0.2889E-13  0.1455E-04  0.4023E-07  0.1575E-02  0.2636E-03  0.1960E+01
   -0.799995   29.70900  0.2889E-13  0.1465E-04  0.3973E-07  0.1617E-02  0.2485E-03  0.2041E+01
   -0.849996   29.70954  0.2889E-13  0.1473E-04  0.3934E-07  0.1652E-02  0.2344E-03  0.2151E+01
   -0.899998   29.71006  0.2889E-13  0.1479E-04  0.3903E-07  0.1680E-02  0.2212E-03  0.2277E+01
   -0.950000   29.71058  0.2889E-13  0.1483E-04  0.3880E-07  0.1700E-02  0.2087E-03  0.2442E+01
   -1.000002   29.71107  0.2889E-13  0.1486E-04  0.3867E-07  0.1712E-02  0.1970E-03  0.2632E+01
   -1.050003   29.71157  0.2889E-13  0.1486E-04  0.3863E-07  0.1715E-02  0.1858E-03  0.2990E+01
   -1.100005   29.71205  0.2889E-13  0.1484E-04  0.3868E-07  0.1790E-02  0.1752E-03  0.9995E+01
   -1.150007   29.71252  0.2889E-13  0.1481E-04  0.3885E-07  0.1650E-02  0.1657E-03  0.2198E+02
   -1.200008   29.71302  0.2889E-13  0.1475E-04  0.3913E-07  0.1666E-02  0.1560E-03  0.4287E+01
   -1.250010   29.71351  0.2889E-13  0.1467E-04  0.3955E-07  0.1638E-02  0.1467E-03  0.4562E+01
   -1.300011   29.71401  0.2889E-13  0.1456E-04  0.4015E-07  0.1593E-02  0.1377E-03  0.5327E+01
   -1.350012   29.71452  0.2889E-13  0.1443E-04  0.4097E-07  0.1538E-02  0.1290E-03  0.6336E+01
   -1.400013   29.71505  0.2889E-13  0.1427E-04  0.4207E-07  0.1467E-02  0.1205E-03  0.7775E+01
   -1.450014   29.71560  0.2889E-13  0.1406E-04  0.4356E-07  0.1392E-02  0.1123E-03  0.9804E+01
   -1.500015   29.71618  0.2889E-13  0.1382E-04  0.4559E-07  0.1289E-02  0.1042E-03  0.1309E+02
   -1.550015   29.71681  0.2889E-13  0.1351E-04  0.4845E-07  0.1203E-02  0.9610E-04  0.1822E+02
   -1.600015   29.71749  0.2889E-13  0.1314E-04  0.5269E-07  0.1064E-02  0.8817E-04  0.3000E+02
   -1.650015   29.71829  0.2889E-13  0.1267E-04  0.5914E-07  0.9850E-03  0.7987E-04  0.1428E+03
   -1.700015   29.71918  0.2889E-13  0.1202E-04  0.7075E-07  0.8087E-03  0.7181E-04 -0.2554E+03
   -1.750014   29.72068  0.2889E-13  0.1114E-04  0.9020E-07  0.7297E-03  0.6145E-04  0.2946E+05
   -1.800012   29.72213  0.2889E-13  0.9891E-05  0.1309E-06  0.5102E-03  0.5273E-04  0.1382E+06
   -1.850011   29.72691  0.2889E-13  0.8414E-05  0.2059E-06  0.4647E-03  0.3852E-04  0.3989E+07
   -1.900009   29.72680  0.2889E-13  0.6639E-05  0.4307E-06  0.2050E-03  0.3099E-04  0.4775E+05
   -1.950006   29.74341  0.2889E-13  0.4576E-05  0.1101E-05  0.1736E-03  0.1676E-04 -0.9003E+06
   -2.000003   29.74587  0.2889E-13  0.0000E+00  0.0000E+00  0.0000E+00  0.2949E-04  0.0000E+00
