 1 - depth, m
 2 - temperature, C
 3 - salinity, kg/kg
 4 - turbulent kinetic energy, m**2/s**2
 5 - dissipation rate, m**2/s**3
 6 - kinematic heat conductance, m**2/s
 7 - modulus of horizontal velocity, m/s
 8 - Richardson number, n/d
   -0.000000   30.28327  0.5650E-14  0.4590E-05  0.2749E-06  0.4728E-04  0.5352E-03  0.1313E+06
   -0.049997   30.31392  0.5650E-14  0.8145E-05  0.1220E-06  0.1861E-03  0.2967E-03  0.1868E+03
   -0.099994   30.32415  0.5650E-14  0.9827E-05  0.8519E-07  0.4103E-03  0.2191E-03  0.1972E+03
   -0.149992   30.32713  0.5650E-14  0.1089E-04  0.7210E-07  0.4907E-03  0.1940E-03  0.9767E+02
   -0.199991   30.32952  0.5650E-14  0.1172E-04  0.6435E-07  0.6518E-03  0.1735E-03  0.6429E+02
   -0.249989   30.33127  0.5650E-14  0.1238E-04  0.5924E-07  0.7771E-03  0.1582E-03  0.4800E+02
   -0.299988   30.33270  0.5650E-14  0.1292E-04  0.5558E-07  0.9011E-03  0.1453E-03  0.3855E+02
   -0.349988   30.33391  0.5650E-14  0.1338E-04  0.5284E-07  0.1014E-02  0.1343E-03  0.3311E+02
   -0.399988   30.33496  0.5650E-14  0.1376E-04  0.5070E-07  0.1117E-02  0.1245E-03  0.2965E+02
   -0.449988   30.33589  0.5650E-14  0.1409E-04  0.4897E-07  0.1212E-02  0.1160E-03  0.2786E+02
   -0.499988   30.33673  0.5650E-14  0.1438E-04  0.4754E-07  0.1300E-02  0.1083E-03  0.2718E+02
   -0.549989   30.33750  0.5650E-14  0.1463E-04  0.4635E-07  0.1380E-02  0.1015E-03  0.2681E+02
   -0.599990   30.33822  0.5650E-14  0.1485E-04  0.4535E-07  0.1453E-02  0.9532E-04  0.2691E+02
   -0.649991   30.33889  0.5650E-14  0.1504E-04  0.4451E-07  0.1519E-02  0.8969E-04  0.2724E+02
   -0.699992   30.33952  0.5650E-14  0.1520E-04  0.4381E-07  0.1577E-02  0.8449E-04  0.2795E+02
   -0.749993   30.34013  0.5650E-14  0.1534E-04  0.4323E-07  0.1627E-02  0.7970E-04  0.2885E+02
   -0.799995   30.34070  0.5650E-14  0.1545E-04  0.4275E-07  0.1670E-02  0.7523E-04  0.3017E+02
   -0.849996   30.34126  0.5650E-14  0.1554E-04  0.4238E-07  0.1705E-02  0.7107E-04  0.3171E+02
   -0.899998   30.34180  0.5650E-14  0.1561E-04  0.4210E-07  0.1733E-02  0.6714E-04  0.3375E+02
   -0.950000   30.34233  0.5650E-14  0.1566E-04  0.4192E-07  0.1752E-02  0.6346E-04  0.3611E+02
   -1.000001   30.34284  0.5650E-14  0.1569E-04  0.4184E-07  0.1763E-02  0.5996E-04  0.3912E+02
   -1.050003   30.34335  0.5650E-14  0.1570E-04  0.4185E-07  0.1765E-02  0.5665E-04  0.4435E+02
   -1.100005   30.34386  0.5650E-14  0.1569E-04  0.4197E-07  0.1848E-02  0.5348E-04  0.1485E+03
   -1.150006   30.34434  0.5650E-14  0.1565E-04  0.4222E-07  0.1688E-02  0.5066E-04  0.3298E+03
   -1.200008   30.34487  0.5650E-14  0.1560E-04  0.4259E-07  0.1710E-02  0.4773E-04  0.6404E+02
   -1.250009   30.34539  0.5650E-14  0.1552E-04  0.4312E-07  0.1680E-02  0.4493E-04  0.6863E+02
   -1.300011   30.34591  0.5650E-14  0.1541E-04  0.4386E-07  0.1632E-02  0.4224E-04  0.8020E+02
   -1.350012   30.34645  0.5650E-14  0.1527E-04  0.4484E-07  0.1575E-02  0.3962E-04  0.9611E+02
   -1.400013   30.34701  0.5650E-14  0.1510E-04  0.4615E-07  0.1499E-02  0.3708E-04  0.1184E+03
   -1.450014   30.34759  0.5650E-14  0.1489E-04  0.4791E-07  0.1423E-02  0.3458E-04  0.1508E+03
   -1.500014   30.34821  0.5650E-14  0.1462E-04  0.5032E-07  0.1314E-02  0.3213E-04  0.2040E+03
   -1.550015   30.34889  0.5650E-14  0.1430E-04  0.5369E-07  0.1230E-02  0.2966E-04  0.2893E+03
   -1.600015   30.34962  0.5650E-14  0.1390E-04  0.5882E-07  0.1087E-02  0.2726E-04  0.5707E+03
   -1.650015   30.35052  0.5650E-14  0.1338E-04  0.6668E-07  0.1006E-02  0.2468E-04  0.1839E+04
   -1.700014   30.35151  0.5650E-14  0.1267E-04  0.8059E-07  0.8253E-03  0.2218E-04 -0.8546E+04
   -1.750013   30.35324  0.5650E-14  0.1171E-04  0.1034E-06  0.7433E-03  0.1890E-04  0.7684E+07
   -1.800012   30.35471  0.5650E-14  0.1043E-04  0.1504E-06  0.5280E-03  0.1626E-04  0.1771E+06
   -1.850010   30.36034  0.5650E-14  0.8948E-05  0.2399E-06  0.4773E-03  0.1189E-04  0.1394E+09
   -1.900008   30.35967  0.5650E-14  0.7113E-05  0.5006E-06  0.2190E-03  0.9627E-05  0.5943E+07
   -1.950006   30.37789  0.5650E-14  0.4948E-05  0.1271E-05  0.1788E-03  0.5263E-05 -0.7262E+07
   -2.000003   30.38143  0.5650E-14  0.0000E+00  0.0000E+00  0.0000E+00  0.9277E-05  0.0000E+00
