 1 - depth, m
 2 - temperature, C
 3 - salinity, kg/kg
 4 - turbulent kinetic energy, m**2/s**2
 5 - dissipation rate, m**2/s**3
 6 - kinematic heat conductance, m**2/s
 7 - modulus of horizontal velocity, m/s
 8 - Richardson number, n/d
   -0.000000   30.15015  0.6583E-13  0.4744E-05  0.2947E-06  0.5050E-04  0.1259E-02  0.6125E+04
   -0.049997   30.18015  0.6583E-13  0.8178E-05  0.1312E-06  0.1752E-03  0.7202E-03  0.2561E+04
   -0.099994   30.19201  0.6583E-13  0.9937E-05  0.9007E-07  0.4020E-03  0.5242E-03  0.3631E+02
   -0.149992   30.19519  0.6583E-13  0.1103E-04  0.7569E-07  0.4793E-03  0.4631E-03  0.1772E+02
   -0.199991   30.19775  0.6583E-13  0.1188E-04  0.6726E-07  0.6417E-03  0.4134E-03  0.1143E+02
   -0.249989   30.19961  0.6583E-13  0.1256E-04  0.6173E-07  0.7667E-03  0.3762E-03  0.8493E+01
   -0.299988   30.20112  0.6583E-13  0.1311E-04  0.5779E-07  0.8915E-03  0.3453E-03  0.6754E+01
   -0.349988   30.20239  0.6583E-13  0.1357E-04  0.5483E-07  0.1004E-02  0.3187E-03  0.5810E+01
   -0.399988   30.20349  0.6583E-13  0.1395E-04  0.5253E-07  0.1108E-02  0.2954E-03  0.5161E+01
   -0.449988   30.20446  0.6583E-13  0.1429E-04  0.5066E-07  0.1204E-02  0.2747E-03  0.4874E+01
   -0.499988   30.20534  0.6583E-13  0.1458E-04  0.4912E-07  0.1292E-02  0.2566E-03  0.4718E+01
   -0.549989   30.20615  0.6583E-13  0.1483E-04  0.4783E-07  0.1373E-02  0.2402E-03  0.4686E+01
   -0.599989   30.20689  0.6583E-13  0.1504E-04  0.4674E-07  0.1446E-02  0.2255E-03  0.4660E+01
   -0.649990   30.20758  0.6583E-13  0.1523E-04  0.4583E-07  0.1512E-02  0.2120E-03  0.4754E+01
   -0.699992   30.20824  0.6583E-13  0.1538E-04  0.4506E-07  0.1570E-02  0.1997E-03  0.4828E+01
   -0.749993   30.20886  0.6583E-13  0.1551E-04  0.4441E-07  0.1620E-02  0.1882E-03  0.5027E+01
   -0.799994   30.20946  0.6583E-13  0.1562E-04  0.4388E-07  0.1663E-02  0.1777E-03  0.5199E+01
   -0.849996   30.21003  0.6583E-13  0.1571E-04  0.4346E-07  0.1698E-02  0.1677E-03  0.5512E+01
   -0.899998   30.21059  0.6583E-13  0.1577E-04  0.4313E-07  0.1726E-02  0.1584E-03  0.5800E+01
   -0.949999   30.21113  0.6583E-13  0.1581E-04  0.4291E-07  0.1745E-02  0.1497E-03  0.6259E+01
   -1.000001   30.21166  0.6583E-13  0.1583E-04  0.4278E-07  0.1756E-02  0.1414E-03  0.6706E+01
   -1.050003   30.21218  0.6583E-13  0.1583E-04  0.4275E-07  0.1757E-02  0.1335E-03  0.7657E+01
   -1.100004   30.21270  0.6583E-13  0.1581E-04  0.4284E-07  0.1843E-02  0.1260E-03  0.2524E+02
   -1.150006   30.21319  0.6583E-13  0.1577E-04  0.4306E-07  0.1676E-02  0.1193E-03  0.5695E+02
   -1.200008   30.21373  0.6583E-13  0.1570E-04  0.4340E-07  0.1700E-02  0.1124E-03  0.1105E+02
   -1.250009   30.21426  0.6583E-13  0.1561E-04  0.4391E-07  0.1670E-02  0.1058E-03  0.1170E+02
   -1.300010   30.21479  0.6583E-13  0.1549E-04  0.4463E-07  0.1621E-02  0.9939E-04  0.1378E+02
   -1.350012   30.21534  0.6583E-13  0.1534E-04  0.4560E-07  0.1563E-02  0.9321E-04  0.1636E+02
   -1.400013   30.21591  0.6583E-13  0.1515E-04  0.4692E-07  0.1486E-02  0.8717E-04  0.2032E+02
   -1.450014   30.21651  0.6583E-13  0.1493E-04  0.4870E-07  0.1409E-02  0.8127E-04  0.2567E+02
   -1.500014   30.21714  0.6583E-13  0.1465E-04  0.5116E-07  0.1298E-02  0.7545E-04  0.3500E+02
   -1.550014   30.21783  0.6583E-13  0.1430E-04  0.5462E-07  0.1214E-02  0.6963E-04  0.4922E+02
   -1.600015   30.21858  0.6583E-13  0.1388E-04  0.5991E-07  0.1068E-02  0.6392E-04  0.9633E+02
   -1.650014   30.21949  0.6583E-13  0.1333E-04  0.6805E-07  0.9910E-03  0.5782E-04  0.4122E+03
   -1.700014   30.22050  0.6583E-13  0.1258E-04  0.8265E-07  0.8087E-03  0.5184E-04 -0.3210E+05
   -1.750013   30.22230  0.6583E-13  0.1158E-04  0.1065E-06  0.7323E-03  0.4396E-04  0.1959E+06
   -1.800012   30.22376  0.6583E-13  0.1023E-04  0.1560E-06  0.5076E-03  0.3784E-04  0.1954E+05
   -1.850010   30.22995  0.6583E-13  0.8679E-05  0.2513E-06  0.4652E-03  0.2710E-04  0.4090E+08
   -1.900008   30.22894  0.6583E-13  0.6869E-05  0.5202E-06  0.2143E-03  0.2194E-04 -0.4938E+06
   -1.950005   30.24811  0.6583E-13  0.4798E-05  0.1313E-05  0.1849E-03  0.1181E-04 -0.9280E+06
   -2.000002   30.25007  0.6583E-13  0.0000E+00  0.0000E+00  0.0000E+00  0.2160E-04  0.0000E+00
