 1 - depth, m
 2 - temperature, C
 3 - salinity, kg/kg
 4 - turbulent kinetic energy, m**2/s**2
 5 - dissipation rate, m**2/s**3
 6 - kinematic heat conductance, m**2/s
 7 - modulus of horizontal velocity, m/s
 8 - Richardson number, n/d
   -0.000000   30.67664  0.3835E-13  0.4925E-05  0.3096E-06  0.5105E-04  0.1509E-02  0.6831E+04
   -0.049997   30.70779  0.3836E-13  0.8416E-05  0.1383E-06  0.1774E-03  0.8635E-03  0.1011E+04
   -0.099994   30.71986  0.3836E-13  0.1021E-04  0.9509E-07  0.3995E-03  0.6333E-03  0.2134E+02
   -0.149992   30.72321  0.3836E-13  0.1133E-04  0.7970E-07  0.4801E-03  0.5592E-03  0.1044E+02
   -0.199991   30.72588  0.3836E-13  0.1220E-04  0.7068E-07  0.6427E-03  0.4993E-03  0.6678E+01
   -0.249989   30.72780  0.3836E-13  0.1289E-04  0.6476E-07  0.7685E-03  0.4545E-03  0.4920E+01
   -0.299988   30.72937  0.3836E-13  0.1345E-04  0.6053E-07  0.8941E-03  0.4172E-03  0.3904E+01
   -0.349988   30.73068  0.3836E-13  0.1391E-04  0.5735E-07  0.1008E-02  0.3853E-03  0.3334E+01
   -0.399988   30.73181  0.3836E-13  0.1430E-04  0.5488E-07  0.1112E-02  0.3571E-03  0.2963E+01
   -0.449988   30.73281  0.3836E-13  0.1463E-04  0.5285E-07  0.1209E-02  0.3323E-03  0.2779E+01
   -0.499988   30.73371  0.3836E-13  0.1492E-04  0.5118E-07  0.1297E-02  0.3104E-03  0.2697E+01
   -0.549989   30.73454  0.3836E-13  0.1516E-04  0.4976E-07  0.1379E-02  0.2907E-03  0.2659E+01
   -0.599989   30.73530  0.3836E-13  0.1537E-04  0.4857E-07  0.1452E-02  0.2729E-03  0.2652E+01
   -0.649990   30.73601  0.3836E-13  0.1555E-04  0.4755E-07  0.1518E-02  0.2567E-03  0.2683E+01
   -0.699992   30.73668  0.3836E-13  0.1570E-04  0.4668E-07  0.1577E-02  0.2418E-03  0.2734E+01
   -0.749993   30.73731  0.3836E-13  0.1582E-04  0.4595E-07  0.1628E-02  0.2281E-03  0.2822E+01
   -0.799994   30.73791  0.3836E-13  0.1592E-04  0.4533E-07  0.1672E-02  0.2153E-03  0.2929E+01
   -0.849996   30.73849  0.3836E-13  0.1600E-04  0.4482E-07  0.1707E-02  0.2033E-03  0.3078E+01
   -0.899998   30.73905  0.3836E-13  0.1605E-04  0.4441E-07  0.1735E-02  0.1921E-03  0.3248E+01
   -0.949999   30.73960  0.3836E-13  0.1608E-04  0.4411E-07  0.1754E-02  0.1815E-03  0.3475E+01
   -1.000001   30.74013  0.3836E-13  0.1609E-04  0.4390E-07  0.1766E-02  0.1715E-03  0.3732E+01
   -1.050003   30.74066  0.3836E-13  0.1607E-04  0.4380E-07  0.1767E-02  0.1620E-03  0.4225E+01
   -1.100005   30.74117  0.3836E-13  0.1604E-04  0.4381E-07  0.1854E-02  0.1530E-03  0.1396E+02
   -1.150006   30.74166  0.3836E-13  0.1598E-04  0.4396E-07  0.1685E-02  0.1449E-03  0.3159E+02
   -1.200008   30.74219  0.3836E-13  0.1590E-04  0.4423E-07  0.1711E-02  0.1365E-03  0.6060E+01
   -1.250009   30.74271  0.3836E-13  0.1579E-04  0.4467E-07  0.1681E-02  0.1285E-03  0.6417E+01
   -1.300011   30.74324  0.3836E-13  0.1566E-04  0.4532E-07  0.1633E-02  0.1208E-03  0.7504E+01
   -1.350012   30.74378  0.3836E-13  0.1549E-04  0.4623E-07  0.1574E-02  0.1133E-03  0.8938E+01
   -1.400013   30.74433  0.3836E-13  0.1529E-04  0.4748E-07  0.1498E-02  0.1060E-03  0.1104E+02
   -1.450014   30.74491  0.3836E-13  0.1505E-04  0.4921E-07  0.1421E-02  0.9890E-04  0.1402E+02
   -1.500014   30.74552  0.3836E-13  0.1475E-04  0.5163E-07  0.1310E-02  0.9188E-04  0.1911E+02
   -1.550015   30.74619  0.3836E-13  0.1439E-04  0.5508E-07  0.1227E-02  0.8483E-04  0.2728E+02
   -1.600015   30.74690  0.3836E-13  0.1395E-04  0.6045E-07  0.1082E-02  0.7793E-04  0.5705E+02
   -1.650014   30.74779  0.3836E-13  0.1338E-04  0.6878E-07  0.1003E-02  0.7045E-04  0.5071E+03
   -1.700014   30.74877  0.3836E-13  0.1261E-04  0.8357E-07  0.8176E-03  0.6323E-04  0.2172E+05
   -1.750013   30.75052  0.3836E-13  0.1160E-04  0.1080E-06  0.7398E-03  0.5360E-04  0.9930E+05
   -1.800012   30.75192  0.3836E-13  0.1026E-04  0.1599E-06  0.5181E-03  0.4618E-04  0.4594E+05
   -1.850010   30.75778  0.3836E-13  0.8762E-05  0.2571E-06  0.4778E-03  0.3338E-04  0.6091E+07
   -1.900008   30.75649  0.3836E-13  0.6968E-05  0.5391E-06  0.2143E-03  0.2729E-04  0.9953E+04
   -1.950005   30.77427  0.3836E-13  0.4846E-05  0.1340E-05  0.1870E-03  0.1487E-04 -0.3617E+07
   -2.000002   30.77650  0.3836E-13  0.0000E+00  0.0000E+00  0.0000E+00  0.2675E-04  0.0000E+00
