 1 - depth, m
 2 - temperature, C
 3 - salinity, kg/kg
 4 - turbulent kinetic energy, m**2/s**2
 5 - dissipation rate, m**2/s**3
 6 - kinematic heat conductance, m**2/s
 7 - modulus of horizontal velocity, m/s
 8 - Richardson number, n/d
   -0.000000   30.65173  0.2432E-14  0.5065E-05  0.3217E-06  0.5210E-04  0.1874E-02  0.5477E+04
   -0.049997   30.68295  0.2432E-14  0.8567E-05  0.1433E-06  0.1785E-03  0.1072E-02  0.2363E+04
   -0.099994   30.69515  0.2432E-14  0.1039E-04  0.9828E-07  0.4007E-03  0.7880E-03  0.1473E+02
   -0.149992   30.69855  0.2432E-14  0.1153E-04  0.8225E-07  0.4818E-03  0.6961E-03  0.7232E+01
   -0.199991   30.70127  0.2432E-14  0.1241E-04  0.7289E-07  0.6452E-03  0.6216E-03  0.4621E+01
   -0.249989   30.70324  0.2432E-14  0.1311E-04  0.6676E-07  0.7716E-03  0.5660E-03  0.3407E+01
   -0.299988   30.70483  0.2432E-14  0.1369E-04  0.6240E-07  0.8980E-03  0.5197E-03  0.2702E+01
   -0.349988   30.70617  0.2432E-14  0.1416E-04  0.5912E-07  0.1012E-02  0.4801E-03  0.2309E+01
   -0.399988   30.70733  0.2432E-14  0.1455E-04  0.5658E-07  0.1117E-02  0.4451E-03  0.2052E+01
   -0.449988   30.70836  0.2432E-14  0.1489E-04  0.5450E-07  0.1213E-02  0.4143E-03  0.1929E+01
   -0.499988   30.70928  0.2432E-14  0.1519E-04  0.5278E-07  0.1303E-02  0.3870E-03  0.1876E+01
   -0.549989   30.71013  0.2432E-14  0.1544E-04  0.5134E-07  0.1385E-02  0.3625E-03  0.1853E+01
   -0.599989   30.71091  0.2432E-14  0.1565E-04  0.5012E-07  0.1459E-02  0.3404E-03  0.1850E+01
   -0.649990   30.71164  0.2432E-14  0.1584E-04  0.4908E-07  0.1525E-02  0.3202E-03  0.1873E+01
   -0.699992   30.71232  0.2432E-14  0.1599E-04  0.4820E-07  0.1584E-02  0.3017E-03  0.1907E+01
   -0.749993   30.71297  0.2432E-14  0.1612E-04  0.4746E-07  0.1634E-02  0.2845E-03  0.1969E+01
   -0.799994   30.71360  0.2432E-14  0.1621E-04  0.4685E-07  0.1677E-02  0.2686E-03  0.2043E+01
   -0.849996   30.71419  0.2432E-14  0.1629E-04  0.4634E-07  0.1711E-02  0.2538E-03  0.2149E+01
   -0.899998   30.71477  0.2432E-14  0.1634E-04  0.4595E-07  0.1738E-02  0.2398E-03  0.2271E+01
   -0.949999   30.71534  0.2432E-14  0.1637E-04  0.4566E-07  0.1756E-02  0.2267E-03  0.2433E+01
   -1.000001   30.71589  0.2432E-14  0.1638E-04  0.4548E-07  0.1766E-02  0.2143E-03  0.2618E+01
   -1.050003   30.71643  0.2432E-14  0.1636E-04  0.4540E-07  0.1765E-02  0.2025E-03  0.2967E+01
   -1.100005   30.71697  0.2432E-14  0.1632E-04  0.4545E-07  0.1860E-02  0.1912E-03  0.9703E+01
   -1.150006   30.71748  0.2432E-14  0.1626E-04  0.4564E-07  0.1668E-02  0.1812E-03  0.2278E+02
   -1.200008   30.71804  0.2432E-14  0.1617E-04  0.4597E-07  0.1701E-02  0.1707E-03  0.4311E+01
   -1.250009   30.71858  0.2432E-14  0.1606E-04  0.4649E-07  0.1669E-02  0.1607E-03  0.4570E+01
   -1.300011   30.71913  0.2432E-14  0.1591E-04  0.4723E-07  0.1617E-02  0.1511E-03  0.5375E+01
   -1.350012   30.71970  0.2432E-14  0.1573E-04  0.4826E-07  0.1556E-02  0.1417E-03  0.6438E+01
   -1.400013   30.72028  0.2432E-14  0.1551E-04  0.4968E-07  0.1475E-02  0.1326E-03  0.8031E+01
   -1.450014   30.72090  0.2432E-14  0.1525E-04  0.5163E-07  0.1396E-02  0.1236E-03  0.1029E+02
   -1.500014   30.72155  0.2432E-14  0.1492E-04  0.5437E-07  0.1280E-02  0.1148E-03  0.1425E+02
   -1.550015   30.72227  0.2432E-14  0.1453E-04  0.5832E-07  0.1199E-02  0.1059E-03  0.2074E+02
   -1.600015   30.72304  0.2432E-14  0.1405E-04  0.6452E-07  0.1051E-02  0.9718E-04  0.4290E+02
   -1.650014   30.72402  0.2432E-14  0.1342E-04  0.7425E-07  0.9740E-03  0.8765E-04  0.2153E+03
   -1.700014   30.72512  0.2432E-14  0.1255E-04  0.9160E-07  0.7883E-03  0.7827E-04 -0.2104E+03
   -1.750013   30.72715  0.2432E-14  0.1143E-04  0.1199E-06  0.7159E-03  0.6561E-04  0.1104E+06
   -1.800012   30.72865  0.2432E-14  0.9977E-05  0.1828E-06  0.4874E-03  0.5634E-04  0.7682E+04
   -1.850010   30.73589  0.2432E-14  0.8410E-05  0.2990E-06  0.4608E-03  0.3929E-04  0.1980E+08
   -1.900008   30.73366  0.2432E-14  0.6678E-05  0.6275E-06  0.2121E-03  0.3226E-04 -0.8669E+05
   -1.950005   30.75407  0.2432E-14  0.4699E-05  0.1538E-05  0.2011E-03  0.1709E-04 -0.9107E+06
   -2.000002   30.75527  0.2432E-14  0.0000E+00  0.0000E+00  0.0000E+00  0.3314E-04  0.0000E+00
