 1 - depth, m
 2 - temperature, C
 3 - salinity, kg/kg
 4 - turbulent kinetic energy, m**2/s**2
 5 - dissipation rate, m**2/s**3
 6 - kinematic heat conductance, m**2/s
 7 - modulus of horizontal velocity, m/s
 8 - Richardson number, n/d
   -0.000000   30.57141  0.2209E-13  0.4902E-05  0.3075E-06  0.5022E-04  0.1230E-02  0.5127E+04
   -0.049997   30.60311  0.2209E-13  0.8448E-05  0.1369E-06  0.1812E-03  0.6976E-03  0.1617E+03
   -0.099994   30.61502  0.2209E-13  0.1024E-04  0.9456E-07  0.4031E-03  0.5131E-03  0.3235E+02
   -0.149992   30.61834  0.2209E-13  0.1136E-04  0.7943E-07  0.4851E-03  0.4534E-03  0.1589E+02
   -0.199991   30.62099  0.2209E-13  0.1223E-04  0.7054E-07  0.6478E-03  0.4052E-03  0.1020E+02
   -0.249989   30.62291  0.2209E-13  0.1292E-04  0.6471E-07  0.7735E-03  0.3690E-03  0.7538E+01
   -0.299988   30.62447  0.2209E-13  0.1349E-04  0.6054E-07  0.8994E-03  0.3389E-03  0.5994E+01
   -0.349988   30.62577  0.2209E-13  0.1395E-04  0.5741E-07  0.1013E-02  0.3131E-03  0.5126E+01
   -0.399988   30.62691  0.2209E-13  0.1434E-04  0.5497E-07  0.1117E-02  0.2903E-03  0.4563E+01
   -0.449988   30.62791  0.2209E-13  0.1468E-04  0.5298E-07  0.1213E-02  0.2702E-03  0.4286E+01
   -0.499988   30.62882  0.2209E-13  0.1496E-04  0.5134E-07  0.1302E-02  0.2525E-03  0.4164E+01
   -0.549989   30.62965  0.2209E-13  0.1521E-04  0.4995E-07  0.1383E-02  0.2366E-03  0.4109E+01
   -0.599990   30.63041  0.2209E-13  0.1543E-04  0.4878E-07  0.1456E-02  0.2222E-03  0.4105E+01
   -0.649991   30.63113  0.2209E-13  0.1561E-04  0.4779E-07  0.1522E-02  0.2090E-03  0.4155E+01
   -0.699992   30.63180  0.2209E-13  0.1576E-04  0.4695E-07  0.1580E-02  0.1969E-03  0.4242E+01
   -0.749993   30.63244  0.2209E-13  0.1588E-04  0.4624E-07  0.1630E-02  0.1858E-03  0.4381E+01
   -0.799995   30.63305  0.2209E-13  0.1598E-04  0.4564E-07  0.1672E-02  0.1754E-03  0.4556E+01
   -0.849996   30.63364  0.2209E-13  0.1606E-04  0.4516E-07  0.1707E-02  0.1657E-03  0.4790E+01
   -0.899998   30.63421  0.2209E-13  0.1611E-04  0.4478E-07  0.1734E-02  0.1565E-03  0.5069E+01
   -0.949999   30.63476  0.2209E-13  0.1614E-04  0.4450E-07  0.1752E-02  0.1480E-03  0.5426E+01
   -1.000001   30.63530  0.2209E-13  0.1615E-04  0.4433E-07  0.1762E-02  0.1398E-03  0.5846E+01
   -1.050003   30.63583  0.2209E-13  0.1614E-04  0.4426E-07  0.1762E-02  0.1321E-03  0.6623E+01
   -1.100005   30.63636  0.2209E-13  0.1610E-04  0.4430E-07  0.1854E-02  0.1247E-03  0.2173E+02
   -1.150006   30.63686  0.2209E-13  0.1604E-04  0.4449E-07  0.1668E-02  0.1182E-03  0.5058E+02
   -1.200008   30.63741  0.2209E-13  0.1596E-04  0.4481E-07  0.1699E-02  0.1113E-03  0.9603E+01
   -1.250009   30.63794  0.2209E-13  0.1585E-04  0.4531E-07  0.1668E-02  0.1048E-03  0.1020E+02
   -1.300011   30.63848  0.2209E-13  0.1571E-04  0.4602E-07  0.1617E-02  0.9852E-04  0.1196E+02
   -1.350012   30.63903  0.2209E-13  0.1553E-04  0.4700E-07  0.1556E-02  0.9242E-04  0.1433E+02
   -1.400013   30.63960  0.2209E-13  0.1532E-04  0.4835E-07  0.1477E-02  0.8647E-04  0.1780E+02
   -1.450014   30.64021  0.2209E-13  0.1507E-04  0.5021E-07  0.1398E-02  0.8062E-04  0.2279E+02
   -1.500014   30.64084  0.2209E-13  0.1476E-04  0.5282E-07  0.1284E-02  0.7487E-04  0.3134E+02
   -1.550015   30.64154  0.2209E-13  0.1438E-04  0.5655E-07  0.1201E-02  0.6909E-04  0.4539E+02
   -1.600015   30.64229  0.2209E-13  0.1391E-04  0.6235E-07  0.1054E-02  0.6342E-04  0.9156E+02
   -1.650014   30.64322  0.2209E-13  0.1331E-04  0.7143E-07  0.9769E-03  0.5727E-04  0.4069E+02
   -1.700014   30.64427  0.2209E-13  0.1248E-04  0.8774E-07  0.7923E-03  0.5125E-04  0.3019E+05
   -1.750013   30.64619  0.2209E-13  0.1139E-04  0.1145E-06  0.7161E-03  0.4315E-04  0.1493E+06
   -1.800012   30.64770  0.2209E-13  0.9967E-05  0.1707E-06  0.4941E-03  0.3699E-04  0.9300E+05
   -1.850010   30.65431  0.2209E-13  0.8407E-05  0.2778E-06  0.4591E-03  0.2615E-04  0.1463E+09
   -1.900008   30.65270  0.2209E-13  0.6651E-05  0.5799E-06  0.2098E-03  0.2127E-04  0.1761E+06
   -1.950005   30.67229  0.2209E-13  0.4674E-05  0.1435E-05  0.1952E-03  0.1132E-04 -0.1490E+07
   -2.000002   30.67347  0.2209E-13  0.0000E+00  0.0000E+00  0.0000E+00  0.2150E-04  0.0000E+00
