 1 - depth, m
 2 - temperature, C
 3 - salinity, kg/kg
 4 - turbulent kinetic energy, m**2/s**2
 5 - dissipation rate, m**2/s**3
 6 - kinematic heat conductance, m**2/s
 7 - modulus of horizontal velocity, m/s
 8 - Richardson number, n/d
   -0.000000   30.67405  0.5309E-14  0.6020E-05  0.3218E-06  0.5778E-04  0.4755E-02  0.1218E+03
   -0.049997   30.70298  0.5309E-14  0.9246E-05  0.1363E-06  0.2173E-03  0.2554E-02  0.2569E+02
   -0.099994   30.71096  0.5310E-14  0.1063E-04  0.9927E-07  0.3859E-03  0.2096E-02  0.2713E+01
   -0.149992   30.71438  0.5310E-14  0.1161E-04  0.8439E-07  0.4767E-03  0.1890E-02  0.1543E+01
   -0.199991   30.71702  0.5310E-14  0.1243E-04  0.7550E-07  0.5941E-03  0.1727E-02  0.1304E+01
   -0.249989   30.71907  0.5310E-14  0.1317E-04  0.6920E-07  0.7159E-03  0.1587E-02  0.1388E+01
   -0.299988   30.72074  0.5310E-14  0.1389E-04  0.6424E-07  0.8618E-03  0.1453E-02  0.1500E+01
   -0.349988   30.72208  0.5310E-14  0.1457E-04  0.6018E-07  0.1023E-02  0.1321E-02  0.1609E+01
   -0.399988   30.72319  0.5310E-14  0.1519E-04  0.5685E-07  0.1189E-02  0.1192E-02  0.1625E+01
   -0.449988   30.72413  0.5310E-14  0.1575E-04  0.5411E-07  0.1341E-02  0.1073E-02  0.1610E+01
   -0.499988   30.72494  0.5310E-14  0.1623E-04  0.5188E-07  0.1479E-02  0.9674E-03  0.1590E+01
   -0.549989   30.72566  0.5310E-14  0.1663E-04  0.5008E-07  0.1606E-02  0.8743E-03  0.1562E+01
   -0.599989   30.72631  0.5310E-14  0.1696E-04  0.4863E-07  0.1725E-02  0.7920E-03  0.1531E+01
   -0.649990   30.72691  0.5310E-14  0.1722E-04  0.4749E-07  0.1833E-02  0.7192E-03  0.1500E+01
   -0.699992   30.72747  0.5310E-14  0.1741E-04  0.4660E-07  0.1927E-02  0.6549E-03  0.1466E+01
   -0.749993   30.72799  0.5310E-14  0.1755E-04  0.4593E-07  0.2000E-02  0.5979E-03  0.1431E+01
   -0.799994   30.72848  0.5310E-14  0.1764E-04  0.4546E-07  0.2049E-02  0.5475E-03  0.1392E+01
   -0.849996   30.72896  0.5310E-14  0.1768E-04  0.4516E-07  0.2075E-02  0.5028E-03  0.1352E+01
   -0.899998   30.72943  0.5310E-14  0.1768E-04  0.4503E-07  0.2079E-02  0.4631E-03  0.1308E+01
   -0.949999   30.72989  0.5310E-14  0.1765E-04  0.4505E-07  0.2068E-02  0.4279E-03  0.1264E+01
   -1.000001   30.73035  0.5310E-14  0.1759E-04  0.4521E-07  0.2042E-02  0.3967E-03  0.1216E+01
   -1.050003   30.73081  0.5310E-14  0.1750E-04  0.4550E-07  0.1984E-02  0.3690E-03  0.1163E+01
   -1.100004   30.73128  0.5310E-14  0.1741E-04  0.4586E-07  0.2196E-02  0.3446E-03  0.2280E+01
   -1.150006   30.73170  0.5310E-14  0.1730E-04  0.4636E-07  0.1749E-02  0.3290E-03  0.6338E+01
   -1.200008   30.73223  0.5310E-14  0.1716E-04  0.4701E-07  0.1869E-02  0.3105E-03  0.1197E+01
   -1.250009   30.73272  0.5310E-14  0.1698E-04  0.4791E-07  0.1816E-02  0.2926E-03  0.1224E+01
   -1.300011   30.73323  0.5310E-14  0.1678E-04  0.4907E-07  0.1741E-02  0.2758E-03  0.1409E+01
   -1.350012   30.73375  0.5310E-14  0.1654E-04  0.5060E-07  0.1662E-02  0.2597E-03  0.1710E+01
   -1.400013   30.73430  0.5310E-14  0.1626E-04  0.5265E-07  0.1557E-02  0.2439E-03  0.2190E+01
   -1.450014   30.73488  0.5310E-14  0.1592E-04  0.5545E-07  0.1462E-02  0.2281E-03  0.2927E+01
   -1.500014   30.73552  0.5310E-14  0.1552E-04  0.5940E-07  0.1331E-02  0.2124E-03  0.4319E+01
   -1.550014   30.73623  0.5310E-14  0.1502E-04  0.6522E-07  0.1239E-02  0.1964E-03  0.2140E+01
   -1.600015   30.73704  0.5310E-14  0.1439E-04  0.7459E-07  0.1083E-02  0.1801E-03  0.2736E+01
   -1.650014   30.73816  0.5310E-14  0.1357E-04  0.8906E-07  0.9891E-03  0.1614E-03  0.2809E+04
   -1.700014   30.73941  0.5310E-14  0.1244E-04  0.1174E-06  0.7935E-03  0.1428E-03  0.5899E+04
   -1.750013   30.74189  0.5310E-14  0.1117E-04  0.1585E-06  0.7149E-03  0.1170E-03  0.3749E+05
   -1.800012   30.74312  0.5310E-14  0.9574E-05  0.2520E-06  0.4733E-03  0.1011E-03  0.4724E+05
   -1.850010   30.75277  0.5310E-14  0.8068E-05  0.4219E-06  0.4662E-03  0.6697E-04  0.6410E+07
   -1.900008   30.74788  0.5310E-14  0.6437E-05  0.8835E-06  0.2185E-03  0.5669E-04 -0.6121E+05
   -1.950005   30.77162  0.5310E-14  0.4634E-05  0.2046E-05  0.2373E-03  0.2918E-04 -0.1252E+06
   -2.000002   30.77048  0.5310E-14  0.0000E+00  0.0000E+00  0.0000E+00  0.6354E-04  0.0000E+00
