 1 - depth, m
 2 - temperature, C
 3 - salinity, kg/kg
 4 - turbulent kinetic energy, m**2/s**2
 5 - dissipation rate, m**2/s**3
 6 - kinematic heat conductance, m**2/s
 7 - modulus of horizontal velocity, m/s
 8 - Richardson number, n/d
   -0.000000   30.51866  0.1069E-14  0.4804E-05  0.3015E-06  0.5028E-04  0.8371E-03  0.2150E+05
   -0.049997   30.54942  0.1069E-14  0.8384E-05  0.1337E-06  0.1803E-03  0.4751E-03  0.4852E+02
   -0.099994   30.56123  0.1069E-14  0.1018E-04  0.9223E-07  0.4119E-03  0.3467E-03  0.7430E+02
   -0.149992   30.56439  0.1069E-14  0.1130E-04  0.7772E-07  0.4889E-03  0.3069E-03  0.3648E+02
   -0.199991   30.56695  0.1069E-14  0.1217E-04  0.6919E-07  0.6543E-03  0.2743E-03  0.2365E+02
   -0.249989   30.56881  0.1069E-14  0.1287E-04  0.6360E-07  0.7805E-03  0.2499E-03  0.1760E+02
   -0.299988   30.57033  0.1069E-14  0.1344E-04  0.5962E-07  0.9069E-03  0.2296E-03  0.1407E+02
   -0.349988   30.57160  0.1069E-14  0.1391E-04  0.5664E-07  0.1021E-02  0.2122E-03  0.1209E+02
   -0.399988   30.57271  0.1069E-14  0.1431E-04  0.5432E-07  0.1125E-02  0.1968E-03  0.1080E+02
   -0.449988   30.57370  0.1069E-14  0.1465E-04  0.5244E-07  0.1222E-02  0.1833E-03  0.1016E+02
   -0.499988   30.57459  0.1069E-14  0.1495E-04  0.5090E-07  0.1311E-02  0.1713E-03  0.9895E+01
   -0.549989   30.57540  0.1069E-14  0.1521E-04  0.4961E-07  0.1392E-02  0.1605E-03  0.9789E+01
   -0.599989   30.57616  0.1069E-14  0.1543E-04  0.4853E-07  0.1465E-02  0.1508E-03  0.9804E+01
   -0.649990   30.57686  0.1069E-14  0.1563E-04  0.4763E-07  0.1531E-02  0.1419E-03  0.9958E+01
   -0.699992   30.57753  0.1069E-14  0.1579E-04  0.4687E-07  0.1589E-02  0.1337E-03  0.1020E+02
   -0.749993   30.57817  0.1069E-14  0.1593E-04  0.4625E-07  0.1639E-02  0.1261E-03  0.1057E+02
   -0.799994   30.57878  0.1069E-14  0.1604E-04  0.4574E-07  0.1681E-02  0.1191E-03  0.1104E+02
   -0.849996   30.57936  0.1069E-14  0.1613E-04  0.4535E-07  0.1715E-02  0.1125E-03  0.1166E+02
   -0.899998   30.57993  0.1069E-14  0.1620E-04  0.4506E-07  0.1741E-02  0.1064E-03  0.1239E+02
   -0.949999   30.58049  0.1069E-14  0.1624E-04  0.4487E-07  0.1758E-02  0.1005E-03  0.1334E+02
   -1.000001   30.58104  0.1069E-14  0.1626E-04  0.4479E-07  0.1768E-02  0.9502E-04  0.1445E+02
   -1.050003   30.58158  0.1069E-14  0.1627E-04  0.4482E-07  0.1767E-02  0.8977E-04  0.1647E+02
   -1.100004   30.58212  0.1069E-14  0.1624E-04  0.4497E-07  0.1862E-02  0.8478E-04  0.5417E+02
   -1.150006   30.58263  0.1069E-14  0.1620E-04  0.4527E-07  0.1668E-02  0.8035E-04  0.1269E+03
   -1.200008   30.58319  0.1069E-14  0.1613E-04  0.4571E-07  0.1700E-02  0.7568E-04  0.2424E+02
   -1.250009   30.58375  0.1069E-14  0.1603E-04  0.4633E-07  0.1668E-02  0.7125E-04  0.2600E+02
   -1.300010   30.58431  0.1069E-14  0.1590E-04  0.4718E-07  0.1615E-02  0.6697E-04  0.3073E+02
   -1.350011   30.58489  0.1069E-14  0.1574E-04  0.4833E-07  0.1554E-02  0.6282E-04  0.3711E+02
   -1.400012   30.58549  0.1069E-14  0.1554E-04  0.4986E-07  0.1471E-02  0.5876E-04  0.4654E+02
   -1.450013   30.58613  0.1069E-14  0.1529E-04  0.5195E-07  0.1394E-02  0.5477E-04  0.6006E+02
   -1.500014   30.58680  0.1069E-14  0.1498E-04  0.5484E-07  0.1274E-02  0.5086E-04  0.8381E+02
   -1.550014   30.58755  0.1069E-14  0.1461E-04  0.5893E-07  0.1196E-02  0.4689E-04  0.1219E+03
   -1.600014   30.58836  0.1069E-14  0.1414E-04  0.6533E-07  0.1042E-02  0.4304E-04  0.2799E+03
   -1.650014   30.58940  0.1069E-14  0.1352E-04  0.7519E-07  0.9692E-03  0.3876E-04  0.3885E+04
   -1.700013   30.59053  0.1069E-14  0.1267E-04  0.9290E-07  0.7801E-03  0.3470E-04 -0.1185E+05
   -1.750013   30.59275  0.1069E-14  0.1156E-04  0.1221E-06  0.7102E-03  0.2900E-04  0.3093E+06
   -1.800011   30.59435  0.1069E-14  0.1011E-04  0.1849E-06  0.4877E-03  0.2487E-04  0.7201E+05
   -1.850010   30.60199  0.1069E-14  0.8520E-05  0.3023E-06  0.4523E-03  0.1736E-04  0.3080E+08
   -1.900007   30.59982  0.1069E-14  0.6704E-05  0.6396E-06  0.2043E-03  0.1414E-04 -0.7640E+06
   -1.950005   30.62213  0.1069E-14  0.4756E-05  0.1565E-05  0.2017E-03  0.7394E-05 -0.2907E+07
   -2.000002   30.62381  0.1069E-14  0.0000E+00  0.0000E+00  0.0000E+00  0.1443E-04  0.0000E+00
