 1 - depth, m
 2 - temperature, C
 3 - salinity, kg/kg
 4 - turbulent kinetic energy, m**2/s**2
 5 - dissipation rate, m**2/s**3
 6 - kinematic heat conductance, m**2/s
 7 - modulus of horizontal velocity, m/s
 8 - Richardson number, n/d
   -0.000000   30.51966  0.6424E-14  0.4677E-05  0.2896E-06  0.4990E-04  0.7266E-03  0.2191E+05
   -0.049997   30.54959  0.6424E-14  0.8195E-05  0.1284E-06  0.1770E-03  0.4147E-03  0.5744E+02
   -0.099994   30.56115  0.6424E-14  0.9948E-05  0.8842E-07  0.4108E-03  0.2997E-03  0.9746E+02
   -0.149992   30.56422  0.6424E-14  0.1103E-04  0.7462E-07  0.4846E-03  0.2655E-03  0.4781E+02
   -0.199991   30.56671  0.6424E-14  0.1188E-04  0.6646E-07  0.6481E-03  0.2372E-03  0.3113E+02
   -0.249989   30.56853  0.6424E-14  0.1255E-04  0.6108E-07  0.7732E-03  0.2160E-03  0.2321E+02
   -0.299988   30.57000  0.6424E-14  0.1310E-04  0.5724E-07  0.8977E-03  0.1984E-03  0.1851E+02
   -0.349988   30.57125  0.6424E-14  0.1355E-04  0.5435E-07  0.1011E-02  0.1832E-03  0.1593E+02
   -0.399988   30.57232  0.6424E-14  0.1393E-04  0.5210E-07  0.1114E-02  0.1698E-03  0.1417E+02
   -0.449988   30.57328  0.6424E-14  0.1426E-04  0.5027E-07  0.1209E-02  0.1580E-03  0.1338E+02
   -0.499988   30.57414  0.6424E-14  0.1455E-04  0.4875E-07  0.1297E-02  0.1476E-03  0.1297E+02
   -0.549989   30.57493  0.6424E-14  0.1480E-04  0.4748E-07  0.1378E-02  0.1383E-03  0.1286E+02
   -0.599990   30.57566  0.6424E-14  0.1501E-04  0.4641E-07  0.1451E-02  0.1298E-03  0.1281E+02
   -0.649991   30.57635  0.6424E-14  0.1519E-04  0.4551E-07  0.1516E-02  0.1221E-03  0.1304E+02
   -0.699992   30.57699  0.6424E-14  0.1535E-04  0.4474E-07  0.1574E-02  0.1150E-03  0.1326E+02
   -0.749993   30.57760  0.6424E-14  0.1548E-04  0.4410E-07  0.1625E-02  0.1085E-03  0.1378E+02
   -0.799995   30.57819  0.6424E-14  0.1559E-04  0.4357E-07  0.1667E-02  0.1024E-03  0.1426E+02
   -0.849996   30.57875  0.6424E-14  0.1567E-04  0.4315E-07  0.1702E-02  0.9666E-04  0.1509E+02
   -0.899998   30.57930  0.6424E-14  0.1573E-04  0.4282E-07  0.1730E-02  0.9132E-04  0.1589E+02
   -0.950000   30.57983  0.6424E-14  0.1577E-04  0.4259E-07  0.1748E-02  0.8628E-04  0.1710E+02
   -1.000001   30.58035  0.6424E-14  0.1579E-04  0.4246E-07  0.1759E-02  0.8152E-04  0.1833E+02
   -1.050003   30.58086  0.6424E-14  0.1579E-04  0.4243E-07  0.1761E-02  0.7699E-04  0.2087E+02
   -1.100005   30.58137  0.6424E-14  0.1577E-04  0.4250E-07  0.1846E-02  0.7268E-04  0.6879E+02
   -1.150006   30.58185  0.6424E-14  0.1572E-04  0.4271E-07  0.1680E-02  0.6883E-04  0.1558E+03
   -1.200008   30.58238  0.6424E-14  0.1566E-04  0.4304E-07  0.1704E-02  0.6484E-04  0.3005E+02
   -1.250009   30.58290  0.6424E-14  0.1556E-04  0.4353E-07  0.1674E-02  0.6103E-04  0.3183E+02
   -1.300011   30.58342  0.6424E-14  0.1544E-04  0.4423E-07  0.1626E-02  0.5736E-04  0.3738E+02
   -1.350012   30.58396  0.6424E-14  0.1529E-04  0.4518E-07  0.1567E-02  0.5380E-04  0.4447E+02
   -1.400013   30.58451  0.6424E-14  0.1510E-04  0.4646E-07  0.1491E-02  0.5033E-04  0.5510E+02
   -1.450014   30.58509  0.6424E-14  0.1488E-04  0.4820E-07  0.1414E-02  0.4693E-04  0.6984E+02
   -1.500014   30.58571  0.6424E-14  0.1460E-04  0.5061E-07  0.1304E-02  0.4358E-04  0.9504E+02
   -1.550015   30.58638  0.6424E-14  0.1426E-04  0.5402E-07  0.1219E-02  0.4023E-04  0.1350E+03
   -1.600015   30.58711  0.6424E-14  0.1384E-04  0.5922E-07  0.1077E-02  0.3694E-04  0.2728E+03
   -1.650015   30.58799  0.6424E-14  0.1329E-04  0.6726E-07  0.9933E-03  0.3343E-04  0.4847E+04
   -1.700014   30.58898  0.6424E-14  0.1255E-04  0.8150E-07  0.8157E-03  0.2999E-04  0.1874E+05
   -1.750013   30.59070  0.6424E-14  0.1157E-04  0.1049E-06  0.7336E-03  0.2551E-04  0.5733E+06
   -1.800012   30.59216  0.6424E-14  0.1024E-04  0.1549E-06  0.5175E-03  0.2194E-04  0.2492E+07
   -1.850010   30.59796  0.6424E-14  0.8732E-05  0.2481E-06  0.4701E-03  0.1590E-04  0.8990E+09
   -1.900008   30.59704  0.6424E-14  0.6904E-05  0.5178E-06  0.2140E-03  0.1289E-04 -0.1267E+07
   -1.950006   30.61527  0.6424E-14  0.4808E-05  0.1298E-05  0.1844E-03  0.6991E-05 -0.1606E+07
   -2.000003   30.61779  0.6424E-14  0.0000E+00  0.0000E+00  0.0000E+00  0.1256E-04  0.0000E+00
