 1 - depth, m
 2 - temperature, C
 3 - salinity, kg/kg
 4 - turbulent kinetic energy, m**2/s**2
 5 - dissipation rate, m**2/s**3
 6 - kinematic heat conductance, m**2/s
 7 - modulus of horizontal velocity, m/s
 8 - Richardson number, n/d
   -0.000000   30.65022  0.3909E-14  0.5067E-05  0.3220E-06  0.5211E-04  0.1872E-02  0.7353E+04
   -0.049997   30.68143  0.3909E-14  0.8572E-05  0.1434E-06  0.1786E-03  0.1071E-02  0.2634E+04
   -0.099994   30.69364  0.3909E-14  0.1039E-04  0.9834E-07  0.4010E-03  0.7869E-03  0.1472E+02
   -0.149992   30.69704  0.3909E-14  0.1153E-04  0.8230E-07  0.4823E-03  0.6950E-03  0.7224E+01
   -0.199991   30.69975  0.3909E-14  0.1242E-04  0.7292E-07  0.6460E-03  0.6206E-03  0.4613E+01
   -0.249989   30.70172  0.3909E-14  0.1312E-04  0.6679E-07  0.7726E-03  0.5651E-03  0.3399E+01
   -0.299988   30.70331  0.3909E-14  0.1370E-04  0.6242E-07  0.8993E-03  0.5189E-03  0.2695E+01
   -0.349988   30.70465  0.3909E-14  0.1417E-04  0.5914E-07  0.1014E-02  0.4793E-03  0.2302E+01
   -0.399988   30.70580  0.3909E-14  0.1457E-04  0.5659E-07  0.1119E-02  0.4444E-03  0.2046E+01
   -0.449988   30.70682  0.3909E-14  0.1491E-04  0.5451E-07  0.1216E-02  0.4136E-03  0.1922E+01
   -0.499988   30.70775  0.3909E-14  0.1520E-04  0.5279E-07  0.1306E-02  0.3864E-03  0.1868E+01
   -0.549989   30.70859  0.3909E-14  0.1546E-04  0.5135E-07  0.1388E-02  0.3620E-03  0.1843E+01
   -0.599989   30.70937  0.3909E-14  0.1567E-04  0.5012E-07  0.1462E-02  0.3399E-03  0.1839E+01
   -0.649990   30.71009  0.3909E-14  0.1586E-04  0.4909E-07  0.1529E-02  0.3198E-03  0.1860E+01
   -0.699992   30.71078  0.3909E-14  0.1601E-04  0.4821E-07  0.1588E-02  0.3013E-03  0.1895E+01
   -0.749993   30.71143  0.3909E-14  0.1614E-04  0.4746E-07  0.1639E-02  0.2842E-03  0.1954E+01
   -0.799994   30.71205  0.3909E-14  0.1624E-04  0.4684E-07  0.1682E-02  0.2683E-03  0.2028E+01
   -0.849996   30.71264  0.3909E-14  0.1632E-04  0.4633E-07  0.1718E-02  0.2535E-03  0.2131E+01
   -0.899998   30.71322  0.3909E-14  0.1637E-04  0.4593E-07  0.1745E-02  0.2396E-03  0.2250E+01
   -0.949999   30.71378  0.3909E-14  0.1640E-04  0.4564E-07  0.1764E-02  0.2265E-03  0.2408E+01
   -1.000001   30.71433  0.3909E-14  0.1641E-04  0.4545E-07  0.1774E-02  0.2141E-03  0.2589E+01
   -1.050003   30.71487  0.3909E-14  0.1640E-04  0.4537E-07  0.1775E-02  0.2023E-03  0.2930E+01
   -1.100005   30.71540  0.3909E-14  0.1636E-04  0.4540E-07  0.1866E-02  0.1911E-03  0.9617E+01
   -1.150006   30.71590  0.3909E-14  0.1630E-04  0.4558E-07  0.1684E-02  0.1811E-03  0.2226E+02
   -1.200008   30.71646  0.3909E-14  0.1622E-04  0.4589E-07  0.1714E-02  0.1706E-03  0.4227E+01
   -1.250009   30.71700  0.3909E-14  0.1611E-04  0.4639E-07  0.1683E-02  0.1607E-03  0.4481E+01
   -1.300011   30.71754  0.3909E-14  0.1597E-04  0.4710E-07  0.1632E-02  0.1511E-03  0.5245E+01
   -1.350012   30.71810  0.3909E-14  0.1579E-04  0.4809E-07  0.1572E-02  0.1418E-03  0.6275E+01
   -1.400013   30.71868  0.3909E-14  0.1558E-04  0.4946E-07  0.1492E-02  0.1327E-03  0.7774E+01
   -1.450014   30.71929  0.3909E-14  0.1532E-04  0.5133E-07  0.1415E-02  0.1238E-03  0.9935E+01
   -1.500014   30.71993  0.3909E-14  0.1501E-04  0.5396E-07  0.1299E-02  0.1150E-03  0.1363E+02
   -1.550015   30.72063  0.3909E-14  0.1463E-04  0.5771E-07  0.1218E-02  0.1061E-03  0.1961E+02
   -1.600015   30.72139  0.3909E-14  0.1416E-04  0.6358E-07  0.1069E-02  0.9751E-04  0.4252E+02
   -1.650014   30.72234  0.3909E-14  0.1356E-04  0.7272E-07  0.9932E-03  0.8807E-04  0.3462E+05
   -1.700014   30.72339  0.3909E-14  0.1273E-04  0.8905E-07  0.8061E-03  0.7896E-04  0.2081E+04
   -1.750013   30.72530  0.3909E-14  0.1165E-04  0.1159E-06  0.7287E-03  0.6658E-04  0.9229E+05
   -1.800012   30.72679  0.3909E-14  0.1023E-04  0.1730E-06  0.5101E-03  0.5723E-04  0.8868E+03
   -1.850010   30.73326  0.3909E-14  0.8667E-05  0.2806E-06  0.4671E-03  0.4075E-04  0.2884E+08
   -1.900008   30.73180  0.3909E-14  0.6867E-05  0.5890E-06  0.2181E-03  0.3316E-04 -0.1540E+06
   -1.950005   30.75099  0.3909E-14  0.4820E-05  0.1457E-05  0.1947E-03  0.1785E-04 -0.4871E+06
   -2.000002   30.75308  0.3909E-14  0.0000E+00  0.0000E+00  0.0000E+00  0.3334E-04  0.0000E+00
