 1 - depth, m
 2 - temperature, C
 3 - salinity, kg/kg
 4 - turbulent kinetic energy, m**2/s**2
 5 - dissipation rate, m**2/s**3
 6 - kinematic heat conductance, m**2/s
 7 - modulus of horizontal velocity, m/s
 8 - Richardson number, n/d
   -0.000000   30.01219  0.2598E-14  0.5849E-05  0.3272E-06  0.5587E-04  0.4134E-02  0.5481E+03
   -0.049997   30.04363  0.2598E-14  0.9207E-05  0.1402E-06  0.2121E-03  0.2229E-02  0.1849E+02
   -0.099994   30.05278  0.2598E-14  0.1070E-04  0.1009E-06  0.3882E-03  0.1795E-02  0.3428E+01
   -0.149992   30.05639  0.2598E-14  0.1170E-04  0.8538E-07  0.4838E-03  0.1611E-02  0.1838E+01
   -0.199991   30.05916  0.2598E-14  0.1251E-04  0.7627E-07  0.6062E-03  0.1466E-02  0.1336E+01
   -0.249989   30.06130  0.2598E-14  0.1320E-04  0.7004E-07  0.7144E-03  0.1351E-02  0.1293E+01
   -0.299989   30.06306  0.2598E-14  0.1384E-04  0.6517E-07  0.8435E-03  0.1242E-02  0.1380E+01
   -0.349988   30.06451  0.2598E-14  0.1444E-04  0.6114E-07  0.9892E-03  0.1136E-02  0.1475E+01
   -0.399988   30.06571  0.2598E-14  0.1499E-04  0.5780E-07  0.1141E-02  0.1033E-02  0.1498E+01
   -0.449988   30.06673  0.2598E-14  0.1548E-04  0.5500E-07  0.1289E-02  0.9370E-03  0.1501E+01
   -0.499988   30.06762  0.2598E-14  0.1591E-04  0.5268E-07  0.1427E-02  0.8513E-03  0.1498E+01
   -0.549989   30.06840  0.2598E-14  0.1627E-04  0.5076E-07  0.1553E-02  0.7750E-03  0.1485E+01
   -0.599990   30.06910  0.2598E-14  0.1656E-04  0.4918E-07  0.1665E-02  0.7070E-03  0.1467E+01
   -0.649991   30.06974  0.2598E-14  0.1679E-04  0.4787E-07  0.1761E-02  0.6464E-03  0.1444E+01
   -0.699992   30.07034  0.2598E-14  0.1696E-04  0.4680E-07  0.1841E-02  0.5923E-03  0.1418E+01
   -0.749993   30.07090  0.2598E-14  0.1708E-04  0.4594E-07  0.1904E-02  0.5441E-03  0.1388E+01
   -0.799995   30.07144  0.2598E-14  0.1716E-04  0.4527E-07  0.1949E-02  0.5010E-03  0.1355E+01
   -0.849996   30.07195  0.2598E-14  0.1719E-04  0.4477E-07  0.1978E-02  0.4626E-03  0.1319E+01
   -0.899998   30.07245  0.2598E-14  0.1719E-04  0.4442E-07  0.1991E-02  0.4283E-03  0.1280E+01
   -0.950000   30.07294  0.2598E-14  0.1715E-04  0.4421E-07  0.1990E-02  0.3976E-03  0.1238E+01
   -1.000001   30.07341  0.2598E-14  0.1709E-04  0.4414E-07  0.1976E-02  0.3702E-03  0.1193E+01
   -1.050003   30.07389  0.2598E-14  0.1700E-04  0.4420E-07  0.1938E-02  0.3457E-03  0.1148E+01
   -1.100005   30.07437  0.2598E-14  0.1690E-04  0.4436E-07  0.2121E-02  0.3240E-03  0.2574E+01
   -1.150006   30.07480  0.2598E-14  0.1678E-04  0.4466E-07  0.1729E-02  0.3089E-03  0.6830E+01
   -1.200008   30.07532  0.2598E-14  0.1664E-04  0.4509E-07  0.1832E-02  0.2914E-03  0.1246E+01
   -1.250010   30.07581  0.2598E-14  0.1646E-04  0.4573E-07  0.1789E-02  0.2749E-03  0.1286E+01
   -1.300011   30.07630  0.2598E-14  0.1626E-04  0.4660E-07  0.1721E-02  0.2591E-03  0.1493E+01
   -1.350012   30.07681  0.2598E-14  0.1602E-04  0.4779E-07  0.1644E-02  0.2439E-03  0.1807E+01
   -1.400013   30.07733  0.2598E-14  0.1574E-04  0.4942E-07  0.1547E-02  0.2289E-03  0.2276E+01
   -1.450014   30.07789  0.2598E-14  0.1540E-04  0.5169E-07  0.1452E-02  0.2140E-03  0.2985E+01
   -1.500015   30.07848  0.2598E-14  0.1501E-04  0.5491E-07  0.1326E-02  0.1993E-03  0.4232E+01
   -1.550015   30.07914  0.2598E-14  0.1454E-04  0.5966E-07  0.1232E-02  0.1843E-03  0.6996E+01
   -1.600015   30.07986  0.2598E-14  0.1396E-04  0.6728E-07  0.1085E-02  0.1692E-03  0.1025E+02
   -1.650015   30.08081  0.2598E-14  0.1319E-04  0.7947E-07  0.9870E-03  0.1524E-03 -0.5793E+03
   -1.700014   30.08198  0.2598E-14  0.1214E-04  0.1008E-06  0.8054E-03  0.1347E-03  0.2461E+05
   -1.750013   30.08396  0.2598E-14  0.1091E-04  0.1343E-06  0.7107E-03  0.1120E-03  0.2289E+06
   -1.800012   30.08529  0.2598E-14  0.9341E-05  0.2118E-06  0.4841E-03  0.9588E-04  0.1438E+05
   -1.850010   30.09302  0.2598E-14  0.7830E-05  0.3511E-06  0.4599E-03  0.6493E-04  0.2429E+09
   -1.900008   30.08947  0.2598E-14  0.6190E-05  0.7451E-06  0.2161E-03  0.5424E-04 -0.2006E+05
   -1.950006   30.10927  0.2598E-14  0.4415E-05  0.1748E-05  0.2249E-03  0.2813E-04 -0.9883E+05
   -2.000003   30.10772  0.2598E-14  0.0000E+00  0.0000E+00  0.0000E+00  0.5996E-04  0.0000E+00
