 1 - depth, m
 2 - temperature, C
 3 - salinity, kg/kg
 4 - turbulent kinetic energy, m**2/s**2
 5 - dissipation rate, m**2/s**3
 6 - kinematic heat conductance, m**2/s
 7 - modulus of horizontal velocity, m/s
 8 - Richardson number, n/d
   -0.000000   30.23594  0.2130E-14  0.4883E-05  0.2927E-06  0.5040E-04  0.2229E-02  0.3778E+04
   -0.049997   30.26571  0.2130E-14  0.8199E-05  0.1298E-06  0.1810E-03  0.1243E-02  0.6460E+04
   -0.099994   30.27640  0.2130E-14  0.9857E-05  0.9002E-07  0.3879E-03  0.9304E-03  0.1017E+02
   -0.149992   30.27965  0.2130E-14  0.1091E-04  0.7543E-07  0.4746E-03  0.8209E-03  0.5024E+01
   -0.199991   30.28219  0.2130E-14  0.1173E-04  0.6689E-07  0.6286E-03  0.7338E-03  0.3233E+01
   -0.249989   30.28406  0.2130E-14  0.1239E-04  0.6128E-07  0.7520E-03  0.6680E-03  0.2380E+01
   -0.299989   30.28557  0.2130E-14  0.1292E-04  0.5727E-07  0.8725E-03  0.6133E-03  0.1896E+01
   -0.349988   30.28684  0.2130E-14  0.1336E-04  0.5426E-07  0.9812E-03  0.5664E-03  0.1631E+01
   -0.399988   30.28794  0.2130E-14  0.1373E-04  0.5189E-07  0.1082E-02  0.5245E-03  0.1485E+01
   -0.449988   30.28892  0.2130E-14  0.1406E-04  0.4994E-07  0.1179E-02  0.4872E-03  0.1420E+01
   -0.499988   30.28980  0.2130E-14  0.1434E-04  0.4831E-07  0.1270E-02  0.4538E-03  0.1401E+01
   -0.549989   30.29060  0.2130E-14  0.1459E-04  0.4693E-07  0.1353E-02  0.4237E-03  0.1386E+01
   -0.599990   30.29134  0.2130E-14  0.1480E-04  0.4577E-07  0.1430E-02  0.3964E-03  0.1387E+01
   -0.649991   30.29202  0.2130E-14  0.1497E-04  0.4478E-07  0.1497E-02  0.3716E-03  0.1390E+01
   -0.699992   30.29267  0.2130E-14  0.1512E-04  0.4394E-07  0.1557E-02  0.3490E-03  0.1408E+01
   -0.749993   30.29328  0.2130E-14  0.1524E-04  0.4324E-07  0.1608E-02  0.3283E-03  0.1430E+01
   -0.799995   30.29386  0.2130E-14  0.1533E-04  0.4265E-07  0.1651E-02  0.3092E-03  0.1471E+01
   -0.849996   30.29442  0.2130E-14  0.1540E-04  0.4218E-07  0.1685E-02  0.2916E-03  0.1521E+01
   -0.899998   30.29496  0.2130E-14  0.1545E-04  0.4180E-07  0.1710E-02  0.2752E-03  0.1599E+01
   -0.950000   30.29549  0.2130E-14  0.1548E-04  0.4151E-07  0.1728E-02  0.2599E-03  0.1696E+01
   -1.000001   30.29600  0.2130E-14  0.1548E-04  0.4133E-07  0.1738E-02  0.2454E-03  0.1829E+01
   -1.050003   30.29651  0.2130E-14  0.1546E-04  0.4124E-07  0.1739E-02  0.2318E-03  0.2061E+01
   -1.100005   30.29701  0.2130E-14  0.1543E-04  0.4125E-07  0.1827E-02  0.2187E-03  0.6834E+01
   -1.150007   30.29748  0.2130E-14  0.1537E-04  0.4139E-07  0.1652E-02  0.2071E-03  0.1555E+02
   -1.200008   30.29800  0.2130E-14  0.1529E-04  0.4165E-07  0.1680E-02  0.1950E-03  0.2963E+01
   -1.250010   30.29850  0.2130E-14  0.1518E-04  0.4207E-07  0.1650E-02  0.1835E-03  0.3153E+01
   -1.300011   30.29901  0.2130E-14  0.1504E-04  0.4268E-07  0.1601E-02  0.1724E-03  0.3669E+01
   -1.350012   30.29953  0.2130E-14  0.1488E-04  0.4354E-07  0.1542E-02  0.1616E-03  0.4391E+01
   -1.400013   30.30007  0.2130E-14  0.1468E-04  0.4473E-07  0.1466E-02  0.1511E-03  0.5394E+01
   -1.450014   30.30063  0.2130E-14  0.1444E-04  0.4635E-07  0.1389E-02  0.1408E-03  0.6872E+01
   -1.500015   30.30122  0.2130E-14  0.1415E-04  0.4864E-07  0.1278E-02  0.1307E-03  0.9283E+01
   -1.550015   30.30187  0.2130E-14  0.1380E-04  0.5190E-07  0.1195E-02  0.1206E-03  0.1320E+02
   -1.600015   30.30256  0.2130E-14  0.1336E-04  0.5694E-07  0.1055E-02  0.1107E-03  0.2441E+02
   -1.650015   30.30341  0.2130E-14  0.1281E-04  0.6482E-07  0.9738E-03  0.9999E-04  0.6098E+02
   -1.700014   30.30435  0.2130E-14  0.1204E-04  0.7904E-07  0.7986E-03  0.8955E-04  0.3298E+04
   -1.750014   30.30606  0.2130E-14  0.1103E-04  0.1024E-06  0.7146E-03  0.7566E-04  0.4019E+05
   -1.800012   30.30745  0.2130E-14  0.9678E-05  0.1514E-06  0.4993E-03  0.6476E-04  0.1866E+05
   -1.850011   30.31313  0.2130E-14  0.8178E-05  0.2441E-06  0.4545E-03  0.4616E-04  0.3338E+07
   -1.900009   30.31199  0.2130E-14  0.6419E-05  0.5130E-06  0.2066E-03  0.3745E-04 -0.2474E+05
   -1.950006   30.32948  0.2130E-14  0.4478E-05  0.1279E-05  0.1879E-03  0.1982E-04 -0.4539E+06
   -2.000003   30.33130  0.2130E-14  0.0000E+00  0.0000E+00  0.0000E+00  0.3753E-04  0.0000E+00
