 1 - depth, m
 2 - temperature, C
 3 - salinity, kg/kg
 4 - turbulent kinetic energy, m**2/s**2
 5 - dissipation rate, m**2/s**3
 6 - kinematic heat conductance, m**2/s
 7 - modulus of horizontal velocity, m/s
 8 - Richardson number, n/d
   -0.000000   30.96977  0.2441E-13  0.5265E-05  0.3479E-06  0.5262E-04  0.1108E-02  0.6887E+04
   -0.049997   31.00361  0.2441E-13  0.9062E-05  0.1545E-06  0.1857E-03  0.6334E-03  0.1312E+04
   -0.099994   31.01671  0.2441E-13  0.1101E-04  0.1062E-06  0.4183E-03  0.4645E-03  0.4268E+02
   -0.149992   31.02025  0.2441E-13  0.1222E-04  0.8908E-07  0.4983E-03  0.4113E-03  0.2104E+02
   -0.199990   31.02310  0.2441E-13  0.1317E-04  0.7908E-07  0.6691E-03  0.3679E-03  0.1349E+02
   -0.249989   31.02515  0.2441E-13  0.1392E-04  0.7255E-07  0.7982E-03  0.3355E-03  0.1001E+02
   -0.299988   31.02683  0.2441E-13  0.1453E-04  0.6790E-07  0.9289E-03  0.3085E-03  0.7967E+01
   -0.349988   31.02823  0.2441E-13  0.1504E-04  0.6443E-07  0.1046E-02  0.2854E-03  0.6835E+01
   -0.399987   31.02945  0.2441E-13  0.1546E-04  0.6172E-07  0.1154E-02  0.2650E-03  0.6084E+01
   -0.449987   31.03052  0.2441E-13  0.1582E-04  0.5953E-07  0.1253E-02  0.2470E-03  0.5724E+01
   -0.499988   31.03150  0.2441E-13  0.1614E-04  0.5772E-07  0.1344E-02  0.2311E-03  0.5554E+01
   -0.549988   31.03239  0.2441E-13  0.1641E-04  0.5621E-07  0.1427E-02  0.2168E-03  0.5496E+01
   -0.599989   31.03321  0.2441E-13  0.1664E-04  0.5495E-07  0.1502E-02  0.2038E-03  0.5485E+01
   -0.649990   31.03398  0.2441E-13  0.1684E-04  0.5388E-07  0.1569E-02  0.1920E-03  0.5574E+01
   -0.699991   31.03471  0.2441E-13  0.1700E-04  0.5299E-07  0.1627E-02  0.1812E-03  0.5690E+01
   -0.749992   31.03540  0.2441E-13  0.1714E-04  0.5224E-07  0.1678E-02  0.1711E-03  0.5904E+01
   -0.799994   31.03606  0.2441E-13  0.1725E-04  0.5164E-07  0.1720E-02  0.1617E-03  0.6145E+01
   -0.849995   31.03670  0.2441E-13  0.1734E-04  0.5116E-07  0.1754E-02  0.1530E-03  0.6497E+01
   -0.899997   31.03732  0.2441E-13  0.1739E-04  0.5080E-07  0.1779E-02  0.1447E-03  0.6889E+01
   -0.949998   31.03792  0.2441E-13  0.1743E-04  0.5057E-07  0.1795E-02  0.1369E-03  0.7425E+01
   -1.000000   31.03851  0.2441E-13  0.1744E-04  0.5045E-07  0.1802E-02  0.1296E-03  0.8027E+01
   -1.050002   31.03910  0.2441E-13  0.1742E-04  0.5047E-07  0.1798E-02  0.1225E-03  0.9161E+01
   -1.100003   31.03968  0.2441E-13  0.1738E-04  0.5063E-07  0.1909E-02  0.1158E-03  0.2955E+02
   -1.150005   31.04023  0.2441E-13  0.1732E-04  0.5097E-07  0.1675E-02  0.1099E-03  0.7329E+02
   -1.200006   31.04085  0.2441E-13  0.1722E-04  0.5147E-07  0.1719E-02  0.1036E-03  0.1367E+02
   -1.250008   31.04145  0.2441E-13  0.1709E-04  0.5219E-07  0.1685E-02  0.9760E-04  0.1461E+02
   -1.300009   31.04206  0.2441E-13  0.1693E-04  0.5320E-07  0.1627E-02  0.9182E-04  0.1740E+02
   -1.350010   31.04270  0.2441E-13  0.1673E-04  0.5458E-07  0.1561E-02  0.8620E-04  0.2115E+02
   -1.400011   31.04335  0.2441E-13  0.1649E-04  0.5645E-07  0.1472E-02  0.8069E-04  0.2691E+02
   -1.450012   31.04406  0.2441E-13  0.1619E-04  0.5903E-07  0.1390E-02  0.7526E-04  0.3530E+02
   -1.500013   31.04480  0.2441E-13  0.1582E-04  0.6268E-07  0.1267E-02  0.6989E-04  0.5070E+02
   -1.550013   31.04564  0.2441E-13  0.1537E-04  0.6795E-07  0.1188E-02  0.6444E-04  0.7850E+02
   -1.600013   31.04656  0.2441E-13  0.1480E-04  0.7644E-07  0.1036E-02  0.5909E-04  0.5776E+04
   -1.650013   31.04780  0.2441E-13  0.1404E-04  0.8978E-07  0.9556E-03  0.5304E-04  0.3095E+04
   -1.700012   31.04919  0.2441E-13  0.1299E-04  0.1141E-06  0.7705E-03  0.4702E-04  0.3017E+05
   -1.750011   31.05187  0.2441E-13  0.1173E-04  0.1520E-06  0.6972E-03  0.3881E-04  0.2309E+06
   -1.800010   31.05341  0.2441E-13  0.1016E-04  0.2356E-06  0.4739E-03  0.3341E-04  0.1278E+05
   -1.850008   31.06354  0.2441E-13  0.8552E-05  0.3952E-06  0.4503E-03  0.2252E-04  0.5452E+08
   -1.900006   31.05925  0.2441E-13  0.6793E-05  0.8295E-06  0.2092E-03  0.1871E-04  0.5446E+06
   -1.950003   31.08541  0.2441E-13  0.4899E-05  0.1962E-05  0.2240E-03  0.9704E-05 -0.1358E+07
   -2.000000   31.08540  0.2441E-13  0.0000E+00  0.0000E+00  0.0000E+00  0.2006E-04  0.0000E+00
