 1 - depth, m
 2 - temperature, C
 3 - salinity, kg/kg
 4 - turbulent kinetic energy, m**2/s**2
 5 - dissipation rate, m**2/s**3
 6 - kinematic heat conductance, m**2/s
 7 - modulus of horizontal velocity, m/s
 8 - Richardson number, n/d
   -0.000000   30.44772  0.1061E-14  0.4742E-05  0.2916E-06  0.5012E-04  0.1675E-02  0.6907E+04
   -0.049997   30.47685  0.1061E-14  0.8095E-05  0.1299E-06  0.1752E-03  0.9581E-03  0.1631E+03
   -0.099994   30.48822  0.1061E-14  0.9828E-05  0.8919E-07  0.3960E-03  0.7000E-03  0.1837E+02
   -0.149992   30.49134  0.1061E-14  0.1091E-04  0.7484E-07  0.4766E-03  0.6182E-03  0.8984E+01
   -0.199991   30.49384  0.1061E-14  0.1176E-04  0.6645E-07  0.6372E-03  0.5518E-03  0.5766E+01
   -0.249989   30.49565  0.1061E-14  0.1244E-04  0.6097E-07  0.7618E-03  0.5023E-03  0.4242E+01
   -0.299988   30.49712  0.1061E-14  0.1299E-04  0.5708E-07  0.8863E-03  0.4610E-03  0.3383E+01
   -0.349988   30.49836  0.1061E-14  0.1345E-04  0.5417E-07  0.9989E-03  0.4257E-03  0.2883E+01
   -0.399988   30.49944  0.1061E-14  0.1384E-04  0.5191E-07  0.1102E-02  0.3944E-03  0.2579E+01
   -0.449988   30.50039  0.1061E-14  0.1417E-04  0.5009E-07  0.1198E-02  0.3670E-03  0.2411E+01
   -0.499988   30.50126  0.1061E-14  0.1446E-04  0.4858E-07  0.1286E-02  0.3426E-03  0.2355E+01
   -0.549989   30.50204  0.1061E-14  0.1471E-04  0.4733E-07  0.1367E-02  0.3209E-03  0.2313E+01
   -0.599989   30.50277  0.1061E-14  0.1493E-04  0.4628E-07  0.1440E-02  0.3012E-03  0.2326E+01
   -0.649991   30.50346  0.1061E-14  0.1512E-04  0.4540E-07  0.1505E-02  0.2833E-03  0.2343E+01
   -0.699992   30.50410  0.1061E-14  0.1528E-04  0.4466E-07  0.1563E-02  0.2668E-03  0.2412E+01
   -0.749993   30.50472  0.1061E-14  0.1542E-04  0.4405E-07  0.1613E-02  0.2516E-03  0.2476E+01
   -0.799995   30.50530  0.1061E-14  0.1553E-04  0.4355E-07  0.1656E-02  0.2375E-03  0.2600E+01
   -0.849996   30.50587  0.1061E-14  0.1562E-04  0.4316E-07  0.1691E-02  0.2243E-03  0.2717E+01
   -0.899998   30.50642  0.1061E-14  0.1569E-04  0.4287E-07  0.1718E-02  0.2118E-03  0.2906E+01
   -0.949999   30.50695  0.1061E-14  0.1573E-04  0.4268E-07  0.1736E-02  0.2002E-03  0.3092E+01
   -1.000001   30.50748  0.1061E-14  0.1576E-04  0.4258E-07  0.1747E-02  0.1891E-03  0.3368E+01
   -1.050003   30.50800  0.1061E-14  0.1576E-04  0.4259E-07  0.1748E-02  0.1786E-03  0.3798E+01
   -1.100005   30.50852  0.1061E-14  0.1575E-04  0.4271E-07  0.1834E-02  0.1686E-03  0.1268E+02
   -1.150006   30.50901  0.1061E-14  0.1571E-04  0.4297E-07  0.1664E-02  0.1597E-03  0.2895E+02
   -1.200008   30.50955  0.1061E-14  0.1564E-04  0.4335E-07  0.1689E-02  0.1504E-03  0.5520E+01
   -1.250009   30.51007  0.1061E-14  0.1555E-04  0.4391E-07  0.1658E-02  0.1415E-03  0.5940E+01
   -1.300011   30.51061  0.1061E-14  0.1544E-04  0.4468E-07  0.1609E-02  0.1330E-03  0.6918E+01
   -1.350012   30.51116  0.1061E-14  0.1529E-04  0.4571E-07  0.1550E-02  0.1247E-03  0.8375E+01
   -1.400013   30.51173  0.1061E-14  0.1510E-04  0.4709E-07  0.1472E-02  0.1167E-03  0.1031E+02
   -1.450014   30.51234  0.1061E-14  0.1487E-04  0.4896E-07  0.1396E-02  0.1087E-03  0.1332E+02
   -1.500014   30.51298  0.1061E-14  0.1459E-04  0.5154E-07  0.1282E-02  0.1010E-03  0.1815E+02
   -1.550015   30.51368  0.1061E-14  0.1425E-04  0.5518E-07  0.1203E-02  0.9312E-04  0.2622E+02
   -1.600015   30.51444  0.1061E-14  0.1381E-04  0.6082E-07  0.1052E-02  0.8550E-04  0.5781E+02
   -1.650014   30.51540  0.1061E-14  0.1325E-04  0.6948E-07  0.9829E-03  0.7713E-04  0.7643E+02
   -1.700014   30.51642  0.1061E-14  0.1248E-04  0.8499E-07  0.7918E-03  0.6924E-04  0.9137E+04
   -1.750013   30.51837  0.1061E-14  0.1146E-04  0.1106E-06  0.7234E-03  0.5833E-04  0.4672E+05
   -1.800012   30.51988  0.1061E-14  0.1010E-04  0.1623E-06  0.4991E-03  0.5019E-04  0.5823E+06
   -1.850010   30.52642  0.1061E-14  0.8564E-05  0.2629E-06  0.4651E-03  0.3567E-04  0.6810E+08
   -1.900008   30.52502  0.1061E-14  0.6813E-05  0.5456E-06  0.2078E-03  0.2910E-04  0.1414E+07
   -1.950005   30.54503  0.1061E-14  0.4771E-05  0.1371E-05  0.1888E-03  0.1560E-04 -0.6828E+06
   -2.000002   30.54694  0.1061E-14  0.0000E+00  0.0000E+00  0.0000E+00  0.2861E-04  0.0000E+00
