 1 - depth, m
 2 - temperature, C
 3 - salinity, kg/kg
 4 - turbulent kinetic energy, m**2/s**2
 5 - dissipation rate, m**2/s**3
 6 - kinematic heat conductance, m**2/s
 7 - modulus of horizontal velocity, m/s
 8 - Richardson number, n/d
   -0.000000   30.11596  0.1078E-13  0.4353E-05  0.2566E-06  0.4715E-04  0.5567E-03  0.8384E+05
   -0.049997   30.14393  0.1078E-13  0.7738E-05  0.1135E-06  0.1781E-03  0.3111E-03  0.6870E+02
   -0.099994   30.15402  0.1078E-13  0.9374E-05  0.7891E-07  0.4072E-03  0.2262E-03  0.1354E+03
   -0.149992   30.15678  0.1078E-13  0.1040E-04  0.6687E-07  0.4831E-03  0.2003E-03  0.6639E+02
   -0.199991   30.15901  0.1078E-13  0.1120E-04  0.5975E-07  0.6428E-03  0.1790E-03  0.4358E+02
   -0.249989   30.16065  0.1078E-13  0.1184E-04  0.5508E-07  0.7666E-03  0.1631E-03  0.3253E+02
   -0.299989   30.16199  0.1078E-13  0.1237E-04  0.5175E-07  0.8889E-03  0.1497E-03  0.2614E+02
   -0.349988   30.16313  0.1078E-13  0.1282E-04  0.4927E-07  0.9999E-03  0.1383E-03  0.2250E+02
   -0.399988   30.16412  0.1078E-13  0.1319E-04  0.4734E-07  0.1102E-02  0.1282E-03  0.2016E+02
   -0.449988   30.16500  0.1078E-13  0.1352E-04  0.4579E-07  0.1196E-02  0.1192E-03  0.1899E+02
   -0.499988   30.16580  0.1078E-13  0.1381E-04  0.4452E-07  0.1283E-02  0.1113E-03  0.1854E+02
   -0.549989   30.16653  0.1078E-13  0.1407E-04  0.4347E-07  0.1362E-02  0.1042E-03  0.1835E+02
   -0.599990   30.16721  0.1078E-13  0.1429E-04  0.4260E-07  0.1434E-02  0.9784E-04  0.1843E+02
   -0.649991   30.16784  0.1078E-13  0.1448E-04  0.4189E-07  0.1499E-02  0.9200E-04  0.1873E+02
   -0.699992   30.16845  0.1078E-13  0.1465E-04  0.4130E-07  0.1556E-02  0.8663E-04  0.1923E+02
   -0.749993   30.16902  0.1078E-13  0.1480E-04  0.4082E-07  0.1606E-02  0.8166E-04  0.1995E+02
   -0.799995   30.16957  0.1078E-13  0.1492E-04  0.4045E-07  0.1648E-02  0.7705E-04  0.2088E+02
   -0.849996   30.17011  0.1078E-13  0.1503E-04  0.4018E-07  0.1683E-02  0.7274E-04  0.2207E+02
   -0.899998   30.17063  0.1078E-13  0.1511E-04  0.4000E-07  0.1710E-02  0.6869E-04  0.2350E+02
   -0.950000   30.17114  0.1078E-13  0.1517E-04  0.3991E-07  0.1729E-02  0.6488E-04  0.2529E+02
   -1.000001   30.17164  0.1078E-13  0.1522E-04  0.3991E-07  0.1740E-02  0.6127E-04  0.2743E+02
   -1.050003   30.17214  0.1078E-13  0.1524E-04  0.4000E-07  0.1741E-02  0.5785E-04  0.3129E+02
   -1.100005   30.17264  0.1078E-13  0.1525E-04  0.4020E-07  0.1821E-02  0.5459E-04  0.1048E+03
   -1.150006   30.17311  0.1078E-13  0.1523E-04  0.4053E-07  0.1667E-02  0.5168E-04  0.2332E+03
   -1.200008   30.17363  0.1078E-13  0.1519E-04  0.4097E-07  0.1686E-02  0.4867E-04  0.4553E+02
   -1.250010   30.17415  0.1078E-13  0.1513E-04  0.4158E-07  0.1656E-02  0.4578E-04  0.4899E+02
   -1.300011   30.17467  0.1078E-13  0.1504E-04  0.4238E-07  0.1608E-02  0.4301E-04  0.5748E+02
   -1.350012   30.17521  0.1078E-13  0.1492E-04  0.4342E-07  0.1551E-02  0.4031E-04  0.6905E+02
   -1.400013   30.17578  0.1078E-13  0.1477E-04  0.4478E-07  0.1477E-02  0.3769E-04  0.8529E+02
   -1.450014   30.17637  0.1078E-13  0.1458E-04  0.4657E-07  0.1400E-02  0.3513E-04  0.1088E+03
   -1.500015   30.17700  0.1078E-13  0.1434E-04  0.4899E-07  0.1292E-02  0.3260E-04  0.1467E+03
   -1.550015   30.17769  0.1078E-13  0.1404E-04  0.5235E-07  0.1206E-02  0.3008E-04  0.2074E+03
   -1.600015   30.17845  0.1078E-13  0.1366E-04  0.5731E-07  0.1064E-02  0.2760E-04  0.3589E+03
   -1.650015   30.17934  0.1078E-13  0.1317E-04  0.6484E-07  0.9853E-03  0.2498E-04  0.1931E+04
   -1.700014   30.18036  0.1078E-13  0.1249E-04  0.7822E-07  0.8043E-03  0.2244E-04 -0.3791E+05
   -1.750013   30.18209  0.1078E-13  0.1157E-04  0.1004E-06  0.7288E-03  0.1914E-04  0.9561E+05
   -1.800012   30.18373  0.1078E-13  0.1027E-04  0.1469E-06  0.5027E-03  0.1642E-04  0.2042E+07
   -1.850010   30.18952  0.1078E-13  0.8760E-05  0.2324E-06  0.4657E-03  0.1189E-04  0.1839E+08
   -1.900008   30.18899  0.1078E-13  0.6952E-05  0.4774E-06  0.2033E-03  0.9626E-05 -0.3665E+06
   -1.950006   30.20883  0.1078E-13  0.4838E-05  0.1218E-05  0.1791E-03  0.5188E-05 -0.4969E+07
   -2.000003   30.21109  0.1078E-13  0.0000E+00  0.0000E+00  0.0000E+00  0.9173E-05  0.0000E+00
