 1 - depth, m
 2 - temperature, C
 3 - salinity, kg/kg
 4 - turbulent kinetic energy, m**2/s**2
 5 - dissipation rate, m**2/s**3
 6 - kinematic heat conductance, m**2/s
 7 - modulus of horizontal velocity, m/s
 8 - Richardson number, n/d
   -0.000000   30.44194  0.3027E-13  0.4746E-05  0.2955E-06  0.4997E-04  0.8379E-03  0.1175E+05
   -0.049997   30.47231  0.3027E-13  0.8288E-05  0.1311E-06  0.1794E-03  0.4753E-03  0.5707E+02
   -0.099994   30.48396  0.3027E-13  0.1006E-04  0.9042E-07  0.4103E-03  0.3465E-03  0.7350E+02
   -0.149992   30.48708  0.3027E-13  0.1117E-04  0.7620E-07  0.4874E-03  0.3066E-03  0.3605E+02
   -0.199991   30.48960  0.3027E-13  0.1203E-04  0.6783E-07  0.6520E-03  0.2739E-03  0.2337E+02
   -0.249989   30.49143  0.3027E-13  0.1272E-04  0.6234E-07  0.7781E-03  0.2495E-03  0.1737E+02
   -0.299988   30.49292  0.3027E-13  0.1328E-04  0.5843E-07  0.9041E-03  0.2292E-03  0.1388E+02
   -0.349988   30.49418  0.3027E-13  0.1375E-04  0.5550E-07  0.1018E-02  0.2118E-03  0.1191E+02
   -0.399988   30.49527  0.3027E-13  0.1414E-04  0.5322E-07  0.1123E-02  0.1964E-03  0.1063E+02
   -0.449988   30.49624  0.3027E-13  0.1448E-04  0.5137E-07  0.1219E-02  0.1828E-03  0.9995E+01
   -0.499988   30.49711  0.3027E-13  0.1478E-04  0.4985E-07  0.1308E-02  0.1708E-03  0.9719E+01
   -0.549989   30.49791  0.3027E-13  0.1504E-04  0.4858E-07  0.1390E-02  0.1600E-03  0.9604E+01
   -0.599989   30.49865  0.3027E-13  0.1526E-04  0.4752E-07  0.1464E-02  0.1503E-03  0.9606E+01
   -0.649990   30.49935  0.3027E-13  0.1545E-04  0.4662E-07  0.1530E-02  0.1414E-03  0.9743E+01
   -0.699992   30.50000  0.3027E-13  0.1562E-04  0.4587E-07  0.1589E-02  0.1332E-03  0.9961E+01
   -0.749993   30.50062  0.3027E-13  0.1576E-04  0.4525E-07  0.1640E-02  0.1257E-03  0.1031E+02
   -0.799994   30.50122  0.3027E-13  0.1587E-04  0.4475E-07  0.1683E-02  0.1186E-03  0.1074E+02
   -0.849996   30.50179  0.3027E-13  0.1596E-04  0.4435E-07  0.1718E-02  0.1121E-03  0.1132E+02
   -0.899998   30.50235  0.3027E-13  0.1603E-04  0.4405E-07  0.1746E-02  0.1059E-03  0.1200E+02
   -0.949999   30.50289  0.3027E-13  0.1608E-04  0.4385E-07  0.1765E-02  0.1001E-03  0.1288E+02
   -1.000001   30.50343  0.3027E-13  0.1611E-04  0.4376E-07  0.1776E-02  0.9460E-04  0.1390E+02
   -1.050003   30.50395  0.3027E-13  0.1612E-04  0.4377E-07  0.1777E-02  0.8937E-04  0.1580E+02
   -1.100004   30.50448  0.3027E-13  0.1610E-04  0.4389E-07  0.1864E-02  0.8440E-04  0.5260E+02
   -1.150006   30.50497  0.3027E-13  0.1606E-04  0.4415E-07  0.1694E-02  0.7996E-04  0.1175E+03
   -1.200008   30.50552  0.3027E-13  0.1600E-04  0.4454E-07  0.1719E-02  0.7534E-04  0.2282E+02
   -1.250009   30.50605  0.3027E-13  0.1591E-04  0.4511E-07  0.1689E-02  0.7093E-04  0.2438E+02
   -1.300010   30.50660  0.3027E-13  0.1580E-04  0.4589E-07  0.1640E-02  0.6668E-04  0.2858E+02
   -1.350012   30.50715  0.3027E-13  0.1565E-04  0.4693E-07  0.1581E-02  0.6256E-04  0.3417E+02
   -1.400013   30.50773  0.3027E-13  0.1547E-04  0.4832E-07  0.1503E-02  0.5853E-04  0.4225E+02
   -1.450013   30.50834  0.3027E-13  0.1524E-04  0.5021E-07  0.1426E-02  0.5459E-04  0.5374E+02
   -1.500014   30.50898  0.3027E-13  0.1496E-04  0.5280E-07  0.1314E-02  0.5071E-04  0.7299E+02
   -1.550014   30.50969  0.3027E-13  0.1462E-04  0.5644E-07  0.1231E-02  0.4682E-04  0.1038E+03
   -1.600014   30.51045  0.3027E-13  0.1419E-04  0.6201E-07  0.1084E-02  0.4300E-04  0.1527E+04
   -1.650014   30.51139  0.3027E-13  0.1364E-04  0.7057E-07  0.1006E-02  0.3887E-04  0.2679E+05
   -1.700014   30.51244  0.3027E-13  0.1288E-04  0.8574E-07  0.8193E-03  0.3487E-04  0.2311E+05
   -1.750013   30.51429  0.3027E-13  0.1188E-04  0.1105E-06  0.7435E-03  0.2954E-04  0.1833E+06
   -1.800011   30.51582  0.3027E-13  0.1053E-04  0.1628E-06  0.5207E-03  0.2545E-04  0.4645E+06
   -1.850010   30.52200  0.3027E-13  0.9011E-05  0.2615E-06  0.4768E-03  0.1829E-04  0.2588E+08
   -1.900008   30.52097  0.3027E-13  0.7172E-05  0.5400E-06  0.2172E-03  0.1492E-04 -0.1992E+07
   -1.950005   30.54040  0.3027E-13  0.5013E-05  0.1358E-05  0.1862E-03  0.8101E-05 -0.3768E+07
   -2.000002   30.54324  0.3027E-13  0.0000E+00  0.0000E+00  0.0000E+00  0.1457E-04  0.0000E+00
