 1 - depth, m
 2 - temperature, C
 3 - salinity, kg/kg
 4 - turbulent kinetic energy, m**2/s**2
 5 - dissipation rate, m**2/s**3
 6 - kinematic heat conductance, m**2/s
 7 - modulus of horizontal velocity, m/s
 8 - Richardson number, n/d
   -0.000000   30.64363  0.1513E-14  0.5062E-05  0.3212E-06  0.5200E-04  0.1874E-02  0.6552E+04
   -0.049997   30.67488  0.1513E-14  0.8565E-05  0.1431E-06  0.1788E-03  0.1071E-02  0.4528E+04
   -0.099994   30.68703  0.1513E-14  0.1038E-04  0.9819E-07  0.4004E-03  0.7879E-03  0.1471E+02
   -0.149992   30.69044  0.1513E-14  0.1152E-04  0.8218E-07  0.4821E-03  0.6958E-03  0.7221E+01
   -0.199991   30.69315  0.1513E-14  0.1241E-04  0.7282E-07  0.6453E-03  0.6214E-03  0.4613E+01
   -0.249989   30.69511  0.1513E-14  0.1311E-04  0.6670E-07  0.7718E-03  0.5657E-03  0.3399E+01
   -0.299988   30.69670  0.1513E-14  0.1368E-04  0.6234E-07  0.8983E-03  0.5195E-03  0.2696E+01
   -0.349988   30.69804  0.1513E-14  0.1415E-04  0.5907E-07  0.1013E-02  0.4799E-03  0.2302E+01
   -0.399988   30.69920  0.1513E-14  0.1455E-04  0.5653E-07  0.1117E-02  0.4449E-03  0.2047E+01
   -0.449988   30.70022  0.1513E-14  0.1489E-04  0.5445E-07  0.1214E-02  0.4141E-03  0.1924E+01
   -0.499988   30.70114  0.1513E-14  0.1518E-04  0.5273E-07  0.1303E-02  0.3868E-03  0.1869E+01
   -0.549989   30.70199  0.1513E-14  0.1544E-04  0.5129E-07  0.1385E-02  0.3624E-03  0.1847E+01
   -0.599989   30.70277  0.1513E-14  0.1565E-04  0.5007E-07  0.1460E-02  0.3403E-03  0.1842E+01
   -0.649990   30.70349  0.1513E-14  0.1583E-04  0.4904E-07  0.1526E-02  0.3201E-03  0.1864E+01
   -0.699992   30.70418  0.1513E-14  0.1599E-04  0.4816E-07  0.1585E-02  0.3015E-03  0.1897E+01
   -0.749993   30.70483  0.1513E-14  0.1611E-04  0.4742E-07  0.1636E-02  0.2844E-03  0.1958E+01
   -0.799994   30.70545  0.1513E-14  0.1621E-04  0.4680E-07  0.1678E-02  0.2685E-03  0.2031E+01
   -0.849996   30.70605  0.1513E-14  0.1629E-04  0.4630E-07  0.1713E-02  0.2537E-03  0.2137E+01
   -0.899998   30.70662  0.1513E-14  0.1634E-04  0.4590E-07  0.1740E-02  0.2398E-03  0.2256E+01
   -0.949999   30.70718  0.1513E-14  0.1637E-04  0.4561E-07  0.1758E-02  0.2266E-03  0.2418E+01
   -1.000001   30.70774  0.1513E-14  0.1638E-04  0.4542E-07  0.1768E-02  0.2142E-03  0.2598E+01
   -1.050003   30.70828  0.1513E-14  0.1636E-04  0.4535E-07  0.1768E-02  0.2024E-03  0.2945E+01
   -1.100005   30.70881  0.1513E-14  0.1633E-04  0.4539E-07  0.1861E-02  0.1912E-03  0.9648E+01
   -1.150006   30.70932  0.1513E-14  0.1626E-04  0.4558E-07  0.1673E-02  0.1811E-03  0.2245E+02
   -1.200008   30.70988  0.1513E-14  0.1618E-04  0.4591E-07  0.1705E-02  0.1707E-03  0.4262E+01
   -1.250009   30.71042  0.1513E-14  0.1606E-04  0.4642E-07  0.1674E-02  0.1607E-03  0.4515E+01
   -1.300011   30.71097  0.1513E-14  0.1592E-04  0.4715E-07  0.1622E-02  0.1510E-03  0.5299E+01
   -1.350012   30.71153  0.1513E-14  0.1574E-04  0.4817E-07  0.1561E-02  0.1417E-03  0.6342E+01
   -1.400013   30.71211  0.1513E-14  0.1552E-04  0.4957E-07  0.1480E-02  0.1326E-03  0.7884E+01
   -1.450014   30.71272  0.1513E-14  0.1526E-04  0.5151E-07  0.1403E-02  0.1236E-03  0.1009E+02
   -1.500014   30.71337  0.1513E-14  0.1494E-04  0.5423E-07  0.1287E-02  0.1148E-03  0.1392E+02
   -1.550015   30.71409  0.1513E-14  0.1456E-04  0.5813E-07  0.1206E-02  0.1059E-03  0.2015E+02
   -1.600015   30.71485  0.1513E-14  0.1408E-04  0.6427E-07  0.1057E-02  0.9724E-04  0.5048E+02
   -1.650014   30.71583  0.1513E-14  0.1345E-04  0.7387E-07  0.9809E-03  0.8768E-04  0.4130E+03
   -1.700014   30.71691  0.1513E-14  0.1260E-04  0.9090E-07  0.7946E-03  0.7841E-04  0.3386E+05
   -1.750013   30.71891  0.1513E-14  0.1150E-04  0.1188E-06  0.7212E-03  0.6577E-04  0.7924E+05
   -1.800012   30.72033  0.1513E-14  0.1006E-04  0.1805E-06  0.4925E-03  0.5660E-04  0.1003E+06
   -1.850010   30.72747  0.1513E-14  0.8507E-05  0.2955E-06  0.4635E-03  0.3965E-04  0.7347E+07
   -1.900008   30.72537  0.1513E-14  0.6746E-05  0.6176E-06  0.2140E-03  0.3251E-04 -0.1247E+06
   -1.950005   30.74545  0.1513E-14  0.4740E-05  0.1518E-05  0.1987E-03  0.1730E-04 -0.1898E+06
   -2.000002   30.74706  0.1513E-14  0.0000E+00  0.0000E+00  0.0000E+00  0.3312E-04  0.0000E+00
