 1 - depth, m
 2 - temperature, C
 3 - salinity, kg/kg
 4 - turbulent kinetic energy, m**2/s**2
 5 - dissipation rate, m**2/s**3
 6 - kinematic heat conductance, m**2/s
 7 - modulus of horizontal velocity, m/s
 8 - Richardson number, n/d
   -0.000000   29.79621  0.2293E-13  0.4732E-05  0.2643E-06  0.4860E-04  0.2608E-02  0.2288E+04
   -0.049997   29.82430  0.2293E-13  0.7854E-05  0.1163E-06  0.1863E-03  0.1411E-02  0.1301E+04
   -0.099994   29.83348  0.2293E-13  0.9349E-05  0.8176E-07  0.3779E-03  0.1077E-02  0.7178E+01
   -0.149992   29.83651  0.2293E-13  0.1032E-04  0.6873E-07  0.4699E-03  0.9518E-03  0.3614E+01
   -0.199991   29.83885  0.2293E-13  0.1108E-04  0.6108E-07  0.6138E-03  0.8531E-03  0.2353E+01
   -0.249989   29.84059  0.2293E-13  0.1168E-04  0.5606E-07  0.7321E-03  0.7778E-03  0.1753E+01
   -0.299989   29.84201  0.2293E-13  0.1218E-04  0.5247E-07  0.8420E-03  0.7150E-03  0.1432E+01
   -0.349988   29.84321  0.2293E-13  0.1261E-04  0.4973E-07  0.9454E-03  0.6603E-03  0.1335E+01
   -0.399988   29.84426  0.2293E-13  0.1299E-04  0.4752E-07  0.1052E-02  0.6094E-03  0.1296E+01
   -0.449988   29.84518  0.2293E-13  0.1332E-04  0.4566E-07  0.1157E-02  0.5627E-03  0.1286E+01
   -0.499988   29.84600  0.2293E-13  0.1362E-04  0.4410E-07  0.1256E-02  0.5206E-03  0.1282E+01
   -0.549989   29.84675  0.2293E-13  0.1388E-04  0.4279E-07  0.1347E-02  0.4827E-03  0.1280E+01
   -0.599990   29.84743  0.2293E-13  0.1411E-04  0.4169E-07  0.1429E-02  0.4485E-03  0.1274E+01
   -0.649991   29.84806  0.2293E-13  0.1430E-04  0.4078E-07  0.1503E-02  0.4175E-03  0.1272E+01
   -0.699992   29.84865  0.2293E-13  0.1446E-04  0.4001E-07  0.1567E-02  0.3895E-03  0.1266E+01
   -0.749993   29.84921  0.2293E-13  0.1459E-04  0.3939E-07  0.1622E-02  0.3641E-03  0.1265E+01
   -0.799995   29.84974  0.2293E-13  0.1469E-04  0.3888E-07  0.1666E-02  0.3410E-03  0.1262E+01
   -0.849997   29.85025  0.2293E-13  0.1476E-04  0.3849E-07  0.1701E-02  0.3200E-03  0.1269E+01
   -0.899998   29.85075  0.2293E-13  0.1482E-04  0.3819E-07  0.1726E-02  0.3010E-03  0.1281E+01
   -0.950000   29.85123  0.2293E-13  0.1485E-04  0.3798E-07  0.1742E-02  0.2835E-03  0.1318E+01
   -1.000002   29.85171  0.2293E-13  0.1486E-04  0.3787E-07  0.1750E-02  0.2674E-03  0.1382E+01
   -1.050003   29.85218  0.2293E-13  0.1485E-04  0.3784E-07  0.1749E-02  0.2524E-03  0.1551E+01
   -1.100005   29.85264  0.2293E-13  0.1483E-04  0.3790E-07  0.1838E-02  0.2382E-03  0.5132E+01
   -1.150007   29.85308  0.2293E-13  0.1478E-04  0.3808E-07  0.1662E-02  0.2255E-03  0.1154E+02
   -1.200008   29.85356  0.2293E-13  0.1471E-04  0.3836E-07  0.1691E-02  0.2124E-03  0.2226E+01
   -1.250010   29.85403  0.2293E-13  0.1462E-04  0.3879E-07  0.1661E-02  0.1998E-03  0.2362E+01
   -1.300011   29.85451  0.2293E-13  0.1451E-04  0.3939E-07  0.1613E-02  0.1877E-03  0.2758E+01
   -1.350013   29.85499  0.2293E-13  0.1437E-04  0.4020E-07  0.1555E-02  0.1760E-03  0.3279E+01
   -1.400014   29.85550  0.2293E-13  0.1419E-04  0.4130E-07  0.1481E-02  0.1645E-03  0.4024E+01
   -1.450014   29.85602  0.2293E-13  0.1398E-04  0.4278E-07  0.1405E-02  0.1534E-03  0.5075E+01
   -1.500015   29.85658  0.2293E-13  0.1373E-04  0.4483E-07  0.1298E-02  0.1424E-03  0.6785E+01
   -1.550015   29.85718  0.2293E-13  0.1342E-04  0.4769E-07  0.1211E-02  0.1314E-03  0.9466E+01
   -1.600015   29.85783  0.2293E-13  0.1303E-04  0.5201E-07  0.1071E-02  0.1206E-03  0.1624E+02
   -1.650015   29.85860  0.2293E-13  0.1255E-04  0.5859E-07  0.9871E-03  0.1092E-03  0.5081E+02
   -1.700015   29.85946  0.2293E-13  0.1189E-04  0.7032E-07  0.8144E-03  0.9814E-04 -0.3363E+02
   -1.750014   29.86092  0.2293E-13  0.1100E-04  0.8997E-07  0.7284E-03  0.8388E-04 -0.5498E+04
   -1.800013   29.86231  0.2293E-13  0.9748E-05  0.1307E-06  0.5134E-03  0.7185E-04  0.5973E+05
   -1.850011   29.86695  0.2293E-13  0.8294E-05  0.2064E-06  0.4612E-03  0.5246E-04  0.3657E+06
   -1.900009   29.86675  0.2293E-13  0.6522E-05  0.4344E-06  0.2084E-03  0.4215E-04 -0.1233E+06
   -1.950006   29.88265  0.2293E-13  0.4499E-05  0.1100E-05  0.1747E-03  0.2275E-04 -0.5740E+05
   -2.000003   29.88502  0.2293E-13  0.0000E+00  0.0000E+00  0.0000E+00  0.4069E-04  0.0000E+00
