 1 - depth, m
 2 - temperature, C
 3 - salinity, kg/kg
 4 - turbulent kinetic energy, m**2/s**2
 5 - dissipation rate, m**2/s**3
 6 - kinematic heat conductance, m**2/s
 7 - modulus of horizontal velocity, m/s
 8 - Richardson number, n/d
   -0.000000   30.36954  0.7889E-14  0.5349E-05  0.3283E-06  0.5280E-04  0.2631E-02  0.1954E+04
   -0.049997   30.40139  0.7889E-14  0.8876E-05  0.1441E-06  0.1946E-03  0.1444E-02  0.5848E+02
   -0.099994   30.41219  0.7889E-14  0.1061E-04  0.1006E-06  0.3981E-03  0.1101E-02  0.7327E+01
   -0.149992   30.41567  0.7889E-14  0.1172E-04  0.8433E-07  0.4912E-03  0.9748E-03  0.3719E+01
   -0.199991   30.41837  0.7889E-14  0.1260E-04  0.7483E-07  0.6466E-03  0.8749E-03  0.2406E+01
   -0.249989   30.42036  0.7889E-14  0.1330E-04  0.6863E-07  0.7710E-03  0.7991E-03  0.1792E+01
   -0.299988   30.42199  0.7889E-14  0.1387E-04  0.6421E-07  0.8894E-03  0.7359E-03  0.1459E+01
   -0.349988   30.42337  0.7889E-14  0.1436E-04  0.6086E-07  0.9995E-03  0.6809E-03  0.1337E+01
   -0.399988   30.42456  0.7889E-14  0.1479E-04  0.5817E-07  0.1110E-02  0.6302E-03  0.1281E+01
   -0.449988   30.42562  0.7889E-14  0.1517E-04  0.5592E-07  0.1220E-02  0.5838E-03  0.1266E+01
   -0.499988   30.42656  0.7889E-14  0.1550E-04  0.5404E-07  0.1322E-02  0.5419E-03  0.1262E+01
   -0.549989   30.42741  0.7889E-14  0.1579E-04  0.5247E-07  0.1416E-02  0.5040E-03  0.1259E+01
   -0.599989   30.42819  0.7889E-14  0.1604E-04  0.5116E-07  0.1501E-02  0.4698E-03  0.1254E+01
   -0.649990   30.42891  0.7889E-14  0.1625E-04  0.5006E-07  0.1577E-02  0.4387E-03  0.1253E+01
   -0.699992   30.42959  0.7889E-14  0.1643E-04  0.4915E-07  0.1642E-02  0.4106E-03  0.1251E+01
   -0.749993   30.43024  0.7889E-14  0.1657E-04  0.4841E-07  0.1697E-02  0.3849E-03  0.1255E+01
   -0.799994   30.43085  0.7889E-14  0.1668E-04  0.4782E-07  0.1741E-02  0.3616E-03  0.1261E+01
   -0.849996   30.43144  0.7889E-14  0.1676E-04  0.4737E-07  0.1775E-02  0.3402E-03  0.1278E+01
   -0.899998   30.43202  0.7889E-14  0.1681E-04  0.4704E-07  0.1799E-02  0.3206E-03  0.1307E+01
   -0.949999   30.43258  0.7889E-14  0.1684E-04  0.4682E-07  0.1813E-02  0.3026E-03  0.1360E+01
   -1.000001   30.43313  0.7889E-14  0.1685E-04  0.4672E-07  0.1818E-02  0.2859E-03  0.1437E+01
   -1.050003   30.43368  0.7889E-14  0.1683E-04  0.4674E-07  0.1813E-02  0.2702E-03  0.1607E+01
   -1.100004   30.43423  0.7889E-14  0.1679E-04  0.4689E-07  0.1926E-02  0.2554E-03  0.5186E+01
   -1.150006   30.43473  0.7889E-14  0.1672E-04  0.4719E-07  0.1687E-02  0.2425E-03  0.1261E+02
   -1.200008   30.43531  0.7889E-14  0.1663E-04  0.4764E-07  0.1734E-02  0.2285E-03  0.2359E+01
   -1.250009   30.43587  0.7889E-14  0.1651E-04  0.4829E-07  0.1701E-02  0.2153E-03  0.2516E+01
   -1.300010   30.43644  0.7889E-14  0.1636E-04  0.4918E-07  0.1644E-02  0.2026E-03  0.2972E+01
   -1.350012   30.43702  0.7889E-14  0.1617E-04  0.5040E-07  0.1578E-02  0.1903E-03  0.3594E+01
   -1.400013   30.43763  0.7889E-14  0.1594E-04  0.5205E-07  0.1492E-02  0.1782E-03  0.4513E+01
   -1.450013   30.43827  0.7889E-14  0.1566E-04  0.5430E-07  0.1411E-02  0.1662E-03  0.5857E+01
   -1.500014   30.43896  0.7889E-14  0.1532E-04  0.5747E-07  0.1290E-02  0.1544E-03  0.8212E+01
   -1.550014   30.43972  0.7889E-14  0.1491E-04  0.6204E-07  0.1209E-02  0.1425E-03  0.1247E+02
   -1.600014   30.44055  0.7889E-14  0.1439E-04  0.6925E-07  0.1057E-02  0.1308E-03  0.3333E+02
   -1.650014   30.44162  0.7889E-14  0.1371E-04  0.8056E-07  0.9801E-03  0.1178E-03  0.1789E+03
   -1.700014   30.44286  0.7889E-14  0.1277E-04  0.1006E-06  0.7893E-03  0.1048E-03  0.2062E+04
   -1.750013   30.44511  0.7889E-14  0.1160E-04  0.1326E-06  0.7163E-03  0.8737E-04  0.1323E+06
   -1.800011   30.44663  0.7889E-14  0.1011E-04  0.2033E-06  0.4888E-03  0.7515E-04  0.7290E+04
   -1.850010   30.45489  0.7889E-14  0.8545E-05  0.3358E-06  0.4666E-03  0.5180E-04  0.6096E+07
   -1.900008   30.45193  0.7889E-14  0.6809E-05  0.7024E-06  0.2154E-03  0.4292E-04  0.1591E+05
   -1.950005   30.47462  0.7889E-14  0.4830E-05  0.1713E-05  0.2082E-03  0.2260E-04 -0.1102E+07
   -2.000002   30.47605  0.7889E-14  0.0000E+00  0.0000E+00  0.0000E+00  0.4479E-04  0.0000E+00
