 1 - depth, m
 2 - temperature, C
 3 - salinity, kg/kg
 4 - turbulent kinetic energy, m**2/s**2
 5 - dissipation rate, m**2/s**3
 6 - kinematic heat conductance, m**2/s
 7 - modulus of horizontal velocity, m/s
 8 - Richardson number, n/d
   -0.000000   29.70738  0.4580E-13  0.5129E-05  0.2896E-06  0.5036E-04  0.3079E-02  0.7241E+03
   -0.049997   29.73798  0.4580E-13  0.8370E-05  0.1265E-06  0.1960E-03  0.1660E-02  0.1578E+02
   -0.099994   29.74741  0.4580E-13  0.9884E-05  0.8960E-07  0.3804E-03  0.1291E-02  0.5413E+01
   -0.149992   29.75076  0.4580E-13  0.1087E-04  0.7537E-07  0.4760E-03  0.1145E-02  0.2779E+01
   -0.199991   29.75331  0.4580E-13  0.1165E-04  0.6701E-07  0.6159E-03  0.1031E-02  0.1830E+01
   -0.249989   29.75523  0.4580E-13  0.1227E-04  0.6151E-07  0.7285E-03  0.9437E-03  0.1391E+01
   -0.299989   29.75680  0.4580E-13  0.1278E-04  0.5754E-07  0.8315E-03  0.8701E-03  0.1234E+01
   -0.349988   29.75814  0.4580E-13  0.1324E-04  0.5438E-07  0.9406E-03  0.8035E-03  0.1282E+01
   -0.399988   29.75929  0.4580E-13  0.1365E-04  0.5173E-07  0.1061E-02  0.7388E-03  0.1306E+01
   -0.449988   29.76028  0.4580E-13  0.1403E-04  0.4948E-07  0.1179E-02  0.6788E-03  0.1318E+01
   -0.499988   29.76116  0.4580E-13  0.1436E-04  0.4759E-07  0.1289E-02  0.6244E-03  0.1325E+01
   -0.549989   29.76195  0.4580E-13  0.1464E-04  0.4599E-07  0.1390E-02  0.5756E-03  0.1323E+01
   -0.599990   29.76266  0.4580E-13  0.1488E-04  0.4465E-07  0.1482E-02  0.5316E-03  0.1315E+01
   -0.649991   29.76332  0.4580E-13  0.1507E-04  0.4352E-07  0.1563E-02  0.4919E-03  0.1304E+01
   -0.699992   29.76393  0.4580E-13  0.1523E-04  0.4257E-07  0.1632E-02  0.4562E-03  0.1287E+01
   -0.749993   29.76451  0.4580E-13  0.1534E-04  0.4179E-07  0.1690E-02  0.4239E-03  0.1268E+01
   -0.799995   29.76506  0.4580E-13  0.1543E-04  0.4116E-07  0.1736E-02  0.3949E-03  0.1244E+01
   -0.849997   29.76558  0.4580E-13  0.1548E-04  0.4065E-07  0.1770E-02  0.3687E-03  0.1217E+01
   -0.899998   29.76609  0.4580E-13  0.1551E-04  0.4027E-07  0.1793E-02  0.3451E-03  0.1186E+01
   -0.950000   29.76658  0.4580E-13  0.1551E-04  0.4000E-07  0.1805E-02  0.3238E-03  0.1158E+01
   -1.000002   29.76706  0.4580E-13  0.1549E-04  0.3983E-07  0.1807E-02  0.3046E-03  0.1146E+01
   -1.050003   29.76754  0.4580E-13  0.1545E-04  0.3976E-07  0.1800E-02  0.2871E-03  0.1203E+01
   -1.100005   29.76801  0.4580E-13  0.1539E-04  0.3979E-07  0.1916E-02  0.2711E-03  0.3761E+01
   -1.150007   29.76844  0.4580E-13  0.1531E-04  0.3994E-07  0.1668E-02  0.2572E-03  0.9127E+01
   -1.200008   29.76894  0.4580E-13  0.1520E-04  0.4020E-07  0.1721E-02  0.2423E-03  0.1691E+01
   -1.250010   29.76941  0.4580E-13  0.1507E-04  0.4062E-07  0.1688E-02  0.2282E-03  0.1786E+01
   -1.300011   29.76989  0.4580E-13  0.1492E-04  0.4123E-07  0.1633E-02  0.2146E-03  0.2087E+01
   -1.350012   29.77038  0.4580E-13  0.1473E-04  0.4208E-07  0.1569E-02  0.2014E-03  0.2498E+01
   -1.400013   29.77088  0.4580E-13  0.1451E-04  0.4326E-07  0.1486E-02  0.1886E-03  0.3090E+01
   -1.450014   29.77141  0.4580E-13  0.1424E-04  0.4490E-07  0.1404E-02  0.1759E-03  0.3947E+01
   -1.500015   29.77196  0.4580E-13  0.1393E-04  0.4720E-07  0.1287E-02  0.1634E-03  0.5396E+01
   -1.550015   29.77257  0.4580E-13  0.1355E-04  0.5051E-07  0.1203E-02  0.1508E-03  0.7766E+01
   -1.600015   29.77322  0.4580E-13  0.1309E-04  0.5571E-07  0.1055E-02  0.1385E-03  0.1596E+02
   -1.650015   29.77403  0.4580E-13  0.1250E-04  0.6395E-07  0.9767E-03  0.1250E-03  0.1169E+03
   -1.700015   29.77494  0.4580E-13  0.1170E-04  0.7862E-07  0.7938E-03  0.1118E-03 -0.2870E+04
   -1.750014   29.77658  0.4580E-13  0.1065E-04  0.1027E-06  0.7109E-03  0.9404E-04  0.3124E+05
   -1.800013   29.77788  0.4580E-13  0.9264E-05  0.1539E-06  0.4993E-03  0.8037E-04  0.2450E+04
   -1.850011   29.78347  0.4580E-13  0.7768E-05  0.2495E-06  0.4499E-03  0.5648E-04  0.3140E+07
   -1.900009   29.78200  0.4580E-13  0.6074E-05  0.5244E-06  0.2110E-03  0.4594E-04 -0.2586E+05
   -1.950006   29.79851  0.4580E-13  0.4252E-05  0.1302E-05  0.1924E-03  0.2410E-04 -0.2607E+06
   -2.000003   29.79999  0.4580E-13  0.0000E+00  0.0000E+00  0.0000E+00  0.4747E-04  0.0000E+00
