 1 - depth, m
 2 - temperature, C
 3 - salinity, kg/kg
 4 - turbulent kinetic energy, m**2/s**2
 5 - dissipation rate, m**2/s**3
 6 - kinematic heat conductance, m**2/s
 7 - modulus of horizontal velocity, m/s
 8 - Richardson number, n/d
   -0.000000   30.20805  0.2681E-13  0.5113E-05  0.2878E-06  0.5091E-04  0.3148E-02  0.1871E+04
   -0.049997   30.23663  0.2681E-13  0.8332E-05  0.1249E-06  0.1984E-03  0.1689E-02  0.1424E+03
   -0.099994   30.24563  0.2681E-13  0.9852E-05  0.8830E-07  0.3865E-03  0.1319E-02  0.6565E+01
   -0.149992   30.24872  0.2681E-13  0.1085E-04  0.7445E-07  0.4804E-03  0.1175E-02  0.3025E+01
   -0.199991   30.25111  0.2681E-13  0.1165E-04  0.6638E-07  0.6192E-03  0.1062E-02  0.2014E+01
   -0.249989   30.25291  0.2681E-13  0.1231E-04  0.6107E-07  0.7317E-03  0.9736E-03  0.1605E+01
   -0.299988   30.25440  0.2681E-13  0.1288E-04  0.5717E-07  0.8496E-03  0.8964E-03  0.1475E+01
   -0.349988   30.25566  0.2681E-13  0.1341E-04  0.5409E-07  0.9755E-03  0.8239E-03  0.1455E+01
   -0.399988   30.25673  0.2681E-13  0.1388E-04  0.5160E-07  0.1105E-02  0.7543E-03  0.1430E+01
   -0.449988   30.25767  0.2681E-13  0.1432E-04  0.4955E-07  0.1231E-02  0.6904E-03  0.1410E+01
   -0.499988   30.25849  0.2681E-13  0.1470E-04  0.4788E-07  0.1348E-02  0.6331E-03  0.1405E+01
   -0.549989   30.25923  0.2681E-13  0.1504E-04  0.4651E-07  0.1455E-02  0.5819E-03  0.1390E+01
   -0.599989   30.25991  0.2681E-13  0.1532E-04  0.4541E-07  0.1552E-02  0.5361E-03  0.1383E+01
   -0.649991   30.26053  0.2681E-13  0.1557E-04  0.4452E-07  0.1636E-02  0.4951E-03  0.1369E+01
   -0.699992   30.26112  0.2681E-13  0.1577E-04  0.4382E-07  0.1707E-02  0.4583E-03  0.1364E+01
   -0.749993   30.26168  0.2681E-13  0.1594E-04  0.4329E-07  0.1766E-02  0.4253E-03  0.1352E+01
   -0.799995   30.26221  0.2681E-13  0.1607E-04  0.4291E-07  0.1811E-02  0.3956E-03  0.1351E+01
   -0.849996   30.26273  0.2681E-13  0.1617E-04  0.4265E-07  0.1844E-02  0.3688E-03  0.1344E+01
   -0.899998   30.26323  0.2681E-13  0.1625E-04  0.4252E-07  0.1864E-02  0.3447E-03  0.1351E+01
   -0.949999   30.26373  0.2681E-13  0.1629E-04  0.4250E-07  0.1874E-02  0.3229E-03  0.1355E+01
   -1.000001   30.26422  0.2681E-13  0.1631E-04  0.4258E-07  0.1873E-02  0.3032E-03  0.1381E+01
   -1.050003   30.26471  0.2681E-13  0.1631E-04  0.4277E-07  0.1860E-02  0.2854E-03  0.1455E+01
   -1.100005   30.26520  0.2681E-13  0.1628E-04  0.4304E-07  0.1989E-02  0.2691E-03  0.4392E+01
   -1.150006   30.26565  0.2681E-13  0.1623E-04  0.4346E-07  0.1715E-02  0.2558E-03  0.1074E+02
   -1.200008   30.26618  0.2681E-13  0.1616E-04  0.4401E-07  0.1774E-02  0.2412E-03  0.2002E+01
   -1.250009   30.26670  0.2681E-13  0.1606E-04  0.4474E-07  0.1738E-02  0.2275E-03  0.2150E+01
   -1.300011   30.26722  0.2681E-13  0.1594E-04  0.4570E-07  0.1679E-02  0.2143E-03  0.2533E+01
   -1.350012   30.26776  0.2681E-13  0.1578E-04  0.4696E-07  0.1611E-02  0.2014E-03  0.3080E+01
   -1.400013   30.26833  0.2681E-13  0.1558E-04  0.4861E-07  0.1523E-02  0.1887E-03  0.3856E+01
   -1.450014   30.26893  0.2681E-13  0.1534E-04  0.5082E-07  0.1439E-02  0.1762E-03  0.5018E+01
   -1.500014   30.26958  0.2681E-13  0.1504E-04  0.5384E-07  0.1317E-02  0.1639E-03  0.6994E+01
   -1.550015   30.27030  0.2681E-13  0.1468E-04  0.5807E-07  0.1230E-02  0.1514E-03  0.1033E+02
   -1.600015   30.27108  0.2681E-13  0.1422E-04  0.6462E-07  0.1079E-02  0.1392E-03  0.2439E+02
   -1.650014   30.27209  0.2681E-13  0.1361E-04  0.7475E-07  0.9959E-03  0.1257E-03  0.5712E+04
   -1.700014   30.27322  0.2681E-13  0.1277E-04  0.9243E-07  0.8095E-03  0.1125E-03 -0.5006E+03
   -1.750013   30.27531  0.2681E-13  0.1169E-04  0.1213E-06  0.7292E-03  0.9465E-04  0.5726E+05
   -1.800012   30.27693  0.2681E-13  0.1026E-04  0.1852E-06  0.5039E-03  0.8126E-04  0.1793E+04
   -1.850010   30.28442  0.2681E-13  0.8739E-05  0.3008E-06  0.4668E-03  0.5760E-04  0.6168E+07
   -1.900008   30.28225  0.2681E-13  0.6986E-05  0.6309E-06  0.2167E-03  0.4723E-04 -0.2292E+05
   -1.950005   30.30421  0.2681E-13  0.4935E-05  0.1543E-05  0.1983E-03  0.2560E-04 -0.2240E+06
   -2.000002   30.30607  0.2681E-13  0.0000E+00  0.0000E+00  0.0000E+00  0.4770E-04  0.0000E+00
