 1 - depth, m
 2 - temperature, C
 3 - salinity, kg/kg
 4 - turbulent kinetic energy, m**2/s**2
 5 - dissipation rate, m**2/s**3
 6 - kinematic heat conductance, m**2/s
 7 - modulus of horizontal velocity, m/s
 8 - Richardson number, n/d
   -0.000000   30.94304  0.2671E-13  0.5026E-05  0.3198E-06  0.5059E-04  0.5428E-03  0.5248E+05
   -0.049997   30.97628  0.2671E-13  0.8838E-05  0.1420E-06  0.1882E-03  0.3068E-03  0.6726E+03
   -0.099994   30.98799  0.2671E-13  0.1068E-04  0.9834E-07  0.4231E-03  0.2245E-03  0.1682E+03
   -0.149992   30.99130  0.2671E-13  0.1184E-04  0.8300E-07  0.4996E-03  0.1992E-03  0.8349E+02
   -0.199991   30.99397  0.2671E-13  0.1274E-04  0.7392E-07  0.6684E-03  0.1782E-03  0.5453E+02
   -0.249989   30.99592  0.2671E-13  0.1345E-04  0.6794E-07  0.7967E-03  0.1626E-03  0.4068E+02
   -0.299988   30.99750  0.2671E-13  0.1403E-04  0.6365E-07  0.9247E-03  0.1495E-03  0.3250E+02
   -0.349988   30.99883  0.2671E-13  0.1452E-04  0.6043E-07  0.1041E-02  0.1383E-03  0.2791E+02
   -0.399988   30.99998  0.2671E-13  0.1492E-04  0.5791E-07  0.1146E-02  0.1284E-03  0.2486E+02
   -0.449988   31.00101  0.2671E-13  0.1527E-04  0.5586E-07  0.1244E-02  0.1196E-03  0.2339E+02
   -0.499988   31.00193  0.2671E-13  0.1557E-04  0.5416E-07  0.1334E-02  0.1119E-03  0.2271E+02
   -0.549989   31.00277  0.2671E-13  0.1582E-04  0.5274E-07  0.1416E-02  0.1049E-03  0.2244E+02
   -0.599989   31.00356  0.2671E-13  0.1605E-04  0.5154E-07  0.1490E-02  0.9862E-04  0.2239E+02
   -0.649990   31.00429  0.2671E-13  0.1623E-04  0.5052E-07  0.1557E-02  0.9286E-04  0.2271E+02
   -0.699992   31.00498  0.2671E-13  0.1639E-04  0.4966E-07  0.1615E-02  0.8757E-04  0.2315E+02
   -0.749993   31.00563  0.2671E-13  0.1652E-04  0.4894E-07  0.1666E-02  0.8267E-04  0.2395E+02
   -0.799994   31.00626  0.2671E-13  0.1663E-04  0.4834E-07  0.1709E-02  0.7811E-04  0.2487E+02
   -0.849996   31.00686  0.2671E-13  0.1671E-04  0.4786E-07  0.1743E-02  0.7384E-04  0.2621E+02
   -0.899998   31.00744  0.2671E-13  0.1677E-04  0.4749E-07  0.1770E-02  0.6984E-04  0.2770E+02
   -0.949999   31.00801  0.2671E-13  0.1680E-04  0.4722E-07  0.1787E-02  0.6605E-04  0.2972E+02
   -1.000001   31.00857  0.2671E-13  0.1681E-04  0.4707E-07  0.1797E-02  0.6248E-04  0.3200E+02
   -1.050003   31.00912  0.2671E-13  0.1680E-04  0.4704E-07  0.1795E-02  0.5907E-04  0.3632E+02
   -1.100004   31.00967  0.2671E-13  0.1676E-04  0.4712E-07  0.1894E-02  0.5582E-04  0.1186E+03
   -1.150006   31.01018  0.2671E-13  0.1670E-04  0.4736E-07  0.1693E-02  0.5293E-04  0.2793E+03
   -1.200007   31.01075  0.2671E-13  0.1662E-04  0.4775E-07  0.1728E-02  0.4989E-04  0.5291E+02
   -1.250009   31.01130  0.2671E-13  0.1651E-04  0.4832E-07  0.1696E-02  0.4700E-04  0.5620E+02
   -1.300010   31.01187  0.2671E-13  0.1636E-04  0.4914E-07  0.1643E-02  0.4421E-04  0.6617E+02
   -1.350011   31.01244  0.2671E-13  0.1618E-04  0.5025E-07  0.1581E-02  0.4150E-04  0.7942E+02
   -1.400012   31.01304  0.2671E-13  0.1596E-04  0.5178E-07  0.1498E-02  0.3885E-04  0.9913E+02
   -1.450013   31.01368  0.2671E-13  0.1570E-04  0.5386E-07  0.1418E-02  0.3625E-04  0.1275E+03
   -1.500014   31.01435  0.2671E-13  0.1537E-04  0.5679E-07  0.1301E-02  0.3369E-04  0.1765E+03
   -1.550014   31.01508  0.2671E-13  0.1498E-04  0.6096E-07  0.1216E-02  0.3110E-04  0.2582E+03
   -1.600014   31.01588  0.2671E-13  0.1448E-04  0.6748E-07  0.1068E-02  0.2856E-04  0.6601E+03
   -1.650014   31.01689  0.2671E-13  0.1384E-04  0.7769E-07  0.9859E-03  0.2578E-04  0.8592E+05
   -1.700013   31.01804  0.2671E-13  0.1296E-04  0.9571E-07  0.8014E-03  0.2306E-04  0.3158E+05
   -1.750013   31.02010  0.2671E-13  0.1184E-04  0.1251E-06  0.7244E-03  0.1939E-04  0.2076E+07
   -1.800011   31.02165  0.2671E-13  0.1036E-04  0.1904E-06  0.4966E-03  0.1668E-04  0.9365E+06
   -1.850010   31.02912  0.2671E-13  0.8757E-05  0.3110E-06  0.4644E-03  0.1172E-04  0.4658E+09
   -1.900007   31.02699  0.2671E-13  0.6917E-05  0.6551E-06  0.2127E-03  0.9574E-05  0.3290E+08
   -1.950005   31.04840  0.2671E-13  0.4893E-05  0.1590E-05  0.2045E-03  0.5071E-05 -0.1901E+07
   -2.000002   31.04894  0.2671E-13  0.0000E+00  0.0000E+00  0.0000E+00  0.9766E-05  0.0000E+00
