 1 - depth, m
 2 - temperature, C
 3 - salinity, kg/kg
 4 - turbulent kinetic energy, m**2/s**2
 5 - dissipation rate, m**2/s**3
 6 - kinematic heat conductance, m**2/s
 7 - modulus of horizontal velocity, m/s
 8 - Richardson number, n/d
   -0.000000   30.72823  0.5940E-13  0.4710E-05  0.2897E-06  0.4956E-04  0.1183E-02  0.1147E+05
   -0.049997   30.75799  0.5940E-13  0.8144E-05  0.1289E-06  0.1774E-03  0.6711E-03  0.2559E+04
   -0.099994   30.76931  0.5940E-13  0.9876E-05  0.8885E-07  0.4009E-03  0.4907E-03  0.4589E+02
   -0.149992   30.77241  0.5940E-13  0.1096E-04  0.7472E-07  0.4805E-03  0.4333E-03  0.2246E+02
   -0.199991   30.77489  0.5940E-13  0.1180E-04  0.6643E-07  0.6416E-03  0.3868E-03  0.1454E+02
   -0.249989   30.77669  0.5940E-13  0.1247E-04  0.6099E-07  0.7664E-03  0.3519E-03  0.1083E+02
   -0.299988   30.77816  0.5940E-13  0.1302E-04  0.5711E-07  0.8908E-03  0.3230E-03  0.8633E+01
   -0.349988   30.77939  0.5940E-13  0.1348E-04  0.5420E-07  0.1003E-02  0.2982E-03  0.7441E+01
   -0.399988   30.78046  0.5940E-13  0.1386E-04  0.5194E-07  0.1106E-02  0.2763E-03  0.6618E+01
   -0.449988   30.78141  0.5940E-13  0.1419E-04  0.5011E-07  0.1202E-02  0.2570E-03  0.6257E+01
   -0.499988   30.78227  0.5940E-13  0.1448E-04  0.4860E-07  0.1290E-02  0.2399E-03  0.6061E+01
   -0.549989   30.78305  0.5940E-13  0.1473E-04  0.4734E-07  0.1370E-02  0.2246E-03  0.6028E+01
   -0.599989   30.78378  0.5940E-13  0.1495E-04  0.4628E-07  0.1443E-02  0.2108E-03  0.6003E+01
   -0.649990   30.78445  0.5940E-13  0.1514E-04  0.4539E-07  0.1509E-02  0.1982E-03  0.6131E+01
   -0.699992   30.78509  0.5940E-13  0.1529E-04  0.4464E-07  0.1567E-02  0.1867E-03  0.6241E+01
   -0.749993   30.78570  0.5940E-13  0.1543E-04  0.4403E-07  0.1617E-02  0.1760E-03  0.6509E+01
   -0.799994   30.78628  0.5940E-13  0.1554E-04  0.4352E-07  0.1660E-02  0.1661E-03  0.6750E+01
   -0.849996   30.78684  0.5940E-13  0.1563E-04  0.4312E-07  0.1695E-02  0.1567E-03  0.7171E+01
   -0.899998   30.78738  0.5940E-13  0.1570E-04  0.4282E-07  0.1722E-02  0.1481E-03  0.7569E+01
   -0.949999   30.78791  0.5940E-13  0.1574E-04  0.4262E-07  0.1741E-02  0.1398E-03  0.8191E+01
   -1.000001   30.78843  0.5940E-13  0.1577E-04  0.4252E-07  0.1752E-02  0.1321E-03  0.8805E+01
   -1.050003   30.78894  0.5940E-13  0.1577E-04  0.4253E-07  0.1753E-02  0.1247E-03  0.1010E+02
   -1.100004   30.78945  0.5940E-13  0.1576E-04  0.4264E-07  0.1838E-02  0.1177E-03  0.3326E+02
   -1.150006   30.78994  0.5940E-13  0.1572E-04  0.4289E-07  0.1672E-02  0.1115E-03  0.7589E+02
   -1.200008   30.79047  0.5940E-13  0.1566E-04  0.4327E-07  0.1696E-02  0.1050E-03  0.1472E+02
   -1.250009   30.79099  0.5940E-13  0.1557E-04  0.4381E-07  0.1666E-02  0.9882E-04  0.1568E+02
   -1.300010   30.79152  0.5940E-13  0.1546E-04  0.4456E-07  0.1617E-02  0.9283E-04  0.1855E+02
   -1.350012   30.79206  0.5940E-13  0.1531E-04  0.4557E-07  0.1558E-02  0.8706E-04  0.2218E+02
   -1.400013   30.79263  0.5940E-13  0.1513E-04  0.4693E-07  0.1482E-02  0.8142E-04  0.2770E+02
   -1.450013   30.79322  0.5940E-13  0.1491E-04  0.4875E-07  0.1405E-02  0.7591E-04  0.3534E+02
   -1.500014   30.79385  0.5940E-13  0.1464E-04  0.5126E-07  0.1294E-02  0.7047E-04  0.4859E+02
   -1.550014   30.79454  0.5940E-13  0.1430E-04  0.5478E-07  0.1209E-02  0.6505E-04  0.6940E+02
   -1.600014   30.79529  0.5940E-13  0.1388E-04  0.6010E-07  0.1065E-02  0.5970E-04  0.1317E+03
   -1.650014   30.79620  0.5940E-13  0.1334E-04  0.6832E-07  0.9883E-03  0.5406E-04  0.6677E+03
   -1.700014   30.79723  0.5940E-13  0.1259E-04  0.8306E-07  0.8044E-03  0.4850E-04 -0.8045E+04
   -1.750013   30.79903  0.5940E-13  0.1159E-04  0.1073E-06  0.7280E-03  0.4123E-04  0.1834E+06
   -1.800011   30.80064  0.5940E-13  0.1022E-04  0.1600E-06  0.5073E-03  0.3536E-04  0.1483E+06
   -1.850010   30.80679  0.5940E-13  0.8683E-05  0.2560E-06  0.4662E-03  0.2542E-04  0.1127E+09
   -1.900008   30.80577  0.5940E-13  0.6905E-05  0.5325E-06  0.2131E-03  0.2064E-04  0.3590E+04
   -1.950005   30.82520  0.5940E-13  0.4846E-05  0.1338E-05  0.1857E-03  0.1124E-04 -0.1687E+06
   -2.000002   30.82768  0.5940E-13  0.0000E+00  0.0000E+00  0.0000E+00  0.2021E-04  0.0000E+00
