 1 - depth, m
 2 - temperature, C
 3 - salinity, kg/kg
 4 - turbulent kinetic energy, m**2/s**2
 5 - dissipation rate, m**2/s**3
 6 - kinematic heat conductance, m**2/s
 7 - modulus of horizontal velocity, m/s
 8 - Richardson number, n/d
   -0.000000   30.76241  0.3410E-13  0.4955E-05  0.3140E-06  0.5043E-04  0.9386E-03  0.2762E+04
   -0.049997   30.79470  0.3410E-13  0.8597E-05  0.1396E-06  0.1836E-03  0.5317E-03  0.7852E+04
   -0.099994   30.80673  0.3411E-13  0.1042E-04  0.9642E-07  0.4101E-03  0.3905E-03  0.5813E+02
   -0.149992   30.81006  0.3411E-13  0.1156E-04  0.8110E-07  0.4907E-03  0.3455E-03  0.2864E+02
   -0.199991   30.81272  0.3411E-13  0.1244E-04  0.7209E-07  0.6557E-03  0.3089E-03  0.1847E+02
   -0.249989   30.81465  0.3411E-13  0.1315E-04  0.6616E-07  0.7823E-03  0.2815E-03  0.1370E+02
   -0.299988   30.81623  0.3411E-13  0.1372E-04  0.6193E-07  0.9093E-03  0.2587E-03  0.1092E+02
   -0.349988   30.81755  0.3411E-13  0.1419E-04  0.5875E-07  0.1024E-02  0.2391E-03  0.9357E+01
   -0.399988   30.81869  0.3411E-13  0.1459E-04  0.5627E-07  0.1129E-02  0.2218E-03  0.8342E+01
   -0.449988   30.81970  0.3411E-13  0.1493E-04  0.5426E-07  0.1226E-02  0.2065E-03  0.7835E+01
   -0.499988   30.82062  0.3411E-13  0.1522E-04  0.5258E-07  0.1315E-02  0.1930E-03  0.7617E+01
   -0.549989   30.82145  0.3411E-13  0.1547E-04  0.5118E-07  0.1396E-02  0.1809E-03  0.7519E+01
   -0.599989   30.82223  0.3411E-13  0.1569E-04  0.4999E-07  0.1470E-02  0.1699E-03  0.7517E+01
   -0.649990   30.82295  0.3411E-13  0.1588E-04  0.4899E-07  0.1536E-02  0.1599E-03  0.7614E+01
   -0.699992   30.82363  0.3411E-13  0.1603E-04  0.4814E-07  0.1594E-02  0.1507E-03  0.7782E+01
   -0.749993   30.82427  0.3411E-13  0.1616E-04  0.4742E-07  0.1644E-02  0.1422E-03  0.8042E+01
   -0.799994   30.82489  0.3411E-13  0.1626E-04  0.4682E-07  0.1687E-02  0.1343E-03  0.8377E+01
   -0.849996   30.82549  0.3411E-13  0.1634E-04  0.4634E-07  0.1722E-02  0.1269E-03  0.8814E+01
   -0.899998   30.82606  0.3411E-13  0.1639E-04  0.4596E-07  0.1748E-02  0.1200E-03  0.9346E+01
   -0.949999   30.82662  0.3411E-13  0.1643E-04  0.4569E-07  0.1766E-02  0.1134E-03  0.1002E+02
   -1.000001   30.82717  0.3411E-13  0.1643E-04  0.4553E-07  0.1776E-02  0.1072E-03  0.1082E+02
   -1.050003   30.82771  0.3411E-13  0.1642E-04  0.4547E-07  0.1775E-02  0.1013E-03  0.1227E+02
   -1.100004   30.82825  0.3411E-13  0.1639E-04  0.4554E-07  0.1870E-02  0.9568E-04  0.4043E+02
   -1.150006   30.82875  0.3411E-13  0.1633E-04  0.4575E-07  0.1678E-02  0.9069E-04  0.9344E+02
   -1.200008   30.82931  0.3411E-13  0.1624E-04  0.4609E-07  0.1711E-02  0.8543E-04  0.1784E+02
   -1.250009   30.82985  0.3411E-13  0.1613E-04  0.4662E-07  0.1679E-02  0.8044E-04  0.1904E+02
   -1.300010   30.83040  0.3411E-13  0.1599E-04  0.4738E-07  0.1627E-02  0.7563E-04  0.2237E+02
   -1.350012   30.83097  0.3411E-13  0.1581E-04  0.4842E-07  0.1565E-02  0.7096E-04  0.2687E+02
   -1.400013   30.83155  0.3411E-13  0.1560E-04  0.4984E-07  0.1485E-02  0.6640E-04  0.3342E+02
   -1.450013   30.83216  0.3411E-13  0.1534E-04  0.5180E-07  0.1405E-02  0.6192E-04  0.4290E+02
   -1.500014   30.83281  0.3411E-13  0.1502E-04  0.5454E-07  0.1290E-02  0.5751E-04  0.5908E+02
   -1.550014   30.83353  0.3411E-13  0.1464E-04  0.5845E-07  0.1205E-02  0.5307E-04  0.8564E+02
   -1.600014   30.83430  0.3411E-13  0.1416E-04  0.6451E-07  0.1060E-02  0.4871E-04  0.1834E+03
   -1.650014   30.83526  0.3411E-13  0.1354E-04  0.7405E-07  0.9785E-03  0.4400E-04  0.2491E+05
   -1.700014   30.83637  0.3411E-13  0.1269E-04  0.9105E-07  0.7963E-03  0.3926E-04  0.3422E+04
   -1.750013   30.83835  0.3411E-13  0.1158E-04  0.1186E-06  0.7187E-03  0.3302E-04  0.6238E+06
   -1.800012   30.83987  0.3411E-13  0.1013E-04  0.1766E-06  0.4953E-03  0.2829E-04  0.1710E+06
   -1.850010   30.84680  0.3411E-13  0.8543E-05  0.2883E-06  0.4583E-03  0.1982E-04  0.7185E+08
   -1.900008   30.84509  0.3411E-13  0.6730E-05  0.6070E-06  0.2085E-03  0.1612E-04 -0.4530E+06
   -1.950005   30.86542  0.3411E-13  0.4751E-05  0.1494E-05  0.1985E-03  0.8463E-05 -0.8000E+06
   -2.000002   30.86669  0.3411E-13  0.0000E+00  0.0000E+00  0.0000E+00  0.1653E-04  0.0000E+00
