 1 - depth, m
 2 - temperature, C
 3 - salinity, kg/kg
 4 - turbulent kinetic energy, m**2/s**2
 5 - dissipation rate, m**2/s**3
 6 - kinematic heat conductance, m**2/s
 7 - modulus of horizontal velocity, m/s
 8 - Richardson number, n/d
   -0.000000   30.84041  0.1074E-13  0.5020E-05  0.3173E-06  0.4951E-04  0.8266E-03  0.2172E+05
   -0.049997   30.87397  0.1074E-13  0.8761E-05  0.1409E-06  0.1907E-03  0.4616E-03  0.1539E+05
   -0.099994   30.88543  0.1074E-13  0.1058E-04  0.9797E-07  0.4133E-03  0.3429E-03  0.9920E+02
   -0.149992   30.88878  0.1074E-13  0.1173E-04  0.8250E-07  0.4977E-03  0.3035E-03  0.4906E+02
   -0.199991   30.89144  0.1074E-13  0.1263E-04  0.7338E-07  0.6632E-03  0.2716E-03  0.3196E+02
   -0.249989   30.89338  0.1074E-13  0.1334E-04  0.6739E-07  0.7907E-03  0.2477E-03  0.2364E+02
   -0.299988   30.89496  0.1074E-13  0.1392E-04  0.6311E-07  0.9187E-03  0.2278E-03  0.1893E+02
   -0.349988   30.89629  0.1074E-13  0.1440E-04  0.5989E-07  0.1034E-02  0.2107E-03  0.1610E+02
   -0.399988   30.89744  0.1074E-13  0.1481E-04  0.5739E-07  0.1140E-02  0.1956E-03  0.1442E+02
   -0.449988   30.89846  0.1074E-13  0.1515E-04  0.5534E-07  0.1237E-02  0.1823E-03  0.1342E+02
   -0.499988   30.89938  0.1074E-13  0.1545E-04  0.5366E-07  0.1327E-02  0.1704E-03  0.1313E+02
   -0.549989   30.90022  0.1074E-13  0.1571E-04  0.5224E-07  0.1409E-02  0.1599E-03  0.1282E+02
   -0.599989   30.90100  0.1074E-13  0.1593E-04  0.5105E-07  0.1483E-02  0.1503E-03  0.1291E+02
   -0.649990   30.90173  0.1074E-13  0.1612E-04  0.5004E-07  0.1550E-02  0.1415E-03  0.1291E+02
   -0.699992   30.90241  0.1074E-13  0.1628E-04  0.4919E-07  0.1609E-02  0.1334E-03  0.1331E+02
   -0.749993   30.90307  0.1074E-13  0.1641E-04  0.4847E-07  0.1659E-02  0.1260E-03  0.1356E+02
   -0.799994   30.90369  0.1074E-13  0.1652E-04  0.4788E-07  0.1702E-02  0.1191E-03  0.1425E+02
   -0.849996   30.90429  0.1074E-13  0.1660E-04  0.4740E-07  0.1737E-02  0.1126E-03  0.1478E+02
   -0.899998   30.90487  0.1074E-13  0.1666E-04  0.4704E-07  0.1764E-02  0.1065E-03  0.1582E+02
   -0.949999   30.90544  0.1074E-13  0.1669E-04  0.4678E-07  0.1782E-02  0.1007E-03  0.1670E+02
   -1.000001   30.90599  0.1074E-13  0.1671E-04  0.4663E-07  0.1792E-02  0.9526E-04  0.1820E+02
   -1.050003   30.90654  0.1074E-13  0.1670E-04  0.4659E-07  0.1791E-02  0.9009E-04  0.2033E+02
   -1.100004   30.90708  0.1074E-13  0.1666E-04  0.4668E-07  0.1887E-02  0.8513E-04  0.6747E+02
   -1.150006   30.90760  0.1074E-13  0.1661E-04  0.4692E-07  0.1693E-02  0.8073E-04  0.1571E+03
   -1.200008   30.90816  0.1074E-13  0.1652E-04  0.4730E-07  0.1725E-02  0.7610E-04  0.2946E+02
   -1.250009   30.90872  0.1074E-13  0.1641E-04  0.4787E-07  0.1694E-02  0.7169E-04  0.3158E+02
   -1.300010   30.90928  0.1074E-13  0.1627E-04  0.4868E-07  0.1642E-02  0.6745E-04  0.3666E+02
   -1.350012   30.90985  0.1074E-13  0.1610E-04  0.4978E-07  0.1580E-02  0.6332E-04  0.4438E+02
   -1.400013   30.91045  0.1074E-13  0.1588E-04  0.5129E-07  0.1499E-02  0.5930E-04  0.5470E+02
   -1.450013   30.91108  0.1074E-13  0.1562E-04  0.5336E-07  0.1420E-02  0.5532E-04  0.7077E+02
   -1.500014   30.91174  0.1074E-13  0.1530E-04  0.5627E-07  0.1305E-02  0.5142E-04  0.9706E+02
   -1.550014   30.91248  0.1074E-13  0.1491E-04  0.6044E-07  0.1222E-02  0.4747E-04  0.1451E+03
   -1.600014   30.91327  0.1074E-13  0.1442E-04  0.6698E-07  0.1077E-02  0.4360E-04  0.3156E+03
   -1.650014   30.91429  0.1074E-13  0.1379E-04  0.7719E-07  0.9936E-03  0.3934E-04  0.3506E+04
   -1.700014   30.91544  0.1074E-13  0.1291E-04  0.9517E-07  0.8105E-03  0.3515E-04 -0.4335E+05
   -1.750013   30.91751  0.1074E-13  0.1180E-04  0.1245E-06  0.7321E-03  0.2955E-04  0.1315E+07
   -1.800011   30.91900  0.1074E-13  0.1037E-04  0.1907E-06  0.5057E-03  0.2544E-04  0.1143E+06
   -1.850010   30.92640  0.1074E-13  0.8855E-05  0.3116E-06  0.4720E-03  0.1801E-04  0.9260E+08
   -1.900008   30.92409  0.1074E-13  0.7094E-05  0.6511E-06  0.2238E-03  0.1484E-04 -0.1376E+07
   -1.950005   30.94473  0.1074E-13  0.4983E-05  0.1585E-05  0.1988E-03  0.8070E-05 -0.2658E+07
   -2.000002   30.94720  0.1074E-13  0.0000E+00  0.0000E+00  0.0000E+00  0.1503E-04  0.0000E+00
