 1 - depth, m
 2 - temperature, C
 3 - salinity, kg/kg
 4 - turbulent kinetic energy, m**2/s**2
 5 - dissipation rate, m**2/s**3
 6 - kinematic heat conductance, m**2/s
 7 - modulus of horizontal velocity, m/s
 8 - Richardson number, n/d
   -0.000000   30.98637  0.1505E-13  0.5286E-05  0.3499E-06  0.5261E-04  0.1106E-02  0.1362E+05
   -0.049997   31.02036  0.1505E-13  0.9101E-05  0.1554E-06  0.1866E-03  0.6316E-03  0.6945E+02
   -0.099994   31.03348  0.1505E-13  0.1105E-04  0.1068E-06  0.4188E-03  0.4638E-03  0.4265E+02
   -0.149992   31.03703  0.1505E-13  0.1228E-04  0.8963E-07  0.4996E-03  0.4106E-03  0.2105E+02
   -0.199990   31.03988  0.1505E-13  0.1323E-04  0.7956E-07  0.6710E-03  0.3672E-03  0.1348E+02
   -0.249989   31.04193  0.1505E-13  0.1398E-04  0.7298E-07  0.8005E-03  0.3349E-03  0.1000E+02
   -0.299988   31.04361  0.1505E-13  0.1460E-04  0.6831E-07  0.9319E-03  0.3080E-03  0.7958E+01
   -0.349987   31.04501  0.1505E-13  0.1511E-04  0.6481E-07  0.1050E-02  0.2850E-03  0.6825E+01
   -0.399987   31.04623  0.1505E-13  0.1553E-04  0.6209E-07  0.1158E-02  0.2646E-03  0.6073E+01
   -0.449987   31.04731  0.1505E-13  0.1590E-04  0.5989E-07  0.1258E-02  0.2467E-03  0.5712E+01
   -0.499988   31.04828  0.1505E-13  0.1622E-04  0.5807E-07  0.1349E-02  0.2308E-03  0.5540E+01
   -0.549988   31.04917  0.1505E-13  0.1649E-04  0.5655E-07  0.1433E-02  0.2165E-03  0.5478E+01
   -0.599989   31.05000  0.1505E-13  0.1673E-04  0.5528E-07  0.1508E-02  0.2036E-03  0.5465E+01
   -0.649990   31.05077  0.1505E-13  0.1693E-04  0.5421E-07  0.1576E-02  0.1918E-03  0.5550E+01
   -0.699991   31.05150  0.1505E-13  0.1710E-04  0.5331E-07  0.1635E-02  0.1810E-03  0.5661E+01
   -0.749992   31.05219  0.1505E-13  0.1724E-04  0.5256E-07  0.1686E-02  0.1710E-03  0.5871E+01
   -0.799994   31.05285  0.1505E-13  0.1735E-04  0.5195E-07  0.1729E-02  0.1616E-03  0.6104E+01
   -0.849995   31.05349  0.1505E-13  0.1744E-04  0.5147E-07  0.1763E-02  0.1529E-03  0.6450E+01
   -0.899997   31.05411  0.1505E-13  0.1750E-04  0.5111E-07  0.1789E-02  0.1447E-03  0.6829E+01
   -0.949998   31.05471  0.1505E-13  0.1754E-04  0.5087E-07  0.1805E-02  0.1369E-03  0.7354E+01
   -1.000000   31.05531  0.1505E-13  0.1755E-04  0.5075E-07  0.1814E-02  0.1295E-03  0.7936E+01
   -1.050002   31.05589  0.1505E-13  0.1754E-04  0.5077E-07  0.1811E-02  0.1225E-03  0.9045E+01
   -1.100003   31.05647  0.1505E-13  0.1750E-04  0.5092E-07  0.1919E-02  0.1159E-03  0.2932E+02
   -1.150005   31.05702  0.1505E-13  0.1744E-04  0.5125E-07  0.1692E-02  0.1100E-03  0.7100E+02
   -1.200006   31.05764  0.1505E-13  0.1735E-04  0.5174E-07  0.1735E-02  0.1036E-03  0.1337E+02
   -1.250008   31.05824  0.1505E-13  0.1722E-04  0.5245E-07  0.1701E-02  0.9768E-04  0.1427E+02
   -1.300009   31.05885  0.1505E-13  0.1707E-04  0.5344E-07  0.1644E-02  0.9192E-04  0.1693E+02
   -1.350010   31.05947  0.1505E-13  0.1687E-04  0.5479E-07  0.1578E-02  0.8633E-04  0.2047E+02
   -1.400011   31.06013  0.1505E-13  0.1663E-04  0.5662E-07  0.1492E-02  0.8084E-04  0.2584E+02
   -1.450012   31.06082  0.1505E-13  0.1634E-04  0.5913E-07  0.1407E-02  0.7544E-04  0.3365E+02
   -1.500013   31.06156  0.1505E-13  0.1598E-04  0.6265E-07  0.1290E-02  0.7009E-04  0.4740E+02
   -1.550013   31.06238  0.1505E-13  0.1555E-04  0.6776E-07  0.1202E-02  0.6470E-04  0.7299E+02
   -1.600013   31.06328  0.1505E-13  0.1499E-04  0.7575E-07  0.1059E-02  0.5933E-04  0.8460E+03
   -1.650013   31.06444  0.1505E-13  0.1427E-04  0.8843E-07  0.9710E-03  0.5349E-04  0.6178E+04
   -1.700012   31.06583  0.1505E-13  0.1326E-04  0.1109E-06  0.7969E-03  0.4747E-04  0.2544E+05
   -1.750011   31.06821  0.1505E-13  0.1203E-04  0.1466E-06  0.7070E-03  0.3969E-04  0.2157E+07
   -1.800010   31.06996  0.1505E-13  0.1040E-04  0.2271E-06  0.4844E-03  0.3395E-04  0.1623E+07
   -1.850008   31.07914  0.1505E-13  0.8790E-05  0.3750E-06  0.4591E-03  0.2325E-04  0.2520E+09
   -1.900006   31.07579  0.1505E-13  0.6994E-05  0.7858E-06  0.2143E-03  0.1921E-04  0.1252E+06
   -1.950003   31.10120  0.1505E-13  0.5031E-05  0.1890E-05  0.2180E-03  0.1007E-04 -0.6532E+06
   -2.000000   31.10115  0.1505E-13  0.0000E+00  0.0000E+00  0.0000E+00  0.2021E-04  0.0000E+00
