 1 - depth, m
 2 - temperature, C
 3 - salinity, kg/kg
 4 - turbulent kinetic energy, m**2/s**2
 5 - dissipation rate, m**2/s**3
 6 - kinematic heat conductance, m**2/s
 7 - modulus of horizontal velocity, m/s
 8 - Richardson number, n/d
   -0.000000   30.79639  0.2793E-13  0.4784E-05  0.2988E-06  0.5050E-04  0.1175E-02  0.8448E+04
   -0.049997   30.82621  0.2793E-13  0.8273E-05  0.1328E-06  0.1775E-03  0.6702E-03  0.5885E+04
   -0.099994   30.83784  0.2793E-13  0.1005E-04  0.9133E-07  0.4059E-03  0.4884E-03  0.4609E+02
   -0.149992   30.84098  0.2793E-13  0.1116E-04  0.7678E-07  0.4838E-03  0.4315E-03  0.2260E+02
   -0.199991   30.84349  0.2793E-13  0.1202E-04  0.6824E-07  0.6481E-03  0.3853E-03  0.1460E+02
   -0.249989   30.84532  0.2793E-13  0.1271E-04  0.6265E-07  0.7743E-03  0.3507E-03  0.1087E+02
   -0.299988   30.84680  0.2793E-13  0.1328E-04  0.5867E-07  0.9006E-03  0.3219E-03  0.8662E+01
   -0.349988   30.84805  0.2793E-13  0.1374E-04  0.5569E-07  0.1015E-02  0.2973E-03  0.7461E+01
   -0.399988   30.84913  0.2793E-13  0.1414E-04  0.5338E-07  0.1120E-02  0.2756E-03  0.6632E+01
   -0.449988   30.85009  0.2793E-13  0.1448E-04  0.5150E-07  0.1217E-02  0.2564E-03  0.6264E+01
   -0.499988   30.85096  0.2793E-13  0.1478E-04  0.4996E-07  0.1306E-02  0.2395E-03  0.6061E+01
   -0.549989   30.85175  0.2793E-13  0.1504E-04  0.4867E-07  0.1388E-02  0.2243E-03  0.6022E+01
   -0.599989   30.85248  0.2793E-13  0.1526E-04  0.4759E-07  0.1463E-02  0.2106E-03  0.5988E+01
   -0.649990   30.85317  0.2793E-13  0.1546E-04  0.4668E-07  0.1529E-02  0.1981E-03  0.6113E+01
   -0.699992   30.85381  0.2793E-13  0.1562E-04  0.4592E-07  0.1589E-02  0.1866E-03  0.6207E+01
   -0.749993   30.85443  0.2793E-13  0.1576E-04  0.4529E-07  0.1640E-02  0.1760E-03  0.6472E+01
   -0.799994   30.85502  0.2793E-13  0.1588E-04  0.4478E-07  0.1684E-02  0.1661E-03  0.6689E+01
   -0.849996   30.85558  0.2793E-13  0.1598E-04  0.4437E-07  0.1721E-02  0.1569E-03  0.7108E+01
   -0.899998   30.85613  0.2793E-13  0.1605E-04  0.4407E-07  0.1749E-02  0.1483E-03  0.7469E+01
   -0.949999   30.85667  0.2793E-13  0.1610E-04  0.4387E-07  0.1769E-02  0.1401E-03  0.8082E+01
   -1.000001   30.85720  0.2793E-13  0.1613E-04  0.4377E-07  0.1781E-02  0.1324E-03  0.8642E+01
   -1.050003   30.85771  0.2793E-13  0.1614E-04  0.4377E-07  0.1783E-02  0.1250E-03  0.9900E+01
   -1.100004   30.85823  0.2793E-13  0.1613E-04  0.4388E-07  0.1866E-02  0.1181E-03  0.3282E+02
   -1.150006   30.85872  0.2793E-13  0.1610E-04  0.4414E-07  0.1708E-02  0.1118E-03  0.7232E+02
   -1.200008   30.85925  0.2793E-13  0.1604E-04  0.4451E-07  0.1729E-02  0.1054E-03  0.1421E+02
   -1.250009   30.85978  0.2793E-13  0.1596E-04  0.4507E-07  0.1700E-02  0.9925E-04  0.1507E+02
   -1.300010   30.86031  0.2793E-13  0.1585E-04  0.4583E-07  0.1652E-02  0.9329E-04  0.1775E+02
   -1.350012   30.86086  0.2793E-13  0.1571E-04  0.4684E-07  0.1594E-02  0.8754E-04  0.2103E+02
   -1.400013   30.86143  0.2793E-13  0.1553E-04  0.4821E-07  0.1520E-02  0.8192E-04  0.2608E+02
   -1.450013   30.86202  0.2793E-13  0.1532E-04  0.5004E-07  0.1442E-02  0.7643E-04  0.3285E+02
   -1.500014   30.86265  0.2793E-13  0.1505E-04  0.5255E-07  0.1335E-02  0.7101E-04  0.4457E+02
   -1.550014   30.86334  0.2793E-13  0.1472E-04  0.5608E-07  0.1249E-02  0.6561E-04  0.6315E+02
   -1.600014   30.86409  0.2793E-13  0.1431E-04  0.6143E-07  0.1106E-02  0.6027E-04  0.1427E+03
   -1.650014   30.86499  0.2793E-13  0.1378E-04  0.6968E-07  0.1022E-02  0.5461E-04  0.8192E+03
   -1.700014   30.86602  0.2793E-13  0.1305E-04  0.8395E-07  0.8394E-03  0.4898E-04 -0.3713E+03
   -1.750013   30.86771  0.2793E-13  0.1211E-04  0.1072E-06  0.7601E-03  0.4191E-04  0.8560E+06
   -1.800011   30.86919  0.2793E-13  0.1082E-04  0.1551E-06  0.5385E-03  0.3619E-04  0.1638E+07
   -1.850010   30.87476  0.2793E-13  0.9318E-05  0.2473E-06  0.4923E-03  0.2658E-04  0.1284E+09
   -1.900008   30.87424  0.2793E-13  0.7461E-05  0.5122E-06  0.2267E-03  0.2162E-04 -0.3075E+06
   -1.950005   30.89244  0.2793E-13  0.5165E-05  0.1303E-05  0.1784E-03  0.1200E-04 -0.7278E+06
   -2.000002   30.89640  0.2793E-13  0.0000E+00  0.0000E+00  0.0000E+00  0.2067E-04  0.0000E+00
