 1 - depth, m
 2 - temperature, C
 3 - salinity, kg/kg
 4 - turbulent kinetic energy, m**2/s**2
 5 - dissipation rate, m**2/s**3
 6 - kinematic heat conductance, m**2/s
 7 - modulus of horizontal velocity, m/s
 8 - Richardson number, n/d
   -0.000000   30.48070  0.2418E-14  0.5311E-05  0.3253E-06  0.5265E-04  0.2594E-02  0.9803E+03
   -0.049997   30.51241  0.2418E-14  0.8808E-05  0.1429E-06  0.1925E-03  0.1427E-02  0.7222E+03
   -0.099994   30.52338  0.2418E-14  0.1053E-04  0.9955E-07  0.3970E-03  0.1087E-02  0.8515E+01
   -0.149992   30.52685  0.2418E-14  0.1163E-04  0.8348E-07  0.4879E-03  0.9634E-03  0.4274E+01
   -0.199991   30.52955  0.2418E-14  0.1250E-04  0.7408E-07  0.6422E-03  0.8652E-03  0.2758E+01
   -0.249989   30.53154  0.2418E-14  0.1319E-04  0.6793E-07  0.7645E-03  0.7906E-03  0.2057E+01
   -0.299988   30.53317  0.2418E-14  0.1375E-04  0.6355E-07  0.8807E-03  0.7283E-03  0.1683E+01
   -0.349988   30.53454  0.2418E-14  0.1424E-04  0.6018E-07  0.9919E-03  0.6735E-03  0.1554E+01
   -0.399988   30.53573  0.2418E-14  0.1466E-04  0.5745E-07  0.1105E-02  0.6223E-03  0.1476E+01
   -0.449988   30.53678  0.2418E-14  0.1504E-04  0.5518E-07  0.1216E-02  0.5754E-03  0.1448E+01
   -0.499988   30.53771  0.2418E-14  0.1537E-04  0.5327E-07  0.1319E-02  0.5331E-03  0.1433E+01
   -0.549989   30.53855  0.2418E-14  0.1566E-04  0.5167E-07  0.1413E-02  0.4950E-03  0.1428E+01
   -0.599989   30.53932  0.2418E-14  0.1590E-04  0.5033E-07  0.1499E-02  0.4606E-03  0.1420E+01
   -0.649990   30.54004  0.2418E-14  0.1610E-04  0.4921E-07  0.1575E-02  0.4294E-03  0.1424E+01
   -0.699992   30.54071  0.2418E-14  0.1627E-04  0.4827E-07  0.1640E-02  0.4011E-03  0.1422E+01
   -0.749993   30.54134  0.2418E-14  0.1640E-04  0.4750E-07  0.1695E-02  0.3754E-03  0.1434E+01
   -0.799995   30.54195  0.2418E-14  0.1650E-04  0.4687E-07  0.1740E-02  0.3520E-03  0.1440E+01
   -0.849996   30.54253  0.2418E-14  0.1658E-04  0.4638E-07  0.1774E-02  0.3307E-03  0.1466E+01
   -0.899998   30.54310  0.2418E-14  0.1662E-04  0.4601E-07  0.1797E-02  0.3112E-03  0.1491E+01
   -0.949999   30.54365  0.2418E-14  0.1664E-04  0.4576E-07  0.1811E-02  0.2934E-03  0.1548E+01
   -1.000001   30.54418  0.2418E-14  0.1664E-04  0.4562E-07  0.1817E-02  0.2769E-03  0.1617E+01
   -1.050003   30.54472  0.2418E-14  0.1661E-04  0.4559E-07  0.1811E-02  0.2616E-03  0.1804E+01
   -1.100005   30.54525  0.2418E-14  0.1656E-04  0.4568E-07  0.1925E-02  0.2473E-03  0.5796E+01
   -1.150006   30.54574  0.2418E-14  0.1649E-04  0.4592E-07  0.1684E-02  0.2347E-03  0.1387E+02
   -1.200008   30.54630  0.2418E-14  0.1639E-04  0.4630E-07  0.1733E-02  0.2212E-03  0.2611E+01
   -1.250009   30.54684  0.2418E-14  0.1627E-04  0.4686E-07  0.1700E-02  0.2084E-03  0.2761E+01
   -1.300011   30.54738  0.2418E-14  0.1611E-04  0.4766E-07  0.1643E-02  0.1961E-03  0.3256E+01
   -1.350012   30.54794  0.2418E-14  0.1592E-04  0.4876E-07  0.1579E-02  0.1842E-03  0.3896E+01
   -1.400013   30.54852  0.2418E-14  0.1568E-04  0.5026E-07  0.1492E-02  0.1724E-03  0.4872E+01
   -1.450014   30.54914  0.2418E-14  0.1541E-04  0.5232E-07  0.1412E-02  0.1609E-03  0.6232E+01
   -1.500014   30.54978  0.2418E-14  0.1507E-04  0.5522E-07  0.1288E-02  0.1495E-03  0.8662E+01
   -1.550015   30.55050  0.2418E-14  0.1466E-04  0.5936E-07  0.1209E-02  0.1380E-03  0.1251E+02
   -1.600015   30.55127  0.2418E-14  0.1415E-04  0.6597E-07  0.1054E-02  0.1268E-03  0.2887E+02
   -1.650014   30.55228  0.2418E-14  0.1349E-04  0.7626E-07  0.9799E-03  0.1141E-03  0.1274E+03
   -1.700014   30.55337  0.2418E-14  0.1258E-04  0.9464E-07  0.7888E-03  0.1020E-03  0.8059E+04
   -1.750013   30.55549  0.2418E-14  0.1141E-04  0.1247E-06  0.7171E-03  0.8501E-04  0.9055E+05
   -1.800012   30.55696  0.2418E-14  0.9897E-05  0.1906E-06  0.4880E-03  0.7301E-04  0.4237E+05
   -1.850010   30.56450  0.2418E-14  0.8296E-05  0.3130E-06  0.4546E-03  0.5020E-04  0.8032E+07
   -1.900008   30.56204  0.2418E-14  0.6515E-05  0.6552E-06  0.2131E-03  0.4127E-04 -0.3885E+05
   -1.950005   30.58325  0.2418E-14  0.4632E-05  0.1599E-05  0.2086E-03  0.2141E-04 -0.1481E+06
   -2.000002   30.58322  0.2418E-14  0.0000E+00  0.0000E+00  0.0000E+00  0.4337E-04  0.0000E+00
