 1 - depth, m
 2 - temperature, C
 3 - salinity, kg/kg
 4 - turbulent kinetic energy, m**2/s**2
 5 - dissipation rate, m**2/s**3
 6 - kinematic heat conductance, m**2/s
 7 - modulus of horizontal velocity, m/s
 8 - Richardson number, n/d
   -0.000000   30.01558  0.1207E-14  0.4741E-05  0.2957E-06  0.5044E-04  0.8754E-03  0.9859E+04
   -0.049997   30.04626  0.1207E-14  0.8254E-05  0.1313E-06  0.1760E-03  0.5014E-03  0.3835E+02
   -0.099994   30.05836  0.1207E-14  0.1002E-04  0.9025E-07  0.4088E-03  0.3632E-03  0.7267E+02
   -0.149992   30.06156  0.1207E-14  0.1112E-04  0.7605E-07  0.4827E-03  0.3214E-03  0.3548E+02
   -0.199991   30.06416  0.1207E-14  0.1197E-04  0.6766E-07  0.6459E-03  0.2871E-03  0.2303E+02
   -0.249989   30.06605  0.1207E-14  0.1264E-04  0.6214E-07  0.7706E-03  0.2613E-03  0.1713E+02
   -0.299989   30.06759  0.1207E-14  0.1319E-04  0.5818E-07  0.8949E-03  0.2400E-03  0.1366E+02
   -0.349988   30.06887  0.1207E-14  0.1364E-04  0.5520E-07  0.1007E-02  0.2216E-03  0.1173E+02
   -0.399988   30.06999  0.1207E-14  0.1402E-04  0.5288E-07  0.1110E-02  0.2054E-03  0.1045E+02
   -0.449988   30.07098  0.1207E-14  0.1435E-04  0.5098E-07  0.1205E-02  0.1911E-03  0.9850E+01
   -0.499988   30.07187  0.1207E-14  0.1463E-04  0.4941E-07  0.1293E-02  0.1784E-03  0.9566E+01
   -0.549989   30.07269  0.1207E-14  0.1487E-04  0.4809E-07  0.1373E-02  0.1671E-03  0.9474E+01
   -0.599990   30.07345  0.1207E-14  0.1508E-04  0.4697E-07  0.1445E-02  0.1569E-03  0.9454E+01
   -0.649991   30.07415  0.1207E-14  0.1525E-04  0.4601E-07  0.1510E-02  0.1475E-03  0.9608E+01
   -0.699992   30.07482  0.1207E-14  0.1540E-04  0.4520E-07  0.1568E-02  0.1389E-03  0.9794E+01
   -0.749993   30.07545  0.1207E-14  0.1552E-04  0.4452E-07  0.1618E-02  0.1309E-03  0.1016E+02
   -0.799995   30.07605  0.1207E-14  0.1562E-04  0.4394E-07  0.1660E-02  0.1236E-03  0.1054E+02
   -0.849996   30.07663  0.1207E-14  0.1569E-04  0.4347E-07  0.1694E-02  0.1167E-03  0.1113E+02
   -0.899998   30.07720  0.1207E-14  0.1574E-04  0.4310E-07  0.1720E-02  0.1102E-03  0.1175E+02
   -0.950000   30.07774  0.1207E-14  0.1577E-04  0.4283E-07  0.1739E-02  0.1041E-03  0.1263E+02
   -1.000001   30.07828  0.1207E-14  0.1578E-04  0.4265E-07  0.1749E-02  0.9833E-04  0.1357E+02
   -1.050003   30.07880  0.1207E-14  0.1577E-04  0.4258E-07  0.1749E-02  0.9284E-04  0.1543E+02
   -1.100005   30.07932  0.1207E-14  0.1573E-04  0.4261E-07  0.1839E-02  0.8763E-04  0.5071E+02
   -1.150006   30.07981  0.1207E-14  0.1567E-04  0.4277E-07  0.1660E-02  0.8298E-04  0.1165E+03
   -1.200008   30.08035  0.1207E-14  0.1559E-04  0.4306E-07  0.1689E-02  0.7814E-04  0.2233E+02
   -1.250009   30.08087  0.1207E-14  0.1548E-04  0.4352E-07  0.1658E-02  0.7353E-04  0.2368E+02
   -1.300011   30.08140  0.1207E-14  0.1535E-04  0.4418E-07  0.1608E-02  0.6907E-04  0.2784E+02
   -1.350012   30.08194  0.1207E-14  0.1518E-04  0.4510E-07  0.1549E-02  0.6477E-04  0.3320E+02
   -1.400013   30.08250  0.1207E-14  0.1497E-04  0.4636E-07  0.1471E-02  0.6056E-04  0.4124E+02
   -1.450014   30.08309  0.1207E-14  0.1473E-04  0.4809E-07  0.1392E-02  0.5644E-04  0.5243E+02
   -1.500015   30.08371  0.1207E-14  0.1443E-04  0.5051E-07  0.1281E-02  0.5239E-04  0.7168E+02
   -1.550015   30.08439  0.1207E-14  0.1407E-04  0.5397E-07  0.1196E-02  0.4833E-04  0.1020E+03
   -1.600015   30.08512  0.1207E-14  0.1362E-04  0.5930E-07  0.1054E-02  0.4434E-04  0.1946E+03
   -1.650015   30.08600  0.1207E-14  0.1304E-04  0.6769E-07  0.9715E-03  0.4008E-04  0.3120E+04
   -1.700014   30.08702  0.1207E-14  0.1225E-04  0.8273E-07  0.7923E-03  0.3581E-04  0.1720E+05
   -1.750013   30.08881  0.1207E-14  0.1121E-04  0.1072E-06  0.7115E-03  0.3027E-04  0.3210E+06
   -1.800012   30.09026  0.1207E-14  0.9821E-05  0.1599E-06  0.4912E-03  0.2596E-04  0.5731E+05
   -1.850010   30.09652  0.1207E-14  0.8284E-05  0.2592E-06  0.4536E-03  0.1837E-04  0.7699E+08
   -1.900008   30.09514  0.1207E-14  0.6515E-05  0.5462E-06  0.2029E-03  0.1492E-04 -0.2195E+06
   -1.950006   30.11393  0.1207E-14  0.4557E-05  0.1352E-05  0.1917E-03  0.7886E-05 -0.8546E+06
   -2.000003   30.11536  0.1207E-14  0.0000E+00  0.0000E+00  0.0000E+00  0.1494E-04  0.0000E+00
