 1 - depth, m
 2 - temperature, C
 3 - salinity, kg/kg
 4 - turbulent kinetic energy, m**2/s**2
 5 - dissipation rate, m**2/s**3
 6 - kinematic heat conductance, m**2/s
 7 - modulus of horizontal velocity, m/s
 8 - Richardson number, n/d
   -0.000000   30.90463  0.5137E-13  0.5303E-05  0.3367E-06  0.5286E-04  0.2014E-02  0.5628E+04
   -0.049997   30.93697  0.5138E-13  0.8945E-05  0.1490E-06  0.1892E-03  0.1125E-02  0.1955E+03
   -0.099994   30.94872  0.5138E-13  0.1077E-04  0.1031E-06  0.4066E-03  0.8463E-03  0.2320E+02
   -0.149992   30.95220  0.5138E-13  0.1194E-04  0.8641E-07  0.4932E-03  0.7491E-03  0.1137E+02
   -0.199991   30.95495  0.5138E-13  0.1285E-04  0.7665E-07  0.6563E-03  0.6713E-03  0.7358E+01
   -0.249989   30.95695  0.5138E-13  0.1357E-04  0.7028E-07  0.7836E-03  0.6127E-03  0.5384E+01
   -0.299988   30.95858  0.5138E-13  0.1416E-04  0.6574E-07  0.9087E-03  0.5639E-03  0.4327E+01
   -0.349988   30.95996  0.5138E-13  0.1465E-04  0.6234E-07  0.1022E-02  0.5219E-03  0.3673E+01
   -0.399987   30.96115  0.5138E-13  0.1507E-04  0.5966E-07  0.1130E-02  0.4839E-03  0.3347E+01
   -0.449987   30.96220  0.5138E-13  0.1544E-04  0.5746E-07  0.1233E-02  0.4498E-03  0.3113E+01
   -0.499988   30.96315  0.5138E-13  0.1577E-04  0.5564E-07  0.1330E-02  0.4191E-03  0.3087E+01
   -0.549988   30.96401  0.5138E-13  0.1605E-04  0.5411E-07  0.1418E-02  0.3916E-03  0.2988E+01
   -0.599989   30.96481  0.5138E-13  0.1629E-04  0.5284E-07  0.1498E-02  0.3665E-03  0.3038E+01
   -0.649990   30.96555  0.5138E-13  0.1649E-04  0.5176E-07  0.1569E-02  0.3438E-03  0.2995E+01
   -0.699991   30.96625  0.5138E-13  0.1666E-04  0.5087E-07  0.1631E-02  0.3230E-03  0.3106E+01
   -0.749993   30.96691  0.5138E-13  0.1680E-04  0.5014E-07  0.1683E-02  0.3041E-03  0.3108E+01
   -0.799994   30.96754  0.5138E-13  0.1691E-04  0.4954E-07  0.1726E-02  0.2866E-03  0.3287E+01
   -0.849996   30.96815  0.5138E-13  0.1700E-04  0.4907E-07  0.1760E-02  0.2705E-03  0.3344E+01
   -0.899997   30.96874  0.5138E-13  0.1705E-04  0.4873E-07  0.1785E-02  0.2556E-03  0.3610E+01
   -0.949999   30.96932  0.5138E-13  0.1709E-04  0.4850E-07  0.1800E-02  0.2417E-03  0.3748E+01
   -1.000001   30.96989  0.5138E-13  0.1710E-04  0.4838E-07  0.1808E-02  0.2286E-03  0.4142E+01
   -1.050002   30.97045  0.5138E-13  0.1708E-04  0.4839E-07  0.1804E-02  0.2163E-03  0.4562E+01
   -1.100004   30.97101  0.5138E-13  0.1704E-04  0.4852E-07  0.1912E-02  0.2045E-03  0.1512E+02
   -1.150006   30.97153  0.5138E-13  0.1698E-04  0.4882E-07  0.1686E-02  0.1941E-03  0.3737E+02
   -1.200007   30.97212  0.5138E-13  0.1689E-04  0.4928E-07  0.1728E-02  0.1830E-03  0.6739E+01
   -1.250008   30.97269  0.5138E-13  0.1677E-04  0.4994E-07  0.1695E-02  0.1725E-03  0.7350E+01
   -1.300010   30.97327  0.5138E-13  0.1661E-04  0.5087E-07  0.1638E-02  0.1623E-03  0.8463E+01
   -1.350011   30.97387  0.5138E-13  0.1643E-04  0.5212E-07  0.1573E-02  0.1524E-03  0.1053E+02
   -1.400012   30.97450  0.5138E-13  0.1619E-04  0.5383E-07  0.1488E-02  0.1428E-03  0.1299E+02
   -1.450013   30.97516  0.5138E-13  0.1591E-04  0.5618E-07  0.1404E-02  0.1332E-03  0.1738E+02
   -1.500013   30.97586  0.5138E-13  0.1557E-04  0.5948E-07  0.1288E-02  0.1238E-03  0.2430E+02
   -1.550014   30.97665  0.5138E-13  0.1514E-04  0.6425E-07  0.1200E-02  0.1143E-03  0.3834E+02
   -1.600014   30.97750  0.5138E-13  0.1461E-04  0.7181E-07  0.1059E-02  0.1049E-03  0.1182E+03
   -1.650013   30.97862  0.5138E-13  0.1391E-04  0.8376E-07  0.9658E-03  0.9452E-04  0.1084E+04
   -1.700013   30.97993  0.5138E-13  0.1294E-04  0.1046E-06  0.7965E-03  0.8399E-04  0.3182E+04
   -1.750012   30.98219  0.5138E-13  0.1176E-04  0.1383E-06  0.7012E-03  0.7047E-04  0.1282E+06
   -1.800011   30.98386  0.5138E-13  0.1022E-04  0.2151E-06  0.4888E-03  0.6029E-04  0.7139E+05
   -1.850009   30.99248  0.5138E-13  0.8651E-05  0.3551E-06  0.4549E-03  0.4204E-04  0.1389E+09
   -1.900007   30.98933  0.5138E-13  0.6872E-05  0.7580E-06  0.2124E-03  0.3450E-04  0.9672E+05
   -1.950004   31.01301  0.5138E-13  0.4908E-05  0.1797E-05  0.2143E-03  0.1828E-04 -0.2285E+06
   -2.000001   31.01377  0.5138E-13  0.0000E+00  0.0000E+00  0.0000E+00  0.3597E-04  0.0000E+00
