 1 - depth, m
 2 - temperature, C
 3 - salinity, kg/kg
 4 - turbulent kinetic energy, m**2/s**2
 5 - dissipation rate, m**2/s**3
 6 - kinematic heat conductance, m**2/s
 7 - modulus of horizontal velocity, m/s
 8 - Richardson number, n/d
   -0.000000   29.70175  0.5362E-14  0.4765E-05  0.2729E-06  0.4936E-04  0.2441E-02  0.4519E+04
   -0.049997   29.73008  0.5362E-14  0.7979E-05  0.1203E-06  0.1864E-03  0.1326E-02  0.4559E+02
   -0.099994   29.73948  0.5362E-14  0.9536E-05  0.8438E-07  0.3832E-03  0.1007E-02  0.7620E+01
   -0.149992   29.74255  0.5362E-14  0.1055E-04  0.7083E-07  0.4759E-03  0.8877E-03  0.3848E+01
   -0.199991   29.74491  0.5362E-14  0.1134E-04  0.6292E-07  0.6255E-03  0.7943E-03  0.2496E+01
   -0.249989   29.74667  0.5362E-14  0.1198E-04  0.5773E-07  0.7484E-03  0.7234E-03  0.1850E+01
   -0.299989   29.74810  0.5362E-14  0.1250E-04  0.5405E-07  0.8663E-03  0.6644E-03  0.1484E+01
   -0.349988   29.74930  0.5362E-14  0.1294E-04  0.5130E-07  0.9725E-03  0.6136E-03  0.1306E+01
   -0.399988   29.75035  0.5362E-14  0.1332E-04  0.4913E-07  0.1073E-02  0.5680E-03  0.1228E+01
   -0.449988   29.75129  0.5362E-14  0.1366E-04  0.4733E-07  0.1174E-02  0.5268E-03  0.1213E+01
   -0.499988   29.75213  0.5362E-14  0.1397E-04  0.4583E-07  0.1270E-02  0.4896E-03  0.1214E+01
   -0.549989   29.75289  0.5362E-14  0.1423E-04  0.4457E-07  0.1358E-02  0.4560E-03  0.1212E+01
   -0.599990   29.75359  0.5362E-14  0.1447E-04  0.4352E-07  0.1439E-02  0.4255E-03  0.1209E+01
   -0.649991   29.75424  0.5362E-14  0.1467E-04  0.4264E-07  0.1512E-02  0.3979E-03  0.1207E+01
   -0.699992   29.75486  0.5362E-14  0.1484E-04  0.4192E-07  0.1575E-02  0.3728E-03  0.1203E+01
   -0.749993   29.75544  0.5362E-14  0.1498E-04  0.4134E-07  0.1628E-02  0.3500E-03  0.1205E+01
   -0.799995   29.75600  0.5362E-14  0.1509E-04  0.4087E-07  0.1672E-02  0.3292E-03  0.1215E+01
   -0.849996   29.75653  0.5362E-14  0.1518E-04  0.4051E-07  0.1707E-02  0.3101E-03  0.1243E+01
   -0.899998   29.75706  0.5362E-14  0.1525E-04  0.4025E-07  0.1733E-02  0.2926E-03  0.1290E+01
   -0.950000   29.75757  0.5362E-14  0.1530E-04  0.4008E-07  0.1751E-02  0.2762E-03  0.1365E+01
   -1.000001   29.75807  0.5362E-14  0.1533E-04  0.4000E-07  0.1762E-02  0.2609E-03  0.1466E+01
   -1.050003   29.75856  0.5362E-14  0.1534E-04  0.4002E-07  0.1763E-02  0.2464E-03  0.1663E+01
   -1.100005   29.75905  0.5362E-14  0.1533E-04  0.4013E-07  0.1845E-02  0.2326E-03  0.5557E+01
   -1.150007   29.75952  0.5362E-14  0.1530E-04  0.4037E-07  0.1689E-02  0.2202E-03  0.1228E+02
   -1.200008   29.76003  0.5362E-14  0.1525E-04  0.4072E-07  0.1710E-02  0.2075E-03  0.2393E+01
   -1.250010   29.76053  0.5362E-14  0.1517E-04  0.4122E-07  0.1681E-02  0.1953E-03  0.2551E+01
   -1.300011   29.76104  0.5362E-14  0.1507E-04  0.4191E-07  0.1634E-02  0.1835E-03  0.2980E+01
   -1.350012   29.76156  0.5362E-14  0.1494E-04  0.4283E-07  0.1577E-02  0.1721E-03  0.3549E+01
   -1.400013   29.76210  0.5362E-14  0.1478E-04  0.4405E-07  0.1504E-02  0.1610E-03  0.4359E+01
   -1.450014   29.76267  0.5362E-14  0.1458E-04  0.4568E-07  0.1428E-02  0.1501E-03  0.5503E+01
   -1.500015   29.76327  0.5362E-14  0.1433E-04  0.4790E-07  0.1321E-02  0.1394E-03  0.7366E+01
   -1.550015   29.76393  0.5362E-14  0.1403E-04  0.5100E-07  0.1235E-02  0.1288E-03  0.1028E+02
   -1.600015   29.76463  0.5362E-14  0.1365E-04  0.5558E-07  0.1094E-02  0.1183E-03  0.1742E+02
   -1.650015   29.76547  0.5362E-14  0.1317E-04  0.6254E-07  0.1013E-02  0.1073E-03  0.3140E+03
   -1.700014   29.76641  0.5362E-14  0.1251E-04  0.7495E-07  0.8313E-03  0.9653E-04  0.1636E+04
   -1.750013   29.76799  0.5362E-14  0.1162E-04  0.9523E-07  0.7532E-03  0.8264E-04  0.1741E+05
   -1.800012   29.76942  0.5362E-14  0.1039E-04  0.1369E-06  0.5294E-03  0.7137E-04  0.6153E+05
   -1.850011   29.77452  0.5362E-14  0.8934E-05  0.2160E-06  0.4832E-03  0.5255E-04  0.2333E+08
   -1.900008   29.77425  0.5362E-14  0.7120E-05  0.4425E-06  0.2204E-03  0.4264E-04 -0.4062E+05
   -1.950006   29.79141  0.5362E-14  0.4908E-05  0.1143E-05  0.1717E-03  0.2363E-04 -0.4488E+06
   -2.000003   29.79449  0.5362E-14  0.0000E+00  0.0000E+00  0.0000E+00  0.4023E-04  0.0000E+00
