 1 - depth, m
 2 - temperature, C
 3 - salinity, kg/kg
 4 - turbulent kinetic energy, m**2/s**2
 5 - dissipation rate, m**2/s**3
 6 - kinematic heat conductance, m**2/s
 7 - modulus of horizontal velocity, m/s
 8 - Richardson number, n/d
   -0.000000   31.42284  0.8702E-13  0.5142E-05  0.3328E-06  0.5175E-04  0.6515E-03  0.1075E+05
   -0.049997   31.45633  0.8702E-13  0.8981E-05  0.1478E-06  0.1862E-03  0.3727E-03  0.2036E+05
   -0.099994   31.46859  0.8702E-13  0.1087E-04  0.1020E-06  0.4234E-03  0.2717E-03  0.1358E+03
   -0.149992   31.47198  0.8702E-13  0.1205E-04  0.8601E-07  0.4986E-03  0.2411E-03  0.6750E+02
   -0.199990   31.47473  0.8702E-13  0.1297E-04  0.7656E-07  0.6682E-03  0.2157E-03  0.4398E+02
   -0.249989   31.47672  0.8702E-13  0.1369E-04  0.7035E-07  0.7962E-03  0.1968E-03  0.3290E+02
   -0.299988   31.47834  0.8702E-13  0.1428E-04  0.6591E-07  0.9241E-03  0.1811E-03  0.2625E+02
   -0.349988   31.47970  0.8702E-13  0.1477E-04  0.6258E-07  0.1040E-02  0.1675E-03  0.2263E+02
   -0.399987   31.48088  0.8702E-13  0.1518E-04  0.5999E-07  0.1145E-02  0.1555E-03  0.2011E+02
   -0.449987   31.48193  0.8702E-13  0.1553E-04  0.5788E-07  0.1242E-02  0.1450E-03  0.1902E+02
   -0.499988   31.48288  0.8702E-13  0.1583E-04  0.5613E-07  0.1330E-02  0.1356E-03  0.1842E+02
   -0.549988   31.48375  0.8702E-13  0.1609E-04  0.5468E-07  0.1411E-02  0.1272E-03  0.1832E+02
   -0.599989   31.48455  0.8702E-13  0.1631E-04  0.5346E-07  0.1483E-02  0.1196E-03  0.1823E+02
   -0.649990   31.48530  0.8702E-13  0.1650E-04  0.5243E-07  0.1548E-02  0.1126E-03  0.1862E+02
   -0.699991   31.48601  0.8702E-13  0.1665E-04  0.5158E-07  0.1604E-02  0.1062E-03  0.1894E+02
   -0.749992   31.48669  0.8702E-13  0.1678E-04  0.5086E-07  0.1652E-02  0.1003E-03  0.1977E+02
   -0.799994   31.48734  0.8702E-13  0.1688E-04  0.5029E-07  0.1691E-02  0.9478E-04  0.2049E+02
   -0.849995   31.48796  0.8702E-13  0.1695E-04  0.4984E-07  0.1722E-02  0.8961E-04  0.2180E+02
   -0.899997   31.48857  0.8702E-13  0.1700E-04  0.4951E-07  0.1744E-02  0.8475E-04  0.2302E+02
   -0.949999   31.48916  0.8702E-13  0.1703E-04  0.4930E-07  0.1758E-02  0.8016E-04  0.2498E+02
   -1.000000   31.48975  0.8702E-13  0.1703E-04  0.4921E-07  0.1762E-02  0.7581E-04  0.2691E+02
   -1.050002   31.49032  0.8702E-13  0.1700E-04  0.4926E-07  0.1755E-02  0.7167E-04  0.3091E+02
   -1.100004   31.49090  0.8702E-13  0.1695E-04  0.4945E-07  0.1874E-02  0.6772E-04  0.9796E+02
   -1.150005   31.49144  0.8702E-13  0.1687E-04  0.4983E-07  0.1614E-02  0.6425E-04  0.2549E+03
   -1.200007   31.49206  0.8702E-13  0.1676E-04  0.5037E-07  0.1665E-02  0.6047E-04  0.4679E+02
   -1.250008   31.49266  0.8702E-13  0.1662E-04  0.5115E-07  0.1629E-02  0.5693E-04  0.4989E+02
   -1.300009   31.49327  0.8702E-13  0.1645E-04  0.5224E-07  0.1566E-02  0.5351E-04  0.6012E+02
   -1.350011   31.49390  0.8702E-13  0.1623E-04  0.5372E-07  0.1499E-02  0.5017E-04  0.7347E+02
   -1.400012   31.49457  0.8702E-13  0.1597E-04  0.5575E-07  0.1401E-02  0.4691E-04  0.9524E+02
   -1.450012   31.49528  0.8702E-13  0.1564E-04  0.5856E-07  0.1327E-02  0.4367E-04  0.1263E+03
   -1.500013   31.49605  0.8702E-13  0.1525E-04  0.6259E-07  0.1189E-02  0.4049E-04  0.1877E+03
   -1.550013   31.49694  0.8702E-13  0.1476E-04  0.6844E-07  0.1130E-02  0.3719E-04  0.2932E+03
   -1.600013   31.49788  0.8702E-13  0.1414E-04  0.7830E-07  0.9639E-03  0.3405E-04  0.1058E+04
   -1.650013   31.49927  0.8702E-13  0.1330E-04  0.9328E-07  0.9029E-03  0.3027E-04  0.9105E+04
   -1.700012   31.50071  0.8702E-13  0.1213E-04  0.1208E-06  0.7000E-03  0.2676E-04 -0.3616E+05
   -1.750011   31.50412  0.8702E-13  0.1074E-04  0.1653E-06  0.6509E-03  0.2124E-04  0.4108E+06
   -1.800010   31.50535  0.8702E-13  0.9177E-05  0.2613E-06  0.4236E-03  0.1836E-04  0.4109E+06
   -1.850008   31.51840  0.8702E-13  0.7655E-05  0.4502E-06  0.4269E-03  0.1168E-04  0.4003E+09
   -1.900006   31.51070  0.8702E-13  0.6164E-05  0.9517E-06  0.2000E-03  0.9989E-05  0.8436E+06
   -1.950004   31.53980  0.8702E-13  0.4485E-05  0.2204E-05  0.2393E-03  0.5001E-05 -0.1680E+07
   -2.000000   31.53760  0.8702E-13  0.0000E+00  0.0000E+00  0.0000E+00  0.1135E-04  0.0000E+00
