 1 - depth, m
 2 - temperature, C
 3 - salinity, kg/kg
 4 - turbulent kinetic energy, m**2/s**2
 5 - dissipation rate, m**2/s**3
 6 - kinematic heat conductance, m**2/s
 7 - modulus of horizontal velocity, m/s
 8 - Richardson number, n/d
   -0.000000   30.26095  0.5161E-13  0.5283E-05  0.3385E-06  0.5285E-04  0.2026E-02  0.7410E+04
   -0.049997   30.29420  0.5161E-13  0.8895E-05  0.1506E-06  0.1851E-03  0.1145E-02  0.2706E+03
   -0.099994   30.30646  0.5161E-13  0.1074E-04  0.1039E-06  0.4018E-03  0.8551E-03  0.1338E+02
   -0.149992   30.31009  0.5161E-13  0.1191E-04  0.8685E-07  0.4883E-03  0.7552E-03  0.6613E+01
   -0.199990   30.31294  0.5161E-13  0.1283E-04  0.7691E-07  0.6521E-03  0.6752E-03  0.4227E+01
   -0.249989   30.31501  0.5161E-13  0.1355E-04  0.7042E-07  0.7803E-03  0.6153E-03  0.3103E+01
   -0.299988   30.31668  0.5161E-13  0.1414E-04  0.6581E-07  0.9079E-03  0.5655E-03  0.2468E+01
   -0.349988   30.31809  0.5161E-13  0.1462E-04  0.6235E-07  0.1023E-02  0.5229E-03  0.2099E+01
   -0.399987   30.31931  0.5161E-13  0.1503E-04  0.5966E-07  0.1128E-02  0.4851E-03  0.1875E+01
   -0.449987   30.32039  0.5161E-13  0.1538E-04  0.5747E-07  0.1226E-02  0.4519E-03  0.1761E+01
   -0.499988   30.32136  0.5161E-13  0.1569E-04  0.5566E-07  0.1316E-02  0.4223E-03  0.1727E+01
   -0.549988   30.32225  0.5161E-13  0.1595E-04  0.5413E-07  0.1400E-02  0.3957E-03  0.1700E+01
   -0.599989   30.32307  0.5161E-13  0.1617E-04  0.5285E-07  0.1476E-02  0.3715E-03  0.1707E+01
   -0.649990   30.32383  0.5161E-13  0.1637E-04  0.5177E-07  0.1544E-02  0.3495E-03  0.1713E+01
   -0.699991   30.32455  0.5161E-13  0.1653E-04  0.5085E-07  0.1603E-02  0.3292E-03  0.1752E+01
   -0.749992   30.32523  0.5161E-13  0.1666E-04  0.5010E-07  0.1654E-02  0.3106E-03  0.1791E+01
   -0.799994   30.32589  0.5161E-13  0.1676E-04  0.4947E-07  0.1696E-02  0.2934E-03  0.1868E+01
   -0.849995   30.32652  0.5161E-13  0.1684E-04  0.4898E-07  0.1730E-02  0.2773E-03  0.1950E+01
   -0.899997   30.32713  0.5161E-13  0.1689E-04  0.4860E-07  0.1755E-02  0.2623E-03  0.2079E+01
   -0.949999   30.32772  0.5161E-13  0.1692E-04  0.4834E-07  0.1772E-02  0.2481E-03  0.2216E+01
   -1.000000   30.32831  0.5161E-13  0.1693E-04  0.4819E-07  0.1780E-02  0.2346E-03  0.2412E+01
   -1.050002   30.32888  0.5161E-13  0.1692E-04  0.4817E-07  0.1777E-02  0.2218E-03  0.2722E+01
   -1.100004   30.32946  0.5161E-13  0.1688E-04  0.4828E-07  0.1881E-02  0.2096E-03  0.8876E+01
   -1.150005   30.32999  0.5161E-13  0.1681E-04  0.4855E-07  0.1666E-02  0.1988E-03  0.2182E+02
   -1.200007   30.33060  0.5161E-13  0.1672E-04  0.4898E-07  0.1704E-02  0.1873E-03  0.4038E+01
   -1.250008   30.33118  0.5161E-13  0.1660E-04  0.4962E-07  0.1671E-02  0.1764E-03  0.4333E+01
   -1.300009   30.33178  0.5161E-13  0.1644E-04  0.5052E-07  0.1615E-02  0.1660E-03  0.5106E+01
   -1.350011   30.33239  0.5161E-13  0.1625E-04  0.5175E-07  0.1552E-02  0.1557E-03  0.6237E+01
   -1.400012   30.33303  0.5161E-13  0.1601E-04  0.5344E-07  0.1465E-02  0.1458E-03  0.7847E+01
   -1.450012   30.33371  0.5161E-13  0.1573E-04  0.5576E-07  0.1386E-02  0.1359E-03  0.1032E+02
   -1.500013   30.33444  0.5161E-13  0.1538E-04  0.5905E-07  0.1264E-02  0.1262E-03  0.1463E+02
   -1.550013   30.33524  0.5161E-13  0.1496E-04  0.6379E-07  0.1187E-02  0.1164E-03  0.2238E+02
   -1.600013   30.33612  0.5161E-13  0.1442E-04  0.7137E-07  0.1036E-02  0.1068E-03  0.1689E+05
   -1.650013   30.33728  0.5161E-13  0.1371E-04  0.8328E-07  0.9596E-03  0.9597E-04  0.8066E+03
   -1.700012   30.33858  0.5161E-13  0.1274E-04  0.1046E-06  0.7727E-03  0.8546E-04  0.8204E+04
   -1.750011   30.34112  0.5161E-13  0.1152E-04  0.1390E-06  0.6991E-03  0.7072E-04  0.2929E+05
   -1.800010   30.34269  0.5161E-13  0.1001E-04  0.2127E-06  0.4747E-03  0.6087E-04  0.7330E+06
   -1.850008   30.35209  0.5161E-13  0.8435E-05  0.3551E-06  0.4538E-03  0.4168E-04  0.2593E+09
   -1.900006   30.34840  0.5161E-13  0.6742E-05  0.7474E-06  0.2095E-03  0.3444E-04  0.1120E+07
   -1.950004   30.37293  0.5161E-13  0.4818E-05  0.1785E-05  0.2142E-03  0.1825E-04 -0.7751E+06
   -2.000000   30.37322  0.5161E-13  0.0000E+00  0.0000E+00  0.0000E+00  0.3626E-04  0.0000E+00
