 1 - depth, m
 2 - temperature, C
 3 - salinity, kg/kg
 4 - turbulent kinetic energy, m**2/s**2
 5 - dissipation rate, m**2/s**3
 6 - kinematic heat conductance, m**2/s
 7 - modulus of horizontal velocity, m/s
 8 - Richardson number, n/d
   -0.000000   30.29629  0.1622E-13  0.4934E-05  0.3109E-06  0.5072E-04  0.1417E-02  0.4325E+04
   -0.049997   30.32797  0.1622E-13  0.8459E-05  0.1387E-06  0.1801E-03  0.8069E-03  0.5205E+03
   -0.099994   30.34004  0.1622E-13  0.1026E-04  0.9553E-07  0.4017E-03  0.5926E-03  0.2456E+02
   -0.149992   30.34341  0.1622E-13  0.1139E-04  0.8012E-07  0.4839E-03  0.5234E-03  0.1209E+02
   -0.199991   30.34609  0.1622E-13  0.1227E-04  0.7110E-07  0.6471E-03  0.4675E-03  0.7741E+01
   -0.249989   30.34803  0.1622E-13  0.1297E-04  0.6520E-07  0.7733E-03  0.4257E-03  0.5719E+01
   -0.299988   30.34960  0.1622E-13  0.1354E-04  0.6098E-07  0.8997E-03  0.3909E-03  0.4543E+01
   -0.349988   30.35093  0.1622E-13  0.1401E-04  0.5783E-07  0.1014E-02  0.3611E-03  0.3888E+01
   -0.399988   30.35207  0.1622E-13  0.1440E-04  0.5537E-07  0.1118E-02  0.3348E-03  0.3458E+01
   -0.449988   30.35309  0.1622E-13  0.1474E-04  0.5336E-07  0.1215E-02  0.3116E-03  0.3250E+01
   -0.499988   30.35400  0.1622E-13  0.1503E-04  0.5171E-07  0.1304E-02  0.2911E-03  0.3155E+01
   -0.549989   30.35484  0.1622E-13  0.1529E-04  0.5032E-07  0.1386E-02  0.2728E-03  0.3115E+01
   -0.599989   30.35561  0.1622E-13  0.1550E-04  0.4914E-07  0.1460E-02  0.2562E-03  0.3109E+01
   -0.649991   30.35634  0.1622E-13  0.1569E-04  0.4815E-07  0.1526E-02  0.2410E-03  0.3151E+01
   -0.699992   30.35702  0.1622E-13  0.1584E-04  0.4730E-07  0.1584E-02  0.2271E-03  0.3214E+01
   -0.749993   30.35767  0.1622E-13  0.1597E-04  0.4659E-07  0.1635E-02  0.2142E-03  0.3323E+01
   -0.799995   30.35828  0.1622E-13  0.1607E-04  0.4600E-07  0.1678E-02  0.2022E-03  0.3452E+01
   -0.849996   30.35888  0.1622E-13  0.1615E-04  0.4552E-07  0.1713E-02  0.1910E-03  0.3635E+01
   -0.899998   30.35945  0.1622E-13  0.1621E-04  0.4515E-07  0.1740E-02  0.1805E-03  0.3840E+01
   -0.949999   30.36001  0.1622E-13  0.1624E-04  0.4487E-07  0.1759E-02  0.1706E-03  0.4117E+01
   -1.000001   30.36056  0.1622E-13  0.1625E-04  0.4470E-07  0.1769E-02  0.1613E-03  0.4428E+01
   -1.050003   30.36110  0.1622E-13  0.1624E-04  0.4464E-07  0.1770E-02  0.1524E-03  0.5023E+01
   -1.100005   30.36163  0.1622E-13  0.1621E-04  0.4469E-07  0.1861E-02  0.1439E-03  0.1652E+02
   -1.150006   30.36214  0.1622E-13  0.1615E-04  0.4489E-07  0.1679E-02  0.1363E-03  0.3795E+02
   -1.200008   30.36269  0.1622E-13  0.1607E-04  0.4521E-07  0.1709E-02  0.1284E-03  0.7255E+01
   -1.250009   30.36323  0.1622E-13  0.1597E-04  0.4572E-07  0.1678E-02  0.1209E-03  0.7700E+01
   -1.300011   30.36378  0.1622E-13  0.1583E-04  0.4644E-07  0.1627E-02  0.1137E-03  0.9031E+01
   -1.350012   30.36434  0.1622E-13  0.1566E-04  0.4743E-07  0.1567E-02  0.1067E-03  0.1079E+02
   -1.400013   30.36492  0.1622E-13  0.1545E-04  0.4879E-07  0.1488E-02  0.9980E-04  0.1338E+02
   -1.450014   30.36553  0.1622E-13  0.1520E-04  0.5065E-07  0.1410E-02  0.9307E-04  0.1707E+02
   -1.500014   30.36617  0.1622E-13  0.1490E-04  0.5325E-07  0.1295E-02  0.8646E-04  0.2337E+02
   -1.550015   30.36688  0.1622E-13  0.1452E-04  0.5696E-07  0.1211E-02  0.7979E-04  0.3362E+02
   -1.600015   30.36764  0.1622E-13  0.1406E-04  0.6270E-07  0.1065E-02  0.7327E-04  0.7567E+02
   -1.650014   30.36858  0.1622E-13  0.1347E-04  0.7162E-07  0.9857E-03  0.6622E-04  0.8099E+04
   -1.700014   30.36963  0.1622E-13  0.1266E-04  0.8757E-07  0.8024E-03  0.5931E-04 -0.1102E+04
   -1.750013   30.37154  0.1622E-13  0.1159E-04  0.1138E-06  0.7253E-03  0.5009E-04  0.2137E+05
   -1.800012   30.37306  0.1622E-13  0.1016E-04  0.1713E-06  0.5014E-03  0.4300E-04  0.1957E+05
   -1.850010   30.37967  0.1622E-13  0.8593E-05  0.2767E-06  0.4644E-03  0.3049E-04  0.5480E+08
   -1.900008   30.37816  0.1622E-13  0.6782E-05  0.5750E-06  0.2086E-03  0.2483E-04  0.3115E+06
   -1.950005   30.39797  0.1622E-13  0.4767E-05  0.1418E-05  0.1950E-03  0.1323E-04 -0.1111E+07
   -2.000002   30.39912  0.1622E-13  0.0000E+00  0.0000E+00  0.0000E+00  0.2493E-04  0.0000E+00
