 1 - depth, m
 2 - temperature, C
 3 - salinity, kg/kg
 4 - turbulent kinetic energy, m**2/s**2
 5 - dissipation rate, m**2/s**3
 6 - kinematic heat conductance, m**2/s
 7 - modulus of horizontal velocity, m/s
 8 - Richardson number, n/d
   -0.000000   30.96398  0.2440E-14  0.5051E-05  0.3226E-06  0.5077E-04  0.5422E-03  0.7777E+05
   -0.049997   30.99733  0.2440E-14  0.8881E-05  0.1432E-06  0.1884E-03  0.3067E-03  0.9050E+03
   -0.099994   31.00914  0.2440E-14  0.1074E-04  0.9918E-07  0.4240E-03  0.2245E-03  0.1689E+03
   -0.149992   31.01246  0.2440E-14  0.1190E-04  0.8371E-07  0.5004E-03  0.1992E-03  0.8387E+02
   -0.199991   31.01515  0.2440E-14  0.1281E-04  0.7456E-07  0.6697E-03  0.1782E-03  0.5477E+02
   -0.249989   31.01711  0.2440E-14  0.1352E-04  0.6853E-07  0.7981E-03  0.1626E-03  0.4089E+02
   -0.299988   31.01870  0.2440E-14  0.1411E-04  0.6421E-07  0.9264E-03  0.1496E-03  0.3267E+02
   -0.349988   31.02004  0.2440E-14  0.1459E-04  0.6097E-07  0.1042E-02  0.1383E-03  0.2806E+02
   -0.399988   31.02120  0.2440E-14  0.1500E-04  0.5843E-07  0.1148E-02  0.1284E-03  0.2500E+02
   -0.449988   31.02223  0.2440E-14  0.1535E-04  0.5637E-07  0.1246E-02  0.1197E-03  0.2354E+02
   -0.499988   31.02316  0.2440E-14  0.1565E-04  0.5467E-07  0.1336E-02  0.1120E-03  0.2286E+02
   -0.549989   31.02402  0.2440E-14  0.1591E-04  0.5324E-07  0.1418E-02  0.1050E-03  0.2260E+02
   -0.599989   31.02480  0.2440E-14  0.1613E-04  0.5203E-07  0.1492E-02  0.9871E-04  0.2256E+02
   -0.649990   31.02554  0.2440E-14  0.1632E-04  0.5101E-07  0.1558E-02  0.9296E-04  0.2289E+02
   -0.699992   31.02624  0.2440E-14  0.1648E-04  0.5015E-07  0.1617E-02  0.8767E-04  0.2335E+02
   -0.749993   31.02690  0.2440E-14  0.1662E-04  0.4943E-07  0.1667E-02  0.8277E-04  0.2418E+02
   -0.799994   31.02753  0.2440E-14  0.1672E-04  0.4883E-07  0.1709E-02  0.7821E-04  0.2513E+02
   -0.849996   31.02814  0.2440E-14  0.1680E-04  0.4836E-07  0.1744E-02  0.7394E-04  0.2650E+02
   -0.899997   31.02873  0.2440E-14  0.1686E-04  0.4799E-07  0.1769E-02  0.6994E-04  0.2804E+02
   -0.949999   31.02931  0.2440E-14  0.1689E-04  0.4774E-07  0.1786E-02  0.6615E-04  0.3012E+02
   -1.000001   31.02987  0.2440E-14  0.1690E-04  0.4759E-07  0.1795E-02  0.6257E-04  0.3246E+02
   -1.050003   31.03043  0.2440E-14  0.1689E-04  0.4757E-07  0.1793E-02  0.5916E-04  0.3689E+02
   -1.100004   31.03098  0.2440E-14  0.1685E-04  0.4767E-07  0.1895E-02  0.5591E-04  0.1199E+03
   -1.150006   31.03150  0.2440E-14  0.1678E-04  0.4793E-07  0.1685E-02  0.5303E-04  0.2875E+03
   -1.200007   31.03208  0.2440E-14  0.1670E-04  0.4834E-07  0.1723E-02  0.4997E-04  0.5415E+02
   -1.250009   31.03264  0.2440E-14  0.1658E-04  0.4894E-07  0.1690E-02  0.4708E-04  0.5761E+02
   -1.300010   31.03322  0.2440E-14  0.1643E-04  0.4980E-07  0.1636E-02  0.4428E-04  0.6809E+02
   -1.350011   31.03380  0.2440E-14  0.1624E-04  0.5097E-07  0.1572E-02  0.4157E-04  0.8207E+02
   -1.400012   31.03441  0.2440E-14  0.1602E-04  0.5256E-07  0.1489E-02  0.3891E-04  0.1031E+03
   -1.450013   31.03506  0.2440E-14  0.1574E-04  0.5476E-07  0.1406E-02  0.3630E-04  0.1335E+03
   -1.500014   31.03574  0.2440E-14  0.1541E-04  0.5784E-07  0.1291E-02  0.3372E-04  0.1871E+03
   -1.550014   31.03650  0.2440E-14  0.1500E-04  0.6228E-07  0.1204E-02  0.3112E-04  0.2814E+03
   -1.600014   31.03733  0.2440E-14  0.1448E-04  0.6924E-07  0.1060E-02  0.2856E-04  0.6873E+03
   -1.650014   31.03838  0.2440E-14  0.1381E-04  0.8026E-07  0.9726E-03  0.2577E-04  0.3580E+04
   -1.700013   31.03962  0.2440E-14  0.1288E-04  0.9997E-07  0.7939E-03  0.2292E-04  0.1569E+06
   -1.750012   31.04180  0.2440E-14  0.1172E-04  0.1313E-06  0.7122E-03  0.1925E-04  0.6973E+07
   -1.800011   31.04342  0.2440E-14  0.1021E-04  0.2000E-06  0.4899E-03  0.1648E-04  0.1794E+07
   -1.850009   31.05155  0.2440E-14  0.8632E-05  0.3286E-06  0.4606E-03  0.1150E-04  0.2182E+09
   -1.900007   31.04873  0.2440E-14  0.6839E-05  0.6918E-06  0.2062E-03  0.9451E-05  0.6292E+07
   -1.950005   31.07139  0.2440E-14  0.4855E-05  0.1670E-05  0.2082E-03  0.4992E-05 -0.1511E+07
   -2.000002   31.07160  0.2440E-14  0.0000E+00  0.0000E+00  0.0000E+00  0.9733E-05  0.0000E+00
