 1 - depth, m
 2 - temperature, C
 3 - salinity, kg/kg
 4 - turbulent kinetic energy, m**2/s**2
 5 - dissipation rate, m**2/s**3
 6 - kinematic heat conductance, m**2/s
 7 - modulus of horizontal velocity, m/s
 8 - Richardson number, n/d
   -0.000000   31.18822  0.7341E-14  0.5349E-05  0.3522E-06  0.5173E-04  0.9790E-03  0.3101E+05
   -0.049997   31.22352  0.7341E-14  0.9260E-05  0.1565E-06  0.1928E-03  0.5534E-03  0.1932E+03
   -0.099994   31.23604  0.7341E-14  0.1121E-04  0.1083E-06  0.4212E-03  0.4104E-03  0.7562E+02
   -0.149992   31.23963  0.7341E-14  0.1243E-04  0.9095E-07  0.5051E-03  0.3635E-03  0.3743E+02
   -0.199990   31.24249  0.7341E-14  0.1339E-04  0.8079E-07  0.6760E-03  0.3255E-03  0.2427E+02
   -0.249989   31.24456  0.7341E-14  0.1415E-04  0.7415E-07  0.8060E-03  0.2972E-03  0.1789E+02
   -0.299988   31.24624  0.7341E-14  0.1476E-04  0.6941E-07  0.9374E-03  0.2735E-03  0.1433E+02
   -0.349987   31.24766  0.7341E-14  0.1527E-04  0.6587E-07  0.1055E-02  0.2532E-03  0.1214E+02
   -0.399987   31.24888  0.7341E-14  0.1570E-04  0.6311E-07  0.1163E-02  0.2352E-03  0.1089E+02
   -0.449987   31.24997  0.7341E-14  0.1607E-04  0.6087E-07  0.1263E-02  0.2194E-03  0.1010E+02
   -0.499988   31.25096  0.7341E-14  0.1638E-04  0.5902E-07  0.1354E-02  0.2054E-03  0.9898E+01
   -0.549988   31.25186  0.7341E-14  0.1666E-04  0.5747E-07  0.1438E-02  0.1928E-03  0.9628E+01
   -0.599989   31.25269  0.7341E-14  0.1689E-04  0.5617E-07  0.1513E-02  0.1814E-03  0.9720E+01
   -0.649990   31.25347  0.7341E-14  0.1709E-04  0.5507E-07  0.1580E-02  0.1710E-03  0.9692E+01
   -0.699991   31.25420  0.7341E-14  0.1725E-04  0.5415E-07  0.1638E-02  0.1614E-03  0.1002E+02
   -0.749992   31.25490  0.7341E-14  0.1739E-04  0.5339E-07  0.1689E-02  0.1525E-03  0.1018E+02
   -0.799994   31.25557  0.7341E-14  0.1750E-04  0.5276E-07  0.1731E-02  0.1442E-03  0.1074E+02
   -0.849995   31.25621  0.7341E-14  0.1758E-04  0.5226E-07  0.1765E-02  0.1365E-03  0.1112E+02
   -0.899997   31.25683  0.7341E-14  0.1764E-04  0.5189E-07  0.1790E-02  0.1292E-03  0.1194E+02
   -0.949998   31.25744  0.7341E-14  0.1767E-04  0.5164E-07  0.1805E-02  0.1223E-03  0.1260E+02
   -1.000000   31.25804  0.7341E-14  0.1767E-04  0.5152E-07  0.1813E-02  0.1158E-03  0.1380E+02
   -1.050002   31.25863  0.7341E-14  0.1765E-04  0.5153E-07  0.1808E-02  0.1096E-03  0.1542E+02
   -1.100003   31.25922  0.7341E-14  0.1761E-04  0.5168E-07  0.1921E-02  0.1036E-03  0.5030E+02
   -1.150005   31.25977  0.7341E-14  0.1754E-04  0.5202E-07  0.1681E-02  0.9837E-04  0.1254E+03
   -1.200006   31.26040  0.7341E-14  0.1744E-04  0.5253E-07  0.1727E-02  0.9273E-04  0.2286E+02
   -1.250008   31.26101  0.7341E-14  0.1730E-04  0.5327E-07  0.1693E-02  0.8739E-04  0.2462E+02
   -1.300009   31.26162  0.7341E-14  0.1713E-04  0.5431E-07  0.1634E-02  0.8227E-04  0.2886E+02
   -1.350010   31.26226  0.7341E-14  0.1692E-04  0.5573E-07  0.1567E-02  0.7725E-04  0.3547E+02
   -1.400011   31.26292  0.7341E-14  0.1667E-04  0.5767E-07  0.1477E-02  0.7236E-04  0.4460E+02
   -1.450012   31.26363  0.7341E-14  0.1636E-04  0.6036E-07  0.1397E-02  0.6750E-04  0.5927E+02
   -1.500013   31.26438  0.7341E-14  0.1598E-04  0.6419E-07  0.1273E-02  0.6273E-04  0.8495E+02
   -1.550013   31.26523  0.7341E-14  0.1551E-04  0.6977E-07  0.1196E-02  0.5784E-04  0.1381E+03
   -1.600013   31.26616  0.7341E-14  0.1492E-04  0.7884E-07  0.1044E-02  0.5306E-04  0.3800E+03
   -1.650013   31.26744  0.7341E-14  0.1413E-04  0.9302E-07  0.9607E-03  0.4761E-04  0.2223E+04
   -1.700012   31.26889  0.7341E-14  0.1305E-04  0.1181E-06  0.7747E-03  0.4216E-04  0.7866E+04
   -1.750011   31.27167  0.7341E-14  0.1177E-04  0.1580E-06  0.7049E-03  0.3479E-04  0.1516E+07
   -1.800010   31.27307  0.7341E-14  0.1022E-04  0.2450E-06  0.4739E-03  0.3005E-04  0.1237E+06
   -1.850008   31.28383  0.7341E-14  0.8654E-05  0.4142E-06  0.4601E-03  0.2038E-04  0.1814E+09
   -1.900006   31.27871  0.7341E-14  0.6937E-05  0.8741E-06  0.2168E-03  0.1704E-04 -0.4060E+06
   -1.950003   31.30522  0.7341E-14  0.4977E-05  0.2058E-05  0.2255E-03  0.8974E-05 -0.1434E+07
   -2.000000   31.30493  0.7341E-14  0.0000E+00  0.0000E+00  0.0000E+00  0.1825E-04  0.0000E+00
