 1 - depth, m
 2 - temperature, C
 3 - salinity, kg/kg
 4 - turbulent kinetic energy, m**2/s**2
 5 - dissipation rate, m**2/s**3
 6 - kinematic heat conductance, m**2/s
 7 - modulus of horizontal velocity, m/s
 8 - Richardson number, n/d
   -0.000000   30.15350  0.5572E-13  0.6151E-05  0.3262E-06  0.5881E-04  0.4997E-02  0.7152E+00
   -0.049997   30.18272  0.5573E-13  0.9345E-05  0.1376E-06  0.2189E-03  0.2689E-02  0.4964E+01
   -0.099994   30.19069  0.5573E-13  0.1071E-04  0.1005E-06  0.3847E-03  0.2219E-02  0.2507E+01
   -0.149992   30.19419  0.5573E-13  0.1169E-04  0.8553E-07  0.4742E-03  0.2005E-02  0.1470E+01
   -0.199991   30.19690  0.5573E-13  0.1252E-04  0.7649E-07  0.5913E-03  0.1833E-02  0.1313E+01
   -0.249989   30.19901  0.5573E-13  0.1328E-04  0.7001E-07  0.7184E-03  0.1684E-02  0.1427E+01
   -0.299988   30.20070  0.5573E-13  0.1403E-04  0.6489E-07  0.8700E-03  0.1539E-02  0.1546E+01
   -0.349988   30.20206  0.5573E-13  0.1473E-04  0.6071E-07  0.1037E-02  0.1397E-02  0.1659E+01
   -0.399988   30.20318  0.5573E-13  0.1538E-04  0.5728E-07  0.1209E-02  0.1257E-02  0.1672E+01
   -0.449988   30.20412  0.5573E-13  0.1596E-04  0.5447E-07  0.1358E-02  0.1130E-02  0.1650E+01
   -0.499988   30.20494  0.5573E-13  0.1645E-04  0.5219E-07  0.1491E-02  0.1016E-02  0.1623E+01
   -0.549989   30.20567  0.5573E-13  0.1687E-04  0.5036E-07  0.1616E-02  0.9165E-03  0.1589E+01
   -0.599989   30.20633  0.5573E-13  0.1720E-04  0.4889E-07  0.1737E-02  0.8284E-03  0.1555E+01
   -0.649991   30.20693  0.5573E-13  0.1747E-04  0.4773E-07  0.1851E-02  0.7506E-03  0.1521E+01
   -0.699992   30.20749  0.5573E-13  0.1767E-04  0.4683E-07  0.1954E-02  0.6819E-03  0.1486E+01
   -0.749993   30.20802  0.5573E-13  0.1780E-04  0.4617E-07  0.2036E-02  0.6213E-03  0.1448E+01
   -0.799995   30.20851  0.5573E-13  0.1789E-04  0.4570E-07  0.2091E-02  0.5677E-03  0.1408E+01
   -0.849996   30.20899  0.5573E-13  0.1793E-04  0.4542E-07  0.2119E-02  0.5202E-03  0.1366E+01
   -0.899998   30.20946  0.5573E-13  0.1792E-04  0.4531E-07  0.2122E-02  0.4782E-03  0.1321E+01
   -0.949999   30.20992  0.5573E-13  0.1789E-04  0.4535E-07  0.2108E-02  0.4410E-03  0.1275E+01
   -1.000001   30.21038  0.5573E-13  0.1782E-04  0.4553E-07  0.2079E-02  0.4080E-03  0.1225E+01
   -1.050003   30.21084  0.5573E-13  0.1772E-04  0.4585E-07  0.2013E-02  0.3787E-03  0.1168E+01
   -1.100005   30.21132  0.5573E-13  0.1762E-04  0.4623E-07  0.2233E-02  0.3529E-03  0.2145E+01
   -1.150006   30.21174  0.5573E-13  0.1751E-04  0.4674E-07  0.1772E-02  0.3371E-03  0.5959E+01
   -1.200008   30.21227  0.5573E-13  0.1736E-04  0.4742E-07  0.1899E-02  0.3184E-03  0.1159E+01
   -1.250009   30.21277  0.5573E-13  0.1719E-04  0.4835E-07  0.1839E-02  0.2999E-03  0.1177E+01
   -1.300011   30.21328  0.5573E-13  0.1698E-04  0.4954E-07  0.1761E-02  0.2826E-03  0.1337E+01
   -1.350012   30.21380  0.5573E-13  0.1674E-04  0.5109E-07  0.1683E-02  0.2661E-03  0.1611E+01
   -1.400013   30.21436  0.5573E-13  0.1646E-04  0.5316E-07  0.1577E-02  0.2500E-03  0.2063E+01
   -1.450014   30.21495  0.5573E-13  0.1612E-04  0.5598E-07  0.1480E-02  0.2340E-03  0.2756E+01
   -1.500014   30.21559  0.5573E-13  0.1571E-04  0.5994E-07  0.1346E-02  0.2180E-03  0.4038E+01
   -1.550015   30.21632  0.5573E-13  0.1522E-04  0.6569E-07  0.1255E-02  0.2017E-03  0.1320E+02
   -1.600015   30.21713  0.5573E-13  0.1459E-04  0.7502E-07  0.1095E-02  0.1853E-03 -0.2984E+03
   -1.650014   30.21827  0.5573E-13  0.1376E-04  0.8968E-07  0.1000E-02  0.1662E-03  0.2428E+03
   -1.700014   30.21959  0.5573E-13  0.1263E-04  0.1178E-06  0.8074E-03  0.1469E-03  0.1922E+03
   -1.750013   30.22206  0.5573E-13  0.1136E-04  0.1583E-06  0.7218E-03  0.1208E-03  0.1585E+05
   -1.800012   30.22335  0.5573E-13  0.9774E-05  0.2502E-06  0.4863E-03  0.1044E-03  0.7549E+05
   -1.850010   30.23314  0.5573E-13  0.8252E-05  0.4186E-06  0.4729E-03  0.6991E-04  0.4673E+08
   -1.900008   30.22824  0.5573E-13  0.6559E-05  0.8714E-06  0.2190E-03  0.5895E-04 -0.3904E+06
   -1.950005   30.25257  0.5573E-13  0.4725E-05  0.2026E-05  0.2374E-03  0.3045E-04 -0.4266E+05
   -2.000002   30.25121  0.5573E-13  0.0000E+00  0.0000E+00  0.0000E+00  0.6534E-04  0.0000E+00
