 1 - depth, m
 2 - temperature, C
 3 - salinity, kg/kg
 4 - turbulent kinetic energy, m**2/s**2
 5 - dissipation rate, m**2/s**3
 6 - kinematic heat conductance, m**2/s
 7 - modulus of horizontal velocity, m/s
 8 - Richardson number, n/d
   -0.000000   30.40628  0.4369E-13  0.4780E-05  0.2932E-06  0.4838E-04  0.1019E-02  0.4977E+04
   -0.049997   30.43801  0.4369E-13  0.8306E-05  0.1304E-06  0.1851E-03  0.5674E-03  0.6427E+02
   -0.099994   30.44912  0.4369E-13  0.1004E-04  0.9075E-07  0.4008E-03  0.4212E-03  0.4897E+02
   -0.149992   30.45235  0.4369E-13  0.1114E-04  0.7636E-07  0.4867E-03  0.3721E-03  0.2410E+02
   -0.199991   30.45489  0.4369E-13  0.1199E-04  0.6790E-07  0.6469E-03  0.3326E-03  0.1554E+02
   -0.249989   30.45675  0.4369E-13  0.1267E-04  0.6234E-07  0.7721E-03  0.3030E-03  0.1147E+02
   -0.299988   30.45826  0.4369E-13  0.1322E-04  0.5836E-07  0.8971E-03  0.2783E-03  0.9149E+01
   -0.349988   30.45953  0.4369E-13  0.1368E-04  0.5538E-07  0.1010E-02  0.2571E-03  0.7799E+01
   -0.399988   30.46063  0.4369E-13  0.1406E-04  0.5305E-07  0.1114E-02  0.2384E-03  0.6962E+01
   -0.449988   30.46160  0.4369E-13  0.1439E-04  0.5115E-07  0.1210E-02  0.2219E-03  0.6507E+01
   -0.499988   30.46248  0.4369E-13  0.1468E-04  0.4958E-07  0.1298E-02  0.2073E-03  0.6342E+01
   -0.549989   30.46329  0.4369E-13  0.1493E-04  0.4826E-07  0.1379E-02  0.1942E-03  0.6225E+01
   -0.599990   30.46403  0.4369E-13  0.1514E-04  0.4715E-07  0.1452E-02  0.1824E-03  0.6239E+01
   -0.649991   30.46473  0.4369E-13  0.1532E-04  0.4621E-07  0.1518E-02  0.1716E-03  0.6278E+01
   -0.699992   30.46538  0.4369E-13  0.1547E-04  0.4541E-07  0.1576E-02  0.1616E-03  0.6432E+01
   -0.749993   30.46600  0.4369E-13  0.1560E-04  0.4474E-07  0.1627E-02  0.1524E-03  0.6598E+01
   -0.799995   30.46660  0.4369E-13  0.1571E-04  0.4418E-07  0.1670E-02  0.1439E-03  0.6888E+01
   -0.849996   30.46717  0.4369E-13  0.1579E-04  0.4373E-07  0.1705E-02  0.1359E-03  0.7188E+01
   -0.899998   30.46772  0.4369E-13  0.1585E-04  0.4337E-07  0.1732E-02  0.1284E-03  0.7635E+01
   -0.950000   30.46826  0.4369E-13  0.1588E-04  0.4312E-07  0.1752E-02  0.1214E-03  0.8108E+01
   -1.000001   30.46879  0.4369E-13  0.1590E-04  0.4296E-07  0.1763E-02  0.1147E-03  0.8766E+01
   -1.050003   30.46931  0.4369E-13  0.1590E-04  0.4290E-07  0.1764E-02  0.1084E-03  0.9852E+01
   -1.100005   30.46982  0.4369E-13  0.1587E-04  0.4296E-07  0.1850E-02  0.1023E-03  0.3292E+02
   -1.150006   30.47031  0.4369E-13  0.1582E-04  0.4314E-07  0.1684E-02  0.9691E-04  0.7301E+02
   -1.200008   30.47084  0.4369E-13  0.1575E-04  0.4345E-07  0.1709E-02  0.9130E-04  0.1406E+02
   -1.250009   30.47136  0.4369E-13  0.1565E-04  0.4393E-07  0.1679E-02  0.8594E-04  0.1497E+02
   -1.300011   30.47189  0.4369E-13  0.1553E-04  0.4460E-07  0.1630E-02  0.8079E-04  0.1737E+02
   -1.350012   30.47243  0.4369E-13  0.1537E-04  0.4553E-07  0.1572E-02  0.7578E-04  0.2073E+02
   -1.400013   30.47298  0.4369E-13  0.1518E-04  0.4680E-07  0.1496E-02  0.7091E-04  0.2535E+02
   -1.450014   30.47357  0.4369E-13  0.1495E-04  0.4852E-07  0.1419E-02  0.6612E-04  0.3214E+02
   -1.500014   30.47418  0.4369E-13  0.1467E-04  0.5091E-07  0.1309E-02  0.6143E-04  0.4309E+02
   -1.550015   30.47486  0.4369E-13  0.1433E-04  0.5429E-07  0.1224E-02  0.5671E-04  0.6082E+02
   -1.600015   30.47558  0.4369E-13  0.1390E-04  0.5944E-07  0.1081E-02  0.5208E-04  0.1137E+03
   -1.650015   30.47646  0.4369E-13  0.1335E-04  0.6742E-07  0.9998E-03  0.4714E-04  0.4821E+03
   -1.700014   30.47745  0.4369E-13  0.1261E-04  0.8165E-07  0.8173E-03  0.4229E-04 -0.5119E+04
   -1.750013   30.47916  0.4369E-13  0.1162E-04  0.1052E-06  0.7403E-03  0.3594E-04  0.3706E+06
   -1.800012   30.48066  0.4369E-13  0.1027E-04  0.1575E-06  0.5157E-03  0.3086E-04  0.2415E+05
   -1.850010   30.48639  0.4369E-13  0.8756E-05  0.2506E-06  0.4759E-03  0.2225E-04  0.4321E+08
   -1.900008   30.48543  0.4369E-13  0.6923E-05  0.5218E-06  0.2103E-03  0.1814E-04 -0.3018E+06
   -1.950005   30.50362  0.4369E-13  0.4826E-05  0.1313E-05  0.1867E-03  0.9778E-05 -0.4828E+06
   -2.000002   30.50596  0.4369E-13  0.0000E+00  0.0000E+00  0.0000E+00  0.1772E-04  0.0000E+00
