 1 - depth, m
 2 - temperature, C
 3 - salinity, kg/kg
 4 - turbulent kinetic energy, m**2/s**2
 5 - dissipation rate, m**2/s**3
 6 - kinematic heat conductance, m**2/s
 7 - modulus of horizontal velocity, m/s
 8 - Richardson number, n/d
   -0.000000   30.27036  0.1169E-13  0.4792E-05  0.2972E-06  0.5074E-04  0.1800E-02  0.3634E+04
   -0.049997   30.29966  0.1169E-13  0.8148E-05  0.1324E-06  0.1738E-03  0.1034E-02  0.2026E+04
   -0.099994   30.31136  0.1169E-13  0.9901E-05  0.9056E-07  0.3972E-03  0.7533E-03  0.1436E+02
   -0.149992   30.31453  0.1169E-13  0.1099E-04  0.7591E-07  0.4762E-03  0.6653E-03  0.7009E+01
   -0.199991   30.31707  0.1169E-13  0.1185E-04  0.6735E-07  0.6379E-03  0.5937E-03  0.4488E+01
   -0.249989   30.31892  0.1169E-13  0.1253E-04  0.6176E-07  0.7629E-03  0.5403E-03  0.3309E+01
   -0.299988   30.32042  0.1169E-13  0.1308E-04  0.5778E-07  0.8880E-03  0.4958E-03  0.2631E+01
   -0.349988   30.32167  0.1169E-13  0.1354E-04  0.5481E-07  0.1001E-02  0.4577E-03  0.2249E+01
   -0.399988   30.32277  0.1169E-13  0.1393E-04  0.5250E-07  0.1105E-02  0.4241E-03  0.2004E+01
   -0.449988   30.32373  0.1169E-13  0.1427E-04  0.5063E-07  0.1202E-02  0.3946E-03  0.1881E+01
   -0.499988   30.32461  0.1169E-13  0.1456E-04  0.4908E-07  0.1290E-02  0.3684E-03  0.1830E+01
   -0.549989   30.32541  0.1169E-13  0.1481E-04  0.4779E-07  0.1372E-02  0.3450E-03  0.1805E+01
   -0.599990   30.32615  0.1169E-13  0.1503E-04  0.4671E-07  0.1445E-02  0.3239E-03  0.1806E+01
   -0.649991   30.32684  0.1169E-13  0.1522E-04  0.4580E-07  0.1512E-02  0.3046E-03  0.1828E+01
   -0.699992   30.32749  0.1169E-13  0.1538E-04  0.4503E-07  0.1571E-02  0.2868E-03  0.1870E+01
   -0.749993   30.32811  0.1169E-13  0.1552E-04  0.4439E-07  0.1622E-02  0.2705E-03  0.1931E+01
   -0.799995   30.32870  0.1169E-13  0.1563E-04  0.4387E-07  0.1665E-02  0.2553E-03  0.2013E+01
   -0.849996   30.32927  0.1169E-13  0.1572E-04  0.4345E-07  0.1701E-02  0.2410E-03  0.2116E+01
   -0.899998   30.32982  0.1169E-13  0.1579E-04  0.4312E-07  0.1729E-02  0.2277E-03  0.2243E+01
   -0.949999   30.33036  0.1169E-13  0.1583E-04  0.4290E-07  0.1749E-02  0.2151E-03  0.2401E+01
   -1.000001   30.33089  0.1169E-13  0.1586E-04  0.4278E-07  0.1761E-02  0.2033E-03  0.2591E+01
   -1.050003   30.33141  0.1169E-13  0.1586E-04  0.4275E-07  0.1763E-02  0.1920E-03  0.2937E+01
   -1.100005   30.33193  0.1169E-13  0.1585E-04  0.4284E-07  0.1845E-02  0.1812E-03  0.9806E+01
   -1.150006   30.33241  0.1169E-13  0.1581E-04  0.4306E-07  0.1688E-02  0.1716E-03  0.2171E+02
   -1.200008   30.33295  0.1169E-13  0.1575E-04  0.4340E-07  0.1709E-02  0.1617E-03  0.4218E+01
   -1.250009   30.33347  0.1169E-13  0.1566E-04  0.4391E-07  0.1680E-02  0.1522E-03  0.4495E+01
   -1.300011   30.33400  0.1169E-13  0.1554E-04  0.4462E-07  0.1632E-02  0.1431E-03  0.5249E+01
   -1.350012   30.33455  0.1169E-13  0.1540E-04  0.4558E-07  0.1575E-02  0.1342E-03  0.6258E+01
   -1.400013   30.33511  0.1169E-13  0.1522E-04  0.4687E-07  0.1499E-02  0.1256E-03  0.7697E+01
   -1.450014   30.33570  0.1169E-13  0.1500E-04  0.4862E-07  0.1424E-02  0.1171E-03  0.9746E+01
   -1.500014   30.33633  0.1169E-13  0.1473E-04  0.5103E-07  0.1313E-02  0.1088E-03  0.1314E+02
   -1.550015   30.33701  0.1169E-13  0.1439E-04  0.5442E-07  0.1231E-02  0.1004E-03  0.1850E+02
   -1.600015   30.33774  0.1169E-13  0.1398E-04  0.5956E-07  0.1084E-02  0.9226E-04  0.3497E+02
   -1.650014   30.33864  0.1169E-13  0.1345E-04  0.6742E-07  0.1008E-02  0.8349E-04  0.8207E+02
   -1.700014   30.33962  0.1169E-13  0.1273E-04  0.8146E-07  0.8207E-03  0.7507E-04 -0.7020E+03
   -1.750013   30.34137  0.1169E-13  0.1176E-04  0.1045E-06  0.7496E-03  0.6383E-04  0.9027E+05
   -1.800012   30.34279  0.1169E-13  0.1045E-04  0.1519E-06  0.5241E-03  0.5508E-04  0.1951E+05
   -1.850010   30.34852  0.1169E-13  0.8927E-05  0.2429E-06  0.4801E-03  0.3988E-04  0.4123E+08
   -1.900008   30.34784  0.1169E-13  0.7108E-05  0.4967E-06  0.2200E-03  0.3237E-04 -0.6053E+06
   -1.950005   30.36598  0.1169E-13  0.4929E-05  0.1268E-05  0.1800E-03  0.1768E-04 -0.4122E+06
   -2.000002   30.36906  0.1169E-13  0.0000E+00  0.0000E+00  0.0000E+00  0.3140E-04  0.0000E+00
