 1 - depth, m
 2 - temperature, C
 3 - salinity, kg/kg
 4 - turbulent kinetic energy, m**2/s**2
 5 - dissipation rate, m**2/s**3
 6 - kinematic heat conductance, m**2/s
 7 - modulus of horizontal velocity, m/s
 8 - Richardson number, n/d
   -0.000000   29.19267  0.3555E-13  0.4497E-05  0.2484E-06  0.4754E-04  0.2373E-02  0.1565E+04
   -0.049997   29.21967  0.3555E-13  0.7538E-05  0.1096E-06  0.1812E-03  0.1290E-02  0.3467E+04
   -0.099994   29.22876  0.3555E-13  0.9009E-05  0.7681E-07  0.3763E-03  0.9767E-03  0.8814E+01
   -0.149992   29.23166  0.3555E-13  0.9957E-05  0.6465E-07  0.4657E-03  0.8621E-03  0.4369E+01
   -0.199991   29.23391  0.3555E-13  0.1070E-04  0.5752E-07  0.6103E-03  0.7719E-03  0.2842E+01
   -0.249989   29.23558  0.3555E-13  0.1130E-04  0.5284E-07  0.7287E-03  0.7032E-03  0.2105E+01
   -0.299989   29.23694  0.3555E-13  0.1179E-04  0.4951E-07  0.8404E-03  0.6459E-03  0.1701E+01
   -0.349988   29.23810  0.3555E-13  0.1221E-04  0.4699E-07  0.9430E-03  0.5963E-03  0.1527E+01
   -0.399988   29.23911  0.3555E-13  0.1257E-04  0.4498E-07  0.1046E-02  0.5508E-03  0.1449E+01
   -0.449988   29.24001  0.3555E-13  0.1290E-04  0.4331E-07  0.1147E-02  0.5093E-03  0.1411E+01
   -0.499988   29.24080  0.3555E-13  0.1319E-04  0.4192E-07  0.1241E-02  0.4719E-03  0.1403E+01
   -0.549989   29.24153  0.3555E-13  0.1344E-04  0.4075E-07  0.1327E-02  0.4384E-03  0.1392E+01
   -0.599990   29.24220  0.3555E-13  0.1366E-04  0.3979E-07  0.1406E-02  0.4081E-03  0.1394E+01
   -0.649991   29.24282  0.3555E-13  0.1385E-04  0.3898E-07  0.1476E-02  0.3807E-03  0.1392E+01
   -0.699992   29.24341  0.3555E-13  0.1401E-04  0.3832E-07  0.1537E-02  0.3558E-03  0.1403E+01
   -0.749993   29.24396  0.3555E-13  0.1414E-04  0.3777E-07  0.1589E-02  0.3332E-03  0.1412E+01
   -0.799995   29.24449  0.3555E-13  0.1425E-04  0.3734E-07  0.1632E-02  0.3126E-03  0.1436E+01
   -0.849997   29.24500  0.3555E-13  0.1433E-04  0.3701E-07  0.1666E-02  0.2938E-03  0.1462E+01
   -0.899998   29.24550  0.3555E-13  0.1439E-04  0.3677E-07  0.1691E-02  0.2766E-03  0.1518E+01
   -0.950000   29.24598  0.3555E-13  0.1443E-04  0.3661E-07  0.1708E-02  0.2607E-03  0.1589E+01
   -1.000002   29.24646  0.3555E-13  0.1446E-04  0.3654E-07  0.1717E-02  0.2459E-03  0.1707E+01
   -1.050003   29.24693  0.3555E-13  0.1446E-04  0.3655E-07  0.1717E-02  0.2321E-03  0.1924E+01
   -1.100005   29.24740  0.3555E-13  0.1445E-04  0.3666E-07  0.1800E-02  0.2189E-03  0.6446E+01
   -1.150007   29.24785  0.3555E-13  0.1441E-04  0.3688E-07  0.1638E-02  0.2071E-03  0.1444E+02
   -1.200008   29.24833  0.3555E-13  0.1436E-04  0.3720E-07  0.1661E-02  0.1949E-03  0.2785E+01
   -1.250010   29.24881  0.3555E-13  0.1428E-04  0.3766E-07  0.1632E-02  0.1833E-03  0.2986E+01
   -1.300011   29.24930  0.3555E-13  0.1418E-04  0.3829E-07  0.1585E-02  0.1721E-03  0.3478E+01
   -1.350013   29.24979  0.3555E-13  0.1405E-04  0.3913E-07  0.1528E-02  0.1612E-03  0.4175E+01
   -1.400014   29.25031  0.3555E-13  0.1389E-04  0.4026E-07  0.1456E-02  0.1507E-03  0.5119E+01
   -1.450014   29.25085  0.3555E-13  0.1369E-04  0.4176E-07  0.1380E-02  0.1403E-03  0.6517E+01
   -1.500015   29.25142  0.3555E-13  0.1345E-04  0.4382E-07  0.1275E-02  0.1302E-03  0.8720E+01
   -1.550015   29.25204  0.3555E-13  0.1316E-04  0.4669E-07  0.1191E-02  0.1200E-03  0.1228E+02
   -1.600016   29.25272  0.3555E-13  0.1279E-04  0.5098E-07  0.1052E-02  0.1101E-03  0.2107E+02
   -1.650015   29.25352  0.3555E-13  0.1232E-04  0.5755E-07  0.9745E-03  0.9957E-04  0.2007E+04
   -1.700015   29.25441  0.3555E-13  0.1167E-04  0.6938E-07  0.7967E-03  0.8937E-04 -0.3719E+03
   -1.750014   29.25596  0.3555E-13  0.1079E-04  0.8902E-07  0.7174E-03  0.7606E-04  0.1025E+05
   -1.800013   29.25741  0.3555E-13  0.9570E-05  0.1290E-06  0.5029E-03  0.6508E-04  0.2339E+06
   -1.850011   29.26241  0.3555E-13  0.8153E-05  0.2043E-06  0.4555E-03  0.4715E-04  0.1028E+07
   -1.900009   29.26194  0.3555E-13  0.6487E-05  0.4239E-06  0.2077E-03  0.3811E-04  0.9695E+04
   -1.950006   29.27865  0.3555E-13  0.4477E-05  0.1082E-05  0.1715E-03  0.2075E-04 -0.2729E+06
   -2.000003   29.28137  0.3555E-13  0.0000E+00  0.0000E+00  0.0000E+00  0.3675E-04  0.0000E+00
