 1 - depth, m
 2 - temperature, C
 3 - salinity, kg/kg
 4 - turbulent kinetic energy, m**2/s**2
 5 - dissipation rate, m**2/s**3
 6 - kinematic heat conductance, m**2/s
 7 - modulus of horizontal velocity, m/s
 8 - Richardson number, n/d
   -0.000000   30.69722  0.9025E-14  0.5161E-05  0.3339E-06  0.5275E-04  0.1916E-02  0.3029E+04
   -0.049997   30.72900  0.9025E-14  0.8717E-05  0.1488E-06  0.1777E-03  0.1109E-02  0.2857E+03
   -0.099994   30.74178  0.9025E-14  0.1059E-04  0.1015E-06  0.4055E-03  0.8093E-03  0.1335E+02
   -0.149992   30.74524  0.9025E-14  0.1176E-04  0.8489E-07  0.4843E-03  0.7154E-03  0.6542E+01
   -0.199991   30.74802  0.9025E-14  0.1266E-04  0.7519E-07  0.6508E-03  0.6389E-03  0.4172E+01
   -0.249989   30.75003  0.9025E-14  0.1338E-04  0.6886E-07  0.7780E-03  0.5818E-03  0.3074E+01
   -0.299988   30.75166  0.9025E-14  0.1397E-04  0.6436E-07  0.9062E-03  0.5344E-03  0.2439E+01
   -0.349988   30.75302  0.9025E-14  0.1445E-04  0.6098E-07  0.1022E-02  0.4938E-03  0.2083E+01
   -0.399988   30.75420  0.9025E-14  0.1486E-04  0.5836E-07  0.1128E-02  0.4580E-03  0.1852E+01
   -0.449988   30.75525  0.9025E-14  0.1521E-04  0.5622E-07  0.1226E-02  0.4264E-03  0.1738E+01
   -0.499988   30.75619  0.9025E-14  0.1551E-04  0.5446E-07  0.1316E-02  0.3985E-03  0.1687E+01
   -0.549989   30.75705  0.9025E-14  0.1576E-04  0.5298E-07  0.1398E-02  0.3735E-03  0.1664E+01
   -0.599989   30.75785  0.9025E-14  0.1599E-04  0.5173E-07  0.1473E-02  0.3509E-03  0.1661E+01
   -0.649990   30.75859  0.9025E-14  0.1617E-04  0.5068E-07  0.1540E-02  0.3303E-03  0.1682E+01
   -0.699992   30.75929  0.9025E-14  0.1633E-04  0.4978E-07  0.1599E-02  0.3113E-03  0.1716E+01
   -0.749993   30.75996  0.9025E-14  0.1646E-04  0.4903E-07  0.1650E-02  0.2938E-03  0.1773E+01
   -0.799994   30.76059  0.9025E-14  0.1657E-04  0.4840E-07  0.1693E-02  0.2775E-03  0.1844E+01
   -0.849996   30.76120  0.9025E-14  0.1665E-04  0.4790E-07  0.1728E-02  0.2622E-03  0.1940E+01
   -0.899998   30.76180  0.9025E-14  0.1670E-04  0.4750E-07  0.1755E-02  0.2479E-03  0.2053E+01
   -0.949999   30.76237  0.9025E-14  0.1673E-04  0.4722E-07  0.1773E-02  0.2344E-03  0.2200E+01
   -1.000001   30.76294  0.9025E-14  0.1674E-04  0.4705E-07  0.1783E-02  0.2217E-03  0.2372E+01
   -1.050003   30.76349  0.9025E-14  0.1673E-04  0.4699E-07  0.1782E-02  0.2095E-03  0.2689E+01
   -1.100004   30.76405  0.9025E-14  0.1669E-04  0.4706E-07  0.1879E-02  0.1979E-03  0.8809E+01
   -1.150006   30.76456  0.9025E-14  0.1663E-04  0.4728E-07  0.1682E-02  0.1876E-03  0.2065E+02
   -1.200007   30.76514  0.9025E-14  0.1654E-04  0.4764E-07  0.1716E-02  0.1768E-03  0.3914E+01
   -1.250009   30.76570  0.9025E-14  0.1643E-04  0.4819E-07  0.1685E-02  0.1665E-03  0.4163E+01
   -1.300010   30.76627  0.9025E-14  0.1628E-04  0.4899E-07  0.1632E-02  0.1566E-03  0.4895E+01
   -1.350011   30.76685  0.9025E-14  0.1610E-04  0.5008E-07  0.1570E-02  0.1470E-03  0.5883E+01
   -1.400012   30.76745  0.9025E-14  0.1587E-04  0.5158E-07  0.1488E-02  0.1376E-03  0.7334E+01
   -1.450013   30.76809  0.9025E-14  0.1561E-04  0.5365E-07  0.1408E-02  0.1283E-03  0.9440E+01
   -1.500014   30.76876  0.9025E-14  0.1528E-04  0.5655E-07  0.1292E-02  0.1192E-03  0.1306E+02
   -1.550014   30.76951  0.9025E-14  0.1488E-04  0.6071E-07  0.1208E-02  0.1100E-03  0.1916E+02
   -1.600014   30.77031  0.9025E-14  0.1438E-04  0.6725E-07  0.1061E-02  0.1010E-03  0.5533E+02
   -1.650014   30.77133  0.9025E-14  0.1373E-04  0.7759E-07  0.9791E-03  0.9109E-04  0.7913E+03
   -1.700013   30.77250  0.9025E-14  0.1284E-04  0.9588E-07  0.7965E-03  0.8123E-04 -0.1457E+04
   -1.750013   30.77458  0.9025E-14  0.1171E-04  0.1252E-06  0.7198E-03  0.6825E-04  0.1403E+06
   -1.800011   30.77608  0.9025E-14  0.1024E-04  0.1896E-06  0.4944E-03  0.5877E-04  0.3732E+06
   -1.850010   30.78376  0.9025E-14  0.8650E-05  0.3111E-06  0.4615E-03  0.4106E-04  0.3482E+08
   -1.900007   30.78139  0.9025E-14  0.6828E-05  0.6457E-06  0.2106E-03  0.3369E-04  0.1257E+07
   -1.950005   30.80306  0.9025E-14  0.4827E-05  0.1582E-05  0.2029E-03  0.1779E-04 -0.4663E+06
   -2.000002   30.80386  0.9025E-14  0.0000E+00  0.0000E+00  0.0000E+00  0.3435E-04  0.0000E+00
