 1 - depth, m
 2 - temperature, C
 3 - salinity, kg/kg
 4 - turbulent kinetic energy, m**2/s**2
 5 - dissipation rate, m**2/s**3
 6 - kinematic heat conductance, m**2/s
 7 - modulus of horizontal velocity, m/s
 8 - Richardson number, n/d
   -0.000000   30.20026  0.1470E-13  0.4735E-05  0.2882E-06  0.4979E-04  0.1814E-02  0.4026E+04
   -0.049997   30.22961  0.1470E-13  0.8056E-05  0.1282E-06  0.1757E-03  0.1033E-02  0.1265E+04
   -0.099994   30.24076  0.1470E-13  0.9754E-05  0.8819E-07  0.3928E-03  0.7576E-03  0.1658E+02
   -0.149992   30.24390  0.1470E-13  0.1082E-04  0.7396E-07  0.4745E-03  0.6688E-03  0.8107E+01
   -0.199991   30.24640  0.1470E-13  0.1165E-04  0.6563E-07  0.6328E-03  0.5969E-03  0.5207E+01
   -0.249989   30.24822  0.1470E-13  0.1231E-04  0.6017E-07  0.7569E-03  0.5431E-03  0.3825E+01
   -0.299989   30.24970  0.1470E-13  0.1285E-04  0.5628E-07  0.8803E-03  0.4983E-03  0.3047E+01
   -0.349988   30.25094  0.1470E-13  0.1330E-04  0.5337E-07  0.9922E-03  0.4600E-03  0.2592E+01
   -0.399988   30.25202  0.1470E-13  0.1368E-04  0.5110E-07  0.1095E-02  0.4261E-03  0.2316E+01
   -0.449988   30.25297  0.1470E-13  0.1400E-04  0.4925E-07  0.1190E-02  0.3963E-03  0.2161E+01
   -0.499988   30.25383  0.1470E-13  0.1429E-04  0.4773E-07  0.1278E-02  0.3699E-03  0.2112E+01
   -0.549989   30.25461  0.1470E-13  0.1453E-04  0.4645E-07  0.1358E-02  0.3464E-03  0.2069E+01
   -0.599990   30.25534  0.1470E-13  0.1474E-04  0.4538E-07  0.1431E-02  0.3250E-03  0.2081E+01
   -0.649991   30.25602  0.1470E-13  0.1492E-04  0.4446E-07  0.1497E-02  0.3056E-03  0.2090E+01
   -0.699992   30.25666  0.1470E-13  0.1508E-04  0.4369E-07  0.1555E-02  0.2877E-03  0.2148E+01
   -0.749993   30.25727  0.1470E-13  0.1520E-04  0.4305E-07  0.1606E-02  0.2712E-03  0.2199E+01
   -0.799995   30.25785  0.1470E-13  0.1531E-04  0.4251E-07  0.1649E-02  0.2559E-03  0.2305E+01
   -0.849996   30.25840  0.1470E-13  0.1539E-04  0.4208E-07  0.1685E-02  0.2416E-03  0.2402E+01
   -0.899998   30.25895  0.1470E-13  0.1546E-04  0.4174E-07  0.1713E-02  0.2281E-03  0.2561E+01
   -0.950000   30.25947  0.1470E-13  0.1550E-04  0.4149E-07  0.1733E-02  0.2155E-03  0.2716E+01
   -1.000001   30.25999  0.1470E-13  0.1552E-04  0.4134E-07  0.1745E-02  0.2035E-03  0.2946E+01
   -1.050003   30.26049  0.1470E-13  0.1552E-04  0.4129E-07  0.1748E-02  0.1922E-03  0.3311E+01
   -1.100005   30.26100  0.1470E-13  0.1550E-04  0.4134E-07  0.1828E-02  0.1814E-03  0.1112E+02
   -1.150006   30.26147  0.1470E-13  0.1546E-04  0.4151E-07  0.1676E-02  0.1717E-03  0.2447E+02
   -1.200008   30.26199  0.1470E-13  0.1539E-04  0.4180E-07  0.1697E-02  0.1618E-03  0.4725E+01
   -1.250009   30.26250  0.1470E-13  0.1530E-04  0.4225E-07  0.1668E-02  0.1522E-03  0.5051E+01
   -1.300011   30.26301  0.1470E-13  0.1519E-04  0.4289E-07  0.1621E-02  0.1430E-03  0.5844E+01
   -1.350012   30.26354  0.1470E-13  0.1505E-04  0.4376E-07  0.1565E-02  0.1341E-03  0.6989E+01
   -1.400013   30.26408  0.1470E-13  0.1487E-04  0.4495E-07  0.1492E-02  0.1255E-03  0.8508E+01
   -1.450014   30.26465  0.1470E-13  0.1465E-04  0.4655E-07  0.1415E-02  0.1170E-03  0.1080E+02
   -1.500015   30.26525  0.1470E-13  0.1439E-04  0.4875E-07  0.1310E-02  0.1087E-03  0.1433E+02
   -1.550015   30.26590  0.1470E-13  0.1407E-04  0.5185E-07  0.1220E-02  0.1003E-03  0.2016E+02
   -1.600015   30.26660  0.1470E-13  0.1367E-04  0.5648E-07  0.1084E-02  0.9214E-04  0.3404E+02
   -1.650015   30.26743  0.1470E-13  0.1316E-04  0.6360E-07  0.9966E-03  0.8357E-04  0.8575E+02
   -1.700014   30.26837  0.1470E-13  0.1247E-04  0.7632E-07  0.8241E-03  0.7510E-04  0.7684E+04
   -1.750013   30.26992  0.1470E-13  0.1154E-04  0.9749E-07  0.7337E-03  0.6433E-04  0.1768E+05
   -1.800012   30.27145  0.1470E-13  0.1023E-04  0.1430E-06  0.5224E-03  0.5514E-04 -0.9532E+04
   -1.850010   30.27649  0.1470E-13  0.8740E-05  0.2249E-06  0.4670E-03  0.4051E-04  0.1369E+08
   -1.900008   30.27619  0.1470E-13  0.6869E-05  0.4699E-06  0.2071E-03  0.3260E-04 -0.6897E+05
   -1.950006   30.29351  0.1470E-13  0.4770E-05  0.1177E-05  0.1799E-03  0.1766E-04 -0.2856E+06
   -2.000003   30.29532  0.1470E-13  0.0000E+00  0.0000E+00  0.0000E+00  0.3117E-04  0.0000E+00
