 1 - depth, m
 2 - temperature, C
 3 - salinity, kg/kg
 4 - turbulent kinetic energy, m**2/s**2
 5 - dissipation rate, m**2/s**3
 6 - kinematic heat conductance, m**2/s
 7 - modulus of horizontal velocity, m/s
 8 - Richardson number, n/d
   -0.000000   23.11363  0.1349E-12  0.3189E-05  0.9273E-07  0.7526E-05  0.3170E-01  0.1290E+00
   -0.049997   23.07654  0.1350E-12  0.1472E-05  0.4389E-07  0.2458E-05  0.2610E-01  0.3410E+00
   -0.099995   22.78427  0.1353E-12  0.6014E-07  0.2200E-08  0.1494E-07  0.1798E-01  0.2230E+01
   -0.149993   20.85206  0.1459E-12  0.5915E-09  0.2241E-10  0.2005E-09  0.7968E-02  0.1031E+02
   -0.199991   18.86150  0.1516E-12  0.4419E-11  0.1000E-11  0.1000E-09  0.3462E-02  0.4460E+02
   -0.249990   17.04668  0.1527E-12  0.4419E-11  0.1000E-11  0.1000E-09  0.1498E-02  0.1854E+03
   -0.299989   15.44319  0.1529E-12  0.4419E-11  0.1000E-11  0.1000E-09  0.6397E-03  0.7078E+03
   -0.349989   14.07470  0.1529E-12  0.4419E-11  0.1000E-11  0.1000E-09  0.2543E-03  0.1990E+04
   -0.399989   12.95543  0.1529E-12  0.4419E-11  0.1000E-11  0.1000E-09  0.5655E-04  0.2683E+05
   -0.449989   12.04555  0.1529E-12  0.1131E-09  0.1000E-11  0.1000E-09  0.1043E-04  0.5610E+06
   -0.499990   11.32578  0.1529E-12  0.2433E-08  0.2083E-11  0.1649E-09  0.1883E-05  0.1168E+08
   -0.549990   10.78961  0.1529E-12  0.1180E-07  0.8837E-11  0.9115E-09  0.3320E-06  0.2679E+09
   -0.599991   10.37504  0.1529E-12  0.5067E-07  0.3634E-10  0.5495E-08  0.5717E-07  0.6130E+10
   -0.649993   10.07199  0.1529E-12  0.2034E-06  0.1410E-09  0.3848E-07  0.9559E-08  0.1206E+12
   -0.699994    9.88536  0.1529E-12  0.5739E-06  0.3959E-09  0.6622E-06  0.1410E-08  0.1231E+13
   -0.749995    9.83410  0.1529E-12  0.7311E-06  0.5073E-09  0.2146E-04  0.1721E-09  0.1019E+14
   -0.799997    9.83144  0.1529E-12  0.7961E-06  0.5560E-09  0.7351E-04  0.8773E-10  0.1276E+14
   -0.849999    9.83128  0.1529E-12  0.8500E-06  0.6006E-09  0.1323E-03  0.6484E-10  0.1927E+13
   -0.900001    9.83126  0.1529E-12  0.8976E-06  0.6448E-09  0.2919E-03  0.5011E-10 -0.9729E+12
   -0.950002    9.83128  0.1529E-12  0.9340E-06  0.6822E-09  0.4320E-03  0.4149E-10 -0.5340E+12
   -1.000004    9.83132  0.1529E-12  0.9681E-06  0.7201E-09  0.4268E-03  0.3649E-10 -0.1080E+13
   -1.050006    9.83139  0.1529E-12  0.1006E-05  0.7651E-09  0.4276E-03  0.3196E-10 -0.2458E+13
   -1.100008    9.83148  0.1529E-12  0.1046E-05  0.8169E-09  0.4297E-03  0.2790E-10 -0.5403E+13
   -1.150010    9.83159  0.1529E-12  0.1088E-05  0.8735E-09  0.4526E-03  0.2429E-10 -0.1122E+14
   -1.200012    9.83173  0.1529E-12  0.1130E-05  0.9363E-09  0.4482E-03  0.2125E-10 -0.1354E+14
   -1.250013    9.83189  0.1529E-12  0.1175E-05  0.1008E-08  0.4314E-03  0.1851E-10 -0.1594E+14
   -1.300015    9.83208  0.1529E-12  0.1220E-05  0.1088E-08  0.4296E-03  0.1597E-10 -0.1899E+14
   -1.350016    9.83231  0.1529E-12  0.1265E-05  0.1176E-08  0.4263E-03  0.1371E-10 -0.2170E+14
   -1.400017    9.83257  0.1529E-12  0.1309E-05  0.1273E-08  0.4210E-03  0.1172E-10 -0.2466E+14
   -1.450018    9.83286  0.1529E-12  0.1352E-05  0.1381E-08  0.4132E-03  0.9956E-11 -0.2794E+14
   -1.500019    9.83320  0.1529E-12  0.1392E-05  0.1502E-08  0.4027E-03  0.8400E-11 -0.3165E+14
   -1.550019    9.83357  0.1529E-12  0.1429E-05  0.1640E-08  0.3892E-03  0.7026E-11 -0.3594E+14
   -1.600020    9.83400  0.1529E-12  0.1463E-05  0.1799E-08  0.3720E-03  0.5816E-11 -0.4107E+14
   -1.650020    9.83449  0.1529E-12  0.1492E-05  0.1989E-08  0.3507E-03  0.4751E-11 -0.4742E+14
   -1.700019    9.83506  0.1529E-12  0.1514E-05  0.2223E-08  0.3247E-03  0.3817E-11 -0.5566E+14
   -1.750018    9.83572  0.1529E-12  0.1528E-05  0.2527E-08  0.2930E-03  0.2999E-11 -0.6701E+14
   -1.800017    9.83652  0.1529E-12  0.1530E-05  0.2955E-08  0.2545E-03  0.2287E-11 -0.8414E+14
   -1.850016    9.83752  0.1529E-12  0.1514E-05  0.3635E-08  0.2062E-03  0.1668E-11 -0.1145E+15
   -1.900014    9.83888  0.1529E-12  0.1460E-05  0.4981E-08  0.1553E-03  0.1137E-11 -0.1727E+15
   -1.950011    9.84094  0.1529E-12  0.1060E-05  0.1532E-07  0.1479E-04  0.7241E-12 -0.2281E+16
   -2.000009    9.86804  0.1529E-12  0.0000E+00  0.0000E+00  0.0000E+00  0.7246E-12  0.0000E+00
