 1 - depth, m
 2 - temperature, C
 3 - salinity, kg/kg
 4 - turbulent kinetic energy, m**2/s**2
 5 - dissipation rate, m**2/s**3
 6 - kinematic heat conductance, m**2/s
 7 - modulus of horizontal velocity, m/s
 8 - Richardson number, n/d
   -0.000000   30.53681  0.6285E-14  0.4918E-05  0.3088E-06  0.5029E-04  0.1317E-02  0.6380E+04
   -0.049997   30.56840  0.6285E-14  0.8462E-05  0.1377E-06  0.1822E-03  0.7467E-03  0.3143E+04
   -0.099994   30.58017  0.6285E-14  0.1026E-04  0.9515E-07  0.4021E-03  0.5507E-03  0.2773E+02
   -0.149992   30.58349  0.6285E-14  0.1139E-04  0.7985E-07  0.4860E-03  0.4865E-03  0.1366E+02
   -0.199991   30.58613  0.6285E-14  0.1227E-04  0.7090E-07  0.6493E-03  0.4347E-03  0.8757E+01
   -0.249989   30.58804  0.6285E-14  0.1297E-04  0.6504E-07  0.7758E-03  0.3960E-03  0.6460E+01
   -0.299988   30.58960  0.6285E-14  0.1354E-04  0.6086E-07  0.9025E-03  0.3637E-03  0.5141E+01
   -0.349988   30.59090  0.6285E-14  0.1402E-04  0.5773E-07  0.1017E-02  0.3361E-03  0.4388E+01
   -0.399988   30.59204  0.6285E-14  0.1441E-04  0.5529E-07  0.1122E-02  0.3117E-03  0.3913E+01
   -0.449988   30.59304  0.6285E-14  0.1476E-04  0.5331E-07  0.1219E-02  0.2902E-03  0.3665E+01
   -0.499988   30.59395  0.6285E-14  0.1505E-04  0.5167E-07  0.1308E-02  0.2712E-03  0.3568E+01
   -0.549989   30.59477  0.6285E-14  0.1531E-04  0.5030E-07  0.1390E-02  0.2541E-03  0.3511E+01
   -0.599989   30.59554  0.6285E-14  0.1552E-04  0.4914E-07  0.1464E-02  0.2387E-03  0.3516E+01
   -0.649991   30.59625  0.6285E-14  0.1571E-04  0.4816E-07  0.1530E-02  0.2247E-03  0.3549E+01
   -0.699992   30.59693  0.6285E-14  0.1587E-04  0.4733E-07  0.1589E-02  0.2117E-03  0.3633E+01
   -0.749993   30.59757  0.6285E-14  0.1600E-04  0.4664E-07  0.1640E-02  0.1998E-03  0.3740E+01
   -0.799995   30.59818  0.6285E-14  0.1611E-04  0.4606E-07  0.1683E-02  0.1886E-03  0.3901E+01
   -0.849996   30.59877  0.6285E-14  0.1619E-04  0.4559E-07  0.1719E-02  0.1782E-03  0.4087E+01
   -0.899998   30.59934  0.6285E-14  0.1625E-04  0.4523E-07  0.1746E-02  0.1685E-03  0.4339E+01
   -0.949999   30.59989  0.6285E-14  0.1629E-04  0.4497E-07  0.1765E-02  0.1593E-03  0.4628E+01
   -1.000001   30.60044  0.6285E-14  0.1630E-04  0.4481E-07  0.1775E-02  0.1506E-03  0.5003E+01
   -1.050003   30.60097  0.6285E-14  0.1630E-04  0.4476E-07  0.1776E-02  0.1423E-03  0.5647E+01
   -1.100005   30.60150  0.6285E-14  0.1627E-04  0.4483E-07  0.1867E-02  0.1344E-03  0.1872E+02
   -1.150006   30.60200  0.6285E-14  0.1622E-04  0.4504E-07  0.1688E-02  0.1274E-03  0.4253E+02
   -1.200008   30.60256  0.6285E-14  0.1614E-04  0.4537E-07  0.1716E-02  0.1200E-03  0.8141E+01
   -1.250009   30.60309  0.6285E-14  0.1604E-04  0.4589E-07  0.1686E-02  0.1130E-03  0.8687E+01
   -1.300011   30.60364  0.6285E-14  0.1590E-04  0.4662E-07  0.1636E-02  0.1063E-03  0.1013E+02
   -1.350012   30.60420  0.6285E-14  0.1574E-04  0.4762E-07  0.1575E-02  0.9974E-04  0.1215E+02
   -1.400013   30.60477  0.6285E-14  0.1554E-04  0.4899E-07  0.1498E-02  0.9336E-04  0.1497E+02
   -1.450014   30.60538  0.6285E-14  0.1529E-04  0.5085E-07  0.1417E-02  0.8709E-04  0.1914E+02
   -1.500014   30.60602  0.6285E-14  0.1499E-04  0.5345E-07  0.1307E-02  0.8093E-04  0.2592E+02
   -1.550015   30.60672  0.6285E-14  0.1463E-04  0.5714E-07  0.1218E-02  0.7473E-04  0.3734E+02
   -1.600015   30.60749  0.6285E-14  0.1417E-04  0.6277E-07  0.1078E-02  0.6862E-04  0.7192E+02
   -1.650014   30.60840  0.6285E-14  0.1359E-04  0.7160E-07  0.9914E-03  0.6214E-04 -0.1514E+04
   -1.700014   30.60948  0.6285E-14  0.1279E-04  0.8720E-07  0.8135E-03  0.5559E-04  0.7133E+04
   -1.750013   30.61128  0.6285E-14  0.1174E-04  0.1128E-06  0.7303E-03  0.4724E-04  0.5027E+05
   -1.800012   30.61293  0.6285E-14  0.1032E-04  0.1690E-06  0.5097E-03  0.4043E-04  0.4460E+06
   -1.850010   30.61913  0.6285E-14  0.8754E-05  0.2707E-06  0.4703E-03  0.2899E-04  0.7371E+08
   -1.900008   30.61798  0.6285E-14  0.6907E-05  0.5673E-06  0.2113E-03  0.2357E-04 -0.2060E+06
   -1.950005   30.63756  0.6285E-14  0.4839E-05  0.1409E-05  0.1922E-03  0.1260E-04 -0.1176E+07
   -2.000002   30.63893  0.6285E-14  0.0000E+00  0.0000E+00  0.0000E+00  0.2348E-04  0.0000E+00
