 1 - depth, m
 2 - temperature, C
 3 - salinity, kg/kg
 4 - turbulent kinetic energy, m**2/s**2
 5 - dissipation rate, m**2/s**3
 6 - kinematic heat conductance, m**2/s
 7 - modulus of horizontal velocity, m/s
 8 - Richardson number, n/d
   -0.000000   30.99101  0.1391E-14  0.4931E-05  0.3119E-06  0.5039E-04  0.6067E-03  0.2099E+05
   -0.049997   31.02301  0.1391E-14  0.8672E-05  0.1384E-06  0.1862E-03  0.3440E-03  0.5896E+03
   -0.099994   31.03453  0.1391E-14  0.1050E-04  0.9579E-07  0.4205E-03  0.2510E-03  0.1578E+03
   -0.149992   31.03773  0.1391E-14  0.1165E-04  0.8085E-07  0.4973E-03  0.2225E-03  0.7814E+02
   -0.199991   31.04033  0.1391E-14  0.1254E-04  0.7203E-07  0.6655E-03  0.1991E-03  0.5112E+02
   -0.249989   31.04221  0.1391E-14  0.1325E-04  0.6624E-07  0.7934E-03  0.1816E-03  0.3797E+02
   -0.299988   31.04375  0.1391E-14  0.1383E-04  0.6210E-07  0.9213E-03  0.1670E-03  0.3043E+02
   -0.349988   31.04505  0.1391E-14  0.1431E-04  0.5899E-07  0.1037E-02  0.1544E-03  0.2598E+02
   -0.399987   31.04617  0.1391E-14  0.1472E-04  0.5658E-07  0.1143E-02  0.1433E-03  0.2326E+02
   -0.449988   31.04717  0.1391E-14  0.1507E-04  0.5462E-07  0.1240E-02  0.1336E-03  0.2174E+02
   -0.499988   31.04807  0.1391E-14  0.1537E-04  0.5300E-07  0.1330E-02  0.1249E-03  0.2124E+02
   -0.549988   31.04890  0.1391E-14  0.1564E-04  0.5165E-07  0.1412E-02  0.1171E-03  0.2084E+02
   -0.599989   31.04967  0.1391E-14  0.1586E-04  0.5052E-07  0.1486E-02  0.1101E-03  0.2094E+02
   -0.649990   31.05038  0.1391E-14  0.1606E-04  0.4957E-07  0.1553E-02  0.1037E-03  0.2108E+02
   -0.699991   31.05106  0.1391E-14  0.1622E-04  0.4877E-07  0.1611E-02  0.9775E-04  0.2164E+02
   -0.749993   31.05170  0.1391E-14  0.1636E-04  0.4810E-07  0.1662E-02  0.9229E-04  0.2223E+02
   -0.799994   31.05232  0.1391E-14  0.1647E-04  0.4756E-07  0.1705E-02  0.8719E-04  0.2326E+02
   -0.849996   31.05291  0.1391E-14  0.1656E-04  0.4713E-07  0.1739E-02  0.8243E-04  0.2432E+02
   -0.899997   31.05349  0.1391E-14  0.1663E-04  0.4682E-07  0.1765E-02  0.7796E-04  0.2590E+02
   -0.949999   31.05405  0.1391E-14  0.1667E-04  0.4661E-07  0.1783E-02  0.7374E-04  0.2758E+02
   -1.000001   31.05461  0.1391E-14  0.1669E-04  0.4650E-07  0.1792E-02  0.6974E-04  0.2992E+02
   -1.050002   31.05515  0.1391E-14  0.1669E-04  0.4652E-07  0.1791E-02  0.6594E-04  0.3371E+02
   -1.100004   31.05569  0.1391E-14  0.1666E-04  0.4665E-07  0.1889E-02  0.6230E-04  0.1109E+03
   -1.150006   31.05620  0.1391E-14  0.1661E-04  0.4694E-07  0.1691E-02  0.5908E-04  0.2614E+03
   -1.200007   31.05678  0.1391E-14  0.1654E-04  0.4737E-07  0.1724E-02  0.5568E-04  0.4913E+02
   -1.250009   31.05733  0.1391E-14  0.1643E-04  0.4800E-07  0.1692E-02  0.5245E-04  0.5264E+02
   -1.300010   31.05789  0.1391E-14  0.1630E-04  0.4886E-07  0.1639E-02  0.4934E-04  0.6153E+02
   -1.350011   31.05847  0.1391E-14  0.1613E-04  0.5003E-07  0.1576E-02  0.4631E-04  0.7453E+02
   -1.400012   31.05908  0.1391E-14  0.1592E-04  0.5160E-07  0.1495E-02  0.4336E-04  0.9236E+02
   -1.450013   31.05971  0.1391E-14  0.1566E-04  0.5374E-07  0.1414E-02  0.4044E-04  0.1201E+03
   -1.500014   31.06039  0.1391E-14  0.1535E-04  0.5672E-07  0.1299E-02  0.3758E-04  0.1654E+03
   -1.550014   31.06114  0.1391E-14  0.1496E-04  0.6096E-07  0.1213E-02  0.3469E-04  0.2472E+03
   -1.600014   31.06195  0.1391E-14  0.1448E-04  0.6758E-07  0.1067E-02  0.3185E-04  0.7182E+03
   -1.650014   31.06299  0.1391E-14  0.1384E-04  0.7793E-07  0.9825E-03  0.2874E-04  0.3013E+05
   -1.700013   31.06416  0.1391E-14  0.1298E-04  0.9603E-07  0.8029E-03  0.2567E-04  0.5672E+05
   -1.750012   31.06625  0.1391E-14  0.1187E-04  0.1254E-06  0.7211E-03  0.2163E-04  0.2152E+07
   -1.800011   31.06780  0.1391E-14  0.1042E-04  0.1895E-06  0.5041E-03  0.1861E-04  0.2758E+05
   -1.850009   31.07534  0.1391E-14  0.8836E-05  0.3105E-06  0.4632E-03  0.1317E-04  0.2131E+09
   -1.900007   31.07331  0.1391E-14  0.6977E-05  0.6558E-06  0.2124E-03  0.1072E-04 -0.9521E+06
   -1.950004   31.09501  0.1391E-14  0.4944E-05  0.1600E-05  0.2011E-03  0.5718E-05 -0.3893E+07
   -2.000001   31.09702  0.1391E-14  0.0000E+00  0.0000E+00  0.0000E+00  0.1081E-04  0.0000E+00
