 1 - depth, m
 2 - temperature, C
 3 - salinity, kg/kg
 4 - turbulent kinetic energy, m**2/s**2
 5 - dissipation rate, m**2/s**3
 6 - kinematic heat conductance, m**2/s
 7 - modulus of horizontal velocity, m/s
 8 - Richardson number, n/d
   -0.000000   31.78879  0.1393E-14  0.5321E-05  0.3477E-06  0.5163E-04  0.4939E-03  0.5160E+05
   -0.049997   31.82395  0.1393E-14  0.9359E-05  0.1545E-06  0.1956E-03  0.2791E-03  0.3536E+06
   -0.099994   31.83578  0.1393E-14  0.1129E-04  0.1074E-06  0.4319E-03  0.2059E-03  0.2090E+03
   -0.149992   31.83925  0.1393E-14  0.1252E-04  0.9058E-07  0.5105E-03  0.1829E-03  0.1045E+03
   -0.199990   31.84203  0.1393E-14  0.1347E-04  0.8065E-07  0.6841E-03  0.1639E-03  0.6828E+02
   -0.249989   31.84405  0.1393E-14  0.1423E-04  0.7413E-07  0.8151E-03  0.1497E-03  0.5082E+02
   -0.299988   31.84570  0.1393E-14  0.1484E-04  0.6946E-07  0.9464E-03  0.1378E-03  0.4070E+02
   -0.349988   31.84709  0.1393E-14  0.1535E-04  0.6596E-07  0.1065E-02  0.1276E-03  0.3478E+02
   -0.399987   31.84829  0.1393E-14  0.1578E-04  0.6323E-07  0.1173E-02  0.1186E-03  0.3109E+02
   -0.449987   31.84936  0.1393E-14  0.1615E-04  0.6101E-07  0.1273E-02  0.1107E-03  0.2908E+02
   -0.499988   31.85032  0.1393E-14  0.1647E-04  0.5918E-07  0.1364E-02  0.1036E-03  0.2834E+02
   -0.549988   31.85120  0.1393E-14  0.1674E-04  0.5765E-07  0.1448E-02  0.9732E-04  0.2783E+02
   -0.599989   31.85202  0.1393E-14  0.1697E-04  0.5636E-07  0.1523E-02  0.9158E-04  0.2791E+02
   -0.649990   31.85278  0.1393E-14  0.1717E-04  0.5528E-07  0.1590E-02  0.8634E-04  0.2812E+02
   -0.699991   31.85350  0.1393E-14  0.1734E-04  0.5437E-07  0.1649E-02  0.8151E-04  0.2885E+02
   -0.749992   31.85419  0.1393E-14  0.1748E-04  0.5361E-07  0.1699E-02  0.7704E-04  0.2966E+02
   -0.799994   31.85485  0.1393E-14  0.1759E-04  0.5300E-07  0.1741E-02  0.7286E-04  0.3103E+02
   -0.849995   31.85548  0.1393E-14  0.1767E-04  0.5251E-07  0.1775E-02  0.6896E-04  0.3249E+02
   -0.899997   31.85609  0.1393E-14  0.1773E-04  0.5215E-07  0.1800E-02  0.6528E-04  0.3463E+02
   -0.949998   31.85670  0.1393E-14  0.1776E-04  0.5191E-07  0.1816E-02  0.6182E-04  0.3695E+02
   -1.000000   31.85728  0.1393E-14  0.1777E-04  0.5179E-07  0.1823E-02  0.5852E-04  0.4017E+02
   -1.050002   31.85787  0.1393E-14  0.1775E-04  0.5181E-07  0.1818E-02  0.5539E-04  0.4534E+02
   -1.100003   31.85845  0.1393E-14  0.1771E-04  0.5198E-07  0.1932E-02  0.5239E-04  0.1469E+03
   -1.150005   31.85899  0.1393E-14  0.1764E-04  0.5233E-07  0.1691E-02  0.4975E-04  0.3656E+03
   -1.200007   31.85961  0.1393E-14  0.1754E-04  0.5284E-07  0.1737E-02  0.4690E-04  0.6739E+02
   -1.250008   31.86020  0.1393E-14  0.1741E-04  0.5359E-07  0.1704E-02  0.4421E-04  0.7218E+02
   -1.300009   31.86081  0.1393E-14  0.1725E-04  0.5464E-07  0.1645E-02  0.4162E-04  0.8526E+02
   -1.350010   31.86144  0.1393E-14  0.1704E-04  0.5606E-07  0.1578E-02  0.3909E-04  0.1040E+03
   -1.400011   31.86209  0.1393E-14  0.1679E-04  0.5800E-07  0.1488E-02  0.3661E-04  0.1314E+03
   -1.450012   31.86279  0.1393E-14  0.1648E-04  0.6067E-07  0.1407E-02  0.3416E-04  0.1729E+03
   -1.500013   31.86353  0.1393E-14  0.1611E-04  0.6446E-07  0.1284E-02  0.3175E-04  0.2468E+03
   -1.550013   31.86436  0.1393E-14  0.1565E-04  0.7000E-07  0.1205E-02  0.2929E-04  0.3991E+03
   -1.600013   31.86528  0.1393E-14  0.1506E-04  0.7892E-07  0.1051E-02  0.2685E-04 -0.1730E+03
   -1.650013   31.86651  0.1393E-14  0.1428E-04  0.9288E-07  0.9731E-03  0.2410E-04  0.4272E+05
   -1.700012   31.86792  0.1393E-14  0.1322E-04  0.1177E-06  0.7843E-03  0.2136E-04  0.3129E+06
   -1.750011   31.87056  0.1393E-14  0.1195E-04  0.1568E-06  0.7126E-03  0.1765E-04  0.4290E+07
   -1.800010   31.87205  0.1393E-14  0.1038E-04  0.2420E-06  0.4803E-03  0.1525E-04  0.5243E+06
   -1.850008   31.88213  0.1393E-14  0.8783E-05  0.4068E-06  0.4702E-03  0.1031E-04  0.8827E+10
   -1.900006   31.87783  0.1393E-14  0.7071E-05  0.8505E-06  0.2212E-03  0.8629E-05 -0.3215E+07
   -1.950003   31.90328  0.1393E-14  0.5073E-05  0.2023E-05  0.2229E-03  0.4575E-05 -0.7317E+07
   -2.000000   31.90394  0.1393E-14  0.0000E+00  0.0000E+00  0.0000E+00  0.9278E-05  0.0000E+00
