 1 - depth, m
 2 - temperature, C
 3 - salinity, kg/kg
 4 - turbulent kinetic energy, m**2/s**2
 5 - dissipation rate, m**2/s**3
 6 - kinematic heat conductance, m**2/s
 7 - modulus of horizontal velocity, m/s
 8 - Richardson number, n/d
   -0.000000   30.47408  0.3548E-14  0.5203E-05  0.3047E-06  0.5153E-04  0.2831E-02  0.2466E+04
   -0.049997   30.50423  0.3548E-14  0.8589E-05  0.1331E-06  0.1972E-03  0.1531E-02  0.2025E+02
   -0.099994   30.51389  0.3548E-14  0.1020E-04  0.9376E-07  0.3913E-03  0.1179E-02  0.6034E+01
   -0.149992   30.51716  0.3548E-14  0.1126E-04  0.7877E-07  0.4873E-03  0.1045E-02  0.3103E+01
   -0.199991   30.51968  0.3548E-14  0.1208E-04  0.7001E-07  0.6360E-03  0.9390E-03  0.2028E+01
   -0.249989   30.52156  0.3548E-14  0.1275E-04  0.6429E-07  0.7565E-03  0.8584E-03  0.1523E+01
   -0.299988   30.52309  0.3548E-14  0.1330E-04  0.6022E-07  0.8681E-03  0.7910E-03  0.1274E+01
   -0.349988   30.52440  0.3548E-14  0.1378E-04  0.5708E-07  0.9751E-03  0.7317E-03  0.1235E+01
   -0.399988   30.52554  0.3548E-14  0.1420E-04  0.5452E-07  0.1089E-02  0.6758E-03  0.1242E+01
   -0.449988   30.52654  0.3548E-14  0.1459E-04  0.5237E-07  0.1204E-02  0.6240E-03  0.1255E+01
   -0.499988   30.52742  0.3548E-14  0.1494E-04  0.5056E-07  0.1313E-02  0.5770E-03  0.1263E+01
   -0.549989   30.52822  0.3548E-14  0.1524E-04  0.4905E-07  0.1412E-02  0.5345E-03  0.1263E+01
   -0.599989   30.52895  0.3548E-14  0.1550E-04  0.4780E-07  0.1502E-02  0.4961E-03  0.1257E+01
   -0.649990   30.52962  0.3548E-14  0.1572E-04  0.4676E-07  0.1582E-02  0.4615E-03  0.1249E+01
   -0.699992   30.53025  0.3548E-14  0.1590E-04  0.4591E-07  0.1651E-02  0.4301E-03  0.1235E+01
   -0.749993   30.53085  0.3548E-14  0.1605E-04  0.4522E-07  0.1708E-02  0.4018E-03  0.1219E+01
   -0.799994   30.53142  0.3548E-14  0.1617E-04  0.4469E-07  0.1754E-02  0.3761E-03  0.1201E+01
   -0.849996   30.53197  0.3548E-14  0.1625E-04  0.4429E-07  0.1789E-02  0.3529E-03  0.1187E+01
   -0.899998   30.53250  0.3548E-14  0.1631E-04  0.4401E-07  0.1812E-02  0.3319E-03  0.1180E+01
   -0.949999   30.53303  0.3548E-14  0.1634E-04  0.4384E-07  0.1826E-02  0.3128E-03  0.1194E+01
   -1.000001   30.53354  0.3548E-14  0.1635E-04  0.4378E-07  0.1831E-02  0.2953E-03  0.1237E+01
   -1.050003   30.53405  0.3548E-14  0.1634E-04  0.4382E-07  0.1825E-02  0.2790E-03  0.1365E+01
   -1.100005   30.53455  0.3548E-14  0.1631E-04  0.4398E-07  0.1936E-02  0.2637E-03  0.4395E+01
   -1.150006   30.53503  0.3548E-14  0.1625E-04  0.4428E-07  0.1702E-02  0.2503E-03  0.1054E+02
   -1.200008   30.53557  0.3548E-14  0.1617E-04  0.4471E-07  0.1748E-02  0.2359E-03  0.1984E+01
   -1.250009   30.53609  0.3548E-14  0.1606E-04  0.4532E-07  0.1715E-02  0.2223E-03  0.2114E+01
   -1.300011   30.53661  0.3548E-14  0.1593E-04  0.4615E-07  0.1660E-02  0.2092E-03  0.2492E+01
   -1.350012   30.53716  0.3548E-14  0.1576E-04  0.4727E-07  0.1595E-02  0.1965E-03  0.2998E+01
   -1.400013   30.53772  0.3548E-14  0.1555E-04  0.4877E-07  0.1512E-02  0.1840E-03  0.3745E+01
   -1.450014   30.53832  0.3548E-14  0.1530E-04  0.5080E-07  0.1430E-02  0.1717E-03  0.4820E+01
   -1.500014   30.53896  0.3548E-14  0.1499E-04  0.5362E-07  0.1313E-02  0.1596E-03  0.6666E+01
   -1.550015   30.53966  0.3548E-14  0.1462E-04  0.5763E-07  0.1227E-02  0.1474E-03  0.9833E+01
   -1.600015   30.54042  0.3548E-14  0.1415E-04  0.6384E-07  0.1080E-02  0.1354E-03  0.2586E+02
   -1.650014   30.54137  0.3548E-14  0.1354E-04  0.7353E-07  0.9946E-03  0.1223E-03  0.8280E+03
   -1.700014   30.54248  0.3548E-14  0.1270E-04  0.9057E-07  0.8115E-03  0.1093E-03  0.8294E+04
   -1.750013   30.54442  0.3548E-14  0.1162E-04  0.1180E-06  0.7283E-03  0.9214E-04  0.5367E+05
   -1.800012   30.54592  0.3548E-14  0.1021E-04  0.1781E-06  0.5072E-03  0.7916E-04  0.3068E+05
   -1.850010   30.55284  0.3548E-14  0.8690E-05  0.2896E-06  0.4682E-03  0.5615E-04  0.3503E+07
   -1.900008   30.55100  0.3548E-14  0.6891E-05  0.6055E-06  0.2155E-03  0.4596E-04 -0.2124E+05
   -1.950005   30.57139  0.3548E-14  0.4853E-05  0.1482E-05  0.1979E-03  0.2465E-04 -0.1975E+06
   -2.000002   30.57275  0.3548E-14  0.0000E+00  0.0000E+00  0.0000E+00  0.4644E-04  0.0000E+00
