 1 - depth, m
 2 - temperature, C
 3 - salinity, kg/kg
 4 - turbulent kinetic energy, m**2/s**2
 5 - dissipation rate, m**2/s**3
 6 - kinematic heat conductance, m**2/s
 7 - modulus of horizontal velocity, m/s
 8 - Richardson number, n/d
   -0.000000   30.44948  0.2083E-13  0.4826E-05  0.2981E-06  0.4864E-04  0.1016E-02  0.5170E+04
   -0.049997   30.48145  0.2083E-13  0.8384E-05  0.1326E-06  0.1860E-03  0.5663E-03  0.5684E+02
   -0.099994   30.49268  0.2083E-13  0.1014E-04  0.9220E-07  0.4027E-03  0.4203E-03  0.4930E+02
   -0.149992   30.49593  0.2083E-13  0.1125E-04  0.7757E-07  0.4886E-03  0.3714E-03  0.2430E+02
   -0.199991   30.49849  0.2083E-13  0.1211E-04  0.6897E-07  0.6500E-03  0.3321E-03  0.1567E+02
   -0.249989   30.50036  0.2083E-13  0.1280E-04  0.6332E-07  0.7757E-03  0.3026E-03  0.1157E+02
   -0.299988   30.50189  0.2083E-13  0.1336E-04  0.5929E-07  0.9014E-03  0.2779E-03  0.9234E+01
   -0.349988   30.50317  0.2083E-13  0.1382E-04  0.5626E-07  0.1015E-02  0.2569E-03  0.7875E+01
   -0.399988   30.50428  0.2083E-13  0.1421E-04  0.5390E-07  0.1119E-02  0.2382E-03  0.7035E+01
   -0.449988   30.50526  0.2083E-13  0.1455E-04  0.5198E-07  0.1215E-02  0.2218E-03  0.6576E+01
   -0.499988   30.50615  0.2083E-13  0.1484E-04  0.5039E-07  0.1304E-02  0.2072E-03  0.6416E+01
   -0.549989   30.50697  0.2083E-13  0.1509E-04  0.4906E-07  0.1385E-02  0.1942E-03  0.6297E+01
   -0.599990   30.50772  0.2083E-13  0.1530E-04  0.4794E-07  0.1459E-02  0.1824E-03  0.6319E+01
   -0.649991   30.50842  0.2083E-13  0.1549E-04  0.4699E-07  0.1525E-02  0.1716E-03  0.6360E+01
   -0.699992   30.50908  0.2083E-13  0.1564E-04  0.4618E-07  0.1583E-02  0.1617E-03  0.6524E+01
   -0.749993   30.50971  0.2083E-13  0.1577E-04  0.4551E-07  0.1634E-02  0.1525E-03  0.6695E+01
   -0.799995   30.51031  0.2083E-13  0.1588E-04  0.4495E-07  0.1677E-02  0.1440E-03  0.6998E+01
   -0.849996   30.51089  0.2083E-13  0.1596E-04  0.4449E-07  0.1712E-02  0.1361E-03  0.7309E+01
   -0.899998   30.51145  0.2083E-13  0.1602E-04  0.4414E-07  0.1739E-02  0.1286E-03  0.7774E+01
   -0.949999   30.51200  0.2083E-13  0.1606E-04  0.4389E-07  0.1758E-02  0.1216E-03  0.8264E+01
   -1.000001   30.51253  0.2083E-13  0.1607E-04  0.4373E-07  0.1769E-02  0.1149E-03  0.8950E+01
   -1.050003   30.51306  0.2083E-13  0.1607E-04  0.4369E-07  0.1770E-02  0.1086E-03  0.1006E+02
   -1.100005   30.51358  0.2083E-13  0.1604E-04  0.4375E-07  0.1858E-02  0.1025E-03  0.3345E+02
   -1.150006   30.51408  0.2083E-13  0.1599E-04  0.4395E-07  0.1686E-02  0.9713E-04  0.7606E+02
   -1.200008   30.51462  0.2083E-13  0.1592E-04  0.4428E-07  0.1712E-02  0.9153E-04  0.1448E+02
   -1.250009   30.51515  0.2083E-13  0.1582E-04  0.4478E-07  0.1682E-02  0.8618E-04  0.1547E+02
   -1.300011   30.51568  0.2083E-13  0.1569E-04  0.4549E-07  0.1633E-02  0.8103E-04  0.1797E+02
   -1.350012   30.51623  0.2083E-13  0.1553E-04  0.4646E-07  0.1574E-02  0.7602E-04  0.2159E+02
   -1.400013   30.51680  0.2083E-13  0.1534E-04  0.4777E-07  0.1497E-02  0.7115E-04  0.2653E+02
   -1.450014   30.51739  0.2083E-13  0.1510E-04  0.4957E-07  0.1420E-02  0.6636E-04  0.3392E+02
   -1.500014   30.51802  0.2083E-13  0.1481E-04  0.5207E-07  0.1308E-02  0.6167E-04  0.4605E+02
   -1.550015   30.51871  0.2083E-13  0.1446E-04  0.5561E-07  0.1225E-02  0.5693E-04  0.6583E+02
   -1.600015   30.51944  0.2083E-13  0.1402E-04  0.6109E-07  0.1081E-02  0.5231E-04  0.1317E+03
   -1.650014   30.52036  0.2083E-13  0.1345E-04  0.6958E-07  0.9989E-03  0.4731E-04  0.2093E+04
   -1.700014   30.52137  0.2083E-13  0.1268E-04  0.8459E-07  0.8166E-03  0.4244E-04  0.1451E+03
   -1.750013   30.52319  0.2083E-13  0.1166E-04  0.1093E-06  0.7377E-03  0.3600E-04  0.1618E+06
   -1.800012   30.52468  0.2083E-13  0.1031E-04  0.1630E-06  0.5192E-03  0.3095E-04 -0.2810E+05
   -1.850010   30.53066  0.2083E-13  0.8793E-05  0.2625E-06  0.4707E-03  0.2241E-04  0.4400E+09
   -1.900008   30.52964  0.2083E-13  0.6985E-05  0.5559E-06  0.2220E-03  0.1815E-04 -0.2922E+06
   -1.950005   30.54783  0.2083E-13  0.4868E-05  0.1374E-05  0.1874E-03  0.9909E-05 -0.5966E+07
   -2.000002   30.55120  0.2083E-13  0.0000E+00  0.0000E+00  0.0000E+00  0.1801E-04  0.0000E+00
