 1 - depth, m
 2 - temperature, C
 3 - salinity, kg/kg
 4 - turbulent kinetic energy, m**2/s**2
 5 - dissipation rate, m**2/s**3
 6 - kinematic heat conductance, m**2/s
 7 - modulus of horizontal velocity, m/s
 8 - Richardson number, n/d
   -0.000000   30.80057  0.5332E-14  0.4918E-05  0.3106E-06  0.5014E-04  0.1035E-02  0.3772E+04
   -0.049997   30.83227  0.5332E-14  0.8525E-05  0.1379E-06  0.1841E-03  0.5840E-03  0.4587E+03
   -0.099994   30.84402  0.5332E-14  0.1034E-04  0.9532E-07  0.4083E-03  0.4295E-03  0.4530E+02
   -0.149992   30.84728  0.5332E-14  0.1148E-04  0.8013E-07  0.4909E-03  0.3798E-03  0.2230E+02
   -0.199991   30.84988  0.5332E-14  0.1237E-04  0.7122E-07  0.6560E-03  0.3395E-03  0.1434E+02
   -0.249989   30.85177  0.5332E-14  0.1307E-04  0.6540E-07  0.7829E-03  0.3094E-03  0.1062E+02
   -0.299988   30.85331  0.5332E-14  0.1365E-04  0.6124E-07  0.9106E-03  0.2843E-03  0.8459E+01
   -0.349988   30.85460  0.5332E-14  0.1413E-04  0.5813E-07  0.1026E-02  0.2628E-03  0.7241E+01
   -0.399988   30.85572  0.5332E-14  0.1453E-04  0.5572E-07  0.1131E-02  0.2438E-03  0.6453E+01
   -0.449988   30.85672  0.5332E-14  0.1488E-04  0.5376E-07  0.1229E-02  0.2270E-03  0.6056E+01
   -0.499988   30.85761  0.5332E-14  0.1518E-04  0.5214E-07  0.1319E-02  0.2122E-03  0.5886E+01
   -0.549989   30.85843  0.5332E-14  0.1544E-04  0.5079E-07  0.1401E-02  0.1989E-03  0.5805E+01
   -0.599989   30.85919  0.5332E-14  0.1567E-04  0.4965E-07  0.1476E-02  0.1869E-03  0.5802E+01
   -0.649990   30.85991  0.5332E-14  0.1586E-04  0.4870E-07  0.1542E-02  0.1759E-03  0.5872E+01
   -0.699992   30.86058  0.5332E-14  0.1603E-04  0.4790E-07  0.1601E-02  0.1658E-03  0.6001E+01
   -0.749993   30.86121  0.5332E-14  0.1617E-04  0.4723E-07  0.1653E-02  0.1565E-03  0.6198E+01
   -0.799994   30.86182  0.5332E-14  0.1628E-04  0.4669E-07  0.1696E-02  0.1478E-03  0.6455E+01
   -0.849996   30.86241  0.5332E-14  0.1637E-04  0.4625E-07  0.1732E-02  0.1397E-03  0.6789E+01
   -0.899998   30.86298  0.5332E-14  0.1644E-04  0.4593E-07  0.1759E-02  0.1321E-03  0.7195E+01
   -0.949999   30.86354  0.5332E-14  0.1648E-04  0.4571E-07  0.1778E-02  0.1249E-03  0.7707E+01
   -1.000001   30.86408  0.5332E-14  0.1651E-04  0.4559E-07  0.1788E-02  0.1181E-03  0.8318E+01
   -1.050003   30.86462  0.5332E-14  0.1651E-04  0.4559E-07  0.1789E-02  0.1116E-03  0.9434E+01
   -1.100004   30.86515  0.5332E-14  0.1649E-04  0.4571E-07  0.1880E-02  0.1054E-03  0.3115E+02
   -1.150006   30.86566  0.5332E-14  0.1644E-04  0.4597E-07  0.1699E-02  0.9995E-04  0.7126E+02
   -1.200008   30.86622  0.5332E-14  0.1637E-04  0.4636E-07  0.1728E-02  0.9421E-04  0.1367E+02
   -1.250009   30.86676  0.5332E-14  0.1628E-04  0.4695E-07  0.1697E-02  0.8874E-04  0.1457E+02
   -1.300010   30.86731  0.5332E-14  0.1615E-04  0.4775E-07  0.1646E-02  0.8346E-04  0.1710E+02
   -1.350012   30.86788  0.5332E-14  0.1599E-04  0.4884E-07  0.1586E-02  0.7834E-04  0.2048E+02
   -1.400013   30.86847  0.5332E-14  0.1579E-04  0.5031E-07  0.1506E-02  0.7334E-04  0.2539E+02
   -1.450013   30.86909  0.5332E-14  0.1555E-04  0.5230E-07  0.1427E-02  0.6843E-04  0.3248E+02
   -1.500014   30.86975  0.5332E-14  0.1526E-04  0.5505E-07  0.1314E-02  0.6360E-04  0.4436E+02
   -1.550014   30.87047  0.5332E-14  0.1489E-04  0.5896E-07  0.1228E-02  0.5874E-04  0.6459E+02
   -1.600014   30.87125  0.5332E-14  0.1444E-04  0.6496E-07  0.1082E-02  0.5397E-04  0.1436E+03
   -1.650014   30.87223  0.5332E-14  0.1385E-04  0.7420E-07  0.9989E-03  0.4881E-04  0.6942E+03
   -1.700013   30.87332  0.5332E-14  0.1304E-04  0.9052E-07  0.8159E-03  0.4378E-04  0.6737E+04
   -1.750013   30.87525  0.5332E-14  0.1199E-04  0.1173E-06  0.7377E-03  0.3711E-04  0.1336E+06
   -1.800011   30.87681  0.5332E-14  0.1058E-04  0.1740E-06  0.5133E-03  0.3197E-04  0.3924E+05
   -1.850010   30.88351  0.5332E-14  0.9005E-05  0.2814E-06  0.4707E-03  0.2295E-04  0.5461E+08
   -1.900007   30.88216  0.5332E-14  0.7126E-05  0.5903E-06  0.2150E-03  0.1866E-04 -0.4641E+06
   -1.950005   30.90274  0.5332E-14  0.5012E-05  0.1464E-05  0.1929E-03  0.1010E-04 -0.1148E+07
   -2.000002   30.90436  0.5332E-14  0.0000E+00  0.0000E+00  0.0000E+00  0.1848E-04  0.0000E+00
