 1 - depth, m
 2 - temperature, C
 3 - salinity, kg/kg
 4 - turbulent kinetic energy, m**2/s**2
 5 - dissipation rate, m**2/s**3
 6 - kinematic heat conductance, m**2/s
 7 - modulus of horizontal velocity, m/s
 8 - Richardson number, n/d
   -0.000000   30.58325  0.1371E-14  0.5022E-05  0.3158E-06  0.4929E-04  0.1254E-02  0.6464E+04
   -0.049997   30.61686  0.1371E-14  0.8645E-05  0.1405E-06  0.1880E-03  0.7024E-03  0.5665E+02
   -0.099994   30.62863  0.1371E-14  0.1044E-04  0.9761E-07  0.4023E-03  0.5226E-03  0.3160E+02
   -0.149992   30.63208  0.1371E-14  0.1158E-04  0.8194E-07  0.4902E-03  0.4617E-03  0.1563E+02
   -0.199991   30.63478  0.1371E-14  0.1246E-04  0.7273E-07  0.6518E-03  0.4129E-03  0.1001E+02
   -0.249989   30.63676  0.1371E-14  0.1316E-04  0.6668E-07  0.7778E-03  0.3762E-03  0.7393E+01
   -0.299988   30.63836  0.1371E-14  0.1373E-04  0.6235E-07  0.9043E-03  0.3456E-03  0.5877E+01
   -0.349988   30.63970  0.1371E-14  0.1420E-04  0.5910E-07  0.1018E-02  0.3195E-03  0.5016E+01
   -0.399988   30.64086  0.1371E-14  0.1459E-04  0.5655E-07  0.1122E-02  0.2963E-03  0.4468E+01
   -0.449988   30.64189  0.1371E-14  0.1492E-04  0.5447E-07  0.1219E-02  0.2759E-03  0.4186E+01
   -0.499988   30.64282  0.1371E-14  0.1521E-04  0.5275E-07  0.1308E-02  0.2578E-03  0.4071E+01
   -0.549989   30.64367  0.1371E-14  0.1545E-04  0.5129E-07  0.1389E-02  0.2416E-03  0.4006E+01
   -0.599989   30.64445  0.1371E-14  0.1566E-04  0.5006E-07  0.1462E-02  0.2270E-03  0.4006E+01
   -0.649990   30.64518  0.1371E-14  0.1584E-04  0.4900E-07  0.1528E-02  0.2136E-03  0.4043E+01
   -0.699992   30.64587  0.1371E-14  0.1599E-04  0.4810E-07  0.1586E-02  0.2013E-03  0.4131E+01
   -0.749993   30.64652  0.1371E-14  0.1610E-04  0.4734E-07  0.1636E-02  0.1899E-03  0.4251E+01
   -0.799994   30.64715  0.1371E-14  0.1620E-04  0.4669E-07  0.1679E-02  0.1793E-03  0.4424E+01
   -0.849996   30.64774  0.1371E-14  0.1627E-04  0.4616E-07  0.1713E-02  0.1694E-03  0.4633E+01
   -0.899998   30.64832  0.1371E-14  0.1631E-04  0.4573E-07  0.1740E-02  0.1602E-03  0.4907E+01
   -0.949999   30.64888  0.1371E-14  0.1634E-04  0.4541E-07  0.1758E-02  0.1514E-03  0.5230E+01
   -1.000001   30.64943  0.1371E-14  0.1634E-04  0.4519E-07  0.1768E-02  0.1431E-03  0.5640E+01
   -1.050003   30.64997  0.1371E-14  0.1631E-04  0.4508E-07  0.1768E-02  0.1352E-03  0.6357E+01
   -1.100004   30.65050  0.1371E-14  0.1627E-04  0.4508E-07  0.1863E-02  0.1277E-03  0.2093E+02
   -1.150006   30.65100  0.1371E-14  0.1620E-04  0.4523E-07  0.1671E-02  0.1211E-03  0.4833E+02
   -1.200008   30.65156  0.1371E-14  0.1611E-04  0.4551E-07  0.1704E-02  0.1140E-03  0.9158E+01
   -1.250009   30.65210  0.1371E-14  0.1598E-04  0.4598E-07  0.1673E-02  0.1074E-03  0.9726E+01
   -1.300010   30.65264  0.1371E-14  0.1583E-04  0.4665E-07  0.1622E-02  0.1009E-03  0.1135E+02
   -1.350012   30.65319  0.1371E-14  0.1565E-04  0.4761E-07  0.1561E-02  0.9471E-04  0.1359E+02
   -1.400013   30.65376  0.1371E-14  0.1543E-04  0.4894E-07  0.1482E-02  0.8863E-04  0.1678E+02
   -1.450014   30.65436  0.1371E-14  0.1516E-04  0.5079E-07  0.1401E-02  0.8264E-04  0.2147E+02
   -1.500014   30.65499  0.1371E-14  0.1484E-04  0.5340E-07  0.1289E-02  0.7676E-04  0.2924E+02
   -1.550014   30.65569  0.1371E-14  0.1445E-04  0.5715E-07  0.1202E-02  0.7083E-04  0.4224E+02
   -1.600014   30.65644  0.1371E-14  0.1397E-04  0.6300E-07  0.1062E-02  0.6501E-04  0.9005E+02
   -1.650014   30.65735  0.1371E-14  0.1334E-04  0.7235E-07  0.9756E-03  0.5873E-04  0.3007E+03
   -1.700014   30.65845  0.1371E-14  0.1249E-04  0.8875E-07  0.8004E-03  0.5234E-04 -0.1871E+05
   -1.750013   30.66027  0.1371E-14  0.1140E-04  0.1153E-06  0.7155E-03  0.4414E-04  0.5869E+06
   -1.800012   30.66171  0.1371E-14  0.9943E-05  0.1736E-06  0.4940E-03  0.3787E-04  0.1213E+05
   -1.850010   30.66835  0.1371E-14  0.8378E-05  0.2833E-06  0.4590E-03  0.2650E-04  0.1710E+08
   -1.900008   30.66666  0.1371E-14  0.6584E-05  0.5984E-06  0.2094E-03  0.2160E-04 -0.1726E+06
   -1.950005   30.68593  0.1371E-14  0.4639E-05  0.1466E-05  0.1993E-03  0.1137E-04 -0.1773E+07
   -2.000002   30.68651  0.1371E-14  0.0000E+00  0.0000E+00  0.0000E+00  0.2214E-04  0.0000E+00
