 1 - depth, m
 2 - temperature, C
 3 - salinity, kg/kg
 4 - turbulent kinetic energy, m**2/s**2
 5 - dissipation rate, m**2/s**3
 6 - kinematic heat conductance, m**2/s
 7 - modulus of horizontal velocity, m/s
 8 - Richardson number, n/d
   -0.000000   29.79450  0.1034E-14  0.4850E-05  0.2692E-06  0.4895E-04  0.2786E-02  0.1385E+04
   -0.049997   29.82291  0.1034E-14  0.8010E-05  0.1179E-06  0.1926E-03  0.1493E-02  0.1199E+02
   -0.099994   29.83179  0.1034E-14  0.9498E-05  0.8338E-07  0.3797E-03  0.1151E-02  0.5997E+01
   -0.149992   29.83485  0.1034E-14  0.1047E-04  0.7015E-07  0.4754E-03  0.1018E-02  0.3077E+01
   -0.199991   29.83719  0.1034E-14  0.1123E-04  0.6239E-07  0.6182E-03  0.9142E-03  0.2017E+01
   -0.249989   29.83894  0.1034E-14  0.1185E-04  0.5731E-07  0.7365E-03  0.8346E-03  0.1510E+01
   -0.299989   29.84038  0.1034E-14  0.1236E-04  0.5369E-07  0.8431E-03  0.7682E-03  0.1249E+01
   -0.349988   29.84160  0.1034E-14  0.1280E-04  0.5090E-07  0.9445E-03  0.7102E-03  0.1228E+01
   -0.399988   29.84266  0.1034E-14  0.1319E-04  0.4862E-07  0.1056E-02  0.6554E-03  0.1247E+01
   -0.449988   29.84360  0.1034E-14  0.1355E-04  0.4668E-07  0.1168E-02  0.6044E-03  0.1260E+01
   -0.499988   29.84443  0.1034E-14  0.1387E-04  0.4505E-07  0.1273E-02  0.5581E-03  0.1268E+01
   -0.549989   29.84517  0.1034E-14  0.1415E-04  0.4369E-07  0.1370E-02  0.5164E-03  0.1267E+01
   -0.599990   29.84585  0.1034E-14  0.1440E-04  0.4255E-07  0.1458E-02  0.4788E-03  0.1262E+01
   -0.649991   29.84648  0.1034E-14  0.1460E-04  0.4161E-07  0.1536E-02  0.4447E-03  0.1253E+01
   -0.699992   29.84707  0.1034E-14  0.1477E-04  0.4083E-07  0.1604E-02  0.4140E-03  0.1239E+01
   -0.749993   29.84763  0.1034E-14  0.1491E-04  0.4019E-07  0.1661E-02  0.3863E-03  0.1223E+01
   -0.799995   29.84816  0.1034E-14  0.1502E-04  0.3969E-07  0.1708E-02  0.3612E-03  0.1202E+01
   -0.849996   29.84867  0.1034E-14  0.1510E-04  0.3931E-07  0.1743E-02  0.3385E-03  0.1179E+01
   -0.899998   29.84917  0.1034E-14  0.1516E-04  0.3903E-07  0.1768E-02  0.3180E-03  0.1159E+01
   -0.950000   29.84965  0.1034E-14  0.1519E-04  0.3885E-07  0.1784E-02  0.2995E-03  0.1159E+01
   -1.000002   29.85012  0.1034E-14  0.1521E-04  0.3876E-07  0.1790E-02  0.2825E-03  0.1195E+01
   -1.050003   29.85059  0.1034E-14  0.1520E-04  0.3876E-07  0.1788E-02  0.2668E-03  0.1324E+01
   -1.100005   29.85106  0.1034E-14  0.1518E-04  0.3886E-07  0.1883E-02  0.2520E-03  0.4369E+01
   -1.150007   29.85150  0.1034E-14  0.1513E-04  0.3907E-07  0.1692E-02  0.2389E-03  0.9926E+01
   -1.200008   29.85198  0.1034E-14  0.1506E-04  0.3939E-07  0.1725E-02  0.2251E-03  0.1904E+01
   -1.250010   29.85246  0.1034E-14  0.1497E-04  0.3985E-07  0.1694E-02  0.2119E-03  0.2026E+01
   -1.300011   29.85294  0.1034E-14  0.1486E-04  0.4050E-07  0.1645E-02  0.1992E-03  0.2360E+01
   -1.350012   29.85343  0.1034E-14  0.1471E-04  0.4136E-07  0.1586E-02  0.1869E-03  0.2815E+01
   -1.400013   29.85394  0.1034E-14  0.1454E-04  0.4252E-07  0.1510E-02  0.1750E-03  0.3448E+01
   -1.450014   29.85447  0.1034E-14  0.1433E-04  0.4408E-07  0.1431E-02  0.1632E-03  0.4364E+01
   -1.500015   29.85503  0.1034E-14  0.1407E-04  0.4621E-07  0.1324E-02  0.1517E-03  0.5824E+01
   -1.550015   29.85565  0.1034E-14  0.1376E-04  0.4919E-07  0.1233E-02  0.1401E-03  0.8179E+01
   -1.600015   29.85631  0.1034E-14  0.1337E-04  0.5363E-07  0.1094E-02  0.1287E-03  0.1405E+02
   -1.650015   29.85709  0.1034E-14  0.1288E-04  0.6044E-07  0.1005E-02  0.1168E-03  0.9250E+02
   -1.700015   29.85798  0.1034E-14  0.1222E-04  0.7242E-07  0.8303E-03  0.1049E-03 -0.1652E+04
   -1.750014   29.85943  0.1034E-14  0.1132E-04  0.9230E-07  0.7429E-03  0.9007E-04  0.4086E+04
   -1.800012   29.86083  0.1034E-14  0.1006E-04  0.1355E-06  0.5226E-03  0.7736E-04  0.1278E+04
   -1.850011   29.86560  0.1034E-14  0.8599E-05  0.2133E-06  0.4751E-03  0.5690E-04  0.4131E+06
   -1.900009   29.86534  0.1034E-14  0.6784E-05  0.4443E-06  0.2135E-03  0.4584E-04  0.4532E+05
   -1.950006   29.88140  0.1034E-14  0.4680E-05  0.1127E-05  0.1757E-03  0.2498E-04 -0.1584E+06
   -2.000003   29.88393  0.1034E-14  0.0000E+00  0.0000E+00  0.0000E+00  0.4387E-04  0.0000E+00
