 1 - depth, m
 2 - temperature, C
 3 - salinity, kg/kg
 4 - turbulent kinetic energy, m**2/s**2
 5 - dissipation rate, m**2/s**3
 6 - kinematic heat conductance, m**2/s
 7 - modulus of horizontal velocity, m/s
 8 - Richardson number, n/d
   -0.000000   30.55700  0.8328E-13  0.4809E-05  0.2966E-06  0.5010E-04  0.1520E-02  0.6464E+04
   -0.049997   30.58773  0.8328E-13  0.8218E-05  0.1326E-06  0.1762E-03  0.8666E-03  0.1434E+04
   -0.099994   30.59941  0.8328E-13  0.9953E-05  0.9131E-07  0.3942E-03  0.6363E-03  0.2106E+02
   -0.149992   30.60270  0.8328E-13  0.1104E-04  0.7656E-07  0.4754E-03  0.5615E-03  0.1027E+02
   -0.199991   30.60530  0.8328E-13  0.1188E-04  0.6790E-07  0.6345E-03  0.5011E-03  0.6579E+01
   -0.249989   30.60719  0.8328E-13  0.1255E-04  0.6220E-07  0.7589E-03  0.4559E-03  0.4843E+01
   -0.299988   30.60872  0.8328E-13  0.1309E-04  0.5813E-07  0.8824E-03  0.4183E-03  0.3842E+01
   -0.349988   30.61000  0.8328E-13  0.1353E-04  0.5506E-07  0.9945E-03  0.3861E-03  0.3278E+01
   -0.399988   30.61110  0.8328E-13  0.1391E-04  0.5266E-07  0.1097E-02  0.3577E-03  0.2913E+01
   -0.449988   30.61208  0.8328E-13  0.1423E-04  0.5070E-07  0.1192E-02  0.3326E-03  0.2731E+01
   -0.499988   30.61296  0.8328E-13  0.1450E-04  0.4907E-07  0.1280E-02  0.3105E-03  0.2650E+01
   -0.549989   30.61376  0.8328E-13  0.1474E-04  0.4770E-07  0.1360E-02  0.2906E-03  0.2611E+01
   -0.599990   30.61450  0.8328E-13  0.1494E-04  0.4653E-07  0.1433E-02  0.2727E-03  0.2604E+01
   -0.649991   30.61519  0.8328E-13  0.1511E-04  0.4554E-07  0.1498E-02  0.2564E-03  0.2633E+01
   -0.699992   30.61584  0.8328E-13  0.1525E-04  0.4469E-07  0.1556E-02  0.2414E-03  0.2683E+01
   -0.749993   30.61646  0.8328E-13  0.1537E-04  0.4396E-07  0.1607E-02  0.2275E-03  0.2767E+01
   -0.799995   30.61705  0.8328E-13  0.1546E-04  0.4335E-07  0.1650E-02  0.2146E-03  0.2871E+01
   -0.849996   30.61761  0.8328E-13  0.1554E-04  0.4285E-07  0.1685E-02  0.2026E-03  0.3013E+01
   -0.899998   30.61815  0.8328E-13  0.1559E-04  0.4244E-07  0.1713E-02  0.1913E-03  0.3179E+01
   -0.949999   30.61868  0.8328E-13  0.1561E-04  0.4213E-07  0.1733E-02  0.1807E-03  0.3395E+01
   -1.000001   30.61919  0.8328E-13  0.1562E-04  0.4191E-07  0.1745E-02  0.1707E-03  0.3647E+01
   -1.050003   30.61970  0.8328E-13  0.1561E-04  0.4180E-07  0.1747E-02  0.1611E-03  0.4120E+01
   -1.100005   30.62020  0.8328E-13  0.1558E-04  0.4178E-07  0.1829E-02  0.1521E-03  0.1369E+02
   -1.150006   30.62067  0.8328E-13  0.1552E-04  0.4190E-07  0.1672E-02  0.1439E-03  0.3036E+02
   -1.200008   30.62119  0.8328E-13  0.1544E-04  0.4213E-07  0.1695E-02  0.1356E-03  0.5866E+01
   -1.250009   30.62169  0.8328E-13  0.1534E-04  0.4252E-07  0.1666E-02  0.1276E-03  0.6207E+01
   -1.300011   30.62219  0.8328E-13  0.1521E-04  0.4310E-07  0.1619E-02  0.1199E-03  0.7226E+01
   -1.350012   30.62271  0.8328E-13  0.1505E-04  0.4392E-07  0.1563E-02  0.1124E-03  0.8573E+01
   -1.400013   30.62324  0.8328E-13  0.1486E-04  0.4505E-07  0.1489E-02  0.1051E-03  0.1050E+02
   -1.450014   30.62379  0.8328E-13  0.1463E-04  0.4660E-07  0.1413E-02  0.9800E-04  0.1324E+02
   -1.500014   30.62437  0.8328E-13  0.1435E-04  0.4877E-07  0.1305E-02  0.9102E-04  0.1773E+02
   -1.550015   30.62500  0.8328E-13  0.1401E-04  0.5185E-07  0.1221E-02  0.8402E-04  0.2478E+02
   -1.600015   30.62569  0.8328E-13  0.1360E-04  0.5652E-07  0.1077E-02  0.7717E-04  0.4285E+02
   -1.650014   30.62649  0.8328E-13  0.1308E-04  0.6372E-07  0.1002E-02  0.6990E-04  0.4816E+04
   -1.700014   30.62739  0.8328E-13  0.1236E-04  0.7682E-07  0.8174E-03  0.6286E-04  0.1286E+05
   -1.750013   30.62897  0.8328E-13  0.1140E-04  0.9856E-07  0.7402E-03  0.5351E-04  0.1787E+06
   -1.800012   30.63037  0.8328E-13  0.1009E-04  0.1430E-06  0.5202E-03  0.4597E-04  0.2956E+04
   -1.850010   30.63539  0.8328E-13  0.8596E-05  0.2266E-06  0.4720E-03  0.3343E-04  0.4768E+07
   -1.900008   30.63482  0.8328E-13  0.6797E-05  0.4656E-06  0.2144E-03  0.2711E-04 -0.6266E+05
   -1.950005   30.65147  0.8328E-13  0.4718E-05  0.1189E-05  0.1795E-03  0.1472E-04 -0.2134E+06
   -2.000002   30.65357  0.8328E-13  0.0000E+00  0.0000E+00  0.0000E+00  0.2627E-04  0.0000E+00
