 1 - depth, m
 2 - temperature, C
 3 - salinity, kg/kg
 4 - turbulent kinetic energy, m**2/s**2
 5 - dissipation rate, m**2/s**3
 6 - kinematic heat conductance, m**2/s
 7 - modulus of horizontal velocity, m/s
 8 - Richardson number, n/d
   -0.000000   30.56388  0.1435E-13  0.4809E-05  0.2964E-06  0.5073E-04  0.1871E-02  0.3069E+04
   -0.049997   30.59290  0.1435E-13  0.8168E-05  0.1318E-06  0.1760E-03  0.1065E-02  0.2473E+04
   -0.099994   30.60418  0.1435E-13  0.9905E-05  0.9046E-07  0.3964E-03  0.7804E-03  0.1411E+02
   -0.149992   30.60732  0.1435E-13  0.1100E-04  0.7582E-07  0.4775E-03  0.6888E-03  0.6917E+01
   -0.199991   30.60981  0.1435E-13  0.1185E-04  0.6728E-07  0.6385E-03  0.6147E-03  0.4434E+01
   -0.249989   30.61163  0.1435E-13  0.1253E-04  0.6170E-07  0.7639E-03  0.5594E-03  0.3276E+01
   -0.299988   30.61311  0.1435E-13  0.1308E-04  0.5774E-07  0.8890E-03  0.5134E-03  0.2605E+01
   -0.349988   30.61435  0.1435E-13  0.1355E-04  0.5478E-07  0.1002E-02  0.4739E-03  0.2233E+01
   -0.399988   30.61543  0.1435E-13  0.1394E-04  0.5249E-07  0.1106E-02  0.4392E-03  0.1987E+01
   -0.449988   30.61638  0.1435E-13  0.1428E-04  0.5063E-07  0.1203E-02  0.4085E-03  0.1872E+01
   -0.499988   30.61724  0.1435E-13  0.1457E-04  0.4910E-07  0.1292E-02  0.3814E-03  0.1820E+01
   -0.549989   30.61803  0.1435E-13  0.1483E-04  0.4782E-07  0.1374E-02  0.3571E-03  0.1802E+01
   -0.599989   30.61876  0.1435E-13  0.1505E-04  0.4675E-07  0.1448E-02  0.3352E-03  0.1799E+01
   -0.649990   30.61945  0.1435E-13  0.1525E-04  0.4586E-07  0.1515E-02  0.3152E-03  0.1826E+01
   -0.699992   30.62009  0.1435E-13  0.1541E-04  0.4511E-07  0.1574E-02  0.2968E-03  0.1862E+01
   -0.749993   30.62070  0.1435E-13  0.1555E-04  0.4449E-07  0.1625E-02  0.2799E-03  0.1928E+01
   -0.799994   30.62129  0.1435E-13  0.1567E-04  0.4399E-07  0.1669E-02  0.2641E-03  0.2005E+01
   -0.849996   30.62185  0.1435E-13  0.1576E-04  0.4359E-07  0.1704E-02  0.2494E-03  0.2116E+01
   -0.899998   30.62240  0.1435E-13  0.1583E-04  0.4329E-07  0.1732E-02  0.2356E-03  0.2240E+01
   -0.949999   30.62293  0.1435E-13  0.1588E-04  0.4309E-07  0.1752E-02  0.2227E-03  0.2407E+01
   -1.000001   30.62346  0.1435E-13  0.1591E-04  0.4299E-07  0.1764E-02  0.2104E-03  0.2595E+01
   -1.050003   30.62398  0.1435E-13  0.1592E-04  0.4300E-07  0.1766E-02  0.1987E-03  0.2953E+01
   -1.100005   30.62449  0.1435E-13  0.1591E-04  0.4311E-07  0.1848E-02  0.1876E-03  0.9810E+01
   -1.150006   30.62498  0.1435E-13  0.1588E-04  0.4336E-07  0.1691E-02  0.1777E-03  0.2203E+02
   -1.200008   30.62552  0.1435E-13  0.1582E-04  0.4373E-07  0.1712E-02  0.1674E-03  0.4272E+01
   -1.250009   30.62604  0.1435E-13  0.1574E-04  0.4428E-07  0.1682E-02  0.1576E-03  0.4553E+01
   -1.300011   30.62658  0.1435E-13  0.1563E-04  0.4503E-07  0.1634E-02  0.1481E-03  0.5346E+01
   -1.350012   30.62712  0.1435E-13  0.1549E-04  0.4603E-07  0.1577E-02  0.1390E-03  0.6385E+01
   -1.400013   30.62769  0.1435E-13  0.1531E-04  0.4737E-07  0.1501E-02  0.1300E-03  0.7910E+01
   -1.450014   30.62829  0.1435E-13  0.1510E-04  0.4917E-07  0.1424E-02  0.1213E-03  0.1005E+02
   -1.500014   30.62892  0.1435E-13  0.1483E-04  0.5165E-07  0.1315E-02  0.1127E-03  0.1368E+02
   -1.550015   30.62961  0.1435E-13  0.1450E-04  0.5511E-07  0.1229E-02  0.1040E-03  0.1946E+02
   -1.600015   30.63036  0.1435E-13  0.1409E-04  0.6034E-07  0.1086E-02  0.9558E-04  0.3784E+02
   -1.650014   30.63126  0.1435E-13  0.1356E-04  0.6833E-07  0.1004E-02  0.8658E-04  0.9304E+02
   -1.700014   30.63227  0.1435E-13  0.1284E-04  0.8251E-07  0.8240E-03  0.7783E-04 -0.1498E+03
   -1.750013   30.63401  0.1435E-13  0.1187E-04  0.1060E-06  0.7407E-03  0.6642E-04  0.1062E+05
   -1.800012   30.63558  0.1435E-13  0.1054E-04  0.1549E-06  0.5249E-03  0.5711E-04  0.5273E+04
   -1.850010   30.64135  0.1435E-13  0.9010E-05  0.2470E-06  0.4745E-03  0.4175E-04  0.4072E+08
   -1.900008   30.64074  0.1435E-13  0.7136E-05  0.5194E-06  0.2146E-03  0.3372E-04 -0.5146E+07
   -1.950005   30.65967  0.1435E-13  0.4978E-05  0.1300E-05  0.1825E-03  0.1840E-04 -0.7601E+05
   -2.000002   30.66184  0.1435E-13  0.0000E+00  0.0000E+00  0.0000E+00  0.3250E-04  0.0000E+00
