 1 - depth, m
 2 - temperature, C
 3 - salinity, kg/kg
 4 - turbulent kinetic energy, m**2/s**2
 5 - dissipation rate, m**2/s**3
 6 - kinematic heat conductance, m**2/s
 7 - modulus of horizontal velocity, m/s
 8 - Richardson number, n/d
   -0.000000   30.13313  0.2111E-13  0.4688E-05  0.2922E-06  0.5038E-04  0.7712E-03  0.1044E+05
   -0.049997   30.16313  0.2111E-13  0.8194E-05  0.1294E-06  0.1753E-03  0.4421E-03  0.3525E+02
   -0.099994   30.17510  0.2111E-13  0.9962E-05  0.8892E-07  0.4110E-03  0.3192E-03  0.7751E+02
   -0.149992   30.17821  0.2111E-13  0.1105E-04  0.7499E-07  0.4837E-03  0.2828E-03  0.3773E+02
   -0.199991   30.18074  0.2111E-13  0.1190E-04  0.6676E-07  0.6480E-03  0.2527E-03  0.2447E+02
   -0.249989   30.18259  0.2111E-13  0.1257E-04  0.6135E-07  0.7731E-03  0.2302E-03  0.1813E+02
   -0.299988   30.18408  0.2111E-13  0.1312E-04  0.5748E-07  0.8980E-03  0.2114E-03  0.1448E+02
   -0.349988   30.18534  0.2111E-13  0.1358E-04  0.5457E-07  0.1011E-02  0.1953E-03  0.1239E+02
   -0.399988   30.18644  0.2111E-13  0.1397E-04  0.5231E-07  0.1115E-02  0.1811E-03  0.1106E+02
   -0.449988   30.18741  0.2111E-13  0.1430E-04  0.5046E-07  0.1210E-02  0.1686E-03  0.1037E+02
   -0.499988   30.18828  0.2111E-13  0.1459E-04  0.4893E-07  0.1299E-02  0.1575E-03  0.1010E+02
   -0.549989   30.18908  0.2111E-13  0.1483E-04  0.4766E-07  0.1379E-02  0.1475E-03  0.9943E+01
   -0.599990   30.18982  0.2111E-13  0.1505E-04  0.4658E-07  0.1453E-02  0.1385E-03  0.9959E+01
   -0.649991   30.19051  0.2111E-13  0.1523E-04  0.4566E-07  0.1518E-02  0.1303E-03  0.1006E+02
   -0.699992   30.19117  0.2111E-13  0.1539E-04  0.4489E-07  0.1577E-02  0.1228E-03  0.1030E+02
   -0.749993   30.19179  0.2111E-13  0.1552E-04  0.4425E-07  0.1627E-02  0.1158E-03  0.1060E+02
   -0.799995   30.19238  0.2111E-13  0.1562E-04  0.4371E-07  0.1670E-02  0.1093E-03  0.1106E+02
   -0.849996   30.19295  0.2111E-13  0.1571E-04  0.4328E-07  0.1706E-02  0.1032E-03  0.1158E+02
   -0.899998   30.19350  0.2111E-13  0.1577E-04  0.4295E-07  0.1733E-02  0.9755E-04  0.1230E+02
   -0.950000   30.19404  0.2111E-13  0.1581E-04  0.4271E-07  0.1752E-02  0.9219E-04  0.1311E+02
   -1.000001   30.19457  0.2111E-13  0.1583E-04  0.4257E-07  0.1764E-02  0.8711E-04  0.1417E+02
   -1.050003   30.19509  0.2111E-13  0.1583E-04  0.4253E-07  0.1765E-02  0.8230E-04  0.1598E+02
   -1.100005   30.19560  0.2111E-13  0.1581E-04  0.4259E-07  0.1850E-02  0.7770E-04  0.5328E+02
   -1.150006   30.19609  0.2111E-13  0.1576E-04  0.4279E-07  0.1686E-02  0.7359E-04  0.1192E+03
   -1.200008   30.19662  0.2111E-13  0.1570E-04  0.4311E-07  0.1710E-02  0.6934E-04  0.2293E+02
   -1.250009   30.19714  0.2111E-13  0.1560E-04  0.4360E-07  0.1680E-02  0.6527E-04  0.2448E+02
   -1.300011   30.19767  0.2111E-13  0.1548E-04  0.4429E-07  0.1632E-02  0.6136E-04  0.2849E+02
   -1.350012   30.19821  0.2111E-13  0.1533E-04  0.4522E-07  0.1574E-02  0.5756E-04  0.3408E+02
   -1.400013   30.19877  0.2111E-13  0.1515E-04  0.4649E-07  0.1498E-02  0.5386E-04  0.4187E+02
   -1.450014   30.19936  0.2111E-13  0.1492E-04  0.4821E-07  0.1421E-02  0.5023E-04  0.5327E+02
   -1.500014   30.19997  0.2111E-13  0.1464E-04  0.5059E-07  0.1312E-02  0.4667E-04  0.7190E+02
   -1.550015   30.20065  0.2111E-13  0.1431E-04  0.5395E-07  0.1227E-02  0.4309E-04  0.1021E+03
   -1.600015   30.20138  0.2111E-13  0.1389E-04  0.5908E-07  0.1084E-02  0.3959E-04  0.1945E+03
   -1.650015   30.20226  0.2111E-13  0.1335E-04  0.6700E-07  0.1001E-02  0.3583E-04  0.1142E+06
   -1.700014   30.20326  0.2111E-13  0.1261E-04  0.8103E-07  0.8200E-03  0.3216E-04  0.1084E+04
   -1.750013   30.20498  0.2111E-13  0.1164E-04  0.1039E-06  0.7423E-03  0.2737E-04  0.2454E+06
   -1.800012   30.20638  0.2111E-13  0.1033E-04  0.1535E-06  0.5163E-03  0.2362E-04  0.1760E+05
   -1.850010   30.21223  0.2111E-13  0.8832E-05  0.2459E-06  0.4771E-03  0.1713E-04  0.1430E+08
   -1.900008   30.21122  0.2111E-13  0.6994E-05  0.5092E-06  0.2132E-03  0.1397E-04 -0.3706E+06
   -1.950006   30.22931  0.2111E-13  0.4858E-05  0.1282E-05  0.1838E-03  0.7582E-05 -0.2052E+07
   -2.000003   30.23193  0.2111E-13  0.0000E+00  0.0000E+00  0.0000E+00  0.1349E-04  0.0000E+00
