 1 - depth, m
 2 - temperature, C
 3 - salinity, kg/kg
 4 - turbulent kinetic energy, m**2/s**2
 5 - dissipation rate, m**2/s**3
 6 - kinematic heat conductance, m**2/s
 7 - modulus of horizontal velocity, m/s
 8 - Richardson number, n/d
   -0.000000   30.28442  0.1305E-12  0.4461E-05  0.2663E-06  0.4844E-04  0.9601E-03  0.2170E+05
   -0.049997   30.31362  0.1305E-12  0.7737E-05  0.1183E-06  0.1697E-03  0.5481E-03  0.2829E+02
   -0.099994   30.32489  0.1305E-12  0.9368E-05  0.8140E-07  0.3934E-03  0.3968E-03  0.5600E+02
   -0.149992   30.32791  0.1305E-12  0.1037E-04  0.6860E-07  0.4674E-03  0.3507E-03  0.2687E+02
   -0.199991   30.33035  0.1305E-12  0.1114E-04  0.6099E-07  0.6217E-03  0.3129E-03  0.1743E+02
   -0.249989   30.33212  0.1305E-12  0.1175E-04  0.5594E-07  0.7421E-03  0.2845E-03  0.1289E+02
   -0.299989   30.33355  0.1305E-12  0.1225E-04  0.5230E-07  0.8607E-03  0.2609E-03  0.1026E+02
   -0.349988   30.33475  0.1305E-12  0.1265E-04  0.4954E-07  0.9685E-03  0.2406E-03  0.8774E+01
   -0.399988   30.33579  0.1305E-12  0.1299E-04  0.4738E-07  0.1067E-02  0.2226E-03  0.7809E+01
   -0.449988   30.33670  0.1305E-12  0.1329E-04  0.4560E-07  0.1159E-02  0.2068E-03  0.7326E+01
   -0.499988   30.33753  0.1305E-12  0.1354E-04  0.4412E-07  0.1243E-02  0.1928E-03  0.7117E+01
   -0.549989   30.33827  0.1305E-12  0.1375E-04  0.4287E-07  0.1320E-02  0.1803E-03  0.7017E+01
   -0.599990   30.33897  0.1305E-12  0.1393E-04  0.4181E-07  0.1390E-02  0.1690E-03  0.7011E+01
   -0.649991   30.33961  0.1305E-12  0.1409E-04  0.4090E-07  0.1453E-02  0.1587E-03  0.7093E+01
   -0.699992   30.34021  0.1305E-12  0.1422E-04  0.4012E-07  0.1509E-02  0.1492E-03  0.7243E+01
   -0.749993   30.34079  0.1305E-12  0.1433E-04  0.3945E-07  0.1558E-02  0.1405E-03  0.7476E+01
   -0.799995   30.34133  0.1305E-12  0.1441E-04  0.3889E-07  0.1600E-02  0.1324E-03  0.7777E+01
   -0.849996   30.34185  0.1305E-12  0.1448E-04  0.3842E-07  0.1635E-02  0.1248E-03  0.8171E+01
   -0.899998   30.34236  0.1305E-12  0.1452E-04  0.3804E-07  0.1662E-02  0.1177E-03  0.8649E+01
   -0.950000   30.34285  0.1305E-12  0.1455E-04  0.3775E-07  0.1682E-02  0.1110E-03  0.9247E+01
   -1.000001   30.34332  0.1305E-12  0.1455E-04  0.3754E-07  0.1694E-02  0.1047E-03  0.9964E+01
   -1.050003   30.34379  0.1305E-12  0.1454E-04  0.3742E-07  0.1697E-02  0.9876E-04  0.1129E+02
   -1.100005   30.34425  0.1305E-12  0.1451E-04  0.3739E-07  0.1771E-02  0.9309E-04  0.3784E+02
   -1.150006   30.34469  0.1305E-12  0.1447E-04  0.3748E-07  0.1635E-02  0.8800E-04  0.8267E+02
   -1.200008   30.34516  0.1305E-12  0.1440E-04  0.3767E-07  0.1651E-02  0.8280E-04  0.1611E+02
   -1.250010   30.34562  0.1305E-12  0.1431E-04  0.3800E-07  0.1623E-02  0.7781E-04  0.1713E+02
   -1.300011   30.34609  0.1305E-12  0.1419E-04  0.3849E-07  0.1580E-02  0.7301E-04  0.1995E+02
   -1.350012   30.34656  0.1305E-12  0.1405E-04  0.3919E-07  0.1526E-02  0.6838E-04  0.2370E+02
   -1.400013   30.34705  0.1305E-12  0.1388E-04  0.4015E-07  0.1458E-02  0.6387E-04  0.2896E+02
   -1.450014   30.34756  0.1305E-12  0.1368E-04  0.4147E-07  0.1384E-02  0.5947E-04  0.3644E+02
   -1.500015   30.34809  0.1305E-12  0.1343E-04  0.4330E-07  0.1283E-02  0.5516E-04  0.4834E+02
   -1.550015   30.34867  0.1305E-12  0.1313E-04  0.4588E-07  0.1197E-02  0.5087E-04  0.6703E+02
   -1.600015   30.34929  0.1305E-12  0.1277E-04  0.4974E-07  0.1064E-02  0.4666E-04  0.1091E+03
   -1.650015   30.35001  0.1305E-12  0.1231E-04  0.5566E-07  0.9809E-03  0.4228E-04  0.5980E+03
   -1.700014   30.35081  0.1305E-12  0.1169E-04  0.6629E-07  0.8115E-03  0.3800E-04  0.4280E+04
   -1.750013   30.35213  0.1305E-12  0.1083E-04  0.8425E-07  0.7231E-03  0.3257E-04  0.9552E+05
   -1.800012   30.35348  0.1305E-12  0.9631E-05  0.1221E-06  0.5181E-03  0.2784E-04  0.1404E+06
   -1.850010   30.35758  0.1305E-12  0.8233E-05  0.1908E-06  0.4613E-03  0.2050E-04  0.2963E+07
   -1.900008   30.35757  0.1305E-12  0.6490E-05  0.4009E-06  0.2074E-03  0.1645E-04  0.2196E+06
   -1.950006   30.37229  0.1305E-12  0.4460E-05  0.1024E-05  0.1687E-03  0.8913E-05 -0.9980E+06
   -2.000003   30.37553  0.1305E-12  0.0000E+00  0.0000E+00  0.0000E+00  0.1571E-04  0.0000E+00
