 1 - depth, m
 2 - temperature, C
 3 - salinity, kg/kg
 4 - turbulent kinetic energy, m**2/s**2
 5 - dissipation rate, m**2/s**3
 6 - kinematic heat conductance, m**2/s
 7 - modulus of horizontal velocity, m/s
 8 - Richardson number, n/d
   -0.000000   30.95412  0.1519E-14  0.4992E-05  0.3123E-06  0.4955E-04  0.5504E-03  0.2318E+04
   -0.049997   30.98819  0.1519E-14  0.8772E-05  0.1392E-06  0.1881E-03  0.3105E-03  0.1573E+03
   -0.099994   30.99959  0.1519E-14  0.1057E-04  0.9698E-07  0.4153E-03  0.2292E-03  0.1723E+03
   -0.149992   31.00297  0.1519E-14  0.1169E-04  0.8206E-07  0.4933E-03  0.2034E-03  0.8544E+02
   -0.199991   31.00570  0.1519E-14  0.1257E-04  0.7323E-07  0.6549E-03  0.1823E-03  0.5627E+02
   -0.249989   31.00769  0.1519E-14  0.1326E-04  0.6740E-07  0.7792E-03  0.1664E-03  0.4217E+02
   -0.299988   31.00932  0.1519E-14  0.1381E-04  0.6323E-07  0.9010E-03  0.1531E-03  0.3386E+02
   -0.349988   31.01069  0.1519E-14  0.1427E-04  0.6009E-07  0.1011E-02  0.1416E-03  0.2923E+02
   -0.399988   31.01189  0.1519E-14  0.1465E-04  0.5764E-07  0.1110E-02  0.1314E-03  0.2621E+02
   -0.449988   31.01295  0.1519E-14  0.1498E-04  0.5565E-07  0.1201E-02  0.1225E-03  0.2485E+02
   -0.499988   31.01392  0.1519E-14  0.1525E-04  0.5401E-07  0.1283E-02  0.1145E-03  0.2434E+02
   -0.549989   31.01480  0.1519E-14  0.1548E-04  0.5264E-07  0.1357E-02  0.1073E-03  0.2427E+02
   -0.599989   31.01563  0.1519E-14  0.1568E-04  0.5149E-07  0.1422E-02  0.1009E-03  0.2447E+02
   -0.649990   31.01640  0.1519E-14  0.1584E-04  0.5053E-07  0.1479E-02  0.9494E-04  0.2508E+02
   -0.699992   31.01713  0.1519E-14  0.1596E-04  0.4973E-07  0.1528E-02  0.8948E-04  0.2588E+02
   -0.749993   31.01783  0.1519E-14  0.1606E-04  0.4907E-07  0.1568E-02  0.8442E-04  0.2713E+02
   -0.799994   31.01850  0.1519E-14  0.1613E-04  0.4855E-07  0.1599E-02  0.7971E-04  0.2858E+02
   -0.849996   31.01915  0.1519E-14  0.1617E-04  0.4815E-07  0.1621E-02  0.7529E-04  0.3059E+02
   -0.899997   31.01978  0.1519E-14  0.1619E-04  0.4787E-07  0.1634E-02  0.7114E-04  0.3291E+02
   -0.949999   31.02041  0.1519E-14  0.1617E-04  0.4772E-07  0.1637E-02  0.6721E-04  0.3601E+02
   -1.000001   31.02102  0.1519E-14  0.1613E-04  0.4771E-07  0.1631E-02  0.6349E-04  0.3966E+02
   -1.050003   31.02163  0.1519E-14  0.1607E-04  0.4784E-07  0.1611E-02  0.5993E-04  0.4606E+02
   -1.100004   31.02225  0.1519E-14  0.1597E-04  0.4812E-07  0.1766E-02  0.5653E-04  0.1391E+03
   -1.150006   31.02280  0.1519E-14  0.1584E-04  0.4864E-07  0.1401E-02  0.5364E-04  0.4466E+03
   -1.200007   31.02350  0.1519E-14  0.1568E-04  0.4935E-07  0.1479E-02  0.5027E-04  0.7629E+02
   -1.250009   31.02416  0.1519E-14  0.1548E-04  0.5036E-07  0.1436E-02  0.4719E-04  0.8314E+02
   -1.300010   31.02483  0.1519E-14  0.1523E-04  0.5175E-07  0.1355E-02  0.4422E-04  0.1038E+03
   -1.350011   31.02554  0.1519E-14  0.1494E-04  0.5368E-07  0.1285E-02  0.4131E-04  0.1329E+03
   -1.400012   31.02629  0.1519E-14  0.1458E-04  0.5637E-07  0.1154E-02  0.3846E-04  0.1832E+03
   -1.450013   31.02713  0.1519E-14  0.1415E-04  0.6020E-07  0.1104E-02  0.3557E-04  0.2572E+03
   -1.500014   31.02804  0.1519E-14  0.1362E-04  0.6590E-07  0.9164E-03  0.3278E-04  0.4253E+03
   -1.550014   31.02919  0.1519E-14  0.1296E-04  0.7431E-07  0.9274E-03  0.2972E-04  0.7091E+03
   -1.600014   31.03035  0.1519E-14  0.1213E-04  0.8949E-07  0.7134E-03  0.2701E-04  0.2287E+04
   -1.650014   31.03232  0.1519E-14  0.1092E-04  0.1117E-06  0.7122E-03  0.2325E-04 -0.1518E+04
   -1.700013   31.03422  0.1519E-14  0.9246E-05  0.1544E-06  0.4535E-03  0.2008E-04 -0.5421E+04
   -1.750012   31.04064  0.1519E-14  0.7368E-05  0.2245E-06  0.4853E-03  0.1346E-04  0.3706E+07
   -1.800011   31.04065  0.1519E-14  0.5889E-05  0.3707E-06  0.2682E-03  0.1189E-04 -0.8131E+05
   -1.850010   31.06510  0.1519E-14  0.4637E-05  0.6819E-06  0.3353E-03  0.5414E-05  0.6324E+10
   -1.900007   31.04514  0.1519E-14  0.3957E-05  0.1462E-05  0.1699E-03  0.5409E-05 -0.9807E+07
   -1.950005   31.08473  0.1519E-14  0.3089E-05  0.3193E-05  0.3022E-03  0.2155E-05  0.3994E+04
   -2.000002   31.08082  0.1519E-14  0.0000E+00  0.0000E+00  0.0000E+00  0.8493E-05  0.0000E+00
