 1 - depth, m
 2 - temperature, C
 3 - salinity, kg/kg
 4 - turbulent kinetic energy, m**2/s**2
 5 - dissipation rate, m**2/s**3
 6 - kinematic heat conductance, m**2/s
 7 - modulus of horizontal velocity, m/s
 8 - Richardson number, n/d
   -0.000000   30.83425  0.7377E-13  0.4911E-05  0.3067E-06  0.4960E-04  0.5465E-03  0.1278E+06
   -0.049997   30.86716  0.7377E-13  0.8642E-05  0.1363E-06  0.1872E-03  0.3073E-03  0.5111E+05
   -0.099994   30.87845  0.7377E-13  0.1043E-04  0.9468E-07  0.4172E-03  0.2255E-03  0.1667E+03
   -0.149992   30.88171  0.7377E-13  0.1155E-04  0.7994E-07  0.4949E-03  0.1999E-03  0.8255E+02
   -0.199991   30.88433  0.7377E-13  0.1242E-04  0.7121E-07  0.6601E-03  0.1788E-03  0.5398E+02
   -0.249989   30.88623  0.7377E-13  0.1311E-04  0.6544E-07  0.7869E-03  0.1630E-03  0.4025E+02
   -0.299988   30.88778  0.7377E-13  0.1368E-04  0.6130E-07  0.9128E-03  0.1499E-03  0.3215E+02
   -0.349988   30.88909  0.7377E-13  0.1414E-04  0.5818E-07  0.1027E-02  0.1386E-03  0.2760E+02
   -0.399988   30.89022  0.7377E-13  0.1453E-04  0.5574E-07  0.1131E-02  0.1286E-03  0.2459E+02
   -0.449988   30.89122  0.7377E-13  0.1487E-04  0.5375E-07  0.1227E-02  0.1197E-03  0.2314E+02
   -0.499988   30.89212  0.7377E-13  0.1516E-04  0.5210E-07  0.1316E-02  0.1119E-03  0.2246E+02
   -0.549989   30.89295  0.7377E-13  0.1540E-04  0.5071E-07  0.1396E-02  0.1049E-03  0.2221E+02
   -0.599989   30.89372  0.7377E-13  0.1562E-04  0.4954E-07  0.1470E-02  0.9856E-04  0.2216E+02
   -0.649990   30.89443  0.7377E-13  0.1580E-04  0.4855E-07  0.1535E-02  0.9276E-04  0.2249E+02
   -0.699992   30.89510  0.7377E-13  0.1595E-04  0.4771E-07  0.1593E-02  0.8743E-04  0.2292E+02
   -0.749993   30.89574  0.7377E-13  0.1607E-04  0.4700E-07  0.1642E-02  0.8250E-04  0.2374E+02
   -0.799994   30.89635  0.7377E-13  0.1617E-04  0.4641E-07  0.1685E-02  0.7791E-04  0.2465E+02
   -0.849996   30.89694  0.7377E-13  0.1625E-04  0.4594E-07  0.1719E-02  0.7361E-04  0.2599E+02
   -0.899998   30.89751  0.7377E-13  0.1630E-04  0.4557E-07  0.1745E-02  0.6959E-04  0.2747E+02
   -0.949999   30.89806  0.7377E-13  0.1633E-04  0.4530E-07  0.1762E-02  0.6578E-04  0.2950E+02
   -1.000001   30.89861  0.7377E-13  0.1634E-04  0.4514E-07  0.1771E-02  0.6218E-04  0.3176E+02
   -1.050003   30.89914  0.7377E-13  0.1633E-04  0.4510E-07  0.1770E-02  0.5876E-04  0.3609E+02
   -1.100004   30.89967  0.7377E-13  0.1629E-04  0.4517E-07  0.1866E-02  0.5550E-04  0.1178E+03
   -1.150006   30.90017  0.7377E-13  0.1623E-04  0.4539E-07  0.1671E-02  0.5260E-04  0.2782E+03
   -1.200008   30.90073  0.7377E-13  0.1615E-04  0.4574E-07  0.1705E-02  0.4955E-04  0.5271E+02
   -1.250009   30.90126  0.7377E-13  0.1604E-04  0.4628E-07  0.1673E-02  0.4666E-04  0.5593E+02
   -1.300010   30.90181  0.7377E-13  0.1589E-04  0.4705E-07  0.1621E-02  0.4386E-04  0.6598E+02
   -1.350012   30.90237  0.7377E-13  0.1572E-04  0.4811E-07  0.1559E-02  0.4115E-04  0.7912E+02
   -1.400013   30.90295  0.7377E-13  0.1550E-04  0.4955E-07  0.1478E-02  0.3850E-04  0.9889E+02
   -1.450013   30.90356  0.7377E-13  0.1524E-04  0.5153E-07  0.1398E-02  0.3590E-04  0.1271E+03
   -1.500014   30.90421  0.7377E-13  0.1493E-04  0.5431E-07  0.1284E-02  0.3334E-04  0.1761E+03
   -1.550014   30.90493  0.7377E-13  0.1454E-04  0.5829E-07  0.1200E-02  0.3076E-04  0.2579E+03
   -1.600014   30.90570  0.7377E-13  0.1406E-04  0.6451E-07  0.1054E-02  0.2822E-04  0.6141E+03
   -1.650014   30.90668  0.7377E-13  0.1344E-04  0.7430E-07  0.9750E-03  0.2546E-04  0.7732E+04
   -1.700014   30.90780  0.7377E-13  0.1258E-04  0.9158E-07  0.7937E-03  0.2272E-04  0.1068E+06
   -1.750013   30.90978  0.7377E-13  0.1148E-04  0.1198E-06  0.7139E-03  0.1909E-04  0.4910E+07
   -1.800011   30.91130  0.7377E-13  0.1002E-04  0.1817E-06  0.4897E-03  0.1637E-04  0.6858E+06
   -1.850010   30.91852  0.7377E-13  0.8472E-05  0.2973E-06  0.4592E-03  0.1144E-04  0.2680E+09
   -1.900008   30.91630  0.7377E-13  0.6760E-05  0.6252E-06  0.2136E-03  0.9406E-05  0.1119E+08
   -1.950005   30.93676  0.7377E-13  0.4772E-05  0.1532E-05  0.1988E-03  0.5028E-05 -0.6598E+07
   -2.000002   30.93856  0.7377E-13  0.0000E+00  0.0000E+00  0.0000E+00  0.9617E-05  0.0000E+00
