 1 - depth, m
 2 - temperature, C
 3 - salinity, kg/kg
 4 - turbulent kinetic energy, m**2/s**2
 5 - dissipation rate, m**2/s**3
 6 - kinematic heat conductance, m**2/s
 7 - modulus of horizontal velocity, m/s
 8 - Richardson number, n/d
   -0.000000   30.29827  0.4514E-14  0.4882E-05  0.3095E-06  0.5146E-04  0.1249E-02  0.7623E+04
   -0.049997   30.32890  0.4514E-14  0.8415E-05  0.1377E-06  0.1774E-03  0.7161E-03  0.7808E+03
   -0.099994   30.34113  0.4514E-14  0.1024E-04  0.9448E-07  0.4078E-03  0.5214E-03  0.3683E+02
   -0.149992   30.34439  0.4514E-14  0.1137E-04  0.7936E-07  0.4851E-03  0.4609E-03  0.1806E+02
   -0.199991   30.34702  0.4514E-14  0.1226E-04  0.7050E-07  0.6512E-03  0.4115E-03  0.1164E+02
   -0.249989   30.34893  0.4514E-14  0.1296E-04  0.6471E-07  0.7779E-03  0.3747E-03  0.8653E+01
   -0.299988   30.35048  0.4514E-14  0.1353E-04  0.6059E-07  0.9051E-03  0.3441E-03  0.6884E+01
   -0.349988   30.35178  0.4514E-14  0.1401E-04  0.5751E-07  0.1020E-02  0.3179E-03  0.5924E+01
   -0.399988   30.35291  0.4514E-14  0.1441E-04  0.5512E-07  0.1125E-02  0.2948E-03  0.5265E+01
   -0.449988   30.35391  0.4514E-14  0.1476E-04  0.5317E-07  0.1223E-02  0.2744E-03  0.4973E+01
   -0.499988   30.35481  0.4514E-14  0.1506E-04  0.5157E-07  0.1313E-02  0.2564E-03  0.4815E+01
   -0.549989   30.35564  0.4514E-14  0.1532E-04  0.5024E-07  0.1395E-02  0.2402E-03  0.4782E+01
   -0.599989   30.35641  0.4514E-14  0.1555E-04  0.4911E-07  0.1469E-02  0.2256E-03  0.4759E+01
   -0.649990   30.35712  0.4514E-14  0.1574E-04  0.4817E-07  0.1536E-02  0.2123E-03  0.4853E+01
   -0.699992   30.35780  0.4514E-14  0.1591E-04  0.4737E-07  0.1595E-02  0.2001E-03  0.4934E+01
   -0.749993   30.35844  0.4514E-14  0.1604E-04  0.4671E-07  0.1646E-02  0.1887E-03  0.5136E+01
   -0.799994   30.35906  0.4514E-14  0.1616E-04  0.4617E-07  0.1689E-02  0.1782E-03  0.5318E+01
   -0.849996   30.35965  0.4514E-14  0.1625E-04  0.4574E-07  0.1725E-02  0.1684E-03  0.5637E+01
   -0.899998   30.36022  0.4514E-14  0.1631E-04  0.4541E-07  0.1752E-02  0.1591E-03  0.5939E+01
   -0.949999   30.36078  0.4514E-14  0.1636E-04  0.4519E-07  0.1771E-02  0.1504E-03  0.6410E+01
   -1.000001   30.36133  0.4514E-14  0.1638E-04  0.4507E-07  0.1782E-02  0.1422E-03  0.6877E+01
   -1.050003   30.36187  0.4514E-14  0.1638E-04  0.4506E-07  0.1783E-02  0.1343E-03  0.7855E+01
   -1.100004   30.36241  0.4514E-14  0.1636E-04  0.4517E-07  0.1873E-02  0.1269E-03  0.2576E+02
   -1.150006   30.36292  0.4514E-14  0.1631E-04  0.4542E-07  0.1695E-02  0.1202E-03  0.5917E+02
   -1.200008   30.36348  0.4514E-14  0.1625E-04  0.4580E-07  0.1722E-02  0.1133E-03  0.1140E+02
   -1.250009   30.36403  0.4514E-14  0.1615E-04  0.4637E-07  0.1692E-02  0.1067E-03  0.1209E+02
   -1.300010   30.36458  0.4514E-14  0.1602E-04  0.4715E-07  0.1641E-02  0.1003E-03  0.1427E+02
   -1.350012   30.36515  0.4514E-14  0.1587E-04  0.4821E-07  0.1581E-02  0.9416E-04  0.1702E+02
   -1.400013   30.36574  0.4514E-14  0.1567E-04  0.4964E-07  0.1503E-02  0.8812E-04  0.2122E+02
   -1.450013   30.36637  0.4514E-14  0.1543E-04  0.5158E-07  0.1424E-02  0.8221E-04  0.2700E+02
   -1.500014   30.36703  0.4514E-14  0.1514E-04  0.5426E-07  0.1311E-02  0.7638E-04  0.3715E+02
   -1.550014   30.36775  0.4514E-14  0.1478E-04  0.5806E-07  0.1227E-02  0.7053E-04  0.5309E+02
   -1.600014   30.36853  0.4514E-14  0.1433E-04  0.6386E-07  0.1079E-02  0.6478E-04  0.1334E+03
   -1.650014   30.36950  0.4514E-14  0.1375E-04  0.7282E-07  0.1003E-02  0.5862E-04  0.4763E+04
   -1.700014   30.37057  0.4514E-14  0.1295E-04  0.8881E-07  0.8160E-03  0.5258E-04 -0.3169E+05
   -1.750013   30.37249  0.4514E-14  0.1190E-04  0.1152E-06  0.7389E-03  0.4458E-04  0.1302E+06
   -1.800011   30.37409  0.4514E-14  0.1049E-04  0.1720E-06  0.5134E-03  0.3828E-04  0.8108E+05
   -1.850010   30.38057  0.4514E-14  0.8922E-05  0.2766E-06  0.4741E-03  0.2748E-04  0.3362E+08
   -1.900008   30.37947  0.4514E-14  0.7106E-05  0.5808E-06  0.2175E-03  0.2236E-04  0.2223E+07
   -1.950005   30.39961  0.4514E-14  0.4990E-05  0.1438E-05  0.1921E-03  0.1217E-04 -0.8981E+06
   -2.000002   30.40175  0.4514E-14  0.0000E+00  0.0000E+00  0.0000E+00  0.2207E-04  0.0000E+00
