 1 - depth, m
 2 - temperature, C
 3 - salinity, kg/kg
 4 - turbulent kinetic energy, m**2/s**2
 5 - dissipation rate, m**2/s**3
 6 - kinematic heat conductance, m**2/s
 7 - modulus of horizontal velocity, m/s
 8 - Richardson number, n/d
   -0.000000   29.79863  0.1418E-13  0.4548E-05  0.2726E-06  0.4910E-04  0.1673E-02  0.8690E+04
   -0.049997   29.82705  0.1418E-13  0.7777E-05  0.1215E-06  0.1719E-03  0.9541E-03  0.1549E+04
   -0.099994   29.83804  0.1418E-13  0.9434E-05  0.8347E-07  0.3894E-03  0.6958E-03  0.1651E+02
   -0.149992   29.84108  0.1418E-13  0.1047E-04  0.7009E-07  0.4687E-03  0.6139E-03  0.8023E+01
   -0.199991   29.84351  0.1418E-13  0.1127E-04  0.6225E-07  0.6252E-03  0.5476E-03  0.5161E+01
   -0.249989   29.84528  0.1418E-13  0.1192E-04  0.5710E-07  0.7477E-03  0.4980E-03  0.3806E+01
   -0.299989   29.84672  0.1418E-13  0.1244E-04  0.5344E-07  0.8693E-03  0.4566E-03  0.3028E+01
   -0.349988   29.84793  0.1418E-13  0.1288E-04  0.5069E-07  0.9797E-03  0.4212E-03  0.2589E+01
   -0.399988   29.84898  0.1418E-13  0.1324E-04  0.4855E-07  0.1081E-02  0.3899E-03  0.2307E+01
   -0.449988   29.84991  0.1418E-13  0.1356E-04  0.4681E-07  0.1175E-02  0.3624E-03  0.2167E+01
   -0.499988   29.85075  0.1418E-13  0.1383E-04  0.4537E-07  0.1261E-02  0.3381E-03  0.2109E+01
   -0.549989   29.85151  0.1418E-13  0.1407E-04  0.4417E-07  0.1340E-02  0.3163E-03  0.2082E+01
   -0.599990   29.85222  0.1418E-13  0.1428E-04  0.4316E-07  0.1412E-02  0.2967E-03  0.2083E+01
   -0.649991   29.85289  0.1418E-13  0.1445E-04  0.4230E-07  0.1477E-02  0.2788E-03  0.2110E+01
   -0.699992   29.85351  0.1418E-13  0.1460E-04  0.4158E-07  0.1535E-02  0.2623E-03  0.2158E+01
   -0.749993   29.85410  0.1418E-13  0.1473E-04  0.4097E-07  0.1585E-02  0.2471E-03  0.2229E+01
   -0.799995   29.85467  0.1418E-13  0.1483E-04  0.4047E-07  0.1628E-02  0.2330E-03  0.2322E+01
   -0.849996   29.85522  0.1418E-13  0.1492E-04  0.4006E-07  0.1663E-02  0.2198E-03  0.2441E+01
   -0.899998   29.85575  0.1418E-13  0.1498E-04  0.3974E-07  0.1691E-02  0.2075E-03  0.2587E+01
   -0.950000   29.85626  0.1418E-13  0.1502E-04  0.3952E-07  0.1711E-02  0.1959E-03  0.2767E+01
   -1.000002   29.85676  0.1418E-13  0.1504E-04  0.3938E-07  0.1723E-02  0.1849E-03  0.2984E+01
   -1.050003   29.85726  0.1418E-13  0.1505E-04  0.3934E-07  0.1726E-02  0.1745E-03  0.3380E+01
   -1.100005   29.85775  0.1418E-13  0.1503E-04  0.3939E-07  0.1803E-02  0.1646E-03  0.1132E+02
   -1.150007   29.85822  0.1418E-13  0.1499E-04  0.3956E-07  0.1659E-02  0.1557E-03  0.2477E+02
   -1.200008   29.85873  0.1418E-13  0.1493E-04  0.3984E-07  0.1677E-02  0.1466E-03  0.4830E+01
   -1.250010   29.85922  0.1418E-13  0.1485E-04  0.4027E-07  0.1648E-02  0.1378E-03  0.5141E+01
   -1.300011   29.85972  0.1418E-13  0.1474E-04  0.4088E-07  0.1603E-02  0.1294E-03  0.5986E+01
   -1.350012   29.86024  0.1418E-13  0.1460E-04  0.4171E-07  0.1547E-02  0.1213E-03  0.7117E+01
   -1.400013   29.86077  0.1418E-13  0.1444E-04  0.4283E-07  0.1476E-02  0.1134E-03  0.8706E+01
   -1.450014   29.86132  0.1418E-13  0.1423E-04  0.4435E-07  0.1400E-02  0.1056E-03  0.1097E+02
   -1.500015   29.86191  0.1418E-13  0.1398E-04  0.4643E-07  0.1296E-02  0.9806E-04  0.1460E+02
   -1.550015   29.86254  0.1418E-13  0.1367E-04  0.4934E-07  0.1210E-02  0.9048E-04  0.2030E+02
   -1.600015   29.86323  0.1418E-13  0.1329E-04  0.5369E-07  0.1072E-02  0.8304E-04  0.3366E+02
   -1.650015   29.86403  0.1418E-13  0.1281E-04  0.6036E-07  0.9876E-03  0.7524E-04  0.9168E+02
   -1.700015   29.86494  0.1418E-13  0.1215E-04  0.7220E-07  0.8153E-03  0.6760E-04  0.1945E+03
   -1.750014   29.86644  0.1418E-13  0.1126E-04  0.9190E-07  0.7281E-03  0.5791E-04  0.1675E+05
   -1.800012   29.86790  0.1418E-13  0.1001E-04  0.1318E-06  0.5201E-03  0.4966E-04  0.4075E+05
   -1.850011   29.87267  0.1418E-13  0.8536E-05  0.2077E-06  0.4617E-03  0.3647E-04  0.3697E+08
   -1.900009   29.87260  0.1418E-13  0.6695E-05  0.4321E-06  0.2061E-03  0.2926E-04  0.2537E+06
   -1.950006   29.88940  0.1418E-13  0.4634E-05  0.1100E-05  0.1742E-03  0.1580E-04 -0.1705E+06
   -2.000003   29.89143  0.1418E-13  0.0000E+00  0.0000E+00  0.0000E+00  0.2782E-04  0.0000E+00
