 1 - depth, m
 2 - temperature, C
 3 - salinity, kg/kg
 4 - turbulent kinetic energy, m**2/s**2
 5 - dissipation rate, m**2/s**3
 6 - kinematic heat conductance, m**2/s
 7 - modulus of horizontal velocity, m/s
 8 - Richardson number, n/d
   -0.000000   -0.00000  0.2630E-09  0.1219E-13  0.7603E-17  0.1000E-09  0.0000E+00  0.1338E+17
   -0.068746    0.20640  0.1013E-09  0.1219E-13  0.7603E-17  0.1000E-09  0.0000E+00  0.1180E+17
   -0.137492    0.39893  0.7080E-10  0.1219E-13  0.7603E-17  0.1000E-09  0.0000E+00  0.1002E+17
   -0.206239    0.57144  0.6767E-10  0.1219E-13  0.7603E-17  0.1000E-09  0.0000E+00  0.8338E+16
   -0.274986    0.72240  0.6740E-10  0.1219E-13  0.7603E-17  0.1000E-09  0.0000E+00  0.6815E+16
   -0.343735    0.85150  0.6737E-10  0.1219E-13  0.7603E-17  0.1000E-09  0.0000E+00  0.5655E+16
   -0.412483    0.96304  0.6736E-10  0.1219E-13  0.7603E-17  0.1000E-09  0.0000E+00  0.4622E+16
   -0.481232    1.05752  0.6736E-10  0.1219E-13  0.7603E-17  0.1000E-09  0.0000E+00  0.3723E+16
   -0.549982    1.13601  0.6736E-10  0.1219E-13  0.7603E-17  0.1000E-09  0.0000E+00  0.3126E+16
   -0.618732    1.20371  0.6736E-10  0.1219E-13  0.7603E-17  0.1000E-09  0.0000E+00  0.2833E+16
   -0.687482    1.26659  0.6736E-10  0.1312E-13  0.7603E-17  0.1000E-09  0.0000E+00  0.2691E+16
   -0.756233    1.32776  0.6736E-10  0.6130E-13  0.1254E-16  0.1000E-09  0.0000E+00  0.2812E+16
   -0.824984    1.39330  0.6736E-10  0.1889E-12  0.3269E-16  0.1000E-09  0.0000E+00  0.3059E+16
   -0.893735    1.46661  0.6735E-10  0.5235E-12  0.8637E-16  0.1000E-09  0.0000E+00  0.3413E+16
   -0.962486    1.55112  0.6733E-10  0.1406E-11  0.2246E-15  0.1000E-09  0.0000E+00  0.3848E+16
   -1.031238    1.65023  0.6724E-10  0.3714E-11  0.5760E-15  0.1000E-09  0.0000E+00  0.4294E+16
   -1.099990    1.76625  0.6702E-10  0.9721E-11  0.1464E-14  0.1000E-09  0.0000E+00  0.4640E+16
   -1.168742    1.89912  0.6670E-10  0.2517E-10  0.3684E-14  0.1000E-09  0.0000E+00  0.4952E+16
   -1.237494    2.05134  0.6633E-10  0.6441E-10  0.9164E-14  0.1000E-09  0.0000E+00  0.5176E+16
   -1.306246    2.22492  0.6599E-10  0.1630E-09  0.2255E-13  0.1000E-09  0.0000E+00  0.5253E+16
   -1.374998    2.42125  0.6577E-10  0.4078E-09  0.5487E-13  0.1000E-09  0.0000E+00  0.5173E+16
   -1.443750    2.64312  0.6558E-10  0.1009E-08  0.1321E-12  0.1380E-09  0.0000E+00  0.4879E+16
   -1.512503    2.89394  0.6527E-10  0.2471E-08  0.3149E-12  0.3798E-09  0.0000E+00  0.4229E+16
   -1.581255    3.17292  0.6477E-10  0.5983E-08  0.7425E-12  0.1186E-08  0.0000E+00  0.3195E+16
   -1.650007    3.47838  0.6422E-10  0.1430E-07  0.1729E-11  0.5009E-08  0.0000E+00  0.1770E+16
   -1.718759    3.80406  0.6389E-10  0.3229E-07  0.3826E-11  0.8788E-07  0.0000E+00  0.2458E+15
   -1.787510    4.03604  0.6385E-10  0.3371E-07  0.4004E-11  0.1137E-03  0.0000E+00 -0.3634E+12
   -1.856262    4.03651  0.6385E-10  0.3430E-07  0.4099E-11  0.1119E-03  0.0000E+00 -0.3781E+12
   -1.925013    4.03699  0.6385E-10  0.3478E-07  0.4199E-11  0.1121E-03  0.0000E+00 -0.3870E+12
   -1.993764    4.03747  0.6385E-10  0.3516E-07  0.4309E-11  0.1118E-03  0.0000E+00 -0.3982E+12
   -2.062515    4.03797  0.6385E-10  0.3545E-07  0.4431E-11  0.1105E-03  0.0000E+00 -0.4113E+12
   -2.131265    4.03847  0.6385E-10  0.3565E-07  0.4577E-11  0.1082E-03  0.0000E+00 -0.4284E+12
   -2.200015    4.03899  0.6385E-10  0.3575E-07  0.4753E-11  0.1050E-03  0.0000E+00 -0.4516E+12
   -2.268764    4.03954  0.6385E-10  0.3574E-07  0.4972E-11  0.1006E-03  0.0000E+00 -0.4834E+12
   -2.337513    4.04012  0.6385E-10  0.3557E-07  0.5284E-11  0.9456E-04  0.0000E+00 -0.5299E+12
   -2.406262    4.04074  0.6385E-10  0.3514E-07  0.5779E-11  0.7575E-04  0.0000E+00 -0.6864E+12
   -2.475010    4.04154  0.6385E-10  0.3430E-07  0.6575E-11  0.5745E-04  0.0000E+00 -0.9519E+12
   -2.543758    4.04263  0.6385E-10  0.3266E-07  0.8038E-11  0.3887E-04  0.0000E+00 -0.1503E+13
   -2.612505    4.04431  0.6385E-10  0.2936E-07  0.1128E-10  0.1942E-04  0.0000E+00 -0.3282E+13
   -2.681251    4.04782  0.6385E-10  0.1544E-07  0.3116E-10  0.1432E-05  0.0000E+00 -0.6200E+14
   -2.749996    4.09453  0.6385E-10  0.0000E+00  0.0000E+00  0.0000E+00  0.0000E+00  0.0000E+00
