 1 - depth, m
 2 - temperature, C
 3 - salinity, kg/kg
 4 - turbulent kinetic energy, m**2/s**2
 5 - dissipation rate, m**2/s**3
 6 - kinematic heat conductance, m**2/s
 7 - modulus of horizontal velocity, m/s
 8 - Richardson number, n/d
   -0.000000   -0.00000  0.4115E-09  0.1219E-13  0.7603E-17  0.1000E-09  0.0000E+00  0.1350E+17
   -0.068746    0.20840  0.1913E-09  0.1219E-13  0.7603E-17  0.1000E-09  0.0000E+00  0.1267E+17
   -0.137492    0.41575  0.1041E-09  0.2571E-13  0.7603E-17  0.1000E-09  0.0000E+00  0.1176E+17
   -0.206239    0.62037  0.8209E-10  0.8809E-13  0.8688E-17  0.1000E-09  0.0000E+00  0.1088E+17
   -0.274987    0.82201  0.7705E-10  0.2073E-12  0.1492E-16  0.1000E-09  0.0000E+00  0.1001E+17
   -0.343735    1.02046  0.7587E-10  0.4235E-12  0.2760E-16  0.1000E-09  0.0000E+00  0.9201E+16
   -0.412483    1.21597  0.7559E-10  0.8181E-12  0.5107E-16  0.1000E-09  0.0000E+00  0.8414E+16
   -0.481232    1.40834  0.7554E-10  0.1542E-11  0.9365E-16  0.1000E-09  0.0000E+00  0.7655E+16
   -0.549982    1.59739  0.7552E-10  0.2870E-11  0.1703E-15  0.1000E-09  0.0000E+00  0.6940E+16
   -0.618732    1.78334  0.7551E-10  0.5276E-11  0.3063E-15  0.1000E-09  0.0000E+00  0.6266E+16
   -0.687482    1.96648  0.7548E-10  0.9616E-11  0.5464E-15  0.1000E-09  0.0000E+00  0.5622E+16
   -0.756233    2.14679  0.7543E-10  0.1740E-10  0.9682E-15  0.1000E-09  0.0000E+00  0.5033E+16
   -0.824984    2.32528  0.7535E-10  0.3128E-10  0.1704E-14  0.1000E-09  0.0000E+00  0.4462E+16
   -0.893735    2.50188  0.7521E-10  0.5587E-10  0.2981E-14  0.1000E-09  0.0000E+00  0.3908E+16
   -0.962487    2.67652  0.7499E-10  0.9914E-10  0.5182E-14  0.1000E-09  0.0000E+00  0.3373E+16
   -1.031238    2.84913  0.7470E-10  0.1748E-09  0.8953E-14  0.1000E-09  0.0000E+00  0.2858E+16
   -1.099990    3.01967  0.7431E-10  0.3072E-09  0.1542E-13  0.1000E-09  0.0000E+00  0.2363E+16
   -1.168742    3.18824  0.7381E-10  0.5376E-09  0.2643E-13  0.1000E-09  0.0000E+00  0.1886E+16
   -1.237495    3.35473  0.7322E-10  0.9356E-09  0.4509E-13  0.1610E-09  0.0000E+00  0.1426E+16
   -1.306247    3.51896  0.7265E-10  0.1619E-08  0.7647E-13  0.3954E-09  0.0000E+00  0.9848E+15
   -1.374999    3.68059  0.7230E-10  0.2784E-08  0.1289E-12  0.1163E-08  0.0000E+00  0.5647E+15
   -1.443751    3.83921  0.7216E-10  0.4747E-08  0.2156E-12  0.6487E-08  0.0000E+00  0.1696E+15
   -1.512503    3.99043  0.7214E-10  0.5110E-08  0.2329E-12  0.3117E-04  0.0000E+00 -0.4928E+11
   -1.581256    3.99115  0.7214E-10  0.5294E-08  0.2435E-12  0.3391E-04  0.0000E+00 -0.5245E+11
   -1.650008    3.99181  0.7214E-10  0.5468E-08  0.2553E-12  0.3598E-04  0.0000E+00 -0.5566E+11
   -1.718759    3.99243  0.7214E-10  0.5631E-08  0.2683E-12  0.3746E-04  0.0000E+00 -0.5916E+11
   -1.787511    3.99302  0.7214E-10  0.5782E-08  0.2826E-12  0.3838E-04  0.0000E+00 -0.6316E+11
   -1.856263    3.99360  0.7214E-10  0.5920E-08  0.2984E-12  0.3877E-04  0.0000E+00 -0.6785E+11
   -1.925014    3.99417  0.7214E-10  0.6045E-08  0.3158E-12  0.3866E-04  0.0000E+00 -0.7344E+11
   -1.993765    3.99475  0.7214E-10  0.6154E-08  0.3353E-12  0.3805E-04  0.0000E+00 -0.8021E+11
   -2.062516    3.99534  0.7214E-10  0.6248E-08  0.3574E-12  0.3706E-04  0.0000E+00 -0.8879E+11
   -2.131266    3.99595  0.7214E-10  0.6328E-08  0.3842E-12  0.3550E-04  0.0000E+00 -0.1003E+12
   -2.200016    3.99659  0.7214E-10  0.6390E-08  0.4175E-12  0.3330E-04  0.0000E+00 -0.1161E+12
   -2.268765    3.99729  0.7214E-10  0.6430E-08  0.4603E-12  0.3041E-04  0.0000E+00 -0.1391E+12
   -2.337515    3.99807  0.7214E-10  0.6437E-08  0.5181E-12  0.2680E-04  0.0000E+00 -0.1748E+12
   -2.406263    3.99898  0.7214E-10  0.6395E-08  0.6013E-12  0.2238E-04  0.0000E+00 -0.2362E+12
   -2.475011    4.00012  0.7214E-10  0.6267E-08  0.7342E-12  0.1711E-04  0.0000E+00 -0.3609E+12
   -2.543759    4.00170  0.7214E-10  0.5954E-08  0.9889E-12  0.1082E-04  0.0000E+00 -0.7000E+12
   -2.612506    4.00437  0.7214E-10  0.5204E-08  0.1609E-11  0.4573E-05  0.0000E+00 -0.2254E+13
   -2.681252    4.01109  0.7214E-10  0.2942E-08  0.4630E-11  0.4454E-06  0.0000E+00 -0.5187E+14
   -2.749998    4.07140  0.7214E-10  0.0000E+00  0.0000E+00  0.0000E+00  0.0000E+00  0.0000E+00
