 1 - depth, m
 2 - temperature, C
 3 - salinity, kg/kg
 4 - turbulent kinetic energy, m**2/s**2
 5 - dissipation rate, m**2/s**3
 6 - kinematic heat conductance, m**2/s
 7 - modulus of horizontal velocity, m/s
 8 - Richardson number, n/d
   -0.000000   -0.00000  0.1236E-09  0.1219E-13  0.7603E-17  0.1000E-09  0.0000E+00  0.1369E+17
   -0.068746    0.21138  0.1557E-09  0.3657E-13  0.7603E-17  0.1000E-09  0.0000E+00  0.1294E+17
   -0.137492    0.42343  0.1414E-09  0.1103E-12  0.1064E-16  0.1000E-09  0.0000E+00  0.1209E+17
   -0.206239    0.63435  0.1095E-09  0.2539E-12  0.1988E-16  0.1000E-09  0.0000E+00  0.1123E+17
   -0.274987    0.84381  0.8588E-10  0.5287E-12  0.3866E-16  0.1000E-09  0.0000E+00  0.1039E+17
   -0.343735    1.05154  0.7413E-10  0.1056E-11  0.7464E-16  0.1000E-09  0.0000E+00  0.9572E+16
   -0.412484    1.25765  0.6952E-10  0.2069E-11  0.1426E-15  0.1000E-09  0.0000E+00  0.8765E+16
   -0.481233    1.46183  0.6798E-10  0.4010E-11  0.2704E-15  0.1000E-09  0.0000E+00  0.7972E+16
   -0.549983    1.66377  0.6751E-10  0.7713E-11  0.5088E-15  0.1000E-09  0.0000E+00  0.7205E+16
   -0.618733    1.86343  0.6736E-10  0.1468E-10  0.9479E-15  0.1000E-09  0.0000E+00  0.6465E+16
   -0.687483    2.06081  0.6727E-10  0.2772E-10  0.1753E-14  0.1000E-09  0.0000E+00  0.5744E+16
   -0.756234    2.25560  0.6715E-10  0.5199E-10  0.3220E-14  0.1000E-09  0.0000E+00  0.5056E+16
   -0.824985    2.44797  0.6693E-10  0.9690E-10  0.5877E-14  0.1000E-09  0.0000E+00  0.4388E+16
   -0.893736    2.63759  0.6658E-10  0.1795E-09  0.1066E-13  0.1000E-09  0.0000E+00  0.3744E+16
   -0.962488    2.82418  0.6612E-10  0.3304E-09  0.1923E-13  0.1000E-09  0.0000E+00  0.3127E+16
   -1.031240    3.00752  0.6564E-10  0.6044E-09  0.3449E-13  0.1000E-09  0.0000E+00  0.2541E+16
   -1.099992    3.18742  0.6524E-10  0.1103E-08  0.6166E-13  0.1583E-09  0.0000E+00  0.1983E+16
   -1.168744    3.36352  0.6499E-10  0.2003E-08  0.1098E-12  0.3828E-09  0.0000E+00  0.1460E+16
   -1.237496    3.53568  0.6487E-10  0.3618E-08  0.1945E-12  0.1020E-08  0.0000E+00  0.9704E+15
   -1.306248    3.70365  0.6482E-10  0.6492E-08  0.3423E-12  0.3392E-08  0.0000E+00  0.5138E+15
   -1.375001    3.86580  0.6480E-10  0.1145E-07  0.5930E-12  0.2706E-07  0.0000E+00  0.1116E+15
   -1.443753    4.00338  0.6480E-10  0.1186E-07  0.6157E-12  0.8864E-04  0.0000E+00 -0.7021E+11
   -1.512505    4.00364  0.6480E-10  0.1204E-07  0.6274E-12  0.9213E-04  0.0000E+00 -0.6862E+11
   -1.581258    4.00389  0.6480E-10  0.1218E-07  0.6389E-12  0.9219E-04  0.0000E+00 -0.6962E+11
   -1.650010    4.00415  0.6480E-10  0.1231E-07  0.6510E-12  0.9222E-04  0.0000E+00 -0.7067E+11
   -1.718762    4.00440  0.6480E-10  0.1241E-07  0.6642E-12  0.9190E-04  0.0000E+00 -0.7200E+11
   -1.787513    4.00465  0.6480E-10  0.1250E-07  0.6790E-12  0.9119E-04  0.0000E+00 -0.7368E+11
   -1.856265    4.00490  0.6480E-10  0.1257E-07  0.6956E-12  0.9004E-04  0.0000E+00 -0.7577E+11
   -1.925016    4.00516  0.6480E-10  0.1263E-07  0.7147E-12  0.8849E-04  0.0000E+00 -0.7831E+11
   -1.993767    4.00542  0.6480E-10  0.1266E-07  0.7369E-12  0.8465E-04  0.0000E+00 -0.8319E+11
   -2.062518    4.00570  0.6480E-10  0.1267E-07  0.7631E-12  0.7828E-04  0.0000E+00 -0.9172E+11
   -2.131269    4.00600  0.6480E-10  0.1265E-07  0.7957E-12  0.7133E-04  0.0000E+00 -0.1030E+12
   -2.200019    4.00633  0.6480E-10  0.1260E-07  0.8372E-12  0.6444E-04  0.0000E+00 -0.1171E+12
   -2.268768    4.00670  0.6480E-10  0.1251E-07  0.8913E-12  0.5772E-04  0.0000E+00 -0.1349E+12
   -2.337518    4.00712  0.6480E-10  0.1235E-07  0.9649E-12  0.5050E-04  0.0000E+00 -0.1601E+12
   -2.406266    4.00760  0.6480E-10  0.1211E-07  0.1071E-11  0.4218E-04  0.0000E+00 -0.2009E+12
   -2.475014    4.00820  0.6480E-10  0.1171E-07  0.1240E-11  0.3245E-04  0.0000E+00 -0.2782E+12
   -2.543762    4.00900  0.6480E-10  0.1102E-07  0.1556E-11  0.2105E-04  0.0000E+00 -0.4667E+12
   -2.612509    4.01027  0.6480E-10  0.9646E-08  0.2297E-11  0.9507E-05  0.0000E+00 -0.1169E+13
   -2.681256    4.01321  0.6480E-10  0.4458E-08  0.6688E-11  0.5495E-06  0.0000E+00 -0.3359E+14
   -2.750001    4.05712  0.6480E-10  0.0000E+00  0.0000E+00  0.0000E+00  0.0000E+00  0.0000E+00
