 1 - depth, m
 2 - temperature, C
 3 - salinity, kg/kg
 4 - turbulent kinetic energy, m**2/s**2
 5 - dissipation rate, m**2/s**3
 6 - kinematic heat conductance, m**2/s
 7 - modulus of horizontal velocity, m/s
 8 - Richardson number, n/d
   -0.000000    8.05588  0.6532E-10  0.2564E-03  0.1148E-03  0.1251E-03  0.1589E+00  0.4796E-03
   -0.068746    8.06786  0.6532E-10  0.1404E-03  0.2889E-04  0.2321E-03  0.5199E-01 -0.2911E-02
   -0.137492    8.06958  0.6532E-10  0.1011E-03  0.1256E-04  0.2127E-03  0.4047E-01 -0.1840E-02
   -0.206239    8.07085  0.6532E-10  0.7553E-04  0.6021E-05  0.2088E-03  0.3407E-01 -0.1427E-02
   -0.274987    8.07189  0.6532E-10  0.5863E-04  0.3106E-05  0.2164E-03  0.2943E-01 -0.4101E-02
   -0.343735    8.07278  0.6532E-10  0.4743E-04  0.1722E-05  0.2272E-03  0.2579E-01 -0.5056E-02
   -0.412484    8.07359  0.6532E-10  0.3957E-04  0.1022E-05  0.2443E-03  0.2269E-01 -0.6609E-02
   -0.481233    8.07431  0.6532E-10  0.3399E-04  0.6474E-06  0.2672E-03  0.2012E-01 -0.9050E-02
   -0.549983    8.07495  0.6532E-10  0.3009E-04  0.4371E-06  0.2911E-03  0.1802E-01 -0.1159E-01
   -0.618733    8.07553  0.6532E-10  0.2732E-04  0.3131E-06  0.3142E-03  0.1624E-01 -0.1378E-01
   -0.687483    8.07608  0.6532E-10  0.2524E-04  0.2352E-06  0.3392E-03  0.1465E-01 -0.1651E-01
   -0.756234    8.07659  0.6532E-10  0.2360E-04  0.1839E-06  0.3646E-03  0.1324E-01 -0.1973E-01
   -0.824985    8.07708  0.6532E-10  0.2223E-04  0.1484E-06  0.3893E-03  0.1199E-01 -0.2341E-01
   -0.893736    8.07755  0.6532E-10  0.2104E-04  0.1228E-06  0.4124E-03  0.1085E-01 -0.2745E-01
   -0.962488    8.07800  0.6532E-10  0.1996E-04  0.1034E-06  0.4328E-03  0.9825E-02 -0.3172E-01
   -1.031240    8.07845  0.6532E-10  0.1892E-04  0.8817E-07  0.4525E-03  0.8876E-02 -0.3713E-01
   -1.099992    8.07888  0.6532E-10  0.1791E-04  0.7573E-07  0.4780E-03  0.8005E-02 -0.4689E-01
   -1.168744    8.07931  0.6532E-10  0.1695E-04  0.6556E-07  0.5015E-03  0.7237E-02 -0.5750E-01
   -1.237496    8.07972  0.6532E-10  0.1605E-04  0.5716E-07  0.5255E-03  0.6554E-02 -0.5201E-01
   -1.306249    8.08012  0.6532E-10  0.1521E-04  0.5017E-07  0.5591E-03  0.5942E-02  0.2768E+01
   -1.375001    8.08051  0.6533E-10  0.1443E-04  0.4432E-07  0.5980E-03  0.5390E-02  0.2605E+02
   -1.443753    8.08089  0.6533E-10  0.1371E-04  0.3939E-07  0.6314E-03  0.4890E-02  0.3693E+01
   -1.512505    8.08127  0.6533E-10  0.1305E-04  0.3522E-07  0.6702E-03  0.4435E-02  0.3092E+02
   -1.581258    8.08163  0.6533E-10  0.1243E-04  0.3168E-07  0.7278E-03  0.4019E-02  0.1361E+03
   -1.650010    8.08197  0.6533E-10  0.1187E-04  0.2867E-07  0.8013E-03  0.3637E-02  0.1618E+02
   -1.718762    8.08230  0.6533E-10  0.1134E-04  0.2611E-07  0.8594E-03  0.3285E-02  0.7677E+02
   -1.787514    8.08262  0.6533E-10  0.1086E-04  0.2393E-07  0.9204E-03  0.2957E-02  0.9114E+02
   -1.856265    8.08292  0.6533E-10  0.1041E-04  0.2207E-07  0.9626E-03  0.2651E-02  0.1091E+03
   -1.925017    8.08322  0.6533E-10  0.9978E-05  0.2049E-07  0.9934E-03  0.2360E-02  0.1396E+03
   -1.993768    8.08352  0.6533E-10  0.9571E-05  0.1914E-07  0.1014E-02  0.2082E-02  0.3992E+02
   -2.062518    8.08382  0.6533E-10  0.9180E-05  0.1801E-07  0.1031E-02  0.1812E-02  0.4881E+02
   -2.131269    8.08413  0.6533E-10  0.8792E-05  0.1705E-07  0.1029E-02  0.1569E-02  0.9193E+01
   -2.200019    8.08444  0.6533E-10  0.8412E-05  0.1628E-07  0.9993E-03  0.1355E-02  0.1824E+01
   -2.268769    8.08476  0.6533E-10  0.8038E-05  0.1571E-07  0.9523E-03  0.1169E-02  0.3331E+01
   -2.337518    8.08510  0.6533E-10  0.7670E-05  0.1538E-07  0.8905E-03  0.1007E-02  0.3775E+01
   -2.406267    8.08547  0.6533E-10  0.7299E-05  0.1534E-07  0.8193E-03  0.8686E-03  0.7884E+01
   -2.475015    8.08588  0.6533E-10  0.6896E-05  0.1574E-07  0.7305E-03  0.7519E-03  0.2635E+02
   -2.543762    8.08635  0.6533E-10  0.6389E-05  0.1704E-07  0.5704E-03  0.6522E-03  0.1524E+02
   -2.612509    8.08698  0.6533E-10  0.5653E-05  0.2081E-07  0.2647E-03  0.5633E-03  0.6387E+05
   -2.681256    8.08829  0.6533E-10  0.2451E-05  0.5570E-07  0.1451E-04  0.4744E-03 -0.1138E+05
   -2.750002    8.11300  0.6533E-10  0.0000E+00  0.0000E+00  0.0000E+00  0.4701E-03  0.0000E+00
