 1 - depth, m
 2 - temperature, C
 3 - salinity, kg/kg
 4 - turbulent kinetic energy, m**2/s**2
 5 - dissipation rate, m**2/s**3
 6 - kinematic heat conductance, m**2/s
 7 - modulus of horizontal velocity, m/s
 8 - Richardson number, n/d
   -0.000000   -0.00000  0.1359E-09  0.7798E-13  0.1045E-16  0.1000E-09  0.0000E+00  0.1413E+17
   -0.068746    0.21830  0.1822E-09  0.1446E-12  0.1311E-16  0.1000E-09  0.0000E+00  0.1337E+17
   -0.137492    0.43803  0.1410E-09  0.2966E-12  0.2291E-16  0.1000E-09  0.0000E+00  0.1249E+17
   -0.206239    0.65727  0.9927E-10  0.5986E-12  0.4351E-16  0.1000E-09  0.0000E+00  0.1160E+17
   -0.274987    0.87561  0.7841E-10  0.1186E-11  0.8348E-16  0.1000E-09  0.0000E+00  0.1072E+17
   -0.343735    1.09273  0.7066E-10  0.2317E-11  0.1592E-15  0.1000E-09  0.0000E+00  0.9858E+16
   -0.412484    1.30867  0.6825E-10  0.4483E-11  0.3012E-15  0.1000E-09  0.0000E+00  0.8998E+16
   -0.481233    1.52305  0.6758E-10  0.8607E-11  0.5662E-15  0.1000E-09  0.0000E+00  0.8145E+16
   -0.549983    1.73542  0.6740E-10  0.1642E-10  0.1058E-14  0.1000E-09  0.0000E+00  0.7315E+16
   -0.618733    1.94567  0.6734E-10  0.3101E-10  0.1957E-14  0.1000E-09  0.0000E+00  0.6510E+16
   -0.687484    2.15369  0.6727E-10  0.5814E-10  0.3596E-14  0.1000E-09  0.0000E+00  0.5720E+16
   -0.756235    2.35899  0.6716E-10  0.1083E-09  0.6566E-14  0.1000E-09  0.0000E+00  0.4964E+16
   -0.824986    2.56164  0.6694E-10  0.2007E-09  0.1192E-13  0.1000E-09  0.0000E+00  0.4226E+16
   -0.893737    2.76101  0.6657E-10  0.3695E-09  0.2152E-13  0.1000E-09  0.0000E+00  0.3515E+16
   -0.962489    2.95649  0.6606E-10  0.6765E-09  0.3862E-13  0.1000E-09  0.0000E+00  0.2839E+16
   -1.031241    3.14760  0.6553E-10  0.1231E-08  0.6893E-13  0.1593E-09  0.0000E+00  0.2202E+16
   -1.099993    3.33394  0.6513E-10  0.2235E-08  0.1227E-12  0.3883E-09  0.0000E+00  0.1609E+16
   -1.168745    3.51516  0.6492E-10  0.4041E-08  0.2176E-12  0.1042E-08  0.0000E+00  0.1063E+16
   -1.237497    3.69123  0.6483E-10  0.7258E-08  0.3836E-12  0.3481E-08  0.0000E+00  0.5610E+15
   -1.306249    3.86103  0.6480E-10  0.1281E-07  0.6655E-12  0.2811E-07  0.0000E+00  0.1206E+15
   -1.375002    4.00424  0.6480E-10  0.1323E-07  0.6885E-12  0.1000E-03  0.0000E+00 -0.6822E+11
   -1.443754    4.00448  0.6480E-10  0.1340E-07  0.6997E-12  0.1009E-03  0.0000E+00 -0.6866E+11
   -1.512506    4.00472  0.6480E-10  0.1353E-07  0.7106E-12  0.1011E-03  0.0000E+00 -0.6959E+11
   -1.581259    4.00496  0.6480E-10  0.1365E-07  0.7223E-12  0.1012E-03  0.0000E+00 -0.7059E+11
   -1.650011    4.00520  0.6480E-10  0.1376E-07  0.7352E-12  0.1009E-03  0.0000E+00 -0.7184E+11
   -1.718763    4.00544  0.6480E-10  0.1385E-07  0.7491E-12  0.1003E-03  0.0000E+00 -0.7337E+11
   -1.787515    4.00569  0.6480E-10  0.1392E-07  0.7643E-12  0.9941E-04  0.0000E+00 -0.7520E+11
   -1.856266    4.00593  0.6480E-10  0.1398E-07  0.7813E-12  0.9809E-04  0.0000E+00 -0.7741E+11
   -1.925018    4.00618  0.6480E-10  0.1402E-07  0.8010E-12  0.9632E-04  0.0000E+00 -0.8010E+11
   -1.993769    4.00644  0.6480E-10  0.1404E-07  0.8243E-12  0.9406E-04  0.0000E+00 -0.8336E+11
   -2.062520    4.00670  0.6480E-10  0.1404E-07  0.8525E-12  0.9033E-04  0.0000E+00 -0.8845E+11
   -2.131270    4.00698  0.6480E-10  0.1401E-07  0.8886E-12  0.8159E-04  0.0000E+00 -0.1001E+12
   -2.200020    4.00728  0.6480E-10  0.1395E-07  0.9348E-12  0.7215E-04  0.0000E+00 -0.1161E+12
   -2.268770    4.00763  0.6480E-10  0.1383E-07  0.9956E-12  0.6342E-04  0.0000E+00 -0.1360E+12
   -2.337519    4.00804  0.6480E-10  0.1366E-07  0.1079E-11  0.5498E-04  0.0000E+00 -0.1627E+12
   -2.406268    4.00851  0.6480E-10  0.1339E-07  0.1199E-11  0.4575E-04  0.0000E+00 -0.2048E+12
   -2.475016    4.00909  0.6480E-10  0.1296E-07  0.1389E-11  0.3512E-04  0.0000E+00 -0.2837E+12
   -2.543764    4.00987  0.6480E-10  0.1220E-07  0.1746E-11  0.2276E-04  0.0000E+00 -0.4752E+12
   -2.612511    4.01113  0.6480E-10  0.1071E-07  0.2577E-11  0.1033E-04  0.0000E+00 -0.1179E+13
   -2.681258    4.01399  0.6480E-10  0.4965E-08  0.7593E-11  0.5926E-06  0.0000E+00 -0.3408E+14
   -2.750003    4.05787  0.6480E-10  0.0000E+00  0.0000E+00  0.0000E+00  0.0000E+00  0.0000E+00
