 1 - depth, m
 2 - temperature, C
 3 - salinity, kg/kg
 4 - turbulent kinetic energy, m**2/s**2
 5 - dissipation rate, m**2/s**3
 6 - kinematic heat conductance, m**2/s
 7 - modulus of horizontal velocity, m/s
 8 - Richardson number, n/d
   -0.000000   -0.00000  0.2611E-09  0.1219E-13  0.7603E-17  0.1000E-09  0.0000E+00  0.1157E+17
   -0.068746    0.17782  0.1340E-09  0.1219E-13  0.7603E-17  0.1000E-09  0.0000E+00  0.1054E+17
   -0.137492    0.34787  0.8700E-10  0.1219E-13  0.7603E-17  0.1000E-09  0.0000E+00  0.9378E+16
   -0.206239    0.50659  0.7719E-10  0.1219E-13  0.7603E-17  0.1000E-09  0.0000E+00  0.8294E+16
   -0.274986    0.65364  0.7573E-10  0.1219E-13  0.7603E-17  0.1000E-09  0.0000E+00  0.7317E+16
   -0.343734    0.78931  0.7555E-10  0.1219E-13  0.7603E-17  0.1000E-09  0.0000E+00  0.6586E+16
   -0.412483    0.91684  0.7553E-10  0.1219E-13  0.7603E-17  0.1000E-09  0.0000E+00  0.5931E+16
   -0.481232    1.03666  0.7552E-10  0.1219E-13  0.7603E-17  0.1000E-09  0.0000E+00  0.5354E+16
   -0.549982    1.14937  0.7552E-10  0.3688E-13  0.7603E-17  0.1000E-09  0.0000E+00  0.4957E+16
   -0.618732    1.25809  0.7552E-10  0.1100E-12  0.1449E-16  0.1000E-09  0.0000E+00  0.4730E+16
   -0.687482    1.36622  0.7552E-10  0.2754E-12  0.3273E-16  0.1000E-09  0.0000E+00  0.4564E+16
   -0.756233    1.47517  0.7552E-10  0.6492E-12  0.7412E-16  0.1000E-09  0.0000E+00  0.4542E+16
   -0.824983    1.58874  0.7552E-10  0.1495E-11  0.1659E-15  0.1000E-09  0.0000E+00  0.4544E+16
   -0.893735    1.70823  0.7551E-10  0.3397E-11  0.3672E-15  0.1000E-09  0.0000E+00  0.4557E+16
   -0.962486    1.83500  0.7547E-10  0.7640E-11  0.8048E-15  0.1000E-09  0.0000E+00  0.4568E+16
   -1.031238    1.97036  0.7535E-10  0.1702E-10  0.1748E-14  0.1000E-09  0.0000E+00  0.4549E+16
   -1.099990    2.11520  0.7512E-10  0.3768E-10  0.3776E-14  0.1000E-09  0.0000E+00  0.4462E+16
   -1.168742    2.26949  0.7478E-10  0.8283E-10  0.8100E-14  0.1000E-09  0.0000E+00  0.4341E+16
   -1.237494    2.43468  0.7438E-10  0.1806E-09  0.1724E-13  0.1000E-09  0.0000E+00  0.4168E+16
   -1.306246    2.61240  0.7402E-10  0.3905E-09  0.3639E-13  0.1000E-09  0.0000E+00  0.3923E+16
   -1.374998    2.80443  0.7376E-10  0.8375E-09  0.7624E-13  0.1080E-09  0.0000E+00  0.3594E+16
   -1.443750    3.01382  0.7354E-10  0.1782E-08  0.1585E-12  0.2580E-09  0.0000E+00  0.3130E+16
   -1.512502    3.24361  0.7326E-10  0.3762E-08  0.3270E-12  0.6838E-09  0.0000E+00  0.2439E+16
   -1.581255    3.49301  0.7280E-10  0.7873E-08  0.6692E-12  0.2272E-08  0.0000E+00  0.1504E+16
   -1.650007    3.75717  0.7208E-10  0.1622E-07  0.1349E-11  0.1693E-07  0.0000E+00  0.4090E+15
   -1.718758    4.00825  0.7167E-10  0.1715E-07  0.1431E-11  0.7463E-04  0.0000E+00 -0.1865E+12
   -1.787510    4.00879  0.7167E-10  0.1756E-07  0.1477E-11  0.8052E-04  0.0000E+00 -0.1802E+12
   -1.856262    4.00930  0.7167E-10  0.1791E-07  0.1525E-11  0.8300E-04  0.0000E+00 -0.1819E+12
   -1.925013    4.00980  0.7167E-10  0.1820E-07  0.1577E-11  0.8296E-04  0.0000E+00 -0.1894E+12
   -1.993764    4.01031  0.7167E-10  0.1843E-07  0.1634E-11  0.8228E-04  0.0000E+00 -0.1989E+12
   -2.062514    4.01083  0.7167E-10  0.1862E-07  0.1699E-11  0.8058E-04  0.0000E+00 -0.2107E+12
   -2.131265    4.01137  0.7167E-10  0.1876E-07  0.1780E-11  0.7640E-04  0.0000E+00 -0.2305E+12
   -2.200015    4.01196  0.7167E-10  0.1884E-07  0.1881E-11  0.7004E-04  0.0000E+00 -0.2619E+12
   -2.268764    4.01260  0.7167E-10  0.1886E-07  0.2013E-11  0.6273E-04  0.0000E+00 -0.3064E+12
   -2.337513    4.01334  0.7167E-10  0.1878E-07  0.2191E-11  0.5516E-04  0.0000E+00 -0.3681E+12
   -2.406262    4.01419  0.7167E-10  0.1857E-07  0.2444E-11  0.4681E-04  0.0000E+00 -0.4641E+12
   -2.475010    4.01524  0.7167E-10  0.1813E-07  0.2841E-11  0.3689E-04  0.0000E+00 -0.6433E+12
   -2.543757    4.01663  0.7167E-10  0.1725E-07  0.3574E-11  0.2473E-04  0.0000E+00 -0.1076E+13
   -2.612504    4.01881  0.7167E-10  0.1538E-07  0.5250E-11  0.1178E-04  0.0000E+00 -0.2657E+13
   -2.681251    4.02367  0.7167E-10  0.8120E-08  0.1500E-10  0.9263E-06  0.0000E+00 -0.6220E+14
   -2.749996    4.08298  0.7167E-10  0.0000E+00  0.0000E+00  0.0000E+00  0.0000E+00  0.0000E+00
