 1 - depth, m
 2 - temperature, C
 3 - salinity, kg/kg
 4 - turbulent kinetic energy, m**2/s**2
 5 - dissipation rate, m**2/s**3
 6 - kinematic heat conductance, m**2/s
 7 - modulus of horizontal velocity, m/s
 8 - Richardson number, n/d
   -0.000000   -0.00000  0.2568E-09  0.7472E-13  0.1147E-16  0.1000E-09  0.0000E+00  0.1401E+17
   -0.068746    0.21650  0.1367E-09  0.1513E-12  0.1588E-16  0.1000E-09  0.0000E+00  0.1292E+17
   -0.137492    0.42852  0.9402E-10  0.3361E-12  0.3076E-16  0.1000E-09  0.0000E+00  0.1179E+17
   -0.206239    0.63444  0.7743E-10  0.7307E-12  0.6342E-16  0.1000E-09  0.0000E+00  0.1076E+17
   -0.274986    0.83482  0.7265E-10  0.1556E-11  0.1308E-15  0.1000E-09  0.0000E+00  0.9835E+16
   -0.343734    1.03048  0.7157E-10  0.3259E-11  0.2663E-15  0.1000E-09  0.0000E+00  0.9051E+16
   -0.412483    1.22341  0.7136E-10  0.6734E-11  0.5361E-15  0.1000E-09  0.0000E+00  0.8326E+16
   -0.481232    1.41424  0.7133E-10  0.1376E-10  0.1067E-14  0.1000E-09  0.0000E+00  0.7648E+16
   -0.549981    1.60358  0.7133E-10  0.2782E-10  0.2103E-14  0.1000E-09  0.0000E+00  0.7043E+16
   -0.618731    1.79297  0.7132E-10  0.5548E-10  0.4086E-14  0.1000E-09  0.0000E+00  0.6491E+16
   -0.687482    1.98396  0.7132E-10  0.1094E-09  0.7853E-14  0.1000E-09  0.0000E+00  0.5950E+16
   -0.756232    2.17728  0.7132E-10  0.2136E-09  0.1495E-13  0.1000E-09  0.0000E+00  0.5468E+16
   -0.824983    2.37595  0.7131E-10  0.4129E-09  0.2818E-13  0.1000E-09  0.0000E+00  0.4955E+16
   -0.893734    2.58072  0.7127E-10  0.7910E-09  0.5267E-13  0.1000E-09  0.0000E+00  0.4406E+16
   -0.962486    2.79271  0.7120E-10  0.1502E-08  0.9757E-13  0.1302E-09  0.0000E+00  0.3815E+16
   -1.031237    3.01370  0.7105E-10  0.2826E-08  0.1792E-12  0.2884E-09  0.0000E+00  0.3162E+16
   -1.099989    3.24625  0.7077E-10  0.5289E-08  0.3276E-12  0.6914E-09  0.0000E+00  0.2409E+16
   -1.168741    3.49324  0.7022E-10  0.9830E-08  0.5948E-12  0.2034E-08  0.0000E+00  0.1487E+16
   -1.237493    3.75278  0.6915E-10  0.1803E-07  0.1067E-11  0.1273E-07  0.0000E+00  0.4265E+15
   -1.306245    4.00259  0.6846E-10  0.1855E-07  0.1100E-11  0.1199E-03  0.0000E+00 -0.8245E+11
   -1.374998    4.00291  0.6846E-10  0.1876E-07  0.1116E-11  0.1207E-03  0.0000E+00 -0.8388E+11
   -1.443750    4.00323  0.6846E-10  0.1894E-07  0.1132E-11  0.1209E-03  0.0000E+00 -0.8540E+11
   -1.512502    4.00355  0.6846E-10  0.1910E-07  0.1149E-11  0.1211E-03  0.0000E+00 -0.8700E+11
   -1.581254    4.00387  0.6846E-10  0.1924E-07  0.1169E-11  0.1208E-03  0.0000E+00 -0.8888E+11
   -1.650006    4.00419  0.6846E-10  0.1936E-07  0.1190E-11  0.1203E-03  0.0000E+00 -0.9106E+11
   -1.718758    4.00451  0.6846E-10  0.1946E-07  0.1213E-11  0.1193E-03  0.0000E+00 -0.9359E+11
   -1.787509    4.00484  0.6846E-10  0.1955E-07  0.1239E-11  0.1180E-03  0.0000E+00 -0.9652E+11
   -1.856261    4.00517  0.6846E-10  0.1961E-07  0.1267E-11  0.1163E-03  0.0000E+00 -0.9991E+11
   -1.925012    4.00551  0.6846E-10  0.1965E-07  0.1298E-11  0.1142E-03  0.0000E+00 -0.1038E+12
   -1.993763    4.00585  0.6846E-10  0.1967E-07  0.1333E-11  0.1117E-03  0.0000E+00 -0.1084E+12
   -2.062513    4.00620  0.6846E-10  0.1967E-07  0.1373E-11  0.1086E-03  0.0000E+00 -0.1139E+12
   -2.131264    4.00656  0.6846E-10  0.1963E-07  0.1427E-11  0.1046E-03  0.0000E+00 -0.1212E+12
   -2.200014    4.00694  0.6846E-10  0.1955E-07  0.1499E-11  0.9418E-04  0.0000E+00 -0.1382E+12
   -2.268763    4.00736  0.6846E-10  0.1940E-07  0.1598E-11  0.7980E-04  0.0000E+00 -0.1683E+12
   -2.337512    4.00787  0.6846E-10  0.1916E-07  0.1734E-11  0.6699E-04  0.0000E+00 -0.2085E+12
   -2.406261    4.00848  0.6846E-10  0.1880E-07  0.1932E-11  0.5511E-04  0.0000E+00 -0.2663E+12
   -2.475009    4.00923  0.6846E-10  0.1822E-07  0.2247E-11  0.4227E-04  0.0000E+00 -0.3710E+12
   -2.543756    4.01024  0.6846E-10  0.1721E-07  0.2837E-11  0.2753E-04  0.0000E+00 -0.6230E+12
   -2.612503    4.01185  0.6846E-10  0.1525E-07  0.4199E-11  0.1276E-04  0.0000E+00 -0.1536E+13
   -2.681249    4.01544  0.6846E-10  0.7428E-08  0.1262E-10  0.8177E-06  0.0000E+00 -0.4399E+14
   -2.749995    4.06674  0.6846E-10  0.0000E+00  0.0000E+00  0.0000E+00  0.0000E+00  0.0000E+00
