 1 - depth, m
 2 - temperature, C
 3 - salinity, kg/kg
 4 - turbulent kinetic energy, m**2/s**2
 5 - dissipation rate, m**2/s**3
 6 - kinematic heat conductance, m**2/s
 7 - modulus of horizontal velocity, m/s
 8 - Richardson number, n/d
   -0.000000   -0.00000  0.4471E-10  0.1218E-13  0.7603E-17  0.1000E-09  0.0000E+00  0.1133E+17
   -0.068746    0.17394  0.1242E-09  0.1218E-13  0.7603E-17  0.1000E-09  0.0000E+00  0.1126E+17
   -0.137493    0.35567  0.1356E-09  0.1218E-13  0.7603E-17  0.1000E-09  0.0000E+00  0.1092E+17
   -0.206241    0.54162  0.1211E-09  0.1359E-13  0.7603E-17  0.1000E-09  0.0000E+00  0.1044E+17
   -0.274989    0.72991  0.1008E-09  0.6394E-13  0.7829E-17  0.1000E-09  0.0000E+00  0.9863E+16
   -0.343738    0.91907  0.8464E-10  0.1659E-12  0.1385E-16  0.1000E-09  0.0000E+00  0.9258E+16
   -0.412487    1.10855  0.7503E-10  0.3592E-12  0.2692E-16  0.1000E-09  0.0000E+00  0.8615E+16
   -0.481237    1.29743  0.7035E-10  0.7300E-12  0.5236E-16  0.1000E-09  0.0000E+00  0.7952E+16
   -0.549987    1.48502  0.6839E-10  0.1446E-11  0.1009E-15  0.1000E-09  0.0000E+00  0.7301E+16
   -0.618738    1.67119  0.6765E-10  0.2816E-11  0.1919E-15  0.1000E-09  0.0000E+00  0.6669E+16
   -0.687489    1.85600  0.6736E-10  0.5430E-11  0.3618E-15  0.1000E-09  0.0000E+00  0.6043E+16
   -0.756240    2.03911  0.6718E-10  0.1039E-10  0.6771E-15  0.1000E-09  0.0000E+00  0.5434E+16
   -0.824992    2.22049  0.6698E-10  0.1973E-10  0.1259E-14  0.1000E-09  0.0000E+00  0.4838E+16
   -0.893744    2.39986  0.6669E-10  0.3723E-10  0.2324E-14  0.1000E-09  0.0000E+00  0.4255E+16
   -0.962496    2.57692  0.6631E-10  0.6976E-10  0.4263E-14  0.1000E-09  0.0000E+00  0.3690E+16
   -1.031248    2.75135  0.6588E-10  0.1299E-09  0.7770E-14  0.1000E-09  0.0000E+00  0.3141E+16
   -1.100001    2.92264  0.6549E-10  0.2409E-09  0.1411E-13  0.1000E-09  0.0000E+00  0.2606E+16
   -1.168754    3.08977  0.6518E-10  0.4449E-09  0.2552E-13  0.1000E-09  0.0000E+00  0.2105E+16
   -1.237506    3.25244  0.6498E-10  0.8167E-09  0.4589E-13  0.1426E-09  0.0000E+00  0.1639E+16
   -1.306259    3.41053  0.6488E-10  0.1490E-08  0.8202E-13  0.3453E-09  0.0000E+00  0.1210E+16
   -1.375012    3.56414  0.6483E-10  0.2702E-08  0.1457E-12  0.9029E-09  0.0000E+00  0.8230E+15
   -1.443765    3.71474  0.6481E-10  0.4864E-08  0.2571E-12  0.2840E-08  0.0000E+00  0.4623E+15
   -1.512518    3.86409  0.6480E-10  0.8627E-08  0.4474E-12  0.1986E-07  0.0000E+00  0.1158E+15
   -1.581271    4.00022  0.6480E-10  0.9042E-08  0.4700E-12  0.6492E-04  0.0000E+00 -0.7557E+11
   -1.650023    4.00056  0.6480E-10  0.9226E-08  0.4822E-12  0.6682E-04  0.0000E+00 -0.7481E+11
   -1.718776    4.00089  0.6480E-10  0.9383E-08  0.4949E-12  0.6715E-04  0.0000E+00 -0.7570E+11
   -1.787528    4.00122  0.6480E-10  0.9515E-08  0.5084E-12  0.6664E-04  0.0000E+00 -0.7752E+11
   -1.856280    4.00155  0.6480E-10  0.9624E-08  0.5231E-12  0.6553E-04  0.0000E+00 -0.8010E+11
   -1.925032    4.00188  0.6480E-10  0.9711E-08  0.5394E-12  0.6379E-04  0.0000E+00 -0.8360E+11
   -1.993784    4.00222  0.6480E-10  0.9774E-08  0.5577E-12  0.6133E-04  0.0000E+00 -0.8834E+11
   -2.062535    4.00257  0.6480E-10  0.9813E-08  0.5787E-12  0.5848E-04  0.0000E+00 -0.9469E+11
   -2.131286    4.00294  0.6480E-10  0.9826E-08  0.6044E-12  0.5523E-04  0.0000E+00 -0.1030E+12
   -2.200037    4.00333  0.6480E-10  0.9809E-08  0.6366E-12  0.5139E-04  0.0000E+00 -0.1142E+12
   -2.268787    4.00376  0.6480E-10  0.9754E-08  0.6782E-12  0.4679E-04  0.0000E+00 -0.1299E+12
   -2.337537    4.00423  0.6480E-10  0.9648E-08  0.7345E-12  0.4125E-04  0.0000E+00 -0.1536E+12
   -2.406286    4.00477  0.6480E-10  0.9467E-08  0.8156E-12  0.3460E-04  0.0000E+00 -0.1929E+12
   -2.475035    4.00542  0.6480E-10  0.9162E-08  0.9445E-12  0.2668E-04  0.0000E+00 -0.2681E+12
   -2.543783    4.00630  0.6480E-10  0.8604E-08  0.1188E-11  0.1726E-04  0.0000E+00 -0.4550E+12
   -2.612531    4.00770  0.6480E-10  0.7476E-08  0.1765E-11  0.7647E-05  0.0000E+00 -0.1182E+13
   -2.681278    4.01098  0.6480E-10  0.3482E-08  0.5031E-11  0.4660E-06  0.0000E+00 -0.3361E+14
   -2.750024    4.05633  0.6480E-10  0.0000E+00  0.0000E+00  0.0000E+00  0.0000E+00  0.0000E+00
