 1 - depth, m
 2 - temperature, C
 3 - salinity, kg/kg
 4 - turbulent kinetic energy, m**2/s**2
 5 - dissipation rate, m**2/s**3
 6 - kinematic heat conductance, m**2/s
 7 - modulus of horizontal velocity, m/s
 8 - Richardson number, n/d
   -0.000000   -0.00000  0.1876E-09  0.1131E-07  0.2397E-10  0.6029E-08  0.6625E-39  0.2005E+17
   -0.068745    0.31399  0.7403E-10  0.1232E-06  0.1557E-10  0.6918E-08  0.1665E-39  0.1151E+17
   -0.137490    0.50796  0.6819E-10  0.3623E-06  0.1588E-10  0.1530E-07  0.4041E-40  0.5418E+16
   -0.206236    0.60336  0.6750E-10  0.6714E-06  0.1954E-10  0.1085E-06  0.8272E-41  0.1340E+16
   -0.274982    0.62749  0.6744E-10  0.6716E-06  0.1954E-10  0.7242E-02  0.1496E-41 -0.7093E+10
   -0.343729    0.62749  0.6744E-10  0.6717E-06  0.1954E-10  0.7215E-02  0.1493E-41 -0.3330E+11
   -0.412476    0.62749  0.6744E-10  0.6718E-06  0.1955E-10  0.7163E-02  0.1492E-41 -0.5490E+11
   -0.481224    0.62749  0.6744E-10  0.6719E-06  0.1955E-10  0.7146E-02  0.1491E-41 -0.7295E+11
   -0.549973    0.62749  0.6744E-10  0.6720E-06  0.1955E-10  0.7146E-02  0.1490E-41 -0.7791E+11
   -0.618722    0.62749  0.6744E-10  0.6720E-06  0.1955E-10  0.7148E-02  0.1489E-41 -0.6850E+11
   -0.687471    0.62749  0.6744E-10  0.6719E-06  0.1954E-10  0.7152E-02  0.1489E-41 -0.5684E+11
   -0.756220    0.62749  0.6744E-10  0.6718E-06  0.1954E-10  0.7157E-02  0.1489E-41 -0.4230E+11
   -0.824970    0.62749  0.6744E-10  0.6717E-06  0.1954E-10  0.7171E-02  0.1488E-41 -0.2597E+11
   -0.893720    0.62749  0.6744E-10  0.6716E-06  0.1953E-10  0.7231E-02  0.1487E-41 -0.7606E+10
   -0.962471    0.62749  0.6744E-10  0.6714E-06  0.1953E-10  0.3961E-03  0.1487E-41  0.1059E+14
   -1.031221    0.62768  0.6744E-10  0.6478E-06  0.1892E-10  0.1374E-06  0.1485E-41  0.7351E+15
   -1.099972    0.64096  0.6722E-10  0.4519E-06  0.1352E-10  0.6682E-07  0.5698E-42  0.1038E+16
   -1.168723    0.65979  0.6680E-10  0.3029E-06  0.9318E-11  0.3559E-07  0.1842E-42  0.1336E+16
   -1.237474    0.68418  0.6628E-10  0.1978E-06  0.6262E-11  0.1993E-07  0.5468E-43  0.1605E+16
   -1.306225    0.71374  0.6595E-10  0.1266E-06  0.4129E-11  0.1125E-07  0.1538E-43  0.1878E+16
   -1.374976    0.74869  0.6583E-10  0.7969E-07  0.2679E-11  0.5736E-08  0.4153E-44  0.2391E+16
   -1.443727    0.79380  0.6576E-10  0.4933E-07  0.1713E-11  0.2658E-08  0.1083E-44  0.3296E+16
   -1.512478    0.85712  0.6563E-10  0.3002E-07  0.1083E-11  0.1275E-08  0.2740E-45  0.4333E+16
   -1.581229    0.94249  0.6533E-10  0.1786E-07  0.6799E-12  0.6218E-09  0.6747E-46  0.5567E+16
   -1.649980    1.05604  0.6474E-10  0.1026E-07  0.4318E-12  0.3109E-09  0.1618E-46  0.7046E+16
   -1.718730    1.20682  0.6406E-10  0.5586E-08  0.2947E-12  0.1695E-09  0.3781E-47  0.8782E+16
   -1.787481    1.40783  0.6393E-10  0.2880E-08  0.2546E-12  0.1273E-09  0.8603E-48  0.1068E+17
   -1.856231    1.67706  0.6395E-10  0.1844E-08  0.3566E-12  0.1544E-09  0.1905E-48  0.1240E+17
   -1.924981    2.03836  0.6390E-10  0.3128E-08  0.8885E-12  0.3471E-09  0.4096E-49  0.1315E+17
   -1.993731    2.52044  0.6386E-10  0.1021E-07  0.2986E-11  0.1399E-08  0.8372E-50  0.1144E+17
   -2.062481    3.14971  0.6382E-10  0.3664E-07  0.1049E-10  0.1417E-07  0.7225E-51  0.5478E+16
   -2.131230    3.89585  0.6380E-10  0.5807E-07  0.1751E-10  0.4934E-04  0.4579E-52  0.3836E+15
   -2.199979    4.08880  0.6380E-10  0.6309E-07  0.1936E-10  0.8486E-04  0.1441E-53 -0.2533E+13
   -2.268727    4.09040  0.6380E-10  0.6549E-07  0.2065E-10  0.8411E-04  0.7421E-54 -0.2664E+13
   -2.337475    4.09205  0.6380E-10  0.6716E-07  0.2215E-10  0.8185E-04  0.4075E-54 -0.2860E+13
   -2.406223    4.09380  0.6380E-10  0.6816E-07  0.2417E-10  0.7591E-04  0.2154E-54 -0.3244E+13
   -2.474970    4.09577  0.6380E-10  0.6821E-07  0.2726E-10  0.6357E-04  0.1004E-54 -0.4156E+13
   -2.543716    4.09824  0.6380E-10  0.6649E-07  0.3273E-10  0.4584E-04  0.4323E-55 -0.6315E+13
   -2.612462    4.10189  0.6380E-10  0.6112E-07  0.4426E-10  0.2517E-04  0.1734E-55 -0.1286E+14
   -2.681207    4.10898  0.6380E-10  0.3456E-07  0.1124E-09  0.2329E-05  0.5231E-56 -0.1968E+15
   -2.749952    4.18752  0.6380E-10  0.0000E+00  0.0000E+00  0.0000E+00  0.7437E-56  0.0000E+00
