 1 - depth, m
 2 - temperature, C
 3 - salinity, kg/kg
 4 - turbulent kinetic energy, m**2/s**2
 5 - dissipation rate, m**2/s**3
 6 - kinematic heat conductance, m**2/s
 7 - modulus of horizontal velocity, m/s
 8 - Richardson number, n/d
   -0.000000   -0.00000  0.1584E-09  0.1219E-13  0.7603E-17  0.1000E-09  0.0000E+00  0.1167E+17
   -0.068746    0.17938  0.2025E-09  0.1219E-13  0.7603E-17  0.1000E-09  0.0000E+00  0.1115E+17
   -0.137492    0.35955  0.1600E-09  0.1219E-13  0.7603E-17  0.1000E-09  0.0000E+00  0.1053E+17
   -0.206239    0.53886  0.1134E-09  0.1219E-13  0.7603E-17  0.1000E-09  0.0000E+00  0.9897E+16
   -0.274987    0.71698  0.8894E-10  0.1219E-13  0.7603E-17  0.1000E-09  0.0000E+00  0.9273E+16
   -0.343735    0.89370  0.7958E-10  0.1219E-13  0.7603E-17  0.1000E-09  0.0000E+00  0.8671E+16
   -0.412484    1.06916  0.7662E-10  0.1227E-13  0.7603E-17  0.1000E-09  0.0000E+00  0.8072E+16
   -0.481233    1.24308  0.7580E-10  0.4644E-13  0.7603E-17  0.1000E-09  0.0000E+00  0.7478E+16
   -0.549983    1.41517  0.7558E-10  0.1278E-12  0.1076E-16  0.1000E-09  0.0000E+00  0.6903E+16
   -0.618733    1.58546  0.7551E-10  0.2740E-12  0.1912E-16  0.1000E-09  0.0000E+00  0.6347E+16
   -0.687483    1.75397  0.7547E-10  0.5350E-12  0.3498E-16  0.1000E-09  0.0000E+00  0.5802E+16
   -0.756234    1.92047  0.7542E-10  0.1005E-11  0.6356E-16  0.1000E-09  0.0000E+00  0.5286E+16
   -0.824985    2.08526  0.7533E-10  0.1853E-11  0.1144E-15  0.1000E-09  0.0000E+00  0.4778E+16
   -0.893737    2.24808  0.7518E-10  0.3378E-11  0.2040E-15  0.1000E-09  0.0000E+00  0.4283E+16
   -0.962488    2.40869  0.7498E-10  0.6104E-11  0.3612E-15  0.1000E-09  0.0000E+00  0.3803E+16
   -1.031240    2.56688  0.7469E-10  0.1095E-10  0.6349E-15  0.1000E-09  0.0000E+00  0.3339E+16
   -1.099992    2.72240  0.7433E-10  0.1955E-10  0.1112E-14  0.1000E-09  0.0000E+00  0.2892E+16
   -1.168744    2.87491  0.7387E-10  0.3476E-10  0.1940E-14  0.1000E-09  0.0000E+00  0.2465E+16
   -1.237497    3.02424  0.7336E-10  0.6149E-10  0.3368E-14  0.1000E-09  0.0000E+00  0.2062E+16
   -1.306249    3.17022  0.7288E-10  0.1082E-09  0.5822E-14  0.1000E-09  0.0000E+00  0.1683E+16
   -1.375001    3.31275  0.7251E-10  0.1896E-09  0.1003E-13  0.1000E-09  0.0000E+00  0.1332E+16
   -1.443754    3.45222  0.7229E-10  0.3309E-09  0.1722E-13  0.1047E-09  0.0000E+00  0.1007E+16
   -1.512506    3.58927  0.7219E-10  0.5757E-09  0.2952E-13  0.2161E-09  0.0000E+00  0.6956E+15
   -1.581258    3.72310  0.7215E-10  0.9995E-09  0.5055E-13  0.6427E-09  0.0000E+00  0.4004E+15
   -1.650010    3.85118  0.7214E-10  0.1731E-08  0.8648E-13  0.3267E-08  0.0000E+00  0.1370E+15
   -1.718762    3.96588  0.7214E-10  0.2456E-08  0.1242E-12  0.4041E-05  0.0000E+00  0.6659E+13
   -1.787514    3.99131  0.7214E-10  0.2767E-08  0.1422E-12  0.1555E-04  0.0000E+00 -0.6346E+11
   -1.856266    3.99224  0.7214E-10  0.2968E-08  0.1565E-12  0.1760E-04  0.0000E+00 -0.7105E+11
   -1.925017    3.99306  0.7214E-10  0.3155E-08  0.1723E-12  0.1893E-04  0.0000E+00 -0.7872E+11
   -1.993768    3.99383  0.7214E-10  0.3326E-08  0.1898E-12  0.1966E-04  0.0000E+00 -0.8761E+11
   -2.062519    3.99458  0.7214E-10  0.3484E-08  0.2098E-12  0.1997E-04  0.0000E+00 -0.9890E+11
   -2.131269    3.99535  0.7214E-10  0.3633E-08  0.2339E-12  0.1980E-04  0.0000E+00 -0.1141E+12
   -2.200020    3.99615  0.7214E-10  0.3773E-08  0.2636E-12  0.1909E-04  0.0000E+00 -0.1350E+12
   -2.268769    3.99701  0.7214E-10  0.3899E-08  0.3015E-12  0.1784E-04  0.0000E+00 -0.1657E+12
   -2.337518    3.99798  0.7214E-10  0.4004E-08  0.3521E-12  0.1603E-04  0.0000E+00 -0.2137E+12
   -2.406267    3.99911  0.7214E-10  0.4079E-08  0.4242E-12  0.1363E-04  0.0000E+00 -0.2973E+12
   -2.475015    4.00053  0.7214E-10  0.4096E-08  0.5383E-12  0.1060E-04  0.0000E+00 -0.4695E+12
   -2.543763    4.00252  0.7214E-10  0.3988E-08  0.7539E-12  0.6817E-05  0.0000E+00 -0.9454E+12
   -2.612510    4.00590  0.7214E-10  0.3566E-08  0.1265E-11  0.2954E-05  0.0000E+00 -0.3141E+13
   -2.681257    4.01435  0.7214E-10  0.2240E-08  0.3468E-11  0.3659E-06  0.0000E+00 -0.5309E+14
   -2.750002    4.07332  0.7214E-10  0.0000E+00  0.0000E+00  0.0000E+00  0.0000E+00  0.0000E+00
