 1 - depth, m
 2 - temperature, C
 3 - salinity, kg/kg
 4 - turbulent kinetic energy, m**2/s**2
 5 - dissipation rate, m**2/s**3
 6 - kinematic heat conductance, m**2/s
 7 - modulus of horizontal velocity, m/s
 8 - Richardson number, n/d
   -0.000000   10.01217  0.7377E-10  0.1565E-04  0.9002E-06  0.3104E-04  0.2327E-01 -0.3898E-01
   -0.068746   10.04633  0.7378E-10  0.1253E-04  0.2742E-06  0.7587E-04  0.1278E-01 -0.1378E+00
   -0.137492   10.05933  0.7378E-10  0.1076E-04  0.1362E-06  0.1444E-03  0.9081E-02 -0.1186E+00
   -0.206240   10.06688  0.7378E-10  0.9563E-05  0.8195E-07  0.2377E-03  0.6994E-02  0.1294E+02
   -0.274987   10.07192  0.7378E-10  0.8744E-05  0.5513E-07  0.3073E-03  0.5691E-02  0.1478E+02
   -0.343736   10.07559  0.7378E-10  0.8209E-05  0.4022E-07  0.3880E-03  0.4819E-02  0.4648E+02
   -0.412485   10.07834  0.7378E-10  0.7850E-05  0.3110E-07  0.4947E-03  0.4189E-02  0.2721E+02
   -0.481234   10.08032  0.7378E-10  0.7638E-05  0.2566E-07  0.7209E-03  0.3728E-02  0.5178E+02
   -0.549984   10.08151  0.7378E-10  0.7535E-05  0.2227E-07  0.8743E-03  0.3425E-02  0.2236E+01
   -0.618734   10.08244  0.7378E-10  0.7485E-05  0.1973E-07  0.9566E-03  0.3173E-02  0.2548E+01
   -0.687484   10.08327  0.7378E-10  0.7463E-05  0.1768E-07  0.1048E-02  0.2928E-02  0.2857E+01
   -0.756235   10.08401  0.7378E-10  0.7458E-05  0.1604E-07  0.1136E-02  0.2699E-02  0.3079E+01
   -0.824987   10.08468  0.7378E-10  0.7463E-05  0.1469E-07  0.1195E-02  0.2483E-02  0.3241E+01
   -0.893738   10.08531  0.7378E-10  0.7469E-05  0.1356E-07  0.1248E-02  0.2278E-02  0.3375E+01
   -0.962490   10.08590  0.7378E-10  0.7473E-05  0.1261E-07  0.1296E-02  0.2084E-02  0.3509E+01
   -1.031242   10.08647  0.7378E-10  0.7468E-05  0.1180E-07  0.1342E-02  0.1898E-02  0.3526E+01
   -1.099994   10.08701  0.7378E-10  0.7454E-05  0.1110E-07  0.1399E-02  0.1722E-02  0.3173E+01
   -1.168746   10.08752  0.7378E-10  0.7429E-05  0.1050E-07  0.1452E-02  0.1561E-02  0.2894E+01
   -1.237498   10.08801  0.7378E-10  0.7394E-05  0.9989E-08  0.1501E-02  0.1414E-02  0.2665E+01
   -1.306251   10.08848  0.7378E-10  0.7350E-05  0.9554E-08  0.1546E-02  0.1280E-02  0.2472E+01
   -1.375003   10.08893  0.7378E-10  0.7296E-05  0.9187E-08  0.1587E-02  0.1158E-02  0.2305E+01
   -1.443756   10.08936  0.7378E-10  0.7233E-05  0.8883E-08  0.1623E-02  0.1046E-02  0.2156E+01
   -1.512508   10.08978  0.7378E-10  0.7162E-05  0.8637E-08  0.1654E-02  0.9445E-03  0.2023E+01
   -1.581261   10.09018  0.7378E-10  0.7083E-05  0.8445E-08  0.1681E-02  0.8514E-03  0.1902E+01
   -1.650013   10.09058  0.7378E-10  0.6998E-05  0.8304E-08  0.1703E-02  0.7664E-03  0.1792E+01
   -1.718765   10.09097  0.7378E-10  0.6907E-05  0.8210E-08  0.1720E-02  0.6888E-03  0.1689E+01
   -1.787517   10.09135  0.7378E-10  0.6812E-05  0.8163E-08  0.1729E-02  0.6179E-03  0.1597E+01
   -1.856269   10.09172  0.7378E-10  0.6713E-05  0.8161E-08  0.1705E-02  0.5529E-03  0.1519E+01
   -1.925020   10.09210  0.7378E-10  0.6612E-05  0.8205E-08  0.1647E-02  0.4930E-03  0.1453E+01
   -1.993771   10.09248  0.7378E-10  0.6509E-05  0.8294E-08  0.1579E-02  0.4375E-03  0.1411E+01
   -2.062522   10.09288  0.7378E-10  0.6407E-05  0.8432E-08  0.1504E-02  0.3863E-03  0.1338E+01
   -2.131273   10.09330  0.7378E-10  0.6303E-05  0.8624E-08  0.1422E-02  0.3420E-03  0.1327E+01
   -2.200023   10.09374  0.7378E-10  0.6197E-05  0.8878E-08  0.1342E-02  0.3048E-03  0.1448E+01
   -2.268773   10.09420  0.7378E-10  0.6084E-05  0.9218E-08  0.1260E-02  0.2740E-03  0.1866E+01
   -2.337522   10.09469  0.7378E-10  0.5954E-05  0.9702E-08  0.1158E-02  0.2464E-03  0.2789E+01
   -2.406271   10.09523  0.7378E-10  0.5794E-05  0.1043E-07  0.1030E-02  0.2203E-03  0.4756E+01
   -2.475019   10.09583  0.7378E-10  0.5589E-05  0.1158E-07  0.8780E-03  0.1958E-03  0.9749E+01
   -2.543767   10.09653  0.7378E-10  0.5301E-05  0.1363E-07  0.6787E-03  0.1737E-03  0.2835E+02
   -2.612514   10.09743  0.7378E-10  0.4885E-05  0.1759E-07  0.5131E-03  0.1539E-03  0.1366E+03
   -2.681261   10.09863  0.7378E-10  0.2420E-05  0.5419E-07  0.1633E-04  0.1383E-03 -0.2422E+05
   -2.750007   10.13580  0.7378E-10  0.0000E+00  0.0000E+00  0.0000E+00  0.1380E-03  0.0000E+00
