 1 - depth, m
 2 - temperature, C
 3 - salinity, kg/kg
 4 - turbulent kinetic energy, m**2/s**2
 5 - dissipation rate, m**2/s**3
 6 - kinematic heat conductance, m**2/s
 7 - modulus of horizontal velocity, m/s
 8 - Richardson number, n/d
   -0.000000   -0.00000  0.1352E-10  0.1219E-13  0.7603E-17  0.1000E-09  0.0000E+00  0.1089E+17
   -0.068746    0.16708  0.1052E-09  0.1219E-13  0.7603E-17  0.1000E-09  0.0000E+00  0.1078E+17
   -0.137493    0.34051  0.1327E-09  0.1219E-13  0.7603E-17  0.1000E-09  0.0000E+00  0.1048E+17
   -0.206241    0.51797  0.1251E-09  0.2263E-13  0.7603E-17  0.1000E-09  0.0000E+00  0.1009E+17
   -0.274989    0.69847  0.1062E-09  0.8231E-13  0.8511E-17  0.1000E-09  0.0000E+00  0.9627E+16
   -0.343737    0.88099  0.8888E-10  0.1982E-12  0.1472E-16  0.1000E-09  0.0000E+00  0.9128E+16
   -0.412487    1.06514  0.7756E-10  0.4112E-12  0.2759E-16  0.1000E-09  0.0000E+00  0.8571E+16
   -0.481236    1.24990  0.7160E-10  0.8057E-12  0.5173E-16  0.1000E-09  0.0000E+00  0.7974E+16
   -0.549986    1.43435  0.6893E-10  0.1540E-11  0.9607E-16  0.1000E-09  0.0000E+00  0.7371E+16
   -0.618737    1.61818  0.6786E-10  0.2893E-11  0.1762E-15  0.1000E-09  0.0000E+00  0.6772E+16
   -0.687488    1.80126  0.6745E-10  0.5379E-11  0.3201E-15  0.1000E-09  0.0000E+00  0.6169E+16
   -0.756239    1.98309  0.6724E-10  0.9915E-11  0.5769E-15  0.1000E-09  0.0000E+00  0.5574E+16
   -0.824990    2.16348  0.6704E-10  0.1814E-10  0.1032E-14  0.1000E-09  0.0000E+00  0.4987E+16
   -0.893742    2.34210  0.6677E-10  0.3294E-10  0.1833E-14  0.1000E-09  0.0000E+00  0.4412E+16
   -0.962494    2.51868  0.6642E-10  0.5937E-10  0.3232E-14  0.1000E-09  0.0000E+00  0.3854E+16
   -1.031246    2.69300  0.6600E-10  0.1063E-09  0.5660E-14  0.1000E-09  0.0000E+00  0.3312E+16
   -1.099999    2.86475  0.6560E-10  0.1894E-09  0.9869E-14  0.1000E-09  0.0000E+00  0.2782E+16
   -1.168751    3.03314  0.6526E-10  0.3358E-09  0.1712E-13  0.1000E-09  0.0000E+00  0.2283E+16
   -1.237504    3.19820  0.6503E-10  0.5915E-09  0.2951E-13  0.1000E-09  0.0000E+00  0.1815E+16
   -1.306257    3.36017  0.6490E-10  0.1035E-08  0.5053E-13  0.1874E-09  0.0000E+00  0.1375E+16
   -1.375010    3.51939  0.6484E-10  0.1798E-08  0.8594E-13  0.4541E-09  0.0000E+00  0.9661E+15
   -1.443762    3.67737  0.6481E-10  0.3102E-08  0.1451E-12  0.1294E-08  0.0000E+00  0.5731E+15
   -1.512515    3.83615  0.6481E-10  0.5299E-08  0.2428E-12  0.7065E-08  0.0000E+00  0.1767E+15
   -1.581268    3.99168  0.6480E-10  0.5651E-08  0.2596E-12  0.3795E-04  0.0000E+00 -0.5349E+11
   -1.650020    3.99232  0.6480E-10  0.5820E-08  0.2693E-12  0.4020E-04  0.0000E+00 -0.5568E+11
   -1.718773    3.99290  0.6480E-10  0.5973E-08  0.2799E-12  0.4179E-04  0.0000E+00 -0.5806E+11
   -1.787525    3.99345  0.6480E-10  0.6111E-08  0.2914E-12  0.4277E-04  0.0000E+00 -0.6082E+11
   -1.856277    3.99399  0.6480E-10  0.6232E-08  0.3039E-12  0.4317E-04  0.0000E+00 -0.6409E+11
   -1.925029    3.99451  0.6480E-10  0.6337E-08  0.3176E-12  0.4302E-04  0.0000E+00 -0.6803E+11
   -1.993780    3.99503  0.6480E-10  0.6423E-08  0.3327E-12  0.4234E-04  0.0000E+00 -0.7283E+11
   -2.062532    3.99555  0.6480E-10  0.6491E-08  0.3497E-12  0.4127E-04  0.0000E+00 -0.7898E+11
   -2.131282    3.99609  0.6480E-10  0.6541E-08  0.3702E-12  0.3961E-04  0.0000E+00 -0.8721E+11
   -2.200033    3.99665  0.6480E-10  0.6570E-08  0.3954E-12  0.3724E-04  0.0000E+00 -0.9846E+11
   -2.268783    3.99724  0.6480E-10  0.6571E-08  0.4275E-12  0.3411E-04  0.0000E+00 -0.1145E+12
   -2.337533    3.99790  0.6480E-10  0.6534E-08  0.4705E-12  0.3014E-04  0.0000E+00 -0.1391E+12
   -2.406282    3.99864  0.6480E-10  0.6443E-08  0.5320E-12  0.2523E-04  0.0000E+00 -0.1804E+12
   -2.475030    3.99955  0.6480E-10  0.6258E-08  0.6298E-12  0.1930E-04  0.0000E+00 -0.2615E+12
   -2.543779    4.00076  0.6480E-10  0.5882E-08  0.8160E-12  0.1222E-04  0.0000E+00 -0.4744E+12
   -2.612526    4.00272  0.6480E-10  0.5065E-08  0.1267E-11  0.5159E-05  0.0000E+00 -0.1404E+13
   -2.681273    4.00750  0.6480E-10  0.2524E-08  0.3577E-11  0.3833E-06  0.0000E+00 -0.3765E+14
   -2.750019    4.05882  0.6480E-10  0.0000E+00  0.0000E+00  0.0000E+00  0.0000E+00  0.0000E+00
