 1 - depth, m
 2 - temperature, C
 3 - salinity, kg/kg
 4 - turbulent kinetic energy, m**2/s**2
 5 - dissipation rate, m**2/s**3
 6 - kinematic heat conductance, m**2/s
 7 - modulus of horizontal velocity, m/s
 8 - Richardson number, n/d
   -0.000000   -0.00000  0.4108E-09  0.1219E-13  0.7603E-17  0.1000E-09  0.0000E+00  0.1147E+17
   -0.068746    0.17624  0.2212E-09  0.1219E-13  0.7603E-17  0.1000E-09  0.0000E+00  0.1090E+17
   -0.137492    0.35218  0.1234E-09  0.1219E-13  0.7603E-17  0.1000E-09  0.0000E+00  0.1025E+17
   -0.206239    0.52629  0.9129E-10  0.1219E-13  0.7603E-17  0.1000E-09  0.0000E+00  0.9600E+16
   -0.274987    0.69821  0.8276E-10  0.1219E-13  0.7603E-17  0.1000E-09  0.0000E+00  0.8958E+16
   -0.343735    0.86767  0.8070E-10  0.1219E-13  0.7603E-17  0.1000E-09  0.0000E+00  0.8341E+16
   -0.412484    1.03468  0.8022E-10  0.1219E-13  0.7603E-17  0.1000E-09  0.0000E+00  0.7736E+16
   -0.481233    1.19897  0.8012E-10  0.1219E-13  0.7603E-17  0.1000E-09  0.0000E+00  0.7148E+16
   -0.549982    1.36033  0.8009E-10  0.1219E-13  0.7603E-17  0.1000E-09  0.0000E+00  0.6587E+16
   -0.618732    1.51880  0.8007E-10  0.1219E-13  0.7603E-17  0.1000E-09  0.0000E+00  0.6056E+16
   -0.687483    1.67446  0.8004E-10  0.1219E-13  0.7603E-17  0.1000E-09  0.0000E+00  0.5545E+16
   -0.756233    1.82722  0.7998E-10  0.1219E-13  0.7603E-17  0.1000E-09  0.0000E+00  0.5078E+16
   -0.824984    1.97767  0.7988E-10  0.3744E-13  0.7603E-17  0.1000E-09  0.0000E+00  0.4627E+16
   -0.893736    2.12568  0.7973E-10  0.1100E-12  0.1130E-16  0.1000E-09  0.0000E+00  0.4191E+16
   -0.962487    2.27111  0.7951E-10  0.2527E-12  0.2176E-16  0.1000E-09  0.0000E+00  0.3773E+16
   -1.031239    2.41382  0.7924E-10  0.5301E-12  0.4303E-16  0.1000E-09  0.0000E+00  0.3372E+16
   -1.099991    2.55368  0.7892E-10  0.1077E-11  0.8464E-16  0.1000E-09  0.0000E+00  0.2990E+16
   -1.168743    2.69060  0.7856E-10  0.2155E-11  0.1650E-15  0.1000E-09  0.0000E+00  0.2626E+16
   -1.237495    2.82440  0.7817E-10  0.4266E-11  0.3189E-15  0.1000E-09  0.0000E+00  0.2282E+16
   -1.306248    2.95491  0.7775E-10  0.8370E-11  0.6113E-15  0.1000E-09  0.0000E+00  0.1956E+16
   -1.375000    3.08197  0.7732E-10  0.1628E-10  0.1162E-14  0.1000E-09  0.0000E+00  0.1656E+16
   -1.443752    3.20580  0.7690E-10  0.3142E-10  0.2192E-14  0.1000E-09  0.0000E+00  0.1381E+16
   -1.512504    3.32687  0.7655E-10  0.6015E-10  0.4102E-14  0.1000E-09  0.0000E+00  0.1123E+16
   -1.581256    3.44511  0.7634E-10  0.1142E-09  0.7617E-14  0.1000E-09  0.0000E+00  0.8804E+15
   -1.650009    3.56046  0.7624E-10  0.2152E-09  0.1404E-13  0.1145E-09  0.0000E+00  0.6547E+15
   -1.718760    3.67285  0.7620E-10  0.4022E-09  0.2568E-13  0.2943E-09  0.0000E+00  0.4448E+15
   -1.787512    3.78209  0.7619E-10  0.7458E-09  0.4661E-13  0.9477E-09  0.0000E+00  0.2510E+15
   -1.856264    3.88765  0.7619E-10  0.1369E-08  0.8382E-13  0.5663E-08  0.0000E+00  0.7625E+14
   -1.925015    3.98608  0.7619E-10  0.1804E-08  0.1110E-12  0.5884E-05  0.0000E+00  0.9944E+10
   -1.993766    3.98965  0.7619E-10  0.2067E-08  0.1318E-12  0.8903E-05  0.0000E+00 -0.9547E+11
   -2.062517    3.99118  0.7619E-10  0.2294E-08  0.1543E-12  0.1029E-04  0.0000E+00 -0.1144E+12
   -2.131267    3.99251  0.7619E-10  0.2513E-08  0.1816E-12  0.1106E-04  0.0000E+00 -0.1366E+12
   -2.200017    3.99379  0.7619E-10  0.2725E-08  0.2154E-12  0.1128E-04  0.0000E+00 -0.1665E+12
   -2.268767    3.99510  0.7619E-10  0.2928E-08  0.2587E-12  0.1101E-04  0.0000E+00 -0.2100E+12
   -2.337516    3.99651  0.7619E-10  0.3119E-08  0.3171E-12  0.1027E-04  0.0000E+00 -0.2791E+12
   -2.406265    3.99813  0.7619E-10  0.3293E-08  0.4015E-12  0.9044E-05  0.0000E+00 -0.4017E+12
   -2.475013    4.00013  0.7619E-10  0.3431E-08  0.5364E-12  0.7315E-05  0.0000E+00 -0.6589E+12
   -2.543760    4.00290  0.7619E-10  0.3478E-08  0.7919E-12  0.4947E-05  0.0000E+00 -0.1373E+13
   -2.612507    4.00753  0.7619E-10  0.3270E-08  0.1389E-11  0.2323E-05  0.0000E+00 -0.4579E+13
   -2.681254    4.01848  0.7619E-10  0.2342E-08  0.3836E-11  0.3789E-06  0.0000E+00 -0.6179E+14
   -2.750000    4.08081  0.7619E-10  0.0000E+00  0.0000E+00  0.0000E+00  0.0000E+00  0.0000E+00
