 1 - depth, m
 2 - temperature, C
 3 - salinity, kg/kg
 4 - turbulent kinetic energy, m**2/s**2
 5 - dissipation rate, m**2/s**3
 6 - kinematic heat conductance, m**2/s
 7 - modulus of horizontal velocity, m/s
 8 - Richardson number, n/d
   -0.000000    6.40513  0.8292E-10  0.1561E-03  0.6237E-04  0.8345E-04  0.1079E+00  0.5274E-03
   -0.068746    6.46995  0.8293E-10  0.8527E-04  0.1569E-04  0.1571E-03  0.3800E-01 -0.5328E-01
   -0.137493    6.48266  0.8293E-10  0.6085E-04  0.6590E-05  0.1610E-03  0.2913E-01  0.7946E+01
   -0.206240    6.49187  0.8293E-10  0.4554E-04  0.3077E-05  0.1788E-03  0.2406E-01  0.5335E+01
   -0.274988    6.49901  0.8293E-10  0.3553E-04  0.1555E-05  0.2056E-03  0.2047E-01  0.8572E+01
   -0.343737    6.50489  0.8293E-10  0.2902E-04  0.8497E-06  0.2354E-03  0.1774E-01  0.4630E+01
   -0.412486    6.50988  0.8293E-10  0.2452E-04  0.4995E-06  0.2708E-03  0.1546E-01  0.6902E+01
   -0.481235    6.51414  0.8293E-10  0.2135E-04  0.3159E-06  0.3112E-03  0.1360E-01  0.7933E+01
   -0.549985    6.51778  0.8294E-10  0.1916E-04  0.2147E-06  0.3544E-03  0.1210E-01  0.4389E+01
   -0.618736    6.52092  0.8294E-10  0.1762E-04  0.1557E-06  0.3965E-03  0.1085E-01  0.4091E+01
   -0.687487    6.52366  0.8294E-10  0.1646E-04  0.1188E-06  0.4421E-03  0.9754E-02  0.3683E+01
   -0.756238    6.52606  0.8294E-10  0.1553E-04  0.9436E-07  0.4883E-03  0.8795E-02  0.6973E+00
   -0.824989    6.52817  0.8294E-10  0.1474E-04  0.7726E-07  0.5336E-03  0.7948E-02  0.1077E+01
   -0.893741    6.53005  0.8294E-10  0.1405E-04  0.6474E-07  0.5787E-03  0.7191E-02  0.7337E+01
   -0.962493    6.53175  0.8294E-10  0.1341E-04  0.5514E-07  0.6223E-03  0.6507E-02  0.5026E+01
   -1.031245    6.53328  0.8294E-10  0.1280E-04  0.4749E-07  0.6682E-03  0.5880E-02  0.1527E+02
   -1.099997    6.53467  0.8294E-10  0.1220E-04  0.4119E-07  0.7088E-03  0.5307E-02  0.1534E+01
   -1.168750    6.53595  0.8294E-10  0.1163E-04  0.3600E-07  0.7479E-03  0.4802E-02  0.5298E+02
   -1.237502    6.53712  0.8294E-10  0.1109E-04  0.3169E-07  0.7916E-03  0.4354E-02  0.4871E+01
   -1.306255    6.53820  0.8294E-10  0.1060E-04  0.2808E-07  0.8431E-03  0.3952E-02  0.2880E+02
   -1.375007    6.53918  0.8294E-10  0.1013E-04  0.2505E-07  0.9068E-03  0.3590E-02  0.3766E+02
   -1.443760    6.54007  0.8294E-10  0.9699E-05  0.2248E-07  0.9689E-03  0.3262E-02  0.1087E+02
   -1.512513    6.54088  0.8294E-10  0.9297E-05  0.2030E-07  0.1033E-02  0.2964E-02  0.3124E+02
   -1.581265    6.54161  0.8294E-10  0.8922E-05  0.1845E-07  0.1091E-02  0.2690E-02  0.2247E+02
   -1.650018    6.54228  0.8294E-10  0.8571E-05  0.1685E-07  0.1141E-02  0.2437E-02  0.1553E+02
   -1.718770    6.54289  0.8294E-10  0.8240E-05  0.1549E-07  0.1180E-02  0.2201E-02  0.7652E+02
   -1.787522    6.54346  0.8294E-10  0.7927E-05  0.1431E-07  0.1208E-02  0.1980E-02  0.1934E+02
   -1.856274    6.54399  0.8294E-10  0.7630E-05  0.1330E-07  0.1219E-02  0.1771E-02  0.2662E+02
   -1.925026    6.54449  0.8294E-10  0.7347E-05  0.1244E-07  0.1218E-02  0.1573E-02  0.4664E+01
   -1.993777    6.54498  0.8294E-10  0.7075E-05  0.1171E-07  0.1205E-02  0.1383E-02  0.1594E+02
   -2.062528    6.54545  0.8294E-10  0.6813E-05  0.1110E-07  0.1202E-02  0.1199E-02  0.1339E+02
   -2.131279    6.54591  0.8294E-10  0.6553E-05  0.1060E-07  0.1193E-02  0.1033E-02  0.5775E+02
   -2.200030    6.54636  0.8294E-10  0.6298E-05  0.1022E-07  0.1160E-02  0.8873E-03  0.7612E+01
   -2.268780    6.54681  0.8294E-10  0.6049E-05  0.9961E-08  0.1098E-02  0.7615E-03  0.2027E+02
   -2.337529    6.54728  0.8294E-10  0.5808E-05  0.9856E-08  0.1016E-02  0.6540E-03  0.1023E+03
   -2.406278    6.54777  0.8294E-10  0.5570E-05  0.9933E-08  0.9196E-03  0.5640E-03  0.8072E+01
   -2.475027    6.54831  0.8294E-10  0.5311E-05  0.1028E-07  0.7899E-03  0.4904E-03  0.1701E+02
   -2.543775    6.54893  0.8294E-10  0.4965E-05  0.1121E-07  0.5654E-03  0.4266E-03  0.4465E+04
   -2.612522    6.54978  0.8294E-10  0.4425E-05  0.1388E-07  0.2632E-03  0.3652E-03  0.2819E+05
   -2.681269    6.55151  0.8294E-10  0.1937E-05  0.3850E-07  0.1303E-04  0.3032E-03 -0.3610E+05
   -2.750015    6.58525  0.8294E-10  0.0000E+00  0.0000E+00  0.0000E+00  0.3015E-03  0.0000E+00
