 1 - depth, m
 2 - temperature, C
 3 - salinity, kg/kg
 4 - turbulent kinetic energy, m**2/s**2
 5 - dissipation rate, m**2/s**3
 6 - kinematic heat conductance, m**2/s
 7 - modulus of horizontal velocity, m/s
 8 - Richardson number, n/d
   -0.000000   -0.00000  0.4138E-09  0.8495E-13  0.1275E-16  0.1000E-09  0.0000E+00  0.1570E+17
   -0.068746    0.24349  0.1190E-09  0.1662E-12  0.1771E-16  0.1000E-09  0.0000E+00  0.1436E+17
   -0.137492    0.48187  0.8668E-10  0.3622E-12  0.3400E-16  0.1000E-09  0.0000E+00  0.1301E+17
   -0.206239    0.71390  0.7552E-10  0.7798E-12  0.6968E-16  0.1000E-09  0.0000E+00  0.1179E+17
   -0.274986    0.94013  0.7227E-10  0.1652E-11  0.1433E-15  0.1000E-09  0.0000E+00  0.1066E+17
   -0.343734    1.16119  0.7150E-10  0.3453E-11  0.2921E-15  0.1000E-09  0.0000E+00  0.9655E+16
   -0.412482    1.37833  0.7135E-10  0.7143E-11  0.5900E-15  0.1000E-09  0.0000E+00  0.8718E+16
   -0.481231    1.59203  0.7133E-10  0.1465E-10  0.1182E-14  0.1000E-09  0.0000E+00  0.7838E+16
   -0.549981    1.80272  0.7132E-10  0.2981E-10  0.2352E-14  0.1000E-09  0.0000E+00  0.7025E+16
   -0.618730    2.01133  0.7132E-10  0.5999E-10  0.4626E-14  0.1000E-09  0.0000E+00  0.6265E+16
   -0.687481    2.21872  0.7132E-10  0.1197E-09  0.9025E-14  0.1000E-09  0.0000E+00  0.5531E+16
   -0.756231    2.42530  0.7130E-10  0.2371E-09  0.1748E-13  0.1000E-09  0.0000E+00  0.4852E+16
   -0.824982    2.63297  0.7127E-10  0.4661E-09  0.3362E-13  0.1000E-09  0.0000E+00  0.4168E+16
   -0.893733    2.84183  0.7119E-10  0.9100E-09  0.6421E-13  0.1000E-09  0.0000E+00  0.3478E+16
   -0.962484    3.05191  0.7103E-10  0.1764E-08  0.1218E-12  0.2232E-09  0.0000E+00  0.2778E+16
   -1.031236    3.26308  0.7068E-10  0.3396E-08  0.2295E-12  0.5639E-09  0.0000E+00  0.2072E+16
   -1.099988    3.47530  0.6999E-10  0.6510E-08  0.4307E-12  0.1613E-08  0.0000E+00  0.1360E+16
   -1.168739    3.68857  0.6907E-10  0.1238E-07  0.8025E-12  0.6429E-08  0.0000E+00  0.6358E+15
   -1.237491    3.89839  0.6859E-10  0.2207E-07  0.1411E-11  0.1343E-06  0.0000E+00  0.5460E+14
   -1.306243    4.01465  0.6856E-10  0.2256E-07  0.1444E-11  0.1374E-03  0.0000E+00 -0.1033E+12
   -1.374996    4.01488  0.6856E-10  0.2278E-07  0.1462E-11  0.1345E-03  0.0000E+00 -0.1069E+12
   -1.443748    4.01512  0.6856E-10  0.2298E-07  0.1482E-11  0.1347E-03  0.0000E+00 -0.1079E+12
   -1.512500    4.01536  0.6856E-10  0.2316E-07  0.1504E-11  0.1348E-03  0.0000E+00 -0.1090E+12
   -1.581252    4.01560  0.6856E-10  0.2332E-07  0.1528E-11  0.1344E-03  0.0000E+00 -0.1105E+12
   -1.650003    4.01584  0.6856E-10  0.2345E-07  0.1554E-11  0.1337E-03  0.0000E+00 -0.1123E+12
   -1.718755    4.01608  0.6856E-10  0.2356E-07  0.1583E-11  0.1326E-03  0.0000E+00 -0.1145E+12
   -1.787507    4.01632  0.6856E-10  0.2364E-07  0.1615E-11  0.1311E-03  0.0000E+00 -0.1172E+12
   -1.856258    4.01657  0.6856E-10  0.2370E-07  0.1650E-11  0.1291E-03  0.0000E+00 -0.1204E+12
   -1.925009    4.01683  0.6856E-10  0.2373E-07  0.1688E-11  0.1267E-03  0.0000E+00 -0.1242E+12
   -1.993760    4.01708  0.6856E-10  0.2374E-07  0.1731E-11  0.1239E-03  0.0000E+00 -0.1287E+12
   -2.062510    4.01735  0.6856E-10  0.2372E-07  0.1780E-11  0.1206E-03  0.0000E+00 -0.1342E+12
   -2.131261    4.01762  0.6856E-10  0.2366E-07  0.1838E-11  0.1165E-03  0.0000E+00 -0.1414E+12
   -2.200010    4.01791  0.6856E-10  0.2356E-07  0.1914E-11  0.1115E-03  0.0000E+00 -0.1508E+12
   -2.268760    4.01821  0.6856E-10  0.2338E-07  0.2023E-11  0.9967E-04  0.0000E+00 -0.1726E+12
   -2.337509    4.01856  0.6856E-10  0.2310E-07  0.2184E-11  0.8061E-04  0.0000E+00 -0.2200E+12
   -2.406257    4.01899  0.6856E-10  0.2266E-07  0.2421E-11  0.6451E-04  0.0000E+00 -0.2861E+12
   -2.475005    4.01955  0.6856E-10  0.2197E-07  0.2798E-11  0.4931E-04  0.0000E+00 -0.3956E+12
   -2.543753    4.02030  0.6856E-10  0.2078E-07  0.3500E-11  0.3236E-04  0.0000E+00 -0.6484E+12
   -2.612499    4.02149  0.6856E-10  0.1850E-07  0.5094E-11  0.1529E-04  0.0000E+00 -0.1514E+13
   -2.681246    4.02414  0.6856E-10  0.8881E-08  0.1524E-10  0.8999E-06  0.0000E+00 -0.3896E+14
   -2.749991    4.06637  0.6856E-10  0.0000E+00  0.0000E+00  0.0000E+00  0.0000E+00  0.0000E+00
