 1 - depth, m
 2 - temperature, C
 3 - salinity, kg/kg
 4 - turbulent kinetic energy, m**2/s**2
 5 - dissipation rate, m**2/s**3
 6 - kinematic heat conductance, m**2/s
 7 - modulus of horizontal velocity, m/s
 8 - Richardson number, n/d
   -0.000000   -0.00000  0.3885E-12  0.1219E-13  0.7603E-17  0.1000E-09  0.0000E+00  0.1344E+17
   -0.068746    0.20732  0.4729E-10  0.1219E-13  0.7603E-17  0.1000E-09  0.0000E+00  0.1163E+17
   -0.137493    0.39700  0.1014E-09  0.1219E-13  0.7603E-17  0.1000E-09  0.0000E+00  0.1029E+17
   -0.206240    0.57426  0.1233E-09  0.1219E-13  0.7603E-17  0.1000E-09  0.0000E+00  0.9301E+16
   -0.274988    0.74330  0.1185E-09  0.1796E-13  0.7603E-17  0.1000E-09  0.0000E+00  0.8541E+16
   -0.343736    0.90714  0.1031E-09  0.7175E-13  0.1099E-16  0.1000E-09  0.0000E+00  0.8029E+16
   -0.412485    1.07000  0.8819E-10  0.1963E-12  0.2451E-16  0.1000E-09  0.0000E+00  0.7560E+16
   -0.481235    1.23258  0.7788E-10  0.4782E-12  0.5646E-16  0.1000E-09  0.0000E+00  0.7097E+16
   -0.549985    1.39493  0.7206E-10  0.1122E-11  0.1286E-15  0.1000E-09  0.0000E+00  0.6693E+16
   -0.618735    1.55842  0.6924E-10  0.2580E-11  0.2884E-15  0.1000E-09  0.0000E+00  0.6328E+16
   -0.687486    1.72430  0.6802E-10  0.5865E-11  0.6403E-15  0.1000E-09  0.0000E+00  0.5929E+16
   -0.756237    1.89208  0.6750E-10  0.1321E-10  0.1410E-14  0.1000E-09  0.0000E+00  0.5509E+16
   -0.824988    2.06154  0.6724E-10  0.2950E-10  0.3082E-14  0.1000E-09  0.0000E+00  0.5073E+16
   -0.893740    2.23248  0.6700E-10  0.6541E-10  0.6691E-14  0.1000E-09  0.0000E+00  0.4630E+16
   -0.962491    2.40506  0.6671E-10  0.1441E-09  0.1444E-13  0.1000E-09  0.0000E+00  0.4193E+16
   -1.031244    2.58001  0.6635E-10  0.3154E-09  0.3100E-13  0.1000E-09  0.0000E+00  0.3756E+16
   -1.099996    2.75828  0.6594E-10  0.6892E-09  0.6649E-13  0.1049E-09  0.0000E+00  0.3302E+16
   -1.168748    2.94038  0.6556E-10  0.1502E-08  0.1423E-12  0.2513E-09  0.0000E+00  0.2879E+16
   -1.237501    3.13083  0.6525E-10  0.3267E-08  0.3044E-12  0.6321E-09  0.0000E+00  0.2449E+16
   -1.306253    3.33619  0.6503E-10  0.7119E-08  0.6536E-12  0.1730E-08  0.0000E+00  0.1929E+16
   -1.375006    3.56421  0.6491E-10  0.1567E-07  0.1425E-11  0.6284E-08  0.0000E+00  0.1183E+16
   -1.443758    3.82243  0.6483E-10  0.3104E-07  0.2778E-11  0.3230E-05  0.0000E+00  0.2128E+15
   -1.512511    4.02436  0.6481E-10  0.3191E-07  0.2862E-11  0.1402E-03  0.0000E+00 -0.2114E+12
   -1.581263    4.02471  0.6481E-10  0.3231E-07  0.2910E-11  0.1373E-03  0.0000E+00 -0.2205E+12
   -1.650016    4.02508  0.6481E-10  0.3267E-07  0.2963E-11  0.1375E-03  0.0000E+00 -0.2247E+12
   -1.718768    4.02544  0.6481E-10  0.3298E-07  0.3022E-11  0.1375E-03  0.0000E+00 -0.2292E+12
   -1.787520    4.02581  0.6481E-10  0.3325E-07  0.3086E-11  0.1369E-03  0.0000E+00 -0.2348E+12
   -1.856272    4.02619  0.6481E-10  0.3347E-07  0.3156E-11  0.1358E-03  0.0000E+00 -0.2415E+12
   -1.925023    4.02657  0.6481E-10  0.3364E-07  0.3234E-11  0.1341E-03  0.0000E+00 -0.2497E+12
   -1.993775    4.02696  0.6481E-10  0.3375E-07  0.3321E-11  0.1320E-03  0.0000E+00 -0.2593E+12
   -2.062526    4.02737  0.6481E-10  0.3381E-07  0.3418E-11  0.1290E-03  0.0000E+00 -0.2703E+12
   -2.131276    4.02778  0.6481E-10  0.3381E-07  0.3535E-11  0.1250E-03  0.0000E+00 -0.2839E+12
   -2.200027    4.02822  0.6481E-10  0.3375E-07  0.3677E-11  0.1201E-03  0.0000E+00 -0.3014E+12
   -2.268777    4.02867  0.6481E-10  0.3359E-07  0.3856E-11  0.1140E-03  0.0000E+00 -0.3242E+12
   -2.337526    4.02915  0.6481E-10  0.3332E-07  0.4100E-11  0.1056E-03  0.0000E+00 -0.3580E+12
   -2.406275    4.02968  0.6481E-10  0.3283E-07  0.4481E-11  0.8680E-04  0.0000E+00 -0.4474E+12
   -2.475024    4.03034  0.6481E-10  0.3197E-07  0.5125E-11  0.6319E-04  0.0000E+00 -0.6372E+12
   -2.543771    4.03125  0.6481E-10  0.3038E-07  0.6340E-11  0.4101E-04  0.0000E+00 -0.1031E+13
   -2.612519    4.03270  0.6481E-10  0.2728E-07  0.9080E-11  0.1970E-04  0.0000E+00 -0.2303E+13
   -2.681265    4.03577  0.6481E-10  0.1386E-07  0.2672E-10  0.1273E-05  0.0000E+00 -0.5028E+14
   -2.750011    4.08054  0.6481E-10  0.0000E+00  0.0000E+00  0.0000E+00  0.0000E+00  0.0000E+00
