 1 - depth, m
 2 - temperature, C
 3 - salinity, kg/kg
 4 - turbulent kinetic energy, m**2/s**2
 5 - dissipation rate, m**2/s**3
 6 - kinematic heat conductance, m**2/s
 7 - modulus of horizontal velocity, m/s
 8 - Richardson number, n/d
   -0.000000   -0.00000  0.2644E-09  0.1219E-13  0.7603E-17  0.1000E-09  0.0000E+00  0.1368E+17
   -0.068746    0.21118  0.9952E-10  0.1219E-13  0.7603E-17  0.1000E-09  0.0000E+00  0.1200E+17
   -0.137492    0.40743  0.7039E-10  0.1219E-13  0.7603E-17  0.1000E-09  0.0000E+00  0.1013E+17
   -0.206239    0.58235  0.6763E-10  0.1219E-13  0.7603E-17  0.1000E-09  0.0000E+00  0.8361E+16
   -0.274986    0.73426  0.6740E-10  0.1219E-13  0.7603E-17  0.1000E-09  0.0000E+00  0.6756E+16
   -0.343735    0.86272  0.6737E-10  0.1219E-13  0.7603E-17  0.1000E-09  0.0000E+00  0.5525E+16
   -0.412483    0.97207  0.6736E-10  0.1219E-13  0.7603E-17  0.1000E-09  0.0000E+00  0.4425E+16
   -0.481232    1.06274  0.6736E-10  0.1219E-13  0.7603E-17  0.1000E-09  0.0000E+00  0.3464E+16
   -0.549982    1.13583  0.6736E-10  0.1219E-13  0.7603E-17  0.1000E-09  0.0000E+00  0.2818E+16
   -0.618732    1.19677  0.6736E-10  0.1219E-13  0.7603E-17  0.1000E-09  0.0000E+00  0.2492E+16
   -0.687482    1.25185  0.6736E-10  0.2102E-13  0.7603E-17  0.1000E-09  0.0000E+00  0.2330E+16
   -0.756233    1.30443  0.6736E-10  0.7763E-13  0.1417E-16  0.1000E-09  0.0000E+00  0.2448E+16
   -0.824984    1.36085  0.6736E-10  0.2234E-12  0.3602E-16  0.1000E-09  0.0000E+00  0.2710E+16
   -0.893735    1.42483  0.6735E-10  0.5963E-12  0.9218E-16  0.1000E-09  0.0000E+00  0.3101E+16
   -0.962486    1.50016  0.6733E-10  0.1552E-11  0.2327E-15  0.1000E-09  0.0000E+00  0.3597E+16
   -1.031238    1.59063  0.6724E-10  0.3979E-11  0.5800E-15  0.1000E-09  0.0000E+00  0.4123E+16
   -1.099990    1.69889  0.6703E-10  0.1012E-10  0.1435E-14  0.1000E-09  0.0000E+00  0.4555E+16
   -1.168742    1.82506  0.6671E-10  0.2549E-10  0.3516E-14  0.1000E-09  0.0000E+00  0.4971E+16
   -1.237494    1.97206  0.6633E-10  0.6353E-10  0.8530E-14  0.1000E-09  0.0000E+00  0.5305E+16
   -1.306246    2.14228  0.6600E-10  0.1567E-09  0.2048E-13  0.1000E-09  0.0000E+00  0.5488E+16
   -1.374998    2.33735  0.6578E-10  0.3825E-09  0.4870E-13  0.1000E-09  0.0000E+00  0.5503E+16
   -1.443751    2.56029  0.6559E-10  0.9244E-09  0.1147E-12  0.1107E-09  0.0000E+00  0.5283E+16
   -1.512503    2.81455  0.6528E-10  0.2212E-08  0.2674E-12  0.2928E-09  0.0000E+00  0.4659E+16
   -1.581255    3.09864  0.6479E-10  0.5241E-08  0.6176E-12  0.8741E-09  0.0000E+00  0.3609E+16
   -1.650007    3.40946  0.6423E-10  0.1228E-07  0.1411E-11  0.3370E-08  0.0000E+00  0.2145E+16
   -1.718759    3.73949  0.6391E-10  0.2796E-07  0.3142E-11  0.3520E-07  0.0000E+00  0.4670E+15
   -1.787510    4.02759  0.6385E-10  0.2941E-07  0.3315E-11  0.1045E-03  0.0000E+00 -0.3190E+12
   -1.856262    4.02808  0.6385E-10  0.2998E-07  0.3402E-11  0.1038E-03  0.0000E+00 -0.3317E+12
   -1.925013    4.02859  0.6385E-10  0.3042E-07  0.3489E-11  0.1041E-03  0.0000E+00 -0.3418E+12
   -1.993764    4.02910  0.6385E-10  0.3078E-07  0.3585E-11  0.1038E-03  0.0000E+00 -0.3541E+12
   -2.062515    4.02963  0.6385E-10  0.3106E-07  0.3692E-11  0.1027E-03  0.0000E+00 -0.3680E+12
   -2.131265    4.03017  0.6385E-10  0.3125E-07  0.3820E-11  0.1006E-03  0.0000E+00 -0.3855E+12
   -2.200015    4.03073  0.6385E-10  0.3137E-07  0.3974E-11  0.9765E-04  0.0000E+00 -0.4088E+12
   -2.268764    4.03131  0.6385E-10  0.3139E-07  0.4175E-11  0.9346E-04  0.0000E+00 -0.4408E+12
   -2.337514    4.03193  0.6385E-10  0.3127E-07  0.4469E-11  0.8428E-04  0.0000E+00 -0.5071E+12
   -2.406262    4.03264  0.6385E-10  0.3091E-07  0.4916E-11  0.6777E-04  0.0000E+00 -0.6595E+12
   -2.475010    4.03354  0.6385E-10  0.3019E-07  0.5622E-11  0.5228E-04  0.0000E+00 -0.9072E+12
   -2.543758    4.03476  0.6385E-10  0.2876E-07  0.6914E-11  0.3546E-04  0.0000E+00 -0.1445E+13
   -2.612505    4.03663  0.6385E-10  0.2584E-07  0.9786E-11  0.1759E-04  0.0000E+00 -0.3231E+13
   -2.681251    4.04059  0.6385E-10  0.1364E-07  0.2720E-10  0.1326E-05  0.0000E+00 -0.6423E+14
   -2.749997    4.09196  0.6385E-10  0.0000E+00  0.0000E+00  0.0000E+00  0.0000E+00  0.0000E+00
