 1 - depth, m
 2 - temperature, C
 3 - salinity, kg/kg
 4 - turbulent kinetic energy, m**2/s**2
 5 - dissipation rate, m**2/s**3
 6 - kinematic heat conductance, m**2/s
 7 - modulus of horizontal velocity, m/s
 8 - Richardson number, n/d
   -0.000000   -0.00000  0.2857E-09  0.1219E-13  0.7603E-17  0.1000E-09  0.0000E+00  0.1480E+17
   -0.068746    0.22897  0.8886E-10  0.1219E-13  0.7603E-17  0.1000E-09  0.0000E+00  0.1297E+17
   -0.137492    0.44259  0.6875E-10  0.1219E-13  0.7603E-17  0.1000E-09  0.0000E+00  0.1080E+17
   -0.206239    0.63156  0.6750E-10  0.1219E-13  0.7603E-17  0.1000E-09  0.0000E+00  0.8660E+16
   -0.274987    0.79162  0.6739E-10  0.1219E-13  0.7603E-17  0.1000E-09  0.0000E+00  0.6656E+16
   -0.343735    0.92063  0.6737E-10  0.1219E-13  0.7603E-17  0.1000E-09  0.0000E+00  0.5068E+16
   -0.412484    1.02284  0.6736E-10  0.1219E-13  0.7603E-17  0.1000E-09  0.0000E+00  0.3666E+16
   -0.481233    1.09914  0.6736E-10  0.1219E-13  0.7603E-17  0.1000E-09  0.0000E+00  0.2467E+16
   -0.549983    1.15170  0.6736E-10  0.1219E-13  0.7603E-17  0.1000E-09  0.0000E+00  0.1660E+16
   -0.618733    1.18765  0.6736E-10  0.1225E-13  0.7603E-17  0.1000E-09  0.0000E+00  0.1246E+16
   -0.687483    1.21495  0.6736E-10  0.4319E-13  0.7804E-17  0.1000E-09  0.0000E+00  0.1037E+16
   -0.756234    1.23789  0.6736E-10  0.1233E-12  0.1637E-16  0.1000E-09  0.0000E+00  0.1140E+16
   -0.824985    1.26335  0.6736E-10  0.3070E-12  0.3779E-16  0.1000E-09  0.0000E+00  0.1422E+16
   -0.893736    1.29547  0.6736E-10  0.7312E-12  0.8683E-16  0.1000E-09  0.0000E+00  0.1880E+16
   -0.962488    1.33854  0.6734E-10  0.1708E-11  0.1972E-15  0.1000E-09  0.0000E+00  0.2505E+16
   -1.031240    1.39712  0.6726E-10  0.3943E-11  0.4430E-15  0.1000E-09  0.0000E+00  0.3233E+16
   -1.099992    1.47482  0.6705E-10  0.9037E-11  0.9889E-15  0.1000E-09  0.0000E+00  0.3925E+16
   -1.168744    1.57264  0.6672E-10  0.2054E-10  0.2190E-14  0.1000E-09  0.0000E+00  0.4710E+16
   -1.237496    1.69576  0.6634E-10  0.4626E-10  0.4809E-14  0.1000E-09  0.0000E+00  0.5510E+16
   -1.306248    1.84912  0.6599E-10  0.1033E-09  0.1047E-13  0.1000E-09  0.0000E+00  0.6210E+16
   -1.375001    2.03690  0.6578E-10  0.2285E-09  0.2260E-13  0.1000E-09  0.0000E+00  0.6748E+16
   -1.443753    2.26479  0.6560E-10  0.5015E-09  0.4840E-13  0.1000E-09  0.0000E+00  0.6966E+16
   -1.512505    2.53829  0.6531E-10  0.1092E-08  0.1029E-12  0.1000E-09  0.0000E+00  0.6542E+16
   -1.581257    2.85542  0.6482E-10  0.2357E-08  0.2169E-12  0.2056E-09  0.0000E+00  0.5393E+16
   -1.650010    3.21101  0.6424E-10  0.5052E-08  0.4542E-12  0.6542E-09  0.0000E+00  0.3553E+16
   -1.718762    3.59645  0.6391E-10  0.1072E-07  0.9427E-12  0.4046E-08  0.0000E+00  0.1196E+16
   -1.787513    3.99367  0.6384E-10  0.1182E-07  0.1044E-11  0.3860E-04  0.0000E+00 -0.1908E+12
   -1.856265    3.99521  0.6384E-10  0.1237E-07  0.1108E-11  0.4292E-04  0.0000E+00 -0.2066E+12
   -1.925016    3.99660  0.6384E-10  0.1288E-07  0.1181E-11  0.4608E-04  0.0000E+00 -0.2237E+12
   -1.993767    3.99792  0.6384E-10  0.1333E-07  0.1261E-11  0.4819E-04  0.0000E+00 -0.2436E+12
   -2.062518    3.99919  0.6384E-10  0.1374E-07  0.1352E-11  0.4906E-04  0.0000E+00 -0.2672E+12
   -2.131269    4.00046  0.6384E-10  0.1411E-07  0.1459E-11  0.4869E-04  0.0000E+00 -0.2977E+12
   -2.200019    4.00175  0.6384E-10  0.1443E-07  0.1589E-11  0.4713E-04  0.0000E+00 -0.3389E+12
   -2.268768    4.00310  0.6384E-10  0.1469E-07  0.1751E-11  0.4432E-04  0.0000E+00 -0.3970E+12
   -2.337517    4.00455  0.6384E-10  0.1488E-07  0.1962E-11  0.4018E-04  0.0000E+00 -0.4846E+12
   -2.406266    4.00617  0.6384E-10  0.1495E-07  0.2257E-11  0.3460E-04  0.0000E+00 -0.6293E+12
   -2.475014    4.00811  0.6384E-10  0.1483E-07  0.2712E-11  0.2740E-04  0.0000E+00 -0.9069E+12
   -2.543762    4.01062  0.6384E-10  0.1433E-07  0.3547E-11  0.1835E-04  0.0000E+00 -0.1602E+13
   -2.612509    4.01452  0.6384E-10  0.1297E-07  0.5479E-11  0.8689E-05  0.0000E+00 -0.4332E+13
   -2.681255    4.02304  0.6384E-10  0.7837E-08  0.1576E-10  0.9399E-06  0.0000E+00 -0.8564E+14
   -2.750001    4.09719  0.6384E-10  0.0000E+00  0.0000E+00  0.0000E+00  0.0000E+00  0.0000E+00
