 1 - depth, m
 2 - temperature, C
 3 - salinity, kg/kg
 4 - turbulent kinetic energy, m**2/s**2
 5 - dissipation rate, m**2/s**3
 6 - kinematic heat conductance, m**2/s
 7 - modulus of horizontal velocity, m/s
 8 - Richardson number, n/d
   -0.000000   -0.00000  0.3288E-10  0.1219E-13  0.7603E-17  0.1000E-09  0.0000E+00  0.9168E+16
   -0.068746    0.14016  0.1363E-09  0.1219E-13  0.7603E-17  0.1000E-09  0.0000E+00  0.9178E+16
   -0.137493    0.28615  0.1555E-09  0.1219E-13  0.7603E-17  0.1000E-09  0.0000E+00  0.9017E+16
   -0.206241    0.43581  0.1396E-09  0.1219E-13  0.7603E-17  0.1000E-09  0.0000E+00  0.8764E+16
   -0.274989    0.58797  0.1157E-09  0.1219E-13  0.7603E-17  0.1000E-09  0.0000E+00  0.8435E+16
   -0.343738    0.74156  0.9649E-10  0.1219E-13  0.7603E-17  0.1000E-09  0.0000E+00  0.8071E+16
   -0.412487    0.89606  0.8490E-10  0.1219E-13  0.7603E-17  0.1000E-09  0.0000E+00  0.7659E+16
   -0.481236    1.05061  0.7921E-10  0.1219E-13  0.7603E-17  0.1000E-09  0.0000E+00  0.7216E+16
   -0.549987    1.20445  0.7682E-10  0.1219E-13  0.7603E-17  0.1000E-09  0.0000E+00  0.6771E+16
   -0.618737    1.35738  0.7592E-10  0.1219E-13  0.7603E-17  0.1000E-09  0.0000E+00  0.6333E+16
   -0.687488    1.50935  0.7560E-10  0.1219E-13  0.7603E-17  0.1000E-09  0.0000E+00  0.5893E+16
   -0.756239    1.66004  0.7546E-10  0.1219E-13  0.7603E-17  0.1000E-09  0.0000E+00  0.5463E+16
   -0.824991    1.80942  0.7536E-10  0.1219E-13  0.7603E-17  0.1000E-09  0.0000E+00  0.5039E+16
   -0.893743    1.95730  0.7523E-10  0.1392E-13  0.7603E-17  0.1000E-09  0.0000E+00  0.4622E+16
   -0.962495    2.10349  0.7506E-10  0.3552E-13  0.7936E-17  0.1000E-09  0.0000E+00  0.4215E+16
   -1.031247    2.24786  0.7482E-10  0.9408E-13  0.1090E-16  0.1000E-09  0.0000E+00  0.3816E+16
   -1.100000    2.39011  0.7451E-10  0.2166E-12  0.1991E-16  0.1000E-09  0.0000E+00  0.3417E+16
   -1.168752    2.52957  0.7413E-10  0.4558E-12  0.3928E-16  0.1000E-09  0.0000E+00  0.3035E+16
   -1.237505    2.66603  0.7370E-10  0.9258E-12  0.7764E-16  0.1000E-09  0.0000E+00  0.2669E+16
   -1.306258    2.79927  0.7326E-10  0.1855E-11  0.1528E-15  0.1000E-09  0.0000E+00  0.2323E+16
   -1.375010    2.92908  0.7287E-10  0.3693E-11  0.2996E-15  0.1000E-09  0.0000E+00  0.2003E+16
   -1.443763    3.05570  0.7256E-10  0.7330E-11  0.5868E-15  0.1000E-09  0.0000E+00  0.1711E+16
   -1.512516    3.17969  0.7236E-10  0.1453E-10  0.1149E-14  0.1000E-09  0.0000E+00  0.1435E+16
   -1.581269    3.30102  0.7224E-10  0.2878E-10  0.2250E-14  0.1000E-09  0.0000E+00  0.1175E+16
   -1.650021    3.41967  0.7218E-10  0.5706E-10  0.4413E-14  0.1000E-09  0.0000E+00  0.9312E+15
   -1.718774    3.53560  0.7215E-10  0.1133E-09  0.8670E-14  0.1000E-09  0.0000E+00  0.7017E+15
   -1.787526    3.64851  0.7214E-10  0.2253E-09  0.1707E-13  0.1788E-09  0.0000E+00  0.4851E+15
   -1.856278    3.75735  0.7214E-10  0.4489E-09  0.3367E-13  0.5987E-09  0.0000E+00  0.2846E+15
   -1.925030    3.85937  0.7214E-10  0.8950E-09  0.6644E-13  0.2905E-08  0.0000E+00  0.1143E+15
   -1.993782    3.94854  0.7214E-10  0.1720E-08  0.1271E-12  0.1978E-06  0.0000E+00  0.1237E+14
   -2.062533    3.99570  0.7214E-10  0.2218E-08  0.1660E-12  0.1073E-04  0.0000E+00 -0.1517E+12
   -2.131284    3.99676  0.7214E-10  0.2480E-08  0.1923E-12  0.1169E-04  0.0000E+00 -0.1653E+12
   -2.200034    3.99777  0.7214E-10  0.2715E-08  0.2231E-12  0.1209E-04  0.0000E+00 -0.1874E+12
   -2.268784    3.99881  0.7214E-10  0.2926E-08  0.2610E-12  0.1196E-04  0.0000E+00 -0.2218E+12
   -2.337534    3.99993  0.7214E-10  0.3111E-08  0.3102E-12  0.1128E-04  0.0000E+00 -0.2776E+12
   -2.406283    4.00121  0.7214E-10  0.3262E-08  0.3785E-12  0.1003E-04  0.0000E+00 -0.3755E+12
   -2.475032    4.00277  0.7214E-10  0.3359E-08  0.4839E-12  0.8163E-05  0.0000E+00 -0.5761E+12
   -2.543780    4.00490  0.7214E-10  0.3343E-08  0.6769E-12  0.5517E-05  0.0000E+00 -0.1116E+13
   -2.612528    4.00844  0.7214E-10  0.3044E-08  0.1117E-11  0.2519E-05  0.0000E+00 -0.3480E+13
   -2.681275    4.01689  0.7214E-10  0.1944E-08  0.2929E-11  0.3283E-06  0.0000E+00 -0.5063E+14
   -2.750021    4.07235  0.7214E-10  0.0000E+00  0.0000E+00  0.0000E+00  0.0000E+00  0.0000E+00
