 1 - depth, m
 2 - temperature, C
 3 - salinity, kg/kg
 4 - turbulent kinetic energy, m**2/s**2
 5 - dissipation rate, m**2/s**3
 6 - kinematic heat conductance, m**2/s
 7 - modulus of horizontal velocity, m/s
 8 - Richardson number, n/d
   -0.000000   -0.00000  0.1977E-09  0.6706E-13  0.9937E-17  0.1000E-09  0.0000E+00  0.1338E+17
   -0.068746    0.20637  0.1341E-09  0.1313E-12  0.1429E-16  0.1000E-09  0.0000E+00  0.1235E+17
   -0.137492    0.40819  0.8977E-10  0.2896E-12  0.2814E-16  0.1000E-09  0.0000E+00  0.1128E+17
   -0.206239    0.60361  0.7289E-10  0.6337E-12  0.5878E-16  0.1000E-09  0.0000E+00  0.1030E+17
   -0.274986    0.79325  0.6846E-10  0.1366E-11  0.1229E-15  0.1000E-09  0.0000E+00  0.9437E+16
   -0.343734    0.97799  0.6754E-10  0.2901E-11  0.2543E-15  0.1000E-09  0.0000E+00  0.8739E+16
   -0.412483    1.16041  0.6739E-10  0.6091E-11  0.5207E-15  0.1000E-09  0.0000E+00  0.8099E+16
   -0.481232    1.34124  0.6736E-10  0.1267E-10  0.1057E-14  0.1000E-09  0.0000E+00  0.7508E+16
   -0.549982    1.52124  0.6736E-10  0.2611E-10  0.2125E-14  0.1000E-09  0.0000E+00  0.7008E+16
   -0.618732    1.70258  0.6736E-10  0.5314E-10  0.4224E-14  0.1000E-09  0.0000E+00  0.6577E+16
   -0.687482    1.88755  0.6736E-10  0.1072E-09  0.8318E-14  0.1000E-09  0.0000E+00  0.6154E+16
   -0.756232    2.07739  0.6736E-10  0.2143E-09  0.1625E-13  0.1000E-09  0.0000E+00  0.5797E+16
   -0.824983    2.27606  0.6735E-10  0.4250E-09  0.3149E-13  0.1000E-09  0.0000E+00  0.5393E+16
   -0.893735    2.48503  0.6732E-10  0.8364E-09  0.6056E-13  0.1000E-09  0.0000E+00  0.4924E+16
   -0.962486    2.70612  0.6724E-10  0.1633E-08  0.1156E-12  0.1348E-09  0.0000E+00  0.4365E+16
   -1.031238    2.94140  0.6709E-10  0.3166E-08  0.2192E-12  0.3037E-09  0.0000E+00  0.3673E+16
   -1.099990    3.19277  0.6683E-10  0.6110E-08  0.4138E-12  0.7522E-09  0.0000E+00  0.2801E+16
   -1.168742    3.46104  0.6636E-10  0.1172E-07  0.7766E-12  0.2322E-08  0.0000E+00  0.1704E+16
   -1.237494    3.74167  0.6527E-10  0.2216E-07  0.1439E-11  0.1573E-07  0.0000E+00  0.4670E+15
   -1.306246    4.00693  0.6449E-10  0.2270E-07  0.1476E-11  0.1354E-03  0.0000E+00 -0.1003E+12
   -1.374998    4.00724  0.6449E-10  0.2293E-07  0.1496E-11  0.1330E-03  0.0000E+00 -0.1044E+12
   -1.443750    4.00755  0.6449E-10  0.2314E-07  0.1517E-11  0.1333E-03  0.0000E+00 -0.1062E+12
   -1.512502    4.00787  0.6449E-10  0.2333E-07  0.1541E-11  0.1334E-03  0.0000E+00 -0.1082E+12
   -1.581254    4.00819  0.6449E-10  0.2350E-07  0.1566E-11  0.1332E-03  0.0000E+00 -0.1105E+12
   -1.650006    4.00851  0.6449E-10  0.2365E-07  0.1595E-11  0.1325E-03  0.0000E+00 -0.1133E+12
   -1.718758    4.00883  0.6449E-10  0.2377E-07  0.1626E-11  0.1314E-03  0.0000E+00 -0.1164E+12
   -1.787510    4.00916  0.6449E-10  0.2387E-07  0.1661E-11  0.1300E-03  0.0000E+00 -0.1201E+12
   -1.856261    4.00949  0.6449E-10  0.2395E-07  0.1699E-11  0.1281E-03  0.0000E+00 -0.1243E+12
   -1.925013    4.00983  0.6449E-10  0.2400E-07  0.1741E-11  0.1258E-03  0.0000E+00 -0.1293E+12
   -1.993764    4.01018  0.6449E-10  0.2402E-07  0.1787E-11  0.1230E-03  0.0000E+00 -0.1349E+12
   -2.062514    4.01054  0.6449E-10  0.2401E-07  0.1840E-11  0.1197E-03  0.0000E+00 -0.1415E+12
   -2.131265    4.01091  0.6449E-10  0.2397E-07  0.1903E-11  0.1156E-03  0.0000E+00 -0.1496E+12
   -2.200014    4.01129  0.6449E-10  0.2388E-07  0.1983E-11  0.1107E-03  0.0000E+00 -0.1599E+12
   -2.268764    4.01170  0.6449E-10  0.2372E-07  0.2096E-11  0.1013E-03  0.0000E+00 -0.1792E+12
   -2.337513    4.01215  0.6449E-10  0.2345E-07  0.2266E-11  0.8163E-04  0.0000E+00 -0.2293E+12
   -2.406262    4.01271  0.6449E-10  0.2301E-07  0.2515E-11  0.6480E-04  0.0000E+00 -0.3005E+12
   -2.475010    4.01342  0.6449E-10  0.2233E-07  0.2914E-11  0.4920E-04  0.0000E+00 -0.4171E+12
   -2.543757    4.01439  0.6449E-10  0.2112E-07  0.3659E-11  0.3207E-04  0.0000E+00 -0.6872E+12
   -2.612504    4.01591  0.6449E-10  0.1880E-07  0.5363E-11  0.1505E-04  0.0000E+00 -0.1630E+13
   -2.681250    4.01924  0.6449E-10  0.9199E-08  0.1615E-10  0.9448E-06  0.0000E+00 -0.4386E+14
   -2.749996    4.06809  0.6449E-10  0.0000E+00  0.0000E+00  0.0000E+00  0.0000E+00  0.0000E+00
