 1 - depth, m
 2 - temperature, C
 3 - salinity, kg/kg
 4 - turbulent kinetic energy, m**2/s**2
 5 - dissipation rate, m**2/s**3
 6 - kinematic heat conductance, m**2/s
 7 - modulus of horizontal velocity, m/s
 8 - Richardson number, n/d
   -0.000000   -0.00000  0.1624E-09  0.2179E-12  0.3291E-16  0.1000E-09  0.0000E+00  0.1436E+17
   -0.068746    0.22195  0.1941E-09  0.4284E-12  0.3608E-16  0.1000E-09  0.0000E+00  0.1360E+17
   -0.137492    0.44584  0.1345E-09  0.8756E-12  0.5744E-16  0.1000E-09  0.0000E+00  0.1271E+17
   -0.206240    0.66965  0.9260E-10  0.1703E-11  0.1018E-15  0.1000E-09  0.0000E+00  0.1181E+17
   -0.274987    0.89293  0.7520E-10  0.3205E-11  0.1835E-15  0.1000E-09  0.0000E+00  0.1090E+17
   -0.343735    1.11520  0.6951E-10  0.5911E-11  0.3291E-15  0.1000E-09  0.0000E+00  0.1000E+17
   -0.412484    1.33634  0.6790E-10  0.1076E-10  0.5854E-15  0.1000E-09  0.0000E+00  0.9097E+16
   -0.481234    1.55576  0.6748E-10  0.1943E-10  0.1034E-14  0.1000E-09  0.0000E+00  0.8197E+16
   -0.549983    1.77284  0.6737E-10  0.3482E-10  0.1813E-14  0.1000E-09  0.0000E+00  0.7323E+16
   -0.618733    1.98740  0.6733E-10  0.6177E-10  0.3150E-14  0.1000E-09  0.0000E+00  0.6480E+16
   -0.687484    2.19939  0.6727E-10  0.1088E-09  0.5431E-14  0.1000E-09  0.0000E+00  0.5662E+16
   -0.756235    2.40851  0.6716E-10  0.1902E-09  0.9302E-14  0.1000E-09  0.0000E+00  0.4893E+16
   -0.824986    2.61543  0.6693E-10  0.3305E-09  0.1583E-13  0.1000E-09  0.0000E+00  0.4149E+16
   -0.893737    2.82003  0.6654E-10  0.5706E-09  0.2678E-13  0.1000E-09  0.0000E+00  0.3433E+16
   -0.962489    3.02231  0.6600E-10  0.9790E-09  0.4501E-13  0.1000E-09  0.0000E+00  0.2745E+16
   -1.031241    3.22237  0.6546E-10  0.1669E-08  0.7521E-13  0.1839E-09  0.0000E+00  0.2083E+16
   -1.099993    3.42023  0.6508E-10  0.2837E-08  0.1252E-12  0.4413E-09  0.0000E+00  0.1446E+16
   -1.168745    3.61584  0.6489E-10  0.4798E-08  0.2076E-12  0.1272E-08  0.0000E+00  0.8316E+15
   -1.237497    3.80868  0.6482E-10  0.8049E-08  0.3415E-12  0.7054E-08  0.0000E+00  0.2473E+15
   -1.306250    3.99279  0.6480E-10  0.8377E-08  0.3560E-12  0.6106E-04  0.0000E+00 -0.4624E+11
   -1.375002    3.99323  0.6480E-10  0.8535E-08  0.3645E-12  0.6352E-04  0.0000E+00 -0.4713E+11
   -1.443754    3.99366  0.6480E-10  0.8684E-08  0.3737E-12  0.6564E-04  0.0000E+00 -0.4821E+11
   -1.512507    3.99407  0.6480E-10  0.8820E-08  0.3838E-12  0.6715E-04  0.0000E+00 -0.4957E+11
   -1.581259    3.99447  0.6480E-10  0.8946E-08  0.3948E-12  0.6802E-04  0.0000E+00 -0.5129E+11
   -1.650011    3.99487  0.6480E-10  0.9059E-08  0.4068E-12  0.6831E-04  0.0000E+00 -0.5337E+11
   -1.718763    3.99526  0.6480E-10  0.9160E-08  0.4197E-12  0.6810E-04  0.0000E+00 -0.5583E+11
   -1.787515    3.99565  0.6480E-10  0.9248E-08  0.4339E-12  0.6742E-04  0.0000E+00 -0.5874E+11
   -1.856267    3.99604  0.6480E-10  0.9322E-08  0.4496E-12  0.6626E-04  0.0000E+00 -0.6219E+11
   -1.925018    3.99645  0.6480E-10  0.9382E-08  0.4669E-12  0.6460E-04  0.0000E+00 -0.6633E+11
   -1.993769    3.99686  0.6480E-10  0.9425E-08  0.4864E-12  0.6239E-04  0.0000E+00 -0.7140E+11
   -2.062520    3.99728  0.6480E-10  0.9450E-08  0.5086E-12  0.5966E-04  0.0000E+00 -0.7779E+11
   -2.131271    3.99773  0.6480E-10  0.9455E-08  0.5358E-12  0.5620E-04  0.0000E+00 -0.8626E+11
   -2.200021    3.99820  0.6480E-10  0.9435E-08  0.5696E-12  0.5202E-04  0.0000E+00 -0.9765E+11
   -2.268771    3.99871  0.6480E-10  0.9382E-08  0.6132E-12  0.4706E-04  0.0000E+00 -0.1137E+12
   -2.337520    3.99929  0.6480E-10  0.9283E-08  0.6721E-12  0.4115E-04  0.0000E+00 -0.1378E+12
   -2.406269    3.99995  0.6480E-10  0.9115E-08  0.7569E-12  0.3416E-04  0.0000E+00 -0.1780E+12
   -2.475017    4.00076  0.6480E-10  0.8830E-08  0.8920E-12  0.2598E-04  0.0000E+00 -0.2560E+12
   -2.543765    4.00185  0.6480E-10  0.8300E-08  0.1149E-11  0.1649E-04  0.0000E+00 -0.4555E+12
   -2.612512    4.00362  0.6480E-10  0.7211E-08  0.1767E-11  0.7122E-05  0.0000E+00 -0.1279E+13
   -2.681258    4.00783  0.6480E-10  0.3493E-08  0.5193E-11  0.4807E-06  0.0000E+00 -0.3869E+14
   -2.750004    4.05983  0.6480E-10  0.0000E+00  0.0000E+00  0.0000E+00  0.0000E+00  0.0000E+00
