 1 - depth, m
 2 - temperature, C
 3 - salinity, kg/kg
 4 - turbulent kinetic energy, m**2/s**2
 5 - dissipation rate, m**2/s**3
 6 - kinematic heat conductance, m**2/s
 7 - modulus of horizontal velocity, m/s
 8 - Richardson number, n/d
   -0.000000   -0.00000  0.2472E-09  0.1219E-13  0.7603E-17  0.1000E-09  0.0000E+00  0.1214E+17
   -0.068746    0.18682  0.1264E-09  0.1219E-13  0.7603E-17  0.1000E-09  0.0000E+00  0.1105E+17
   -0.137492    0.36573  0.8201E-10  0.1219E-13  0.7603E-17  0.1000E-09  0.0000E+00  0.9825E+16
   -0.206239    0.53313  0.7285E-10  0.1219E-13  0.7603E-17  0.1000E-09  0.0000E+00  0.8697E+16
   -0.274986    0.68883  0.7151E-10  0.1219E-13  0.7603E-17  0.1000E-09  0.0000E+00  0.7691E+16
   -0.343734    0.83328  0.7135E-10  0.1219E-13  0.7603E-17  0.1000E-09  0.0000E+00  0.6946E+16
   -0.412483    0.97000  0.7133E-10  0.5490E-13  0.9205E-17  0.1000E-09  0.0000E+00  0.6286E+16
   -0.481232    1.09962  0.7132E-10  0.1567E-12  0.2004E-16  0.1000E-09  0.0000E+00  0.5712E+16
   -0.549982    1.22293  0.7132E-10  0.3871E-12  0.4624E-16  0.1000E-09  0.0000E+00  0.5326E+16
   -0.618732    1.34334  0.7132E-10  0.9107E-12  0.1052E-15  0.1000E-09  0.0000E+00  0.5112E+16
   -0.687482    1.46455  0.7132E-10  0.2101E-11  0.2362E-15  0.1000E-09  0.0000E+00  0.4960E+16
   -0.756233    1.58827  0.7132E-10  0.4791E-11  0.5248E-15  0.1000E-09  0.0000E+00  0.4958E+16
   -0.824983    1.71896  0.7132E-10  0.1081E-10  0.1155E-14  0.1000E-09  0.0000E+00  0.4969E+16
   -0.893735    1.85828  0.7131E-10  0.2419E-10  0.2521E-14  0.1000E-09  0.0000E+00  0.4975E+16
   -0.962486    2.00795  0.7128E-10  0.5361E-10  0.5452E-14  0.1000E-09  0.0000E+00  0.4958E+16
   -1.031238    2.16977  0.7119E-10  0.1178E-09  0.1169E-13  0.1000E-09  0.0000E+00  0.4889E+16
   -1.099990    2.34538  0.7101E-10  0.2575E-09  0.2496E-13  0.1000E-09  0.0000E+00  0.4728E+16
   -1.168742    2.53588  0.7072E-10  0.5592E-09  0.5293E-13  0.1000E-09  0.0000E+00  0.4473E+16
   -1.237494    2.74343  0.7037E-10  0.1205E-08  0.1114E-12  0.1391E-09  0.0000E+00  0.4080E+16
   -1.306246    2.96989  0.7002E-10  0.2576E-08  0.2328E-12  0.3395E-09  0.0000E+00  0.3495E+16
   -1.374998    3.21606  0.6973E-10  0.5465E-08  0.4828E-12  0.9193E-09  0.0000E+00  0.2679E+16
   -1.443750    3.48155  0.6938E-10  0.1149E-07  0.9927E-12  0.3149E-08  0.0000E+00  0.1611E+16
   -1.512502    3.76182  0.6852E-10  0.2365E-07  0.2003E-11  0.2650E-07  0.0000E+00  0.3898E+15
   -1.581255    4.01556  0.6800E-10  0.2459E-07  0.2087E-11  0.1139E-03  0.0000E+00 -0.1735E+12
   -1.650007    4.01594  0.6800E-10  0.2497E-07  0.2129E-11  0.1131E-03  0.0000E+00 -0.1797E+12
   -1.718758    4.01632  0.6800E-10  0.2528E-07  0.2172E-11  0.1135E-03  0.0000E+00 -0.1845E+12
   -1.787510    4.01671  0.6800E-10  0.2555E-07  0.2220E-11  0.1135E-03  0.0000E+00 -0.1900E+12
   -1.856262    4.01711  0.6800E-10  0.2578E-07  0.2272E-11  0.1130E-03  0.0000E+00 -0.1967E+12
   -1.925013    4.01752  0.6800E-10  0.2597E-07  0.2331E-11  0.1120E-03  0.0000E+00 -0.2047E+12
   -1.993764    4.01793  0.6800E-10  0.2611E-07  0.2396E-11  0.1105E-03  0.0000E+00 -0.2141E+12
   -2.062514    4.01836  0.6800E-10  0.2621E-07  0.2468E-11  0.1083E-03  0.0000E+00 -0.2244E+12
   -2.131265    4.01881  0.6800E-10  0.2626E-07  0.2555E-11  0.1052E-03  0.0000E+00 -0.2370E+12
   -2.200015    4.01927  0.6800E-10  0.2626E-07  0.2662E-11  0.1012E-03  0.0000E+00 -0.2532E+12
   -2.268764    4.01976  0.6800E-10  0.2618E-07  0.2808E-11  0.9604E-04  0.0000E+00 -0.2752E+12
   -2.337513    4.02028  0.6800E-10  0.2597E-07  0.3026E-11  0.8089E-04  0.0000E+00 -0.3389E+12
   -2.406262    4.02091  0.6800E-10  0.2559E-07  0.3349E-11  0.6460E-04  0.0000E+00 -0.4442E+12
   -2.475010    4.02172  0.6800E-10  0.2491E-07  0.3863E-11  0.4956E-04  0.0000E+00 -0.6156E+12
   -2.543757    4.02282  0.6800E-10  0.2365E-07  0.4811E-11  0.3295E-04  0.0000E+00 -0.1003E+13
   -2.612504    4.02453  0.6800E-10  0.2115E-07  0.6951E-11  0.1585E-04  0.0000E+00 -0.2336E+13
   -2.681251    4.02826  0.6800E-10  0.1079E-07  0.2015E-10  0.1098E-05  0.0000E+00 -0.5455E+14
   -2.749996    4.07976  0.6800E-10  0.0000E+00  0.0000E+00  0.0000E+00  0.0000E+00  0.0000E+00
