 1 - depth, m
 2 - temperature, C
 3 - salinity, kg/kg
 4 - turbulent kinetic energy, m**2/s**2
 5 - dissipation rate, m**2/s**3
 6 - kinematic heat conductance, m**2/s
 7 - modulus of horizontal velocity, m/s
 8 - Richardson number, n/d
   -0.000000   -0.00000  0.1617E-15  0.1219E-13  0.7603E-17  0.1000E-09  0.0000E+00  0.9428E+16
   -0.068746    0.14422  0.8546E-13  0.1219E-13  0.7603E-17  0.1000E-09  0.0000E+00  0.8195E+16
   -0.137492    0.27446  0.6907E-10  0.1219E-13  0.7603E-17  0.1000E-09  0.0000E+00  0.7441E+16
   -0.206240    0.39705  0.1233E-09  0.1219E-13  0.7603E-17  0.1000E-09  0.0000E+00  0.7028E+16
   -0.274987    0.51708  0.1388E-09  0.1219E-13  0.7603E-17  0.1000E-09  0.0000E+00  0.6806E+16
   -0.343736    0.63765  0.1293E-09  0.1219E-13  0.7603E-17  0.1000E-09  0.0000E+00  0.6765E+16
   -0.412485    0.76221  0.1118E-09  0.1219E-13  0.7603E-17  0.1000E-09  0.0000E+00  0.6680E+16
   -0.481234    0.89039  0.9635E-10  0.1219E-13  0.7603E-17  0.1000E-09  0.0000E+00  0.6521E+16
   -0.549984    1.02116  0.8602E-10  0.1219E-13  0.7603E-17  0.1000E-09  0.0000E+00  0.6363E+16
   -0.618734    1.15487  0.8026E-10  0.1219E-13  0.7603E-17  0.1000E-09  0.0000E+00  0.6209E+16
   -0.687484    1.29206  0.7746E-10  0.1219E-13  0.7603E-17  0.1000E-09  0.0000E+00  0.5995E+16
   -0.756235    1.43184  0.7623E-10  0.1219E-13  0.7603E-17  0.1000E-09  0.0000E+00  0.5727E+16
   -0.824986    1.57326  0.7573E-10  0.1219E-13  0.7603E-17  0.1000E-09  0.0000E+00  0.5434E+16
   -0.893738    1.71590  0.7550E-10  0.1219E-13  0.7603E-17  0.1000E-09  0.0000E+00  0.5125E+16
   -0.962490    1.85952  0.7536E-10  0.2795E-13  0.7610E-17  0.1000E-09  0.0000E+00  0.4807E+16
   -1.031241    2.00402  0.7522E-10  0.9207E-13  0.1594E-16  0.1000E-09  0.0000E+00  0.4460E+16
   -1.099994    2.14858  0.7503E-10  0.2624E-12  0.4142E-16  0.1000E-09  0.0000E+00  0.4038E+16
   -1.168746    2.29042  0.7478E-10  0.7101E-12  0.1079E-15  0.1000E-09  0.0000E+00  0.3631E+16
   -1.237498    2.42929  0.7446E-10  0.1884E-11  0.2777E-15  0.1000E-09  0.0000E+00  0.3241E+16
   -1.306251    2.56494  0.7407E-10  0.4938E-11  0.7080E-15  0.1000E-09  0.0000E+00  0.2867E+16
   -1.375003    2.69711  0.7364E-10  0.1283E-10  0.1791E-14  0.1000E-09  0.0000E+00  0.2533E+16
   -1.443755    2.82660  0.7322E-10  0.3308E-10  0.4498E-14  0.1000E-09  0.0000E+00  0.2246E+16
   -1.512508    2.95522  0.7285E-10  0.8468E-10  0.1122E-13  0.1000E-09  0.0000E+00  0.1975E+16
   -1.581260    3.08364  0.7256E-10  0.2152E-09  0.2782E-13  0.1074E-09  0.0000E+00  0.1728E+16
   -1.650012    3.21360  0.7237E-10  0.5423E-09  0.6839E-13  0.2292E-09  0.0000E+00  0.1507E+16
   -1.718764    3.34859  0.7225E-10  0.1354E-08  0.1665E-12  0.6423E-09  0.0000E+00  0.1306E+16
   -1.787516    3.49519  0.7219E-10  0.3338E-08  0.4001E-12  0.1865E-08  0.0000E+00  0.1082E+16
   -1.856268    3.66497  0.7216E-10  0.8084E-08  0.9444E-12  0.7520E-08  0.0000E+00  0.6917E+15
   -1.925020    3.87420  0.7214E-10  0.1509E-07  0.1732E-11  0.7488E-05  0.0000E+00  0.1191E+15
   -1.993771    4.01980  0.7214E-10  0.1644E-07  0.1897E-11  0.5570E-04  0.0000E+00 -0.3836E+12
   -2.062522    4.02055  0.7214E-10  0.1702E-07  0.1992E-11  0.5653E-04  0.0000E+00 -0.3914E+12
   -2.131272    4.02128  0.7214E-10  0.1750E-07  0.2097E-11  0.5629E-04  0.0000E+00 -0.4077E+12
   -2.200022    4.02203  0.7214E-10  0.1787E-07  0.2220E-11  0.5484E-04  0.0000E+00 -0.4346E+12
   -2.268772    4.02281  0.7214E-10  0.1813E-07  0.2369E-11  0.5196E-04  0.0000E+00 -0.4778E+12
   -2.337521    4.02365  0.7214E-10  0.1826E-07  0.2561E-11  0.4758E-04  0.0000E+00 -0.5464E+12
   -2.406270    4.02458  0.7214E-10  0.1821E-07  0.2825E-11  0.4159E-04  0.0000E+00 -0.6605E+12
   -2.475019    4.02568  0.7214E-10  0.1790E-07  0.3228E-11  0.3372E-04  0.0000E+00 -0.8743E+12
   -2.543766    4.02708  0.7214E-10  0.1712E-07  0.3955E-11  0.2337E-04  0.0000E+00 -0.1381E+13
   -2.612513    4.02920  0.7214E-10  0.1530E-07  0.5581E-11  0.1155E-04  0.0000E+00 -0.3158E+13
   -2.681260    4.03370  0.7214E-10  0.8036E-08  0.1486E-10  0.9114E-06  0.0000E+00 -0.6184E+14
   -2.750006    4.08710  0.7214E-10  0.0000E+00  0.0000E+00  0.0000E+00  0.0000E+00  0.0000E+00
