 1 - depth, m
 2 - temperature, C
 3 - salinity, kg/kg
 4 - turbulent kinetic energy, m**2/s**2
 5 - dissipation rate, m**2/s**3
 6 - kinematic heat conductance, m**2/s
 7 - modulus of horizontal velocity, m/s
 8 - Richardson number, n/d
   -0.000000   -0.00000  0.2831E-09  0.1219E-13  0.7603E-17  0.1000E-09  0.0000E+00  0.1121E+17
   -0.068746    0.17212  0.1392E-09  0.1219E-13  0.7603E-17  0.1000E-09  0.0000E+00  0.1022E+17
   -0.137492    0.33658  0.9075E-10  0.1219E-13  0.7603E-17  0.1000E-09  0.0000E+00  0.9086E+16
   -0.206239    0.48972  0.8152E-10  0.1219E-13  0.7603E-17  0.1000E-09  0.0000E+00  0.8020E+16
   -0.274987    0.63104  0.8026E-10  0.1219E-13  0.7603E-17  0.1000E-09  0.0000E+00  0.7052E+16
   -0.343735    0.76073  0.8011E-10  0.1219E-13  0.7603E-17  0.1000E-09  0.0000E+00  0.6321E+16
   -0.412483    0.88183  0.8010E-10  0.1219E-13  0.7603E-17  0.1000E-09  0.0000E+00  0.5664E+16
   -0.481232    0.99473  0.8009E-10  0.1219E-13  0.7603E-17  0.1000E-09  0.0000E+00  0.5083E+16
   -0.549982    1.10000  0.8009E-10  0.1219E-13  0.7603E-17  0.1000E-09  0.0000E+00  0.4681E+16
   -0.618732    1.20064  0.8009E-10  0.1219E-13  0.7603E-17  0.1000E-09  0.0000E+00  0.4450E+16
   -0.687482    1.29998  0.8009E-10  0.1219E-13  0.7603E-17  0.1000E-09  0.0000E+00  0.4285E+16
   -0.756233    1.39941  0.8009E-10  0.2481E-13  0.7603E-17  0.1000E-09  0.0000E+00  0.4269E+16
   -0.824984    1.50260  0.8009E-10  0.8572E-13  0.1419E-16  0.1000E-09  0.0000E+00  0.4284E+16
   -0.893735    1.61085  0.8008E-10  0.2369E-12  0.3472E-16  0.1000E-09  0.0000E+00  0.4320E+16
   -0.962487    1.72546  0.8005E-10  0.6090E-12  0.8549E-16  0.1000E-09  0.0000E+00  0.4362E+16
   -1.031239    1.84766  0.7995E-10  0.1525E-11  0.2076E-15  0.1000E-09  0.0000E+00  0.4382E+16
   -1.099990    1.97817  0.7974E-10  0.3779E-11  0.4999E-15  0.1000E-09  0.0000E+00  0.4336E+16
   -1.168742    2.11658  0.7941E-10  0.9261E-11  0.1192E-14  0.1000E-09  0.0000E+00  0.4261E+16
   -1.237495    2.26373  0.7899E-10  0.2245E-10  0.2810E-14  0.1000E-09  0.0000E+00  0.4141E+16
   -1.306247    2.42032  0.7857E-10  0.5384E-10  0.6558E-14  0.1000E-09  0.0000E+00  0.3960E+16
   -1.374999    2.58681  0.7825E-10  0.1278E-09  0.1515E-13  0.1000E-09  0.0000E+00  0.3731E+16
   -1.443751    2.76478  0.7797E-10  0.3001E-09  0.3465E-13  0.1000E-09  0.0000E+00  0.3441E+16
   -1.512504    2.95644  0.7763E-10  0.6978E-09  0.7849E-13  0.1321E-09  0.0000E+00  0.3025E+16
   -1.581256    3.16162  0.7716E-10  0.1606E-08  0.1761E-12  0.3626E-09  0.0000E+00  0.2473E+16
   -1.650008    3.37965  0.7663E-10  0.3660E-08  0.3911E-12  0.1117E-08  0.0000E+00  0.1783E+16
   -1.718760    3.60924  0.7624E-10  0.8243E-08  0.8590E-12  0.4549E-08  0.0000E+00  0.9627E+15
   -1.787511    3.84552  0.7605E-10  0.1779E-07  0.1815E-11  0.6418E-07  0.0000E+00  0.1461E+15
   -1.856263    4.02186  0.7602E-10  0.1905E-07  0.1952E-11  0.7083E-04  0.0000E+00 -0.2887E+12
   -1.925014    4.02237  0.7602E-10  0.1959E-07  0.2025E-11  0.7451E-04  0.0000E+00 -0.2828E+12
   -1.993765    4.02287  0.7602E-10  0.2002E-07  0.2102E-11  0.7461E-04  0.0000E+00 -0.2907E+12
   -2.062516    4.02337  0.7602E-10  0.2036E-07  0.2188E-11  0.7351E-04  0.0000E+00 -0.3045E+12
   -2.131266    4.02389  0.7602E-10  0.2063E-07  0.2291E-11  0.7104E-04  0.0000E+00 -0.3263E+12
   -2.200016    4.02444  0.7602E-10  0.2084E-07  0.2421E-11  0.6685E-04  0.0000E+00 -0.3608E+12
   -2.268766    4.02504  0.7602E-10  0.2095E-07  0.2588E-11  0.6097E-04  0.0000E+00 -0.4141E+12
   -2.337515    4.02572  0.7602E-10  0.2096E-07  0.2811E-11  0.5441E-04  0.0000E+00 -0.4910E+12
   -2.406263    4.02651  0.7602E-10  0.2081E-07  0.3127E-11  0.4689E-04  0.0000E+00 -0.6119E+12
   -2.475012    4.02747  0.7602E-10  0.2040E-07  0.3616E-11  0.3772E-04  0.0000E+00 -0.8368E+12
   -2.543759    4.02875  0.7602E-10  0.1949E-07  0.4504E-11  0.2599E-04  0.0000E+00 -0.1370E+13
   -2.612506    4.03076  0.7602E-10  0.1749E-07  0.6484E-11  0.1282E-04  0.0000E+00 -0.3234E+13
   -2.681252    4.03519  0.7602E-10  0.9341E-08  0.1786E-10  0.1029E-05  0.0000E+00 -0.6652E+14
   -2.749998    4.09067  0.7602E-10  0.0000E+00  0.0000E+00  0.0000E+00  0.0000E+00  0.0000E+00
