 1 - depth, m
 2 - temperature, C
 3 - salinity, kg/kg
 4 - turbulent kinetic energy, m**2/s**2
 5 - dissipation rate, m**2/s**3
 6 - kinematic heat conductance, m**2/s
 7 - modulus of horizontal velocity, m/s
 8 - Richardson number, n/d
   -0.000000   -0.00000  0.4405E-09  0.1219E-13  0.7603E-17  0.1000E-09  0.0000E+00  0.1190E+17
   -0.068746    0.18294  0.2057E-09  0.1219E-13  0.7603E-17  0.1000E-09  0.0000E+00  0.1123E+17
   -0.137492    0.36475  0.1117E-09  0.1219E-13  0.7603E-17  0.1000E-09  0.0000E+00  0.1051E+17
   -0.206239    0.54403  0.8732E-10  0.1219E-13  0.7603E-17  0.1000E-09  0.0000E+00  0.9796E+16
   -0.274987    0.72056  0.8175E-10  0.1219E-13  0.7603E-17  0.1000E-09  0.0000E+00  0.9105E+16
   -0.343735    0.89420  0.8046E-10  0.1219E-13  0.7603E-17  0.1000E-09  0.0000E+00  0.8451E+16
   -0.412483    1.06509  0.8017E-10  0.1219E-13  0.7603E-17  0.1000E-09  0.0000E+00  0.7816E+16
   -0.481232    1.23305  0.8010E-10  0.1219E-13  0.7603E-17  0.1000E-09  0.0000E+00  0.7201E+16
   -0.549982    1.39789  0.8009E-10  0.1219E-13  0.7603E-17  0.1000E-09  0.0000E+00  0.6620E+16
   -0.618732    1.55973  0.8007E-10  0.1219E-13  0.7603E-17  0.1000E-09  0.0000E+00  0.6072E+16
   -0.687482    1.71875  0.8005E-10  0.4176E-13  0.7603E-17  0.1000E-09  0.0000E+00  0.5547E+16
   -0.756233    1.87490  0.8000E-10  0.1198E-12  0.1230E-16  0.1000E-09  0.0000E+00  0.5071E+16
   -0.824984    2.02890  0.7992E-10  0.2762E-12  0.2449E-16  0.1000E-09  0.0000E+00  0.4609E+16
   -0.893735    2.18063  0.7978E-10  0.5889E-12  0.4956E-16  0.1000E-09  0.0000E+00  0.4163E+16
   -0.962487    2.32996  0.7958E-10  0.1218E-11  0.9940E-16  0.1000E-09  0.0000E+00  0.3733E+16
   -1.031238    2.47673  0.7931E-10  0.2479E-11  0.1974E-15  0.1000E-09  0.0000E+00  0.3320E+16
   -1.099990    2.62081  0.7899E-10  0.5014E-11  0.3898E-15  0.1000E-09  0.0000E+00  0.2926E+16
   -1.168742    2.76213  0.7863E-10  0.1007E-10  0.7649E-15  0.1000E-09  0.0000E+00  0.2550E+16
   -1.237494    2.90047  0.7825E-10  0.2008E-10  0.1490E-14  0.1000E-09  0.0000E+00  0.2192E+16
   -1.306246    3.03566  0.7784E-10  0.3973E-10  0.2882E-14  0.1000E-09  0.0000E+00  0.1853E+16
   -1.374999    3.16750  0.7739E-10  0.7805E-10  0.5536E-14  0.1000E-09  0.0000E+00  0.1540E+16
   -1.443751    3.29622  0.7694E-10  0.1522E-09  0.1056E-13  0.1000E-09  0.0000E+00  0.1251E+16
   -1.512503    3.42235  0.7656E-10  0.2948E-09  0.2000E-13  0.1044E-09  0.0000E+00  0.9790E+15
   -1.581255    3.54580  0.7632E-10  0.5668E-09  0.3762E-13  0.2649E-09  0.0000E+00  0.7228E+15
   -1.650007    3.66642  0.7623E-10  0.1082E-08  0.7028E-13  0.7410E-09  0.0000E+00  0.4828E+15
   -1.718759    3.78397  0.7620E-10  0.2050E-08  0.1303E-12  0.2557E-08  0.0000E+00  0.2595E+15
   -1.787511    3.89747  0.7619E-10  0.3822E-08  0.2382E-12  0.1988E-07  0.0000E+00  0.6104E+14
   -1.856262    3.99665  0.7619E-10  0.4325E-08  0.2709E-12  0.2428E-04  0.0000E+00 -0.1084E+12
   -1.925013    3.99730  0.7619E-10  0.4554E-08  0.2895E-12  0.2503E-04  0.0000E+00 -0.1114E+12
   -1.993764    3.99793  0.7619E-10  0.4752E-08  0.3100E-12  0.2520E-04  0.0000E+00 -0.1167E+12
   -2.062515    3.99856  0.7619E-10  0.4924E-08  0.3333E-12  0.2511E-04  0.0000E+00 -0.1254E+12
   -2.131265    3.99919  0.7619E-10  0.5078E-08  0.3615E-12  0.2461E-04  0.0000E+00 -0.1388E+12
   -2.200015    3.99986  0.7619E-10  0.5213E-08  0.3967E-12  0.2357E-04  0.0000E+00 -0.1583E+12
   -2.268765    4.00059  0.7619E-10  0.5325E-08  0.4420E-12  0.2196E-04  0.0000E+00 -0.1879E+12
   -2.337514    4.00141  0.7619E-10  0.5409E-08  0.5033E-12  0.1974E-04  0.0000E+00 -0.2351E+12
   -2.406263    4.00237  0.7619E-10  0.5451E-08  0.5917E-12  0.1686E-04  0.0000E+00 -0.3180E+12
   -2.475011    4.00359  0.7619E-10  0.5420E-08  0.7325E-12  0.1325E-04  0.0000E+00 -0.4887E+12
   -2.543758    4.00531  0.7619E-10  0.5229E-08  0.9996E-12  0.8643E-05  0.0000E+00 -0.9527E+12
   -2.612505    4.00828  0.7619E-10  0.4645E-08  0.1638E-11  0.3775E-05  0.0000E+00 -0.3043E+13
   -2.681252    4.01583  0.7619E-10  0.2829E-08  0.4575E-11  0.4353E-06  0.0000E+00 -0.5708E+14
   -2.749997    4.07667  0.7619E-10  0.0000E+00  0.0000E+00  0.0000E+00  0.0000E+00  0.0000E+00
