 1 - depth, m
 2 - temperature, C
 3 - salinity, kg/kg
 4 - turbulent kinetic energy, m**2/s**2
 5 - dissipation rate, m**2/s**3
 6 - kinematic heat conductance, m**2/s
 7 - modulus of horizontal velocity, m/s
 8 - Richardson number, n/d
   -0.000000   10.01291  0.6963E-10  0.1225E-04  0.5694E-06  0.2926E-04  0.1897E-01 -0.1041E+00
   -0.068746   10.04236  0.6963E-10  0.1021E-04  0.1886E-06  0.9078E-04  0.1058E-01 -0.2684E+00
   -0.137492   10.05260  0.6963E-10  0.8854E-05  0.9711E-07  0.1624E-03  0.7475E-02  0.1766E+02
   -0.206239   10.05875  0.6963E-10  0.7910E-05  0.5934E-07  0.2295E-03  0.5711E-02  0.5059E+02
   -0.274987   10.06295  0.6963E-10  0.7273E-05  0.4021E-07  0.3045E-03  0.4595E-02  0.3329E+02
   -0.343735   10.06596  0.6963E-10  0.6865E-05  0.2948E-07  0.3881E-03  0.3854E-02  0.1762E+02
   -0.412484   10.06817  0.6963E-10  0.6603E-05  0.2297E-07  0.5056E-03  0.3327E-02  0.2140E+02
   -0.481233   10.06968  0.6963E-10  0.6462E-05  0.1918E-07  0.7350E-03  0.2951E-02  0.8096E+02
   -0.549982   10.07058  0.6963E-10  0.6406E-05  0.1680E-07  0.8545E-03  0.2712E-02  0.2306E+01
   -0.618732   10.07132  0.6963E-10  0.6388E-05  0.1499E-07  0.9338E-03  0.2507E-02  0.2499E+01
   -0.687483   10.07199  0.6963E-10  0.6394E-05  0.1354E-07  0.1019E-02  0.2311E-02  0.2684E+01
   -0.756234   10.07260  0.6963E-10  0.6415E-05  0.1238E-07  0.1105E-02  0.2129E-02  0.2838E+01
   -0.824985   10.07315  0.6963E-10  0.6445E-05  0.1144E-07  0.1178E-02  0.1957E-02  0.2962E+01
   -0.893736   10.07367  0.6963E-10  0.6478E-05  0.1066E-07  0.1232E-02  0.1795E-02  0.3060E+01
   -0.962488   10.07416  0.6963E-10  0.6510E-05  0.1001E-07  0.1280E-02  0.1640E-02  0.3155E+01
   -1.031239   10.07464  0.6963E-10  0.6537E-05  0.9457E-08  0.1326E-02  0.1493E-02  0.3173E+01
   -1.099991   10.07510  0.6963E-10  0.6557E-05  0.8991E-08  0.1382E-02  0.1353E-02  0.2941E+01
   -1.168743   10.07555  0.6963E-10  0.6569E-05  0.8601E-08  0.1435E-02  0.1226E-02  0.2767E+01
   -1.237496   10.07597  0.6963E-10  0.6574E-05  0.8278E-08  0.1484E-02  0.1111E-02  0.2631E+01
   -1.306248   10.07638  0.6963E-10  0.6570E-05  0.8012E-08  0.1530E-02  0.1006E-02  0.2527E+01
   -1.375000   10.07679  0.6963E-10  0.6559E-05  0.7800E-08  0.1573E-02  0.9099E-03  0.2449E+01
   -1.443752   10.07718  0.6963E-10  0.6540E-05  0.7635E-08  0.1611E-02  0.8228E-03  0.2393E+01
   -1.512505   10.07756  0.6963E-10  0.6513E-05  0.7513E-08  0.1646E-02  0.7437E-03  0.2358E+01
   -1.581257   10.07794  0.6963E-10  0.6480E-05  0.7432E-08  0.1676E-02  0.6716E-03  0.2346E+01
   -1.650009   10.07831  0.6963E-10  0.6439E-05  0.7390E-08  0.1699E-02  0.6061E-03  0.2354E+01
   -1.718761   10.07868  0.6963E-10  0.6393E-05  0.7383E-08  0.1699E-02  0.5463E-03  0.2382E+01
   -1.787513   10.07905  0.6963E-10  0.6341E-05  0.7412E-08  0.1672E-02  0.4918E-03  0.2431E+01
   -1.856264   10.07943  0.6963E-10  0.6284E-05  0.7475E-08  0.1630E-02  0.4418E-03  0.2508E+01
   -1.925016   10.07982  0.6963E-10  0.6223E-05  0.7572E-08  0.1578E-02  0.3959E-03  0.2616E+01
   -1.993767   10.08023  0.6963E-10  0.6157E-05  0.7705E-08  0.1518E-02  0.3533E-03  0.2821E+01
   -2.062517   10.08067  0.6963E-10  0.6089E-05  0.7875E-08  0.1451E-02  0.3140E-03  0.3068E+01
   -2.131268   10.08112  0.6963E-10  0.6016E-05  0.8091E-08  0.1380E-02  0.2798E-03  0.3570E+01
   -2.200018   10.08160  0.6963E-10  0.5938E-05  0.8366E-08  0.1308E-02  0.2509E-03  0.4589E+01
   -2.268767   10.08210  0.6963E-10  0.5847E-05  0.8732E-08  0.1226E-02  0.2262E-03  0.6477E+01
   -2.337517   10.08265  0.6963E-10  0.5735E-05  0.9245E-08  0.1122E-02  0.2030E-03  0.9967E+01
   -2.406265   10.08325  0.6963E-10  0.5594E-05  0.9994E-08  0.9957E-03  0.1811E-03  0.1742E+02
   -2.475013   10.08393  0.6963E-10  0.5407E-05  0.1116E-07  0.8468E-03  0.1605E-03  0.3663E+02
   -2.543761   10.08473  0.6963E-10  0.5136E-05  0.1321E-07  0.6527E-03  0.1419E-03  0.1104E+03
   -2.612508   10.08578  0.6963E-10  0.4739E-05  0.1712E-07  0.4926E-03  0.1253E-03  0.5476E+03
   -2.681254   10.08719  0.6963E-10  0.2361E-05  0.5268E-07  0.1643E-04  0.1123E-03 -0.8904E+05
   -2.750000   10.12939  0.6963E-10  0.0000E+00  0.0000E+00  0.0000E+00  0.1121E-03  0.0000E+00
