 1 - depth, m
 2 - temperature, C
 3 - salinity, kg/kg
 4 - turbulent kinetic energy, m**2/s**2
 5 - dissipation rate, m**2/s**3
 6 - kinematic heat conductance, m**2/s
 7 - modulus of horizontal velocity, m/s
 8 - Richardson number, n/d
   -0.000000   -0.00000  0.1303E-09  0.1219E-13  0.7603E-17  0.1000E-09  0.0000E+00  0.1316E+17
   -0.068746    0.20299  0.1464E-09  0.1219E-13  0.7603E-17  0.1000E-09  0.0000E+00  0.1248E+17
   -0.137492    0.40671  0.1353E-09  0.2876E-13  0.7603E-17  0.1000E-09  0.0000E+00  0.1169E+17
   -0.206239    0.60949  0.1119E-09  0.9447E-13  0.9650E-17  0.1000E-09  0.0000E+00  0.1091E+17
   -0.274987    0.81101  0.9051E-10  0.2237E-12  0.1766E-16  0.1000E-09  0.0000E+00  0.1013E+17
   -0.343735    1.01096  0.7735E-10  0.4684E-12  0.3412E-16  0.1000E-09  0.0000E+00  0.9365E+16
   -0.412484    1.20937  0.7108E-10  0.9354E-12  0.6567E-16  0.1000E-09  0.0000E+00  0.8611E+16
   -0.481233    1.40590  0.6859E-10  0.1830E-11  0.1252E-15  0.1000E-09  0.0000E+00  0.7867E+16
   -0.549983    1.60020  0.6771E-10  0.3540E-11  0.2368E-15  0.1000E-09  0.0000E+00  0.7148E+16
   -0.618733    1.79224  0.6741E-10  0.6768E-11  0.4429E-15  0.1000E-09  0.0000E+00  0.6454E+16
   -0.687483    1.98200  0.6726E-10  0.1283E-10  0.8222E-15  0.1000E-09  0.0000E+00  0.5778E+16
   -0.756234    2.16921  0.6711E-10  0.2417E-10  0.1516E-14  0.1000E-09  0.0000E+00  0.5132E+16
   -0.824985    2.35399  0.6688E-10  0.4522E-10  0.2778E-14  0.1000E-09  0.0000E+00  0.4506E+16
   -0.893736    2.53610  0.6654E-10  0.8405E-10  0.5057E-14  0.1000E-09  0.0000E+00  0.3903E+16
   -0.962488    2.71529  0.6612E-10  0.1553E-09  0.9153E-14  0.1000E-09  0.0000E+00  0.3325E+16
   -1.031240    2.89139  0.6568E-10  0.2851E-09  0.1647E-13  0.1000E-09  0.0000E+00  0.2774E+16
   -1.099992    3.06419  0.6530E-10  0.5218E-09  0.2953E-13  0.1000E-09  0.0000E+00  0.2249E+16
   -1.168744    3.23331  0.6504E-10  0.9512E-09  0.5276E-13  0.1530E-09  0.0000E+00  0.1755E+16
   -1.237496    3.39869  0.6490E-10  0.1724E-08  0.9378E-13  0.3692E-09  0.0000E+00  0.1293E+16
   -1.306248    3.56023  0.6483E-10  0.3108E-08  0.1658E-12  0.9795E-09  0.0000E+00  0.8615E+15
   -1.375001    3.71767  0.6481E-10  0.5565E-08  0.2911E-12  0.3214E-08  0.0000E+00  0.4611E+15
   -1.443753    3.87020  0.6480E-10  0.9801E-08  0.5036E-12  0.2471E-07  0.0000E+00  0.1038E+15
   -1.512505    4.00201  0.6480E-10  0.1021E-07  0.5259E-12  0.7526E-04  0.0000E+00 -0.7182E+11
   -1.581257    4.00230  0.6480E-10  0.1039E-07  0.5378E-12  0.7980E-04  0.0000E+00 -0.6896E+11
   -1.650010    4.00257  0.6480E-10  0.1055E-07  0.5500E-12  0.8010E-04  0.0000E+00 -0.6984E+11
   -1.718762    4.00284  0.6480E-10  0.1068E-07  0.5629E-12  0.7984E-04  0.0000E+00 -0.7123E+11
   -1.787513    4.00311  0.6480E-10  0.1079E-07  0.5770E-12  0.7894E-04  0.0000E+00 -0.7325E+11
   -1.856265    4.00339  0.6480E-10  0.1088E-07  0.5927E-12  0.7720E-04  0.0000E+00 -0.7617E+11
   -1.925016    4.00367  0.6480E-10  0.1095E-07  0.6103E-12  0.7443E-04  0.0000E+00 -0.8038E+11
   -1.993767    4.00397  0.6480E-10  0.1100E-07  0.6304E-12  0.7070E-04  0.0000E+00 -0.8614E+11
   -2.062518    4.00427  0.6480E-10  0.1102E-07  0.6536E-12  0.6649E-04  0.0000E+00 -0.9360E+11
   -2.131269    4.00460  0.6480E-10  0.1102E-07  0.6823E-12  0.6190E-04  0.0000E+00 -0.1032E+12
   -2.200019    4.00496  0.6480E-10  0.1099E-07  0.7185E-12  0.5703E-04  0.0000E+00 -0.1153E+12
   -2.268768    4.00535  0.6480E-10  0.1092E-07  0.7655E-12  0.5166E-04  0.0000E+00 -0.1317E+12
   -2.337517    4.00579  0.6480E-10  0.1079E-07  0.8290E-12  0.4541E-04  0.0000E+00 -0.1560E+12
   -2.406266    4.00629  0.6480E-10  0.1058E-07  0.9205E-12  0.3802E-04  0.0000E+00 -0.1959E+12
   -2.475014    4.00691  0.6480E-10  0.1024E-07  0.1066E-11  0.2930E-04  0.0000E+00 -0.2720E+12
   -2.543762    4.00773  0.6480E-10  0.9624E-08  0.1340E-11  0.1898E-04  0.0000E+00 -0.4593E+12
   -2.612509    4.00906  0.6480E-10  0.8393E-08  0.1983E-11  0.8489E-05  0.0000E+00 -0.1172E+13
   -2.681255    4.01214  0.6480E-10  0.3885E-08  0.5701E-11  0.5008E-06  0.0000E+00 -0.3345E+14
   -2.750001    4.05660  0.6480E-10  0.0000E+00  0.0000E+00  0.0000E+00  0.0000E+00  0.0000E+00
