 1 - depth, m
 2 - temperature, C
 3 - salinity, kg/kg
 4 - turbulent kinetic energy, m**2/s**2
 5 - dissipation rate, m**2/s**3
 6 - kinematic heat conductance, m**2/s
 7 - modulus of horizontal velocity, m/s
 8 - Richardson number, n/d
   -0.000000   -0.00000  0.1801E-09  0.1803E-12  0.2714E-16  0.1000E-09  0.0000E+00  0.1440E+17
   -0.068746    0.22259  0.1979E-09  0.3543E-12  0.3162E-16  0.1000E-09  0.0000E+00  0.1369E+17
   -0.137492    0.44803  0.1303E-09  0.7362E-12  0.5313E-16  0.1000E-09  0.0000E+00  0.1284E+17
   -0.206240    0.67430  0.8957E-10  0.1471E-11  0.9818E-16  0.1000E-09  0.0000E+00  0.1195E+17
   -0.274987    0.90067  0.7395E-10  0.2857E-11  0.1837E-15  0.1000E-09  0.0000E+00  0.1103E+17
   -0.343735    1.12633  0.6911E-10  0.5453E-11  0.3414E-15  0.1000E-09  0.0000E+00  0.1010E+17
   -0.412484    1.35088  0.6779E-10  0.1029E-10  0.6293E-15  0.1000E-09  0.0000E+00  0.9167E+16
   -0.481234    1.57346  0.6746E-10  0.1925E-10  0.1152E-14  0.1000E-09  0.0000E+00  0.8229E+16
   -0.549983    1.79327  0.6737E-10  0.3575E-10  0.2093E-14  0.1000E-09  0.0000E+00  0.7319E+16
   -0.618733    2.01003  0.6733E-10  0.6571E-10  0.3767E-14  0.1000E-09  0.0000E+00  0.6444E+16
   -0.687484    2.22358  0.6727E-10  0.1199E-09  0.6727E-14  0.1000E-09  0.0000E+00  0.5601E+16
   -0.756235    2.43361  0.6715E-10  0.2172E-09  0.1193E-13  0.1000E-09  0.0000E+00  0.4812E+16
   -0.824986    2.64073  0.6692E-10  0.3909E-09  0.2104E-13  0.1000E-09  0.0000E+00  0.4056E+16
   -0.893737    2.84485  0.6652E-10  0.6992E-09  0.3685E-13  0.1000E-09  0.0000E+00  0.3335E+16
   -0.962489    3.04602  0.6597E-10  0.1243E-08  0.6415E-13  0.1233E-09  0.0000E+00  0.2650E+16
   -1.031241    3.24446  0.6543E-10  0.2194E-08  0.1110E-12  0.2831E-09  0.0000E+00  0.1996E+16
   -1.099993    3.44035  0.6505E-10  0.3862E-08  0.1914E-12  0.7108E-09  0.0000E+00  0.1371E+16
   -1.168745    3.63380  0.6487E-10  0.6761E-08  0.3284E-12  0.2172E-08  0.0000E+00  0.7702E+15
   -1.237497    3.82398  0.6481E-10  0.1170E-07  0.5576E-12  0.1385E-07  0.0000E+00  0.2055E+15
   -1.306250    3.99910  0.6480E-10  0.1207E-07  0.5761E-12  0.9488E-04  0.0000E+00 -0.5764E+11
   -1.375002    3.99939  0.6480E-10  0.1223E-07  0.5857E-12  0.1003E-03  0.0000E+00 -0.5545E+11
   -1.443755    3.99966  0.6480E-10  0.1236E-07  0.5952E-12  0.1003E-03  0.0000E+00 -0.5645E+11
   -1.512507    3.99992  0.6480E-10  0.1248E-07  0.6050E-12  0.1005E-03  0.0000E+00 -0.5741E+11
   -1.581259    4.00019  0.6480E-10  0.1258E-07  0.6157E-12  0.1004E-03  0.0000E+00 -0.5854E+11
   -1.650011    4.00046  0.6480E-10  0.1266E-07  0.6274E-12  0.9989E-04  0.0000E+00 -0.5988E+11
   -1.718763    4.00073  0.6480E-10  0.1274E-07  0.6403E-12  0.9907E-04  0.0000E+00 -0.6146E+11
   -1.787515    4.00100  0.6480E-10  0.1280E-07  0.6548E-12  0.9787E-04  0.0000E+00 -0.6332E+11
   -1.856267    4.00127  0.6480E-10  0.1284E-07  0.6713E-12  0.9618E-04  0.0000E+00 -0.6559E+11
   -1.925018    4.00155  0.6480E-10  0.1288E-07  0.6903E-12  0.9381E-04  0.0000E+00 -0.6847E+11
   -1.993770    4.00183  0.6480E-10  0.1289E-07  0.7126E-12  0.8926E-04  0.0000E+00 -0.7333E+11
   -2.062520    4.00213  0.6480E-10  0.1288E-07  0.7390E-12  0.8205E-04  0.0000E+00 -0.8154E+11
   -2.131271    4.00246  0.6480E-10  0.1285E-07  0.7719E-12  0.7428E-04  0.0000E+00 -0.9240E+11
   -2.200021    4.00282  0.6480E-10  0.1278E-07  0.8139E-12  0.6671E-04  0.0000E+00 -0.1060E+12
   -2.268771    4.00322  0.6480E-10  0.1267E-07  0.8690E-12  0.5944E-04  0.0000E+00 -0.1230E+12
   -2.337520    4.00368  0.6480E-10  0.1251E-07  0.9439E-12  0.5174E-04  0.0000E+00 -0.1472E+12
   -2.406269    4.00421  0.6480E-10  0.1225E-07  0.1052E-11  0.4297E-04  0.0000E+00 -0.1865E+12
   -2.475017    4.00487  0.6480E-10  0.1185E-07  0.1225E-11  0.3282E-04  0.0000E+00 -0.2610E+12
   -2.543765    4.00574  0.6480E-10  0.1114E-07  0.1551E-11  0.2110E-04  0.0000E+00 -0.4446E+12
   -2.612512    4.00715  0.6480E-10  0.9752E-08  0.2319E-11  0.9439E-05  0.0000E+00 -0.1142E+13
   -2.681258    4.01040  0.6480E-10  0.4546E-08  0.6886E-11  0.5620E-06  0.0000E+00 -0.3501E+14
   -2.750004    4.05740  0.6480E-10  0.0000E+00  0.0000E+00  0.0000E+00  0.0000E+00  0.0000E+00
