 1 - depth, m
 2 - temperature, C
 3 - salinity, kg/kg
 4 - turbulent kinetic energy, m**2/s**2
 5 - dissipation rate, m**2/s**3
 6 - kinematic heat conductance, m**2/s
 7 - modulus of horizontal velocity, m/s
 8 - Richardson number, n/d
   -0.000000   -0.00000  0.4218E-09  0.6020E-12  0.1166E-15  0.1000E-09  0.0000E+00  0.1672E+17
   -0.068746    0.25979  0.1408E-09  0.1345E-11  0.1294E-15  0.1000E-09  0.0000E+00  0.1547E+17
   -0.137492    0.51865  0.8253E-10  0.2932E-11  0.2166E-15  0.1000E-09  0.0000E+00  0.1413E+17
   -0.206239    0.77441  0.7112E-10  0.5942E-11  0.4012E-15  0.1000E-09  0.0000E+00  0.1282E+17
   -0.274987    1.02668  0.6827E-10  0.1159E-10  0.7518E-15  0.1000E-09  0.0000E+00  0.1156E+17
   -0.343735    1.27521  0.6755E-10  0.2215E-10  0.1399E-14  0.1000E-09  0.0000E+00  0.1036E+17
   -0.412483    1.52022  0.6740E-10  0.4179E-10  0.2581E-14  0.1000E-09  0.0000E+00  0.9209E+16
   -0.481233    1.76158  0.6736E-10  0.7821E-10  0.4729E-14  0.1000E-09  0.0000E+00  0.8107E+16
   -0.549982    1.99916  0.6736E-10  0.1454E-09  0.8610E-14  0.1000E-09  0.0000E+00  0.7067E+16
   -0.618732    2.23327  0.6735E-10  0.2676E-09  0.1553E-13  0.1000E-09  0.0000E+00  0.6083E+16
   -0.687483    2.46427  0.6732E-10  0.4891E-09  0.2781E-13  0.1000E-09  0.0000E+00  0.5144E+16
   -0.756233    2.69228  0.6726E-10  0.8884E-09  0.4951E-13  0.1000E-09  0.0000E+00  0.4268E+16
   -0.824984    2.91872  0.6711E-10  0.1604E-08  0.8762E-13  0.1306E-09  0.0000E+00  0.3416E+16
   -0.893736    3.14356  0.6677E-10  0.2878E-08  0.1542E-12  0.3036E-09  0.0000E+00  0.2585E+16
   -0.962487    3.36658  0.6612E-10  0.5135E-08  0.2697E-12  0.7731E-09  0.0000E+00  0.1776E+16
   -1.031239    3.58736  0.6533E-10  0.9100E-08  0.4689E-12  0.2406E-08  0.0000E+00  0.9919E+15
   -1.099991    3.80431  0.6487E-10  0.1597E-07  0.8080E-12  0.1595E-07  0.0000E+00  0.2580E+15
   -1.168743    4.00191  0.6478E-10  0.1636E-07  0.8287E-12  0.1262E-03  0.0000E+00 -0.6053E+11
   -1.237495    4.00216  0.6478E-10  0.1652E-07  0.8393E-12  0.1240E-03  0.0000E+00 -0.6277E+11
   -1.306247    4.00241  0.6478E-10  0.1666E-07  0.8500E-12  0.1244E-03  0.0000E+00 -0.6386E+11
   -1.374999    4.00266  0.6478E-10  0.1679E-07  0.8618E-12  0.1246E-03  0.0000E+00 -0.6496E+11
   -1.443752    4.00291  0.6478E-10  0.1691E-07  0.8747E-12  0.1244E-03  0.0000E+00 -0.6612E+11
   -1.512504    4.00316  0.6478E-10  0.1701E-07  0.8888E-12  0.1240E-03  0.0000E+00 -0.6746E+11
   -1.581256    4.00342  0.6478E-10  0.1710E-07  0.9041E-12  0.1233E-03  0.0000E+00 -0.6900E+11
   -1.650008    4.00367  0.6478E-10  0.1717E-07  0.9209E-12  0.1222E-03  0.0000E+00 -0.7077E+11
   -1.718760    4.00393  0.6478E-10  0.1723E-07  0.9392E-12  0.1208E-03  0.0000E+00 -0.7280E+11
   -1.787512    4.00419  0.6478E-10  0.1728E-07  0.9593E-12  0.1191E-03  0.0000E+00 -0.7512E+11
   -1.856263    4.00446  0.6478E-10  0.1731E-07  0.9813E-12  0.1170E-03  0.0000E+00 -0.7779E+11
   -1.925015    4.00473  0.6478E-10  0.1733E-07  0.1006E-11  0.1146E-03  0.0000E+00 -0.8085E+11
   -1.993766    4.00501  0.6478E-10  0.1732E-07  0.1033E-11  0.1118E-03  0.0000E+00 -0.8435E+11
   -2.062516    4.00529  0.6478E-10  0.1730E-07  0.1064E-11  0.1085E-03  0.0000E+00 -0.8865E+11
   -2.131267    4.00559  0.6478E-10  0.1725E-07  0.1106E-11  0.1042E-03  0.0000E+00 -0.9427E+11
   -2.200017    4.00590  0.6478E-10  0.1715E-07  0.1163E-11  0.9238E-04  0.0000E+00 -0.1089E+12
   -2.268766    4.00625  0.6478E-10  0.1700E-07  0.1240E-11  0.7792E-04  0.0000E+00 -0.1329E+12
   -2.337515    4.00667  0.6478E-10  0.1678E-07  0.1347E-11  0.6536E-04  0.0000E+00 -0.1642E+12
   -2.406264    4.00718  0.6478E-10  0.1644E-07  0.1503E-11  0.5357E-04  0.0000E+00 -0.2094E+12
   -2.475012    4.00781  0.6478E-10  0.1592E-07  0.1750E-11  0.4077E-04  0.0000E+00 -0.2921E+12
   -2.543760    4.00866  0.6478E-10  0.1501E-07  0.2216E-11  0.2626E-04  0.0000E+00 -0.4916E+12
   -2.612507    4.01002  0.6478E-10  0.1326E-07  0.3297E-11  0.1198E-04  0.0000E+00 -0.1218E+13
   -2.681253    4.01310  0.6478E-10  0.6241E-08  0.1001E-10  0.7024E-06  0.0000E+00 -0.3675E+14
   -2.749999    4.05988  0.6478E-10  0.0000E+00  0.0000E+00  0.0000E+00  0.0000E+00  0.0000E+00
