 1 - depth, m
 2 - temperature, C
 3 - salinity, kg/kg
 4 - turbulent kinetic energy, m**2/s**2
 5 - dissipation rate, m**2/s**3
 6 - kinematic heat conductance, m**2/s
 7 - modulus of horizontal velocity, m/s
 8 - Richardson number, n/d
   -0.000000   -0.00000  0.2651E-09  0.2092E-12  0.3481E-16  0.1000E-09  0.0000E+00  0.1496E+17
   -0.068746    0.23153  0.1274E-09  0.4303E-12  0.4428E-16  0.1000E-09  0.0000E+00  0.1376E+17
   -0.137492    0.45879  0.8800E-10  0.9377E-12  0.8098E-16  0.1000E-09  0.0000E+00  0.1254E+17
   -0.206239    0.68034  0.7307E-10  0.1972E-11  0.1601E-15  0.1000E-09  0.0000E+00  0.1142E+17
   -0.274986    0.89685  0.6864E-10  0.4048E-11  0.3182E-15  0.1000E-09  0.0000E+00  0.1042E+17
   -0.343734    1.10922  0.6760E-10  0.8181E-11  0.6276E-15  0.1000E-09  0.0000E+00  0.9546E+16
   -0.412483    1.31942  0.6740E-10  0.1636E-10  0.1228E-14  0.1000E-09  0.0000E+00  0.8737E+16
   -0.481232    1.52825  0.6737E-10  0.3247E-10  0.2384E-14  0.1000E-09  0.0000E+00  0.7977E+16
   -0.549981    1.73654  0.6736E-10  0.6400E-10  0.4599E-14  0.1000E-09  0.0000E+00  0.7284E+16
   -0.618731    1.94596  0.6736E-10  0.1249E-09  0.8786E-14  0.1000E-09  0.0000E+00  0.6632E+16
   -0.687481    2.15816  0.6736E-10  0.2418E-09  0.1666E-13  0.1000E-09  0.0000E+00  0.5978E+16
   -0.756232    2.37399  0.6735E-10  0.4651E-09  0.3140E-13  0.1000E-09  0.0000E+00  0.5349E+16
   -0.824983    2.59604  0.6733E-10  0.8891E-09  0.5881E-13  0.1000E-09  0.0000E+00  0.4661E+16
   -0.893734    2.82450  0.6727E-10  0.1689E-08  0.1095E-12  0.1428E-09  0.0000E+00  0.3903E+16
   -0.962485    3.05907  0.6715E-10  0.3190E-08  0.2027E-12  0.3358E-09  0.0000E+00  0.3073E+16
   -1.031237    3.29891  0.6686E-10  0.5987E-08  0.3729E-12  0.8715E-09  0.0000E+00  0.2179E+16
   -1.099989    3.54258  0.6616E-10  0.1119E-07  0.6836E-12  0.2813E-08  0.0000E+00  0.1238E+16
   -1.168741    3.78708  0.6498E-10  0.2064E-07  0.1238E-11  0.2048E-07  0.0000E+00  0.3082E+15
   -1.237493    4.00715  0.6465E-10  0.2110E-07  0.1267E-11  0.1362E-03  0.0000E+00 -0.8588E+11
   -1.306245    4.00741  0.6465E-10  0.2131E-07  0.1284E-11  0.1338E-03  0.0000E+00 -0.8959E+11
   -1.374997    4.00768  0.6465E-10  0.2150E-07  0.1301E-11  0.1341E-03  0.0000E+00 -0.9138E+11
   -1.443749    4.00795  0.6465E-10  0.2167E-07  0.1320E-11  0.1342E-03  0.0000E+00 -0.9297E+11
   -1.512501    4.00822  0.6465E-10  0.2182E-07  0.1342E-11  0.1340E-03  0.0000E+00 -0.9483E+11
   -1.581253    4.00850  0.6465E-10  0.2196E-07  0.1365E-11  0.1335E-03  0.0000E+00 -0.9700E+11
   -1.650005    4.00878  0.6465E-10  0.2208E-07  0.1390E-11  0.1325E-03  0.0000E+00 -0.9951E+11
   -1.718757    4.00906  0.6465E-10  0.2217E-07  0.1418E-11  0.1312E-03  0.0000E+00 -0.1024E+12
   -1.787509    4.00934  0.6465E-10  0.2225E-07  0.1449E-11  0.1295E-03  0.0000E+00 -0.1058E+12
   -1.856260    4.00963  0.6465E-10  0.2231E-07  0.1483E-11  0.1275E-03  0.0000E+00 -0.1096E+12
   -1.925011    4.00993  0.6465E-10  0.2234E-07  0.1520E-11  0.1250E-03  0.0000E+00 -0.1140E+12
   -1.993762    4.01024  0.6465E-10  0.2235E-07  0.1562E-11  0.1221E-03  0.0000E+00 -0.1191E+12
   -2.062513    4.01055  0.6465E-10  0.2234E-07  0.1609E-11  0.1187E-03  0.0000E+00 -0.1251E+12
   -2.131263    4.01088  0.6465E-10  0.2229E-07  0.1665E-11  0.1145E-03  0.0000E+00 -0.1324E+12
   -2.200013    4.01122  0.6465E-10  0.2220E-07  0.1737E-11  0.1094E-03  0.0000E+00 -0.1418E+12
   -2.268762    4.01158  0.6465E-10  0.2204E-07  0.1840E-11  0.9854E-04  0.0000E+00 -0.1616E+12
   -2.337511    4.01199  0.6465E-10  0.2178E-07  0.1991E-11  0.7945E-04  0.0000E+00 -0.2068E+12
   -2.406260    4.01250  0.6465E-10  0.2137E-07  0.2215E-11  0.6325E-04  0.0000E+00 -0.2705E+12
   -2.475008    4.01315  0.6465E-10  0.2073E-07  0.2571E-11  0.4799E-04  0.0000E+00 -0.3764E+12
   -2.543755    4.01403  0.6465E-10  0.1961E-07  0.3237E-11  0.3116E-04  0.0000E+00 -0.6234E+12
   -2.612502    4.01543  0.6465E-10  0.1743E-07  0.4763E-11  0.1452E-04  0.0000E+00 -0.1490E+13
   -2.681249    4.01853  0.6465E-10  0.8422E-08  0.1443E-10  0.8789E-06  0.0000E+00 -0.4106E+14
   -2.749994    4.06558  0.6464E-10  0.0000E+00  0.0000E+00  0.0000E+00  0.0000E+00  0.0000E+00
