 1 - depth, m
 2 - temperature, C
 3 - salinity, kg/kg
 4 - turbulent kinetic energy, m**2/s**2
 5 - dissipation rate, m**2/s**3
 6 - kinematic heat conductance, m**2/s
 7 - modulus of horizontal velocity, m/s
 8 - Richardson number, n/d
   -0.000000   -0.00000  0.4452E-09  0.1219E-13  0.7603E-17  0.1000E-09  0.0000E+00  0.1370E+17
   -0.068746    0.21155  0.1765E-09  0.1219E-13  0.7603E-17  0.1000E-09  0.0000E+00  0.1282E+17
   -0.137492    0.42166  0.9714E-10  0.1299E-13  0.7603E-17  0.1000E-09  0.0000E+00  0.1188E+17
   -0.206239    0.62868  0.8046E-10  0.6248E-13  0.7913E-17  0.1000E-09  0.0000E+00  0.1095E+17
   -0.274987    0.83239  0.7669E-10  0.1639E-12  0.1428E-16  0.1000E-09  0.0000E+00  0.1007E+17
   -0.343735    1.03263  0.7578E-10  0.3585E-12  0.2817E-16  0.1000E-09  0.0000E+00  0.9232E+16
   -0.412483    1.22972  0.7557E-10  0.7362E-12  0.5545E-16  0.1000E-09  0.0000E+00  0.8427E+16
   -0.481232    1.42348  0.7553E-10  0.1474E-11  0.1080E-15  0.1000E-09  0.0000E+00  0.7653E+16
   -0.549982    1.61373  0.7552E-10  0.2914E-11  0.2086E-15  0.1000E-09  0.0000E+00  0.6926E+16
   -0.618732    1.80074  0.7551E-10  0.5689E-11  0.3981E-15  0.1000E-09  0.0000E+00  0.6244E+16
   -0.687482    1.98484  0.7549E-10  0.1101E-10  0.7537E-15  0.1000E-09  0.0000E+00  0.5593E+16
   -0.756233    2.16605  0.7545E-10  0.2115E-10  0.1417E-14  0.1000E-09  0.0000E+00  0.5001E+16
   -0.824984    2.34547  0.7536E-10  0.4035E-10  0.2644E-14  0.1000E-09  0.0000E+00  0.4426E+16
   -0.893735    2.52304  0.7523E-10  0.7644E-10  0.4904E-14  0.1000E-09  0.0000E+00  0.3869E+16
   -0.962487    2.69871  0.7502E-10  0.1439E-09  0.9036E-14  0.1000E-09  0.0000E+00  0.3330E+16
   -1.031238    2.87241  0.7474E-10  0.2690E-09  0.1654E-13  0.1000E-09  0.0000E+00  0.2811E+16
   -1.099990    3.04411  0.7436E-10  0.5013E-09  0.3019E-13  0.1000E-09  0.0000E+00  0.2312E+16
   -1.168742    3.21394  0.7387E-10  0.9297E-09  0.5485E-13  0.1526E-09  0.0000E+00  0.1829E+16
   -1.237494    3.38172  0.7327E-10  0.1715E-08  0.9910E-13  0.3699E-09  0.0000E+00  0.1364E+16
   -1.306246    3.54716  0.7266E-10  0.3143E-08  0.1780E-12  0.9887E-09  0.0000E+00  0.9163E+15
   -1.374999    3.70966  0.7228E-10  0.5719E-08  0.3175E-12  0.3294E-08  0.0000E+00  0.4906E+15
   -1.443751    3.86757  0.7215E-10  0.1022E-07  0.5574E-12  0.2615E-07  0.0000E+00  0.1085E+15
   -1.512503    4.00253  0.7213E-10  0.1069E-07  0.5840E-12  0.7090E-04  0.0000E+00 -0.8141E+11
   -1.581255    4.00285  0.7213E-10  0.1090E-07  0.5985E-12  0.7409E-04  0.0000E+00 -0.7979E+11
   -1.650007    4.00316  0.7213E-10  0.1108E-07  0.6139E-12  0.7482E-04  0.0000E+00 -0.8076E+11
   -1.718759    4.00346  0.7213E-10  0.1123E-07  0.6302E-12  0.7449E-04  0.0000E+00 -0.8288E+11
   -1.787511    4.00376  0.7213E-10  0.1137E-07  0.6481E-12  0.7369E-04  0.0000E+00 -0.8567E+11
   -1.856262    4.00407  0.7213E-10  0.1148E-07  0.6680E-12  0.7233E-04  0.0000E+00 -0.8929E+11
   -1.925014    4.00439  0.7213E-10  0.1157E-07  0.6903E-12  0.7035E-04  0.0000E+00 -0.9399E+11
   -1.993765    4.00472  0.7213E-10  0.1164E-07  0.7159E-12  0.6764E-04  0.0000E+00 -0.1001E+12
   -2.062515    4.00507  0.7213E-10  0.1168E-07  0.7457E-12  0.6423E-04  0.0000E+00 -0.1086E+12
   -2.131266    4.00543  0.7213E-10  0.1170E-07  0.7825E-12  0.6014E-04  0.0000E+00 -0.1200E+12
   -2.200016    4.00583  0.7213E-10  0.1169E-07  0.8290E-12  0.5558E-04  0.0000E+00 -0.1352E+12
   -2.268765    4.00627  0.7213E-10  0.1164E-07  0.8893E-12  0.5045E-04  0.0000E+00 -0.1562E+12
   -2.337514    4.00676  0.7213E-10  0.1153E-07  0.9711E-12  0.4445E-04  0.0000E+00 -0.1878E+12
   -2.406263    4.00734  0.7213E-10  0.1134E-07  0.1089E-11  0.3736E-04  0.0000E+00 -0.2405E+12
   -2.475011    4.00805  0.7213E-10  0.1101E-07  0.1275E-11  0.2898E-04  0.0000E+00 -0.3422E+12
   -2.543758    4.00904  0.7213E-10  0.1039E-07  0.1626E-11  0.1893E-04  0.0000E+00 -0.5959E+12
   -2.612505    4.01065  0.7213E-10  0.9119E-08  0.2447E-11  0.8525E-05  0.0000E+00 -0.1582E+13
   -2.681252    4.01450  0.7213E-10  0.4491E-08  0.7090E-11  0.5818E-06  0.0000E+00 -0.4365E+14
   -2.749997    4.06613  0.7213E-10  0.0000E+00  0.0000E+00  0.0000E+00  0.0000E+00  0.0000E+00
