 1 - depth, m
 2 - temperature, C
 3 - salinity, kg/kg
 4 - turbulent kinetic energy, m**2/s**2
 5 - dissipation rate, m**2/s**3
 6 - kinematic heat conductance, m**2/s
 7 - modulus of horizontal velocity, m/s
 8 - Richardson number, n/d
   -0.000000   -0.00000  0.2618E-09  0.1219E-13  0.7604E-17  0.1000E-09  0.0000E+00  0.1277E+17
   -0.068746    0.19681  0.1160E-09  0.1219E-13  0.7604E-17  0.1000E-09  0.0000E+00  0.1153E+17
   -0.137492    0.38432  0.7724E-10  0.1219E-13  0.7604E-17  0.1000E-09  0.0000E+00  0.1023E+17
   -0.206239    0.55983  0.6885E-10  0.1219E-13  0.7604E-17  0.1000E-09  0.0000E+00  0.9075E+16
   -0.274986    0.72387  0.6755E-10  0.1223E-13  0.7604E-17  0.1000E-09  0.0000E+00  0.8073E+16
   -0.343734    0.87748  0.6738E-10  0.5682E-13  0.9750E-17  0.1000E-09  0.0000E+00  0.7337E+16
   -0.412483    1.02438  0.6736E-10  0.1637E-12  0.2189E-16  0.1000E-09  0.0000E+00  0.6698E+16
   -0.481232    1.16550  0.6736E-10  0.4106E-12  0.5151E-16  0.1000E-09  0.0000E+00  0.6148E+16
   -0.549982    1.30188  0.6736E-10  0.9871E-12  0.1198E-15  0.1000E-09  0.0000E+00  0.5772E+16
   -0.618731    1.43686  0.6736E-10  0.2322E-11  0.2743E-15  0.1000E-09  0.0000E+00  0.5547E+16
   -0.687482    1.57401  0.6736E-10  0.5395E-11  0.6210E-15  0.1000E-09  0.0000E+00  0.5374E+16
   -0.756232    1.71510  0.6736E-10  0.1241E-10  0.1392E-14  0.1000E-09  0.0000E+00  0.5334E+16
   -0.824983    1.86474  0.6735E-10  0.2827E-10  0.3093E-14  0.1000E-09  0.0000E+00  0.5284E+16
   -0.893735    2.02465  0.6733E-10  0.6382E-10  0.6811E-14  0.1000E-09  0.0000E+00  0.5205E+16
   -0.962486    2.19657  0.6728E-10  0.1428E-09  0.1487E-13  0.1000E-09  0.0000E+00  0.5071E+16
   -1.031238    2.38223  0.6714E-10  0.3166E-09  0.3218E-13  0.1000E-09  0.0000E+00  0.4846E+16
   -1.099989    2.58309  0.6691E-10  0.6987E-09  0.6931E-13  0.1000E-09  0.0000E+00  0.4493E+16
   -1.168741    2.80010  0.6659E-10  0.1531E-08  0.1483E-12  0.1895E-09  0.0000E+00  0.3987E+16
   -1.237494    3.03409  0.6624E-10  0.3329E-08  0.3149E-12  0.4873E-09  0.0000E+00  0.3294E+16
   -1.306246    3.28510  0.6591E-10  0.7175E-08  0.6633E-12  0.1413E-08  0.0000E+00  0.2395E+16
   -1.374998    3.55196  0.6543E-10  0.1530E-07  0.1383E-11  0.5490E-08  0.0000E+00  0.1290E+16
   -1.443750    3.82903  0.6439E-10  0.3109E-07  0.2761E-11  0.8207E-07  0.0000E+00  0.1840E+15
   -1.512502    4.02627  0.6418E-10  0.3193E-07  0.2840E-11  0.1395E-03  0.0000E+00 -0.1970E+12
   -1.581254    4.02658  0.6418E-10  0.3231E-07  0.2884E-11  0.1368E-03  0.0000E+00 -0.2050E+12
   -1.650006    4.02690  0.6418E-10  0.3265E-07  0.2934E-11  0.1370E-03  0.0000E+00 -0.2089E+12
   -1.718758    4.02723  0.6418E-10  0.3295E-07  0.2989E-11  0.1370E-03  0.0000E+00 -0.2134E+12
   -1.787510    4.02756  0.6418E-10  0.3321E-07  0.3050E-11  0.1364E-03  0.0000E+00 -0.2189E+12
   -1.856261    4.02790  0.6418E-10  0.3341E-07  0.3118E-11  0.1353E-03  0.0000E+00 -0.2256E+12
   -1.925012    4.02825  0.6418E-10  0.3358E-07  0.3192E-11  0.1336E-03  0.0000E+00 -0.2336E+12
   -1.993763    4.02860  0.6418E-10  0.3368E-07  0.3275E-11  0.1314E-03  0.0000E+00 -0.2431E+12
   -2.062514    4.02897  0.6418E-10  0.3374E-07  0.3369E-11  0.1285E-03  0.0000E+00 -0.2534E+12
   -2.131264    4.02934  0.6417E-10  0.3373E-07  0.3480E-11  0.1246E-03  0.0000E+00 -0.2660E+12
   -2.200014    4.02974  0.6417E-10  0.3366E-07  0.3617E-11  0.1198E-03  0.0000E+00 -0.2823E+12
   -2.268764    4.03015  0.6417E-10  0.3351E-07  0.3787E-11  0.1139E-03  0.0000E+00 -0.3036E+12
   -2.337513    4.03059  0.6417E-10  0.3323E-07  0.4033E-11  0.1061E-03  0.0000E+00 -0.3343E+12
   -2.406261    4.03107  0.6417E-10  0.3270E-07  0.4431E-11  0.8146E-04  0.0000E+00 -0.4499E+12
   -2.475009    4.03171  0.6417E-10  0.3180E-07  0.5077E-11  0.6021E-04  0.0000E+00 -0.6363E+12
   -2.543757    4.03259  0.6417E-10  0.3019E-07  0.6280E-11  0.3974E-04  0.0000E+00 -0.1022E+13
   -2.612504    4.03399  0.6417E-10  0.2707E-07  0.8974E-11  0.1930E-04  0.0000E+00 -0.2282E+13
   -2.681250    4.03695  0.6417E-10  0.1370E-07  0.2611E-10  0.1264E-05  0.0000E+00 -0.4917E+14
   -2.749996    4.08038  0.6417E-10  0.0000E+00  0.0000E+00  0.0000E+00  0.0000E+00  0.0000E+00
