 1 - depth, m
 2 - temperature, C
 3 - salinity, kg/kg
 4 - turbulent kinetic energy, m**2/s**2
 5 - dissipation rate, m**2/s**3
 6 - kinematic heat conductance, m**2/s
 7 - modulus of horizontal velocity, m/s
 8 - Richardson number, n/d
   -0.000000   -0.00000  0.3117E-09  0.1219E-13  0.7603E-17  0.1000E-09  0.0000E+00  0.1316E+17
   -0.068746    0.20285  0.1181E-09  0.1219E-13  0.7603E-17  0.1000E-09  0.0000E+00  0.1158E+17
   -0.137492    0.39146  0.8360E-10  0.1219E-13  0.7603E-17  0.1000E-09  0.0000E+00  0.9802E+16
   -0.206239    0.55978  0.8041E-10  0.1219E-13  0.7603E-17  0.1000E-09  0.0000E+00  0.8099E+16
   -0.274986    0.70576  0.8014E-10  0.1219E-13  0.7603E-17  0.1000E-09  0.0000E+00  0.6518E+16
   -0.343735    0.82843  0.8010E-10  0.1219E-13  0.7603E-17  0.1000E-09  0.0000E+00  0.5265E+16
   -0.412483    0.93130  0.8009E-10  0.1219E-13  0.7603E-17  0.1000E-09  0.0000E+00  0.4129E+16
   -0.481232    1.01460  0.8009E-10  0.1219E-13  0.7603E-17  0.1000E-09  0.0000E+00  0.3124E+16
   -0.549982    1.07928  0.8009E-10  0.1219E-13  0.7603E-17  0.1000E-09  0.0000E+00  0.2419E+16
   -0.618732    1.13042  0.8009E-10  0.1219E-13  0.7603E-17  0.1000E-09  0.0000E+00  0.2023E+16
   -0.687482    1.17395  0.8009E-10  0.1219E-13  0.7603E-17  0.1000E-09  0.0000E+00  0.1794E+16
   -0.756233    1.21315  0.8009E-10  0.1219E-13  0.7603E-17  0.1000E-09  0.0000E+00  0.1844E+16
   -0.824984    1.25405  0.8009E-10  0.1219E-13  0.7603E-17  0.1000E-09  0.0000E+00  0.2047E+16
   -0.893735    1.30022  0.8009E-10  0.3381E-13  0.7775E-17  0.1000E-09  0.0000E+00  0.2394E+16
   -0.962486    1.35531  0.8007E-10  0.1049E-12  0.1858E-16  0.1000E-09  0.0000E+00  0.2869E+16
   -1.031238    1.42295  0.8001E-10  0.2941E-12  0.4893E-16  0.1000E-09  0.0000E+00  0.3405E+16
   -1.099990    1.50572  0.7982E-10  0.7975E-12  0.1281E-15  0.1000E-09  0.0000E+00  0.3886E+16
   -1.168742    1.60384  0.7950E-10  0.2126E-11  0.3312E-15  0.1000E-09  0.0000E+00  0.4394E+16
   -1.237494    1.72009  0.7906E-10  0.5590E-11  0.8452E-15  0.1000E-09  0.0000E+00  0.4871E+16
   -1.306246    1.85666  0.7860E-10  0.1451E-10  0.2130E-14  0.1000E-09  0.0000E+00  0.5252E+16
   -1.374998    2.01487  0.7827E-10  0.3720E-10  0.5304E-14  0.1000E-09  0.0000E+00  0.5536E+16
   -1.443751    2.19722  0.7804E-10  0.9421E-10  0.1305E-13  0.1000E-09  0.0000E+00  0.5675E+16
   -1.512503    2.40654  0.7774E-10  0.2358E-09  0.3176E-13  0.1000E-09  0.0000E+00  0.5501E+16
   -1.581255    2.64105  0.7727E-10  0.5835E-09  0.7641E-13  0.1000E-09  0.0000E+00  0.4996E+16
   -1.650007    2.89810  0.7670E-10  0.1427E-08  0.1818E-12  0.2220E-09  0.0000E+00  0.4173E+16
   -1.718759    3.17421  0.7625E-10  0.3453E-08  0.4279E-12  0.7097E-09  0.0000E+00  0.3072E+16
   -1.787510    3.46523  0.7606E-10  0.8249E-08  0.9952E-12  0.2896E-08  0.0000E+00  0.1752E+16
   -1.856262    3.76428  0.7601E-10  0.1917E-07  0.2257E-11  0.3062E-07  0.0000E+00  0.3768E+15
   -1.925013    4.02301  0.7601E-10  0.2076E-07  0.2454E-11  0.6644E-04  0.0000E+00 -0.3904E+12
   -1.993764    4.02368  0.7601E-10  0.2142E-07  0.2560E-11  0.6909E-04  0.0000E+00 -0.3882E+12
   -2.062515    4.02434  0.7601E-10  0.2195E-07  0.2675E-11  0.6922E-04  0.0000E+00 -0.4010E+12
   -2.131265    4.02501  0.7601E-10  0.2238E-07  0.2811E-11  0.6778E-04  0.0000E+00 -0.4256E+12
   -2.200015    4.02570  0.7601E-10  0.2272E-07  0.2977E-11  0.6482E-04  0.0000E+00 -0.4647E+12
   -2.268765    4.02645  0.7601E-10  0.2296E-07  0.3189E-11  0.5996E-04  0.0000E+00 -0.5277E+12
   -2.337514    4.02728  0.7601E-10  0.2306E-07  0.3470E-11  0.5401E-04  0.0000E+00 -0.6218E+12
   -2.406262    4.02824  0.7601E-10  0.2298E-07  0.3866E-11  0.4690E-04  0.0000E+00 -0.7718E+12
   -2.475010    4.02940  0.7601E-10  0.2261E-07  0.4475E-11  0.3803E-04  0.0000E+00 -0.1051E+13
   -2.543758    4.03093  0.7601E-10  0.2170E-07  0.5574E-11  0.2647E-04  0.0000E+00 -0.1712E+13
   -2.612505    4.03332  0.7601E-10  0.1956E-07  0.8017E-11  0.1326E-04  0.0000E+00 -0.4014E+13
   -2.681251    4.03849  0.7601E-10  0.1084E-07  0.2187E-10  0.1167E-05  0.0000E+00 -0.7694E+14
   -2.749997    4.09837  0.7601E-10  0.0000E+00  0.0000E+00  0.0000E+00  0.0000E+00  0.0000E+00
