 1 - depth, m
 2 - temperature, C
 3 - salinity, kg/kg
 4 - turbulent kinetic energy, m**2/s**2
 5 - dissipation rate, m**2/s**3
 6 - kinematic heat conductance, m**2/s
 7 - modulus of horizontal velocity, m/s
 8 - Richardson number, n/d
   -0.000000   -0.00000  0.3973E-09  0.1219E-13  0.7603E-17  0.1000E-09  0.0000E+00  0.1326E+17
   -0.068746    0.20456  0.2022E-09  0.1219E-13  0.7603E-17  0.1000E-09  0.0000E+00  0.1248E+17
   -0.137492    0.40840  0.1130E-09  0.1219E-13  0.7603E-17  0.1000E-09  0.0000E+00  0.1161E+17
   -0.206239    0.60980  0.8504E-10  0.1219E-13  0.7603E-17  0.1000E-09  0.0000E+00  0.1076E+17
   -0.274987    0.80844  0.7779E-10  0.5759E-13  0.7603E-17  0.1000E-09  0.0000E+00  0.9922E+16
   -0.343735    1.00405  0.7604E-10  0.1525E-12  0.1287E-16  0.1000E-09  0.0000E+00  0.9129E+16
   -0.412483    1.19676  0.7564E-10  0.3312E-12  0.2469E-16  0.1000E-09  0.0000E+00  0.8358E+16
   -0.481233    1.38631  0.7554E-10  0.6707E-12  0.4765E-16  0.1000E-09  0.0000E+00  0.7613E+16
   -0.549982    1.57249  0.7552E-10  0.1320E-11  0.9113E-16  0.1000E-09  0.0000E+00  0.6908E+16
   -0.618732    1.75541  0.7550E-10  0.2553E-11  0.1721E-15  0.1000E-09  0.0000E+00  0.6242E+16
   -0.687483    1.93522  0.7547E-10  0.4887E-11  0.3221E-15  0.1000E-09  0.0000E+00  0.5604E+16
   -0.756233    2.11184  0.7541E-10  0.9281E-11  0.5985E-15  0.1000E-09  0.0000E+00  0.5018E+16
   -0.824984    2.28601  0.7531E-10  0.1750E-10  0.1104E-14  0.1000E-09  0.0000E+00  0.4453E+16
   -0.893736    2.45760  0.7515E-10  0.3277E-10  0.2024E-14  0.1000E-09  0.0000E+00  0.3910E+16
   -0.962487    2.62649  0.7492E-10  0.6095E-10  0.3687E-14  0.1000E-09  0.0000E+00  0.3390E+16
   -1.031239    2.79254  0.7461E-10  0.1126E-09  0.6672E-14  0.1000E-09  0.0000E+00  0.2893E+16
   -1.099991    2.95570  0.7420E-10  0.2075E-09  0.1204E-13  0.1000E-09  0.0000E+00  0.2422E+16
   -1.168743    3.11592  0.7369E-10  0.3805E-09  0.2162E-13  0.1000E-09  0.0000E+00  0.1975E+16
   -1.237495    3.27312  0.7312E-10  0.6937E-09  0.3861E-13  0.1267E-09  0.0000E+00  0.1551E+16
   -1.306247    3.42722  0.7262E-10  0.1257E-08  0.6858E-13  0.3032E-09  0.0000E+00  0.1151E+16
   -1.374999    3.57801  0.7231E-10  0.2265E-08  0.1211E-12  0.7929E-09  0.0000E+00  0.7775E+15
   -1.443752    3.72558  0.7218E-10  0.4054E-08  0.2124E-12  0.2535E-08  0.0000E+00  0.4268E+15
   -1.512504    3.86944  0.7214E-10  0.7156E-08  0.3681E-12  0.1769E-07  0.0000E+00  0.1060E+15
   -1.581256    3.99802  0.7214E-10  0.7571E-08  0.3906E-12  0.5151E-04  0.0000E+00 -0.7350E+11
   -1.650008    3.99842  0.7214E-10  0.7762E-08  0.4031E-12  0.5253E-04  0.0000E+00 -0.7453E+11
   -1.718760    3.99880  0.7214E-10  0.7931E-08  0.4166E-12  0.5305E-04  0.0000E+00 -0.7624E+11
   -1.787512    3.99919  0.7214E-10  0.8080E-08  0.4314E-12  0.5307E-04  0.0000E+00 -0.7867E+11
   -1.856263    3.99957  0.7214E-10  0.8209E-08  0.4476E-12  0.5259E-04  0.0000E+00 -0.8191E+11
   -1.925015    3.99996  0.7214E-10  0.8316E-08  0.4655E-12  0.5162E-04  0.0000E+00 -0.8610E+11
   -1.993766    4.00036  0.7214E-10  0.8403E-08  0.4857E-12  0.5016E-04  0.0000E+00 -0.9144E+11
   -2.062516    4.00077  0.7214E-10  0.8468E-08  0.5087E-12  0.4839E-04  0.0000E+00 -0.9855E+11
   -2.131267    4.00120  0.7214E-10  0.8513E-08  0.5370E-12  0.4608E-04  0.0000E+00 -0.1083E+12
   -2.200017    4.00165  0.7214E-10  0.8533E-08  0.5724E-12  0.4307E-04  0.0000E+00 -0.1220E+12
   -2.268766    4.00215  0.7214E-10  0.8522E-08  0.6183E-12  0.3931E-04  0.0000E+00 -0.1418E+12
   -2.337515    4.00271  0.7214E-10  0.8468E-08  0.6803E-12  0.3471E-04  0.0000E+00 -0.1723E+12
   -2.406264    4.00337  0.7214E-10  0.8350E-08  0.7698E-12  0.2916E-04  0.0000E+00 -0.2240E+12
   -2.475012    4.00419  0.7214E-10  0.8122E-08  0.9122E-12  0.2254E-04  0.0000E+00 -0.3260E+12
   -2.543760    4.00532  0.7214E-10  0.7667E-08  0.1182E-11  0.1455E-04  0.0000E+00 -0.5893E+12
   -2.612507    4.00720  0.7214E-10  0.6681E-08  0.1825E-11  0.6340E-05  0.0000E+00 -0.1689E+13
   -2.681253    4.01185  0.7214E-10  0.3409E-08  0.5230E-11  0.4844E-06  0.0000E+00 -0.4472E+14
   -2.749999    4.06609  0.7214E-10  0.0000E+00  0.0000E+00  0.0000E+00  0.0000E+00  0.0000E+00
