 1 - depth, m
 2 - temperature, C
 3 - salinity, kg/kg
 4 - turbulent kinetic energy, m**2/s**2
 5 - dissipation rate, m**2/s**3
 6 - kinematic heat conductance, m**2/s
 7 - modulus of horizontal velocity, m/s
 8 - Richardson number, n/d
   -0.000000   -0.00000  0.3010E-09  0.1219E-13  0.7603E-17  0.1000E-09  0.0000E+00  0.9222E+16
   -0.068746    0.14101  0.1493E-09  0.1219E-13  0.7603E-17  0.1000E-09  0.0000E+00  0.8531E+16
   -0.137492    0.27653  0.9744E-10  0.1219E-13  0.7603E-17  0.1000E-09  0.0000E+00  0.7705E+16
   -0.206239    0.40363  0.8717E-10  0.1219E-13  0.7603E-17  0.1000E-09  0.0000E+00  0.6898E+16
   -0.274987    0.52163  0.8572E-10  0.1219E-13  0.7603E-17  0.1000E-09  0.0000E+00  0.6138E+16
   -0.343735    0.63032  0.8555E-10  0.1219E-13  0.7603E-17  0.1000E-09  0.0000E+00  0.5525E+16
   -0.412483    0.73144  0.8553E-10  0.1219E-13  0.7603E-17  0.1000E-09  0.0000E+00  0.4954E+16
   -0.481232    0.82501  0.8553E-10  0.1219E-13  0.7603E-17  0.1000E-09  0.0000E+00  0.4430E+16
   -0.549982    0.91123  0.8553E-10  0.1219E-13  0.7603E-17  0.1000E-09  0.0000E+00  0.4033E+16
   -0.618732    0.99200  0.8553E-10  0.1219E-13  0.7603E-17  0.1000E-09  0.0000E+00  0.3762E+16
   -0.687482    1.06946  0.8553E-10  0.1219E-13  0.7603E-17  0.1000E-09  0.0000E+00  0.3547E+16
   -0.756233    1.14453  0.8553E-10  0.1219E-13  0.7603E-17  0.1000E-09  0.0000E+00  0.3461E+16
   -0.824984    1.21983  0.8553E-10  0.1219E-13  0.7603E-17  0.1000E-09  0.0000E+00  0.3413E+16
   -0.893735    1.29625  0.8553E-10  0.1219E-13  0.7603E-17  0.1000E-09  0.0000E+00  0.3398E+16
   -0.962487    1.37465  0.8552E-10  0.1219E-13  0.7603E-17  0.1000E-09  0.0000E+00  0.3408E+16
   -1.031238    1.45582  0.8550E-10  0.1219E-13  0.7603E-17  0.1000E-09  0.0000E+00  0.3425E+16
   -1.099990    1.54024  0.8544E-10  0.1219E-13  0.7603E-17  0.1000E-09  0.0000E+00  0.3417E+16
   -1.168742    1.62759  0.8532E-10  0.1219E-13  0.7603E-17  0.1000E-09  0.0000E+00  0.3414E+16
   -1.237495    1.71836  0.8507E-10  0.1219E-13  0.7603E-17  0.1000E-09  0.0000E+00  0.3408E+16
   -1.306247    1.81290  0.8469E-10  0.1219E-13  0.7603E-17  0.1000E-09  0.0000E+00  0.3391E+16
   -1.374999    1.91140  0.8419E-10  0.1219E-13  0.7603E-17  0.1000E-09  0.0000E+00  0.3385E+16
   -1.443751    2.01479  0.8372E-10  0.1219E-13  0.7603E-17  0.1000E-09  0.0000E+00  0.3394E+16
   -1.512503    2.12439  0.8332E-10  0.1219E-13  0.7603E-17  0.1000E-09  0.0000E+00  0.3362E+16
   -1.581256    2.23995  0.8292E-10  0.1219E-13  0.7603E-17  0.1000E-09  0.0000E+00  0.3283E+16
   -1.650008    2.36097  0.8243E-10  0.1219E-13  0.7603E-17  0.1000E-09  0.0000E+00  0.3158E+16
   -1.718759    2.48681  0.8194E-10  0.1219E-13  0.7603E-17  0.1000E-09  0.0000E+00  0.2985E+16
   -1.787511    2.61662  0.8157E-10  0.1219E-13  0.7603E-17  0.1000E-09  0.0000E+00  0.2769E+16
   -1.856263    2.74945  0.8139E-10  0.2143E-13  0.9610E-17  0.1000E-09  0.0000E+00  0.2515E+16
   -1.925014    2.88421  0.8132E-10  0.9229E-13  0.3744E-16  0.1000E-09  0.0000E+00  0.2232E+16
   -1.993765    3.01972  0.8125E-10  0.4038E-12  0.1566E-15  0.1000E-09  0.0000E+00  0.1929E+16
   -2.062516    3.15476  0.8122E-10  0.1737E-11  0.6467E-15  0.1000E-09  0.0000E+00  0.1668E+16
   -2.131266    3.29273  0.8121E-10  0.7475E-11  0.2673E-14  0.1000E-09  0.0000E+00  0.1407E+16
   -2.200016    3.43569  0.8121E-10  0.3160E-10  0.1086E-13  0.1000E-09  0.0000E+00  0.1116E+16
   -2.268766    3.58416  0.8121E-10  0.1314E-09  0.4345E-13  0.2774E-09  0.0000E+00  0.7924E+15
   -2.337515    3.73918  0.8121E-10  0.5376E-09  0.1713E-12  0.2041E-08  0.0000E+00  0.4229E+15
   -2.406263    3.90131  0.8121E-10  0.2101E-08  0.6484E-12  0.6611E-07  0.0000E+00  0.4641E+14
   -2.475011    4.02274  0.8121E-10  0.5040E-08  0.1592E-11  0.6061E-05  0.0000E+00 -0.2864E+13
   -2.543759    4.02746  0.8121E-10  0.6137E-08  0.2344E-11  0.5752E-05  0.0000E+00 -0.4070E+13
   -2.612506    4.03335  0.8121E-10  0.6412E-08  0.3745E-11  0.3580E-05  0.0000E+00 -0.9059E+13
   -2.681252    4.04436  0.8121E-10  0.4774E-08  0.9487E-11  0.6432E-06  0.0000E+00 -0.9173E+14
   -2.749998    4.10918  0.8121E-10  0.0000E+00  0.0000E+00  0.0000E+00  0.0000E+00  0.0000E+00
