 1 - depth, m
 2 - temperature, C
 3 - salinity, kg/kg
 4 - turbulent kinetic energy, m**2/s**2
 5 - dissipation rate, m**2/s**3
 6 - kinematic heat conductance, m**2/s
 7 - modulus of horizontal velocity, m/s
 8 - Richardson number, n/d
   -0.000000   -0.00000  0.1944E-09  0.1219E-13  0.7603E-17  0.1000E-09  0.0000E+00  0.1190E+17
   -0.068746    0.18305  0.2228E-09  0.1219E-13  0.7603E-17  0.1000E-09  0.0000E+00  0.1139E+17
   -0.137492    0.36751  0.1505E-09  0.1219E-13  0.7603E-17  0.1000E-09  0.0000E+00  0.1078E+17
   -0.206239    0.55173  0.1026E-09  0.1219E-13  0.7603E-17  0.1000E-09  0.0000E+00  0.1015E+17
   -0.274987    0.73532  0.8365E-10  0.1219E-13  0.7603E-17  0.1000E-09  0.0000E+00  0.9514E+16
   -0.343735    0.91792  0.7768E-10  0.1219E-13  0.7603E-17  0.1000E-09  0.0000E+00  0.8889E+16
   -0.412484    1.09952  0.7605E-10  0.1375E-13  0.7603E-17  0.1000E-09  0.0000E+00  0.8257E+16
   -0.481233    1.27964  0.7564E-10  0.5873E-13  0.7673E-17  0.1000E-09  0.0000E+00  0.7621E+16
   -0.549983    1.45781  0.7554E-10  0.1522E-12  0.1286E-16  0.1000E-09  0.0000E+00  0.7002E+16
   -0.618733    1.63391  0.7550E-10  0.3265E-12  0.2454E-16  0.1000E-09  0.0000E+00  0.6403E+16
   -0.687484    1.80789  0.7547E-10  0.6564E-12  0.4735E-16  0.1000E-09  0.0000E+00  0.5817E+16
   -0.756235    1.97948  0.7541E-10  0.1290E-11  0.9102E-16  0.1000E-09  0.0000E+00  0.5265E+16
   -0.824986    2.14903  0.7532E-10  0.2512E-11  0.1742E-15  0.1000E-09  0.0000E+00  0.4726E+16
   -0.893737    2.31631  0.7517E-10  0.4872E-11  0.3324E-15  0.1000E-09  0.0000E+00  0.4204E+16
   -0.962489    2.48114  0.7496E-10  0.9416E-11  0.6320E-15  0.1000E-09  0.0000E+00  0.3702E+16
   -1.031241    2.64335  0.7467E-10  0.1814E-10  0.1198E-14  0.1000E-09  0.0000E+00  0.3219E+16
   -1.099993    2.80277  0.7428E-10  0.3493E-10  0.2268E-14  0.1000E-09  0.0000E+00  0.2755E+16
   -1.168745    2.95910  0.7381E-10  0.6713E-10  0.4287E-14  0.1000E-09  0.0000E+00  0.2313E+16
   -1.237497    3.11208  0.7329E-10  0.1286E-09  0.8071E-14  0.1000E-09  0.0000E+00  0.1893E+16
   -1.306250    3.26128  0.7279E-10  0.2452E-09  0.1513E-13  0.1000E-09  0.0000E+00  0.1494E+16
   -1.375002    3.40586  0.7244E-10  0.4655E-09  0.2824E-13  0.1287E-09  0.0000E+00  0.1122E+16
   -1.443754    3.54488  0.7225E-10  0.8796E-09  0.5244E-13  0.3410E-09  0.0000E+00  0.7817E+15
   -1.512507    3.67705  0.7217E-10  0.1653E-08  0.9687E-13  0.1024E-08  0.0000E+00  0.4799E+15
   -1.581259    3.80023  0.7214E-10  0.3087E-08  0.1778E-12  0.3915E-08  0.0000E+00  0.2301E+15
   -1.650011    3.91316  0.7214E-10  0.5630E-08  0.3193E-12  0.4001E-07  0.0000E+00  0.4036E+14
   -1.718763    4.00076  0.7214E-10  0.6100E-08  0.3475E-12  0.3991E-04  0.0000E+00 -0.9217E+11
   -1.787515    4.00117  0.7214E-10  0.6315E-08  0.3632E-12  0.4072E-04  0.0000E+00 -0.9373E+11
   -1.856267    4.00157  0.7214E-10  0.6503E-08  0.3801E-12  0.4099E-04  0.0000E+00 -0.9652E+11
   -1.925018    4.00196  0.7214E-10  0.6667E-08  0.3986E-12  0.4074E-04  0.0000E+00 -0.1006E+12
   -1.993769    4.00237  0.7214E-10  0.6806E-08  0.4191E-12  0.3996E-04  0.0000E+00 -0.1063E+12
   -2.062520    4.00279  0.7214E-10  0.6922E-08  0.4424E-12  0.3896E-04  0.0000E+00 -0.1143E+12
   -2.131271    4.00323  0.7214E-10  0.7019E-08  0.4708E-12  0.3748E-04  0.0000E+00 -0.1256E+12
   -2.200021    4.00370  0.7214E-10  0.7093E-08  0.5060E-12  0.3536E-04  0.0000E+00 -0.1417E+12
   -2.268771    4.00421  0.7214E-10  0.7140E-08  0.5513E-12  0.3255E-04  0.0000E+00 -0.1652E+12
   -2.337520    4.00479  0.7214E-10  0.7149E-08  0.6119E-12  0.2897E-04  0.0000E+00 -0.2017E+12
   -2.406269    4.00548  0.7214E-10  0.7101E-08  0.6986E-12  0.2454E-04  0.0000E+00 -0.2638E+12
   -2.475017    4.00634  0.7214E-10  0.6957E-08  0.8352E-12  0.1913E-04  0.0000E+00 -0.3867E+12
   -2.543765    4.00754  0.7214E-10  0.6611E-08  0.1091E-11  0.1244E-04  0.0000E+00 -0.7056E+12
   -2.612512    4.00956  0.7214E-10  0.5785E-08  0.1694E-11  0.5429E-05  0.0000E+00 -0.2047E+13
   -2.681258    4.01463  0.7214E-10  0.3068E-08  0.4716E-11  0.4532E-06  0.0000E+00 -0.4712E+14
   -2.750004    4.06890  0.7214E-10  0.0000E+00  0.0000E+00  0.0000E+00  0.0000E+00  0.0000E+00
