 1 - depth, m
 2 - temperature, C
 3 - salinity, kg/kg
 4 - turbulent kinetic energy, m**2/s**2
 5 - dissipation rate, m**2/s**3
 6 - kinematic heat conductance, m**2/s
 7 - modulus of horizontal velocity, m/s
 8 - Richardson number, n/d
   -0.000000   -0.00000  0.3547E-09  0.2904E-12  0.4934E-16  0.1000E-09  0.0000E+00  0.1630E+17
   -0.068746    0.25312  0.1739E-09  0.6049E-12  0.5847E-16  0.1000E-09  0.0000E+00  0.1509E+17
   -0.137492    0.50494  0.9828E-10  0.1300E-11  0.1015E-15  0.1000E-09  0.0000E+00  0.1380E+17
   -0.206239    0.75346  0.7514E-10  0.2660E-11  0.1926E-15  0.1000E-09  0.0000E+00  0.1255E+17
   -0.274987    0.99837  0.6923E-10  0.5285E-11  0.3692E-15  0.1000E-09  0.0000E+00  0.1134E+17
   -0.343735    1.23943  0.6779E-10  0.1031E-10  0.7023E-15  0.1000E-09  0.0000E+00  0.1020E+17
   -0.412483    1.47677  0.6745E-10  0.1990E-10  0.1325E-14  0.1000E-09  0.0000E+00  0.9093E+16
   -0.481232    1.71018  0.6737E-10  0.3809E-10  0.2482E-14  0.1000E-09  0.0000E+00  0.8038E+16
   -0.549982    1.93945  0.6735E-10  0.7240E-10  0.4618E-14  0.1000E-09  0.0000E+00  0.7041E+16
   -0.618732    2.16472  0.6733E-10  0.1362E-09  0.8509E-14  0.1000E-09  0.0000E+00  0.6099E+16
   -0.687482    2.38613  0.6728E-10  0.2545E-09  0.1557E-13  0.1000E-09  0.0000E+00  0.5205E+16
   -0.756233    2.60367  0.6717E-10  0.4722E-09  0.2830E-13  0.1000E-09  0.0000E+00  0.4377E+16
   -0.824984    2.81834  0.6694E-10  0.8708E-09  0.5113E-13  0.1000E-09  0.0000E+00  0.3583E+16
   -0.893735    3.03008  0.6650E-10  0.1596E-08  0.9184E-13  0.1656E-09  0.0000E+00  0.2823E+16
   -0.962487    3.23875  0.6587E-10  0.2907E-08  0.1640E-12  0.3982E-09  0.0000E+00  0.2096E+16
   -1.031239    3.44412  0.6527E-10  0.5262E-08  0.2910E-12  0.1055E-08  0.0000E+00  0.1404E+16
   -1.099990    3.64570  0.6492E-10  0.9485E-08  0.5144E-12  0.3504E-08  0.0000E+00  0.7472E+15
   -1.168742    3.84141  0.6481E-10  0.1681E-07  0.8958E-12  0.2825E-07  0.0000E+00  0.1615E+15
   -1.237495    4.00662  0.6480E-10  0.1719E-07  0.9168E-12  0.1266E-03  0.0000E+00 -0.7031E+11
   -1.306247    4.00684  0.6480E-10  0.1736E-07  0.9281E-12  0.1242E-03  0.0000E+00 -0.7253E+11
   -1.374999    4.00706  0.6480E-10  0.1750E-07  0.9402E-12  0.1244E-03  0.0000E+00 -0.7327E+11
   -1.443751    4.00728  0.6480E-10  0.1763E-07  0.9533E-12  0.1245E-03  0.0000E+00 -0.7410E+11
   -1.512504    4.00751  0.6480E-10  0.1775E-07  0.9676E-12  0.1243E-03  0.0000E+00 -0.7514E+11
   -1.581256    4.00773  0.6480E-10  0.1785E-07  0.9831E-12  0.1237E-03  0.0000E+00 -0.7640E+11
   -1.650008    4.00796  0.6480E-10  0.1793E-07  0.1000E-11  0.1228E-03  0.0000E+00 -0.7791E+11
   -1.718760    4.00819  0.6480E-10  0.1800E-07  0.1019E-11  0.1216E-03  0.0000E+00 -0.7969E+11
   -1.787511    4.00842  0.6480E-10  0.1805E-07  0.1039E-11  0.1200E-03  0.0000E+00 -0.8177E+11
   -1.856263    4.00866  0.6480E-10  0.1809E-07  0.1061E-11  0.1181E-03  0.0000E+00 -0.8421E+11
   -1.925014    4.00889  0.6480E-10  0.1810E-07  0.1086E-11  0.1157E-03  0.0000E+00 -0.8705E+11
   -1.993765    4.00914  0.6480E-10  0.1810E-07  0.1114E-11  0.1130E-03  0.0000E+00 -0.9033E+11
   -2.062516    4.00939  0.6480E-10  0.1807E-07  0.1145E-11  0.1098E-03  0.0000E+00 -0.9442E+11
   -2.131266    4.00965  0.6480E-10  0.1801E-07  0.1187E-11  0.1057E-03  0.0000E+00 -0.9984E+11
   -2.200016    4.00992  0.6480E-10  0.1791E-07  0.1244E-11  0.9531E-04  0.0000E+00 -0.1130E+12
   -2.268766    4.01023  0.6480E-10  0.1775E-07  0.1323E-11  0.8026E-04  0.0000E+00 -0.1375E+12
   -2.337515    4.01059  0.6480E-10  0.1751E-07  0.1432E-11  0.6713E-04  0.0000E+00 -0.1696E+12
   -2.406263    4.01103  0.6480E-10  0.1716E-07  0.1591E-11  0.5506E-04  0.0000E+00 -0.2151E+12
   -2.475012    4.01158  0.6480E-10  0.1661E-07  0.1843E-11  0.4206E-04  0.0000E+00 -0.2971E+12
   -2.543759    4.01232  0.6480E-10  0.1566E-07  0.2317E-11  0.2727E-04  0.0000E+00 -0.4924E+12
   -2.612506    4.01350  0.6480E-10  0.1384E-07  0.3408E-11  0.1256E-04  0.0000E+00 -0.1185E+13
   -2.681252    4.01616  0.6480E-10  0.6435E-08  0.1026E-10  0.7043E-06  0.0000E+00 -0.3386E+14
   -2.749998    4.05853  0.6480E-10  0.0000E+00  0.0000E+00  0.0000E+00  0.0000E+00  0.0000E+00
