 1 - depth, m
 2 - temperature, C
 3 - salinity, kg/kg
 4 - turbulent kinetic energy, m**2/s**2
 5 - dissipation rate, m**2/s**3
 6 - kinematic heat conductance, m**2/s
 7 - modulus of horizontal velocity, m/s
 8 - Richardson number, n/d
   -0.000000   -0.00000  0.2564E-09  0.1219E-13  0.7603E-17  0.1000E-09  0.0000E+00  0.1239E+17
   -0.068746    0.19074  0.1317E-09  0.1219E-13  0.7603E-17  0.1000E-09  0.0000E+00  0.1145E+17
   -0.137492    0.37653  0.8495E-10  0.1219E-13  0.7603E-17  0.1000E-09  0.0000E+00  0.1038E+17
   -0.206239    0.55417  0.7370E-10  0.1908E-13  0.7604E-17  0.1000E-09  0.0000E+00  0.9375E+16
   -0.274987    0.72347  0.7167E-10  0.5459E-13  0.9980E-17  0.1000E-09  0.0000E+00  0.8471E+16
   -0.343735    0.88485  0.7137E-10  0.1594E-12  0.1992E-16  0.1000E-09  0.0000E+00  0.7775E+16
   -0.412484    1.04116  0.7133E-10  0.4040E-12  0.4619E-16  0.1000E-09  0.0000E+00  0.7151E+16
   -0.481233    1.19304  0.7133E-10  0.9711E-12  0.1068E-15  0.1000E-09  0.0000E+00  0.6596E+16
   -0.549983    1.34123  0.7132E-10  0.2281E-11  0.2433E-15  0.1000E-09  0.0000E+00  0.6185E+16
   -0.618733    1.48853  0.7132E-10  0.5255E-11  0.5451E-15  0.1000E-09  0.0000E+00  0.5897E+16
   -0.687483    1.63794  0.7132E-10  0.1194E-10  0.1205E-14  0.1000E-09  0.0000E+00  0.5645E+16
   -0.756234    1.79087  0.7132E-10  0.2682E-10  0.2634E-14  0.1000E-09  0.0000E+00  0.5504E+16
   -0.824985    1.95144  0.7132E-10  0.5951E-10  0.5689E-14  0.1000E-09  0.0000E+00  0.5340E+16
   -0.893736    2.12084  0.7130E-10  0.1305E-09  0.1215E-13  0.1000E-09  0.0000E+00  0.5134E+16
   -0.962488    2.30024  0.7125E-10  0.2832E-09  0.2568E-13  0.1000E-09  0.0000E+00  0.4870E+16
   -1.031240    2.49075  0.7114E-10  0.6075E-09  0.5369E-13  0.1000E-09  0.0000E+00  0.4529E+16
   -1.099992    2.69356  0.7094E-10  0.1294E-08  0.1114E-12  0.1402E-09  0.0000E+00  0.4097E+16
   -1.168744    2.91027  0.7065E-10  0.2731E-08  0.2293E-12  0.3276E-09  0.0000E+00  0.3563E+16
   -1.237496    3.14387  0.7030E-10  0.5704E-08  0.4671E-12  0.8212E-09  0.0000E+00  0.2893E+16
   -1.306248    3.39967  0.6989E-10  0.1178E-07  0.9414E-12  0.2392E-08  0.0000E+00  0.1994E+16
   -1.375000    3.68509  0.6916E-10  0.2394E-07  0.1867E-11  0.1369E-07  0.0000E+00  0.7111E+15
   -1.443753    3.99081  0.6819E-10  0.2702E-07  0.2130E-11  0.1079E-03  0.0000E+00  0.6985E+13
   -1.512505    4.01109  0.6818E-10  0.2743E-07  0.2170E-11  0.1336E-03  0.0000E+00 -0.1530E+12
   -1.581257    4.01148  0.6818E-10  0.2771E-07  0.2203E-11  0.1330E-03  0.0000E+00 -0.1563E+12
   -1.650009    4.01187  0.6818E-10  0.2796E-07  0.2239E-11  0.1330E-03  0.0000E+00 -0.1584E+12
   -1.718761    4.01226  0.6818E-10  0.2816E-07  0.2278E-11  0.1325E-03  0.0000E+00 -0.1608E+12
   -1.787513    4.01266  0.6818E-10  0.2832E-07  0.2320E-11  0.1316E-03  0.0000E+00 -0.1639E+12
   -1.856265    4.01305  0.6818E-10  0.2845E-07  0.2367E-11  0.1301E-03  0.0000E+00 -0.1676E+12
   -1.925016    4.01344  0.6818E-10  0.2854E-07  0.2418E-11  0.1282E-03  0.0000E+00 -0.1722E+12
   -1.993767    4.01385  0.6818E-10  0.2859E-07  0.2476E-11  0.1258E-03  0.0000E+00 -0.1776E+12
   -2.062518    4.01425  0.6818E-10  0.2859E-07  0.2542E-11  0.1226E-03  0.0000E+00 -0.1845E+12
   -2.131268    4.01467  0.6818E-10  0.2854E-07  0.2623E-11  0.1181E-03  0.0000E+00 -0.1941E+12
   -2.200018    4.01511  0.6818E-10  0.2843E-07  0.2729E-11  0.1115E-03  0.0000E+00 -0.2088E+12
   -2.268768    4.01557  0.6818E-10  0.2823E-07  0.2876E-11  0.9863E-04  0.0000E+00 -0.2402E+12
   -2.337517    4.01609  0.6818E-10  0.2790E-07  0.3085E-11  0.8346E-04  0.0000E+00 -0.2914E+12
   -2.406266    4.01672  0.6818E-10  0.2738E-07  0.3398E-11  0.6736E-04  0.0000E+00 -0.3734E+12
   -2.475014    4.01750  0.6818E-10  0.2655E-07  0.3899E-11  0.5155E-04  0.0000E+00 -0.5125E+12
   -2.543762    4.01854  0.6818E-10  0.2511E-07  0.4834E-11  0.3412E-04  0.0000E+00 -0.8288E+12
   -2.612509    4.02016  0.6818E-10  0.2238E-07  0.6963E-11  0.1636E-04  0.0000E+00 -0.1910E+13
   -2.681255    4.02362  0.6818E-10  0.1114E-07  0.2048E-10  0.1082E-05  0.0000E+00 -0.4708E+14
   -2.750001    4.07248  0.6818E-10  0.0000E+00  0.0000E+00  0.0000E+00  0.0000E+00  0.0000E+00
