 1 - depth, m
 2 - temperature, C
 3 - salinity, kg/kg
 4 - turbulent kinetic energy, m**2/s**2
 5 - dissipation rate, m**2/s**3
 6 - kinematic heat conductance, m**2/s
 7 - modulus of horizontal velocity, m/s
 8 - Richardson number, n/d
   -0.000000   -0.00000  0.5569E-10  0.1218E-13  0.7603E-17  0.1000E-09  0.0000E+00  0.9402E+16
   -0.068746    0.14380  0.1471E-09  0.1218E-13  0.7603E-17  0.1000E-09  0.0000E+00  0.9430E+16
   -0.137493    0.29404  0.1561E-09  0.1218E-13  0.7603E-17  0.1000E-09  0.0000E+00  0.9236E+16
   -0.206241    0.44776  0.1366E-09  0.1218E-13  0.7603E-17  0.1000E-09  0.0000E+00  0.8928E+16
   -0.274989    0.60343  0.1123E-09  0.1218E-13  0.7603E-17  0.1000E-09  0.0000E+00  0.8543E+16
   -0.343738    0.75982  0.9401E-10  0.1218E-13  0.7603E-17  0.1000E-09  0.0000E+00  0.8129E+16
   -0.412487    0.91644  0.8351E-10  0.1218E-13  0.7603E-17  0.1000E-09  0.0000E+00  0.7680E+16
   -0.481237    1.07254  0.7856E-10  0.1218E-13  0.7603E-17  0.1000E-09  0.0000E+00  0.7209E+16
   -0.549987    1.22752  0.7655E-10  0.1218E-13  0.7603E-17  0.1000E-09  0.0000E+00  0.6746E+16
   -0.618738    1.38127  0.7582E-10  0.1218E-13  0.7603E-17  0.1000E-09  0.0000E+00  0.6294E+16
   -0.687489    1.53381  0.7556E-10  0.1218E-13  0.7603E-17  0.1000E-09  0.0000E+00  0.5844E+16
   -0.756240    1.68486  0.7544E-10  0.1218E-13  0.7603E-17  0.1000E-09  0.0000E+00  0.5409E+16
   -0.824992    1.83449  0.7534E-10  0.1218E-13  0.7603E-17  0.1000E-09  0.0000E+00  0.4981E+16
   -0.893744    1.98249  0.7521E-10  0.3317E-13  0.7603E-17  0.1000E-09  0.0000E+00  0.4561E+16
   -0.962496    2.12871  0.7503E-10  0.1023E-12  0.1126E-16  0.1000E-09  0.0000E+00  0.4153E+16
   -1.031248    2.27301  0.7478E-10  0.2427E-12  0.2222E-16  0.1000E-09  0.0000E+00  0.3753E+16
   -1.100001    2.41513  0.7446E-10  0.5258E-12  0.4531E-16  0.1000E-09  0.0000E+00  0.3356E+16
   -1.168754    2.55444  0.7407E-10  0.1100E-11  0.9168E-16  0.1000E-09  0.0000E+00  0.2976E+16
   -1.237506    2.69074  0.7363E-10  0.2261E-11  0.1835E-15  0.1000E-09  0.0000E+00  0.2612E+16
   -1.306259    2.82380  0.7320E-10  0.4596E-11  0.3637E-15  0.1000E-09  0.0000E+00  0.2267E+16
   -1.375012    2.95336  0.7281E-10  0.9251E-11  0.7142E-15  0.1000E-09  0.0000E+00  0.1948E+16
   -1.443765    3.07962  0.7252E-10  0.1845E-10  0.1390E-14  0.1000E-09  0.0000E+00  0.1657E+16
   -1.512518    3.20314  0.7233E-10  0.3647E-10  0.2682E-14  0.1000E-09  0.0000E+00  0.1382E+16
   -1.581271    3.32383  0.7222E-10  0.7145E-10  0.5130E-14  0.1000E-09  0.0000E+00  0.1125E+16
   -1.650023    3.44166  0.7217E-10  0.1388E-09  0.9729E-14  0.1000E-09  0.0000E+00  0.8848E+15
   -1.718776    3.55671  0.7215E-10  0.2672E-09  0.1829E-13  0.1422E-09  0.0000E+00  0.6617E+15
   -1.787528    3.66918  0.7214E-10  0.5100E-09  0.3410E-13  0.3846E-09  0.0000E+00  0.4541E+15
   -1.856280    3.77933  0.7214E-10  0.9644E-09  0.6300E-13  0.1248E-08  0.0000E+00  0.2595E+15
   -1.925032    3.88735  0.7214E-10  0.1801E-08  0.1150E-12  0.7848E-08  0.0000E+00  0.7678E+14
   -1.993784    3.98991  0.7214E-10  0.2245E-08  0.1439E-12  0.1016E-04  0.0000E+00 -0.9359E+11
   -2.062535    3.99163  0.7214E-10  0.2473E-08  0.1631E-12  0.1201E-04  0.0000E+00 -0.1125E+12
   -2.131286    3.99291  0.7214E-10  0.2677E-08  0.1851E-12  0.1298E-04  0.0000E+00 -0.1282E+12
   -2.200037    3.99409  0.7214E-10  0.2860E-08  0.2114E-12  0.1327E-04  0.0000E+00 -0.1487E+12
   -2.268787    3.99525  0.7214E-10  0.3022E-08  0.2438E-12  0.1295E-04  0.0000E+00 -0.1785E+12
   -2.337537    3.99646  0.7214E-10  0.3159E-08  0.2862E-12  0.1204E-04  0.0000E+00 -0.2254E+12
   -2.406286    3.99780  0.7214E-10  0.3262E-08  0.3457E-12  0.1054E-04  0.0000E+00 -0.3077E+12
   -2.475035    3.99941  0.7214E-10  0.3311E-08  0.4391E-12  0.8397E-05  0.0000E+00 -0.4779E+12
   -2.543783    4.00157  0.7214E-10  0.3247E-08  0.6143E-12  0.5524E-05  0.0000E+00 -0.9496E+12
   -2.612531    4.00513  0.7214E-10  0.2913E-08  0.1027E-11  0.2437E-05  0.0000E+00 -0.3124E+13
   -2.681278    4.01375  0.7214E-10  0.1853E-08  0.2750E-11  0.3169E-06  0.0000E+00 -0.4897E+14
   -2.750024    4.07003  0.7214E-10  0.0000E+00  0.0000E+00  0.0000E+00  0.0000E+00  0.0000E+00
