 1 - depth, m
 2 - temperature, C
 3 - salinity, kg/kg
 4 - turbulent kinetic energy, m**2/s**2
 5 - dissipation rate, m**2/s**3
 6 - kinematic heat conductance, m**2/s
 7 - modulus of horizontal velocity, m/s
 8 - Richardson number, n/d
   -0.000000   -0.00000  0.6102E-09  0.1219E-13  0.7603E-17  0.1000E-09  0.0000E+00  0.8200E+16
   -0.068746    0.12511  0.1644E-09  0.1219E-13  0.7603E-17  0.1000E-09  0.0000E+00  0.7868E+16
   -0.137492    0.24935  0.1001E-09  0.1219E-13  0.7603E-17  0.1000E-09  0.0000E+00  0.7472E+16
   -0.206239    0.37155  0.8906E-10  0.1219E-13  0.7603E-17  0.1000E-09  0.0000E+00  0.7072E+16
   -0.274987    0.49138  0.8634E-10  0.1219E-13  0.7603E-17  0.1000E-09  0.0000E+00  0.6675E+16
   -0.343735    0.60864  0.8569E-10  0.1219E-13  0.7603E-17  0.1000E-09  0.0000E+00  0.6297E+16
   -0.412483    0.72334  0.8556E-10  0.1219E-13  0.7603E-17  0.1000E-09  0.0000E+00  0.5929E+16
   -0.481232    0.83537  0.8554E-10  0.1219E-13  0.7603E-17  0.1000E-09  0.0000E+00  0.5572E+16
   -0.549982    0.94463  0.8553E-10  0.1219E-13  0.7603E-17  0.1000E-09  0.0000E+00  0.5239E+16
   -0.618732    1.05125  0.8553E-10  0.1219E-13  0.7603E-17  0.1000E-09  0.0000E+00  0.4928E+16
   -0.687482    1.15539  0.8552E-10  0.1219E-13  0.7603E-17  0.1000E-09  0.0000E+00  0.4634E+16
   -0.756233    1.25712  0.8551E-10  0.1219E-13  0.7603E-17  0.1000E-09  0.0000E+00  0.4385E+16
   -0.824984    1.35718  0.8549E-10  0.1219E-13  0.7603E-17  0.1000E-09  0.0000E+00  0.4145E+16
   -0.893735    1.45555  0.8543E-10  0.1219E-13  0.7603E-17  0.1000E-09  0.0000E+00  0.3914E+16
   -0.962487    1.55225  0.8534E-10  0.1219E-13  0.7603E-17  0.1000E-09  0.0000E+00  0.3691E+16
   -1.031238    1.64725  0.8518E-10  0.1219E-13  0.7603E-17  0.1000E-09  0.0000E+00  0.3478E+16
   -1.099990    1.74060  0.8494E-10  0.1219E-13  0.7603E-17  0.1000E-09  0.0000E+00  0.3280E+16
   -1.168742    1.83247  0.8462E-10  0.1219E-13  0.7603E-17  0.1000E-09  0.0000E+00  0.3087E+16
   -1.237494    1.92282  0.8424E-10  0.1219E-13  0.7603E-17  0.1000E-09  0.0000E+00  0.2901E+16
   -1.306247    2.01161  0.8382E-10  0.1219E-13  0.7603E-17  0.1000E-09  0.0000E+00  0.2719E+16
   -1.374999    2.09877  0.8338E-10  0.1219E-13  0.7603E-17  0.1000E-09  0.0000E+00  0.2554E+16
   -1.443751    2.18457  0.8295E-10  0.1219E-13  0.7603E-17  0.1000E-09  0.0000E+00  0.2407E+16
   -1.512503    2.26949  0.8254E-10  0.1219E-13  0.7603E-17  0.1000E-09  0.0000E+00  0.2263E+16
   -1.581255    2.35348  0.8215E-10  0.1219E-13  0.7603E-17  0.1000E-09  0.0000E+00  0.2122E+16
   -1.650007    2.43647  0.8182E-10  0.1219E-13  0.7603E-17  0.1000E-09  0.0000E+00  0.1984E+16
   -1.718759    2.51841  0.8157E-10  0.1219E-13  0.7603E-17  0.1000E-09  0.0000E+00  0.1848E+16
   -1.787511    2.59920  0.8141E-10  0.1219E-13  0.7603E-17  0.1000E-09  0.0000E+00  0.1716E+16
   -1.856263    2.67879  0.8131E-10  0.1219E-13  0.7603E-17  0.1000E-09  0.0000E+00  0.1587E+16
   -1.925014    2.75708  0.8126E-10  0.1219E-13  0.7603E-17  0.1000E-09  0.0000E+00  0.1462E+16
   -1.993765    2.83401  0.8123E-10  0.1219E-13  0.7603E-17  0.1000E-09  0.0000E+00  0.1341E+16
   -2.062516    2.90949  0.8122E-10  0.1219E-13  0.7603E-17  0.1000E-09  0.0000E+00  0.1275E+16
   -2.131266    2.98663  0.8121E-10  0.1219E-13  0.7603E-17  0.1000E-09  0.0000E+00  0.1236E+16
   -2.200016    3.06764  0.8121E-10  0.1219E-13  0.7603E-17  0.1000E-09  0.0000E+00  0.1197E+16
   -2.268765    3.15366  0.8121E-10  0.1219E-13  0.7603E-17  0.1000E-09  0.0000E+00  0.1156E+16
   -2.337514    3.24634  0.8121E-10  0.1219E-13  0.8041E-17  0.1000E-09  0.0000E+00  0.1110E+16
   -2.406263    3.34809  0.8121E-10  0.3276E-13  0.4259E-16  0.1000E-09  0.0000E+00  0.1053E+16
   -2.475011    3.46271  0.8121E-10  0.3452E-12  0.4481E-15  0.1000E-09  0.0000E+00  0.9656E+15
   -2.543759    3.59674  0.8121E-10  0.3833E-11  0.4880E-14  0.1000E-09  0.0000E+00  0.7765E+15
   -2.612506    3.75584  0.8121E-10  0.4057E-10  0.5099E-13  0.5515E-09  0.0000E+00  0.4010E+15
   -2.681252    3.94122  0.8121E-10  0.4178E-09  0.5363E-12  0.1043E-06  0.0000E+00 -0.4294E+14
   -2.749998    4.07313  0.8121E-10  0.0000E+00  0.0000E+00  0.0000E+00  0.0000E+00  0.0000E+00
