 1 - depth, m
 2 - temperature, C
 3 - salinity, kg/kg
 4 - turbulent kinetic energy, m**2/s**2
 5 - dissipation rate, m**2/s**3
 6 - kinematic heat conductance, m**2/s
 7 - modulus of horizontal velocity, m/s
 8 - Richardson number, n/d
   -0.000000   -0.00000  0.3128E-09  0.4266E-12  0.7334E-16  0.1000E-09  0.0000E+00  0.1570E+17
   -0.068746    0.24346  0.1858E-09  0.8941E-12  0.7579E-16  0.1000E-09  0.0000E+00  0.1465E+17
   -0.137492    0.48696  0.1074E-09  0.1857E-11  0.1165E-15  0.1000E-09  0.0000E+00  0.1350E+17
   -0.206239    0.72843  0.7858E-10  0.3587E-11  0.2014E-15  0.1000E-09  0.0000E+00  0.1236E+17
   -0.274987    0.96737  0.7021E-10  0.6646E-11  0.3554E-15  0.1000E-09  0.0000E+00  0.1124E+17
   -0.343735    1.20343  0.6804E-10  0.1202E-10  0.6242E-15  0.1000E-09  0.0000E+00  0.1017E+17
   -0.412484    1.43658  0.6751E-10  0.2144E-10  0.1088E-14  0.1000E-09  0.0000E+00  0.9121E+16
   -0.481233    1.66651  0.6739E-10  0.3791E-10  0.1882E-14  0.1000E-09  0.0000E+00  0.8110E+16
   -0.549982    1.89294  0.6735E-10  0.6653E-10  0.3234E-14  0.1000E-09  0.0000E+00  0.7147E+16
   -0.618732    2.11593  0.6732E-10  0.1156E-09  0.5507E-14  0.1000E-09  0.0000E+00  0.6233E+16
   -0.687483    2.33565  0.6726E-10  0.1995E-09  0.9310E-14  0.1000E-09  0.0000E+00  0.5359E+16
   -0.756234    2.55204  0.6714E-10  0.3419E-09  0.1564E-13  0.1000E-09  0.0000E+00  0.4546E+16
   -0.824985    2.76609  0.6688E-10  0.5825E-09  0.2612E-13  0.1000E-09  0.0000E+00  0.3761E+16
   -0.893736    2.97773  0.6643E-10  0.9865E-09  0.4335E-13  0.1000E-09  0.0000E+00  0.3006E+16
   -0.962488    3.18694  0.6583E-10  0.1661E-08  0.7155E-13  0.1599E-09  0.0000E+00  0.2279E+16
   -1.031239    3.39361  0.6528E-10  0.2779E-08  0.1174E-12  0.3783E-09  0.0000E+00  0.1580E+16
   -1.099991    3.59760  0.6495E-10  0.4635E-08  0.1920E-12  0.1073E-08  0.0000E+00  0.9116E+15
   -1.168743    3.79855  0.6482E-10  0.7682E-08  0.3122E-12  0.5762E-08  0.0000E+00  0.2765E+15
   -1.237496    3.99127  0.6480E-10  0.8000E-08  0.3257E-12  0.5638E-04  0.0000E+00 -0.4033E+11
   -1.306248    3.99177  0.6480E-10  0.8158E-08  0.3337E-12  0.5945E-04  0.0000E+00 -0.4180E+11
   -1.375000    3.99225  0.6480E-10  0.8309E-08  0.3427E-12  0.6203E-04  0.0000E+00 -0.4327E+11
   -1.443752    3.99270  0.6480E-10  0.8453E-08  0.3526E-12  0.6411E-04  0.0000E+00 -0.4486E+11
   -1.512505    3.99314  0.6480E-10  0.8587E-08  0.3633E-12  0.6563E-04  0.0000E+00 -0.4665E+11
   -1.581257    3.99356  0.6480E-10  0.8712E-08  0.3750E-12  0.6657E-04  0.0000E+00 -0.4871E+11
   -1.650009    3.99398  0.6480E-10  0.8827E-08  0.3877E-12  0.6697E-04  0.0000E+00 -0.5109E+11
   -1.718761    3.99440  0.6480E-10  0.8930E-08  0.4015E-12  0.6685E-04  0.0000E+00 -0.5384E+11
   -1.787513    3.99481  0.6480E-10  0.9023E-08  0.4166E-12  0.6625E-04  0.0000E+00 -0.5704E+11
   -1.856264    3.99523  0.6480E-10  0.9102E-08  0.4331E-12  0.6516E-04  0.0000E+00 -0.6080E+11
   -1.925016    3.99566  0.6480E-10  0.9167E-08  0.4514E-12  0.6358E-04  0.0000E+00 -0.6526E+11
   -1.993767    3.99610  0.6480E-10  0.9217E-08  0.4718E-12  0.6149E-04  0.0000E+00 -0.7063E+11
   -2.062517    3.99655  0.6480E-10  0.9249E-08  0.4949E-12  0.5888E-04  0.0000E+00 -0.7732E+11
   -2.131268    3.99702  0.6480E-10  0.9262E-08  0.5231E-12  0.5553E-04  0.0000E+00 -0.8613E+11
   -2.200018    3.99752  0.6480E-10  0.9251E-08  0.5580E-12  0.5142E-04  0.0000E+00 -0.9801E+11
   -2.268767    3.99807  0.6480E-10  0.9207E-08  0.6030E-12  0.4649E-04  0.0000E+00 -0.1148E+12
   -2.337517    3.99868  0.6480E-10  0.9119E-08  0.6635E-12  0.4062E-04  0.0000E+00 -0.1401E+12
   -2.406265    3.99938  0.6480E-10  0.8964E-08  0.7505E-12  0.3367E-04  0.0000E+00 -0.1823E+12
   -2.475014    4.00024  0.6480E-10  0.8693E-08  0.8891E-12  0.2554E-04  0.0000E+00 -0.2645E+12
   -2.543761    4.00141  0.6480E-10  0.8180E-08  0.1153E-11  0.1614E-04  0.0000E+00 -0.4763E+12
   -2.612508    4.00330  0.6480E-10  0.7113E-08  0.1788E-11  0.6936E-05  0.0000E+00 -0.1364E+13
   -2.681255    4.00782  0.6480E-10  0.3504E-08  0.5273E-11  0.4866E-06  0.0000E+00 -0.4081E+14
   -2.750000    4.06165  0.6480E-10  0.0000E+00  0.0000E+00  0.0000E+00  0.0000E+00  0.0000E+00
