 1 - depth, m
 2 - temperature, C
 3 - salinity, kg/kg
 4 - turbulent kinetic energy, m**2/s**2
 5 - dissipation rate, m**2/s**3
 6 - kinematic heat conductance, m**2/s
 7 - modulus of horizontal velocity, m/s
 8 - Richardson number, n/d
   -0.000000   -0.00000  0.2345E-09  0.1219E-13  0.7603E-17  0.1000E-09  0.0000E+00  0.1217E+17
   -0.068746    0.18733  0.1488E-09  0.1219E-13  0.7603E-17  0.1000E-09  0.0000E+00  0.1128E+17
   -0.137492    0.37014  0.1005E-09  0.1219E-13  0.7603E-17  0.1000E-09  0.0000E+00  0.1032E+17
   -0.206239    0.54640  0.8187E-10  0.1219E-13  0.7603E-17  0.1000E-09  0.0000E+00  0.9436E+16
   -0.274986    0.71641  0.7682E-10  0.1219E-13  0.7603E-17  0.1000E-09  0.0000E+00  0.8642E+16
   -0.343735    0.88074  0.7575E-10  0.2962E-13  0.7603E-17  0.1000E-09  0.0000E+00  0.8002E+16
   -0.412483    1.04152  0.7556E-10  0.9576E-13  0.1249E-16  0.1000E-09  0.0000E+00  0.7416E+16
   -0.481232    1.19922  0.7553E-10  0.2425E-12  0.2716E-16  0.1000E-09  0.0000E+00  0.6878E+16
   -0.549982    1.35431  0.7552E-10  0.5644E-12  0.6013E-16  0.1000E-09  0.0000E+00  0.6433E+16
   -0.618732    1.50855  0.7552E-10  0.1269E-11  0.1312E-15  0.1000E-09  0.0000E+00  0.6066E+16
   -0.687482    1.66375  0.7552E-10  0.2810E-11  0.2830E-15  0.1000E-09  0.0000E+00  0.5718E+16
   -0.756233    1.82064  0.7552E-10  0.6155E-11  0.6044E-15  0.1000E-09  0.0000E+00  0.5442E+16
   -0.824984    1.98176  0.7551E-10  0.1336E-10  0.1279E-14  0.1000E-09  0.0000E+00  0.5148E+16
   -0.893735    2.14758  0.7548E-10  0.2872E-10  0.2685E-14  0.1000E-09  0.0000E+00  0.4827E+16
   -0.962486    2.31848  0.7540E-10  0.6123E-10  0.5588E-14  0.1000E-09  0.0000E+00  0.4473E+16
   -1.031238    2.49474  0.7525E-10  0.1294E-09  0.1153E-13  0.1000E-09  0.0000E+00  0.4079E+16
   -1.099990    2.67655  0.7500E-10  0.2723E-09  0.2369E-13  0.1000E-09  0.0000E+00  0.3640E+16
   -1.168742    2.86396  0.7467E-10  0.5691E-09  0.4837E-13  0.1000E-09  0.0000E+00  0.3154E+16
   -1.237494    3.05706  0.7431E-10  0.1180E-08  0.9804E-13  0.1907E-09  0.0000E+00  0.2617E+16
   -1.306246    3.25571  0.7396E-10  0.2430E-08  0.1972E-12  0.4950E-09  0.0000E+00  0.2028E+16
   -1.374998    3.45963  0.7356E-10  0.4961E-08  0.3937E-12  0.1442E-08  0.0000E+00  0.1390E+16
   -1.443751    3.66828  0.7283E-10  0.1003E-07  0.7783E-12  0.5645E-08  0.0000E+00  0.7024E+15
   -1.512503    3.87774  0.7204E-10  0.1929E-07  0.1472E-11  0.8867E-07  0.0000E+00  0.8553E+14
   -1.581255    4.01656  0.7197E-10  0.2008E-07  0.1536E-11  0.1046E-03  0.0000E+00 -0.1454E+12
   -1.650007    4.01687  0.7197E-10  0.2039E-07  0.1567E-11  0.1039E-03  0.0000E+00 -0.1492E+12
   -1.718759    4.01718  0.7197E-10  0.2064E-07  0.1598E-11  0.1041E-03  0.0000E+00 -0.1518E+12
   -1.787510    4.01749  0.7197E-10  0.2086E-07  0.1632E-11  0.1041E-03  0.0000E+00 -0.1550E+12
   -1.856262    4.01781  0.7197E-10  0.2104E-07  0.1670E-11  0.1036E-03  0.0000E+00 -0.1590E+12
   -1.925013    4.01813  0.7197E-10  0.2119E-07  0.1711E-11  0.1026E-03  0.0000E+00 -0.1640E+12
   -1.993764    4.01846  0.7197E-10  0.2130E-07  0.1757E-11  0.1011E-03  0.0000E+00 -0.1701E+12
   -2.062515    4.01879  0.7197E-10  0.2137E-07  0.1809E-11  0.9897E-04  0.0000E+00 -0.1777E+12
   -2.131265    4.01914  0.7197E-10  0.2140E-07  0.1876E-11  0.9594E-04  0.0000E+00 -0.1878E+12
   -2.200015    4.01950  0.7197E-10  0.2139E-07  0.1965E-11  0.9173E-04  0.0000E+00 -0.2021E+12
   -2.268765    4.01989  0.7197E-10  0.2130E-07  0.2089E-11  0.7919E-04  0.0000E+00 -0.2420E+12
   -2.337514    4.02035  0.7197E-10  0.2112E-07  0.2260E-11  0.6680E-04  0.0000E+00 -0.2990E+12
   -2.406262    4.02090  0.7197E-10  0.2079E-07  0.2506E-11  0.5540E-04  0.0000E+00 -0.3805E+12
   -2.475010    4.02160  0.7197E-10  0.2022E-07  0.2894E-11  0.4328E-04  0.0000E+00 -0.5240E+12
   -2.543758    4.02253  0.7197E-10  0.1917E-07  0.3610E-11  0.2893E-04  0.0000E+00 -0.8616E+12
   -2.612505    4.02402  0.7197E-10  0.1708E-07  0.5226E-11  0.1384E-04  0.0000E+00 -0.2039E+13
   -2.681251    4.02733  0.7197E-10  0.8508E-08  0.1506E-10  0.9152E-06  0.0000E+00 -0.4917E+14
   -2.749997    4.07556  0.7197E-10  0.0000E+00  0.0000E+00  0.0000E+00  0.0000E+00  0.0000E+00
