 1 - depth, m
 2 - temperature, C
 3 - salinity, kg/kg
 4 - turbulent kinetic energy, m**2/s**2
 5 - dissipation rate, m**2/s**3
 6 - kinematic heat conductance, m**2/s
 7 - modulus of horizontal velocity, m/s
 8 - Richardson number, n/d
   -0.000000   -0.00000  0.6079E-09  0.1219E-13  0.7604E-17  0.1000E-09  0.0000E+00  0.8609E+16
   -0.068746    0.13146  0.1300E-09  0.1219E-13  0.7604E-17  0.1000E-09  0.0000E+00  0.8156E+16
   -0.137492    0.26057  0.9938E-10  0.1219E-13  0.7604E-17  0.1000E-09  0.0000E+00  0.7653E+16
   -0.206239    0.38620  0.8919E-10  0.1219E-13  0.7604E-17  0.1000E-09  0.0000E+00  0.7168E+16
   -0.274986    0.50824  0.8634E-10  0.1219E-13  0.7604E-17  0.1000E-09  0.0000E+00  0.6707E+16
   -0.343734    0.62670  0.8568E-10  0.1219E-13  0.7604E-17  0.1000E-09  0.0000E+00  0.6287E+16
   -0.412483    0.74189  0.8556E-10  0.1219E-13  0.7604E-17  0.1000E-09  0.0000E+00  0.5890E+16
   -0.481232    0.85386  0.8554E-10  0.1219E-13  0.7604E-17  0.1000E-09  0.0000E+00  0.5515E+16
   -0.549981    0.96267  0.8553E-10  0.1219E-13  0.7604E-17  0.1000E-09  0.0000E+00  0.5175E+16
   -0.618731    1.06864  0.8553E-10  0.1219E-13  0.7604E-17  0.1000E-09  0.0000E+00  0.4867E+16
   -0.687481    1.17213  0.8553E-10  0.1219E-13  0.7604E-17  0.1000E-09  0.0000E+00  0.4579E+16
   -0.756232    1.27327  0.8552E-10  0.1219E-13  0.7604E-17  0.1000E-09  0.0000E+00  0.4342E+16
   -0.824983    1.37297  0.8550E-10  0.1219E-13  0.7604E-17  0.1000E-09  0.0000E+00  0.4115E+16
   -0.893734    1.47127  0.8547E-10  0.1219E-13  0.7604E-17  0.1000E-09  0.0000E+00  0.3897E+16
   -0.962485    1.56819  0.8540E-10  0.1219E-13  0.7604E-17  0.1000E-09  0.0000E+00  0.3686E+16
   -1.031237    1.66374  0.8527E-10  0.1219E-13  0.7604E-17  0.1000E-09  0.0000E+00  0.3484E+16
   -1.099989    1.75796  0.8506E-10  0.1219E-13  0.7604E-17  0.1000E-09  0.0000E+00  0.3294E+16
   -1.168741    1.85102  0.8477E-10  0.1219E-13  0.7604E-17  0.1000E-09  0.0000E+00  0.3109E+16
   -1.237493    1.94287  0.8440E-10  0.1219E-13  0.7604E-17  0.1000E-09  0.0000E+00  0.2928E+16
   -1.306245    2.03345  0.8398E-10  0.1219E-13  0.7604E-17  0.1000E-09  0.0000E+00  0.2750E+16
   -1.374997    2.12269  0.8354E-10  0.1219E-13  0.7604E-17  0.1000E-09  0.0000E+00  0.2588E+16
   -1.443749    2.21086  0.8311E-10  0.1219E-13  0.7604E-17  0.1000E-09  0.0000E+00  0.2443E+16
   -1.512501    2.29847  0.8268E-10  0.1219E-13  0.7604E-17  0.1000E-09  0.0000E+00  0.2300E+16
   -1.581253    2.38543  0.8227E-10  0.1219E-13  0.7604E-17  0.1000E-09  0.0000E+00  0.2157E+16
   -1.650005    2.47165  0.8191E-10  0.1219E-13  0.7604E-17  0.1000E-09  0.0000E+00  0.2015E+16
   -1.718757    2.55700  0.8163E-10  0.1219E-13  0.7604E-17  0.1000E-09  0.0000E+00  0.1874E+16
   -1.787508    2.64137  0.8144E-10  0.1219E-13  0.7604E-17  0.1000E-09  0.0000E+00  0.1735E+16
   -1.856260    2.72462  0.8133E-10  0.1219E-13  0.7604E-17  0.1000E-09  0.0000E+00  0.1599E+16
   -1.925011    2.80661  0.8126E-10  0.1219E-13  0.7604E-17  0.1000E-09  0.0000E+00  0.1465E+16
   -1.993762    2.88721  0.8123E-10  0.1219E-13  0.7604E-17  0.1000E-09  0.0000E+00  0.1334E+16
   -2.062513    2.96627  0.8122E-10  0.1219E-13  0.7604E-17  0.1000E-09  0.0000E+00  0.1260E+16
   -2.131263    3.04708  0.8121E-10  0.1219E-13  0.7604E-17  0.1000E-09  0.0000E+00  0.1209E+16
   -2.200013    3.13196  0.8121E-10  0.1219E-13  0.7604E-17  0.1000E-09  0.0000E+00  0.1157E+16
   -2.268762    3.22203  0.8121E-10  0.1219E-13  0.7604E-17  0.1000E-09  0.0000E+00  0.1099E+16
   -2.337511    3.31893  0.8121E-10  0.1219E-13  0.1637E-16  0.1000E-09  0.0000E+00  0.1032E+16
   -2.406260    3.42514  0.8121E-10  0.1098E-12  0.1690E-15  0.1000E-09  0.0000E+00  0.9463E+15
   -2.475008    3.54466  0.8121E-10  0.1351E-11  0.2071E-14  0.1000E-09  0.0000E+00  0.8186E+15
   -2.543755    3.68439  0.8121E-10  0.1696E-10  0.2603E-13  0.1958E-09  0.0000E+00  0.5711E+15
   -2.612502    3.85029  0.8121E-10  0.2035E-09  0.3196E-12  0.6985E-08  0.0000E+00  0.1259E+15
   -2.681248    4.03588  0.8121E-10  0.2124E-08  0.4053E-11  0.3448E-06  0.0000E+00 -0.9373E+14
   -2.749994    4.10648  0.8121E-10  0.0000E+00  0.0000E+00  0.0000E+00  0.0000E+00  0.0000E+00
