 1 - depth, m
 2 - temperature, C
 3 - salinity, kg/kg
 4 - turbulent kinetic energy, m**2/s**2
 5 - dissipation rate, m**2/s**3
 6 - kinematic heat conductance, m**2/s
 7 - modulus of horizontal velocity, m/s
 8 - Richardson number, n/d
   -0.000000   -0.00000  0.3450E-09  0.2689E-12  0.4554E-16  0.1000E-09  0.0000E+00  0.1632E+17
   -0.068746    0.25335  0.1740E-09  0.5589E-12  0.5509E-16  0.1000E-09  0.0000E+00  0.1512E+17
   -0.137492    0.50560  0.9681E-10  0.1207E-11  0.9715E-16  0.1000E-09  0.0000E+00  0.1384E+17
   -0.206239    0.75494  0.7454E-10  0.2490E-11  0.1868E-15  0.1000E-09  0.0000E+00  0.1261E+17
   -0.274986    1.00112  0.6907E-10  0.4998E-11  0.3620E-15  0.1000E-09  0.0000E+00  0.1141E+17
   -0.343735    1.24389  0.6775E-10  0.9858E-11  0.6963E-15  0.1000E-09  0.0000E+00  0.1026E+17
   -0.412483    1.48330  0.6744E-10  0.1923E-10  0.1328E-14  0.1000E-09  0.0000E+00  0.9152E+16
   -0.481232    1.71900  0.6737E-10  0.3722E-10  0.2516E-14  0.1000E-09  0.0000E+00  0.8080E+16
   -0.549982    1.95060  0.6735E-10  0.7153E-10  0.4733E-14  0.1000E-09  0.0000E+00  0.7061E+16
   -0.618732    2.17801  0.6734E-10  0.1361E-09  0.8819E-14  0.1000E-09  0.0000E+00  0.6096E+16
   -0.687482    2.40122  0.6730E-10  0.2570E-09  0.1631E-13  0.1000E-09  0.0000E+00  0.5179E+16
   -0.756233    2.62003  0.6720E-10  0.4823E-09  0.2998E-13  0.1000E-09  0.0000E+00  0.4332E+16
   -0.824984    2.83537  0.6699E-10  0.8992E-09  0.5477E-13  0.1000E-09  0.0000E+00  0.3525E+16
   -0.893735    3.04714  0.6657E-10  0.1666E-08  0.9946E-13  0.1835E-09  0.0000E+00  0.2759E+16
   -0.962486    3.25526  0.6594E-10  0.3068E-08  0.1795E-12  0.4493E-09  0.0000E+00  0.2034E+16
   -1.031238    3.45967  0.6529E-10  0.5615E-08  0.3221E-12  0.1216E-08  0.0000E+00  0.1348E+16
   -1.099990    3.66003  0.6492E-10  0.1023E-07  0.5754E-12  0.4188E-08  0.0000E+00  0.6993E+15
   -1.168742    3.85398  0.6481E-10  0.1824E-07  0.1009E-11  0.3853E-07  0.0000E+00  0.1332E+15
   -1.237494    4.00930  0.6479E-10  0.1861E-07  0.1030E-11  0.1316E-03  0.0000E+00 -0.7636E+11
   -1.306246    4.00951  0.6479E-10  0.1878E-07  0.1043E-11  0.1289E-03  0.0000E+00 -0.7880E+11
   -1.374998    4.00972  0.6479E-10  0.1894E-07  0.1056E-11  0.1291E-03  0.0000E+00 -0.7955E+11
   -1.443751    4.00994  0.6479E-10  0.1908E-07  0.1071E-11  0.1292E-03  0.0000E+00 -0.8042E+11
   -1.512503    4.01016  0.6479E-10  0.1921E-07  0.1087E-11  0.1290E-03  0.0000E+00 -0.8151E+11
   -1.581255    4.01037  0.6479E-10  0.1931E-07  0.1104E-11  0.1284E-03  0.0000E+00 -0.8284E+11
   -1.650007    4.01059  0.6479E-10  0.1940E-07  0.1123E-11  0.1275E-03  0.0000E+00 -0.8445E+11
   -1.718759    4.01081  0.6479E-10  0.1947E-07  0.1144E-11  0.1262E-03  0.0000E+00 -0.8634E+11
   -1.787510    4.01104  0.6479E-10  0.1953E-07  0.1167E-11  0.1245E-03  0.0000E+00 -0.8857E+11
   -1.856262    4.01127  0.6479E-10  0.1956E-07  0.1192E-11  0.1225E-03  0.0000E+00 -0.9118E+11
   -1.925013    4.01150  0.6479E-10  0.1958E-07  0.1219E-11  0.1201E-03  0.0000E+00 -0.9423E+11
   -1.993764    4.01173  0.6479E-10  0.1957E-07  0.1250E-11  0.1173E-03  0.0000E+00 -0.9775E+11
   -2.062515    4.01198  0.6479E-10  0.1954E-07  0.1285E-11  0.1140E-03  0.0000E+00 -0.1021E+12
   -2.131265    4.01223  0.6479E-10  0.1949E-07  0.1329E-11  0.1099E-03  0.0000E+00 -0.1077E+12
   -2.200015    4.01250  0.6479E-10  0.1938E-07  0.1389E-11  0.1036E-03  0.0000E+00 -0.1165E+12
   -2.268765    4.01278  0.6479E-10  0.1921E-07  0.1475E-11  0.8664E-04  0.0000E+00 -0.1426E+12
   -2.337514    4.01312  0.6479E-10  0.1896E-07  0.1595E-11  0.7137E-04  0.0000E+00 -0.1783E+12
   -2.406262    4.01354  0.6479E-10  0.1858E-07  0.1771E-11  0.5812E-04  0.0000E+00 -0.2274E+12
   -2.475010    4.01407  0.6479E-10  0.1799E-07  0.2050E-11  0.4439E-04  0.0000E+00 -0.3135E+12
   -2.543758    4.01478  0.6479E-10  0.1698E-07  0.2573E-11  0.2885E-04  0.0000E+00 -0.5168E+12
   -2.612505    4.01592  0.6479E-10  0.1504E-07  0.3771E-11  0.1338E-04  0.0000E+00 -0.1228E+13
   -2.681251    4.01846  0.6479E-10  0.7017E-08  0.1136E-10  0.7471E-06  0.0000E+00 -0.3398E+14
   -2.749997    4.05962  0.6479E-10  0.0000E+00  0.0000E+00  0.0000E+00  0.0000E+00  0.0000E+00
