 1 - depth, m
 2 - temperature, C
 3 - salinity, kg/kg
 4 - turbulent kinetic energy, m**2/s**2
 5 - dissipation rate, m**2/s**3
 6 - kinematic heat conductance, m**2/s
 7 - modulus of horizontal velocity, m/s
 8 - Richardson number, n/d
   -0.000000   -0.00000  0.4407E-09  0.5570E-12  0.1072E-15  0.1000E-09  0.0000E+00  0.1687E+17
   -0.068746    0.26226  0.1111E-09  0.1239E-11  0.1216E-15  0.1000E-09  0.0000E+00  0.1547E+17
   -0.137492    0.52131  0.7989E-10  0.2710E-11  0.2073E-15  0.1000E-09  0.0000E+00  0.1403E+17
   -0.206239    0.77537  0.7082E-10  0.5536E-11  0.3891E-15  0.1000E-09  0.0000E+00  0.1267E+17
   -0.274986    1.02457  0.6816E-10  0.1091E-10  0.7381E-15  0.1000E-09  0.0000E+00  0.1139E+17
   -0.343734    1.26920  0.6752E-10  0.2107E-10  0.1390E-14  0.1000E-09  0.0000E+00  0.1022E+17
   -0.412483    1.51011  0.6739E-10  0.4024E-10  0.2596E-14  0.1000E-09  0.0000E+00  0.9110E+16
   -0.481232    1.74761  0.6736E-10  0.7623E-10  0.4817E-14  0.1000E-09  0.0000E+00  0.8060E+16
   -0.549981    1.98200  0.6736E-10  0.1435E-09  0.8885E-14  0.1000E-09  0.0000E+00  0.7072E+16
   -0.618731    2.21395  0.6735E-10  0.2675E-09  0.1623E-13  0.1000E-09  0.0000E+00  0.6135E+16
   -0.687481    2.44406  0.6734E-10  0.4952E-09  0.2947E-13  0.1000E-09  0.0000E+00  0.5229E+16
   -0.756232    2.67253  0.6731E-10  0.9113E-09  0.5317E-13  0.1000E-09  0.0000E+00  0.4374E+16
   -0.824983    2.90089  0.6722E-10  0.1667E-08  0.9539E-13  0.1378E-09  0.0000E+00  0.3524E+16
   -0.893734    3.12894  0.6701E-10  0.3033E-08  0.1702E-12  0.3234E-09  0.0000E+00  0.2680E+16
   -0.962486    3.35622  0.6652E-10  0.5486E-08  0.3021E-12  0.8338E-09  0.0000E+00  0.1844E+16
   -1.031237    3.58193  0.6566E-10  0.9859E-08  0.5327E-12  0.2645E-08  0.0000E+00  0.1025E+16
   -1.099989    3.80395  0.6489E-10  0.1753E-07  0.9306E-12  0.1832E-07  0.0000E+00  0.2586E+15
   -1.168741    4.00374  0.6475E-10  0.1794E-07  0.9534E-12  0.1313E-03  0.0000E+00 -0.6665E+11
   -1.237493    4.00398  0.6475E-10  0.1811E-07  0.9654E-12  0.1290E-03  0.0000E+00 -0.6931E+11
   -1.306245    4.00423  0.6475E-10  0.1827E-07  0.9778E-12  0.1293E-03  0.0000E+00 -0.7070E+11
   -1.374997    4.00448  0.6475E-10  0.1841E-07  0.9915E-12  0.1295E-03  0.0000E+00 -0.7205E+11
   -1.443749    4.00473  0.6475E-10  0.1853E-07  0.1007E-11  0.1294E-03  0.0000E+00 -0.7339E+11
   -1.512502    4.00499  0.6475E-10  0.1865E-07  0.1023E-11  0.1289E-03  0.0000E+00 -0.7494E+11
   -1.581254    4.00524  0.6475E-10  0.1875E-07  0.1041E-11  0.1282E-03  0.0000E+00 -0.7672E+11
   -1.650006    4.00550  0.6475E-10  0.1883E-07  0.1061E-11  0.1271E-03  0.0000E+00 -0.7876E+11
   -1.718757    4.00576  0.6475E-10  0.1890E-07  0.1082E-11  0.1256E-03  0.0000E+00 -0.8110E+11
   -1.787509    4.00602  0.6475E-10  0.1896E-07  0.1106E-11  0.1238E-03  0.0000E+00 -0.8378E+11
   -1.856260    4.00629  0.6475E-10  0.1899E-07  0.1132E-11  0.1217E-03  0.0000E+00 -0.8685E+11
   -1.925012    4.00657  0.6475E-10  0.1901E-07  0.1160E-11  0.1191E-03  0.0000E+00 -0.9037E+11
   -1.993763    4.00685  0.6475E-10  0.1901E-07  0.1192E-11  0.1162E-03  0.0000E+00 -0.9441E+11
   -2.062513    4.00714  0.6475E-10  0.1899E-07  0.1228E-11  0.1129E-03  0.0000E+00 -0.9920E+11
   -2.131263    4.00744  0.6475E-10  0.1894E-07  0.1272E-11  0.1087E-03  0.0000E+00 -0.1053E+12
   -2.200013    4.00776  0.6475E-10  0.1885E-07  0.1334E-11  0.1027E-03  0.0000E+00 -0.1140E+12
   -2.268763    4.00810  0.6475E-10  0.1869E-07  0.1421E-11  0.8582E-04  0.0000E+00 -0.1403E+12
   -2.337512    4.00850  0.6475E-10  0.1845E-07  0.1542E-11  0.7053E-04  0.0000E+00 -0.1767E+12
   -2.406260    4.00901  0.6475E-10  0.1809E-07  0.1720E-11  0.5725E-04  0.0000E+00 -0.2274E+12
   -2.475008    4.00964  0.6475E-10  0.1753E-07  0.2003E-11  0.4353E-04  0.0000E+00 -0.3170E+12
   -2.543756    4.01049  0.6475E-10  0.1655E-07  0.2533E-11  0.2810E-04  0.0000E+00 -0.5310E+12
   -2.612503    4.01185  0.6475E-10  0.1466E-07  0.3758E-11  0.1291E-04  0.0000E+00 -0.1300E+13
   -2.681249    4.01492  0.6475E-10  0.6962E-08  0.1143E-10  0.7619E-06  0.0000E+00 -0.3815E+14
   -2.749995    4.06176  0.6475E-10  0.0000E+00  0.0000E+00  0.0000E+00  0.0000E+00  0.0000E+00
