 1 - depth, m
 2 - temperature, C
 3 - salinity, kg/kg
 4 - turbulent kinetic energy, m**2/s**2
 5 - dissipation rate, m**2/s**3
 6 - kinematic heat conductance, m**2/s
 7 - modulus of horizontal velocity, m/s
 8 - Richardson number, n/d
   -0.000000   -0.00000  0.2800E-09  0.1916E-12  0.3191E-16  0.1000E-09  0.0000E+00  0.1521E+17
   -0.068746    0.23558  0.1263E-09  0.3941E-12  0.4159E-16  0.1000E-09  0.0000E+00  0.1398E+17
   -0.137492    0.46692  0.8732E-10  0.8653E-12  0.7750E-16  0.1000E-09  0.0000E+00  0.1273E+17
   -0.206239    0.69268  0.7292E-10  0.1840E-11  0.1554E-15  0.1000E-09  0.0000E+00  0.1160E+17
   -0.274986    0.91353  0.6862E-10  0.3825E-11  0.3132E-15  0.1000E-09  0.0000E+00  0.1056E+17
   -0.343734    1.13033  0.6760E-10  0.7832E-11  0.6259E-15  0.1000E-09  0.0000E+00  0.9659E+16
   -0.412483    1.34491  0.6740E-10  0.1587E-10  0.1240E-14  0.1000E-09  0.0000E+00  0.8815E+16
   -0.481232    1.55800  0.6737E-10  0.3191E-10  0.2439E-14  0.1000E-09  0.0000E+00  0.8018E+16
   -0.549981    1.77032  0.6736E-10  0.6371E-10  0.4765E-14  0.1000E-09  0.0000E+00  0.7280E+16
   -0.618731    1.98328  0.6736E-10  0.1259E-09  0.9214E-14  0.1000E-09  0.0000E+00  0.6581E+16
   -0.687481    2.19827  0.6736E-10  0.2468E-09  0.1769E-13  0.1000E-09  0.0000E+00  0.5879E+16
   -0.756232    2.41585  0.6735E-10  0.4806E-09  0.3372E-13  0.1000E-09  0.0000E+00  0.5205E+16
   -0.824983    2.63828  0.6732E-10  0.9297E-09  0.6390E-13  0.1000E-09  0.0000E+00  0.4482E+16
   -0.893734    2.86555  0.6726E-10  0.1787E-08  0.1203E-12  0.1652E-09  0.0000E+00  0.3707E+16
   -0.962485    3.09730  0.6712E-10  0.3414E-08  0.2252E-12  0.3981E-09  0.0000E+00  0.2880E+16
   -1.031237    3.33275  0.6678E-10  0.6478E-08  0.4189E-12  0.1061E-08  0.0000E+00  0.2010E+16
   -1.099989    3.57067  0.6597E-10  0.1224E-07  0.7759E-12  0.3563E-08  0.0000E+00  0.1109E+16
   -1.168740    3.80781  0.6487E-10  0.2271E-07  0.1414E-11  0.2940E-07  0.0000E+00  0.2453E+15
   -1.237492    4.01108  0.6466E-10  0.2317E-07  0.1445E-11  0.1436E-03  0.0000E+00 -0.9425E+11
   -1.306245    4.01132  0.6466E-10  0.2339E-07  0.1462E-11  0.1407E-03  0.0000E+00 -0.9821E+11
   -1.374997    4.01157  0.6466E-10  0.2359E-07  0.1481E-11  0.1410E-03  0.0000E+00 -0.9993E+11
   -1.443749    4.01182  0.6466E-10  0.2376E-07  0.1502E-11  0.1411E-03  0.0000E+00 -0.1014E+12
   -1.512501    4.01207  0.6466E-10  0.2392E-07  0.1526E-11  0.1408E-03  0.0000E+00 -0.1032E+12
   -1.581253    4.01233  0.6466E-10  0.2406E-07  0.1551E-11  0.1402E-03  0.0000E+00 -0.1054E+12
   -1.650005    4.01259  0.6466E-10  0.2418E-07  0.1579E-11  0.1392E-03  0.0000E+00 -0.1079E+12
   -1.718757    4.01285  0.6466E-10  0.2428E-07  0.1610E-11  0.1378E-03  0.0000E+00 -0.1108E+12
   -1.787508    4.01311  0.6466E-10  0.2436E-07  0.1644E-11  0.1360E-03  0.0000E+00 -0.1141E+12
   -1.856260    4.01338  0.6466E-10  0.2441E-07  0.1681E-11  0.1338E-03  0.0000E+00 -0.1180E+12
   -1.925011    4.01366  0.6466E-10  0.2444E-07  0.1723E-11  0.1312E-03  0.0000E+00 -0.1225E+12
   -1.993762    4.01394  0.6466E-10  0.2444E-07  0.1769E-11  0.1282E-03  0.0000E+00 -0.1277E+12
   -2.062512    4.01424  0.6466E-10  0.2442E-07  0.1820E-11  0.1246E-03  0.0000E+00 -0.1337E+12
   -2.131262    4.01454  0.6466E-10  0.2436E-07  0.1883E-11  0.1202E-03  0.0000E+00 -0.1413E+12
   -2.200012    4.01486  0.6466E-10  0.2426E-07  0.1959E-11  0.1150E-03  0.0000E+00 -0.1507E+12
   -2.268762    4.01520  0.6466E-10  0.2409E-07  0.2066E-11  0.1080E-03  0.0000E+00 -0.1643E+12
   -2.337511    4.01556  0.6466E-10  0.2380E-07  0.2231E-11  0.8613E-04  0.0000E+00 -0.2119E+12
   -2.406259    4.01602  0.6466E-10  0.2336E-07  0.2476E-11  0.6757E-04  0.0000E+00 -0.2803E+12
   -2.475007    4.01661  0.6466E-10  0.2265E-07  0.2868E-11  0.5106E-04  0.0000E+00 -0.3899E+12
   -2.543755    4.01742  0.6466E-10  0.2143E-07  0.3599E-11  0.3324E-04  0.0000E+00 -0.6403E+12
   -2.612501    4.01871  0.6466E-10  0.1910E-07  0.5265E-11  0.1561E-04  0.0000E+00 -0.1501E+13
   -2.681248    4.02154  0.6466E-10  0.9209E-08  0.1593E-10  0.9267E-06  0.0000E+00 -0.3966E+14
   -2.749993    4.06574  0.6466E-10  0.0000E+00  0.0000E+00  0.0000E+00  0.0000E+00  0.0000E+00
