 1 - depth, m
 2 - temperature, C
 3 - salinity, kg/kg
 4 - turbulent kinetic energy, m**2/s**2
 5 - dissipation rate, m**2/s**3
 6 - kinematic heat conductance, m**2/s
 7 - modulus of horizontal velocity, m/s
 8 - Richardson number, n/d
   -0.000000   -0.00000  0.1180E-09  0.1219E-13  0.7603E-17  0.1000E-09  0.0000E+00  0.1285E+17
   -0.068746    0.19795  0.1423E-09  0.1219E-13  0.7603E-17  0.1000E-09  0.0000E+00  0.1225E+17
   -0.137493    0.39759  0.1346E-09  0.4574E-13  0.7603E-17  0.1000E-09  0.0000E+00  0.1152E+17
   -0.206240    0.59668  0.1135E-09  0.1288E-12  0.1062E-16  0.1000E-09  0.0000E+00  0.1077E+17
   -0.274988    0.79468  0.9272E-10  0.2822E-12  0.1894E-16  0.1000E-09  0.0000E+00  0.1001E+17
   -0.343736    0.99121  0.7896E-10  0.5596E-12  0.3498E-16  0.1000E-09  0.0000E+00  0.9280E+16
   -0.412485    1.18628  0.7193E-10  0.1065E-11  0.6425E-16  0.1000E-09  0.0000E+00  0.8551E+16
   -0.481234    1.37956  0.6895E-10  0.1989E-11  0.1170E-15  0.1000E-09  0.0000E+00  0.7831E+16
   -0.549984    1.57073  0.6784E-10  0.3674E-11  0.2113E-15  0.1000E-09  0.0000E+00  0.7135E+16
   -0.618734    1.75977  0.6745E-10  0.6710E-11  0.3776E-15  0.1000E-09  0.0000E+00  0.6465E+16
   -0.687485    1.94674  0.6727E-10  0.1216E-10  0.6699E-15  0.1000E-09  0.0000E+00  0.5813E+16
   -0.756236    2.13145  0.6711E-10  0.2187E-10  0.1180E-14  0.1000E-09  0.0000E+00  0.5190E+16
   -0.824987    2.31410  0.6688E-10  0.3909E-10  0.2067E-14  0.1000E-09  0.0000E+00  0.4586E+16
   -0.893738    2.49454  0.6656E-10  0.6945E-10  0.3597E-14  0.1000E-09  0.0000E+00  0.4002E+16
   -0.962490    2.67263  0.6614E-10  0.1226E-09  0.6222E-14  0.1000E-09  0.0000E+00  0.3439E+16
   -1.031242    2.84827  0.6571E-10  0.2151E-09  0.1070E-13  0.1000E-09  0.0000E+00  0.2899E+16
   -1.099994    3.02133  0.6534E-10  0.3764E-09  0.1834E-13  0.1000E-09  0.0000E+00  0.2378E+16
   -1.168746    3.19147  0.6507E-10  0.6556E-09  0.3132E-13  0.1000E-09  0.0000E+00  0.1884E+16
   -1.237499    3.35866  0.6492E-10  0.1136E-08  0.5320E-13  0.1914E-09  0.0000E+00  0.1415E+16
   -1.306251    3.52280  0.6484E-10  0.1958E-08  0.8987E-13  0.4711E-09  0.0000E+00  0.9717E+15
   -1.375004    3.68376  0.6481E-10  0.3353E-08  0.1509E-12  0.1386E-08  0.0000E+00  0.5552E+15
   -1.443756    3.84169  0.6480E-10  0.5691E-08  0.2513E-12  0.7842E-08  0.0000E+00  0.1638E+15
   -1.512508    3.99236  0.6480E-10  0.6027E-08  0.2669E-12  0.4315E-04  0.0000E+00 -0.5104E+11
   -1.581261    3.99288  0.6480E-10  0.6188E-08  0.2758E-12  0.4517E-04  0.0000E+00 -0.5255E+11
   -1.650013    3.99338  0.6480E-10  0.6336E-08  0.2856E-12  0.4664E-04  0.0000E+00 -0.5437E+11
   -1.718765    3.99386  0.6480E-10  0.6471E-08  0.2963E-12  0.4758E-04  0.0000E+00 -0.5659E+11
   -1.787517    3.99432  0.6480E-10  0.6591E-08  0.3079E-12  0.4802E-04  0.0000E+00 -0.5926E+11
   -1.856269    3.99479  0.6480E-10  0.6697E-08  0.3207E-12  0.4795E-04  0.0000E+00 -0.6250E+11
   -1.925020    3.99525  0.6480E-10  0.6787E-08  0.3346E-12  0.4740E-04  0.0000E+00 -0.6642E+11
   -1.993772    3.99571  0.6480E-10  0.6860E-08  0.3501E-12  0.4636E-04  0.0000E+00 -0.7123E+11
   -2.062523    3.99618  0.6480E-10  0.6916E-08  0.3676E-12  0.4491E-04  0.0000E+00 -0.7731E+11
   -2.131273    3.99667  0.6480E-10  0.6955E-08  0.3887E-12  0.4286E-04  0.0000E+00 -0.8543E+11
   -2.200023    3.99719  0.6480E-10  0.6972E-08  0.4149E-12  0.4010E-04  0.0000E+00 -0.9653E+11
   -2.268773    3.99774  0.6480E-10  0.6961E-08  0.4484E-12  0.3656E-04  0.0000E+00 -0.1124E+12
   -2.337522    3.99835  0.6480E-10  0.6913E-08  0.4933E-12  0.3218E-04  0.0000E+00 -0.1366E+12
   -2.406271    3.99906  0.6480E-10  0.6808E-08  0.5577E-12  0.2685E-04  0.0000E+00 -0.1773E+12
   -2.475020    3.99992  0.6480E-10  0.6608E-08  0.6602E-12  0.2048E-04  0.0000E+00 -0.2571E+12
   -2.543767    4.00107  0.6480E-10  0.6209E-08  0.8555E-12  0.1295E-04  0.0000E+00 -0.4656E+12
   -2.612515    4.00297  0.6480E-10  0.5354E-08  0.1327E-11  0.5473E-05  0.0000E+00 -0.1366E+13
   -2.681261    4.00757  0.6480E-10  0.2648E-08  0.3775E-11  0.3965E-06  0.0000E+00 -0.3767E+14
   -2.750007    4.05886  0.6480E-10  0.0000E+00  0.0000E+00  0.0000E+00  0.0000E+00  0.0000E+00
