 1 - depth, m
 2 - temperature, C
 3 - salinity, kg/kg
 4 - turbulent kinetic energy, m**2/s**2
 5 - dissipation rate, m**2/s**3
 6 - kinematic heat conductance, m**2/s
 7 - modulus of horizontal velocity, m/s
 8 - Richardson number, n/d
   -0.000000   -0.00000  0.2416E-09  0.1219E-13  0.7603E-17  0.1000E-09  0.0000E+00  0.1237E+17
   -0.068746    0.19048  0.1153E-09  0.1219E-13  0.7603E-17  0.1000E-09  0.0000E+00  0.1116E+17
   -0.137492    0.37144  0.7539E-10  0.1219E-13  0.7603E-17  0.1000E-09  0.0000E+00  0.9803E+16
   -0.206239    0.53874  0.6836E-10  0.1219E-13  0.7603E-17  0.1000E-09  0.0000E+00  0.8550E+16
   -0.274987    0.69201  0.6747E-10  0.1219E-13  0.7603E-17  0.1000E-09  0.0000E+00  0.7435E+16
   -0.343735    0.83170  0.6737E-10  0.1219E-13  0.7603E-17  0.1000E-09  0.0000E+00  0.6615E+16
   -0.412483    0.96170  0.6736E-10  0.1237E-13  0.7603E-17  0.1000E-09  0.0000E+00  0.5892E+16
   -0.481232    1.08265  0.6736E-10  0.2272E-13  0.8213E-17  0.1000E-09  0.0000E+00  0.5266E+16
   -0.549982    1.19541  0.6736E-10  0.8676E-13  0.1468E-16  0.1000E-09  0.0000E+00  0.4858E+16
   -0.618732    1.30383  0.6736E-10  0.2513E-12  0.3700E-16  0.1000E-09  0.0000E+00  0.4654E+16
   -0.687482    1.41218  0.6736E-10  0.6691E-12  0.9396E-16  0.1000E-09  0.0000E+00  0.4530E+16
   -0.756233    1.52240  0.6736E-10  0.1729E-11  0.2348E-15  0.1000E-09  0.0000E+00  0.4578E+16
   -0.824984    1.63929  0.6736E-10  0.4392E-11  0.5779E-15  0.1000E-09  0.0000E+00  0.4660E+16
   -0.893735    1.76483  0.6735E-10  0.1099E-10  0.1403E-14  0.1000E-09  0.0000E+00  0.4758E+16
   -0.962487    1.90109  0.6731E-10  0.2713E-10  0.3358E-14  0.1000E-09  0.0000E+00  0.4849E+16
   -1.031239    2.05017  0.6719E-10  0.6605E-10  0.7931E-14  0.1000E-09  0.0000E+00  0.4893E+16
   -1.099990    2.21369  0.6697E-10  0.1592E-09  0.1856E-13  0.1000E-09  0.0000E+00  0.4833E+16
   -1.168743    2.39212  0.6666E-10  0.3791E-09  0.4292E-13  0.1000E-09  0.0000E+00  0.4689E+16
   -1.237495    2.58744  0.6630E-10  0.8914E-09  0.9803E-13  0.1252E-09  0.0000E+00  0.4424E+16
   -1.306247    2.80164  0.6598E-10  0.2069E-08  0.2212E-12  0.2819E-09  0.0000E+00  0.4002E+16
   -1.374999    3.03711  0.6575E-10  0.4741E-08  0.4929E-12  0.7380E-09  0.0000E+00  0.3401E+16
   -1.443751    3.29933  0.6548E-10  0.1072E-07  0.1085E-11  0.2182E-08  0.0000E+00  0.2528E+16
   -1.512504    3.59848  0.6493E-10  0.2378E-07  0.2345E-11  0.1142E-07  0.0000E+00  0.1132E+16
   -1.581256    3.93316  0.6404E-10  0.3349E-07  0.3338E-11  0.6148E-04  0.0000E+00  0.5974E+14
   -1.650008    4.02338  0.6399E-10  0.3429E-07  0.3428E-11  0.1333E-03  0.0000E+00 -0.2549E+12
   -1.718760    4.02383  0.6399E-10  0.3472E-07  0.3490E-11  0.1318E-03  0.0000E+00 -0.2625E+12
   -1.787511    4.02428  0.6399E-10  0.3508E-07  0.3556E-11  0.1317E-03  0.0000E+00 -0.2665E+12
   -1.856263    4.02473  0.6399E-10  0.3538E-07  0.3629E-11  0.1312E-03  0.0000E+00 -0.2713E+12
   -1.925014    4.02518  0.6399E-10  0.3560E-07  0.3708E-11  0.1301E-03  0.0000E+00 -0.2777E+12
   -1.993765    4.02564  0.6399E-10  0.3576E-07  0.3796E-11  0.1284E-03  0.0000E+00 -0.2854E+12
   -2.062516    4.02610  0.6399E-10  0.3585E-07  0.3894E-11  0.1258E-03  0.0000E+00 -0.2947E+12
   -2.131266    4.02658  0.6399E-10  0.3587E-07  0.4014E-11  0.1220E-03  0.0000E+00 -0.3073E+12
   -2.200016    4.02707  0.6399E-10  0.3580E-07  0.4162E-11  0.1168E-03  0.0000E+00 -0.3252E+12
   -2.268766    4.02758  0.6399E-10  0.3563E-07  0.4357E-11  0.1093E-03  0.0000E+00 -0.3525E+12
   -2.337515    4.02813  0.6399E-10  0.3529E-07  0.4634E-11  0.9718E-04  0.0000E+00 -0.4035E+12
   -2.406263    4.02875  0.6399E-10  0.3471E-07  0.5062E-11  0.7812E-04  0.0000E+00 -0.5159E+12
   -2.475012    4.02954  0.6399E-10  0.3373E-07  0.5759E-11  0.5888E-04  0.0000E+00 -0.7118E+12
   -2.543759    4.03060  0.6399E-10  0.3198E-07  0.7058E-11  0.3925E-04  0.0000E+00 -0.1127E+13
   -2.612506    4.03221  0.6399E-10  0.2862E-07  0.9978E-11  0.1924E-04  0.0000E+00 -0.2480E+13
   -2.681252    4.03558  0.6399E-10  0.1460E-07  0.2851E-10  0.1325E-05  0.0000E+00 -0.5217E+14
   -2.749998    4.08185  0.6399E-10  0.0000E+00  0.0000E+00  0.0000E+00  0.0000E+00  0.0000E+00
