 1 - depth, m
 2 - temperature, C
 3 - salinity, kg/kg
 4 - turbulent kinetic energy, m**2/s**2
 5 - dissipation rate, m**2/s**3
 6 - kinematic heat conductance, m**2/s
 7 - modulus of horizontal velocity, m/s
 8 - Richardson number, n/d
   -0.000000   13.28759  0.8642E-10  0.1469E-03  0.5698E-04  0.1141E-03  0.1186E+00  0.4029E-02
   -0.068746   13.28334  0.8643E-10  0.7721E-04  0.1455E-04  0.1336E-03  0.4464E-01  0.2073E-02
   -0.137492   13.28187  0.8643E-10  0.5369E-04  0.5085E-05  0.1259E-03  0.3446E-01  0.5767E-02
   -0.206239   13.28044  0.8643E-10  0.3921E-04  0.2067E-05  0.1287E-03  0.2841E-01  0.8401E-02
   -0.274987   13.27898  0.8643E-10  0.2981E-04  0.9611E-06  0.1366E-03  0.2396E-01  0.1455E-01
   -0.343735   13.27749  0.8643E-10  0.2384E-04  0.5103E-06  0.1439E-03  0.2055E-01  0.1919E-01
   -0.412484   13.27600  0.8643E-10  0.1970E-04  0.2994E-06  0.1525E-03  0.1771E-01  0.2703E-01
   -0.481233   13.27453  0.8643E-10  0.1673E-04  0.1901E-06  0.1629E-03  0.1539E-01  0.4014E-01
   -0.549982   13.27312  0.8643E-10  0.1467E-04  0.1300E-06  0.1726E-03  0.1352E-01  0.5239E-01
   -0.618732   13.27178  0.8644E-10  0.1322E-04  0.9506E-07  0.1807E-03  0.1196E-01  0.5828E-01
   -0.687483   13.27053  0.8644E-10  0.1210E-04  0.7288E-07  0.1893E-03  0.1057E-01  0.6481E-01
   -0.756233   13.26938  0.8644E-10  0.1118E-04  0.5787E-07  0.1977E-03  0.9337E-02  0.7079E-01
   -0.824984   13.26835  0.8644E-10  0.1039E-04  0.4714E-07  0.2055E-03  0.8232E-02  0.7502E-01
   -0.893736   13.26742  0.8644E-10  0.9692E-05  0.3910E-07  0.2125E-03  0.7236E-02  0.7619E-01
   -0.962487   13.26662  0.8644E-10  0.9043E-05  0.3278E-07  0.2184E-03  0.6328E-02  0.7272E-01
   -1.031239   13.26594  0.8644E-10  0.8410E-05  0.2755E-07  0.2249E-03  0.5488E-02  0.6821E-01
   -1.099991   13.26538  0.8644E-10  0.7783E-05  0.2307E-07  0.2367E-03  0.4717E-02  0.7372E-01
   -1.168743   13.26494  0.8644E-10  0.7208E-05  0.1938E-07  0.2496E-03  0.4061E-02  0.7176E-01
   -1.237495   13.26461  0.8644E-10  0.6699E-05  0.1636E-07  0.2664E-03  0.3497E-02  0.5942E-01
   -1.306247   13.26440  0.8644E-10  0.6262E-05  0.1394E-07  0.2913E-03  0.3015E-02  0.6255E-01
   -1.375000   13.26430  0.8644E-10  0.5896E-05  0.1202E-07  0.3406E-03  0.2607E-02  0.1798E+01
   -1.443752   13.26428  0.8644E-10  0.5597E-05  0.1052E-07  0.4295E-03  0.2263E-02  0.6794E+02
   -1.512504   13.26433  0.8644E-10  0.5353E-05  0.9369E-08  0.5352E-03  0.1975E-02  0.4806E+02
   -1.581256   13.26443  0.8644E-10  0.5156E-05  0.8491E-08  0.7195E-03  0.1731E-02  0.1051E+03
   -1.650008   13.26453  0.8644E-10  0.4996E-05  0.7828E-08  0.8470E-03  0.1530E-02  0.8311E+01
   -1.718760   13.26465  0.8644E-10  0.4863E-05  0.7316E-08  0.8933E-03  0.1357E-02  0.1174E+03
   -1.787512   13.26478  0.8644E-10  0.4750E-05  0.6924E-08  0.9249E-03  0.1197E-02  0.2948E+01
   -1.856264   13.26495  0.8644E-10  0.4653E-05  0.6635E-08  0.9541E-03  0.1049E-02  0.1143E+04
   -1.925015   13.26513  0.8644E-10  0.4566E-05  0.6437E-08  0.9909E-03  0.9118E-03  0.1832E+02
   -1.993766   13.26534  0.8644E-10  0.4486E-05  0.6319E-08  0.1010E-02  0.7838E-03  0.1821E+02
   -2.062517   13.26558  0.8644E-10  0.4407E-05  0.6267E-08  0.9921E-03  0.6635E-03  0.1967E+01
   -2.131267   13.26584  0.8644E-10  0.4325E-05  0.6277E-08  0.9493E-03  0.5590E-03  0.1688E+01
   -2.200017   13.26613  0.8644E-10  0.4244E-05  0.6357E-08  0.8999E-03  0.4721E-03  0.1716E+01
   -2.268767   13.26646  0.8644E-10  0.4163E-05  0.6519E-08  0.8447E-03  0.4010E-03  0.2135E+01
   -2.337516   13.26683  0.8644E-10  0.4079E-05  0.6785E-08  0.7832E-03  0.3426E-03  0.3266E+01
   -2.406265   13.26725  0.8644E-10  0.3981E-05  0.7206E-08  0.7095E-03  0.2939E-03  0.6123E+01
   -2.475013   13.26775  0.8644E-10  0.3853E-05  0.7895E-08  0.6146E-03  0.2513E-03  0.1424E+02
   -2.543760   13.26837  0.8644E-10  0.3666E-05  0.9137E-08  0.4930E-03  0.2144E-03  0.4962E+02
   -2.612507   13.26920  0.8644E-10  0.3375E-05  0.1162E-07  0.3568E-03  0.1835E-03  0.4123E+03
   -2.681254   13.27043  0.8644E-10  0.1695E-05  0.3311E-07  0.1458E-04  0.1567E-03 -0.4175E+05
   -2.749999   13.30228  0.8644E-10  0.0000E+00  0.0000E+00  0.0000E+00  0.1562E-03  0.0000E+00
