 1 - depth, m
 2 - temperature, C
 3 - salinity, kg/kg
 4 - turbulent kinetic energy, m**2/s**2
 5 - dissipation rate, m**2/s**3
 6 - kinematic heat conductance, m**2/s
 7 - modulus of horizontal velocity, m/s
 8 - Richardson number, n/d
   -0.000000   -0.00000  0.2732E-09  0.1219E-13  0.7603E-17  0.1000E-09  0.0000E+00  0.1431E+17
   -0.068746    0.22120  0.9415E-10  0.1219E-13  0.7603E-17  0.1000E-09  0.0000E+00  0.1252E+17
   -0.137492    0.42681  0.6941E-10  0.1219E-13  0.7603E-17  0.1000E-09  0.0000E+00  0.1048E+17
   -0.206239    0.60917  0.6754E-10  0.1219E-13  0.7603E-17  0.1000E-09  0.0000E+00  0.8520E+16
   -0.274987    0.76542  0.6739E-10  0.1219E-13  0.7603E-17  0.1000E-09  0.0000E+00  0.6701E+16
   -0.343735    0.89416  0.6737E-10  0.1219E-13  0.7603E-17  0.1000E-09  0.0000E+00  0.5271E+16
   -0.412483    0.99955  0.6736E-10  0.1219E-13  0.7603E-17  0.1000E-09  0.0000E+00  0.3990E+16
   -0.481233    1.08198  0.6736E-10  0.1219E-13  0.7603E-17  0.1000E-09  0.0000E+00  0.2871E+16
   -0.549982    1.14286  0.6736E-10  0.1219E-13  0.7603E-17  0.1000E-09  0.0000E+00  0.2108E+16
   -0.618732    1.18843  0.6736E-10  0.1219E-13  0.7603E-17  0.1000E-09  0.0000E+00  0.1707E+16
   -0.687482    1.22593  0.6736E-10  0.4459E-13  0.8204E-17  0.1000E-09  0.0000E+00  0.1499E+16
   -0.756233    1.25931  0.6736E-10  0.1293E-12  0.1783E-16  0.1000E-09  0.0000E+00  0.1600E+16
   -0.824984    1.29541  0.6736E-10  0.3279E-12  0.4216E-16  0.1000E-09  0.0000E+00  0.1877E+16
   -0.893735    1.33843  0.6736E-10  0.7961E-12  0.9900E-16  0.1000E-09  0.0000E+00  0.2324E+16
   -0.962487    1.39272  0.6734E-10  0.1898E-11  0.2299E-15  0.1000E-09  0.0000E+00  0.2924E+16
   -1.031239    1.46274  0.6725E-10  0.4475E-11  0.5284E-15  0.1000E-09  0.0000E+00  0.3602E+16
   -1.099991    1.55190  0.6705E-10  0.1049E-10  0.1208E-14  0.1000E-09  0.0000E+00  0.4219E+16
   -1.168743    1.66084  0.6673E-10  0.2439E-10  0.2743E-14  0.1000E-09  0.0000E+00  0.4878E+16
   -1.237495    1.79381  0.6634E-10  0.5627E-10  0.6177E-14  0.1000E-09  0.0000E+00  0.5501E+16
   -1.306247    1.95454  0.6600E-10  0.1287E-09  0.1380E-13  0.1000E-09  0.0000E+00  0.5987E+16
   -1.374999    2.14592  0.6578E-10  0.2922E-09  0.3061E-13  0.1000E-09  0.0000E+00  0.6295E+16
   -1.443752    2.37222  0.6560E-10  0.6580E-09  0.6736E-13  0.1000E-09  0.0000E+00  0.6311E+16
   -1.512504    2.63779  0.6530E-10  0.1471E-08  0.1472E-12  0.1301E-09  0.0000E+00  0.5792E+16
   -1.581256    2.94072  0.6482E-10  0.3262E-08  0.3193E-12  0.3492E-09  0.0000E+00  0.4686E+16
   -1.650008    3.27663  0.6425E-10  0.7180E-08  0.6875E-12  0.1168E-08  0.0000E+00  0.3024E+16
   -1.718760    3.63822  0.6392E-10  0.1563E-07  0.1465E-11  0.7974E-08  0.0000E+00  0.9516E+15
   -1.787512    4.00289  0.6384E-10  0.1679E-07  0.1580E-11  0.6151E-04  0.0000E+00 -0.2372E+12
   -1.856263    4.00380  0.6384E-10  0.1732E-07  0.1646E-11  0.6559E-04  0.0000E+00 -0.2402E+12
   -1.925014    4.00468  0.6384E-10  0.1778E-07  0.1719E-11  0.6829E-04  0.0000E+00 -0.2478E+12
   -1.993765    4.00555  0.6384E-10  0.1817E-07  0.1799E-11  0.6913E-04  0.0000E+00 -0.2619E+12
   -2.062516    4.00641  0.6384E-10  0.1850E-07  0.1888E-11  0.6869E-04  0.0000E+00 -0.2799E+12
   -2.131267    4.00730  0.6384E-10  0.1878E-07  0.1994E-11  0.6697E-04  0.0000E+00 -0.3041E+12
   -2.200017    4.00822  0.6384E-10  0.1899E-07  0.2127E-11  0.6344E-04  0.0000E+00 -0.3403E+12
   -2.268766    4.00921  0.6384E-10  0.1914E-07  0.2295E-11  0.5815E-04  0.0000E+00 -0.3947E+12
   -2.337515    4.01029  0.6384E-10  0.1918E-07  0.2520E-11  0.5174E-04  0.0000E+00 -0.4753E+12
   -2.406264    4.01154  0.6384E-10  0.1908E-07  0.2836E-11  0.4416E-04  0.0000E+00 -0.6038E+12
   -2.475012    4.01303  0.6384E-10  0.1874E-07  0.3328E-11  0.3491E-04  0.0000E+00 -0.8444E+12
   -2.543760    4.01499  0.6384E-10  0.1795E-07  0.4232E-11  0.2346E-04  0.0000E+00 -0.1431E+13
   -2.612507    4.01803  0.6384E-10  0.1612E-07  0.6304E-11  0.1123E-04  0.0000E+00 -0.3623E+13
   -2.681253    4.02466  0.6384E-10  0.9096E-08  0.1799E-10  0.1035E-05  0.0000E+00 -0.7732E+14
   -2.749999    4.09286  0.6384E-10  0.0000E+00  0.0000E+00  0.0000E+00  0.0000E+00  0.0000E+00
