 1 - depth, m
 2 - temperature, C
 3 - salinity, kg/kg
 4 - turbulent kinetic energy, m**2/s**2
 5 - dissipation rate, m**2/s**3
 6 - kinematic heat conductance, m**2/s
 7 - modulus of horizontal velocity, m/s
 8 - Richardson number, n/d
   -0.000000   -0.00000  0.4983E-09  0.1219E-13  0.7604E-17  0.1000E-09  0.0000E+00  0.1419E+17
   -0.068746    0.21923  0.1194E-09  0.1755E-13  0.7604E-17  0.1000E-09  0.0000E+00  0.1307E+17
   -0.137492    0.43390  0.8941E-10  0.7123E-13  0.7758E-17  0.1000E-09  0.0000E+00  0.1192E+17
   -0.206239    0.64253  0.7931E-10  0.1749E-12  0.1274E-16  0.1000E-09  0.0000E+00  0.1086E+17
   -0.274986    0.84538  0.7638E-10  0.3610E-12  0.2328E-16  0.1000E-09  0.0000E+00  0.9886E+16
   -0.343734    1.04284  0.7569E-10  0.6962E-12  0.4277E-16  0.1000E-09  0.0000E+00  0.9018E+16
   -0.412483    1.23596  0.7555E-10  0.1304E-11  0.7789E-16  0.1000E-09  0.0000E+00  0.8213E+16
   -0.481232    1.42508  0.7553E-10  0.2410E-11  0.1406E-15  0.1000E-09  0.0000E+00  0.7464E+16
   -0.549981    1.61056  0.7552E-10  0.4412E-11  0.2522E-15  0.1000E-09  0.0000E+00  0.6784E+16
   -0.618731    1.79330  0.7552E-10  0.7997E-11  0.4479E-15  0.1000E-09  0.0000E+00  0.6163E+16
   -0.687481    1.97422  0.7551E-10  0.1439E-10  0.7899E-15  0.1000E-09  0.0000E+00  0.5577E+16
   -0.756232    2.15380  0.7548E-10  0.2573E-10  0.1385E-14  0.1000E-09  0.0000E+00  0.5058E+16
   -0.824982    2.33400  0.7543E-10  0.4574E-10  0.2414E-14  0.1000E-09  0.0000E+00  0.4542E+16
   -0.893734    2.51508  0.7533E-10  0.8087E-10  0.4186E-14  0.1000E-09  0.0000E+00  0.4025E+16
   -0.962485    2.69720  0.7517E-10  0.1422E-09  0.7219E-14  0.1000E-09  0.0000E+00  0.3503E+16
   -1.031237    2.88042  0.7492E-10  0.2486E-09  0.1238E-13  0.1000E-09  0.0000E+00  0.2975E+16
   -1.099988    3.06477  0.7460E-10  0.4337E-09  0.2120E-13  0.1000E-09  0.0000E+00  0.2442E+16
   -1.168740    3.25043  0.7418E-10  0.7540E-09  0.3617E-13  0.1008E-09  0.0000E+00  0.1896E+16
   -1.237492    3.43683  0.7364E-10  0.1305E-08  0.6143E-13  0.2332E-09  0.0000E+00  0.1341E+16
   -1.306244    3.62299  0.7294E-10  0.2247E-08  0.1039E-12  0.6717E-09  0.0000E+00  0.7869E+15
   -1.374996    3.80748  0.7230E-10  0.3846E-08  0.1746E-12  0.3541E-08  0.0000E+00  0.2509E+15
   -1.443749    3.98610  0.7211E-10  0.4308E-08  0.1964E-12  0.1445E-04  0.0000E+00 -0.1740E+11
   -1.512501    3.98791  0.7211E-10  0.4572E-08  0.2117E-12  0.2156E-04  0.0000E+00 -0.4065E+11
   -1.581253    3.98910  0.7211E-10  0.4821E-08  0.2282E-12  0.2622E-04  0.0000E+00 -0.5034E+11
   -1.650005    3.99008  0.7211E-10  0.5061E-08  0.2461E-12  0.2961E-04  0.0000E+00 -0.5754E+11
   -1.718756    3.99095  0.7211E-10  0.5291E-08  0.2655E-12  0.3208E-04  0.0000E+00 -0.6415E+11
   -1.787508    3.99176  0.7211E-10  0.5509E-08  0.2865E-12  0.3381E-04  0.0000E+00 -0.7094E+11
   -1.856259    3.99254  0.7211E-10  0.5715E-08  0.3093E-12  0.3488E-04  0.0000E+00 -0.7835E+11
   -1.925010    3.99329  0.7211E-10  0.5906E-08  0.3341E-12  0.3537E-04  0.0000E+00 -0.8677E+11
   -1.993761    3.99404  0.7211E-10  0.6081E-08  0.3612E-12  0.3530E-04  0.0000E+00 -0.9666E+11
   -2.062512    3.99480  0.7211E-10  0.6237E-08  0.3916E-12  0.3473E-04  0.0000E+00 -0.1087E+12
   -2.131262    3.99558  0.7211E-10  0.6380E-08  0.4279E-12  0.3351E-04  0.0000E+00 -0.1246E+12
   -2.200012    3.99641  0.7211E-10  0.6505E-08  0.4723E-12  0.3162E-04  0.0000E+00 -0.1461E+12
   -2.268761    3.99729  0.7211E-10  0.6607E-08  0.5286E-12  0.2903E-04  0.0000E+00 -0.1771E+12
   -2.337510    3.99827  0.7211E-10  0.6676E-08  0.6035E-12  0.2569E-04  0.0000E+00 -0.2248E+12
   -2.406259    3.99942  0.7211E-10  0.6693E-08  0.7100E-12  0.2155E-04  0.0000E+00 -0.3066E+12
   -2.475007    4.00083  0.7211E-10  0.6622E-08  0.8783E-12  0.1655E-04  0.0000E+00 -0.4715E+12
   -2.543754    4.00278  0.7211E-10  0.6361E-08  0.1197E-11  0.1056E-04  0.0000E+00 -0.9174E+12
   -2.612501    4.00601  0.7211E-10  0.5643E-08  0.1965E-11  0.4562E-05  0.0000E+00 -0.2928E+13
   -2.681247    4.01391  0.7211E-10  0.3378E-08  0.5641E-11  0.4975E-06  0.0000E+00 -0.6024E+14
   -2.749993    4.07829  0.7211E-10  0.0000E+00  0.0000E+00  0.0000E+00  0.0000E+00  0.0000E+00
