 1 - depth, m
 2 - temperature, C
 3 - salinity, kg/kg
 4 - turbulent kinetic energy, m**2/s**2
 5 - dissipation rate, m**2/s**3
 6 - kinematic heat conductance, m**2/s
 7 - modulus of horizontal velocity, m/s
 8 - Richardson number, n/d
   -0.000000   -0.00000  0.4532E-09  0.3343E-12  0.5651E-16  0.1000E-09  0.0000E+00  0.1593E+17
   -0.068746    0.24710  0.1142E-09  0.6950E-12  0.6320E-16  0.1000E-09  0.0000E+00  0.1456E+17
   -0.137492    0.48929  0.8497E-10  0.1469E-11  0.1044E-15  0.1000E-09  0.0000E+00  0.1320E+17
   -0.206238    0.72532  0.7503E-10  0.2932E-11  0.1908E-15  0.1000E-09  0.0000E+00  0.1194E+17
   -0.274986    0.95561  0.7216E-10  0.5655E-11  0.3533E-15  0.1000E-09  0.0000E+00  0.1079E+17
   -0.343734    1.18064  0.7148E-10  0.1069E-10  0.6495E-15  0.1000E-09  0.0000E+00  0.9740E+16
   -0.412482    1.40150  0.7135E-10  0.1994E-10  0.1184E-14  0.1000E-09  0.0000E+00  0.8765E+16
   -0.481231    1.61861  0.7133E-10  0.3687E-10  0.2141E-14  0.1000E-09  0.0000E+00  0.7853E+16
   -0.549980    1.83243  0.7132E-10  0.6769E-10  0.3846E-14  0.1000E-09  0.0000E+00  0.7014E+16
   -0.618730    2.04396  0.7132E-10  0.1230E-09  0.6840E-14  0.1000E-09  0.0000E+00  0.6234E+16
   -0.687480    2.25429  0.7131E-10  0.2216E-09  0.1207E-13  0.1000E-09  0.0000E+00  0.5492E+16
   -0.756231    2.46425  0.7130E-10  0.3968E-09  0.2116E-13  0.1000E-09  0.0000E+00  0.4814E+16
   -0.824982    2.67642  0.7125E-10  0.7057E-09  0.3686E-13  0.1000E-09  0.0000E+00  0.4130E+16
   -0.893733    2.89156  0.7116E-10  0.1247E-08  0.6382E-13  0.1001E-09  0.0000E+00  0.3429E+16
   -0.962484    3.11021  0.7096E-10  0.2191E-08  0.1098E-12  0.2075E-09  0.0000E+00  0.2694E+16
   -1.031236    3.33222  0.7054E-10  0.3824E-08  0.1879E-12  0.4973E-09  0.0000E+00  0.1922E+16
   -1.099987    3.55674  0.6978E-10  0.6651E-08  0.3204E-12  0.1451E-08  0.0000E+00  0.1123E+16
   -1.168739    3.78171  0.6889E-10  0.1148E-07  0.5425E-12  0.8419E-08  0.0000E+00  0.3279E+15
   -1.237491    3.99554  0.6858E-10  0.1187E-07  0.5618E-12  0.8215E-04  0.0000E+00 -0.5705E+11
   -1.306243    3.99593  0.6858E-10  0.1205E-07  0.5728E-12  0.8948E-04  0.0000E+00 -0.5496E+11
   -1.374995    3.99629  0.6858E-10  0.1222E-07  0.5846E-12  0.9489E-04  0.0000E+00 -0.5402E+11
   -1.443747    3.99663  0.6858E-10  0.1237E-07  0.5971E-12  0.9644E-04  0.0000E+00 -0.5498E+11
   -1.512499    3.99696  0.6858E-10  0.1250E-07  0.6105E-12  0.9661E-04  0.0000E+00 -0.5671E+11
   -1.581251    3.99730  0.6858E-10  0.1262E-07  0.6249E-12  0.9635E-04  0.0000E+00 -0.5872E+11
   -1.650003    3.99763  0.6858E-10  0.1273E-07  0.6405E-12  0.9573E-04  0.0000E+00 -0.6102E+11
   -1.718755    3.99797  0.6858E-10  0.1282E-07  0.6576E-12  0.9473E-04  0.0000E+00 -0.6364E+11
   -1.787506    3.99832  0.6858E-10  0.1290E-07  0.6765E-12  0.9328E-04  0.0000E+00 -0.6671E+11
   -1.856258    3.99867  0.6858E-10  0.1297E-07  0.6976E-12  0.9118E-04  0.0000E+00 -0.7046E+11
   -1.925009    3.99903  0.6858E-10  0.1302E-07  0.7214E-12  0.8819E-04  0.0000E+00 -0.7522E+11
   -1.993760    3.99940  0.6858E-10  0.1305E-07  0.7487E-12  0.8414E-04  0.0000E+00 -0.8149E+11
   -2.062510    3.99979  0.6858E-10  0.1307E-07  0.7808E-12  0.7901E-04  0.0000E+00 -0.8989E+11
   -2.131260    4.00021  0.6858E-10  0.1305E-07  0.8207E-12  0.7258E-04  0.0000E+00 -0.1017E+12
   -2.200010    4.00067  0.6858E-10  0.1301E-07  0.8714E-12  0.6545E-04  0.0000E+00 -0.1176E+12
   -2.268759    4.00118  0.6858E-10  0.1293E-07  0.9376E-12  0.5827E-04  0.0000E+00 -0.1386E+12
   -2.337508    4.00177  0.6858E-10  0.1279E-07  0.1027E-11  0.5066E-04  0.0000E+00 -0.1688E+12
   -2.406257    4.00245  0.6857E-10  0.1256E-07  0.1157E-11  0.4204E-04  0.0000E+00 -0.2179E+12
   -2.475005    4.00329  0.6857E-10  0.1218E-07  0.1363E-11  0.3208E-04  0.0000E+00 -0.3125E+12
   -2.543752    4.00442  0.6857E-10  0.1148E-07  0.1753E-11  0.2056E-04  0.0000E+00 -0.5501E+12
   -2.612499    4.00627  0.6857E-10  0.1008E-07  0.2676E-11  0.9145E-05  0.0000E+00 -0.1490E+13
   -2.681245    4.01057  0.6857E-10  0.4986E-08  0.8033E-11  0.6292E-06  0.0000E+00 -0.4508E+14
   -2.749990    4.06598  0.6857E-10  0.0000E+00  0.0000E+00  0.0000E+00  0.0000E+00  0.0000E+00
