 1 - depth, m
 2 - temperature, C
 3 - salinity, kg/kg
 4 - turbulent kinetic energy, m**2/s**2
 5 - dissipation rate, m**2/s**3
 6 - kinematic heat conductance, m**2/s
 7 - modulus of horizontal velocity, m/s
 8 - Richardson number, n/d
   -0.000000   -0.00000  0.9200E-10  0.1219E-13  0.7603E-17  0.1000E-09  0.0000E+00  0.1241E+17
   -0.068746    0.19109  0.1369E-09  0.1219E-13  0.7603E-17  0.1000E-09  0.0000E+00  0.1192E+17
   -0.137493    0.38471  0.1350E-09  0.1219E-13  0.7603E-17  0.1000E-09  0.0000E+00  0.1128E+17
   -0.206241    0.57877  0.1161E-09  0.1906E-13  0.7603E-17  0.1000E-09  0.0000E+00  0.1061E+17
   -0.274989    0.77264  0.9557E-10  0.7446E-13  0.8216E-17  0.1000E-09  0.0000E+00  0.9920E+16
   -0.343738    0.96578  0.8095E-10  0.1828E-12  0.1428E-16  0.1000E-09  0.0000E+00  0.9237E+16
   -0.412487    1.15808  0.7299E-10  0.3834E-12  0.2710E-16  0.1000E-09  0.0000E+00  0.8545E+16
   -0.481237    1.34907  0.6942E-10  0.7598E-12  0.5168E-16  0.1000E-09  0.0000E+00  0.7853E+16
   -0.549987    1.53830  0.6802E-10  0.1473E-11  0.9795E-16  0.1000E-09  0.0000E+00  0.7180E+16
   -0.618738    1.72573  0.6751E-10  0.2816E-11  0.1839E-15  0.1000E-09  0.0000E+00  0.6529E+16
   -0.687489    1.91142  0.6730E-10  0.5349E-11  0.3433E-15  0.1000E-09  0.0000E+00  0.5892E+16
   -0.756240    2.09517  0.6713E-10  0.1011E-10  0.6378E-15  0.1000E-09  0.0000E+00  0.5280E+16
   -0.824992    2.27709  0.6691E-10  0.1902E-10  0.1180E-14  0.1000E-09  0.0000E+00  0.4684E+16
   -0.893744    2.45705  0.6660E-10  0.3562E-10  0.2172E-14  0.1000E-09  0.0000E+00  0.4105E+16
   -0.962496    2.63487  0.6620E-10  0.6643E-10  0.3982E-14  0.1000E-09  0.0000E+00  0.3544E+16
   -1.031248    2.81033  0.6577E-10  0.1233E-09  0.7267E-14  0.1000E-09  0.0000E+00  0.2999E+16
   -1.100001    2.98299  0.6539E-10  0.2286E-09  0.1324E-13  0.1000E-09  0.0000E+00  0.2465E+16
   -1.168754    3.15177  0.6511E-10  0.4226E-09  0.2406E-13  0.1000E-09  0.0000E+00  0.1955E+16
   -1.237506    3.31561  0.6494E-10  0.7780E-09  0.4354E-13  0.1504E-09  0.0000E+00  0.1473E+16
   -1.306259    3.47293  0.6485E-10  0.1426E-08  0.7845E-13  0.3867E-09  0.0000E+00  0.1032E+16
   -1.375012    3.62198  0.6482E-10  0.2601E-08  0.1407E-12  0.1100E-08  0.0000E+00  0.6500E+15
   -1.443765    3.76235  0.6481E-10  0.4715E-08  0.2508E-12  0.3883E-08  0.0000E+00  0.3283E+15
   -1.512518    3.89479  0.6480E-10  0.8377E-08  0.4390E-12  0.3504E-07  0.0000E+00  0.6363E+14
   -1.581271    4.00255  0.6480E-10  0.8805E-08  0.4627E-12  0.6330E-04  0.0000E+00 -0.7766E+11
   -1.650023    4.00285  0.6480E-10  0.8997E-08  0.4756E-12  0.6536E-04  0.0000E+00 -0.7704E+11
   -1.718776    4.00315  0.6480E-10  0.9164E-08  0.4892E-12  0.6587E-04  0.0000E+00 -0.7816E+11
   -1.787528    4.00344  0.6480E-10  0.9306E-08  0.5037E-12  0.6557E-04  0.0000E+00 -0.8027E+11
   -1.856280    4.00374  0.6480E-10  0.9426E-08  0.5195E-12  0.6470E-04  0.0000E+00 -0.8316E+11
   -1.925032    4.00404  0.6480E-10  0.9524E-08  0.5370E-12  0.6324E-04  0.0000E+00 -0.8700E+11
   -1.993784    4.00435  0.6480E-10  0.9600E-08  0.5567E-12  0.6109E-04  0.0000E+00 -0.9210E+11
   -2.062535    4.00467  0.6480E-10  0.9652E-08  0.5791E-12  0.5834E-04  0.0000E+00 -0.9909E+11
   -2.131286    4.00501  0.6480E-10  0.9680E-08  0.6066E-12  0.5506E-04  0.0000E+00 -0.1084E+12
   -2.200037    4.00538  0.6480E-10  0.9678E-08  0.6408E-12  0.5122E-04  0.0000E+00 -0.1207E+12
   -2.268787    4.00578  0.6480E-10  0.9639E-08  0.6850E-12  0.4665E-04  0.0000E+00 -0.1380E+12
   -2.337537    4.00623  0.6480E-10  0.9551E-08  0.7443E-12  0.4117E-04  0.0000E+00 -0.1639E+12
   -2.406286    4.00675  0.6480E-10  0.9388E-08  0.8294E-12  0.3457E-04  0.0000E+00 -0.2070E+12
   -2.475035    4.00738  0.6480E-10  0.9104E-08  0.9640E-12  0.2671E-04  0.0000E+00 -0.2893E+12
   -2.543783    4.00824  0.6480E-10  0.8568E-08  0.1217E-11  0.1732E-04  0.0000E+00 -0.4938E+12
   -2.612531    4.00964  0.6480E-10  0.7465E-08  0.1810E-11  0.7680E-05  0.0000E+00 -0.1288E+13
   -2.681278    4.01293  0.6480E-10  0.3516E-08  0.5133E-11  0.4737E-06  0.0000E+00 -0.3524E+14
   -2.750024    4.05849  0.6480E-10  0.0000E+00  0.0000E+00  0.0000E+00  0.0000E+00  0.0000E+00
