 1 - depth, m
 2 - temperature, C
 3 - salinity, kg/kg
 4 - turbulent kinetic energy, m**2/s**2
 5 - dissipation rate, m**2/s**3
 6 - kinematic heat conductance, m**2/s
 7 - modulus of horizontal velocity, m/s
 8 - Richardson number, n/d
   -0.000000   -0.00000  0.2961E-09  0.1219E-13  0.7603E-17  0.1000E-09  0.0000E+00  0.1161E+17
   -0.068746    0.17836  0.1309E-09  0.1219E-13  0.7603E-17  0.1000E-09  0.0000E+00  0.1049E+17
   -0.137492    0.34765  0.8716E-10  0.1219E-13  0.7603E-17  0.1000E-09  0.0000E+00  0.9184E+16
   -0.206239    0.50300  0.8086E-10  0.1219E-13  0.7603E-17  0.1000E-09  0.0000E+00  0.7929E+16
   -0.274987    0.64329  0.8018E-10  0.1219E-13  0.7603E-17  0.1000E-09  0.0000E+00  0.6776E+16
   -0.343735    0.76828  0.8011E-10  0.1219E-13  0.7603E-17  0.1000E-09  0.0000E+00  0.5892E+16
   -0.412484    0.88130  0.8009E-10  0.1219E-13  0.7603E-17  0.1000E-09  0.0000E+00  0.5097E+16
   -0.481233    0.98269  0.8009E-10  0.1219E-13  0.7603E-17  0.1000E-09  0.0000E+00  0.4398E+16
   -0.549982    1.07316  0.8009E-10  0.1219E-13  0.7603E-17  0.1000E-09  0.0000E+00  0.3923E+16
   -0.618732    1.15641  0.8009E-10  0.1219E-13  0.7603E-17  0.1000E-09  0.0000E+00  0.3668E+16
   -0.687483    1.23663  0.8009E-10  0.1219E-13  0.7603E-17  0.1000E-09  0.0000E+00  0.3512E+16
   -0.756233    1.31581  0.8009E-10  0.3407E-13  0.7603E-17  0.1000E-09  0.0000E+00  0.3548E+16
   -0.824984    1.39838  0.8009E-10  0.1044E-12  0.1473E-16  0.1000E-09  0.0000E+00  0.3651E+16
   -0.893736    1.48631  0.8009E-10  0.2689E-12  0.3423E-16  0.1000E-09  0.0000E+00  0.3807E+16
   -0.962487    1.58157  0.8006E-10  0.6518E-12  0.7967E-16  0.1000E-09  0.0000E+00  0.3997E+16
   -1.031239    1.68600  0.7997E-10  0.1543E-11  0.1831E-15  0.1000E-09  0.0000E+00  0.4179E+16
   -1.099991    1.80073  0.7977E-10  0.3617E-11  0.4176E-15  0.1000E-09  0.0000E+00  0.4286E+16
   -1.168743    1.92528  0.7945E-10  0.8395E-11  0.9436E-15  0.1000E-09  0.0000E+00  0.4375E+16
   -1.237495    2.06099  0.7901E-10  0.1929E-10  0.2112E-14  0.1000E-09  0.0000E+00  0.4422E+16
   -1.306247    2.20902  0.7858E-10  0.4389E-10  0.4681E-14  0.1000E-09  0.0000E+00  0.4408E+16
   -1.375000    2.37044  0.7826E-10  0.9891E-10  0.1028E-13  0.1000E-09  0.0000E+00  0.4352E+16
   -1.443752    2.54800  0.7800E-10  0.2208E-09  0.2237E-13  0.1000E-09  0.0000E+00  0.4234E+16
   -1.512504    2.74548  0.7768E-10  0.4884E-09  0.4827E-13  0.1000E-09  0.0000E+00  0.3939E+16
   -1.581256    2.96371  0.7721E-10  0.1071E-08  0.1032E-12  0.1533E-09  0.0000E+00  0.3430E+16
   -1.650009    3.20268  0.7666E-10  0.2327E-08  0.2189E-12  0.4170E-09  0.0000E+00  0.2675E+16
   -1.718760    3.46072  0.7625E-10  0.5010E-08  0.4601E-12  0.1402E-08  0.0000E+00  0.1673E+16
   -1.787512    3.73322  0.7606E-10  0.1065E-07  0.9551E-12  0.9722E-08  0.0000E+00  0.5016E+15
   -1.856264    4.00130  0.7601E-10  0.1168E-07  0.1052E-11  0.4448E-04  0.0000E+00 -0.2219E+12
   -1.925015    4.00222  0.7601E-10  0.1214E-07  0.1108E-11  0.4631E-04  0.0000E+00 -0.2292E+12
   -1.993766    4.00312  0.7601E-10  0.1254E-07  0.1170E-11  0.4728E-04  0.0000E+00 -0.2406E+12
   -2.062517    4.00401  0.7601E-10  0.1288E-07  0.1239E-11  0.4737E-04  0.0000E+00 -0.2567E+12
   -2.131267    4.00491  0.7601E-10  0.1318E-07  0.1323E-11  0.4653E-04  0.0000E+00 -0.2797E+12
   -2.200017    4.00585  0.7601E-10  0.1343E-07  0.1426E-11  0.4472E-04  0.0000E+00 -0.3126E+12
   -2.268767    4.00684  0.7601E-10  0.1362E-07  0.1556E-11  0.4188E-04  0.0000E+00 -0.3609E+12
   -2.337516    4.00794  0.7601E-10  0.1374E-07  0.1729E-11  0.3790E-04  0.0000E+00 -0.4355E+12
   -2.406265    4.00919  0.7601E-10  0.1375E-07  0.1974E-11  0.3266E-04  0.0000E+00 -0.5615E+12
   -2.475013    4.01070  0.7601E-10  0.1359E-07  0.2357E-11  0.2600E-04  0.0000E+00 -0.8066E+12
   -2.543760    4.01273  0.7601E-10  0.1308E-07  0.3065E-11  0.1751E-04  0.0000E+00 -0.1424E+13
   -2.612507    4.01597  0.7601E-10  0.1177E-07  0.4708E-11  0.8263E-05  0.0000E+00 -0.3853E+13
   -2.681254    4.02335  0.7601E-10  0.6945E-08  0.1346E-10  0.8548E-06  0.0000E+00 -0.7865E+14
   -2.750000    4.09320  0.7601E-10  0.0000E+00  0.0000E+00  0.0000E+00  0.0000E+00  0.0000E+00
