 1 - depth, m
 2 - temperature, C
 3 - salinity, kg/kg
 4 - turbulent kinetic energy, m**2/s**2
 5 - dissipation rate, m**2/s**3
 6 - kinematic heat conductance, m**2/s
 7 - modulus of horizontal velocity, m/s
 8 - Richardson number, n/d
   -0.000000   -0.00000  0.3434E-09  0.2982E-12  0.5360E-16  0.1000E-09  0.0000E+00  0.1613E+17
   -0.068746    0.25040  0.1203E-09  0.6510E-12  0.6911E-16  0.1000E-09  0.0000E+00  0.1474E+17
   -0.137492    0.49584  0.8434E-10  0.1480E-11  0.1313E-15  0.1000E-09  0.0000E+00  0.1335E+17
   -0.206239    0.73518  0.7212E-10  0.3226E-11  0.2690E-15  0.1000E-09  0.0000E+00  0.1209E+17
   -0.274986    0.96915  0.6846E-10  0.6856E-11  0.5525E-15  0.1000E-09  0.0000E+00  0.1093E+17
   -0.343734    1.19855  0.6758E-10  0.1432E-10  0.1122E-14  0.1000E-09  0.0000E+00  0.9899E+16
   -0.412482    1.42481  0.6740E-10  0.2951E-10  0.2254E-14  0.1000E-09  0.0000E+00  0.8930E+16
   -0.481231    1.64852  0.6736E-10  0.6020E-10  0.4484E-14  0.1000E-09  0.0000E+00  0.8014E+16
   -0.549981    1.87016  0.6736E-10  0.1216E-09  0.8834E-14  0.1000E-09  0.0000E+00  0.7159E+16
   -0.618730    2.09078  0.6736E-10  0.2424E-09  0.1718E-13  0.1000E-09  0.0000E+00  0.6349E+16
   -0.687481    2.31139  0.6735E-10  0.4782E-09  0.3308E-13  0.1000E-09  0.0000E+00  0.5558E+16
   -0.756231    2.53259  0.6734E-10  0.9344E-09  0.6309E-13  0.1000E-09  0.0000E+00  0.4819E+16
   -0.824982    2.75703  0.6730E-10  0.1809E-08  0.1192E-12  0.1492E-09  0.0000E+00  0.4068E+16
   -0.893733    2.98585  0.6720E-10  0.3470E-08  0.2234E-12  0.3445E-09  0.0000E+00  0.3301E+16
   -0.962484    3.22131  0.6694E-10  0.6596E-08  0.4146E-12  0.8440E-09  0.0000E+00  0.2500E+16
   -1.031236    3.46751  0.6633E-10  0.1241E-07  0.7622E-12  0.2408E-08  0.0000E+00  0.1602E+16
   -1.099988    3.72991  0.6531E-10  0.2307E-07  0.1385E-11  0.1363E-07  0.0000E+00  0.5167E+15
   -1.168740    3.99934  0.6472E-10  0.2427E-07  0.1463E-11  0.1429E-03  0.0000E+00  0.1103E+13
   -1.237492    4.00533  0.6471E-10  0.2450E-07  0.1481E-11  0.1529E-03  0.0000E+00 -0.8817E+11
   -1.306244    4.00562  0.6471E-10  0.2468E-07  0.1497E-11  0.1527E-03  0.0000E+00 -0.9017E+11
   -1.374996    4.00592  0.6471E-10  0.2484E-07  0.1515E-11  0.1529E-03  0.0000E+00 -0.9129E+11
   -1.443748    4.00621  0.6471E-10  0.2499E-07  0.1534E-11  0.1526E-03  0.0000E+00 -0.9214E+11
   -1.512500    4.00650  0.6471E-10  0.2510E-07  0.1554E-11  0.1521E-03  0.0000E+00 -0.9305E+11
   -1.581252    4.00679  0.6471E-10  0.2520E-07  0.1577E-11  0.1512E-03  0.0000E+00 -0.9422E+11
   -1.650004    4.00708  0.6471E-10  0.2528E-07  0.1601E-11  0.1500E-03  0.0000E+00 -0.9552E+11
   -1.718755    4.00737  0.6471E-10  0.2533E-07  0.1627E-11  0.1483E-03  0.0000E+00 -0.9714E+11
   -1.787507    4.00766  0.6471E-10  0.2536E-07  0.1656E-11  0.1462E-03  0.0000E+00 -0.9897E+11
   -1.856258    4.00795  0.6471E-10  0.2537E-07  0.1688E-11  0.1437E-03  0.0000E+00 -0.1012E+12
   -1.925009    4.00825  0.6471E-10  0.2535E-07  0.1723E-11  0.1410E-03  0.0000E+00 -0.1036E+12
   -1.993760    4.00855  0.6471E-10  0.2531E-07  0.1763E-11  0.1374E-03  0.0000E+00 -0.1068E+12
   -2.062511    4.00885  0.6471E-10  0.2524E-07  0.1809E-11  0.1328E-03  0.0000E+00 -0.1115E+12
   -2.131261    4.00916  0.6471E-10  0.2513E-07  0.1869E-11  0.1264E-03  0.0000E+00 -0.1184E+12
   -2.200011    4.00949  0.6471E-10  0.2496E-07  0.1951E-11  0.1142E-03  0.0000E+00 -0.1327E+12
   -2.268760    4.00985  0.6471E-10  0.2471E-07  0.2064E-11  0.9630E-04  0.0000E+00 -0.1599E+12
   -2.337509    4.01028  0.6471E-10  0.2435E-07  0.2223E-11  0.8018E-04  0.0000E+00 -0.1965E+12
   -2.406257    4.01081  0.6471E-10  0.2383E-07  0.2460E-11  0.6509E-04  0.0000E+00 -0.2494E+12
   -2.475005    4.01145  0.6471E-10  0.2305E-07  0.2838E-11  0.4962E-04  0.0000E+00 -0.3416E+12
   -2.543753    4.01231  0.6471E-10  0.2174E-07  0.3548E-11  0.3230E-04  0.0000E+00 -0.5574E+12
   -2.612499    4.01365  0.6471E-10  0.1930E-07  0.5180E-11  0.1518E-04  0.0000E+00 -0.1302E+13
   -2.681246    4.01656  0.6471E-10  0.9176E-08  0.1575E-10  0.9014E-06  0.0000E+00 -0.3607E+14
   -2.749991    4.06067  0.6471E-10  0.0000E+00  0.0000E+00  0.0000E+00  0.0000E+00  0.0000E+00
