 1 - depth, m
 2 - temperature, C
 3 - salinity, kg/kg
 4 - turbulent kinetic energy, m**2/s**2
 5 - dissipation rate, m**2/s**3
 6 - kinematic heat conductance, m**2/s
 7 - modulus of horizontal velocity, m/s
 8 - Richardson number, n/d
   -0.000000   -0.00000  0.5536E-09  0.1219E-13  0.7604E-17  0.1000E-09  0.0000E+00  0.1265E+17
   -0.068746    0.19483  0.1376E-09  0.1219E-13  0.7604E-17  0.1000E-09  0.0000E+00  0.1181E+17
   -0.137492    0.38684  0.9371E-10  0.1219E-13  0.7604E-17  0.1000E-09  0.0000E+00  0.1091E+17
   -0.206239    0.57452  0.8373E-10  0.1219E-13  0.7604E-17  0.1000E-09  0.0000E+00  0.1006E+17
   -0.274986    0.75775  0.8093E-10  0.1219E-13  0.7604E-17  0.1000E-09  0.0000E+00  0.9252E+16
   -0.343734    0.93654  0.8026E-10  0.1219E-13  0.7604E-17  0.1000E-09  0.0000E+00  0.8513E+16
   -0.412483    1.11138  0.8012E-10  0.1219E-13  0.7604E-17  0.1000E-09  0.0000E+00  0.7813E+16
   -0.481232    1.28229  0.8010E-10  0.2577E-13  0.7604E-17  0.1000E-09  0.0000E+00  0.7152E+16
   -0.549981    1.44931  0.8009E-10  0.8750E-13  0.9199E-17  0.1000E-09  0.0000E+00  0.6546E+16
   -0.618731    1.61291  0.8008E-10  0.2069E-12  0.1648E-16  0.1000E-09  0.0000E+00  0.5990E+16
   -0.687481    1.77362  0.8007E-10  0.4295E-12  0.3142E-16  0.1000E-09  0.0000E+00  0.5465E+16
   -0.756232    1.93162  0.8004E-10  0.8484E-12  0.5971E-16  0.1000E-09  0.0000E+00  0.5004E+16
   -0.824983    2.08821  0.7998E-10  0.1640E-11  0.1124E-15  0.1000E-09  0.0000E+00  0.4557E+16
   -0.893734    2.24343  0.7987E-10  0.3132E-11  0.2096E-15  0.1000E-09  0.0000E+00  0.4124E+16
   -0.962485    2.39729  0.7969E-10  0.5927E-11  0.3880E-15  0.1000E-09  0.0000E+00  0.3702E+16
   -1.031237    2.54976  0.7944E-10  0.1113E-10  0.7128E-15  0.1000E-09  0.0000E+00  0.3292E+16
   -1.099989    2.70086  0.7913E-10  0.2082E-10  0.1304E-14  0.1000E-09  0.0000E+00  0.2897E+16
   -1.168741    2.85073  0.7877E-10  0.3872E-10  0.2374E-14  0.1000E-09  0.0000E+00  0.2511E+16
   -1.237493    2.99924  0.7840E-10  0.7156E-10  0.4295E-14  0.1000E-09  0.0000E+00  0.2134E+16
   -1.306245    3.14622  0.7800E-10  0.1314E-09  0.7720E-14  0.1000E-09  0.0000E+00  0.1768E+16
   -1.374997    3.29149  0.7757E-10  0.2397E-09  0.1379E-13  0.1000E-09  0.0000E+00  0.1416E+16
   -1.443749    3.43512  0.7707E-10  0.4344E-09  0.2447E-13  0.1163E-09  0.0000E+00  0.1078E+16
   -1.512501    3.57739  0.7660E-10  0.7821E-09  0.4316E-13  0.2932E-09  0.0000E+00  0.7492E+15
   -1.581253    3.71782  0.7630E-10  0.1399E-08  0.7562E-13  0.8907E-09  0.0000E+00  0.4323E+15
   -1.650005    3.85565  0.7620E-10  0.2480E-08  0.1314E-12  0.5011E-08  0.0000E+00  0.1339E+15
   -1.718757    3.98720  0.7619E-10  0.2935E-08  0.1562E-12  0.1109E-04  0.0000E+00 -0.4270E+11
   -1.787509    3.98907  0.7619E-10  0.3191E-08  0.1738E-12  0.1506E-04  0.0000E+00 -0.6598E+11
   -1.856260    3.99034  0.7619E-10  0.3427E-08  0.1930E-12  0.1749E-04  0.0000E+00 -0.7749E+11
   -1.925011    3.99144  0.7619E-10  0.3647E-08  0.2142E-12  0.1903E-04  0.0000E+00 -0.8818E+11
   -1.993762    3.99244  0.7619E-10  0.3852E-08  0.2379E-12  0.1987E-04  0.0000E+00 -0.9996E+11
   -2.062513    3.99341  0.7619E-10  0.4043E-08  0.2649E-12  0.2023E-04  0.0000E+00 -0.1145E+12
   -2.131263    3.99437  0.7619E-10  0.4226E-08  0.2977E-12  0.2007E-04  0.0000E+00 -0.1338E+12
   -2.200013    3.99537  0.7619E-10  0.4400E-08  0.3385E-12  0.1935E-04  0.0000E+00 -0.1606E+12
   -2.268762    3.99644  0.7619E-10  0.4562E-08  0.3910E-12  0.1809E-04  0.0000E+00 -0.1998E+12
   -2.337511    3.99763  0.7619E-10  0.4705E-08  0.4618E-12  0.1627E-04  0.0000E+00 -0.2618E+12
   -2.406260    3.99902  0.7619E-10  0.4819E-08  0.5640E-12  0.1387E-04  0.0000E+00 -0.3710E+12
   -2.475008    4.00076  0.7619E-10  0.4876E-08  0.7276E-12  0.1086E-04  0.0000E+00 -0.5986E+12
   -2.543755    4.00320  0.7619E-10  0.4802E-08  0.1040E-11  0.7083E-05  0.0000E+00 -0.1231E+13
   -2.612502    4.00734  0.7619E-10  0.4388E-08  0.1787E-11  0.3171E-05  0.0000E+00 -0.4134E+13
   -2.681248    4.01746  0.7619E-10  0.2974E-08  0.5069E-11  0.4539E-06  0.0000E+00 -0.6593E+14
   -2.749994    4.08324  0.7619E-10  0.0000E+00  0.0000E+00  0.0000E+00  0.0000E+00  0.0000E+00
