 1 - depth, m
 2 - temperature, C
 3 - salinity, kg/kg
 4 - turbulent kinetic energy, m**2/s**2
 5 - dissipation rate, m**2/s**3
 6 - kinematic heat conductance, m**2/s
 7 - modulus of horizontal velocity, m/s
 8 - Richardson number, n/d
   -0.000000   -0.00000  0.2883E-09  0.1219E-13  0.7603E-17  0.1000E-09  0.0000E+00  0.1222E+17
   -0.068746    0.18810  0.1198E-09  0.1219E-13  0.7603E-17  0.1000E-09  0.0000E+00  0.1093E+17
   -0.137492    0.36517  0.8115E-10  0.1219E-13  0.7603E-17  0.1000E-09  0.0000E+00  0.9453E+16
   -0.206239    0.52604  0.7610E-10  0.1219E-13  0.7603E-17  0.1000E-09  0.0000E+00  0.8055E+16
   -0.274987    0.66965  0.7559E-10  0.1219E-13  0.7603E-17  0.1000E-09  0.0000E+00  0.6785E+16
   -0.343735    0.79592  0.7554E-10  0.1219E-13  0.7603E-17  0.1000E-09  0.0000E+00  0.5823E+16
   -0.412484    0.90864  0.7553E-10  0.1219E-13  0.7603E-17  0.1000E-09  0.0000E+00  0.4962E+16
   -0.481233    1.00825  0.7552E-10  0.1219E-13  0.7603E-17  0.1000E-09  0.0000E+00  0.4208E+16
   -0.549982    1.09554  0.7552E-10  0.1219E-13  0.7603E-17  0.1000E-09  0.0000E+00  0.3701E+16
   -0.618733    1.17467  0.7552E-10  0.1219E-13  0.7603E-17  0.1000E-09  0.0000E+00  0.3440E+16
   -0.687483    1.25037  0.7552E-10  0.1219E-13  0.7603E-17  0.1000E-09  0.0000E+00  0.3289E+16
   -0.756234    1.32486  0.7552E-10  0.1219E-13  0.7603E-17  0.1000E-09  0.0000E+00  0.3348E+16
   -0.824985    1.40298  0.7552E-10  0.5455E-13  0.1114E-16  0.1000E-09  0.0000E+00  0.3486E+16
   -0.893736    1.48705  0.7552E-10  0.1676E-12  0.2819E-16  0.1000E-09  0.0000E+00  0.3691E+16
   -0.962488    1.57938  0.7549E-10  0.4596E-12  0.7336E-16  0.1000E-09  0.0000E+00  0.3942E+16
   -1.031239    1.68225  0.7539E-10  0.1217E-11  0.1880E-15  0.1000E-09  0.0000E+00  0.4191E+16
   -1.099991    1.79711  0.7517E-10  0.3182E-11  0.4772E-15  0.1000E-09  0.0000E+00  0.4356E+16
   -1.168743    1.92353  0.7483E-10  0.8221E-11  0.1198E-14  0.1000E-09  0.0000E+00  0.4504E+16
   -1.237496    2.06326  0.7441E-10  0.2099E-10  0.2971E-14  0.1000E-09  0.0000E+00  0.4600E+16
   -1.306248    2.21772  0.7402E-10  0.5296E-10  0.7290E-14  0.1000E-09  0.0000E+00  0.4613E+16
   -1.375000    2.38800  0.7376E-10  0.1321E-09  0.1769E-13  0.1000E-09  0.0000E+00  0.4551E+16
   -1.443753    2.57656  0.7357E-10  0.3261E-09  0.4246E-13  0.1000E-09  0.0000E+00  0.4384E+16
   -1.512505    2.78661  0.7333E-10  0.7960E-09  0.1009E-12  0.1285E-09  0.0000E+00  0.3997E+16
   -1.581257    3.01796  0.7294E-10  0.1922E-08  0.2371E-12  0.3587E-09  0.0000E+00  0.3369E+16
   -1.650009    3.26981  0.7243E-10  0.4592E-08  0.5517E-12  0.1130E-08  0.0000E+00  0.2489E+16
   -1.718761    3.54066  0.7193E-10  0.1083E-07  0.1268E-11  0.4768E-08  0.0000E+00  0.1359E+16
   -1.787513    3.82495  0.7161E-10  0.2426E-07  0.2782E-11  0.7779E-07  0.0000E+00  0.1910E+15
   -1.856264    4.03019  0.7158E-10  0.2578E-07  0.2966E-11  0.9018E-04  0.0000E+00 -0.3456E+12
   -1.925016    4.03069  0.7158E-10  0.2637E-07  0.3056E-11  0.9119E-04  0.0000E+00 -0.3508E+12
   -1.993767    4.03119  0.7158E-10  0.2680E-07  0.3145E-11  0.9127E-04  0.0000E+00 -0.3599E+12
   -2.062518    4.03170  0.7158E-10  0.2713E-07  0.3242E-11  0.9072E-04  0.0000E+00 -0.3714E+12
   -2.131268    4.03222  0.7158E-10  0.2739E-07  0.3359E-11  0.8925E-04  0.0000E+00 -0.3877E+12
   -2.200018    4.03276  0.7158E-10  0.2758E-07  0.3509E-11  0.8676E-04  0.0000E+00 -0.4108E+12
   -2.268768    4.03332  0.7158E-10  0.2767E-07  0.3713E-11  0.8147E-04  0.0000E+00 -0.4529E+12
   -2.337517    4.03393  0.7158E-10  0.2762E-07  0.3998E-11  0.6991E-04  0.0000E+00 -0.5501E+12
   -2.406265    4.03466  0.7158E-10  0.2736E-07  0.4407E-11  0.5827E-04  0.0000E+00 -0.6958E+12
   -2.475014    4.03557  0.7158E-10  0.2677E-07  0.5044E-11  0.4630E-04  0.0000E+00 -0.9405E+12
   -2.543761    4.03678  0.7158E-10  0.2554E-07  0.6198E-11  0.3189E-04  0.0000E+00 -0.1496E+13
   -2.612508    4.03864  0.7158E-10  0.2294E-07  0.8754E-11  0.1595E-04  0.0000E+00 -0.3361E+13
   -2.681255    4.04259  0.7158E-10  0.1214E-07  0.2393E-10  0.1228E-05  0.0000E+00 -0.6558E+14
   -2.750000    4.09379  0.7158E-10  0.0000E+00  0.0000E+00  0.0000E+00  0.0000E+00  0.0000E+00
