 1 - depth, m
 2 - temperature, C
 3 - salinity, kg/kg
 4 - turbulent kinetic energy, m**2/s**2
 5 - dissipation rate, m**2/s**3
 6 - kinematic heat conductance, m**2/s
 7 - modulus of horizontal velocity, m/s
 8 - Richardson number, n/d
   -0.000000   -0.00000  0.2958E-09  0.1219E-13  0.7603E-17  0.1000E-09  0.0000E+00  0.9040E+16
   -0.068746    0.13817  0.1523E-09  0.1219E-13  0.7603E-17  0.1000E-09  0.0000E+00  0.8390E+16
   -0.137492    0.27131  0.9902E-10  0.1219E-13  0.7603E-17  0.1000E-09  0.0000E+00  0.7621E+16
   -0.206239    0.39681  0.8754E-10  0.1219E-13  0.7603E-17  0.1000E-09  0.0000E+00  0.6872E+16
   -0.274986    0.51409  0.8578E-10  0.1219E-13  0.7603E-17  0.1000E-09  0.0000E+00  0.6165E+16
   -0.343734    0.62302  0.8556E-10  0.1219E-13  0.7603E-17  0.1000E-09  0.0000E+00  0.5596E+16
   -0.412483    0.72521  0.8554E-10  0.1219E-13  0.7603E-17  0.1000E-09  0.0000E+00  0.5064E+16
   -0.481232    0.82068  0.8553E-10  0.1219E-13  0.7603E-17  0.1000E-09  0.0000E+00  0.4574E+16
   -0.549982    0.90961  0.8553E-10  0.1219E-13  0.7603E-17  0.1000E-09  0.0000E+00  0.4199E+16
   -0.618732    0.99369  0.8553E-10  0.1219E-13  0.7603E-17  0.1000E-09  0.0000E+00  0.3939E+16
   -0.687482    1.07489  0.8553E-10  0.1219E-13  0.7603E-17  0.1000E-09  0.0000E+00  0.3727E+16
   -0.756232    1.15397  0.8553E-10  0.1219E-13  0.7603E-17  0.1000E-09  0.0000E+00  0.3633E+16
   -0.824983    1.23336  0.8553E-10  0.1219E-13  0.7603E-17  0.1000E-09  0.0000E+00  0.3570E+16
   -0.893735    1.31376  0.8553E-10  0.1219E-13  0.7603E-17  0.1000E-09  0.0000E+00  0.3532E+16
   -0.962486    1.39587  0.8552E-10  0.1219E-13  0.7603E-17  0.1000E-09  0.0000E+00  0.3514E+16
   -1.031238    1.48035  0.8550E-10  0.1219E-13  0.7603E-17  0.1000E-09  0.0000E+00  0.3499E+16
   -1.099990    1.56753  0.8544E-10  0.1219E-13  0.7603E-17  0.1000E-09  0.0000E+00  0.3460E+16
   -1.168742    1.65707  0.8531E-10  0.1219E-13  0.7603E-17  0.1000E-09  0.0000E+00  0.3424E+16
   -1.237494    1.74936  0.8506E-10  0.1219E-13  0.7603E-17  0.1000E-09  0.0000E+00  0.3385E+16
   -1.306246    1.84465  0.8467E-10  0.1219E-13  0.7603E-17  0.1000E-09  0.0000E+00  0.3337E+16
   -1.374998    1.94309  0.8418E-10  0.1219E-13  0.7603E-17  0.1000E-09  0.0000E+00  0.3300E+16
   -1.443750    2.04551  0.8371E-10  0.1219E-13  0.7603E-17  0.1000E-09  0.0000E+00  0.3281E+16
   -1.512502    2.15318  0.8331E-10  0.1219E-13  0.7603E-17  0.1000E-09  0.0000E+00  0.3227E+16
   -1.581254    2.26588  0.8290E-10  0.1219E-13  0.7603E-17  0.1000E-09  0.0000E+00  0.3136E+16
   -1.650006    2.38319  0.8242E-10  0.1219E-13  0.7603E-17  0.1000E-09  0.0000E+00  0.3006E+16
   -1.718758    2.50456  0.8194E-10  0.1219E-13  0.7603E-17  0.1000E-09  0.0000E+00  0.2837E+16
   -1.787510    2.62930  0.8158E-10  0.1219E-13  0.7603E-17  0.1000E-09  0.0000E+00  0.2633E+16
   -1.856261    2.75661  0.8139E-10  0.1901E-13  0.8607E-17  0.1000E-09  0.0000E+00  0.2398E+16
   -1.925013    2.88557  0.8132E-10  0.8098E-13  0.3294E-16  0.1000E-09  0.0000E+00  0.2139E+16
   -1.993764    3.01522  0.8125E-10  0.3546E-12  0.1378E-15  0.1000E-09  0.0000E+00  0.1864E+16
   -2.062514    3.14459  0.8122E-10  0.1527E-11  0.5694E-15  0.1000E-09  0.0000E+00  0.1631E+16
   -2.131265    3.27718  0.8121E-10  0.6574E-11  0.2354E-14  0.1000E-09  0.0000E+00  0.1399E+16
   -2.200014    3.41526  0.8121E-10  0.2780E-10  0.9569E-14  0.1000E-09  0.0000E+00  0.1137E+16
   -2.268764    3.55964  0.8121E-10  0.1156E-09  0.3827E-13  0.2306E-09  0.0000E+00  0.8400E+15
   -2.337513    3.71171  0.8121E-10  0.4731E-09  0.1508E-12  0.1549E-08  0.0000E+00  0.4912E+15
   -2.406262    3.87278  0.8121E-10  0.1879E-08  0.5790E-12  0.3061E-07  0.0000E+00  0.9270E+14
   -2.475010    4.01915  0.8121E-10  0.4696E-08  0.1463E-11  0.5660E-05  0.0000E+00 -0.2770E+13
   -2.543757    4.02416  0.8121E-10  0.5746E-08  0.2173E-11  0.5400E-05  0.0000E+00 -0.3973E+13
   -2.612504    4.03036  0.8121E-10  0.6031E-08  0.3514E-11  0.3361E-05  0.0000E+00 -0.8989E+13
   -2.681250    4.04188  0.8121E-10  0.4558E-08  0.8991E-11  0.6210E-06  0.0000E+00 -0.9069E+14
   -2.749996    4.10748  0.8121E-10  0.0000E+00  0.0000E+00  0.0000E+00  0.0000E+00  0.0000E+00
