 1 - depth, m
 2 - temperature, C
 3 - salinity, kg/kg
 4 - turbulent kinetic energy, m**2/s**2
 5 - dissipation rate, m**2/s**3
 6 - kinematic heat conductance, m**2/s
 7 - modulus of horizontal velocity, m/s
 8 - Richardson number, n/d
   -0.000000   -0.00000  0.3423E-09  0.3250E-12  0.5547E-16  0.1000E-09  0.0000E+00  0.1607E+17
   -0.068746    0.24941  0.1783E-09  0.6789E-12  0.6362E-16  0.1000E-09  0.0000E+00  0.1493E+17
   -0.137492    0.49815  0.1012E-09  0.1448E-11  0.1075E-15  0.1000E-09  0.0000E+00  0.1370E+17
   -0.206239    0.74419  0.7619E-10  0.2924E-11  0.2000E-15  0.1000E-09  0.0000E+00  0.1249E+17
   -0.274987    0.98712  0.6951E-10  0.5718E-11  0.3765E-15  0.1000E-09  0.0000E+00  0.1132E+17
   -0.343735    1.22657  0.6786E-10  0.1097E-10  0.7036E-15  0.1000E-09  0.0000E+00  0.1019E+17
   -0.412483    1.46258  0.6747E-10  0.2080E-10  0.1304E-14  0.1000E-09  0.0000E+00  0.9107E+16
   -0.481233    1.69487  0.6738E-10  0.3911E-10  0.2400E-14  0.1000E-09  0.0000E+00  0.8065E+16
   -0.549982    1.92318  0.6735E-10  0.7305E-10  0.4389E-14  0.1000E-09  0.0000E+00  0.7077E+16
   -0.618732    2.14763  0.6733E-10  0.1351E-09  0.7949E-14  0.1000E-09  0.0000E+00  0.6144E+16
   -0.687482    2.36839  0.6728E-10  0.2479E-09  0.1429E-13  0.1000E-09  0.0000E+00  0.5257E+16
   -0.756233    2.58544  0.6716E-10  0.4521E-09  0.2554E-13  0.1000E-09  0.0000E+00  0.4435E+16
   -0.824984    2.79982  0.6691E-10  0.8194E-09  0.4536E-13  0.1000E-09  0.0000E+00  0.3645E+16
   -0.893736    3.01149  0.6646E-10  0.1476E-08  0.8009E-13  0.1412E-09  0.0000E+00  0.2888E+16
   -0.962487    3.22037  0.6585E-10  0.2643E-08  0.1406E-12  0.3311E-09  0.0000E+00  0.2161E+16
   -1.031239    3.42627  0.6527E-10  0.4705E-08  0.2453E-12  0.8515E-09  0.0000E+00  0.1467E+16
   -1.099991    3.62884  0.6493E-10  0.8340E-08  0.4265E-12  0.2699E-08  0.0000E+00  0.8045E+15
   -1.168743    3.82662  0.6481E-10  0.1461E-07  0.7333E-12  0.1887E-07  0.0000E+00  0.1980E+15
   -1.237495    4.00260  0.6480E-10  0.1499E-07  0.7536E-12  0.1178E-03  0.0000E+00 -0.6112E+11
   -1.306247    4.00284  0.6480E-10  0.1515E-07  0.7638E-12  0.1158E-03  0.0000E+00 -0.6305E+11
   -1.374999    4.00308  0.6480E-10  0.1528E-07  0.7740E-12  0.1160E-03  0.0000E+00 -0.6382E+11
   -1.443752    4.00332  0.6480E-10  0.1540E-07  0.7851E-12  0.1162E-03  0.0000E+00 -0.6469E+11
   -1.512504    4.00356  0.6480E-10  0.1551E-07  0.7972E-12  0.1160E-03  0.0000E+00 -0.6573E+11
   -1.581256    4.00380  0.6480E-10  0.1560E-07  0.8104E-12  0.1155E-03  0.0000E+00 -0.6698E+11
   -1.650008    4.00405  0.6480E-10  0.1568E-07  0.8248E-12  0.1147E-03  0.0000E+00 -0.6844E+11
   -1.718760    4.00429  0.6480E-10  0.1575E-07  0.8405E-12  0.1136E-03  0.0000E+00 -0.7014E+11
   -1.787512    4.00454  0.6480E-10  0.1579E-07  0.8577E-12  0.1121E-03  0.0000E+00 -0.7212E+11
   -1.856263    4.00479  0.6480E-10  0.1583E-07  0.8765E-12  0.1103E-03  0.0000E+00 -0.7442E+11
   -1.925015    4.00504  0.6480E-10  0.1585E-07  0.8974E-12  0.1082E-03  0.0000E+00 -0.7708E+11
   -1.993766    4.00530  0.6480E-10  0.1585E-07  0.9213E-12  0.1056E-03  0.0000E+00 -0.8022E+11
   -2.062516    4.00557  0.6480E-10  0.1583E-07  0.9507E-12  0.1023E-03  0.0000E+00 -0.8425E+11
   -2.131267    4.00585  0.6480E-10  0.1577E-07  0.9896E-12  0.9553E-04  0.0000E+00 -0.9209E+11
   -2.200017    4.00615  0.6480E-10  0.1568E-07  0.1041E-11  0.8306E-04  0.0000E+00 -0.1084E+12
   -2.268766    4.00649  0.6480E-10  0.1554E-07  0.1109E-11  0.7126E-04  0.0000E+00 -0.1300E+12
   -2.337515    4.00690  0.6480E-10  0.1533E-07  0.1203E-11  0.6080E-04  0.0000E+00 -0.1578E+12
   -2.406264    4.00738  0.6480E-10  0.1502E-07  0.1340E-11  0.5020E-04  0.0000E+00 -0.1997E+12
   -2.475012    4.00798  0.6480E-10  0.1453E-07  0.1556E-11  0.3832E-04  0.0000E+00 -0.2775E+12
   -2.543760    4.00878  0.6480E-10  0.1369E-07  0.1964E-11  0.2472E-04  0.0000E+00 -0.4657E+12
   -2.612507    4.01007  0.6480E-10  0.1206E-07  0.2913E-11  0.1125E-04  0.0000E+00 -0.1153E+13
   -2.681253    4.01299  0.6480E-10  0.5604E-08  0.8754E-11  0.6446E-06  0.0000E+00 -0.3450E+14
   -2.749999    4.05786  0.6480E-10  0.0000E+00  0.0000E+00  0.0000E+00  0.0000E+00  0.0000E+00
