 1 - depth, m
 2 - temperature, C
 3 - salinity, kg/kg
 4 - turbulent kinetic energy, m**2/s**2
 5 - dissipation rate, m**2/s**3
 6 - kinematic heat conductance, m**2/s
 7 - modulus of horizontal velocity, m/s
 8 - Richardson number, n/d
   -0.000000    0.87262  0.6449E-10  0.9414E-03  0.1413E-02  0.1842E-03  0.3730E+00 -0.3773E-02
   -0.068746    0.89924  0.6450E-10  0.4951E-03  0.3298E-03  0.5433E-03  0.1031E+00  0.3118E-01
   -0.137493    0.90394  0.6450E-10  0.3612E-03  0.1577E-03  0.4909E-03  0.8042E-01  0.9151E-02
   -0.206240    0.90765  0.6450E-10  0.2688E-03  0.8100E-04  0.4530E-03  0.6867E-01  0.1645E-01
   -0.274988    0.91045  0.6451E-10  0.2117E-03  0.4696E-04  0.4453E-03  0.6053E-01  0.9394E-02
   -0.343737    0.91274  0.6451E-10  0.1715E-03  0.2734E-04  0.4385E-03  0.5483E-01  0.5889E-02
   -0.412486    0.91489  0.6451E-10  0.1408E-03  0.1578E-04  0.4487E-03  0.4933E-01  0.2435E-01
   -0.481236    0.91690  0.6451E-10  0.1190E-03  0.9283E-05  0.4728E-03  0.4467E-01  0.1989E-01
   -0.549986    0.91879  0.6451E-10  0.1034E-03  0.5590E-05  0.4990E-03  0.4095E-01  0.1163E-01
   -0.618736    0.92061  0.6451E-10  0.9226E-04  0.3508E-05  0.5229E-03  0.3772E-01  0.1256E-01
   -0.687487    0.92239  0.6451E-10  0.8391E-04  0.2323E-05  0.5512E-03  0.3472E-01  0.1443E-01
   -0.756238    0.92412  0.6451E-10  0.7749E-04  0.1634E-05  0.5794E-03  0.3205E-01  0.1680E-01
   -0.824990    0.92580  0.6451E-10  0.7240E-04  0.1216E-05  0.6060E-03  0.2966E-01  0.1939E-01
   -0.893741    0.92747  0.6451E-10  0.6821E-04  0.9487E-06  0.6289E-03  0.2750E-01  0.2213E-01
   -0.962493    0.92914  0.6451E-10  0.6456E-04  0.7676E-06  0.6461E-03  0.2550E-01  0.2469E-01
   -1.031245    0.93084  0.6451E-10  0.6118E-04  0.6372E-06  0.6599E-03  0.2363E-01  0.2804E-01
   -1.099998    0.93260  0.6451E-10  0.5790E-04  0.5382E-06  0.6811E-03  0.2188E-01  0.3659E-01
   -1.168750    0.93442  0.6451E-10  0.5479E-04  0.4611E-06  0.6949E-03  0.2032E-01  0.4699E-01
   -1.237503    0.93631  0.6451E-10  0.5185E-04  0.3997E-06  0.7026E-03  0.1889E-01  0.6004E-01
   -1.306255    0.93834  0.6451E-10  0.4906E-04  0.3497E-06  0.7050E-03  0.1757E-01  0.7678E-01
   -1.375008    0.94053  0.6451E-10  0.4642E-04  0.3083E-06  0.7023E-03  0.1635E-01  0.9869E-01
   -1.443761    0.94294  0.6451E-10  0.4391E-04  0.2737E-06  0.6948E-03  0.1522E-01  0.1281E+00
   -1.512514    0.94566  0.6451E-10  0.4153E-04  0.2445E-06  0.6826E-03  0.1415E-01  0.1697E+00
   -1.581266    0.94879  0.6451E-10  0.3926E-04  0.2197E-06  0.6659E-03  0.1314E-01  0.2320E+00
   -1.650019    0.95257  0.6451E-10  0.3710E-04  0.1984E-06  0.6450E-03  0.1218E-01  0.3347E+00
   -1.718771    0.95745  0.6451E-10  0.3503E-04  0.1801E-06  0.6202E-03  0.1125E-01  0.5288E+00
   -1.787523    0.96478  0.6451E-10  0.3303E-04  0.1643E-06  0.5920E-03  0.1036E-01  0.7385E+00
   -1.856275    1.00467  0.6452E-10  0.3101E-04  0.1501E-06  0.5629E-03  0.9338E-02  0.1390E+01
   -1.925027    1.12651  0.6454E-10  0.2906E-04  0.1377E-06  0.5324E-03  0.8198E-02  0.5439E+01
   -1.993778    1.28956  0.6456E-10  0.2721E-04  0.1269E-06  0.4978E-03  0.7041E-02  0.6268E+02
   -2.062529    1.45745  0.6458E-10  0.2533E-04  0.1165E-06  0.4790E-03  0.5862E-02  0.8725E+04
   -2.131280    1.64998  0.6460E-10  0.2343E-04  0.1069E-06  0.4597E-03  0.4935E-02  0.2467E+07
   -2.200031    1.90279  0.6462E-10  0.2148E-04  0.9788E-07  0.4364E-03  0.4147E-02  0.7630E+09
   -2.268781    2.33065  0.6464E-10  0.1987E-04  0.9127E-07  0.4174E-03  0.3404E-02  0.2269E+12
   -2.337530    2.43905  0.6464E-10  0.1837E-04  0.8687E-07  0.3837E-03  0.3010E-02  0.2341E+14
   -2.406279    2.54821  0.6465E-10  0.1680E-04  0.8446E-07  0.3408E-03  0.2644E-02 -0.1989E+15
   -2.475028    2.73165  0.6465E-10  0.1507E-04  0.8549E-07  0.2865E-03  0.2304E-02 -0.1052E+16
   -2.543776    2.93969  0.6466E-10  0.1300E-04  0.9449E-07  0.2155E-03  0.1998E-02 -0.2001E+16
   -2.612523    3.16049  0.6466E-10  0.1040E-04  0.1274E-06  0.1308E-03  0.1745E-02 -0.3108E+16
   -2.681270    3.36577  0.6467E-10  0.4389E-05  0.3581E-06  0.1354E-04  0.1512E-02 -0.3758E+16
   -2.750016    3.60930  0.6467E-10  0.0000E+00  0.0000E+00  0.0000E+00  0.1505E-02  0.0000E+00
