 1 - depth, m
 2 - temperature, C
 3 - salinity, kg/kg
 4 - turbulent kinetic energy, m**2/s**2
 5 - dissipation rate, m**2/s**3
 6 - kinematic heat conductance, m**2/s
 7 - modulus of horizontal velocity, m/s
 8 - Richardson number, n/d
   -0.000000   14.45920  0.7180E-10  0.9651E-04  0.4286E-04  0.6653E-04  0.8435E-01 -0.2140E-02
   -0.068746   14.48525  0.7180E-10  0.5237E-04  0.1235E-04  0.1084E-03  0.3272E-01 -0.2226E-01
   -0.137492   14.49124  0.7180E-10  0.3731E-04  0.3679E-05  0.1182E-03  0.2437E-01 -0.3122E-01
   -0.206239   14.49539  0.7180E-10  0.2824E-04  0.1386E-05  0.1360E-03  0.1948E-01 -0.4998E-01
   -0.274987   14.49852  0.7180E-10  0.2241E-04  0.6309E-06  0.1605E-03  0.1603E-01 -0.7660E-01
   -0.343735   14.50097  0.7180E-10  0.1875E-04  0.3351E-06  0.1887E-03  0.1350E-01 -0.1029E+00
   -0.412483   14.50297  0.7180E-10  0.1627E-04  0.2005E-06  0.2315E-03  0.1149E-01 -0.7974E-01
   -0.481233   14.50457  0.7180E-10  0.1456E-04  0.1319E-06  0.3291E-03  0.9908E-02  0.4836E+02
   -0.549982   14.50581  0.7180E-10  0.1339E-04  0.9387E-07  0.3834E-03  0.8706E-02  0.1142E+02
   -0.618732   14.50686  0.7180E-10  0.1257E-04  0.7113E-07  0.4472E-03  0.7731E-02  0.1126E+02
   -0.687483   14.50776  0.7180E-10  0.1195E-04  0.5639E-07  0.5249E-03  0.6907E-02  0.1150E+02
   -0.756233   14.50854  0.7180E-10  0.1147E-04  0.4627E-07  0.6248E-03  0.6206E-02  0.2399E+02
   -0.824984   14.50921  0.7180E-10  0.1108E-04  0.3903E-07  0.7395E-03  0.5607E-02  0.1220E+02
   -0.893736   14.50978  0.7180E-10  0.1076E-04  0.3368E-07  0.8750E-03  0.5087E-02  0.2761E+02
   -0.962487   14.51026  0.7180E-10  0.1049E-04  0.2961E-07  0.1014E-02  0.4631E-02  0.6543E+02
   -1.031239   14.51066  0.7180E-10  0.1027E-04  0.2644E-07  0.1152E-02  0.4223E-02  0.1380E+03
   -1.099991   14.51100  0.7180E-10  0.1007E-04  0.2389E-07  0.1268E-02  0.3853E-02  0.1596E+02
   -1.168743   14.51129  0.7180E-10  0.9892E-05  0.2179E-07  0.1335E-02  0.3522E-02  0.1627E+02
   -1.237495   14.51157  0.7180E-10  0.9728E-05  0.2002E-07  0.1377E-02  0.3217E-02  0.5824E+01
   -1.306247   14.51185  0.7180E-10  0.9575E-05  0.1851E-07  0.1411E-02  0.2935E-02  0.4581E+01
   -1.374999   14.51212  0.7180E-10  0.9429E-05  0.1723E-07  0.1441E-02  0.2672E-02  0.4116E+01
   -1.443752   14.51240  0.7180E-10  0.9287E-05  0.1614E-07  0.1470E-02  0.2427E-02  0.3774E+01
   -1.512504   14.51268  0.7180E-10  0.9148E-05  0.1522E-07  0.1496E-02  0.2199E-02  0.3501E+01
   -1.581256   14.51296  0.7180E-10  0.9010E-05  0.1446E-07  0.1515E-02  0.1985E-02  0.3274E+01
   -1.650008   14.51325  0.7180E-10  0.8869E-05  0.1383E-07  0.1526E-02  0.1785E-02  0.3076E+01
   -1.718760   14.51354  0.7180E-10  0.8724E-05  0.1333E-07  0.1530E-02  0.1597E-02  0.2901E+01
   -1.787512   14.51384  0.7180E-10  0.8573E-05  0.1294E-07  0.1528E-02  0.1420E-02  0.2744E+01
   -1.856263   14.51415  0.7180E-10  0.8416E-05  0.1267E-07  0.1518E-02  0.1254E-02  0.2602E+01
   -1.925015   14.51447  0.7180E-10  0.8249E-05  0.1252E-07  0.1498E-02  0.1098E-02  0.2473E+01
   -1.993766   14.51480  0.7180E-10  0.8074E-05  0.1247E-07  0.1473E-02  0.9491E-03  0.2345E+01
   -2.062516   14.51515  0.7180E-10  0.7891E-05  0.1253E-07  0.1465E-02  0.8088E-03  0.1937E+01
   -2.131267   14.51550  0.7180E-10  0.7701E-05  0.1272E-07  0.1435E-02  0.6873E-03  0.1563E+01
   -2.200017   14.51587  0.7180E-10  0.7511E-05  0.1303E-07  0.1342E-02  0.5875E-03  0.1353E+01
   -2.268766   14.51627  0.7180E-10  0.7325E-05  0.1349E-07  0.1233E-02  0.5073E-03  0.1304E+01
   -2.337515   14.51671  0.7180E-10  0.7140E-05  0.1413E-07  0.1130E-02  0.4435E-03  0.1507E+01
   -2.406264   14.51721  0.7180E-10  0.6937E-05  0.1504E-07  0.1020E-02  0.3933E-03  0.2390E+01
   -2.475012   14.51776  0.7180E-10  0.6683E-05  0.1652E-07  0.8791E-03  0.3493E-03  0.4905E+01
   -2.543760   14.51842  0.7180E-10  0.6327E-05  0.1921E-07  0.6831E-03  0.3100E-03  0.1448E+02
   -2.612507   14.51927  0.7180E-10  0.5815E-05  0.2446E-07  0.5203E-03  0.2751E-03  0.6960E+02
   -2.681253   14.52043  0.7180E-10  0.2885E-05  0.7210E-07  0.1839E-04  0.2480E-03 -0.1285E+05
   -2.749999   14.55377  0.7180E-10  0.0000E+00  0.0000E+00  0.0000E+00  0.2471E-03  0.0000E+00
