 1 - depth, m
 2 - temperature, C
 3 - salinity, kg/kg
 4 - turbulent kinetic energy, m**2/s**2
 5 - dissipation rate, m**2/s**3
 6 - kinematic heat conductance, m**2/s
 7 - modulus of horizontal velocity, m/s
 8 - Richardson number, n/d
   -0.000000   -0.00000  0.1502E-09  0.1219E-13  0.7603E-17  0.1000E-09  0.0000E+00  0.1312E+17
   -0.068746    0.20236  0.1828E-09  0.1219E-13  0.7603E-17  0.1000E-09  0.0000E+00  0.1242E+17
   -0.137492    0.40515  0.1517E-09  0.3666E-13  0.7603E-17  0.1000E-09  0.0000E+00  0.1163E+17
   -0.206239    0.60670  0.1104E-09  0.1105E-12  0.1003E-16  0.1000E-09  0.0000E+00  0.1084E+17
   -0.274987    0.80675  0.8618E-10  0.2506E-12  0.1797E-16  0.1000E-09  0.0000E+00  0.1006E+17
   -0.343735    1.00505  0.7607E-10  0.5084E-12  0.3373E-16  0.1000E-09  0.0000E+00  0.9306E+16
   -0.412484    1.20170  0.7267E-10  0.9861E-12  0.6305E-16  0.1000E-09  0.0000E+00  0.8560E+16
   -0.481233    1.39641  0.7167E-10  0.1875E-11  0.1168E-15  0.1000E-09  0.0000E+00  0.7827E+16
   -0.549983    1.58888  0.7140E-10  0.3524E-11  0.2146E-15  0.1000E-09  0.0000E+00  0.7119E+16
   -0.618733    1.77909  0.7132E-10  0.6547E-11  0.3902E-15  0.1000E-09  0.0000E+00  0.6438E+16
   -0.687483    1.96707  0.7127E-10  0.1206E-10  0.7040E-15  0.1000E-09  0.0000E+00  0.5774E+16
   -0.756234    2.15258  0.7120E-10  0.2208E-10  0.1262E-14  0.1000E-09  0.0000E+00  0.5144E+16
   -0.824985    2.33589  0.7106E-10  0.4014E-10  0.2247E-14  0.1000E-09  0.0000E+00  0.4531E+16
   -0.893736    2.51675  0.7083E-10  0.7253E-10  0.3976E-14  0.1000E-09  0.0000E+00  0.3939E+16
   -0.962488    2.69495  0.7047E-10  0.1302E-09  0.6994E-14  0.1000E-09  0.0000E+00  0.3370E+16
   -1.031240    2.87030  0.7000E-10  0.2324E-09  0.1223E-13  0.1000E-09  0.0000E+00  0.2826E+16
   -1.099992    3.04262  0.6950E-10  0.4134E-09  0.2132E-13  0.1000E-09  0.0000E+00  0.2306E+16
   -1.168744    3.21160  0.6908E-10  0.7323E-09  0.3701E-13  0.1045E-09  0.0000E+00  0.1814E+16
   -1.237496    3.37717  0.6881E-10  0.1290E-08  0.6393E-13  0.2408E-09  0.0000E+00  0.1352E+16
   -1.306248    3.53918  0.6868E-10  0.2261E-08  0.1098E-12  0.6094E-09  0.0000E+00  0.9176E+15
   -1.375000    3.69742  0.6863E-10  0.3937E-08  0.1876E-12  0.1860E-08  0.0000E+00  0.5136E+15
   -1.443753    3.85171  0.6862E-10  0.6785E-08  0.3172E-12  0.1143E-07  0.0000E+00  0.1415E+15
   -1.512505    3.99513  0.6861E-10  0.7147E-08  0.3350E-12  0.5163E-04  0.0000E+00 -0.5950E+11
   -1.581257    3.99555  0.6861E-10  0.7317E-08  0.3450E-12  0.5303E-04  0.0000E+00 -0.6053E+11
   -1.650009    3.99596  0.6861E-10  0.7470E-08  0.3559E-12  0.5394E-04  0.0000E+00 -0.6202E+11
   -1.718761    3.99636  0.6861E-10  0.7607E-08  0.3677E-12  0.5436E-04  0.0000E+00 -0.6400E+11
   -1.787513    3.99676  0.6861E-10  0.7727E-08  0.3807E-12  0.5430E-04  0.0000E+00 -0.6653E+11
   -1.856265    3.99716  0.6861E-10  0.7831E-08  0.3949E-12  0.5376E-04  0.0000E+00 -0.6971E+11
   -1.925016    3.99756  0.6861E-10  0.7917E-08  0.4106E-12  0.5274E-04  0.0000E+00 -0.7366E+11
   -1.993767    3.99797  0.6861E-10  0.7985E-08  0.4281E-12  0.5125E-04  0.0000E+00 -0.7857E+11
   -2.062518    3.99840  0.6861E-10  0.8034E-08  0.4482E-12  0.4940E-04  0.0000E+00 -0.8491E+11
   -2.131268    3.99884  0.6861E-10  0.8064E-08  0.4726E-12  0.4696E-04  0.0000E+00 -0.9347E+11
   -2.200018    3.99930  0.6861E-10  0.8070E-08  0.5030E-12  0.4381E-04  0.0000E+00 -0.1053E+12
   -2.268768    3.99981  0.6861E-10  0.8046E-08  0.5423E-12  0.3988E-04  0.0000E+00 -0.1222E+12
   -2.337517    4.00038  0.6861E-10  0.7980E-08  0.5953E-12  0.3508E-04  0.0000E+00 -0.1482E+12
   -2.406266    4.00104  0.6861E-10  0.7853E-08  0.6718E-12  0.2931E-04  0.0000E+00 -0.1919E+12
   -2.475014    4.00185  0.6861E-10  0.7620E-08  0.7936E-12  0.2247E-04  0.0000E+00 -0.2778E+12
   -2.543762    4.00295  0.6861E-10  0.7169E-08  0.1025E-11  0.1434E-04  0.0000E+00 -0.4997E+12
   -2.612509    4.00477  0.6861E-10  0.6213E-08  0.1582E-11  0.6164E-05  0.0000E+00 -0.1435E+13
   -2.681255    4.00920  0.6861E-10  0.3080E-08  0.4541E-11  0.4440E-06  0.0000E+00 -0.4003E+14
   -2.750001    4.06140  0.6861E-10  0.0000E+00  0.0000E+00  0.0000E+00  0.0000E+00  0.0000E+00
