 1 - depth, m
 2 - temperature, C
 3 - salinity, kg/kg
 4 - turbulent kinetic energy, m**2/s**2
 5 - dissipation rate, m**2/s**3
 6 - kinematic heat conductance, m**2/s
 7 - modulus of horizontal velocity, m/s
 8 - Richardson number, n/d
   -0.000000   -0.00000  0.1940E-09  0.1679E-13  0.7604E-17  0.1000E-09  0.0000E+00  0.1321E+17
   -0.068746    0.20371  0.1348E-09  0.4208E-13  0.8649E-17  0.1000E-09  0.0000E+00  0.1222E+17
   -0.137492    0.40320  0.8964E-10  0.1240E-12  0.1511E-16  0.1000E-09  0.0000E+00  0.1117E+17
   -0.206239    0.59648  0.7277E-10  0.3127E-12  0.3373E-16  0.1000E-09  0.0000E+00  0.1022E+17
   -0.274986    0.78404  0.6842E-10  0.7389E-12  0.7618E-16  0.1000E-09  0.0000E+00  0.9360E+16
   -0.343735    0.96666  0.6753E-10  0.1695E-11  0.1695E-15  0.1000E-09  0.0000E+00  0.8674E+16
   -0.412483    1.14691  0.6739E-10  0.3825E-11  0.3719E-15  0.1000E-09  0.0000E+00  0.8044E+16
   -0.481232    1.32552  0.6736E-10  0.8522E-11  0.8065E-15  0.1000E-09  0.0000E+00  0.7463E+16
   -0.549982    1.50322  0.6736E-10  0.1877E-10  0.1730E-14  0.1000E-09  0.0000E+00  0.6976E+16
   -0.618732    1.68224  0.6736E-10  0.4073E-10  0.3656E-14  0.1000E-09  0.0000E+00  0.6560E+16
   -0.687482    1.86486  0.6736E-10  0.8735E-10  0.7639E-14  0.1000E-09  0.0000E+00  0.6146E+16
   -0.756233    2.05216  0.6736E-10  0.1853E-09  0.1580E-13  0.1000E-09  0.0000E+00  0.5798E+16
   -0.824984    2.24787  0.6735E-10  0.3891E-09  0.3233E-13  0.1000E-09  0.0000E+00  0.5392E+16
   -0.893735    2.45284  0.6732E-10  0.8085E-09  0.6551E-13  0.1000E-09  0.0000E+00  0.4920E+16
   -0.962486    2.66817  0.6725E-10  0.1663E-08  0.1315E-12  0.1532E-09  0.0000E+00  0.4372E+16
   -1.031238    2.89550  0.6710E-10  0.3388E-08  0.2612E-12  0.3557E-09  0.0000E+00  0.3739E+16
   -1.099990    3.13794  0.6685E-10  0.6853E-08  0.5156E-12  0.8771E-09  0.0000E+00  0.2990E+16
   -1.168742    3.40151  0.6643E-10  0.1374E-07  0.1009E-11  0.2532E-08  0.0000E+00  0.2017E+16
   -1.237494    3.69315  0.6549E-10  0.2709E-07  0.1944E-11  0.1478E-07  0.0000E+00  0.6760E+15
   -1.306246    4.00036  0.6448E-10  0.2896E-07  0.2090E-11  0.1392E-03  0.0000E+00  0.2619E+13
   -1.374998    4.01037  0.6447E-10  0.2927E-07  0.2118E-11  0.1530E-03  0.0000E+00 -0.1299E+12
   -1.443750    4.01071  0.6447E-10  0.2951E-07  0.2145E-11  0.1525E-03  0.0000E+00 -0.1321E+12
   -1.512503    4.01105  0.6447E-10  0.2973E-07  0.2174E-11  0.1526E-03  0.0000E+00 -0.1333E+12
   -1.581255    4.01139  0.6447E-10  0.2991E-07  0.2205E-11  0.1522E-03  0.0000E+00 -0.1347E+12
   -1.650007    4.01173  0.6447E-10  0.3005E-07  0.2239E-11  0.1515E-03  0.0000E+00 -0.1363E+12
   -1.718758    4.01206  0.6447E-10  0.3017E-07  0.2275E-11  0.1503E-03  0.0000E+00 -0.1383E+12
   -1.787510    4.01240  0.6447E-10  0.3025E-07  0.2316E-11  0.1487E-03  0.0000E+00 -0.1407E+12
   -1.856262    4.01274  0.6447E-10  0.3031E-07  0.2360E-11  0.1468E-03  0.0000E+00 -0.1434E+12
   -1.925013    4.01308  0.6447E-10  0.3032E-07  0.2409E-11  0.1440E-03  0.0000E+00 -0.1471E+12
   -1.993764    4.01343  0.6447E-10  0.3031E-07  0.2464E-11  0.1407E-03  0.0000E+00 -0.1515E+12
   -2.062514    4.01378  0.6447E-10  0.3025E-07  0.2527E-11  0.1368E-03  0.0000E+00 -0.1572E+12
   -2.131265    4.01415  0.6447E-10  0.3015E-07  0.2605E-11  0.1316E-03  0.0000E+00 -0.1652E+12
   -2.200015    4.01452  0.6447E-10  0.2999E-07  0.2706E-11  0.1242E-03  0.0000E+00 -0.1771E+12
   -2.268764    4.01492  0.6447E-10  0.2974E-07  0.2848E-11  0.1104E-03  0.0000E+00 -0.2022E+12
   -2.337513    4.01537  0.6447E-10  0.2935E-07  0.3056E-11  0.9077E-04  0.0000E+00 -0.2508E+12
   -2.406262    4.01592  0.6447E-10  0.2876E-07  0.3366E-11  0.7222E-04  0.0000E+00 -0.3238E+12
   -2.475010    4.01661  0.6447E-10  0.2785E-07  0.3867E-11  0.5482E-04  0.0000E+00 -0.4438E+12
   -2.543757    4.01754  0.6447E-10  0.2632E-07  0.4805E-11  0.3599E-04  0.0000E+00 -0.7148E+12
   -2.612504    4.01897  0.6447E-10  0.2345E-07  0.6941E-11  0.1717E-04  0.0000E+00 -0.1630E+13
   -2.681251    4.02203  0.6447E-10  0.1147E-07  0.2079E-10  0.1074E-05  0.0000E+00 -0.4101E+14
   -2.749996    4.06709  0.6447E-10  0.0000E+00  0.0000E+00  0.0000E+00  0.0000E+00  0.0000E+00
