 1 - depth, m
 2 - temperature, C
 3 - salinity, kg/kg
 4 - turbulent kinetic energy, m**2/s**2
 5 - dissipation rate, m**2/s**3
 6 - kinematic heat conductance, m**2/s
 7 - modulus of horizontal velocity, m/s
 8 - Richardson number, n/d
   -0.000000   -0.00000  0.1552E-09  0.1219E-13  0.7603E-17  0.1000E-09  0.0000E+00  0.1163E+17
   -0.068746    0.17870  0.2001E-09  0.1219E-13  0.7603E-17  0.1000E-09  0.0000E+00  0.1111E+17
   -0.137492    0.35814  0.1606E-09  0.1219E-13  0.7603E-17  0.1000E-09  0.0000E+00  0.1049E+17
   -0.206239    0.53677  0.1146E-09  0.1219E-13  0.7603E-17  0.1000E-09  0.0000E+00  0.9871E+16
   -0.274987    0.71430  0.8964E-10  0.1219E-13  0.7603E-17  0.1000E-09  0.0000E+00  0.9252E+16
   -0.343735    0.89045  0.7986E-10  0.1219E-13  0.7603E-17  0.1000E-09  0.0000E+00  0.8654E+16
   -0.412484    1.06535  0.7672E-10  0.1219E-13  0.7603E-17  0.1000E-09  0.0000E+00  0.8058E+16
   -0.481233    1.23869  0.7582E-10  0.1226E-13  0.7603E-17  0.1000E-09  0.0000E+00  0.7466E+16
   -0.549983    1.41020  0.7558E-10  0.3088E-13  0.7603E-17  0.1000E-09  0.0000E+00  0.6894E+16
   -0.618733    1.57989  0.7551E-10  0.9648E-13  0.9825E-17  0.1000E-09  0.0000E+00  0.6342E+16
   -0.687483    1.74781  0.7547E-10  0.2227E-12  0.1801E-16  0.1000E-09  0.0000E+00  0.5801E+16
   -0.756234    1.91375  0.7542E-10  0.4614E-12  0.3487E-16  0.1000E-09  0.0000E+00  0.5287E+16
   -0.824985    2.07799  0.7533E-10  0.9207E-12  0.6766E-16  0.1000E-09  0.0000E+00  0.4784E+16
   -0.893737    2.24031  0.7518E-10  0.1814E-11  0.1308E-15  0.1000E-09  0.0000E+00  0.4293E+16
   -0.962488    2.40048  0.7498E-10  0.3554E-11  0.2523E-15  0.1000E-09  0.0000E+00  0.3816E+16
   -1.031240    2.55830  0.7470E-10  0.6946E-11  0.4852E-15  0.1000E-09  0.0000E+00  0.3355E+16
   -1.099992    2.71353  0.7433E-10  0.1358E-10  0.9335E-15  0.1000E-09  0.0000E+00  0.2909E+16
   -1.168744    2.86581  0.7388E-10  0.2653E-10  0.1794E-14  0.1000E-09  0.0000E+00  0.2484E+16
   -1.237496    3.01492  0.7337E-10  0.5168E-10  0.3437E-14  0.1000E-09  0.0000E+00  0.2080E+16
   -1.306249    3.16059  0.7289E-10  0.1004E-09  0.6563E-14  0.1000E-09  0.0000E+00  0.1697E+16
   -1.375001    3.30237  0.7252E-10  0.1941E-09  0.1248E-13  0.1000E-09  0.0000E+00  0.1339E+16
   -1.443753    3.44000  0.7230E-10  0.3739E-09  0.2363E-13  0.1222E-09  0.0000E+00  0.1007E+16
   -1.512506    3.57291  0.7219E-10  0.7169E-09  0.4454E-13  0.3254E-09  0.0000E+00  0.6956E+15
   -1.581258    3.69897  0.7215E-10  0.1368E-08  0.8350E-13  0.1006E-08  0.0000E+00  0.4205E+15
   -1.650010    3.81577  0.7214E-10  0.2591E-08  0.1555E-12  0.4017E-08  0.0000E+00  0.1956E+15
   -1.718762    3.92160  0.7214E-10  0.4781E-08  0.2827E-12  0.4552E-07  0.0000E+00  0.3128E+14
   -1.787514    4.00055  0.7214E-10  0.5268E-08  0.3131E-12  0.3343E-04  0.0000E+00 -0.1008E+12
   -1.856266    4.00099  0.7214E-10  0.5491E-08  0.3301E-12  0.3416E-04  0.0000E+00 -0.1028E+12
   -1.925017    4.00143  0.7214E-10  0.5684E-08  0.3484E-12  0.3433E-04  0.0000E+00 -0.1064E+12
   -1.993768    4.00188  0.7214E-10  0.5850E-08  0.3685E-12  0.3397E-04  0.0000E+00 -0.1118E+12
   -2.062519    4.00233  0.7214E-10  0.5991E-08  0.3912E-12  0.3339E-04  0.0000E+00 -0.1199E+12
   -2.131269    4.00281  0.7214E-10  0.6113E-08  0.4186E-12  0.3236E-04  0.0000E+00 -0.1318E+12
   -2.200019    4.00331  0.7214E-10  0.6214E-08  0.4525E-12  0.3072E-04  0.0000E+00 -0.1487E+12
   -2.268769    4.00386  0.7214E-10  0.6288E-08  0.4958E-12  0.2844E-04  0.0000E+00 -0.1736E+12
   -2.337518    4.00448  0.7214E-10  0.6327E-08  0.5536E-12  0.2544E-04  0.0000E+00 -0.2125E+12
   -2.406267    4.00522  0.7214E-10  0.6315E-08  0.6359E-12  0.2164E-04  0.0000E+00 -0.2790E+12
   -2.475015    4.00614  0.7214E-10  0.6214E-08  0.7650E-12  0.1694E-04  0.0000E+00 -0.4114E+12
   -2.543763    4.00743  0.7214E-10  0.5926E-08  0.1006E-11  0.1105E-04  0.0000E+00 -0.7571E+12
   -2.612510    4.00961  0.7214E-10  0.5195E-08  0.1573E-11  0.4818E-05  0.0000E+00 -0.2229E+13
   -2.681256    4.01508  0.7214E-10  0.2821E-08  0.4317E-11  0.4278E-06  0.0000E+00 -0.4780E+14
   -2.750002    4.06957  0.7214E-10  0.0000E+00  0.0000E+00  0.0000E+00  0.0000E+00  0.0000E+00
