 1 - depth, m
 2 - temperature, C
 3 - salinity, kg/kg
 4 - turbulent kinetic energy, m**2/s**2
 5 - dissipation rate, m**2/s**3
 6 - kinematic heat conductance, m**2/s
 7 - modulus of horizontal velocity, m/s
 8 - Richardson number, n/d
   -0.000000   -0.00000  0.1752E-09  0.1219E-13  0.7603E-17  0.1000E-09  0.0000E+00  0.9466E+16
   -0.068746    0.14482  0.1856E-09  0.1219E-13  0.7603E-17  0.1000E-09  0.0000E+00  0.9131E+16
   -0.137492    0.29023  0.1643E-09  0.1219E-13  0.7603E-17  0.1000E-09  0.0000E+00  0.8725E+16
   -0.206239    0.43512  0.1322E-09  0.1219E-13  0.7603E-17  0.1000E-09  0.0000E+00  0.8313E+16
   -0.274987    0.57924  0.1059E-09  0.1219E-13  0.7603E-17  0.1000E-09  0.0000E+00  0.7896E+16
   -0.343735    0.72237  0.9070E-10  0.1219E-13  0.7603E-17  0.1000E-09  0.0000E+00  0.7485E+16
   -0.412484    0.86446  0.8387E-10  0.1219E-13  0.7603E-17  0.1000E-09  0.0000E+00  0.7073E+16
   -0.481233    1.00528  0.8128E-10  0.1219E-13  0.7603E-17  0.1000E-09  0.0000E+00  0.6661E+16
   -0.549983    1.14461  0.8042E-10  0.1219E-13  0.7603E-17  0.1000E-09  0.0000E+00  0.6259E+16
   -0.618733    1.28239  0.8015E-10  0.1219E-13  0.7603E-17  0.1000E-09  0.0000E+00  0.5868E+16
   -0.687483    1.41859  0.8005E-10  0.1219E-13  0.7603E-17  0.1000E-09  0.0000E+00  0.5484E+16
   -0.756234    1.55307  0.7997E-10  0.1219E-13  0.7603E-17  0.1000E-09  0.0000E+00  0.5121E+16
   -0.824985    1.68602  0.7988E-10  0.1219E-13  0.7603E-17  0.1000E-09  0.0000E+00  0.4764E+16
   -0.893736    1.81731  0.7974E-10  0.1219E-13  0.7603E-17  0.1000E-09  0.0000E+00  0.4415E+16
   -0.962488    1.94679  0.7955E-10  0.1219E-13  0.7603E-17  0.1000E-09  0.0000E+00  0.4074E+16
   -1.031240    2.07433  0.7931E-10  0.1219E-13  0.7603E-17  0.1000E-09  0.0000E+00  0.3743E+16
   -1.099992    2.19979  0.7902E-10  0.1219E-13  0.7603E-17  0.1000E-09  0.0000E+00  0.3421E+16
   -1.168744    2.32296  0.7869E-10  0.1219E-13  0.7603E-17  0.1000E-09  0.0000E+00  0.3110E+16
   -1.237496    2.44369  0.7833E-10  0.1219E-13  0.7603E-17  0.1000E-09  0.0000E+00  0.2811E+16
   -1.306248    2.56183  0.7794E-10  0.1219E-13  0.7603E-17  0.1000E-09  0.0000E+00  0.2525E+16
   -1.375000    2.67722  0.7754E-10  0.1219E-13  0.7603E-17  0.1000E-09  0.0000E+00  0.2256E+16
   -1.443753    2.78989  0.7716E-10  0.1219E-13  0.7603E-17  0.1000E-09  0.0000E+00  0.2006E+16
   -1.512505    2.90006  0.7682E-10  0.1219E-13  0.7603E-17  0.1000E-09  0.0000E+00  0.1768E+16
   -1.581257    3.00756  0.7656E-10  0.4416E-13  0.1021E-16  0.1000E-09  0.0000E+00  0.1542E+16
   -1.650009    3.11225  0.7638E-10  0.1420E-12  0.2697E-16  0.1000E-09  0.0000E+00  0.1329E+16
   -1.718761    3.21399  0.7628E-10  0.4142E-12  0.7463E-16  0.1000E-09  0.0000E+00  0.1130E+16
   -1.787513    3.31263  0.7623E-10  0.1169E-11  0.2035E-15  0.1000E-09  0.0000E+00  0.9447E+15
   -1.856265    3.40801  0.7620E-10  0.3240E-11  0.5466E-15  0.1000E-09  0.0000E+00  0.7736E+15
   -1.925016    3.50000  0.7619E-10  0.8851E-11  0.1448E-14  0.1000E-09  0.0000E+00  0.6170E+15
   -1.993767    3.58848  0.7619E-10  0.2385E-10  0.3784E-14  0.1000E-09  0.0000E+00  0.4751E+15
   -2.062518    3.67333  0.7619E-10  0.6384E-10  0.9830E-14  0.1392E-09  0.0000E+00  0.3586E+15
   -2.131268    3.75746  0.7619E-10  0.1727E-09  0.2581E-13  0.5257E-09  0.0000E+00  0.2490E+15
   -2.200018    3.84251  0.7619E-10  0.4639E-09  0.6739E-13  0.2510E-08  0.0000E+00  0.1358E+15
   -2.268768    3.92832  0.7619E-10  0.1216E-08  0.1723E-12  0.3449E-07  0.0000E+00  0.2468E+14
   -2.337517    4.00102  0.7619E-10  0.2172E-08  0.3102E-12  0.5696E-05  0.0000E+00 -0.5819E+12
   -2.406266    4.00336  0.7619E-10  0.2617E-08  0.4091E-12  0.6079E-05  0.0000E+00 -0.6867E+12
   -2.475014    4.00576  0.7619E-10  0.2948E-08  0.5447E-12  0.5674E-05  0.0000E+00 -0.9495E+12
   -2.543762    4.00866  0.7619E-10  0.3133E-08  0.7738E-12  0.4337E-05  0.0000E+00 -0.1663E+13
   -2.612509    4.01299  0.7619E-10  0.3001E-08  0.1264E-11  0.2233E-05  0.0000E+00 -0.4608E+13
   -2.681255    4.02237  0.7619E-10  0.2046E-08  0.3205E-11  0.3409E-06  0.0000E+00 -0.5583E+14
   -2.750001    4.07815  0.7619E-10  0.0000E+00  0.0000E+00  0.0000E+00  0.0000E+00  0.0000E+00
