 1 - depth, m
 2 - temperature, C
 3 - salinity, kg/kg
 4 - turbulent kinetic energy, m**2/s**2
 5 - dissipation rate, m**2/s**3
 6 - kinematic heat conductance, m**2/s
 7 - modulus of horizontal velocity, m/s
 8 - Richardson number, n/d
   -0.000000   -0.00000  0.3047E-09  0.1661E-12  0.2773E-16  0.1000E-09  0.0000E+00  0.1561E+17
   -0.068746    0.24199  0.1257E-09  0.3424E-12  0.3761E-16  0.1000E-09  0.0000E+00  0.1435E+17
   -0.137492    0.48019  0.8627E-10  0.7620E-12  0.7224E-16  0.1000E-09  0.0000E+00  0.1308E+17
   -0.206239    0.71324  0.7270E-10  0.1651E-11  0.1484E-15  0.1000E-09  0.0000E+00  0.1190E+17
   -0.274986    0.94165  0.6860E-10  0.3507E-11  0.3056E-15  0.1000E-09  0.0000E+00  0.1081E+17
   -0.343734    1.16603  0.6760E-10  0.7338E-11  0.6237E-15  0.1000E-09  0.0000E+00  0.9836E+16
   -0.412482    1.38786  0.6740E-10  0.1519E-10  0.1262E-14  0.1000E-09  0.0000E+00  0.8918E+16
   -0.481231    1.60763  0.6737E-10  0.3119E-10  0.2531E-14  0.1000E-09  0.0000E+00  0.8046E+16
   -0.549981    1.82582  0.6736E-10  0.6356E-10  0.5043E-14  0.1000E-09  0.0000E+00  0.7232E+16
   -0.618731    2.04354  0.6736E-10  0.1281E-09  0.9936E-14  0.1000E-09  0.0000E+00  0.6458E+16
   -0.687481    2.26187  0.6735E-10  0.2560E-09  0.1942E-13  0.1000E-09  0.0000E+00  0.5694E+16
   -0.756231    2.48124  0.6734E-10  0.5078E-09  0.3770E-13  0.1000E-09  0.0000E+00  0.4966E+16
   -0.824982    2.70368  0.6731E-10  0.1000E-08  0.7266E-13  0.1000E-09  0.0000E+00  0.4212E+16
   -0.893733    2.92927  0.6723E-10  0.1957E-08  0.1391E-12  0.2067E-09  0.0000E+00  0.3426E+16
   -0.962485    3.15778  0.6704E-10  0.3801E-08  0.2646E-12  0.5161E-09  0.0000E+00  0.2610E+16
   -1.031236    3.38877  0.6656E-10  0.7330E-08  0.4996E-12  0.1440E-08  0.0000E+00  0.1766E+16
   -1.099988    3.62123  0.6560E-10  0.1405E-07  0.9385E-12  0.5285E-08  0.0000E+00  0.9043E+15
   -1.168740    3.85098  0.6478E-10  0.2603E-07  0.1709E-11  0.6410E-07  0.0000E+00  0.1362E+15
   -1.237492    4.01739  0.6469E-10  0.2654E-07  0.1745E-11  0.1549E-03  0.0000E+00 -0.1078E+12
   -1.306244    4.01761  0.6469E-10  0.2678E-07  0.1765E-11  0.1514E-03  0.0000E+00 -0.1121E+12
   -1.374996    4.01783  0.6469E-10  0.2699E-07  0.1787E-11  0.1516E-03  0.0000E+00 -0.1136E+12
   -1.443748    4.01806  0.6469E-10  0.2718E-07  0.1811E-11  0.1517E-03  0.0000E+00 -0.1149E+12
   -1.512500    4.01829  0.6469E-10  0.2735E-07  0.1838E-11  0.1514E-03  0.0000E+00 -0.1166E+12
   -1.581252    4.01853  0.6469E-10  0.2750E-07  0.1867E-11  0.1507E-03  0.0000E+00 -0.1185E+12
   -1.650004    4.01876  0.6469E-10  0.2762E-07  0.1899E-11  0.1496E-03  0.0000E+00 -0.1209E+12
   -1.718756    4.01900  0.6469E-10  0.2771E-07  0.1934E-11  0.1480E-03  0.0000E+00 -0.1237E+12
   -1.787508    4.01924  0.6469E-10  0.2779E-07  0.1973E-11  0.1461E-03  0.0000E+00 -0.1270E+12
   -1.856259    4.01948  0.6469E-10  0.2783E-07  0.2015E-11  0.1437E-03  0.0000E+00 -0.1308E+12
   -1.925010    4.01973  0.6469E-10  0.2785E-07  0.2063E-11  0.1409E-03  0.0000E+00 -0.1352E+12
   -1.993761    4.01999  0.6469E-10  0.2784E-07  0.2115E-11  0.1377E-03  0.0000E+00 -0.1404E+12
   -2.062511    4.02026  0.6469E-10  0.2779E-07  0.2175E-11  0.1338E-03  0.0000E+00 -0.1465E+12
   -2.131262    4.02053  0.6469E-10  0.2771E-07  0.2247E-11  0.1291E-03  0.0000E+00 -0.1542E+12
   -2.200011    4.02082  0.6469E-10  0.2759E-07  0.2335E-11  0.1237E-03  0.0000E+00 -0.1639E+12
   -2.268761    4.02112  0.6469E-10  0.2739E-07  0.2455E-11  0.1169E-03  0.0000E+00 -0.1769E+12
   -2.337510    4.02144  0.6469E-10  0.2706E-07  0.2638E-11  0.9576E-04  0.0000E+00 -0.2212E+12
   -2.406258    4.02184  0.6469E-10  0.2655E-07  0.2918E-11  0.7390E-04  0.0000E+00 -0.2960E+12
   -2.475006    4.02237  0.6469E-10  0.2575E-07  0.3369E-11  0.5549E-04  0.0000E+00 -0.4119E+12
   -2.543754    4.02309  0.6469E-10  0.2438E-07  0.4210E-11  0.3623E-04  0.0000E+00 -0.6690E+12
   -2.612501    4.02424  0.6469E-10  0.2176E-07  0.6113E-11  0.1718E-04  0.0000E+00 -0.1530E+13
   -2.681247    4.02673  0.6469E-10  0.1050E-07  0.1847E-10  0.1003E-05  0.0000E+00 -0.3779E+14
   -2.749992    4.06670  0.6469E-10  0.0000E+00  0.0000E+00  0.0000E+00  0.0000E+00  0.0000E+00
