 1 - depth, m
 2 - temperature, C
 3 - salinity, kg/kg
 4 - turbulent kinetic energy, m**2/s**2
 5 - dissipation rate, m**2/s**3
 6 - kinematic heat conductance, m**2/s
 7 - modulus of horizontal velocity, m/s
 8 - Richardson number, n/d
   -0.000000   -0.00000  0.4391E-09  0.5626E-12  0.1083E-15  0.1000E-09  0.0000E+00  0.1689E+17
   -0.068746    0.26251  0.1091E-09  0.1251E-11  0.1223E-15  0.1000E-09  0.0000E+00  0.1545E+17
   -0.137492    0.52129  0.8000E-10  0.2733E-11  0.2077E-15  0.1000E-09  0.0000E+00  0.1399E+17
   -0.206239    0.77464  0.7084E-10  0.5572E-11  0.3889E-15  0.1000E-09  0.0000E+00  0.1262E+17
   -0.274986    1.02283  0.6816E-10  0.1096E-10  0.7357E-15  0.1000E-09  0.0000E+00  0.1135E+17
   -0.343734    1.26632  0.6751E-10  0.2111E-10  0.1382E-14  0.1000E-09  0.0000E+00  0.1019E+17
   -0.412483    1.50610  0.6739E-10  0.4021E-10  0.2576E-14  0.1000E-09  0.0000E+00  0.9091E+16
   -0.481232    1.74262  0.6736E-10  0.7601E-10  0.4770E-14  0.1000E-09  0.0000E+00  0.8055E+16
   -0.549981    1.97625  0.6736E-10  0.1427E-09  0.8778E-14  0.1000E-09  0.0000E+00  0.7081E+16
   -0.618731    2.20772  0.6735E-10  0.2655E-09  0.1601E-13  0.1000E-09  0.0000E+00  0.6155E+16
   -0.687481    2.43768  0.6734E-10  0.4906E-09  0.2900E-13  0.1000E-09  0.0000E+00  0.5256E+16
   -0.756232    2.66632  0.6731E-10  0.9011E-09  0.5224E-13  0.1000E-09  0.0000E+00  0.4406E+16
   -0.824983    2.89517  0.6723E-10  0.1646E-08  0.9358E-13  0.1340E-09  0.0000E+00  0.3556E+16
   -0.893734    3.12396  0.6703E-10  0.2989E-08  0.1667E-12  0.3135E-09  0.0000E+00  0.2707E+16
   -0.962486    3.35213  0.6656E-10  0.5397E-08  0.2954E-12  0.8064E-09  0.0000E+00  0.1865E+16
   -1.031237    3.57878  0.6571E-10  0.9685E-08  0.5203E-12  0.2549E-08  0.0000E+00  0.1039E+16
   -1.099989    3.80173  0.6490E-10  0.1720E-07  0.9082E-12  0.1744E-07  0.0000E+00  0.2651E+15
   -1.168741    4.00320  0.6475E-10  0.1762E-07  0.9312E-12  0.1297E-03  0.0000E+00 -0.6554E+11
   -1.237493    4.00345  0.6475E-10  0.1779E-07  0.9432E-12  0.1275E-03  0.0000E+00 -0.6820E+11
   -1.306245    4.00370  0.6475E-10  0.1795E-07  0.9555E-12  0.1279E-03  0.0000E+00 -0.6963E+11
   -1.374997    4.00395  0.6475E-10  0.1809E-07  0.9690E-12  0.1281E-03  0.0000E+00 -0.7104E+11
   -1.443749    4.00421  0.6475E-10  0.1821E-07  0.9839E-12  0.1280E-03  0.0000E+00 -0.7241E+11
   -1.512501    4.00446  0.6475E-10  0.1833E-07  0.1000E-11  0.1276E-03  0.0000E+00 -0.7399E+11
   -1.581254    4.00472  0.6475E-10  0.1843E-07  0.1018E-11  0.1268E-03  0.0000E+00 -0.7581E+11
   -1.650005    4.00498  0.6475E-10  0.1851E-07  0.1037E-11  0.1257E-03  0.0000E+00 -0.7789E+11
   -1.718757    4.00525  0.6475E-10  0.1859E-07  0.1059E-11  0.1243E-03  0.0000E+00 -0.8027E+11
   -1.787509    4.00552  0.6475E-10  0.1864E-07  0.1082E-11  0.1225E-03  0.0000E+00 -0.8298E+11
   -1.856260    4.00579  0.6475E-10  0.1868E-07  0.1108E-11  0.1204E-03  0.0000E+00 -0.8609E+11
   -1.925012    4.00607  0.6475E-10  0.1870E-07  0.1136E-11  0.1179E-03  0.0000E+00 -0.8966E+11
   -1.993762    4.00636  0.6475E-10  0.1870E-07  0.1167E-11  0.1150E-03  0.0000E+00 -0.9374E+11
   -2.062513    4.00665  0.6475E-10  0.1868E-07  0.1203E-11  0.1117E-03  0.0000E+00 -0.9857E+11
   -2.131263    4.00696  0.6475E-10  0.1863E-07  0.1247E-11  0.1075E-03  0.0000E+00 -0.1047E+12
   -2.200013    4.00728  0.6475E-10  0.1854E-07  0.1308E-11  0.1011E-03  0.0000E+00 -0.1141E+12
   -2.268763    4.00763  0.6475E-10  0.1839E-07  0.1394E-11  0.8460E-04  0.0000E+00 -0.1403E+12
   -2.337512    4.00804  0.6475E-10  0.1816E-07  0.1514E-11  0.6969E-04  0.0000E+00 -0.1764E+12
   -2.406260    4.00855  0.6475E-10  0.1781E-07  0.1690E-11  0.5662E-04  0.0000E+00 -0.2270E+12
   -2.475008    4.00920  0.6475E-10  0.1725E-07  0.1969E-11  0.4305E-04  0.0000E+00 -0.3169E+12
   -2.543756    4.01006  0.6475E-10  0.1629E-07  0.2492E-11  0.2777E-04  0.0000E+00 -0.5321E+12
   -2.612503    4.01145  0.6475E-10  0.1443E-07  0.3703E-11  0.1273E-04  0.0000E+00 -0.1309E+13
   -2.681249    4.01458  0.6475E-10  0.6863E-08  0.1126E-10  0.7565E-06  0.0000E+00 -0.3861E+14
   -2.749994    4.06202  0.6475E-10  0.0000E+00  0.0000E+00  0.0000E+00  0.0000E+00  0.0000E+00
