 1 - depth, m
 2 - temperature, C
 3 - salinity, kg/kg
 4 - turbulent kinetic energy, m**2/s**2
 5 - dissipation rate, m**2/s**3
 6 - kinematic heat conductance, m**2/s
 7 - modulus of horizontal velocity, m/s
 8 - Richardson number, n/d
   -0.000000   -0.00000  0.5459E-09  0.1219E-13  0.7604E-17  0.1000E-09  0.0000E+00  0.1272E+17
   -0.068746    0.19589  0.1282E-09  0.1219E-13  0.7604E-17  0.1000E-09  0.0000E+00  0.1185E+17
   -0.137492    0.38860  0.9397E-10  0.1219E-13  0.7604E-17  0.1000E-09  0.0000E+00  0.1092E+17
   -0.206239    0.57648  0.8385E-10  0.1219E-13  0.7604E-17  0.1000E-09  0.0000E+00  0.1004E+17
   -0.274986    0.75940  0.8095E-10  0.1219E-13  0.7604E-17  0.1000E-09  0.0000E+00  0.9207E+16
   -0.343734    0.93740  0.8026E-10  0.1219E-13  0.7604E-17  0.1000E-09  0.0000E+00  0.8458E+16
   -0.412483    1.11115  0.8012E-10  0.1219E-13  0.7604E-17  0.1000E-09  0.0000E+00  0.7756E+16
   -0.481232    1.28076  0.8010E-10  0.3964E-13  0.7604E-17  0.1000E-09  0.0000E+00  0.7099E+16
   -0.549981    1.44639  0.8009E-10  0.1160E-12  0.1165E-16  0.1000E-09  0.0000E+00  0.6503E+16
   -0.618731    1.60866  0.8009E-10  0.2667E-12  0.2263E-16  0.1000E-09  0.0000E+00  0.5960E+16
   -0.687481    1.76823  0.8008E-10  0.5619E-12  0.4503E-16  0.1000E-09  0.0000E+00  0.5450E+16
   -0.756232    1.92536  0.8005E-10  0.1144E-11  0.8886E-16  0.1000E-09  0.0000E+00  0.5005E+16
   -0.824983    2.08143  0.8000E-10  0.2293E-11  0.1737E-15  0.1000E-09  0.0000E+00  0.4571E+16
   -0.893734    2.23652  0.7990E-10  0.4548E-11  0.3366E-15  0.1000E-09  0.0000E+00  0.4148E+16
   -0.962486    2.39066  0.7973E-10  0.8946E-11  0.6472E-15  0.1000E-09  0.0000E+00  0.3734E+16
   -1.031237    2.54382  0.7949E-10  0.1746E-10  0.1235E-14  0.1000E-09  0.0000E+00  0.3329E+16
   -1.099989    2.69601  0.7918E-10  0.3395E-10  0.2349E-14  0.1000E-09  0.0000E+00  0.2936E+16
   -1.168741    2.84734  0.7882E-10  0.6565E-10  0.4443E-14  0.1000E-09  0.0000E+00  0.2548E+16
   -1.237493    2.99768  0.7845E-10  0.1261E-09  0.8353E-14  0.1000E-09  0.0000E+00  0.2167E+16
   -1.306245    3.14681  0.7807E-10  0.2407E-09  0.1560E-13  0.1000E-09  0.0000E+00  0.1793E+16
   -1.374997    3.29451  0.7764E-10  0.4564E-09  0.2896E-13  0.1031E-09  0.0000E+00  0.1432E+16
   -1.443749    3.44084  0.7714E-10  0.8597E-09  0.5340E-13  0.2510E-09  0.0000E+00  0.1083E+16
   -1.512501    3.58593  0.7664E-10  0.1609E-08  0.9786E-13  0.6713E-09  0.0000E+00  0.7419E+15
   -1.581253    3.72924  0.7631E-10  0.2989E-08  0.1781E-12  0.2200E-08  0.0000E+00  0.4120E+15
   -1.650005    3.86949  0.7620E-10  0.5480E-08  0.3202E-12  0.1534E-07  0.0000E+00  0.1062E+15
   -1.718757    3.99648  0.7619E-10  0.5976E-08  0.3506E-12  0.3457E-04  0.0000E+00 -0.9342E+11
   -1.787509    3.99705  0.7619E-10  0.6207E-08  0.3680E-12  0.3578E-04  0.0000E+00 -0.9578E+11
   -1.856260    3.99760  0.7619E-10  0.6413E-08  0.3872E-12  0.3643E-04  0.0000E+00 -0.9951E+11
   -1.925011    3.99815  0.7619E-10  0.6594E-08  0.4085E-12  0.3653E-04  0.0000E+00 -0.1047E+12
   -1.993762    3.99870  0.7619E-10  0.6752E-08  0.4323E-12  0.3611E-04  0.0000E+00 -0.1118E+12
   -2.062513    3.99927  0.7619E-10  0.6888E-08  0.4596E-12  0.3535E-04  0.0000E+00 -0.1215E+12
   -2.131263    3.99985  0.7619E-10  0.7006E-08  0.4932E-12  0.3408E-04  0.0000E+00 -0.1351E+12
   -2.200013    4.00047  0.7619E-10  0.7103E-08  0.5351E-12  0.3219E-04  0.0000E+00 -0.1546E+12
   -2.268763    4.00115  0.7619E-10  0.7175E-08  0.5895E-12  0.2964E-04  0.0000E+00 -0.1832E+12
   -2.337512    4.00192  0.7619E-10  0.7211E-08  0.6631E-12  0.2637E-04  0.0000E+00 -0.2284E+12
   -2.406260    4.00283  0.7619E-10  0.7195E-08  0.7694E-12  0.2231E-04  0.0000E+00 -0.3065E+12
   -2.475008    4.00397  0.7619E-10  0.7086E-08  0.9389E-12  0.1736E-04  0.0000E+00 -0.4650E+12
   -2.543756    4.00558  0.7619E-10  0.6779E-08  0.1261E-11  0.1125E-04  0.0000E+00 -0.8894E+12
   -2.612502    4.00833  0.7619E-10  0.5991E-08  0.2035E-11  0.4911E-05  0.0000E+00 -0.2763E+13
   -2.681249    4.01525  0.7619E-10  0.3498E-08  0.5823E-11  0.5094E-06  0.0000E+00 -0.5900E+14
   -2.749994    4.07783  0.7619E-10  0.0000E+00  0.0000E+00  0.0000E+00  0.0000E+00  0.0000E+00
