 1 - depth, m
 2 - temperature, C
 3 - salinity, kg/kg
 4 - turbulent kinetic energy, m**2/s**2
 5 - dissipation rate, m**2/s**3
 6 - kinematic heat conductance, m**2/s
 7 - modulus of horizontal velocity, m/s
 8 - Richardson number, n/d
   -0.000000   11.58867  0.8003E-10  0.1856E-03  0.7970E-04  0.1202E-03  0.1333E+00  0.2784E-02
   -0.068746   11.64652  0.8004E-10  0.9865E-04  0.1926E-04  0.1645E-03  0.4584E-01 -0.7094E-01
   -0.137492   11.65626  0.8004E-10  0.6971E-04  0.7611E-05  0.1628E-03  0.3495E-01 -0.1982E-01
   -0.206240   11.66424  0.8004E-10  0.5222E-04  0.3401E-05  0.1727E-03  0.2866E-01 -0.2991E-01
   -0.274987   11.67065  0.8004E-10  0.4105E-04  0.1681E-05  0.1924E-03  0.2411E-01 -0.4420E-01
   -0.343736   11.67598  0.8004E-10  0.3394E-04  0.9176E-06  0.2165E-03  0.2066E-01  0.1561E-01
   -0.412485   11.68047  0.8005E-10  0.2907E-04  0.5467E-06  0.2483E-03  0.1785E-01 -0.2117E-01
   -0.481234   11.68422  0.8005E-10  0.2565E-04  0.3523E-06  0.2882E-03  0.1561E-01 -0.6213E-01
   -0.549984   11.68734  0.8005E-10  0.2327E-04  0.2438E-06  0.3354E-03  0.1385E-01 -0.3948E-01
   -0.618734   11.68997  0.8005E-10  0.2159E-04  0.1797E-06  0.4000E-03  0.1241E-01  0.1781E+01
   -0.687484   11.69216  0.8005E-10  0.2032E-04  0.1391E-06  0.5077E-03  0.1118E-01  0.2457E+02
   -0.756235   11.69396  0.8005E-10  0.1932E-04  0.1120E-06  0.6176E-03  0.1013E-01  0.1326E+02
   -0.824986   11.69547  0.8005E-10  0.1851E-04  0.9297E-07  0.7196E-03  0.9222E-02  0.4519E+02
   -0.893738   11.69675  0.8005E-10  0.1781E-04  0.7898E-07  0.8246E-03  0.8417E-02  0.1857E+03
   -0.962490   11.69784  0.8005E-10  0.1719E-04  0.6832E-07  0.9550E-03  0.7696E-02  0.8566E+02
   -1.031242   11.69877  0.8005E-10  0.1663E-04  0.5994E-07  0.1097E-02  0.7042E-02  0.1607E+04
   -1.099994   11.69954  0.8005E-10  0.1610E-04  0.5314E-07  0.1238E-02  0.6446E-02  0.5885E+03
   -1.168746   11.70019  0.8005E-10  0.1561E-04  0.4753E-07  0.1344E-02  0.5912E-02  0.1303E+03
   -1.237498   11.70076  0.8005E-10  0.1514E-04  0.4283E-07  0.1431E-02  0.5426E-02  0.9931E+02
   -1.306251   11.70126  0.8005E-10  0.1469E-04  0.3882E-07  0.1494E-02  0.4977E-02  0.5029E+02
   -1.375003   11.70173  0.8005E-10  0.1426E-04  0.3537E-07  0.1527E-02  0.4559E-02  0.8979E+01
   -1.443756   11.70218  0.8005E-10  0.1384E-04  0.3236E-07  0.1546E-02  0.4168E-02  0.6409E+01
   -1.512508   11.70262  0.8005E-10  0.1343E-04  0.2973E-07  0.1559E-02  0.3801E-02  0.5626E+01
   -1.581260   11.70305  0.8005E-10  0.1302E-04  0.2744E-07  0.1569E-02  0.3456E-02  0.5078E+01
   -1.650013   11.70347  0.8005E-10  0.1262E-04  0.2545E-07  0.1575E-02  0.3130E-02  0.4664E+01
   -1.718765   11.70388  0.8005E-10  0.1222E-04  0.2372E-07  0.1578E-02  0.2822E-02  0.4340E+01
   -1.787517   11.70428  0.8005E-10  0.1182E-04  0.2224E-07  0.1576E-02  0.2531E-02  0.4079E+01
   -1.856268   11.70467  0.8005E-10  0.1142E-04  0.2097E-07  0.1569E-02  0.2253E-02  0.3869E+01
   -1.925020   11.70507  0.8005E-10  0.1102E-04  0.1992E-07  0.1556E-02  0.1989E-02  0.3702E+01
   -1.993771   11.70545  0.8005E-10  0.1062E-04  0.1907E-07  0.1539E-02  0.1734E-02  0.3569E+01
   -2.062522   11.70584  0.8005E-10  0.1022E-04  0.1843E-07  0.1539E-02  0.1489E-02  0.2657E+01
   -2.131272   11.70622  0.8005E-10  0.9804E-05  0.1798E-07  0.1520E-02  0.1270E-02  0.1908E+01
   -2.200023   11.70660  0.8005E-10  0.9392E-05  0.1777E-07  0.1489E-02  0.1080E-02  0.1422E+01
   -2.268772   11.70699  0.8005E-10  0.8992E-05  0.1783E-07  0.1415E-02  0.9190E-03  0.1073E+01
   -2.337522   11.70739  0.8005E-10  0.8615E-05  0.1819E-07  0.1277E-02  0.7869E-03  0.8340E+00
   -2.406270   11.70783  0.8005E-10  0.8263E-05  0.1891E-07  0.1139E-02  0.6822E-03  0.8189E+00
   -2.475019   11.70833  0.8005E-10  0.7913E-05  0.2016E-07  0.1001E-02  0.6028E-03  0.1253E+01
   -2.543767   11.70888  0.8005E-10  0.7496E-05  0.2247E-07  0.8673E-03  0.5420E-03  0.3258E+01
   -2.612514   11.70953  0.8005E-10  0.6859E-05  0.2789E-07  0.5599E-03  0.4930E-03  0.5299E+02
   -2.681260   11.71053  0.8005E-10  0.3196E-05  0.8254E-07  0.1847E-04  0.4385E-03 -0.6011E+04
   -2.750006   11.73987  0.8005E-10  0.0000E+00  0.0000E+00  0.0000E+00  0.4354E-03  0.0000E+00
