 1 - depth, m
 2 - temperature, C
 3 - salinity, kg/kg
 4 - turbulent kinetic energy, m**2/s**2
 5 - dissipation rate, m**2/s**3
 6 - kinematic heat conductance, m**2/s
 7 - modulus of horizontal velocity, m/s
 8 - Richardson number, n/d
   -0.000000   -0.00000  0.2457E-09  0.2000E-12  0.3309E-16  0.1000E-09  0.0000E+00  0.1457E+17
   -0.068746    0.22540  0.1288E-09  0.4118E-12  0.4254E-16  0.1000E-09  0.0000E+00  0.1343E+17
   -0.137492    0.44670  0.8879E-10  0.9021E-12  0.7852E-16  0.1000E-09  0.0000E+00  0.1225E+17
   -0.206239    0.66219  0.7320E-10  0.1909E-11  0.1563E-15  0.1000E-09  0.0000E+00  0.1117E+17
   -0.274986    0.87242  0.6864E-10  0.3946E-11  0.3124E-15  0.1000E-09  0.0000E+00  0.1019E+17
   -0.343734    1.07826  0.6760E-10  0.8022E-11  0.6188E-15  0.1000E-09  0.0000E+00  0.9362E+16
   -0.412483    1.28178  0.6740E-10  0.1612E-10  0.1214E-14  0.1000E-09  0.0000E+00  0.8591E+16
   -0.481232    1.48375  0.6736E-10  0.3210E-10  0.2361E-14  0.1000E-09  0.0000E+00  0.7868E+16
   -0.549981    1.68491  0.6736E-10  0.6341E-10  0.4556E-14  0.1000E-09  0.0000E+00  0.7217E+16
   -0.618731    1.88703  0.6736E-10  0.1238E-09  0.8694E-14  0.1000E-09  0.0000E+00  0.6618E+16
   -0.687482    2.09193  0.6736E-10  0.2396E-09  0.1645E-13  0.1000E-09  0.0000E+00  0.6027E+16
   -0.756232    2.30082  0.6735E-10  0.4603E-09  0.3090E-13  0.1000E-09  0.0000E+00  0.5485E+16
   -0.824983    2.51730  0.6733E-10  0.8778E-09  0.5763E-13  0.1000E-09  0.0000E+00  0.4897E+16
   -0.893734    2.74285  0.6729E-10  0.1662E-08  0.1067E-12  0.1282E-09  0.0000E+00  0.4239E+16
   -0.962486    2.97901  0.6718E-10  0.3124E-08  0.1964E-12  0.2874E-09  0.0000E+00  0.3477E+16
   -1.031237    3.22672  0.6696E-10  0.5830E-08  0.3588E-12  0.7073E-09  0.0000E+00  0.2582E+16
   -1.099989    3.48561  0.6643E-10  0.1083E-07  0.6528E-12  0.2152E-08  0.0000E+00  0.1544E+16
   -1.168741    3.75233  0.6528E-10  0.1991E-07  0.1176E-11  0.1401E-07  0.0000E+00  0.4276E+15
   -1.237493    4.00395  0.6462E-10  0.2039E-07  0.1206E-11  0.1337E-03  0.0000E+00 -0.8142E+11
   -1.306245    4.00424  0.6462E-10  0.2060E-07  0.1222E-11  0.1315E-03  0.0000E+00 -0.8499E+11
   -1.374998    4.00454  0.6462E-10  0.2078E-07  0.1238E-11  0.1318E-03  0.0000E+00 -0.8682E+11
   -1.443750    4.00484  0.6462E-10  0.2095E-07  0.1257E-11  0.1320E-03  0.0000E+00 -0.8840E+11
   -1.512502    4.00514  0.6462E-10  0.2110E-07  0.1277E-11  0.1318E-03  0.0000E+00 -0.9022E+11
   -1.581254    4.00545  0.6462E-10  0.2123E-07  0.1299E-11  0.1312E-03  0.0000E+00 -0.9233E+11
   -1.650006    4.00575  0.6462E-10  0.2134E-07  0.1323E-11  0.1303E-03  0.0000E+00 -0.9476E+11
   -1.718758    4.00606  0.6462E-10  0.2144E-07  0.1349E-11  0.1291E-03  0.0000E+00 -0.9755E+11
   -1.787509    4.00637  0.6462E-10  0.2151E-07  0.1378E-11  0.1274E-03  0.0000E+00 -0.1008E+12
   -1.856261    4.00669  0.6462E-10  0.2157E-07  0.1410E-11  0.1254E-03  0.0000E+00 -0.1044E+12
   -1.925012    4.00701  0.6462E-10  0.2160E-07  0.1446E-11  0.1229E-03  0.0000E+00 -0.1087E+12
   -1.993763    4.00735  0.6462E-10  0.2161E-07  0.1485E-11  0.1201E-03  0.0000E+00 -0.1135E+12
   -2.062514    4.00769  0.6462E-10  0.2159E-07  0.1529E-11  0.1167E-03  0.0000E+00 -0.1192E+12
   -2.131264    4.00804  0.6462E-10  0.2154E-07  0.1582E-11  0.1126E-03  0.0000E+00 -0.1262E+12
   -2.200014    4.00841  0.6462E-10  0.2145E-07  0.1652E-11  0.1076E-03  0.0000E+00 -0.1353E+12
   -2.268763    4.00880  0.6462E-10  0.2129E-07  0.1755E-11  0.9311E-04  0.0000E+00 -0.1606E+12
   -2.337512    4.00925  0.6462E-10  0.2103E-07  0.1901E-11  0.7572E-04  0.0000E+00 -0.2040E+12
   -2.406261    4.00981  0.6462E-10  0.2063E-07  0.2117E-11  0.6091E-04  0.0000E+00 -0.2644E+12
   -2.475009    4.01052  0.6462E-10  0.2000E-07  0.2459E-11  0.4632E-04  0.0000E+00 -0.3676E+12
   -2.543756    4.01147  0.6462E-10  0.1891E-07  0.3101E-11  0.3004E-04  0.0000E+00 -0.6113E+12
   -2.612503    4.01297  0.6462E-10  0.1679E-07  0.4577E-11  0.1395E-04  0.0000E+00 -0.1477E+13
   -2.681250    4.01630  0.6461E-10  0.8124E-08  0.1388E-10  0.8610E-06  0.0000E+00 -0.4188E+14
   -2.749995    4.06537  0.6461E-10  0.0000E+00  0.0000E+00  0.0000E+00  0.0000E+00  0.0000E+00
