 1 - depth, m
 2 - temperature, C
 3 - salinity, kg/kg
 4 - turbulent kinetic energy, m**2/s**2
 5 - dissipation rate, m**2/s**3
 6 - kinematic heat conductance, m**2/s
 7 - modulus of horizontal velocity, m/s
 8 - Richardson number, n/d
   -0.000000   -0.00000  0.3377E-09  0.3414E-12  0.5839E-16  0.1000E-09  0.0000E+00  0.1601E+17
   -0.068746    0.24835  0.1798E-09  0.7139E-12  0.6597E-16  0.1000E-09  0.0000E+00  0.1488E+17
   -0.137492    0.49614  0.1022E-09  0.1517E-11  0.1101E-15  0.1000E-09  0.0000E+00  0.1366E+17
   -0.206239    0.74133  0.7658E-10  0.3046E-11  0.2029E-15  0.1000E-09  0.0000E+00  0.1247E+17
   -0.274987    0.98350  0.6962E-10  0.5912E-11  0.3785E-15  0.1000E-09  0.0000E+00  0.1130E+17
   -0.343735    1.22231  0.6789E-10  0.1125E-10  0.7016E-15  0.1000E-09  0.0000E+00  0.1019E+17
   -0.412483    1.45779  0.6748E-10  0.2116E-10  0.1290E-14  0.1000E-09  0.0000E+00  0.9110E+16
   -0.481233    1.68963  0.6738E-10  0.3947E-10  0.2355E-14  0.1000E-09  0.0000E+00  0.8073E+16
   -0.549982    1.91759  0.6735E-10  0.7311E-10  0.4272E-14  0.1000E-09  0.0000E+00  0.7090E+16
   -0.618732    2.14176  0.6733E-10  0.1341E-09  0.7674E-14  0.1000E-09  0.0000E+00  0.6161E+16
   -0.687483    2.36232  0.6727E-10  0.2441E-09  0.1369E-13  0.1000E-09  0.0000E+00  0.5276E+16
   -0.756233    2.57925  0.6715E-10  0.4417E-09  0.2426E-13  0.1000E-09  0.0000E+00  0.4456E+16
   -0.824984    2.79356  0.6690E-10  0.7941E-09  0.4275E-13  0.1000E-09  0.0000E+00  0.3667E+16
   -0.893736    3.00524  0.6646E-10  0.1419E-08  0.7490E-13  0.1310E-09  0.0000E+00  0.2910E+16
   -0.962487    3.21420  0.6584E-10  0.2522E-08  0.1304E-12  0.3042E-09  0.0000E+00  0.2183E+16
   -1.031239    3.42026  0.6527E-10  0.4453E-08  0.2259E-12  0.7729E-09  0.0000E+00  0.1488E+16
   -1.099991    3.62312  0.6494E-10  0.7834E-08  0.3897E-12  0.2408E-08  0.0000E+00  0.8240E+15
   -1.168743    3.82151  0.6482E-10  0.1363E-07  0.6657E-12  0.1604E-07  0.0000E+00  0.2114E+15
   -1.237495    4.00091  0.6480E-10  0.1401E-07  0.6853E-12  0.1118E-03  0.0000E+00 -0.5783E+11
   -1.306247    4.00116  0.6480E-10  0.1417E-07  0.6949E-12  0.1117E-03  0.0000E+00 -0.5882E+11
   -1.375000    4.00141  0.6480E-10  0.1429E-07  0.7043E-12  0.1119E-03  0.0000E+00 -0.5966E+11
   -1.443752    4.00166  0.6480E-10  0.1441E-07  0.7146E-12  0.1121E-03  0.0000E+00 -0.6057E+11
   -1.512504    4.00191  0.6480E-10  0.1451E-07  0.7258E-12  0.1120E-03  0.0000E+00 -0.6164E+11
   -1.581256    4.00216  0.6480E-10  0.1460E-07  0.7381E-12  0.1115E-03  0.0000E+00 -0.6290E+11
   -1.650008    4.00241  0.6480E-10  0.1468E-07  0.7514E-12  0.1108E-03  0.0000E+00 -0.6437E+11
   -1.718760    4.00266  0.6480E-10  0.1474E-07  0.7659E-12  0.1097E-03  0.0000E+00 -0.6606E+11
   -1.787512    4.00292  0.6480E-10  0.1479E-07  0.7819E-12  0.1083E-03  0.0000E+00 -0.6802E+11
   -1.856263    4.00318  0.6480E-10  0.1483E-07  0.7994E-12  0.1066E-03  0.0000E+00 -0.7029E+11
   -1.925015    4.00344  0.6480E-10  0.1485E-07  0.8192E-12  0.1044E-03  0.0000E+00 -0.7295E+11
   -1.993766    4.00371  0.6480E-10  0.1485E-07  0.8425E-12  0.1018E-03  0.0000E+00 -0.7614E+11
   -2.062516    4.00399  0.6480E-10  0.1483E-07  0.8714E-12  0.9839E-04  0.0000E+00 -0.8029E+11
   -2.131267    4.00428  0.6480E-10  0.1479E-07  0.9088E-12  0.8900E-04  0.0000E+00 -0.9076E+11
   -2.200017    4.00460  0.6480E-10  0.1470E-07  0.9572E-12  0.7775E-04  0.0000E+00 -0.1066E+12
   -2.268766    4.00497  0.6480E-10  0.1457E-07  0.1021E-11  0.6747E-04  0.0000E+00 -0.1267E+12
   -2.337516    4.00539  0.6480E-10  0.1438E-07  0.1109E-11  0.5799E-04  0.0000E+00 -0.1530E+12
   -2.406264    4.00590  0.6480E-10  0.1408E-07  0.1236E-11  0.4795E-04  0.0000E+00 -0.1938E+12
   -2.475012    4.00652  0.6480E-10  0.1363E-07  0.1439E-11  0.3658E-04  0.0000E+00 -0.2704E+12
   -2.543760    4.00736  0.6480E-10  0.1283E-07  0.1820E-11  0.2355E-04  0.0000E+00 -0.4571E+12
   -2.612507    4.00870  0.6480E-10  0.1128E-07  0.2711E-11  0.1064E-04  0.0000E+00 -0.1149E+13
   -2.681253    4.01177  0.6480E-10  0.5253E-08  0.8138E-11  0.6192E-06  0.0000E+00 -0.3500E+14
   -2.749999    4.05786  0.6480E-10  0.0000E+00  0.0000E+00  0.0000E+00  0.0000E+00  0.0000E+00
