 1 - depth, m
 2 - temperature, C
 3 - salinity, kg/kg
 4 - turbulent kinetic energy, m**2/s**2
 5 - dissipation rate, m**2/s**3
 6 - kinematic heat conductance, m**2/s
 7 - modulus of horizontal velocity, m/s
 8 - Richardson number, n/d
   -0.000000   -0.00000  0.4749E-12  0.4096E-13  0.8590E-16  0.1000E-09  0.0000E+00  0.1075E+17
   -0.037498    0.16486  0.4134E-12  0.4096E-13  0.8590E-16  0.1000E-09  0.0000E+00  0.1024E+17
   -0.074996    0.32933  0.3186E-12  0.4096E-13  0.8590E-16  0.1000E-09  0.0000E+00  0.9732E+16
   -0.112494    0.49326  0.2395E-12  0.4096E-13  0.8590E-16  0.1000E-09  0.0000E+00  0.9221E+16
   -0.149993    0.65649  0.1825E-12  0.4096E-13  0.8590E-16  0.1000E-09  0.0000E+00  0.8711E+16
   -0.187492    0.81886  0.1448E-12  0.4096E-13  0.8590E-16  0.1000E-09  0.0000E+00  0.8204E+16
   -0.224991    0.98023  0.1213E-12  0.4096E-13  0.8590E-16  0.1000E-09  0.0000E+00  0.7699E+16
   -0.262491    1.14044  0.1071E-12  0.4096E-13  0.8590E-16  0.1000E-09  0.0000E+00  0.7203E+16
   -0.299991    1.29939  0.9859E-13  0.4096E-13  0.8590E-16  0.1000E-09  0.0000E+00  0.6715E+16
   -0.337491    1.45696  0.9339E-13  0.1385E-12  0.8590E-16  0.1000E-09  0.0000E+00  0.6233E+16
   -0.374991    1.61300  0.9015E-13  0.4006E-12  0.1037E-15  0.1000E-09  0.0000E+00  0.5766E+16
   -0.412491    1.76748  0.8809E-13  0.8639E-12  0.1698E-15  0.1000E-09  0.0000E+00  0.5310E+16
   -0.449992    1.92034  0.8673E-13  0.1657E-11  0.2961E-15  0.1000E-09  0.0000E+00  0.4864E+16
   -0.487493    2.07144  0.8581E-13  0.3027E-11  0.5181E-15  0.1000E-09  0.0000E+00  0.4432E+16
   -0.524993    2.22071  0.8517E-13  0.5386E-11  0.8980E-15  0.1000E-09  0.0000E+00  0.4019E+16
   -0.562494    2.36830  0.8474E-13  0.9451E-11  0.1543E-14  0.1000E-09  0.0000E+00  0.3618E+16
   -0.599995    2.51412  0.8444E-13  0.1644E-10  0.2633E-14  0.1000E-09  0.0000E+00  0.3229E+16
   -0.637497    2.65810  0.8425E-13  0.2843E-10  0.4469E-14  0.1000E-09  0.0000E+00  0.2855E+16
   -0.674998    2.80018  0.8413E-13  0.4890E-10  0.7546E-14  0.1000E-09  0.0000E+00  0.2494E+16
   -0.712499    2.94030  0.8406E-13  0.8368E-10  0.1268E-13  0.1000E-09  0.0000E+00  0.2147E+16
   -0.750000    3.07843  0.8402E-13  0.1425E-09  0.2121E-13  0.1000E-09  0.0000E+00  0.1821E+16
   -0.787502    3.21504  0.8400E-13  0.2416E-09  0.3532E-13  0.1000E-09  0.0000E+00  0.1508E+16
   -0.825003    3.35031  0.8399E-13  0.4075E-09  0.5854E-13  0.1350E-09  0.0000E+00  0.1204E+16
   -0.862504    3.48417  0.8398E-13  0.6843E-09  0.9660E-13  0.2949E-09  0.0000E+00  0.9101E+15
   -0.900005    3.61651  0.8398E-13  0.1144E-08  0.1587E-12  0.7045E-09  0.0000E+00  0.6259E+15
   -0.937506    3.74710  0.8398E-13  0.1901E-08  0.2593E-12  0.2048E-08  0.0000E+00  0.3523E+15
   -0.975007    3.87510  0.8398E-13  0.3132E-08  0.4202E-12  0.1218E-07  0.0000E+00  0.9664E+14
   -1.012508    3.99341  0.8398E-13  0.3794E-08  0.5113E-12  0.8793E-05  0.0000E+00 -0.2538E+12
   -1.050009    3.99549  0.8398E-13  0.4140E-08  0.5703E-12  0.1002E-04  0.0000E+00 -0.2770E+12
   -1.087509    3.99728  0.8398E-13  0.4442E-08  0.6335E-12  0.1073E-04  0.0000E+00 -0.3030E+12
   -1.125010    3.99894  0.8398E-13  0.4701E-08  0.7023E-12  0.1105E-04  0.0000E+00 -0.3361E+12
   -1.162510    4.00055  0.8398E-13  0.4916E-08  0.7788E-12  0.1099E-04  0.0000E+00 -0.3800E+12
   -1.200010    4.00217  0.8398E-13  0.5082E-08  0.8660E-12  0.1058E-04  0.0000E+00 -0.4400E+12
   -1.237510    4.00385  0.8398E-13  0.5193E-08  0.9687E-12  0.9816E-05  0.0000E+00 -0.5260E+12
   -1.275009    4.00568  0.8398E-13  0.5234E-08  0.1095E-11  0.8712E-05  0.0000E+00 -0.6576E+12
   -1.312509    4.00774  0.8398E-13  0.5183E-08  0.1260E-11  0.7275E-05  0.0000E+00 -0.8782E+12
   -1.350008    4.01022  0.8398E-13  0.5002E-08  0.1495E-11  0.5524E-05  0.0000E+00 -0.1305E+13
   -1.387506    4.01348  0.8398E-13  0.4612E-08  0.1882E-11  0.3539E-05  0.0000E+00 -0.2357E+13
   -1.425005    4.01855  0.8398E-13  0.3848E-08  0.2690E-11  0.1569E-05  0.0000E+00 -0.6505E+13
   -1.462503    4.02956  0.8398E-13  0.2511E-08  0.5223E-11  0.2756E-06  0.0000E+00 -0.4730E+14
   -1.500001    4.07527  0.8398E-13  0.0000E+00  0.0000E+00  0.0000E+00  0.0000E+00  0.0000E+00
