 1 - depth, m
 2 - temperature, C
 3 - salinity, kg/kg
 4 - turbulent kinetic energy, m**2/s**2
 5 - dissipation rate, m**2/s**3
 6 - kinematic heat conductance, m**2/s
 7 - modulus of horizontal velocity, m/s
 8 - Richardson number, n/d
   -0.000000   -0.00000  0.1170E-11  0.4096E-13  0.8590E-16  0.1000E-09  0.0000E+00  0.2253E+17
   -0.037497    0.35480  0.0000E+00  0.4096E-13  0.8590E-16  0.1000E-09  0.0000E+00  0.1722E+17
   -0.074994    0.65309  0.1262E-12  0.4096E-13  0.8590E-16  0.1000E-09  0.0000E+00  0.1311E+17
   -0.112492    0.90062  0.8549E-13  0.5600E-13  0.8658E-16  0.1000E-09  0.0000E+00  0.9929E+16
   -0.149990    1.10304  0.9397E-13  0.1202E-12  0.1041E-15  0.1000E-09  0.0000E+00  0.7469E+16
   -0.187488    1.26576  0.9143E-13  0.3073E-12  0.1730E-15  0.1000E-09  0.0000E+00  0.5559E+16
   -0.224986    1.39386  0.9100E-13  0.8006E-12  0.3656E-15  0.1000E-09  0.0000E+00  0.4070E+16
   -0.262485    1.49205  0.9079E-13  0.2024E-11  0.8527E-15  0.1000E-09  0.0000E+00  0.3036E+16
   -0.299984    1.56805  0.9080E-13  0.4965E-11  0.2021E-14  0.1000E-09  0.0000E+00  0.2273E+16
   -0.337483    1.62667  0.9078E-13  0.1198E-10  0.4742E-14  0.1000E-09  0.0000E+00  0.1706E+16
   -0.374983    1.67175  0.9078E-13  0.2853E-10  0.1101E-13  0.1000E-09  0.0000E+00  0.1499E+16
   -0.412483    1.71224  0.9077E-13  0.6723E-10  0.2529E-13  0.1000E-09  0.0000E+00  0.1567E+16
   -0.449982    1.75553  0.9076E-13  0.1568E-09  0.5752E-13  0.1135E-09  0.0000E+00  0.1809E+16
   -0.487482    1.80680  0.9069E-13  0.3622E-09  0.1296E-12  0.1545E-09  0.0000E+00  0.2297E+16
   -0.524982    1.87400  0.9045E-13  0.8250E-09  0.2880E-12  0.2272E-09  0.0000E+00  0.3218E+16
   -0.562483    1.97232  0.8982E-13  0.1858E-08  0.6330E-12  0.3687E-09  0.0000E+00  0.4300E+16
   -0.599983    2.11288  0.8878E-13  0.4141E-08  0.1377E-11  0.6435E-09  0.0000E+00  0.5449E+16
   -0.637483    2.31063  0.8761E-13  0.9141E-08  0.2969E-11  0.1224E-08  0.0000E+00  0.6416E+16
   -0.674984    2.58533  0.8627E-13  0.1996E-07  0.6334E-11  0.2858E-08  0.0000E+00  0.6645E+16
   -0.712484    2.96001  0.8446E-13  0.4237E-07  0.1318E-10  0.2091E-07  0.0000E+00  0.5322E+16
   -0.749985    3.41725  0.8287E-13  0.6408E-07  0.2002E-10  0.2840E-04  0.0000E+00  0.3207E+16
   -0.787485    3.78550  0.8229E-13  0.8135E-07  0.2563E-10  0.5710E-04  0.0000E+00  0.1165E+16
   -0.824985    4.01660  0.8219E-13  0.8889E-07  0.2823E-10  0.8420E-04  0.0000E+00  0.9894E+14
   -0.862486    4.07523  0.8217E-13  0.9050E-07  0.2897E-10  0.9599E-04  0.0000E+00 -0.1663E+13
   -0.899986    4.07643  0.8217E-13  0.9163E-07  0.2967E-10  0.9555E-04  0.0000E+00 -0.1707E+13
   -0.937486    4.07764  0.8217E-13  0.9255E-07  0.3044E-10  0.9504E-04  0.0000E+00 -0.1747E+13
   -0.974987    4.07887  0.8217E-13  0.9324E-07  0.3127E-10  0.9400E-04  0.0000E+00 -0.1800E+13
   -1.012487    4.08011  0.8217E-13  0.9371E-07  0.3219E-10  0.9239E-04  0.0000E+00 -0.1880E+13
   -1.049987    4.08139  0.8217E-13  0.9394E-07  0.3322E-10  0.9018E-04  0.0000E+00 -0.1980E+13
   -1.087487    4.08271  0.8217E-13  0.9391E-07  0.3439E-10  0.8738E-04  0.0000E+00 -0.2105E+13
   -1.124986    4.08410  0.8217E-13  0.9359E-07  0.3573E-10  0.8397E-04  0.0000E+00 -0.2231E+13
   -1.162486    4.08555  0.8217E-13  0.9295E-07  0.3727E-10  0.7991E-04  0.0000E+00 -0.2388E+13
   -1.199985    4.08708  0.8217E-13  0.9194E-07  0.3910E-10  0.7518E-04  0.0000E+00 -0.2587E+13
   -1.237484    4.08871  0.8217E-13  0.9053E-07  0.4130E-10  0.6971E-04  0.0000E+00 -0.2849E+13
   -1.274983    4.09047  0.8217E-13  0.8864E-07  0.4404E-10  0.6345E-04  0.0000E+00 -0.3201E+13
   -1.312481    4.09242  0.8217E-13  0.8615E-07  0.4758E-10  0.5633E-04  0.0000E+00 -0.3698E+13
   -1.349979    4.09462  0.8217E-13  0.8284E-07  0.5248E-10  0.4845E-04  0.0000E+00 -0.4414E+13
   -1.387477    4.09720  0.8217E-13  0.7758E-07  0.6119E-10  0.2988E-04  0.0000E+00 -0.7401E+13
   -1.424975    4.10140  0.8217E-13  0.6760E-07  0.8210E-10  0.1365E-04  0.0000E+00 -0.1719E+14
   -1.462472    4.11059  0.8217E-13  0.4225E-07  0.1756E-09  0.1942E-05  0.0000E+00 -0.1476E+15
   -1.499969    4.17163  0.8216E-13  0.0000E+00  0.0000E+00  0.0000E+00  0.0000E+00  0.0000E+00
