 1 - depth, m
 2 - temperature, C
 3 - salinity, kg/kg
 4 - turbulent kinetic energy, m**2/s**2
 5 - dissipation rate, m**2/s**3
 6 - kinematic heat conductance, m**2/s
 7 - modulus of horizontal velocity, m/s
 8 - Richardson number, n/d
   -0.000000    0.90834  0.8697E-13  0.8894E-04  0.3561E-04  0.3881E-04  0.8364E-01  0.1040E-01
   -0.037498    0.94571  0.8698E-13  0.5238E-04  0.9763E-05  0.6433E-04  0.3370E-01  0.3891E-02
   -0.074996    0.95375  0.8698E-13  0.3857E-04  0.4041E-05  0.7139E-04  0.2525E-01  0.7311E-02
   -0.112494    0.95983  0.8698E-13  0.3028E-04  0.2102E-05  0.7657E-04  0.2072E-01  0.1142E-01
   -0.149993    0.96480  0.8698E-13  0.2432E-04  0.1175E-05  0.8035E-04  0.1743E-01  0.1572E-01
   -0.187492    0.96915  0.8699E-13  0.1977E-04  0.6833E-06  0.8258E-04  0.1484E-01  0.2175E-01
   -0.224991    0.97310  0.8699E-13  0.1623E-04  0.4185E-06  0.8363E-04  0.1275E-01  0.3097E-01
   -0.262491    0.97679  0.8699E-13  0.1347E-04  0.2716E-06  0.8266E-04  0.1104E-01  0.4066E-01
   -0.299991    0.98031  0.8699E-13  0.1124E-04  0.1843E-06  0.8035E-04  0.9574E-02  0.5337E-01
   -0.337491    0.98371  0.8699E-13  0.9377E-05  0.1288E-06  0.7691E-04  0.8318E-02  0.7196E-01
   -0.374991    0.98703  0.8699E-13  0.7796E-05  0.9164E-07  0.7243E-04  0.7240E-02  0.1012E+00
   -0.412492    0.99031  0.8699E-13  0.6441E-05  0.6577E-07  0.6721E-04  0.6318E-02  0.1554E+00
   -0.449992    0.99362  0.8699E-13  0.5289E-05  0.4744E-07  0.6175E-04  0.5537E-02  0.3542E+00
   -0.487493    0.99698  0.8699E-13  0.4340E-05  0.3454E-07  0.5621E-04  0.4896E-02  0.1989E+01
   -0.524994    1.00044  0.8699E-13  0.3588E-05  0.2562E-07  0.4890E-04  0.4382E-02  0.9277E+00
   -0.562495    1.00435  0.8699E-13  0.2968E-05  0.1923E-07  0.4219E-04  0.3889E-02  0.6646E+00
   -0.599996    1.00896  0.8699E-13  0.2449E-05  0.1455E-07  0.3610E-04  0.3414E-02  0.7784E+00
   -0.637498    1.01491  0.8699E-13  0.2009E-05  0.1106E-07  0.3069E-04  0.2955E-02  0.1111E+01
   -0.674999    1.02466  0.8700E-13  0.1636E-05  0.8400E-08  0.2620E-04  0.2498E-02  0.2557E+01
   -0.712500    1.04910  0.8700E-13  0.1341E-05  0.6437E-08  0.2253E-04  0.2035E-02  0.1025E+02
   -0.750001    1.08349  0.8700E-13  0.1108E-05  0.4998E-08  0.1928E-04  0.1655E-02  0.5127E+02
   -0.787503    1.11562  0.8701E-13  0.9155E-06  0.3899E-08  0.1651E-04  0.1347E-02  0.3162E+03
   -0.825004    1.15031  0.8702E-13  0.7604E-06  0.3065E-08  0.1413E-04  0.1087E-02  0.2072E+04
   -0.862505    1.18585  0.8703E-13  0.6328E-06  0.2423E-08  0.1201E-04  0.8799E-03  0.1434E+05
   -0.900006    1.22112  0.8704E-13  0.5247E-06  0.1917E-08  0.1017E-04  0.7085E-03  0.1068E+06
   -0.937508    1.26016  0.8705E-13  0.4348E-06  0.1519E-08  0.8555E-05  0.5566E-03  0.8399E+06
   -0.975009    1.30691  0.8706E-13  0.3606E-06  0.1204E-08  0.6982E-05  0.4221E-03  0.5965E+07
   -1.012510    1.36287  0.8707E-13  0.2967E-06  0.9438E-09  0.5973E-05  0.3054E-03  0.7933E+08
   -1.050010    1.40884  0.8708E-13  0.2411E-06  0.7300E-09  0.4963E-05  0.2304E-03  0.1186E+10
   -1.087511    1.44289  0.8709E-13  0.1920E-06  0.5542E-09  0.3941E-05  0.1770E-03  0.1917E+11
   -1.125011    1.46857  0.8709E-13  0.1489E-06  0.4107E-09  0.2946E-05  0.1352E-03  0.4759E+12
   -1.162512    1.50000  0.8709E-13  0.1115E-06  0.2949E-09  0.2046E-05  0.1011E-03  0.1372E+14
   -1.200012    1.54469  0.8709E-13  0.7980E-07  0.2032E-09  0.1278E-05  0.7311E-04  0.4208E+15
   -1.237512    1.61155  0.8710E-13  0.5344E-07  0.1321E-09  0.6622E-06  0.5053E-04  0.1565E+16
   -1.275011    1.71390  0.8710E-13  0.3105E-07  0.7560E-10  0.2068E-06  0.3258E-04  0.3112E+16
   -1.312511    1.87232  0.8711E-13  0.1221E-07  0.3021E-10  0.2606E-07  0.1718E-04  0.4369E+16
   -1.350010    2.11797  0.8712E-13  0.2609E-08  0.7284E-11  0.2475E-08  0.5107E-05  0.5667E+16
   -1.387508    2.48345  0.8713E-13  0.4232E-09  0.1963E-11  0.2949E-09  0.1022E-05  0.6511E+16
   -1.425007    3.00141  0.8714E-13  0.5760E-10  0.1071E-11  0.1146E-09  0.1868E-06  0.3598E+16
   -1.462505    3.68848  0.8716E-13  0.4928E-11  0.1000E-11  0.1003E-09  0.3960E-07 -0.3838E+16
   -1.500003    4.58701  0.8717E-13  0.0000E+00  0.0000E+00  0.0000E+00  0.4675E-07  0.0000E+00
