 1 - depth, m
 2 - temperature, C
 3 - salinity, kg/kg
 4 - turbulent kinetic energy, m**2/s**2
 5 - dissipation rate, m**2/s**3
 6 - kinematic heat conductance, m**2/s
 7 - modulus of horizontal velocity, m/s
 8 - Richardson number, n/d
   -0.000000   -0.00000  0.3575E-12  0.6124E-12  0.1788E-15  0.1000E-09  0.0000E+00  0.1452E+17
   -0.037498    0.22454  0.3158E-12  0.9509E-12  0.2031E-15  0.1000E-09  0.0000E+00  0.1354E+17
   -0.074996    0.44759  0.2728E-12  0.1682E-11  0.3047E-15  0.1000E-09  0.0000E+00  0.1257E+17
   -0.112494    0.66897  0.2198E-12  0.3006E-11  0.5061E-15  0.1000E-09  0.0000E+00  0.1162E+17
   -0.149993    0.88850  0.1710E-12  0.5321E-11  0.8629E-15  0.1000E-09  0.0000E+00  0.1069E+17
   -0.187492    1.10597  0.1351E-12  0.9327E-11  0.1476E-14  0.1000E-09  0.0000E+00  0.9775E+16
   -0.224991    1.32114  0.1127E-12  0.1623E-10  0.2516E-14  0.1000E-09  0.0000E+00  0.8883E+16
   -0.262490    1.53377  0.1004E-12  0.2806E-10  0.4270E-14  0.1000E-09  0.0000E+00  0.8020E+16
   -0.299990    1.74377  0.9440E-13  0.4823E-10  0.7210E-14  0.1000E-09  0.0000E+00  0.7184E+16
   -0.337490    1.95094  0.9149E-13  0.8250E-10  0.1212E-13  0.1000E-09  0.0000E+00  0.6375E+16
   -0.374990    2.15502  0.8989E-13  0.1405E-09  0.2028E-13  0.1000E-09  0.0000E+00  0.5617E+16
   -0.412490    2.35657  0.8869E-13  0.2382E-09  0.3381E-13  0.1000E-09  0.0000E+00  0.4896E+16
   -0.449991    2.55589  0.8755E-13  0.4024E-09  0.5613E-13  0.1000E-09  0.0000E+00  0.4198E+16
   -0.487492    2.75286  0.8645E-13  0.6768E-09  0.9282E-13  0.1000E-09  0.0000E+00  0.3526E+16
   -0.524992    2.94741  0.8549E-13  0.1130E-08  0.1525E-12  0.1469E-09  0.0000E+00  0.2881E+16
   -0.562493    3.13957  0.8478E-13  0.1876E-08  0.2489E-12  0.3057E-09  0.0000E+00  0.2261E+16
   -0.599994    3.32922  0.8434E-13  0.3099E-08  0.4044E-12  0.6742E-09  0.0000E+00  0.1665E+16
   -0.637495    3.51615  0.8411E-13  0.5094E-08  0.6540E-12  0.1659E-08  0.0000E+00  0.1094E+16
   -0.674997    3.69967  0.8401E-13  0.8324E-08  0.1052E-11  0.5298E-08  0.0000E+00  0.5512E+15
   -0.712498    3.87665  0.8398E-13  0.1328E-07  0.1656E-11  0.5112E-07  0.0000E+00  0.8993E+14
   -0.749999    4.01003  0.8397E-13  0.1390E-07  0.1737E-11  0.4322E-04  0.0000E+00 -0.2221E+12
   -0.787500    4.01062  0.8397E-13  0.1418E-07  0.1781E-11  0.4251E-04  0.0000E+00 -0.2317E+12
   -0.825001    4.01122  0.8397E-13  0.1444E-07  0.1829E-11  0.4277E-04  0.0000E+00 -0.2365E+12
   -0.862503    4.01182  0.8397E-13  0.1466E-07  0.1879E-11  0.4290E-04  0.0000E+00 -0.2420E+12
   -0.900004    4.01242  0.8397E-13  0.1485E-07  0.1932E-11  0.4281E-04  0.0000E+00 -0.2488E+12
   -0.937505    4.01302  0.8397E-13  0.1500E-07  0.1989E-11  0.4250E-04  0.0000E+00 -0.2571E+12
   -0.975006    4.01363  0.8397E-13  0.1513E-07  0.2051E-11  0.4196E-04  0.0000E+00 -0.2670E+12
   -1.012506    4.01425  0.8397E-13  0.1522E-07  0.2117E-11  0.4121E-04  0.0000E+00 -0.2797E+12
   -1.050007    4.01488  0.8397E-13  0.1527E-07  0.2191E-11  0.4021E-04  0.0000E+00 -0.2952E+12
   -1.087508    4.01553  0.8397E-13  0.1528E-07  0.2274E-11  0.3896E-04  0.0000E+00 -0.3139E+12
   -1.125008    4.01621  0.8397E-13  0.1525E-07  0.2368E-11  0.3743E-04  0.0000E+00 -0.3362E+12
   -1.162508    4.01692  0.8397E-13  0.1517E-07  0.2475E-11  0.3561E-04  0.0000E+00 -0.3638E+12
   -1.200008    4.01767  0.8397E-13  0.1503E-07  0.2599E-11  0.3350E-04  0.0000E+00 -0.3987E+12
   -1.237508    4.01847  0.8397E-13  0.1481E-07  0.2758E-11  0.3098E-04  0.0000E+00 -0.4450E+12
   -1.275007    4.01934  0.8397E-13  0.1444E-07  0.2986E-11  0.2480E-04  0.0000E+00 -0.5759E+12
   -1.312506    4.02044  0.8397E-13  0.1389E-07  0.3314E-11  0.1869E-04  0.0000E+00 -0.7977E+12
   -1.350005    4.02190  0.8397E-13  0.1308E-07  0.3805E-11  0.1353E-04  0.0000E+00 -0.1163E+13
   -1.387504    4.02393  0.8397E-13  0.1186E-07  0.4638E-11  0.8456E-05  0.0000E+00 -0.2000E+13
   -1.425002    4.02718  0.8397E-13  0.9791E-08  0.6478E-11  0.3661E-05  0.0000E+00 -0.5185E+13
   -1.462500    4.03461  0.8397E-13  0.5754E-08  0.1351E-10  0.4872E-06  0.0000E+00 -0.5048E+14
   -1.499998    4.08003  0.8397E-13  0.0000E+00  0.0000E+00  0.0000E+00  0.0000E+00  0.0000E+00
