 1 - depth, m
 2 - temperature, C
 3 - salinity, kg/kg
 4 - turbulent kinetic energy, m**2/s**2
 5 - dissipation rate, m**2/s**3
 6 - kinematic heat conductance, m**2/s
 7 - modulus of horizontal velocity, m/s
 8 - Richardson number, n/d
   -0.000000   16.36354  0.9937E-13  0.3002E-04  0.4385E-05  0.2566E-04  0.3618E-01 -0.2351E-01
   -0.037498   16.40106  0.9938E-13  0.2129E-04  0.1297E-05  0.4579E-04  0.1898E-01 -0.4115E-01
   -0.074996   16.41470  0.9938E-13  0.1743E-04  0.5972E-06  0.6553E-04  0.1409E-01 -0.7436E-01
   -0.112495   16.42384  0.9938E-13  0.1492E-04  0.3391E-06  0.8635E-04  0.1112E-01 -0.1119E+00
   -0.149993   16.43067  0.9938E-13  0.1314E-04  0.2167E-06  0.1225E-03  0.9080E-02  0.1086E+02
   -0.187493   16.43573  0.9938E-13  0.1186E-04  0.1501E-06  0.1796E-03  0.7620E-02  0.4886E+02
   -0.224992   16.43938  0.9938E-13  0.1098E-04  0.1115E-06  0.2852E-03  0.6558E-02  0.1626E+03
   -0.262492   16.44167  0.9938E-13  0.1039E-04  0.8796E-07  0.3701E-03  0.5792E-02  0.1649E+03
   -0.299992   16.44323  0.9938E-13  0.9976E-05  0.7189E-07  0.4008E-03  0.5170E-02  0.9752E+01
   -0.337492   16.44456  0.9938E-13  0.9665E-05  0.6003E-07  0.4238E-03  0.4623E-02  0.4177E+01
   -0.374992   16.44578  0.9938E-13  0.9428E-05  0.5100E-07  0.4470E-03  0.4144E-02  0.3672E+01
   -0.412493   16.44692  0.9938E-13  0.9244E-05  0.4397E-07  0.4731E-03  0.3725E-02  0.3190E+01
   -0.449994   16.44797  0.9938E-13  0.9101E-05  0.3843E-07  0.5027E-03  0.3361E-02  0.2760E+01
   -0.487494   16.44894  0.9939E-13  0.8990E-05  0.3404E-07  0.5350E-03  0.3047E-02  0.2440E+01
   -0.524995   16.44984  0.9939E-13  0.8903E-05  0.3052E-07  0.5577E-03  0.2775E-02  0.2545E+01
   -0.562497   16.45069  0.9939E-13  0.8826E-05  0.2763E-07  0.5817E-03  0.2521E-02  0.2623E+01
   -0.599998   16.45149  0.9939E-13  0.8745E-05  0.2522E-07  0.6067E-03  0.2282E-02  0.2679E+01
   -0.637499   16.45225  0.9939E-13  0.8651E-05  0.2318E-07  0.6316E-03  0.2056E-02  0.2721E+01
   -0.675000   16.45298  0.9939E-13  0.8537E-05  0.2142E-07  0.6533E-03  0.1844E-02  0.2752E+01
   -0.712502   16.45366  0.9939E-13  0.8394E-05  0.1990E-07  0.6776E-03  0.1643E-02  0.2820E+01
   -0.750003   16.45432  0.9939E-13  0.8211E-05  0.1850E-07  0.6788E-03  0.1457E-02  0.2837E+01
   -0.787505   16.45496  0.9939E-13  0.8092E-05  0.1784E-07  0.1136E-02  0.1260E-02  0.1859E+01
   -0.825006   16.45535  0.9939E-13  0.8004E-05  0.1747E-07  0.1109E-02  0.1199E-02  0.1819E+01
   -0.862507   16.45573  0.9939E-13  0.7907E-05  0.1717E-07  0.1155E-02  0.1141E-02  0.1513E+01
   -0.900009   16.45610  0.9939E-13  0.7811E-05  0.1696E-07  0.1089E-02  0.1084E-02  0.1696E+01
   -0.937510   16.45649  0.9939E-13  0.7672E-05  0.1677E-07  0.7173E-03  0.1042E-02  0.1875E+01
   -0.975011   16.45707  0.9939E-13  0.7375E-05  0.1654E-07  0.7225E-03  0.9167E-03  0.1949E+01
   -1.012512   16.45765  0.9939E-13  0.7084E-05  0.1646E-07  0.7346E-03  0.8113E-03  0.1732E+01
   -1.050013   16.45822  0.9939E-13  0.6796E-05  0.1650E-07  0.7465E-03  0.7216E-03  0.1556E+01
   -1.087514   16.45877  0.9939E-13  0.6522E-05  0.1668E-07  0.7345E-03  0.6487E-03  0.1397E+01
   -1.125014   16.45933  0.9939E-13  0.6267E-05  0.1696E-07  0.6659E-03  0.5904E-03  0.1235E+01
   -1.162515   16.45993  0.9939E-13  0.6036E-05  0.1733E-07  0.6036E-03  0.5446E-03  0.1091E+01
   -1.200015   16.46060  0.9939E-13  0.5822E-05  0.1780E-07  0.5597E-03  0.5093E-03  0.1089E+01
   -1.237515   16.46132  0.9939E-13  0.5601E-05  0.1843E-07  0.5156E-03  0.4817E-03  0.1516E+01
   -1.275014   16.46210  0.9939E-13  0.5351E-05  0.1936E-07  0.4537E-03  0.4568E-03  0.2571E+01
   -1.312514   16.46298  0.9939E-13  0.5057E-05  0.2076E-07  0.3859E-03  0.4332E-03  0.5081E+01
   -1.350013   16.46401  0.9939E-13  0.4701E-05  0.2301E-07  0.2947E-03  0.4109E-03  0.1299E+02
   -1.387512   16.46536  0.9939E-13  0.4259E-05  0.2693E-07  0.2530E-03  0.3890E-03  0.3968E+02
   -1.425010   16.46693  0.9939E-13  0.3556E-05  0.3826E-07  0.1111E-03  0.3715E-03 -0.1941E+03
   -1.462509   16.47304  0.9939E-13  0.2016E-05  0.8697E-07  0.2844E-04  0.3459E-03 -0.5622E+04
   -1.500006   16.48771  0.9939E-13  0.0000E+00  0.0000E+00  0.0000E+00  0.3497E-03  0.0000E+00
