 1 - depth, m
 2 - temperature, C
 3 - salinity, kg/kg
 4 - turbulent kinetic energy, m**2/s**2
 5 - dissipation rate, m**2/s**3
 6 - kinematic heat conductance, m**2/s
 7 - modulus of horizontal velocity, m/s
 8 - Richardson number, n/d
   -0.000000   -0.00000  0.5484E-12  0.4096E-13  0.8590E-16  0.1000E-09  0.0000E+00  0.1361E+17
   -0.037498    0.21012  0.3475E-12  0.6822E-13  0.8590E-16  0.1000E-09  0.0000E+00  0.1272E+17
   -0.074995    0.41837  0.2546E-12  0.2596E-12  0.8590E-16  0.1000E-09  0.0000E+00  0.1185E+17
   -0.112494    0.62464  0.1996E-12  0.6180E-12  0.1283E-15  0.1000E-09  0.0000E+00  0.1099E+17
   -0.149992    0.82885  0.1611E-12  0.1228E-11  0.2189E-15  0.1000E-09  0.0000E+00  0.1016E+17
   -0.187491    1.03085  0.1333E-12  0.2266E-11  0.3805E-15  0.1000E-09  0.0000E+00  0.9354E+16
   -0.224990    1.23050  0.1144E-12  0.4051E-11  0.6591E-15  0.1000E-09  0.0000E+00  0.8566E+16
   -0.262490    1.42765  0.1026E-12  0.7125E-11  0.1133E-14  0.1000E-09  0.0000E+00  0.7806E+16
   -0.299989    1.62222  0.9578E-13  0.1241E-10  0.1936E-14  0.1000E-09  0.0000E+00  0.7069E+16
   -0.337489    1.81403  0.9191E-13  0.2147E-10  0.3290E-14  0.1000E-09  0.0000E+00  0.6357E+16
   -0.374989    2.00292  0.8963E-13  0.3697E-10  0.5563E-14  0.1000E-09  0.0000E+00  0.5686E+16
   -0.412490    2.18921  0.8812E-13  0.6334E-10  0.9367E-14  0.1000E-09  0.0000E+00  0.5046E+16
   -0.449990    2.37304  0.8697E-13  0.1081E-09  0.1571E-13  0.1000E-09  0.0000E+00  0.4429E+16
   -0.487491    2.55426  0.8603E-13  0.1836E-09  0.2623E-13  0.1000E-09  0.0000E+00  0.3836E+16
   -0.524991    2.73278  0.8529E-13  0.3098E-09  0.4350E-13  0.1000E-09  0.0000E+00  0.3271E+16
   -0.562492    2.90861  0.8474E-13  0.5193E-09  0.7171E-13  0.1000E-09  0.0000E+00  0.2730E+16
   -0.599993    3.08171  0.8437E-13  0.8663E-09  0.1176E-12  0.1475E-09  0.0000E+00  0.2215E+16
   -0.637494    3.25199  0.8416E-13  0.1439E-08  0.1922E-12  0.3096E-09  0.0000E+00  0.1723E+16
   -0.674995    3.41931  0.8405E-13  0.2379E-08  0.3126E-12  0.6906E-09  0.0000E+00  0.1256E+16
   -0.712496    3.58343  0.8400E-13  0.3916E-08  0.5062E-12  0.1725E-08  0.0000E+00  0.8143E+15
   -0.749997    3.74365  0.8398E-13  0.6408E-08  0.8152E-12  0.5646E-08  0.0000E+00  0.4007E+15
   -0.787498    3.89761  0.8398E-13  0.1020E-07  0.1281E-11  0.6123E-07  0.0000E+00  0.5799E+14
   -0.824999    4.00813  0.8398E-13  0.1082E-07  0.1363E-11  0.3440E-04  0.0000E+00 -0.2241E+12
   -0.862501    4.00878  0.8398E-13  0.1110E-07  0.1407E-11  0.3405E-04  0.0000E+00 -0.2334E+12
   -0.900002    4.00943  0.8398E-13  0.1134E-07  0.1452E-11  0.3433E-04  0.0000E+00 -0.2388E+12
   -0.937502    4.01008  0.8398E-13  0.1155E-07  0.1500E-11  0.3442E-04  0.0000E+00 -0.2453E+12
   -0.975003    4.01073  0.8398E-13  0.1172E-07  0.1551E-11  0.3429E-04  0.0000E+00 -0.2536E+12
   -1.012504    4.01139  0.8398E-13  0.1186E-07  0.1606E-11  0.3394E-04  0.0000E+00 -0.2645E+12
   -1.050005    4.01205  0.8398E-13  0.1196E-07  0.1666E-11  0.3335E-04  0.0000E+00 -0.2780E+12
   -1.087505    4.01273  0.8398E-13  0.1202E-07  0.1732E-11  0.3251E-04  0.0000E+00 -0.2947E+12
   -1.125005    4.01343  0.8398E-13  0.1205E-07  0.1806E-11  0.3140E-04  0.0000E+00 -0.3150E+12
   -1.162505    4.01417  0.8398E-13  0.1203E-07  0.1890E-11  0.3003E-04  0.0000E+00 -0.3404E+12
   -1.200005    4.01494  0.8398E-13  0.1195E-07  0.1993E-11  0.2832E-04  0.0000E+00 -0.3734E+12
   -1.237505    4.01576  0.8398E-13  0.1179E-07  0.2132E-11  0.2460E-04  0.0000E+00 -0.4456E+12
   -1.275004    4.01671  0.8398E-13  0.1152E-07  0.2321E-11  0.1966E-04  0.0000E+00 -0.5810E+12
   -1.312503    4.01790  0.8398E-13  0.1109E-07  0.2581E-11  0.1545E-04  0.0000E+00 -0.7767E+12
   -1.350002    4.01944  0.8398E-13  0.1046E-07  0.2965E-11  0.1133E-04  0.0000E+00 -0.1124E+13
   -1.387501    4.02154  0.8398E-13  0.9465E-08  0.3616E-11  0.7085E-05  0.0000E+00 -0.1945E+13
   -1.424999    4.02490  0.8398E-13  0.7772E-08  0.5055E-11  0.3038E-05  0.0000E+00 -0.5135E+13
   -1.462497    4.03263  0.8398E-13  0.4601E-08  0.1036E-10  0.4153E-06  0.0000E+00 -0.4792E+14
   -1.499995    4.07724  0.8398E-13  0.0000E+00  0.0000E+00  0.0000E+00  0.0000E+00  0.0000E+00
