 1 - depth, m
 2 - temperature, C
 3 - salinity, kg/kg
 4 - turbulent kinetic energy, m**2/s**2
 5 - dissipation rate, m**2/s**3
 6 - kinematic heat conductance, m**2/s
 7 - modulus of horizontal velocity, m/s
 8 - Richardson number, n/d
   -0.000000   -0.00000  0.4525E-12  0.1912E-08  0.3444E-11  0.6301E-09  0.2651E-65  0.1528E+17
   -0.037496    0.23680  0.4736E-13  0.8285E-08  0.2234E-11  0.5657E-09  0.1139E-65  0.1117E+17
   -0.074993    0.42049  0.1032E-12  0.1887E-07  0.2023E-11  0.7206E-09  0.4784E-66  0.8007E+16
   -0.112490    0.55863  0.9621E-13  0.3314E-07  0.2159E-11  0.1115E-08  0.1966E-66  0.5584E+16
   -0.149987    0.65863  0.9575E-13  0.5116E-07  0.2508E-11  0.1978E-08  0.7902E-67  0.3728E+16
   -0.187485    0.72724  0.9454E-13  0.7331E-07  0.3036E-11  0.4020E-08  0.3096E-67  0.2303E+16
   -0.224983    0.77047  0.9387E-13  0.1000E-06  0.3734E-11  0.1052E-07  0.1163E-67  0.1208E+16
   -0.262481    0.79345  0.9372E-13  0.1303E-06  0.4562E-11  0.5264E-07  0.3888E-68  0.5342E+15
   -0.299980    0.80373  0.9368E-13  0.1461E-06  0.4991E-11  0.5166E-03  0.1155E-68  0.1433E+15
   -0.337478    0.80653  0.9367E-13  0.1484E-06  0.5053E-11  0.1169E-02  0.1151E-68  0.5869E+13
   -0.374977    0.80664  0.9367E-13  0.1485E-06  0.5055E-11  0.1339E-02  0.1150E-68 -0.3661E+11
   -0.412476    0.80664  0.9367E-13  0.1485E-06  0.5056E-11  0.1336E-02  0.1147E-68 -0.5668E+11
   -0.449975    0.80664  0.9367E-13  0.1485E-06  0.5057E-11  0.1335E-02  0.1146E-68 -0.7374E+11
   -0.487475    0.80664  0.9367E-13  0.1485E-06  0.5057E-11  0.1335E-02  0.1145E-68 -0.8004E+11
   -0.524974    0.80664  0.9367E-13  0.1485E-06  0.5055E-11  0.1341E-02  0.1146E-68 -0.2935E+11
   -0.562474    0.80664  0.9367E-13  0.1484E-06  0.5053E-11  0.5806E-03  0.1146E-68  0.1042E+15
   -0.599974    0.80867  0.9360E-13  0.1349E-06  0.4638E-11  0.2141E-07  0.1145E-68  0.6457E+15
   -0.637473    0.82107  0.9291E-13  0.1075E-06  0.3748E-11  0.8612E-08  0.9794E-69  0.1230E+16
   -0.674973    0.84478  0.9167E-13  0.8481E-07  0.3005E-11  0.4625E-08  0.8201E-69  0.1816E+16
   -0.712473    0.88010  0.9045E-13  0.6652E-07  0.2398E-11  0.2793E-08  0.6727E-69  0.2391E+16
   -0.749973    0.92725  0.8905E-13  0.5185E-07  0.1905E-11  0.1749E-08  0.5380E-69  0.3035E+16
   -0.787473    0.98822  0.8760E-13  0.4012E-07  0.1508E-11  0.1143E-08  0.4182E-69  0.3683E+16
   -0.824973    1.06403  0.8685E-13  0.3078E-07  0.1191E-11  0.7722E-09  0.3151E-69  0.4308E+16
   -0.862473    1.15543  0.8663E-13  0.2336E-07  0.9396E-12  0.5347E-09  0.2293E-69  0.4914E+16
   -0.899972    1.26368  0.8586E-13  0.1745E-07  0.7441E-12  0.3782E-09  0.1598E-69  0.5505E+16
   -0.937472    1.39062  0.8521E-13  0.1277E-07  0.5968E-12  0.2747E-09  0.1040E-69  0.6076E+16
   -0.974972    1.53883  0.8494E-13  0.9082E-08  0.4934E-12  0.2082E-09  0.5876E-70  0.6614E+16
   -1.012471    1.71182  0.8504E-13  0.6207E-08  0.4342E-12  0.1753E-09  0.2027E-70  0.6899E+16
   -1.049971    1.90863  0.8506E-13  0.4035E-08  0.4295E-12  0.1673E-09  0.6341E-71  0.7117E+16
   -1.087470    2.13506  0.8500E-13  0.2589E-08  0.5189E-12  0.1987E-09  0.1926E-71  0.7234E+16
   -1.124969    2.40048  0.8500E-13  0.2075E-08  0.8402E-12  0.3281E-09  0.5680E-72  0.7285E+16
   -1.162468    2.72670  0.8498E-13  0.3151E-08  0.1841E-11  0.8835E-09  0.1624E-72  0.6566E+16
   -1.199966    3.12710  0.8495E-13  0.7758E-08  0.4803E-11  0.5743E-08  0.4501E-73  0.4519E+16
   -1.237465    3.59876  0.8488E-13  0.1569E-07  0.1011E-10  0.4012E-05  0.1205E-73  0.1789E+16
   -1.274963    3.95299  0.8481E-13  0.2332E-07  0.1587E-10  0.1123E-04  0.3062E-74  0.2021E+15
   -1.312461    4.07064  0.8479E-13  0.2794E-07  0.2040E-10  0.1457E-04  0.5337E-75 -0.8404E+13
   -1.349958    4.07682  0.8479E-13  0.2965E-07  0.2420E-10  0.1320E-04  0.2909E-75 -0.1017E+14
   -1.387456    4.08379  0.8479E-13  0.2975E-07  0.2948E-10  0.1028E-04  0.1621E-75 -0.1449E+14
   -1.424953    4.09294  0.8479E-13  0.2759E-07  0.3955E-10  0.5937E-05  0.9111E-76 -0.2864E+14
   -1.462450    4.10904  0.8479E-13  0.2051E-07  0.7573E-10  0.1368E-05  0.5723E-76 -0.1602E+15
   -1.499946    4.17516  0.8479E-13  0.0000E+00  0.0000E+00  0.0000E+00  0.8591E-76  0.0000E+00
