 1 - depth, m
 2 - temperature, C
 3 - salinity, kg/kg
 4 - turbulent kinetic energy, m**2/s**2
 5 - dissipation rate, m**2/s**3
 6 - kinematic heat conductance, m**2/s
 7 - modulus of horizontal velocity, m/s
 8 - Richardson number, n/d
   -0.000000   -0.00000  0.8781E-12  0.4096E-13  0.8590E-16  0.1000E-09  0.0000E+00  0.1214E+17
   -0.037498    0.18680  0.4727E-12  0.4096E-13  0.8590E-16  0.1000E-09  0.0000E+00  0.1127E+17
   -0.074996    0.36949  0.2119E-12  0.4096E-13  0.8590E-16  0.1000E-09  0.0000E+00  0.1045E+17
   -0.112494    0.54804  0.1212E-12  0.4096E-13  0.8590E-16  0.1000E-09  0.0000E+00  0.9665E+16
   -0.149992    0.72238  0.1016E-12  0.4096E-13  0.8590E-16  0.1000E-09  0.0000E+00  0.8918E+16
   -0.187491    0.89245  0.9829E-13  0.4096E-13  0.8590E-16  0.1000E-09  0.0000E+00  0.8208E+16
   -0.224991    1.05819  0.9782E-13  0.6511E-13  0.8590E-16  0.1000E-09  0.0000E+00  0.7536E+16
   -0.262490    1.21953  0.9774E-13  0.2532E-12  0.8998E-16  0.1000E-09  0.0000E+00  0.6923E+16
   -0.299990    1.37696  0.9772E-13  0.6155E-12  0.1524E-15  0.1000E-09  0.0000E+00  0.6350E+16
   -0.337490    1.53061  0.9771E-13  0.1274E-11  0.2828E-15  0.1000E-09  0.0000E+00  0.5810E+16
   -0.374990    1.68052  0.9769E-13  0.2482E-11  0.5273E-15  0.1000E-09  0.0000E+00  0.5387E+16
   -0.412490    1.82920  0.9766E-13  0.4717E-11  0.9755E-15  0.1000E-09  0.0000E+00  0.5030E+16
   -0.449991    1.97831  0.9758E-13  0.8853E-11  0.1791E-14  0.1000E-09  0.0000E+00  0.4678E+16
   -0.487491    2.12807  0.9737E-13  0.1648E-10  0.3269E-14  0.1000E-09  0.0000E+00  0.4329E+16
   -0.524992    2.27871  0.9692E-13  0.3040E-10  0.5914E-14  0.1000E-09  0.0000E+00  0.3982E+16
   -0.562493    2.43049  0.9614E-13  0.5565E-10  0.1062E-13  0.1000E-09  0.0000E+00  0.3632E+16
   -0.599994    2.58358  0.9501E-13  0.1012E-09  0.1895E-13  0.1000E-09  0.0000E+00  0.3278E+16
   -0.637495    2.73815  0.9368E-13  0.1832E-09  0.3366E-13  0.1000E-09  0.0000E+00  0.2917E+16
   -0.674996    2.89436  0.9241E-13  0.3297E-09  0.5946E-13  0.1000E-09  0.0000E+00  0.2547E+16
   -0.712497    3.05233  0.9138E-13  0.5904E-09  0.1045E-12  0.1339E-09  0.0000E+00  0.2167E+16
   -0.749998    3.21215  0.9061E-13  0.1052E-08  0.1829E-12  0.2841E-09  0.0000E+00  0.1787E+16
   -0.787499    3.37500  0.8996E-13  0.1865E-08  0.3183E-12  0.6375E-09  0.0000E+00  0.1387E+16
   -0.825000    3.54118  0.8936E-13  0.3288E-08  0.5513E-12  0.1596E-08  0.0000E+00  0.9599E+15
   -0.862502    3.71009  0.8895E-13  0.5757E-08  0.9486E-12  0.5190E-08  0.0000E+00  0.5086E+15
   -0.900003    3.87872  0.8877E-13  0.9816E-08  0.1594E-11  0.5205E-07  0.0000E+00  0.8691E+14
   -0.937504    4.00971  0.8874E-13  0.1090E-07  0.1779E-11  0.2499E-04  0.0000E+00 -0.3796E+12
   -0.975004    4.01072  0.8874E-13  0.1139E-07  0.1881E-11  0.2737E-04  0.0000E+00 -0.3659E+12
   -1.012505    4.01166  0.8874E-13  0.1179E-07  0.1982E-11  0.2770E-04  0.0000E+00 -0.3844E+12
   -1.050006    4.01261  0.8874E-13  0.1211E-07  0.2087E-11  0.2779E-04  0.0000E+00 -0.4085E+12
   -1.087506    4.01358  0.8874E-13  0.1237E-07  0.2200E-11  0.2759E-04  0.0000E+00 -0.4388E+12
   -1.125007    4.01459  0.8874E-13  0.1258E-07  0.2327E-11  0.2704E-04  0.0000E+00 -0.4736E+12
   -1.162507    4.01564  0.8874E-13  0.1274E-07  0.2476E-11  0.2614E-04  0.0000E+00 -0.5181E+12
   -1.200007    4.01675  0.8874E-13  0.1283E-07  0.2663E-11  0.2430E-04  0.0000E+00 -0.5909E+12
   -1.237506    4.01797  0.8874E-13  0.1283E-07  0.2900E-11  0.2084E-04  0.0000E+00 -0.7330E+12
   -1.275006    4.01941  0.8874E-13  0.1271E-07  0.3204E-11  0.1750E-04  0.0000E+00 -0.9356E+12
   -1.312505    4.02117  0.8874E-13  0.1242E-07  0.3612E-11  0.1427E-04  0.0000E+00 -0.1240E+13
   -1.350004    4.02338  0.8874E-13  0.1188E-07  0.4203E-11  0.1080E-04  0.0000E+00 -0.1796E+13
   -1.387503    4.02635  0.8874E-13  0.1095E-07  0.5186E-11  0.7000E-05  0.0000E+00 -0.3104E+13
   -1.425001    4.03103  0.8874E-13  0.9248E-08  0.7308E-11  0.3194E-05  0.0000E+00 -0.8037E+13
   -1.462499    4.04133  0.8874E-13  0.5922E-08  0.1495E-10  0.5232E-06  0.0000E+00 -0.6789E+14
   -1.499996    4.09450  0.8874E-13  0.0000E+00  0.0000E+00  0.0000E+00  0.0000E+00  0.0000E+00
