 1 - depth, m
 2 - temperature, C
 3 - salinity, kg/kg
 4 - turbulent kinetic energy, m**2/s**2
 5 - dissipation rate, m**2/s**3
 6 - kinematic heat conductance, m**2/s
 7 - modulus of horizontal velocity, m/s
 8 - Richardson number, n/d
   -0.000000   -0.00000  0.6399E-12  0.4096E-13  0.8590E-16  0.1000E-09  0.0000E+00  0.8480E+16
   -0.037498    0.12945  0.5092E-12  0.4096E-13  0.8590E-16  0.1000E-09  0.0000E+00  0.8180E+16
   -0.074996    0.25887  0.3674E-12  0.4096E-13  0.8590E-16  0.1000E-09  0.0000E+00  0.7875E+16
   -0.112494    0.38815  0.2628E-12  0.4096E-13  0.8590E-16  0.1000E-09  0.0000E+00  0.7567E+16
   -0.149993    0.51719  0.1937E-12  0.4096E-13  0.8590E-16  0.1000E-09  0.0000E+00  0.7255E+16
   -0.187492    0.64589  0.1512E-12  0.4096E-13  0.8590E-16  0.1000E-09  0.0000E+00  0.6943E+16
   -0.224991    0.77415  0.1266E-12  0.4096E-13  0.8590E-16  0.1000E-09  0.0000E+00  0.6629E+16
   -0.262491    0.90187  0.1128E-12  0.4096E-13  0.8590E-16  0.1000E-09  0.0000E+00  0.6315E+16
   -0.299990    1.02894  0.1051E-12  0.4096E-13  0.8590E-16  0.1000E-09  0.0000E+00  0.6002E+16
   -0.337490    1.15527  0.1008E-12  0.4096E-13  0.8590E-16  0.1000E-09  0.0000E+00  0.5691E+16
   -0.374991    1.28077  0.9821E-13  0.4096E-13  0.8590E-16  0.1000E-09  0.0000E+00  0.5392E+16
   -0.412491    1.40556  0.9659E-13  0.4096E-13  0.8590E-16  0.1000E-09  0.0000E+00  0.5100E+16
   -0.449992    1.52967  0.9544E-13  0.4096E-13  0.8590E-16  0.1000E-09  0.0000E+00  0.4811E+16
   -0.487492    1.65306  0.9450E-13  0.4096E-13  0.8590E-16  0.1000E-09  0.0000E+00  0.4524E+16
   -0.524993    1.77560  0.9365E-13  0.4096E-13  0.8590E-16  0.1000E-09  0.0000E+00  0.4236E+16
   -0.562494    1.89710  0.9287E-13  0.4096E-13  0.8590E-16  0.1000E-09  0.0000E+00  0.3953E+16
   -0.599995    2.01749  0.9213E-13  0.4096E-13  0.8590E-16  0.1000E-09  0.0000E+00  0.3676E+16
   -0.637496    2.13671  0.9144E-13  0.4096E-13  0.8590E-16  0.1000E-09  0.0000E+00  0.3406E+16
   -0.674997    2.25470  0.9083E-13  0.4096E-13  0.8590E-16  0.1000E-09  0.0000E+00  0.3142E+16
   -0.712499    2.37139  0.9031E-13  0.4096E-13  0.8590E-16  0.1000E-09  0.0000E+00  0.2885E+16
   -0.750000    2.48674  0.8988E-13  0.4096E-13  0.8590E-16  0.1000E-09  0.0000E+00  0.2640E+16
   -0.787501    2.60092  0.8955E-13  0.4096E-13  0.8590E-16  0.1000E-09  0.0000E+00  0.2403E+16
   -0.825002    2.71395  0.8930E-13  0.4096E-13  0.8590E-16  0.1000E-09  0.0000E+00  0.2173E+16
   -0.862504    2.82580  0.8913E-13  0.1506E-12  0.9197E-16  0.1000E-09  0.0000E+00  0.1949E+16
   -0.900005    2.93644  0.8902E-13  0.4340E-12  0.1861E-15  0.1000E-09  0.0000E+00  0.1732E+16
   -0.937506    3.04582  0.8895E-13  0.1069E-11  0.4215E-15  0.1000E-09  0.0000E+00  0.1522E+16
   -0.975007    3.15391  0.8891E-13  0.2501E-11  0.9504E-15  0.1000E-09  0.0000E+00  0.1319E+16
   -1.012508    3.26069  0.8889E-13  0.5747E-11  0.2124E-14  0.1000E-09  0.0000E+00  0.1126E+16
   -1.050008    3.36636  0.8888E-13  0.1309E-10  0.4715E-14  0.1000E-09  0.0000E+00  0.9382E+15
   -1.087509    3.47092  0.8888E-13  0.2956E-10  0.1038E-13  0.1000E-09  0.0000E+00  0.7567E+15
   -1.125009    3.57433  0.8887E-13  0.6612E-10  0.2266E-13  0.1098E-09  0.0000E+00  0.5874E+15
   -1.162509    3.67783  0.8887E-13  0.1466E-09  0.4905E-13  0.3240E-09  0.0000E+00  0.4184E+15
   -1.200009    3.78147  0.8887E-13  0.3221E-09  0.1053E-12  0.1168E-08  0.0000E+00  0.2485E+15
   -1.237509    3.88478  0.8887E-13  0.6990E-09  0.2235E-12  0.7583E-08  0.0000E+00  0.8080E+14
   -1.275009    3.98387  0.8887E-13  0.1358E-08  0.4309E-12  0.9463E-06  0.0000E+00 -0.9663E+12
   -1.312508    3.99849  0.8887E-13  0.1950E-08  0.6980E-12  0.1850E-05  0.0000E+00 -0.1901E+13
   -1.350007    4.00609  0.8887E-13  0.2362E-08  0.1006E-11  0.1945E-05  0.0000E+00 -0.2733E+13
   -1.387506    4.01352  0.8887E-13  0.2565E-08  0.1422E-11  0.1589E-05  0.0000E+00 -0.4579E+13
   -1.425004    4.02271  0.8887E-13  0.2455E-08  0.2131E-11  0.9071E-06  0.0000E+00 -0.1081E+14
   -1.462502    4.03832  0.8887E-13  0.1875E-08  0.3944E-11  0.2271E-06  0.0000E+00 -0.5383E+14
   -1.500000    4.08421  0.8887E-13  0.0000E+00  0.0000E+00  0.0000E+00  0.0000E+00  0.0000E+00
