 1 - depth, m
 2 - temperature, C
 3 - salinity, kg/kg
 4 - turbulent kinetic energy, m**2/s**2
 5 - dissipation rate, m**2/s**3
 6 - kinematic heat conductance, m**2/s
 7 - modulus of horizontal velocity, m/s
 8 - Richardson number, n/d
   -0.000000   -0.00000  0.1608E-12  0.4096E-13  0.8590E-16  0.1000E-09  0.0000E+00  0.8875E+16
   -0.037498    0.13559  0.2084E-12  0.4096E-13  0.8590E-16  0.1000E-09  0.0000E+00  0.8550E+16
   -0.074996    0.27121  0.2432E-12  0.4096E-13  0.8590E-16  0.1000E-09  0.0000E+00  0.8219E+16
   -0.112494    0.40675  0.2547E-12  0.4096E-13  0.8590E-16  0.1000E-09  0.0000E+00  0.7885E+16
   -0.149993    0.54211  0.2423E-12  0.4096E-13  0.8590E-16  0.1000E-09  0.0000E+00  0.7548E+16
   -0.187492    0.67718  0.2151E-12  0.4096E-13  0.8590E-16  0.1000E-09  0.0000E+00  0.7209E+16
   -0.224992    0.81186  0.1835E-12  0.4096E-13  0.8590E-16  0.1000E-09  0.0000E+00  0.6870E+16
   -0.262491    0.94605  0.1546E-12  0.4096E-13  0.8590E-16  0.1000E-09  0.0000E+00  0.6535E+16
   -0.299991    1.07974  0.1318E-12  0.4096E-13  0.8590E-16  0.1000E-09  0.0000E+00  0.6201E+16
   -0.337491    1.21286  0.1154E-12  0.4096E-13  0.8590E-16  0.1000E-09  0.0000E+00  0.5868E+16
   -0.374991    1.34531  0.1043E-12  0.4096E-13  0.8590E-16  0.1000E-09  0.0000E+00  0.5537E+16
   -0.412492    1.47699  0.9697E-13  0.4096E-13  0.8590E-16  0.1000E-09  0.0000E+00  0.5209E+16
   -0.449993    1.60780  0.9231E-13  0.4096E-13  0.8590E-16  0.1000E-09  0.0000E+00  0.4884E+16
   -0.487493    1.73764  0.8934E-13  0.4096E-13  0.8590E-16  0.1000E-09  0.0000E+00  0.4566E+16
   -0.524994    1.86647  0.8745E-13  0.4096E-13  0.8590E-16  0.1000E-09  0.0000E+00  0.4263E+16
   -0.562495    1.99454  0.8623E-13  0.4096E-13  0.8590E-16  0.1000E-09  0.0000E+00  0.3963E+16
   -0.599997    2.12176  0.8544E-13  0.4096E-13  0.8590E-16  0.1000E-09  0.0000E+00  0.3669E+16
   -0.637498    2.24807  0.8492E-13  0.4096E-13  0.8590E-16  0.1000E-09  0.0000E+00  0.3379E+16
   -0.674999    2.37341  0.8457E-13  0.1639E-12  0.8590E-16  0.1000E-09  0.0000E+00  0.3095E+16
   -0.712500    2.49771  0.8435E-13  0.4502E-12  0.1469E-15  0.1000E-09  0.0000E+00  0.2817E+16
   -0.750002    2.62089  0.8420E-13  0.1016E-11  0.2931E-15  0.1000E-09  0.0000E+00  0.2550E+16
   -0.787503    2.74313  0.8411E-13  0.2141E-11  0.5897E-15  0.1000E-09  0.0000E+00  0.2290E+16
   -0.825004    2.86445  0.8405E-13  0.4391E-11  0.1175E-14  0.1000E-09  0.0000E+00  0.2035E+16
   -0.862506    2.98479  0.8402E-13  0.8880E-11  0.2321E-14  0.1000E-09  0.0000E+00  0.1787E+16
   -0.900007    3.10410  0.8400E-13  0.1780E-10  0.4546E-14  0.1000E-09  0.0000E+00  0.1545E+16
   -0.937508    3.22236  0.8399E-13  0.3538E-10  0.8840E-14  0.1000E-09  0.0000E+00  0.1309E+16
   -0.975009    3.33952  0.8399E-13  0.6984E-10  0.1707E-13  0.1000E-09  0.0000E+00  0.1080E+16
   -1.012510    3.45556  0.8398E-13  0.1372E-09  0.3281E-13  0.1068E-09  0.0000E+00  0.8563E+15
   -1.050011    3.57016  0.8398E-13  0.2687E-09  0.6291E-13  0.2725E-09  0.0000E+00  0.6399E+15
   -1.087511    3.68308  0.8398E-13  0.5233E-09  0.1199E-12  0.7689E-09  0.0000E+00  0.4322E+15
   -1.125012    3.79399  0.8398E-13  0.1012E-08  0.2272E-12  0.2662E-08  0.0000E+00  0.2361E+15
   -1.162512    3.90321  0.8398E-13  0.1924E-08  0.4240E-12  0.2201E-07  0.0000E+00  0.5282E+14
   -1.200012    3.99948  0.8398E-13  0.2811E-08  0.6218E-12  0.4686E-05  0.0000E+00 -0.7551E+12
   -1.237512    4.00275  0.8398E-13  0.3246E-08  0.7538E-12  0.5174E-05  0.0000E+00 -0.8341E+12
   -1.275012    4.00573  0.8398E-13  0.3557E-08  0.8967E-12  0.5171E-05  0.0000E+00 -0.9784E+12
   -1.312511    4.00872  0.8398E-13  0.3742E-08  0.1065E-11  0.4725E-05  0.0000E+00 -0.1236E+13
   -1.350010    4.01200  0.8398E-13  0.3778E-08  0.1286E-11  0.3866E-05  0.0000E+00 -0.1740E+13
   -1.387509    4.01601  0.8398E-13  0.3607E-08  0.1625E-11  0.2650E-05  0.0000E+00 -0.2965E+13
   -1.425008    4.02182  0.8398E-13  0.3097E-08  0.2289E-11  0.1263E-05  0.0000E+00 -0.7541E+13
   -1.462506    4.03347  0.8398E-13  0.2091E-08  0.4253E-11  0.2417E-06  0.0000E+00 -0.4658E+14
   -1.500003    4.07673  0.8398E-13  0.0000E+00  0.0000E+00  0.0000E+00  0.0000E+00  0.0000E+00
