 1 - depth, m
 2 - temperature, C
 3 - salinity, kg/kg
 4 - turbulent kinetic energy, m**2/s**2
 5 - dissipation rate, m**2/s**3
 6 - kinematic heat conductance, m**2/s
 7 - modulus of horizontal velocity, m/s
 8 - Richardson number, n/d
   -0.000000   -0.00000  0.3451E-12  0.1136E-11  0.3645E-15  0.1000E-09  0.0000E+00  0.1502E+17
   -0.037498    0.23262  0.3356E-12  0.1827E-11  0.3995E-15  0.1000E-09  0.0000E+00  0.1400E+17
   -0.074996    0.46406  0.2835E-12  0.3290E-11  0.5896E-15  0.1000E-09  0.0000E+00  0.1298E+17
   -0.112494    0.69403  0.2172E-12  0.5904E-11  0.9710E-15  0.1000E-09  0.0000E+00  0.1196E+17
   -0.149993    0.92224  0.1624E-12  0.1042E-10  0.1644E-14  0.1000E-09  0.0000E+00  0.1097E+17
   -0.187492    1.14840  0.1265E-12  0.1816E-10  0.2791E-14  0.1000E-09  0.0000E+00  0.9989E+16
   -0.224991    1.37224  0.1066E-12  0.3139E-10  0.4726E-14  0.1000E-09  0.0000E+00  0.9033E+16
   -0.262491    1.59345  0.9695E-13  0.5389E-10  0.7963E-14  0.1000E-09  0.0000E+00  0.8109E+16
   -0.299991    1.81196  0.9276E-13  0.9196E-10  0.1335E-13  0.1000E-09  0.0000E+00  0.7215E+16
   -0.337491    2.02754  0.9090E-13  0.1562E-09  0.2227E-13  0.1000E-09  0.0000E+00  0.6350E+16
   -0.374991    2.23995  0.8979E-13  0.2640E-09  0.3701E-13  0.1000E-09  0.0000E+00  0.5544E+16
   -0.412491    2.44999  0.8875E-13  0.4444E-09  0.6125E-13  0.1000E-09  0.0000E+00  0.4778E+16
   -0.449992    2.65811  0.8759E-13  0.7452E-09  0.1010E-12  0.1000E-09  0.0000E+00  0.4034E+16
   -0.487493    2.86423  0.8640E-13  0.1245E-08  0.1658E-12  0.1389E-09  0.0000E+00  0.3314E+16
   -0.524993    3.06827  0.8537E-13  0.2064E-08  0.2705E-12  0.2869E-09  0.0000E+00  0.2618E+16
   -0.562494    3.27013  0.8465E-13  0.3401E-08  0.4385E-12  0.6258E-09  0.0000E+00  0.1945E+16
   -0.599995    3.46961  0.8423E-13  0.5576E-08  0.7072E-12  0.1515E-08  0.0000E+00  0.1297E+16
   -0.637497    3.66607  0.8404E-13  0.9088E-08  0.1134E-11  0.4674E-08  0.0000E+00  0.6741E+15
   -0.674998    3.85664  0.8398E-13  0.1453E-07  0.1788E-11  0.3897E-07  0.0000E+00  0.1277E+15
   -0.712499    4.00971  0.8397E-13  0.1514E-07  0.1868E-11  0.4712E-04  0.0000E+00 -0.2156E+12
   -0.750000    4.01029  0.8397E-13  0.1542E-07  0.1911E-11  0.4626E-04  0.0000E+00 -0.2249E+12
   -0.787502    4.01088  0.8397E-13  0.1568E-07  0.1958E-11  0.4653E-04  0.0000E+00 -0.2295E+12
   -0.825003    4.01147  0.8397E-13  0.1591E-07  0.2008E-11  0.4667E-04  0.0000E+00 -0.2347E+12
   -0.862504    4.01206  0.8397E-13  0.1610E-07  0.2061E-11  0.4659E-04  0.0000E+00 -0.2410E+12
   -0.900005    4.01265  0.8397E-13  0.1626E-07  0.2117E-11  0.4631E-04  0.0000E+00 -0.2486E+12
   -0.937506    4.01324  0.8397E-13  0.1640E-07  0.2178E-11  0.4581E-04  0.0000E+00 -0.2576E+12
   -0.975007    4.01385  0.8397E-13  0.1649E-07  0.2244E-11  0.4509E-04  0.0000E+00 -0.2682E+12
   -1.012508    4.01446  0.8397E-13  0.1656E-07  0.2316E-11  0.4416E-04  0.0000E+00 -0.2815E+12
   -1.050009    4.01509  0.8397E-13  0.1659E-07  0.2397E-11  0.4297E-04  0.0000E+00 -0.2978E+12
   -1.087509    4.01575  0.8397E-13  0.1657E-07  0.2487E-11  0.4153E-04  0.0000E+00 -0.3174E+12
   -1.125010    4.01643  0.8397E-13  0.1652E-07  0.2589E-11  0.3982E-04  0.0000E+00 -0.3404E+12
   -1.162510    4.01714  0.8397E-13  0.1641E-07  0.2706E-11  0.3780E-04  0.0000E+00 -0.3689E+12
   -1.200010    4.01790  0.8397E-13  0.1624E-07  0.2842E-11  0.3549E-04  0.0000E+00 -0.4049E+12
   -1.237510    4.01870  0.8397E-13  0.1599E-07  0.3012E-11  0.3282E-04  0.0000E+00 -0.4516E+12
   -1.275010    4.01958  0.8397E-13  0.1561E-07  0.3252E-11  0.2696E-04  0.0000E+00 -0.5691E+12
   -1.312509    4.02066  0.8397E-13  0.1501E-07  0.3610E-11  0.1997E-04  0.0000E+00 -0.8011E+12
   -1.350008    4.02212  0.8397E-13  0.1413E-07  0.4148E-11  0.1434E-04  0.0000E+00 -0.1177E+13
   -1.387507    4.02416  0.8397E-13  0.1282E-07  0.5062E-11  0.8956E-05  0.0000E+00 -0.2024E+13
   -1.425005    4.02743  0.8397E-13  0.1060E-07  0.7081E-11  0.3891E-05  0.0000E+00 -0.5234E+13
   -1.462503    4.03488  0.8397E-13  0.6234E-08  0.1487E-10  0.5167E-06  0.0000E+00 -0.5176E+14
   -1.500001    4.08104  0.8397E-13  0.0000E+00  0.0000E+00  0.0000E+00  0.0000E+00  0.0000E+00
