 1 - depth, m
 2 - temperature, C
 3 - salinity, kg/kg
 4 - turbulent kinetic energy, m**2/s**2
 5 - dissipation rate, m**2/s**3
 6 - kinematic heat conductance, m**2/s
 7 - modulus of horizontal velocity, m/s
 8 - Richardson number, n/d
   -0.000000   16.09720  0.9605E-13  0.6097E-03  0.2444E-02  0.9885E-04  0.3354E+00  0.6685E-02
   -0.037498   16.21982  0.9604E-13  0.3250E-03  0.1248E-02  0.1727E-03  0.1026E+00 -0.1615E-01
   -0.074995   16.26684  0.9604E-13  0.2153E-03  0.4523E-03  0.2138E-03  0.6165E-01 -0.1823E+00
   -0.112494   16.28661  0.9603E-13  0.1668E-03  0.2763E-03  0.2163E-03  0.4828E-01 -0.1154E+01
   -0.149992   16.29624  0.9603E-13  0.1350E-03  0.1791E-03  0.2216E-03  0.4078E-01  0.7593E+00
   -0.187491   16.30333  0.9603E-13  0.1118E-03  0.1179E-03  0.2288E-03  0.3538E-01  0.1755E+02
   -0.224990   16.30905  0.9603E-13  0.9454E-04  0.7719E-04  0.2393E-03  0.3136E-01  0.8644E+00
   -0.262490   16.31321  0.9603E-13  0.8089E-04  0.4893E-04  0.2564E-03  0.2840E-01  0.2138E+02
   -0.299989   16.31689  0.9603E-13  0.7048E-04  0.3044E-04  0.2742E-03  0.2578E-01  0.1024E+02
   -0.337489   16.32035  0.9603E-13  0.6225E-04  0.1858E-04  0.2939E-03  0.2349E-01  0.1642E+02
   -0.374989   16.32355  0.9603E-13  0.5567E-04  0.1125E-04  0.3321E-03  0.2154E-01  0.1824E+02
   -0.412490   16.32612  0.9603E-13  0.5032E-04  0.6801E-05  0.3739E-03  0.1993E-01  0.4444E+02
   -0.449990   16.32852  0.9603E-13  0.4596E-04  0.4175E-05  0.4233E-03  0.1859E-01  0.3952E+02
   -0.487491   16.33042  0.9603E-13  0.4244E-04  0.2637E-05  0.4778E-03  0.1749E-01  0.2508E+02
   -0.524991   16.33219  0.9603E-13  0.3961E-04  0.1705E-05  0.5243E-03  0.1661E-01  0.1632E+02
   -0.562492   16.33384  0.9603E-13  0.3729E-04  0.1154E-05  0.5790E-03  0.1569E-01  0.3750E+02
   -0.599993   16.33524  0.9603E-13  0.3533E-04  0.8109E-06  0.6440E-03  0.1482E-01  0.1168E+03
   -0.637494   16.33659  0.9603E-13  0.3367E-04  0.6041E-06  0.7039E-03  0.1398E-01  0.8217E+02
   -0.674995   16.33767  0.9603E-13  0.3224E-04  0.4725E-06  0.7485E-03  0.1319E-01  0.4077E+03
   -0.712496   16.33875  0.9603E-13  0.3096E-04  0.3812E-06  0.7837E-03  0.1243E-01  0.2131E+03
   -0.749997   16.33965  0.9603E-13  0.2977E-04  0.3178E-06  0.8224E-03  0.1169E-01  0.1134E+03
   -0.787499   16.34059  0.9603E-13  0.2865E-04  0.2716E-06  0.8519E-03  0.1099E-01  0.2418E+03
   -0.825000   16.34139  0.9603E-13  0.2762E-04  0.2377E-06  0.9723E-03  0.1029E-01  0.6465E+02
   -0.862501   16.34214  0.9603E-13  0.2670E-04  0.2117E-06  0.1004E-02  0.9713E-02  0.2100E+03
   -0.900002   16.34283  0.9603E-13  0.2576E-04  0.1904E-06  0.8882E-03  0.9148E-02  0.1180E+03
   -0.937503   16.34361  0.9603E-13  0.2470E-04  0.1718E-06  0.8860E-03  0.8482E-02  0.1438E+03
   -0.975003   16.34441  0.9603E-13  0.2357E-04  0.1555E-06  0.8700E-03  0.7862E-02  0.5349E+03
   -1.012504   16.34518  0.9603E-13  0.2241E-04  0.1414E-06  0.9686E-03  0.7196E-02  0.3105E+03
   -1.050005   16.34588  0.9603E-13  0.2126E-04  0.1293E-06  0.9508E-03  0.6684E-02  0.4927E+02
   -1.087505   16.34658  0.9603E-13  0.1999E-04  0.1183E-06  0.7885E-03  0.6213E-02  0.1956E+02
   -1.125006   16.34743  0.9603E-13  0.1848E-04  0.1080E-06  0.7364E-03  0.5676E-02  0.1014E+02
   -1.162506   16.34832  0.9603E-13  0.1693E-04  0.9937E-07  0.6816E-03  0.5203E-02  0.1256E+02
   -1.200005   16.34929  0.9603E-13  0.1533E-04  0.9246E-07  0.6285E-03  0.4765E-02  0.6555E+01
   -1.237505   16.35034  0.9603E-13  0.1373E-04  0.8774E-07  0.5677E-03  0.4372E-02  0.7231E+01
   -1.275005   16.35151  0.9603E-13  0.1216E-04  0.8629E-07  0.4935E-03  0.4025E-02  0.4236E+01
   -1.312504   16.35290  0.9603E-13  0.1064E-04  0.9102E-07  0.4198E-03  0.3728E-02  0.5320E+01
   -1.350003   16.35469  0.9603E-13  0.9052E-05  0.1085E-06  0.3256E-03  0.3473E-02  0.3926E+02
   -1.387501   16.35757  0.9603E-13  0.7357E-05  0.1482E-06  0.2571E-03  0.3226E-02  0.2179E+03
   -1.424999   16.36072  0.9603E-13  0.5400E-05  0.2707E-06  0.1253E-03  0.3006E-02  0.1578E+04
   -1.462497   16.37299  0.9603E-13  0.3226E-05  0.5720E-06  0.5611E-04  0.2717E-02 -0.2336E+04
   -1.499995   16.39093  0.9603E-13  0.0000E+00  0.0000E+00  0.0000E+00  0.2809E-02  0.0000E+00
