 1 - depth, m
 2 - temperature, C
 3 - salinity, kg/kg
 4 - turbulent kinetic energy, m**2/s**2
 5 - dissipation rate, m**2/s**3
 6 - kinematic heat conductance, m**2/s
 7 - modulus of horizontal velocity, m/s
 8 - Richardson number, n/d
   -0.000000   16.89339  0.9625E-13  0.5058E-04  0.2080E-04  0.2826E-04  0.5069E-01 -0.1575E-01
   -0.037498   16.92570  0.9624E-13  0.3142E-04  0.5818E-05  0.5468E-04  0.2207E-01 -0.1931E-01
   -0.074996   16.93554  0.9624E-13  0.2391E-04  0.2532E-05  0.6739E-04  0.1599E-01 -0.6147E-01
   -0.112494   16.94270  0.9624E-13  0.1953E-04  0.1357E-05  0.8153E-04  0.1275E-01 -0.9262E-01
   -0.149992   16.94804  0.9624E-13  0.1636E-04  0.7518E-06  0.9805E-04  0.1048E-01 -0.1099E+00
   -0.187491   16.95223  0.9624E-13  0.1405E-04  0.4343E-06  0.1339E-03  0.8783E-02  0.1627E+03
   -0.224991   16.95545  0.9624E-13  0.1235E-04  0.2653E-06  0.1779E-03  0.7497E-02  0.2343E+02
   -0.262490   16.95800  0.9624E-13  0.1111E-04  0.1733E-06  0.2489E-03  0.6502E-02  0.4700E+03
   -0.299990   16.95998  0.9624E-13  0.1021E-04  0.1209E-06  0.3162E-03  0.5714E-02  0.1812E+03
   -0.337490   16.96155  0.9624E-13  0.9555E-05  0.9015E-07  0.3670E-03  0.5070E-02  0.3761E+02
   -0.374990   16.96279  0.9624E-13  0.9068E-05  0.7034E-07  0.4091E-03  0.4537E-02  0.6510E+02
   -0.412490   16.96381  0.9624E-13  0.8709E-05  0.5681E-07  0.4390E-03  0.4086E-02  0.1622E+02
   -0.449990   16.96467  0.9624E-13  0.8450E-05  0.4727E-07  0.4712E-03  0.3699E-02  0.1593E+02
   -0.487491   16.96544  0.9624E-13  0.8272E-05  0.4037E-07  0.5032E-03  0.3370E-02  0.5343E+01
   -0.524992   16.96614  0.9624E-13  0.8159E-05  0.3526E-07  0.5226E-03  0.3088E-02  0.2785E+01
   -0.562493   16.96682  0.9624E-13  0.8090E-05  0.3135E-07  0.5419E-03  0.2823E-02  0.2555E+01
   -0.599994   16.96748  0.9624E-13  0.8047E-05  0.2830E-07  0.5626E-03  0.2574E-02  0.2642E+01
   -0.637495   16.96813  0.9624E-13  0.8018E-05  0.2587E-07  0.5835E-03  0.2339E-02  0.2694E+01
   -0.674996   16.96877  0.9624E-13  0.7991E-05  0.2394E-07  0.6049E-03  0.2118E-02  0.2725E+01
   -0.712497   16.96940  0.9624E-13  0.7957E-05  0.2238E-07  0.6240E-03  0.1910E-02  0.2736E+01
   -0.749998   16.97003  0.9624E-13  0.7909E-05  0.2114E-07  0.6477E-03  0.1712E-02  0.2794E+01
   -0.787499   16.97064  0.9624E-13  0.7836E-05  0.2010E-07  0.6468E-03  0.1530E-02  0.2749E+01
   -0.825000   16.97128  0.9624E-13  0.7776E-05  0.1959E-07  0.9830E-03  0.1341E-02  0.1703E+01
   -0.862501   16.97170  0.9624E-13  0.7735E-05  0.1937E-07  0.9643E-03  0.1280E-02  0.1855E+01
   -0.900003   16.97214  0.9624E-13  0.7670E-05  0.1921E-07  0.6837E-03  0.1226E-02  0.2160E+01
   -0.937503   16.97279  0.9624E-13  0.7516E-05  0.1909E-07  0.7212E-03  0.1073E-02  0.2336E+01
   -0.975004   16.97343  0.9624E-13  0.7337E-05  0.1911E-07  0.6854E-03  0.9464E-03  0.2164E+01
   -1.012505   16.97413  0.9624E-13  0.7220E-05  0.1920E-07  0.8854E-03  0.8183E-03  0.1529E+01
   -1.050006   16.97467  0.9624E-13  0.7132E-05  0.1940E-07  0.7457E-03  0.7764E-03  0.3621E+01
   -1.087506   16.97532  0.9624E-13  0.7004E-05  0.1975E-07  0.6839E-03  0.7396E-03  0.1494E+01
   -1.125007   16.97606  0.9624E-13  0.6787E-05  0.2030E-07  0.6363E-03  0.6650E-03  0.1368E+01
   -1.162507   16.97686  0.9624E-13  0.6584E-05  0.2096E-07  0.5978E-03  0.6101E-03  0.1390E+01
   -1.200007   16.97774  0.9624E-13  0.6380E-05  0.2179E-07  0.5498E-03  0.5655E-03  0.1701E+01
   -1.237506   16.97871  0.9624E-13  0.6167E-05  0.2286E-07  0.4950E-03  0.5292E-03  0.2471E+01
   -1.275006   16.97982  0.9624E-13  0.5930E-05  0.2431E-07  0.4361E-03  0.4988E-03  0.4260E+01
   -1.312505   16.98111  0.9624E-13  0.5645E-05  0.2637E-07  0.3714E-03  0.4719E-03  0.8663E+01
   -1.350004   16.98267  0.9624E-13  0.5288E-05  0.2954E-07  0.2887E-03  0.4469E-03  0.2260E+02
   -1.387502   16.98473  0.9624E-13  0.4822E-05  0.3493E-07  0.2326E-03  0.4227E-03  0.8417E+02
   -1.425001   16.98741  0.9624E-13  0.4118E-05  0.4825E-07  0.1230E-03  0.4024E-03  0.1531E+06
   -1.462499   16.99411  0.9624E-13  0.2428E-05  0.1055E-06  0.2750E-04  0.3786E-03 -0.5026E+05
   -1.499996   17.02037  0.9624E-13  0.0000E+00  0.0000E+00  0.0000E+00  0.3804E-03  0.0000E+00
