 1 - depth, m
 2 - temperature, C
 3 - salinity, kg/kg
 4 - turbulent kinetic energy, m**2/s**2
 5 - dissipation rate, m**2/s**3
 6 - kinematic heat conductance, m**2/s
 7 - modulus of horizontal velocity, m/s
 8 - Richardson number, n/d
   -0.000000   -0.00000  0.1039E-12  0.2943E-05  0.1322E-06  0.6292E-05  0.7940E-02  0.1478E+16
   -0.037496    0.03971  0.9365E-13  0.2206E-05  0.4932E-07  0.9277E-05  0.4830E-02  0.8184E+15
   -0.074993    0.06117  0.9360E-13  0.1630E-05  0.2410E-07  0.1022E-04  0.3322E-02  0.4741E+15
   -0.112490    0.07524  0.9333E-13  0.1189E-05  0.1304E-07  0.9887E-05  0.2376E-02  0.3286E+15
   -0.149987    0.08709  0.9308E-13  0.8516E-06  0.7371E-08  0.8783E-05  0.1721E-02  0.2834E+15
   -0.187485    0.09894  0.9285E-13  0.5944E-06  0.4216E-08  0.7271E-05  0.1245E-02  0.2718E+15
   -0.224983    0.11166  0.9260E-13  0.4020E-06  0.2395E-08  0.5669E-05  0.8917E-03  0.2546E+15
   -0.262481    0.12515  0.9231E-13  0.2646E-06  0.1355E-08  0.4085E-05  0.6352E-03  0.2890E+15
   -0.299979    0.14139  0.9197E-13  0.1673E-06  0.7491E-09  0.2737E-05  0.4381E-03  0.3043E+15
   -0.337478    0.15956  0.9162E-13  0.1002E-06  0.3971E-09  0.1688E-05  0.2886E-03  0.2806E+15
   -0.374977    0.17762  0.9126E-13  0.5583E-07  0.1974E-09  0.9310E-06  0.1799E-03  0.2225E+15
   -0.412476    0.19403  0.9091E-13  0.2849E-07  0.8920E-10  0.4457E-06  0.1045E-03  0.1294E+15
   -0.449975    0.20681  0.9056E-13  0.1331E-07  0.3524E-10  0.1555E-05  0.5562E-04  0.1609E+14
   -0.487474    0.21358  0.9032E-13  0.6161E-08  0.1215E-10  0.3053E-05  0.2781E-04 -0.1545E+13
   -0.524973    0.21600  0.9019E-13  0.2445E-08  0.3468E-11  0.1432E-07  0.1528E-04  0.1426E+15
   -0.562473    0.22627  0.8990E-13  0.7748E-09  0.8077E-12  0.2054E-08  0.7078E-05  0.3761E+15
   -0.599973    0.24544  0.8966E-13  0.2645E-09  0.1943E-12  0.3814E-09  0.2979E-05  0.6168E+15
   -0.637472    0.27378  0.8942E-13  0.9840E-10  0.5444E-13  0.1297E-09  0.1220E-05  0.8795E+15
   -0.674972    0.31221  0.8915E-13  0.3825E-10  0.1788E-13  0.1002E-09  0.4938E-06  0.1155E+16
   -0.712472    0.36151  0.8874E-13  0.1507E-10  0.6559E-14  0.1000E-09  0.1983E-06  0.1455E+16
   -0.749972    0.42177  0.8784E-13  0.5924E-11  0.2556E-14  0.1000E-09  0.7895E-07  0.1838E+16
   -0.787472    0.49384  0.8579E-13  0.2311E-11  0.1034E-14  0.1000E-09  0.3118E-07  0.2287E+16
   -0.824971    0.57658  0.8354E-13  0.8967E-12  0.4404E-15  0.1000E-09  0.1222E-07  0.2782E+16
   -0.862471    0.66832  0.8274E-13  0.3507E-12  0.2106E-15  0.1000E-09  0.4745E-08  0.3314E+16
   -0.899971    0.76823  0.8245E-13  0.1463E-12  0.1281E-15  0.1000E-09  0.1827E-08  0.3873E+16
   -0.937471    0.87686  0.8247E-13  0.8689E-13  0.1170E-15  0.1000E-09  0.6939E-09  0.4455E+16
   -0.974970    0.99619  0.8234E-13  0.1349E-12  0.2007E-15  0.1000E-09  0.2520E-09  0.5049E+16
   -1.012470    1.12935  0.8225E-13  0.4652E-12  0.6351E-15  0.1000E-09  0.6527E-10  0.5277E+16
   -1.049969    1.26529  0.8220E-13  0.1968E-11  0.2543E-14  0.1000E-09  0.1572E-10  0.5527E+16
   -1.087468    1.40625  0.8217E-13  0.8505E-11  0.1057E-13  0.1000E-09  0.3706E-11  0.5981E+16
   -1.124967    1.55898  0.8214E-13  0.3661E-10  0.4395E-13  0.1004E-09  0.8547E-12  0.7149E+16
   -1.162466    1.75080  0.8212E-13  0.1562E-09  0.1814E-12  0.1204E-09  0.1926E-12  0.8210E+16
   -1.199965    1.99768  0.8210E-13  0.6580E-09  0.7399E-12  0.2568E-09  0.4239E-13  0.9006E+16
   -1.237463    2.31981  0.8207E-13  0.2705E-08  0.2946E-11  0.1096E-08  0.9098E-14  0.8933E+16
   -1.274961    2.74820  0.8203E-13  0.9022E-08  0.9644E-11  0.2458E-06  0.1902E-14  0.6995E+16
   -1.312459    3.25827  0.8200E-13  0.1760E-07  0.1974E-10  0.4677E-05  0.3870E-15  0.4478E+16
   -1.349957    3.66679  0.8198E-13  0.2590E-07  0.3224E-10  0.7397E-05  0.7648E-16  0.2193E+16
   -1.387454    3.96549  0.8196E-13  0.3311E-07  0.4896E-10  0.8040E-05  0.1463E-16  0.4944E+15
   -1.424951    4.13513  0.8195E-13  0.3724E-07  0.7537E-10  0.6130E-05  0.2621E-17 -0.6319E+14
   -1.462447    4.16938  0.8195E-13  0.3142E-07  0.1434E-09  0.1817E-05  0.7774E-18 -0.2597E+15
   -1.499944    4.24555  0.8195E-13  0.0000E+00  0.0000E+00  0.0000E+00  0.8275E-18  0.0000E+00
