 1 - depth, m
 2 - temperature, C
 3 - salinity, kg/kg
 4 - turbulent kinetic energy, m**2/s**2
 5 - dissipation rate, m**2/s**3
 6 - kinematic heat conductance, m**2/s
 7 - modulus of horizontal velocity, m/s
 8 - Richardson number, n/d
   -0.000000   -0.00000  0.7075E-12  0.4096E-13  0.8590E-16  0.1000E-09  0.0000E+00  0.9225E+16
   -0.037498    0.14105  0.5259E-12  0.4096E-13  0.8590E-16  0.1000E-09  0.0000E+00  0.8851E+16
   -0.074996    0.28177  0.3490E-12  0.4096E-13  0.8590E-16  0.1000E-09  0.0000E+00  0.8476E+16
   -0.112494    0.42207  0.2326E-12  0.4096E-13  0.8590E-16  0.1000E-09  0.0000E+00  0.8100E+16
   -0.149993    0.56186  0.1691E-12  0.4096E-13  0.8590E-16  0.1000E-09  0.0000E+00  0.7724E+16
   -0.187492    0.70103  0.1360E-12  0.4096E-13  0.8590E-16  0.1000E-09  0.0000E+00  0.7349E+16
   -0.224991    0.83947  0.1183E-12  0.4096E-13  0.8590E-16  0.1000E-09  0.0000E+00  0.6976E+16
   -0.262490    0.97709  0.1083E-12  0.4096E-13  0.8590E-16  0.1000E-09  0.0000E+00  0.6604E+16
   -0.299990    1.11378  0.1027E-12  0.4096E-13  0.8590E-16  0.1000E-09  0.0000E+00  0.6237E+16
   -0.337490    1.24944  0.9954E-13  0.4096E-13  0.8590E-16  0.1000E-09  0.0000E+00  0.5873E+16
   -0.374990    1.38395  0.9767E-13  0.4096E-13  0.8590E-16  0.1000E-09  0.0000E+00  0.5527E+16
   -0.412491    1.51752  0.9646E-13  0.4096E-13  0.8590E-16  0.1000E-09  0.0000E+00  0.5191E+16
   -0.449991    1.65022  0.9554E-13  0.4096E-13  0.8590E-16  0.1000E-09  0.0000E+00  0.4860E+16
   -0.487492    1.78198  0.9471E-13  0.4096E-13  0.8590E-16  0.1000E-09  0.0000E+00  0.4532E+16
   -0.524993    1.91268  0.9390E-13  0.4096E-13  0.8590E-16  0.1000E-09  0.0000E+00  0.4205E+16
   -0.562494    2.04207  0.9310E-13  0.4096E-13  0.8590E-16  0.1000E-09  0.0000E+00  0.3886E+16
   -0.599995    2.17008  0.9232E-13  0.4096E-13  0.8590E-16  0.1000E-09  0.0000E+00  0.3574E+16
   -0.637496    2.29664  0.9158E-13  0.4096E-13  0.8590E-16  0.1000E-09  0.0000E+00  0.3271E+16
   -0.674997    2.42165  0.9092E-13  0.1342E-12  0.8590E-16  0.1000E-09  0.0000E+00  0.2976E+16
   -0.712498    2.54505  0.9034E-13  0.3904E-12  0.1370E-15  0.1000E-09  0.0000E+00  0.2691E+16
   -0.749999    2.66678  0.8988E-13  0.9073E-12  0.2736E-15  0.1000E-09  0.0000E+00  0.2421E+16
   -0.787500    2.78704  0.8952E-13  0.1945E-11  0.5567E-15  0.1000E-09  0.0000E+00  0.2161E+16
   -0.825002    2.90588  0.8926E-13  0.4043E-11  0.1123E-14  0.1000E-09  0.0000E+00  0.1910E+16
   -0.862503    3.02327  0.8909E-13  0.8278E-11  0.2244E-14  0.1000E-09  0.0000E+00  0.1667E+16
   -0.900004    3.13915  0.8899E-13  0.1679E-10  0.4446E-14  0.1000E-09  0.0000E+00  0.1433E+16
   -0.937505    3.25351  0.8893E-13  0.3377E-10  0.8744E-14  0.1000E-09  0.0000E+00  0.1208E+16
   -0.975006    3.36631  0.8890E-13  0.6741E-10  0.1707E-13  0.1000E-09  0.0000E+00  0.9923E+15
   -1.012507    3.47754  0.8888E-13  0.1339E-09  0.3318E-13  0.1168E-09  0.0000E+00  0.7872E+15
   -1.050007    3.58748  0.8888E-13  0.2652E-09  0.6428E-13  0.3023E-09  0.0000E+00  0.5893E+15
   -1.087508    3.69606  0.8887E-13  0.5219E-09  0.1238E-12  0.8614E-09  0.0000E+00  0.3982E+15
   -1.125008    3.80303  0.8887E-13  0.1019E-08  0.2369E-12  0.3030E-08  0.0000E+00  0.2163E+15
   -1.162508    3.90864  0.8887E-13  0.1954E-08  0.4458E-12  0.2661E-07  0.0000E+00  0.4590E+14
   -1.200008    3.99998  0.8887E-13  0.2884E-08  0.6607E-12  0.4521E-05  0.0000E+00 -0.7995E+12
   -1.237508    4.00332  0.8887E-13  0.3353E-08  0.8087E-12  0.5027E-05  0.0000E+00 -0.8897E+12
   -1.275008    4.00639  0.8887E-13  0.3698E-08  0.9724E-12  0.5058E-05  0.0000E+00 -0.1054E+13
   -1.312507    4.00950  0.8887E-13  0.3919E-08  0.1169E-11  0.4655E-05  0.0000E+00 -0.1347E+13
   -1.350006    4.01296  0.8887E-13  0.3990E-08  0.1431E-11  0.3842E-05  0.0000E+00 -0.1921E+13
   -1.387504    4.01722  0.8887E-13  0.3848E-08  0.1833E-11  0.2665E-05  0.0000E+00 -0.3311E+13
   -1.425003    4.02344  0.8887E-13  0.3355E-08  0.2623E-11  0.1300E-05  0.0000E+00 -0.8463E+13
   -1.462501    4.03590  0.8887E-13  0.2330E-08  0.4945E-11  0.2641E-06  0.0000E+00 -0.5193E+14
   -1.499998    4.08168  0.8887E-13  0.0000E+00  0.0000E+00  0.0000E+00  0.0000E+00  0.0000E+00
