 1 - depth, m
 2 - temperature, C
 3 - salinity, kg/kg
 4 - turbulent kinetic energy, m**2/s**2
 5 - dissipation rate, m**2/s**3
 6 - kinematic heat conductance, m**2/s
 7 - modulus of horizontal velocity, m/s
 8 - Richardson number, n/d
   -0.000000   -0.00000  0.3880E-12  0.4096E-13  0.8590E-16  0.1000E-09  0.0000E+00  0.1031E+17
   -0.037498    0.15805  0.3892E-12  0.4096E-13  0.8590E-16  0.1000E-09  0.0000E+00  0.9858E+16
   -0.074996    0.31591  0.3265E-12  0.4096E-13  0.8590E-16  0.1000E-09  0.0000E+00  0.9397E+16
   -0.112494    0.47342  0.2550E-12  0.4096E-13  0.8590E-16  0.1000E-09  0.0000E+00  0.8934E+16
   -0.149993    0.63045  0.1966E-12  0.4096E-13  0.8590E-16  0.1000E-09  0.0000E+00  0.8469E+16
   -0.187492    0.78684  0.1554E-12  0.4096E-13  0.8590E-16  0.1000E-09  0.0000E+00  0.8005E+16
   -0.224991    0.94244  0.1284E-12  0.4096E-13  0.8590E-16  0.1000E-09  0.0000E+00  0.7542E+16
   -0.262491    1.09712  0.1115E-12  0.4096E-13  0.8590E-16  0.1000E-09  0.0000E+00  0.7086E+16
   -0.299991    1.25080  0.1012E-12  0.4096E-13  0.8590E-16  0.1000E-09  0.0000E+00  0.6634E+16
   -0.337491    1.40336  0.9497E-13  0.4096E-13  0.8590E-16  0.1000E-09  0.0000E+00  0.6187E+16
   -0.374991    1.55464  0.9110E-13  0.6027E-13  0.8590E-16  0.1000E-09  0.0000E+00  0.5750E+16
   -0.412492    1.70458  0.8867E-13  0.2430E-12  0.8637E-16  0.1000E-09  0.0000E+00  0.5321E+16
   -0.449992    1.85308  0.8710E-13  0.5929E-12  0.1358E-15  0.1000E-09  0.0000E+00  0.4900E+16
   -0.487493    1.99999  0.8605E-13  0.1208E-11  0.2414E-15  0.1000E-09  0.0000E+00  0.4490E+16
   -0.524994    2.14524  0.8534E-13  0.2286E-11  0.4332E-15  0.1000E-09  0.0000E+00  0.4098E+16
   -0.562495    2.28898  0.8485E-13  0.4190E-11  0.7709E-15  0.1000E-09  0.0000E+00  0.3717E+16
   -0.599996    2.43114  0.8452E-13  0.7564E-11  0.1361E-14  0.1000E-09  0.0000E+00  0.3346E+16
   -0.637498    2.57161  0.8430E-13  0.1353E-10  0.2386E-14  0.1000E-09  0.0000E+00  0.2987E+16
   -0.674999    2.71033  0.8417E-13  0.2405E-10  0.4159E-14  0.1000E-09  0.0000E+00  0.2640E+16
   -0.712500    2.84723  0.8408E-13  0.4250E-10  0.7211E-14  0.1000E-09  0.0000E+00  0.2305E+16
   -0.750001    2.98224  0.8403E-13  0.7470E-10  0.1244E-13  0.1000E-09  0.0000E+00  0.1990E+16
   -0.787503    3.11580  0.8401E-13  0.1306E-09  0.2135E-13  0.1000E-09  0.0000E+00  0.1688E+16
   -0.825004    3.24805  0.8399E-13  0.2272E-09  0.3646E-13  0.1000E-09  0.0000E+00  0.1395E+16
   -0.862505    3.37898  0.8398E-13  0.3933E-09  0.6197E-13  0.1549E-09  0.0000E+00  0.1111E+16
   -0.900006    3.50855  0.8398E-13  0.6775E-09  0.1048E-12  0.3484E-09  0.0000E+00  0.8355E+15
   -0.937508    3.63662  0.8398E-13  0.1161E-08  0.1764E-12  0.8604E-09  0.0000E+00  0.5696E+15
   -0.975009    3.76294  0.8398E-13  0.1978E-08  0.2954E-12  0.2618E-08  0.0000E+00  0.3136E+15
   -1.012510    3.88648  0.8398E-13  0.3337E-08  0.4901E-12  0.1770E-07  0.0000E+00  0.7726E+14
   -1.050010    3.99725  0.8398E-13  0.4069E-08  0.6008E-12  0.9700E-05  0.0000E+00 -0.3281E+12
   -1.087511    3.99904  0.8398E-13  0.4428E-08  0.6683E-12  0.1050E-04  0.0000E+00 -0.3460E+12
   -1.125011    4.00068  0.8398E-13  0.4729E-08  0.7398E-12  0.1091E-04  0.0000E+00 -0.3738E+12
   -1.162512    4.00226  0.8398E-13  0.4972E-08  0.8177E-12  0.1094E-04  0.0000E+00 -0.4134E+12
   -1.200012    4.00385  0.8398E-13  0.5158E-08  0.9050E-12  0.1059E-04  0.0000E+00 -0.4699E+12
   -1.237512    4.00548  0.8398E-13  0.5280E-08  0.1007E-11  0.9885E-05  0.0000E+00 -0.5526E+12
   -1.275011    4.00725  0.8398E-13  0.5326E-08  0.1131E-11  0.8817E-05  0.0000E+00 -0.6802E+12
   -1.312511    4.00923  0.8398E-13  0.5274E-08  0.1292E-11  0.7394E-05  0.0000E+00 -0.8950E+12
   -1.350010    4.01160  0.8398E-13  0.5085E-08  0.1522E-11  0.5636E-05  0.0000E+00 -0.1310E+13
   -1.387508    4.01472  0.8398E-13  0.4681E-08  0.1899E-11  0.3621E-05  0.0000E+00 -0.2330E+13
   -1.425007    4.01955  0.8398E-13  0.3892E-08  0.2689E-11  0.1603E-05  0.0000E+00 -0.6340E+13
   -1.462505    4.03007  0.8398E-13  0.2512E-08  0.5194E-11  0.2745E-06  0.0000E+00 -0.4622E+14
   -1.500003    4.07475  0.8398E-13  0.0000E+00  0.0000E+00  0.0000E+00  0.0000E+00  0.0000E+00
