 1 - depth, m
 2 - temperature, C
 3 - salinity, kg/kg
 4 - turbulent kinetic energy, m**2/s**2
 5 - dissipation rate, m**2/s**3
 6 - kinematic heat conductance, m**2/s
 7 - modulus of horizontal velocity, m/s
 8 - Richardson number, n/d
   -0.000000   14.98476  0.1012E-12  0.1559E-03  0.8005E-04  0.5158E-04  0.1169E+00  0.3566E-01
   -0.037498   15.02758  0.1012E-12  0.8929E-04  0.2132E-04  0.1070E-03  0.3801E-01 -0.2690E-01
   -0.074996   15.03482  0.1012E-12  0.6523E-04  0.9035E-05  0.1127E-03  0.2755E-01 -0.4115E+00
   -0.112494   15.03969  0.1012E-12  0.5155E-04  0.4900E-05  0.1160E-03  0.2298E-01 -0.2811E-01
   -0.149993   15.04336  0.1012E-12  0.4182E-04  0.2850E-05  0.1215E-03  0.1973E-01 -0.4324E-01
   -0.187492   15.04638  0.1012E-12  0.3456E-04  0.1734E-05  0.1279E-03  0.1713E-01 -0.4279E-01
   -0.224991   15.04900  0.1012E-12  0.2904E-04  0.1097E-05  0.1355E-03  0.1499E-01  0.1188E+00
   -0.262490   15.05133  0.1012E-12  0.2480E-04  0.7211E-06  0.1430E-03  0.1321E-01  0.9671E+00
   -0.299990   15.05345  0.1012E-12  0.2145E-04  0.4923E-06  0.1521E-03  0.1168E-01  0.7343E+01
   -0.337490   15.05538  0.1012E-12  0.1875E-04  0.3484E-06  0.1714E-03  0.1037E-01  0.1679E+02
   -0.374990   15.05707  0.1012E-12  0.1657E-04  0.2543E-06  0.2031E-03  0.9258E-02  0.1776E+02
   -0.412490   15.05856  0.1012E-12  0.1479E-04  0.1907E-06  0.2241E-03  0.8326E-02  0.1339E+03
   -0.449991   15.05989  0.1012E-12  0.1335E-04  0.1461E-06  0.2550E-03  0.7541E-02  0.1999E+02
   -0.487492   15.06107  0.1012E-12  0.1221E-04  0.1145E-06  0.2998E-03  0.6889E-02  0.3966E+02
   -0.524992   15.06208  0.1012E-12  0.1131E-04  0.9190E-07  0.3455E-03  0.6347E-02  0.1311E+03
   -0.562493   15.06298  0.1012E-12  0.1060E-04  0.7531E-07  0.4043E-03  0.5856E-02  0.9880E+02
   -0.599994   15.06374  0.1012E-12  0.1004E-04  0.6297E-07  0.4560E-03  0.5410E-02  0.1221E+03
   -0.637495   15.06441  0.1012E-12  0.9578E-05  0.5357E-07  0.4841E-03  0.4997E-02  0.8128E+02
   -0.674997   15.06501  0.1012E-12  0.9197E-05  0.4628E-07  0.5046E-03  0.4609E-02  0.2143E+02
   -0.712498   15.06558  0.1012E-12  0.8875E-05  0.4054E-07  0.5172E-03  0.4244E-02  0.5328E+01
   -0.749999   15.06613  0.1012E-12  0.8592E-05  0.3591E-07  0.5282E-03  0.3899E-02  0.5357E+01
   -0.787500   15.06668  0.1012E-12  0.8337E-05  0.3215E-07  0.5363E-03  0.3571E-02  0.5982E+01
   -0.825001   15.06722  0.1012E-12  0.8097E-05  0.2905E-07  0.5413E-03  0.3260E-02  0.4859E+01
   -0.862502   15.06777  0.1012E-12  0.7863E-05  0.2645E-07  0.5439E-03  0.2962E-02  0.4477E+01
   -0.900004   15.06832  0.1012E-12  0.7625E-05  0.2426E-07  0.5443E-03  0.2677E-02  0.4620E+01
   -0.937505   15.06889  0.1012E-12  0.7376E-05  0.2241E-07  0.5422E-03  0.2402E-02  0.4818E+01
   -0.975005   15.06948  0.1012E-12  0.7108E-05  0.2084E-07  0.5362E-03  0.2137E-02  0.5104E+01
   -1.012506   15.07008  0.1012E-12  0.6813E-05  0.1950E-07  0.5367E-03  0.1880E-02  0.4104E+01
   -1.050007   15.07070  0.1012E-12  0.6497E-05  0.1840E-07  0.5364E-03  0.1648E-02  0.3262E+01
   -1.087507   15.07134  0.1012E-12  0.6167E-05  0.1755E-07  0.5255E-03  0.1444E-02  0.2661E+01
   -1.125008   15.07200  0.1012E-12  0.5830E-05  0.1696E-07  0.5077E-03  0.1267E-02  0.2194E+01
   -1.162508   15.07269  0.1012E-12  0.5497E-05  0.1664E-07  0.4884E-03  0.1117E-02  0.1821E+01
   -1.200008   15.07342  0.1012E-12  0.5180E-05  0.1659E-07  0.4683E-03  0.9923E-03  0.1551E+01
   -1.237508   15.07420  0.1012E-12  0.4888E-05  0.1682E-07  0.4212E-03  0.8930E-03  0.1484E+01
   -1.275007   15.07509  0.1012E-12  0.4623E-05  0.1734E-07  0.3684E-03  0.8164E-03  0.1771E+01
   -1.312506   15.07614  0.1012E-12  0.4368E-05  0.1820E-07  0.3228E-03  0.7591E-03  0.3019E+01
   -1.350005   15.07735  0.1012E-12  0.4084E-05  0.1966E-07  0.2680E-03  0.7138E-03  0.7255E+01
   -1.387504   15.07886  0.1012E-12  0.3736E-05  0.2232E-07  0.2098E-03  0.6727E-03  0.2600E+02
   -1.425002   15.08084  0.1012E-12  0.3249E-05  0.2871E-07  0.1346E-03  0.6374E-03  0.2430E+05
   -1.462500   15.08480  0.1012E-12  0.1916E-05  0.6175E-07  0.1828E-04  0.6035E-03 -0.1911E+05
   -1.499998   15.11053  0.1012E-12  0.0000E+00  0.0000E+00  0.0000E+00  0.6010E-03  0.0000E+00
