 1 - depth, m
 2 - temperature, C
 3 - salinity, kg/kg
 4 - turbulent kinetic energy, m**2/s**2
 5 - dissipation rate, m**2/s**3
 6 - kinematic heat conductance, m**2/s
 7 - modulus of horizontal velocity, m/s
 8 - Richardson number, n/d
   -0.000000   -0.00000  0.4998E-12  0.4096E-13  0.8590E-16  0.1000E-09  0.0000E+00  0.1134E+17
   -0.037498    0.17410  0.4185E-12  0.4096E-13  0.8590E-16  0.1000E-09  0.0000E+00  0.1075E+17
   -0.074996    0.34738  0.3162E-12  0.4096E-13  0.8590E-16  0.1000E-09  0.0000E+00  0.1017E+17
   -0.112494    0.51976  0.2295E-12  0.4096E-13  0.8590E-16  0.1000E-09  0.0000E+00  0.9591E+16
   -0.149993    0.69115  0.1714E-12  0.4096E-13  0.8590E-16  0.1000E-09  0.0000E+00  0.9021E+16
   -0.187491    0.86143  0.1365E-12  0.4096E-13  0.8590E-16  0.1000E-09  0.0000E+00  0.8458E+16
   -0.224991    1.03047  0.1162E-12  0.4096E-13  0.8590E-16  0.1000E-09  0.0000E+00  0.7902E+16
   -0.262490    1.19813  0.1042E-12  0.1259E-12  0.8590E-16  0.1000E-09  0.0000E+00  0.7357E+16
   -0.299990    1.36432  0.9691E-13  0.3759E-12  0.1011E-15  0.1000E-09  0.0000E+00  0.6823E+16
   -0.337490    1.52893  0.9241E-13  0.8228E-12  0.1656E-15  0.1000E-09  0.0000E+00  0.6298E+16
   -0.374990    1.69179  0.8960E-13  0.1593E-11  0.2904E-15  0.1000E-09  0.0000E+00  0.5790E+16
   -0.412490    1.85290  0.8778E-13  0.2932E-11  0.5115E-15  0.1000E-09  0.0000E+00  0.5297E+16
   -0.449991    2.01222  0.8655E-13  0.5270E-11  0.8954E-15  0.1000E-09  0.0000E+00  0.4816E+16
   -0.487492    2.16958  0.8570E-13  0.9361E-11  0.1557E-14  0.1000E-09  0.0000E+00  0.4350E+16
   -0.524992    2.32488  0.8510E-13  0.1645E-10  0.2684E-14  0.1000E-09  0.0000E+00  0.3905E+16
   -0.562493    2.47825  0.8468E-13  0.2867E-10  0.4593E-14  0.1000E-09  0.0000E+00  0.3474E+16
   -0.599994    2.62958  0.8439E-13  0.4969E-10  0.7816E-14  0.1000E-09  0.0000E+00  0.3059E+16
   -0.637495    2.77878  0.8421E-13  0.8567E-10  0.1324E-13  0.1000E-09  0.0000E+00  0.2659E+16
   -0.674996    2.92578  0.8410E-13  0.1470E-09  0.2231E-13  0.1000E-09  0.0000E+00  0.2276E+16
   -0.712498    3.07052  0.8404E-13  0.2511E-09  0.3743E-13  0.1000E-09  0.0000E+00  0.1910E+16
   -0.749999    3.21293  0.8401E-13  0.4268E-09  0.6252E-13  0.1108E-09  0.0000E+00  0.1566E+16
   -0.787500    3.35357  0.8399E-13  0.7223E-09  0.1040E-12  0.2334E-09  0.0000E+00  0.1237E+16
   -0.825001    3.49251  0.8398E-13  0.1217E-08  0.1722E-12  0.5198E-09  0.0000E+00  0.9195E+15
   -0.862502    3.62960  0.8398E-13  0.2040E-08  0.2838E-12  0.1283E-08  0.0000E+00  0.6139E+15
   -0.900003    3.76444  0.8398E-13  0.3400E-08  0.4652E-12  0.4017E-08  0.0000E+00  0.3215E+15
   -0.937504    3.89528  0.8398E-13  0.5569E-08  0.7506E-12  0.3321E-07  0.0000E+00  0.6281E+14
   -0.975005    4.00310  0.8398E-13  0.6302E-08  0.8535E-12  0.1769E-04  0.0000E+00 -0.2844E+12
   -1.012506    4.00415  0.8398E-13  0.6636E-08  0.9106E-12  0.1857E-04  0.0000E+00 -0.2874E+12
   -1.050007    4.00515  0.8398E-13  0.6914E-08  0.9696E-12  0.1892E-04  0.0000E+00 -0.2976E+12
   -1.087507    4.00614  0.8398E-13  0.7139E-08  0.1032E-11  0.1877E-04  0.0000E+00 -0.3154E+12
   -1.125008    4.00713  0.8398E-13  0.7314E-08  0.1101E-11  0.1825E-04  0.0000E+00 -0.3421E+12
   -1.162508    4.00815  0.8398E-13  0.7438E-08  0.1179E-11  0.1728E-04  0.0000E+00 -0.3809E+12
   -1.200008    4.00924  0.8398E-13  0.7502E-08  0.1269E-11  0.1599E-04  0.0000E+00 -0.4345E+12
   -1.237507    4.01042  0.8398E-13  0.7497E-08  0.1378E-11  0.1442E-04  0.0000E+00 -0.5101E+12
   -1.275007    4.01173  0.8398E-13  0.7407E-08  0.1513E-11  0.1253E-04  0.0000E+00 -0.6241E+12
   -1.312506    4.01326  0.8398E-13  0.7204E-08  0.1694E-11  0.1029E-04  0.0000E+00 -0.8139E+12
   -1.350005    4.01512  0.8398E-13  0.6839E-08  0.1957E-11  0.7698E-05  0.0000E+00 -0.1177E+13
   -1.387504    4.01762  0.8398E-13  0.6214E-08  0.2399E-11  0.4862E-05  0.0000E+00 -0.2061E+13
   -1.425002    4.02158  0.8398E-13  0.5095E-08  0.3360E-11  0.2093E-05  0.0000E+00 -0.5565E+13
   -1.462500    4.03052  0.8398E-13  0.3132E-08  0.6630E-11  0.3180E-06  0.0000E+00 -0.4565E+14
   -1.499998    4.07456  0.8398E-13  0.0000E+00  0.0000E+00  0.0000E+00  0.0000E+00  0.0000E+00
