 1 - depth, m
 2 - temperature, C
 3 - salinity, kg/kg
 4 - turbulent kinetic energy, m**2/s**2
 5 - dissipation rate, m**2/s**3
 6 - kinematic heat conductance, m**2/s
 7 - modulus of horizontal velocity, m/s
 8 - Richardson number, n/d
   -0.000000   -0.00000  0.1591E-12  0.4096E-13  0.8590E-16  0.1000E-09  0.0000E+00  0.9119E+16
   -0.037498    0.13939  0.2296E-12  0.4096E-13  0.8590E-16  0.1000E-09  0.0000E+00  0.8765E+16
   -0.074996    0.27865  0.2711E-12  0.4096E-13  0.8590E-16  0.1000E-09  0.0000E+00  0.8414E+16
   -0.112494    0.41778  0.2731E-12  0.4096E-13  0.8590E-16  0.1000E-09  0.0000E+00  0.8063E+16
   -0.149993    0.55673  0.2468E-12  0.4096E-13  0.8590E-16  0.1000E-09  0.0000E+00  0.7712E+16
   -0.187492    0.69545  0.2091E-12  0.4096E-13  0.8590E-16  0.1000E-09  0.0000E+00  0.7360E+16
   -0.224991    0.83385  0.1728E-12  0.4096E-13  0.8590E-16  0.1000E-09  0.0000E+00  0.7008E+16
   -0.262491    0.97185  0.1437E-12  0.4096E-13  0.8590E-16  0.1000E-09  0.0000E+00  0.6658E+16
   -0.299991    1.10942  0.1229E-12  0.4096E-13  0.8590E-16  0.1000E-09  0.0000E+00  0.6310E+16
   -0.337491    1.24648  0.1088E-12  0.4096E-13  0.8590E-16  0.1000E-09  0.0000E+00  0.5962E+16
   -0.374991    1.38293  0.9977E-13  0.4096E-13  0.8590E-16  0.1000E-09  0.0000E+00  0.5615E+16
   -0.412491    1.51862  0.9405E-13  0.4096E-13  0.8590E-16  0.1000E-09  0.0000E+00  0.5268E+16
   -0.449992    1.65342  0.9046E-13  0.4096E-13  0.8590E-16  0.1000E-09  0.0000E+00  0.4925E+16
   -0.487493    1.78721  0.8818E-13  0.4096E-13  0.8590E-16  0.1000E-09  0.0000E+00  0.4589E+16
   -0.524994    1.91994  0.8672E-13  0.4096E-13  0.8590E-16  0.1000E-09  0.0000E+00  0.4268E+16
   -0.562495    2.05185  0.8577E-13  0.4096E-13  0.8590E-16  0.1000E-09  0.0000E+00  0.3952E+16
   -0.599996    2.18285  0.8514E-13  0.1400E-12  0.8590E-16  0.1000E-09  0.0000E+00  0.3641E+16
   -0.637497    2.31287  0.8472E-13  0.4022E-12  0.1264E-15  0.1000E-09  0.0000E+00  0.3335E+16
   -0.674998    2.44181  0.8444E-13  0.9052E-12  0.2377E-15  0.1000E-09  0.0000E+00  0.3035E+16
   -0.712499    2.56961  0.8426E-13  0.1861E-11  0.4597E-15  0.1000E-09  0.0000E+00  0.2742E+16
   -0.750001    2.69617  0.8414E-13  0.3693E-11  0.8838E-15  0.1000E-09  0.0000E+00  0.2461E+16
   -0.787502    2.82171  0.8407E-13  0.7210E-11  0.1684E-14  0.1000E-09  0.0000E+00  0.2189E+16
   -0.825003    2.94625  0.8403E-13  0.1394E-10  0.3184E-14  0.1000E-09  0.0000E+00  0.1922E+16
   -0.862504    3.06975  0.8401E-13  0.2673E-10  0.5979E-14  0.1000E-09  0.0000E+00  0.1663E+16
   -0.900006    3.19216  0.8399E-13  0.5093E-10  0.1115E-13  0.1000E-09  0.0000E+00  0.1410E+16
   -0.937507    3.31344  0.8399E-13  0.9641E-10  0.2068E-13  0.1000E-09  0.0000E+00  0.1164E+16
   -0.975008    3.43356  0.8398E-13  0.1813E-09  0.3810E-13  0.1141E-09  0.0000E+00  0.9262E+15
   -1.012509    3.55248  0.8398E-13  0.3397E-09  0.6994E-13  0.2797E-09  0.0000E+00  0.6935E+15
   -1.050009    3.66977  0.8398E-13  0.6349E-09  0.1281E-12  0.7565E-09  0.0000E+00  0.4696E+15
   -1.087510    3.78508  0.8398E-13  0.1180E-08  0.2334E-12  0.2529E-08  0.0000E+00  0.2557E+15
   -1.125010    3.89732  0.8398E-13  0.2162E-08  0.4201E-12  0.1896E-07  0.0000E+00  0.6108E+14
   -1.162511    3.99780  0.8398E-13  0.2997E-08  0.5849E-12  0.5489E-05  0.0000E+00 -0.5783E+12
   -1.200011    4.00067  0.8398E-13  0.3415E-08  0.6935E-12  0.6122E-05  0.0000E+00 -0.6326E+12
   -1.237510    4.00326  0.8398E-13  0.3734E-08  0.8101E-12  0.6273E-05  0.0000E+00 -0.7224E+12
   -1.275010    4.00579  0.8398E-13  0.3957E-08  0.9432E-12  0.5994E-05  0.0000E+00 -0.8681E+12
   -1.312509    4.00846  0.8398E-13  0.4072E-08  0.1106E-11  0.5309E-05  0.0000E+00 -0.1118E+13
   -1.350008    4.01148  0.8398E-13  0.4048E-08  0.1327E-11  0.4240E-05  0.0000E+00 -0.1603E+13
   -1.387507    4.01526  0.8398E-13  0.3820E-08  0.1674E-11  0.2846E-05  0.0000E+00 -0.2784E+13
   -1.425005    4.02086  0.8398E-13  0.3252E-08  0.2368E-11  0.1328E-05  0.0000E+00 -0.7255E+13
   -1.462504    4.03236  0.8398E-13  0.2178E-08  0.4448E-11  0.2488E-06  0.0000E+00 -0.4668E+14
   -1.500001    4.07623  0.8398E-13  0.0000E+00  0.0000E+00  0.0000E+00  0.0000E+00  0.0000E+00
