 1 - depth, m
 2 - temperature, C
 3 - salinity, kg/kg
 4 - turbulent kinetic energy, m**2/s**2
 5 - dissipation rate, m**2/s**3
 6 - kinematic heat conductance, m**2/s
 7 - modulus of horizontal velocity, m/s
 8 - Richardson number, n/d
   -0.000000   -0.00000  0.3439E-12  0.6758E-12  0.1929E-15  0.1000E-09  0.0000E+00  0.1463E+17
   -0.037498    0.22624  0.3187E-12  0.1035E-11  0.2088E-15  0.1000E-09  0.0000E+00  0.1363E+17
   -0.074996    0.45104  0.2766E-12  0.1789E-11  0.2983E-15  0.1000E-09  0.0000E+00  0.1266E+17
   -0.112494    0.67428  0.2208E-12  0.3110E-11  0.4767E-15  0.1000E-09  0.0000E+00  0.1170E+17
   -0.149993    0.89582  0.1700E-12  0.5343E-11  0.7878E-15  0.1000E-09  0.0000E+00  0.1077E+17
   -0.187492    1.11551  0.1335E-12  0.9090E-11  0.1312E-14  0.1000E-09  0.0000E+00  0.9849E+16
   -0.224991    1.33319  0.1114E-12  0.1537E-10  0.2186E-14  0.1000E-09  0.0000E+00  0.8954E+16
   -0.262490    1.54871  0.9962E-13  0.2589E-10  0.3636E-14  0.1000E-09  0.0000E+00  0.8087E+16
   -0.299990    1.76204  0.9398E-13  0.4347E-10  0.6032E-14  0.1000E-09  0.0000E+00  0.7245E+16
   -0.337490    1.97302  0.9134E-13  0.7284E-10  0.9990E-14  0.1000E-09  0.0000E+00  0.6427E+16
   -0.374990    2.18145  0.8987E-13  0.1219E-09  0.1651E-13  0.1000E-09  0.0000E+00  0.5651E+16
   -0.412491    2.38774  0.8872E-13  0.2035E-09  0.2726E-13  0.1000E-09  0.0000E+00  0.4904E+16
   -0.449991    2.59198  0.8759E-13  0.3395E-09  0.4491E-13  0.1000E-09  0.0000E+00  0.4171E+16
   -0.487492    2.79363  0.8647E-13  0.5655E-09  0.7386E-13  0.1000E-09  0.0000E+00  0.3457E+16
   -0.524993    2.99196  0.8548E-13  0.9374E-09  0.1209E-12  0.1270E-09  0.0000E+00  0.2768E+16
   -0.562493    3.18612  0.8476E-13  0.1548E-08  0.1971E-12  0.2594E-09  0.0000E+00  0.2109E+16
   -0.599994    3.37474  0.8432E-13  0.2547E-08  0.3202E-12  0.5929E-09  0.0000E+00  0.1492E+16
   -0.637496    3.55618  0.8409E-13  0.4180E-08  0.5186E-12  0.1524E-08  0.0000E+00  0.9341E+15
   -0.674997    3.72848  0.8400E-13  0.6829E-08  0.8364E-12  0.5083E-08  0.0000E+00  0.4487E+15
   -0.712498    3.88860  0.8397E-13  0.1091E-07  0.1322E-11  0.5025E-07  0.0000E+00  0.7185E+14
   -0.749999    4.00675  0.8397E-13  0.1153E-07  0.1401E-11  0.3676E-04  0.0000E+00 -0.2018E+12
   -0.787500    4.00739  0.8397E-13  0.1182E-07  0.1445E-11  0.3681E-04  0.0000E+00 -0.2096E+12
   -0.825001    4.00802  0.8397E-13  0.1208E-07  0.1492E-11  0.3727E-04  0.0000E+00 -0.2155E+12
   -0.862503    4.00865  0.8397E-13  0.1232E-07  0.1541E-11  0.3753E-04  0.0000E+00 -0.2227E+12
   -0.900004    4.00928  0.8397E-13  0.1253E-07  0.1594E-11  0.3757E-04  0.0000E+00 -0.2314E+12
   -0.937505    4.00992  0.8397E-13  0.1271E-07  0.1652E-11  0.3737E-04  0.0000E+00 -0.2419E+12
   -0.975006    4.01057  0.8397E-13  0.1286E-07  0.1713E-11  0.3696E-04  0.0000E+00 -0.2542E+12
   -1.012506    4.01124  0.8397E-13  0.1299E-07  0.1781E-11  0.3635E-04  0.0000E+00 -0.2695E+12
   -1.050007    4.01193  0.8397E-13  0.1309E-07  0.1855E-11  0.3552E-04  0.0000E+00 -0.2878E+12
   -1.087508    4.01264  0.8397E-13  0.1315E-07  0.1939E-11  0.3445E-04  0.0000E+00 -0.3099E+12
   -1.125008    4.01339  0.8397E-13  0.1317E-07  0.2033E-11  0.3312E-04  0.0000E+00 -0.3359E+12
   -1.162508    4.01418  0.8397E-13  0.1316E-07  0.2141E-11  0.3149E-04  0.0000E+00 -0.3686E+12
   -1.200008    4.01502  0.8397E-13  0.1309E-07  0.2268E-11  0.2951E-04  0.0000E+00 -0.4118E+12
   -1.237508    4.01594  0.8397E-13  0.1294E-07  0.2434E-11  0.2687E-04  0.0000E+00 -0.4763E+12
   -1.275007    4.01696  0.8397E-13  0.1267E-07  0.2664E-11  0.2148E-04  0.0000E+00 -0.6255E+12
   -1.312507    4.01825  0.8397E-13  0.1224E-07  0.2986E-11  0.1649E-04  0.0000E+00 -0.8614E+12
   -1.350006    4.01995  0.8397E-13  0.1157E-07  0.3460E-11  0.1201E-04  0.0000E+00 -0.1269E+13
   -1.387504    4.02229  0.8397E-13  0.1053E-07  0.4259E-11  0.7522E-05  0.0000E+00 -0.2222E+13
   -1.425003    4.02606  0.8397E-13  0.8731E-08  0.6006E-11  0.3267E-05  0.0000E+00 -0.5896E+13
   -1.462501    4.03463  0.8397E-13  0.5281E-08  0.1244E-10  0.4664E-06  0.0000E+00 -0.5443E+14
   -1.499998    4.08268  0.8397E-13  0.0000E+00  0.0000E+00  0.0000E+00  0.0000E+00  0.0000E+00
