 1 - depth, m
 2 - temperature, C
 3 - salinity, kg/kg
 4 - turbulent kinetic energy, m**2/s**2
 5 - dissipation rate, m**2/s**3
 6 - kinematic heat conductance, m**2/s
 7 - modulus of horizontal velocity, m/s
 8 - Richardson number, n/d
   -0.000000   -0.00000  0.5099E-12  0.4096E-13  0.8590E-16  0.1000E-09  0.0000E+00  0.1090E+17
   -0.037498    0.16727  0.4165E-12  0.4096E-13  0.8590E-16  0.1000E-09  0.0000E+00  0.1038E+17
   -0.074996    0.33412  0.3139E-12  0.4096E-13  0.8590E-16  0.1000E-09  0.0000E+00  0.9853E+16
   -0.112494    0.50038  0.2345E-12  0.4096E-13  0.8590E-16  0.1000E-09  0.0000E+00  0.9326E+16
   -0.149993    0.66588  0.1783E-12  0.4096E-13  0.8590E-16  0.1000E-09  0.0000E+00  0.8799E+16
   -0.187492    0.83045  0.1418E-12  0.4096E-13  0.8590E-16  0.1000E-09  0.0000E+00  0.8275E+16
   -0.224991    0.99393  0.1194E-12  0.4096E-13  0.8590E-16  0.1000E-09  0.0000E+00  0.7755E+16
   -0.262491    1.15614  0.1060E-12  0.4096E-13  0.8590E-16  0.1000E-09  0.0000E+00  0.7244E+16
   -0.299990    1.31699  0.9791E-13  0.4096E-13  0.8590E-16  0.1000E-09  0.0000E+00  0.6740E+16
   -0.337490    1.47634  0.9298E-13  0.1928E-12  0.8590E-16  0.1000E-09  0.0000E+00  0.6246E+16
   -0.374991    1.63403  0.8991E-13  0.5107E-12  0.1231E-15  0.1000E-09  0.0000E+00  0.5766E+16
   -0.412491    1.79005  0.8794E-13  0.1069E-11  0.2139E-15  0.1000E-09  0.0000E+00  0.5299E+16
   -0.449992    1.94433  0.8664E-13  0.2046E-11  0.3824E-15  0.1000E-09  0.0000E+00  0.4843E+16
   -0.487492    2.09672  0.8575E-13  0.3771E-11  0.6812E-15  0.1000E-09  0.0000E+00  0.4401E+16
   -0.524993    2.24714  0.8513E-13  0.6806E-11  0.1201E-14  0.1000E-09  0.0000E+00  0.3979E+16
   -0.562494    2.39570  0.8471E-13  0.1214E-10  0.2099E-14  0.1000E-09  0.0000E+00  0.3570E+16
   -0.599995    2.54232  0.8442E-13  0.2149E-10  0.3645E-14  0.1000E-09  0.0000E+00  0.3176E+16
   -0.637496    2.68691  0.8423E-13  0.3782E-10  0.6295E-14  0.1000E-09  0.0000E+00  0.2795E+16
   -0.674998    2.82939  0.8412E-13  0.6619E-10  0.1082E-13  0.1000E-09  0.0000E+00  0.2430E+16
   -0.712499    2.96970  0.8405E-13  0.1153E-09  0.1850E-13  0.1000E-09  0.0000E+00  0.2081E+16
   -0.750000    3.10779  0.8401E-13  0.1998E-09  0.3148E-13  0.1000E-09  0.0000E+00  0.1754E+16
   -0.787501    3.24417  0.8400E-13  0.3446E-09  0.5333E-13  0.1034E-09  0.0000E+00  0.1441E+16
   -0.825003    3.37902  0.8399E-13  0.5916E-09  0.8993E-13  0.2194E-09  0.0000E+00  0.1138E+16
   -0.862504    3.51225  0.8398E-13  0.1011E-08  0.1510E-12  0.4950E-09  0.0000E+00  0.8466E+15
   -0.900005    3.64376  0.8398E-13  0.1718E-08  0.2522E-12  0.1237E-08  0.0000E+00  0.5658E+15
   -0.937506    3.77318  0.8398E-13  0.2903E-08  0.4189E-12  0.3920E-08  0.0000E+00  0.2967E+15
   -0.975007    3.89890  0.8398E-13  0.4819E-08  0.6848E-12  0.3290E-07  0.0000E+00  0.5786E+14
   -1.012508    4.00271  0.8398E-13  0.5579E-08  0.7971E-12  0.1485E-04  0.0000E+00 -0.3195E+12
   -1.050009    4.00391  0.8398E-13  0.5931E-08  0.8607E-12  0.1543E-04  0.0000E+00 -0.3286E+12
   -1.087509    4.00506  0.8398E-13  0.6222E-08  0.9269E-12  0.1562E-04  0.0000E+00 -0.3449E+12
   -1.125010    4.00620  0.8398E-13  0.6454E-08  0.9978E-12  0.1548E-04  0.0000E+00 -0.3701E+12
   -1.162510    4.00736  0.8398E-13  0.6628E-08  0.1076E-11  0.1499E-04  0.0000E+00 -0.4062E+12
   -1.200010    4.00856  0.8398E-13  0.6739E-08  0.1165E-11  0.1414E-04  0.0000E+00 -0.4577E+12
   -1.237510    4.00983  0.8398E-13  0.6780E-08  0.1270E-11  0.1292E-04  0.0000E+00 -0.5331E+12
   -1.275009    4.01124  0.8398E-13  0.6736E-08  0.1400E-11  0.1133E-04  0.0000E+00 -0.6493E+12
   -1.312508    4.01285  0.8398E-13  0.6583E-08  0.1571E-11  0.9367E-05  0.0000E+00 -0.8441E+12
   -1.350007    4.01481  0.8398E-13  0.6273E-08  0.1819E-11  0.7056E-05  0.0000E+00 -0.1218E+13
   -1.387506    4.01742  0.8398E-13  0.5716E-08  0.2233E-11  0.4482E-05  0.0000E+00 -0.2129E+13
   -1.425005    4.02152  0.8398E-13  0.4697E-08  0.3125E-11  0.1942E-05  0.0000E+00 -0.5731E+13
   -1.462503    4.03071  0.8398E-13  0.2916E-08  0.6107E-11  0.3026E-06  0.0000E+00 -0.4533E+14
   -1.500000    4.07442  0.8398E-13  0.0000E+00  0.0000E+00  0.0000E+00  0.0000E+00  0.0000E+00
