 1 - depth, m
 2 - temperature, C
 3 - salinity, kg/kg
 4 - turbulent kinetic energy, m**2/s**2
 5 - dissipation rate, m**2/s**3
 6 - kinematic heat conductance, m**2/s
 7 - modulus of horizontal velocity, m/s
 8 - Richardson number, n/d
   -0.000000   -0.00000  0.5908E-16  0.4095E-13  0.8588E-16  0.1000E-09  0.0000E+00  0.7687E+16
   -0.037498    0.11721  0.2306E-13  0.4095E-13  0.8588E-16  0.1000E-09  0.0000E+00  0.6556E+16
   -0.074996    0.22028  0.6720E-13  0.4095E-13  0.8588E-16  0.1000E-09  0.0000E+00  0.5848E+16
   -0.112495    0.31480  0.1195E-12  0.4095E-13  0.8588E-16  0.1000E-09  0.0000E+00  0.5368E+16
   -0.149993    0.40388  0.1703E-12  0.4095E-13  0.8588E-16  0.1000E-09  0.0000E+00  0.5026E+16
   -0.187493    0.48945  0.2094E-12  0.4095E-13  0.8588E-16  0.1000E-09  0.0000E+00  0.4769E+16
   -0.224992    0.57273  0.2316E-12  0.4095E-13  0.8588E-16  0.1000E-09  0.0000E+00  0.4556E+16
   -0.262492    0.65434  0.2372E-12  0.4095E-13  0.8588E-16  0.1000E-09  0.0000E+00  0.4460E+16
   -0.299992    0.73633  0.2297E-12  0.4095E-13  0.8588E-16  0.1000E-09  0.0000E+00  0.4389E+16
   -0.337492    0.81918  0.2136E-12  0.4095E-13  0.8588E-16  0.1000E-09  0.0000E+00  0.4312E+16
   -0.374992    0.90288  0.1931E-12  0.4095E-13  0.8588E-16  0.1000E-09  0.0000E+00  0.4202E+16
   -0.412493    0.98681  0.1719E-12  0.4095E-13  0.8588E-16  0.1000E-09  0.0000E+00  0.4056E+16
   -0.449993    1.07021  0.1524E-12  0.4095E-13  0.8588E-16  0.1000E-09  0.0000E+00  0.3872E+16
   -0.487494    1.15224  0.1359E-12  0.4095E-13  0.8588E-16  0.1000E-09  0.0000E+00  0.3688E+16
   -0.524995    1.23275  0.1229E-12  0.4095E-13  0.8588E-16  0.1000E-09  0.0000E+00  0.3700E+16
   -0.562497    1.31608  0.1131E-12  0.4095E-13  0.8588E-16  0.1000E-09  0.0000E+00  0.3673E+16
   -0.599998    1.40160  0.1061E-12  0.4095E-13  0.8588E-16  0.1000E-09  0.0000E+00  0.3619E+16
   -0.637499    1.48885  0.1013E-12  0.4095E-13  0.8588E-16  0.1000E-09  0.0000E+00  0.3544E+16
   -0.675000    1.57750  0.9792E-13  0.4095E-13  0.8588E-16  0.1000E-09  0.0000E+00  0.3456E+16
   -0.712502    1.66733  0.9562E-13  0.4095E-13  0.8588E-16  0.1000E-09  0.0000E+00  0.3358E+16
   -0.750003    1.75824  0.9401E-13  0.4095E-13  0.8588E-16  0.1000E-09  0.0000E+00  0.3252E+16
   -0.787505    1.85008  0.9285E-13  0.4095E-13  0.8588E-16  0.1000E-09  0.0000E+00  0.3141E+16
   -0.825006    1.94287  0.9198E-13  0.4095E-13  0.8588E-16  0.1000E-09  0.0000E+00  0.3031E+16
   -0.862507    2.03675  0.9130E-13  0.4095E-13  0.8588E-16  0.1000E-09  0.0000E+00  0.2925E+16
   -0.900009    2.13197  0.9076E-13  0.4095E-13  0.8588E-16  0.1000E-09  0.0000E+00  0.2825E+16
   -0.937510    2.22900  0.9032E-13  0.4095E-13  0.8588E-16  0.1000E-09  0.0000E+00  0.2736E+16
   -0.975011    2.32855  0.8996E-13  0.4095E-13  0.8588E-16  0.1000E-09  0.0000E+00  0.2664E+16
   -1.012512    2.43175  0.8968E-13  0.4095E-13  0.8588E-16  0.1000E-09  0.0000E+00  0.2470E+16
   -1.050013    2.53414  0.8946E-13  0.4095E-13  0.8588E-16  0.1000E-09  0.0000E+00  0.2267E+16
   -1.087514    2.63509  0.8929E-13  0.4416E-13  0.9005E-16  0.1000E-09  0.0000E+00  0.2075E+16
   -1.125014    2.73478  0.8916E-13  0.6964E-13  0.1300E-15  0.1000E-09  0.0000E+00  0.1948E+16
   -1.162514    2.83641  0.8907E-13  0.2068E-12  0.3443E-15  0.1000E-09  0.0000E+00  0.1830E+16
   -1.200015    2.94103  0.8900E-13  0.9074E-12  0.1420E-14  0.1000E-09  0.0000E+00  0.1714E+16
   -1.237515    3.04976  0.8896E-13  0.4354E-11  0.6602E-14  0.1004E-09  0.0000E+00  0.1604E+16
   -1.275014    3.16482  0.8893E-13  0.2104E-10  0.3119E-13  0.1293E-09  0.0000E+00  0.1506E+16
   -1.312514    3.29078  0.8890E-13  0.1004E-09  0.1459E-12  0.2897E-09  0.0000E+00  0.1407E+16
   -1.350013    3.43761  0.8889E-13  0.4679E-09  0.6704E-12  0.2038E-08  0.0000E+00  0.1181E+16
   -1.387512    3.62255  0.8888E-13  0.1675E-08  0.2502E-11  0.3287E-06  0.0000E+00  0.7770E+15
   -1.425010    3.80612  0.8888E-13  0.3469E-08  0.6900E-11  0.5863E-06  0.0000E+00  0.3482E+15
   -1.462508    3.97507  0.8888E-13  0.4877E-08  0.1817E-10  0.3982E-06  0.0000E+00 -0.4610E+14
   -1.500006    4.11314  0.8888E-13  0.0000E+00  0.0000E+00  0.0000E+00  0.0000E+00  0.0000E+00
