 1 - depth, m
 2 - temperature, C
 3 - salinity, kg/kg
 4 - turbulent kinetic energy, m**2/s**2
 5 - dissipation rate, m**2/s**3
 6 - kinematic heat conductance, m**2/s
 7 - modulus of horizontal velocity, m/s
 8 - Richardson number, n/d
   -0.000000   -0.00000  0.4272E-12  0.4096E-13  0.8590E-16  0.1000E-09  0.0000E+00  0.1211E+17
   -0.037498    0.18634  0.3636E-12  0.4096E-13  0.8590E-16  0.1000E-09  0.0000E+00  0.1141E+17
   -0.074996    0.37131  0.2990E-12  0.4096E-13  0.8590E-16  0.1000E-09  0.0000E+00  0.1073E+17
   -0.112494    0.55481  0.2299E-12  0.4096E-13  0.8590E-16  0.1000E-09  0.0000E+00  0.1005E+17
   -0.149993    0.73676  0.1729E-12  0.6994E-13  0.8590E-16  0.1000E-09  0.0000E+00  0.9392E+16
   -0.187492    0.91703  0.1345E-12  0.2633E-12  0.8590E-16  0.1000E-09  0.0000E+00  0.8745E+16
   -0.224991    1.09553  0.1126E-12  0.6244E-12  0.1358E-15  0.1000E-09  0.0000E+00  0.8112E+16
   -0.262490    1.27213  0.1015E-12  0.1251E-11  0.2390E-15  0.1000E-09  0.0000E+00  0.7501E+16
   -0.299990    1.44685  0.9660E-13  0.2344E-11  0.4250E-15  0.1000E-09  0.0000E+00  0.6906E+16
   -0.337490    1.61960  0.9459E-13  0.4267E-11  0.7514E-15  0.1000E-09  0.0000E+00  0.6327E+16
   -0.374990    1.79026  0.9379E-13  0.7656E-11  0.1319E-14  0.1000E-09  0.0000E+00  0.5793E+16
   -0.412490    1.95957  0.9339E-13  0.1362E-10  0.2301E-14  0.1000E-09  0.0000E+00  0.5287E+16
   -0.449991    2.12797  0.9306E-13  0.2409E-10  0.3993E-14  0.1000E-09  0.0000E+00  0.4788E+16
   -0.487492    2.29538  0.9264E-13  0.4238E-10  0.6896E-14  0.1000E-09  0.0000E+00  0.4298E+16
   -0.524992    2.46170  0.9207E-13  0.7396E-10  0.1182E-13  0.1000E-09  0.0000E+00  0.3816E+16
   -0.562493    2.62679  0.9132E-13  0.1282E-09  0.2011E-13  0.1000E-09  0.0000E+00  0.3346E+16
   -0.599994    2.79059  0.9042E-13  0.2210E-09  0.3406E-13  0.1000E-09  0.0000E+00  0.2887E+16
   -0.637495    2.95302  0.8938E-13  0.3790E-09  0.5740E-13  0.1000E-09  0.0000E+00  0.2440E+16
   -0.674997    3.11402  0.8827E-13  0.6471E-09  0.9628E-13  0.1333E-09  0.0000E+00  0.2005E+16
   -0.712498    3.27349  0.8720E-13  0.1100E-08  0.1608E-12  0.2821E-09  0.0000E+00  0.1582E+16
   -0.749999    3.43124  0.8632E-13  0.1860E-08  0.2674E-12  0.6304E-09  0.0000E+00  0.1177E+16
   -0.787500    3.58763  0.8573E-13  0.3132E-08  0.4424E-12  0.1570E-08  0.0000E+00  0.7823E+15
   -0.825001    3.74221  0.8543E-13  0.5239E-08  0.7279E-12  0.5067E-08  0.0000E+00  0.3986E+15
   -0.862502    3.89233  0.8533E-13  0.8557E-08  0.1172E-11  0.4928E-07  0.0000E+00  0.6592E+14
   -0.900004    4.00704  0.8532E-13  0.9366E-08  0.1288E-11  0.2677E-04  0.0000E+00 -0.2688E+12
   -0.937505    4.00785  0.8532E-13  0.9708E-08  0.1348E-11  0.2787E-04  0.0000E+00 -0.2691E+12
   -0.975005    4.00863  0.8532E-13  0.9972E-08  0.1403E-11  0.2809E-04  0.0000E+00 -0.2776E+12
   -1.012506    4.00941  0.8532E-13  0.1019E-07  0.1461E-11  0.2817E-04  0.0000E+00 -0.2891E+12
   -1.050007    4.01020  0.8532E-13  0.1037E-07  0.1524E-11  0.2799E-04  0.0000E+00 -0.3039E+12
   -1.087507    4.01100  0.8532E-13  0.1051E-07  0.1594E-11  0.2756E-04  0.0000E+00 -0.3226E+12
   -1.125008    4.01182  0.8532E-13  0.1062E-07  0.1673E-11  0.2683E-04  0.0000E+00 -0.3461E+12
   -1.162508    4.01267  0.8532E-13  0.1068E-07  0.1770E-11  0.2577E-04  0.0000E+00 -0.3766E+12
   -1.200008    4.01357  0.8532E-13  0.1068E-07  0.1893E-11  0.2324E-04  0.0000E+00 -0.4372E+12
   -1.237508    4.01457  0.8532E-13  0.1060E-07  0.2048E-11  0.1975E-04  0.0000E+00 -0.5413E+12
   -1.275007    4.01577  0.8532E-13  0.1042E-07  0.2247E-11  0.1654E-04  0.0000E+00 -0.6843E+12
   -1.312506    4.01722  0.8532E-13  0.1010E-07  0.2515E-11  0.1338E-04  0.0000E+00 -0.9030E+12
   -1.350005    4.01903  0.8532E-13  0.9579E-08  0.2907E-11  0.9966E-05  0.0000E+00 -0.1310E+13
   -1.387504    4.02149  0.8532E-13  0.8724E-08  0.3568E-11  0.6313E-05  0.0000E+00 -0.2282E+13
   -1.425002    4.02541  0.8532E-13  0.7219E-08  0.5012E-11  0.2758E-05  0.0000E+00 -0.6064E+13
   -1.462500    4.03431  0.8532E-13  0.4433E-08  0.1017E-10  0.4130E-06  0.0000E+00 -0.5328E+14
   -1.499998    4.08177  0.8532E-13  0.0000E+00  0.0000E+00  0.0000E+00  0.0000E+00  0.0000E+00
