 1 - depth, m
 2 - temperature, C
 3 - salinity, kg/kg
 4 - turbulent kinetic energy, m**2/s**2
 5 - dissipation rate, m**2/s**3
 6 - kinematic heat conductance, m**2/s
 7 - modulus of horizontal velocity, m/s
 8 - Richardson number, n/d
   -0.000000   -0.00000  0.2205E-12  0.4096E-13  0.8590E-16  0.1000E-09  0.0000E+00  0.9662E+16
   -0.037498    0.14786  0.3375E-12  0.4096E-13  0.8590E-16  0.1000E-09  0.0000E+00  0.9298E+16
   -0.074996    0.29614  0.3318E-12  0.4096E-13  0.8590E-16  0.1000E-09  0.0000E+00  0.8928E+16
   -0.112494    0.44473  0.2787E-12  0.4096E-13  0.8590E-16  0.1000E-09  0.0000E+00  0.8551E+16
   -0.149993    0.59352  0.2212E-12  0.4096E-13  0.8590E-16  0.1000E-09  0.0000E+00  0.8166E+16
   -0.187492    0.74236  0.1748E-12  0.4096E-13  0.8590E-16  0.1000E-09  0.0000E+00  0.7775E+16
   -0.224992    0.89109  0.1419E-12  0.4096E-13  0.8590E-16  0.1000E-09  0.0000E+00  0.7377E+16
   -0.262491    1.03953  0.1203E-12  0.4096E-13  0.8590E-16  0.1000E-09  0.0000E+00  0.6979E+16
   -0.299991    1.18757  0.1067E-12  0.4096E-13  0.8590E-16  0.1000E-09  0.0000E+00  0.6579E+16
   -0.337491    1.33506  0.9830E-13  0.4096E-13  0.8590E-16  0.1000E-09  0.0000E+00  0.6177E+16
   -0.374992    1.48180  0.9314E-13  0.4096E-13  0.8590E-16  0.1000E-09  0.0000E+00  0.5775E+16
   -0.412492    1.62758  0.8993E-13  0.4096E-13  0.8590E-16  0.1000E-09  0.0000E+00  0.5374E+16
   -0.449993    1.77220  0.8790E-13  0.9660E-13  0.8590E-16  0.1000E-09  0.0000E+00  0.4977E+16
   -0.487494    1.91548  0.8657E-13  0.3168E-12  0.9951E-16  0.1000E-09  0.0000E+00  0.4588E+16
   -0.524995    2.05732  0.8568E-13  0.7277E-12  0.1693E-15  0.1000E-09  0.0000E+00  0.4218E+16
   -0.562496    2.19794  0.8508E-13  0.1462E-11  0.3091E-15  0.1000E-09  0.0000E+00  0.3854E+16
   -0.599997    2.33721  0.8468E-13  0.2786E-11  0.5651E-15  0.1000E-09  0.0000E+00  0.3499E+16
   -0.637498    2.47503  0.8441E-13  0.5188E-11  0.1025E-14  0.1000E-09  0.0000E+00  0.3152E+16
   -0.675000    2.61126  0.8424E-13  0.9546E-11  0.1845E-14  0.1000E-09  0.0000E+00  0.2815E+16
   -0.712501    2.74581  0.8413E-13  0.1742E-10  0.3300E-14  0.1000E-09  0.0000E+00  0.2488E+16
   -0.750002    2.87860  0.8406E-13  0.3160E-10  0.5866E-14  0.1000E-09  0.0000E+00  0.2180E+16
   -0.787504    3.00998  0.8402E-13  0.5696E-10  0.1037E-13  0.1000E-09  0.0000E+00  0.1884E+16
   -0.825005    3.14008  0.8400E-13  0.1021E-09  0.1824E-13  0.1000E-09  0.0000E+00  0.1597E+16
   -0.862506    3.26888  0.8399E-13  0.1821E-09  0.3190E-13  0.1000E-09  0.0000E+00  0.1319E+16
   -0.900008    3.39638  0.8398E-13  0.3229E-09  0.5550E-13  0.1468E-09  0.0000E+00  0.1050E+16
   -0.937509    3.52259  0.8398E-13  0.5694E-09  0.9607E-13  0.3379E-09  0.0000E+00  0.7897E+15
   -0.975010    3.64741  0.8398E-13  0.9989E-09  0.1654E-12  0.8547E-09  0.0000E+00  0.5376E+15
   -1.012511    3.77063  0.8398E-13  0.1745E-08  0.2837E-12  0.2683E-08  0.0000E+00  0.2941E+15
   -1.050012    3.89107  0.8398E-13  0.3020E-08  0.4827E-12  0.1924E-07  0.0000E+00  0.7013E+14
   -1.087512    3.99801  0.8398E-13  0.3798E-08  0.6103E-12  0.8453E-05  0.0000E+00 -0.3919E+12
   -1.125013    4.00000  0.8398E-13  0.4178E-08  0.6888E-12  0.9195E-05  0.0000E+00 -0.4159E+12
   -1.162513    4.00183  0.8398E-13  0.4486E-08  0.7718E-12  0.9504E-05  0.0000E+00 -0.4541E+12
   -1.200013    4.00361  0.8398E-13  0.4727E-08  0.8629E-12  0.9409E-05  0.0000E+00 -0.5107E+12
   -1.237513    4.00540  0.8398E-13  0.4896E-08  0.9669E-12  0.8931E-05  0.0000E+00 -0.5952E+12
   -1.275013    4.00730  0.8398E-13  0.4985E-08  0.1092E-11  0.8077E-05  0.0000E+00 -0.7269E+12
   -1.312512    4.00941  0.8398E-13  0.4974E-08  0.1252E-11  0.6854E-05  0.0000E+00 -0.9494E+12
   -1.350011    4.01191  0.8398E-13  0.4825E-08  0.1478E-11  0.5280E-05  0.0000E+00 -0.1380E+13
   -1.387510    4.01514  0.8398E-13  0.4464E-08  0.1844E-11  0.3426E-05  0.0000E+00 -0.2434E+13
   -1.425009    4.02011  0.8398E-13  0.3729E-08  0.2607E-11  0.1534E-05  0.0000E+00 -0.6542E+13
   -1.462507    4.03079  0.8398E-13  0.2425E-08  0.4995E-11  0.2679E-06  0.0000E+00 -0.4623E+14
   -1.500005    4.07512  0.8398E-13  0.0000E+00  0.0000E+00  0.0000E+00  0.0000E+00  0.0000E+00
