 1 - depth, m
 2 - temperature, C
 3 - salinity, kg/kg
 4 - turbulent kinetic energy, m**2/s**2
 5 - dissipation rate, m**2/s**3
 6 - kinematic heat conductance, m**2/s
 7 - modulus of horizontal velocity, m/s
 8 - Richardson number, n/d
   -0.000000   -0.00000  0.6495E-12  0.4096E-13  0.8590E-16  0.1000E-09  0.0000E+00  0.7981E+16
   -0.037498    0.12172  0.4209E-12  0.4096E-13  0.8590E-16  0.1000E-09  0.0000E+00  0.7680E+16
   -0.074996    0.24282  0.3132E-12  0.4096E-13  0.8590E-16  0.1000E-09  0.0000E+00  0.7379E+16
   -0.112494    0.36325  0.2367E-12  0.4096E-13  0.8590E-16  0.1000E-09  0.0000E+00  0.7080E+16
   -0.149992    0.48292  0.1803E-12  0.4096E-13  0.8590E-16  0.1000E-09  0.0000E+00  0.6783E+16
   -0.187491    0.60178  0.1431E-12  0.4096E-13  0.8590E-16  0.1000E-09  0.0000E+00  0.6488E+16
   -0.224990    0.71978  0.1216E-12  0.4096E-13  0.8590E-16  0.1000E-09  0.0000E+00  0.6198E+16
   -0.262490    0.83684  0.1104E-12  0.4096E-13  0.8590E-16  0.1000E-09  0.0000E+00  0.5911E+16
   -0.299990    0.95293  0.1052E-12  0.4096E-13  0.8590E-16  0.1000E-09  0.0000E+00  0.5629E+16
   -0.337489    1.06799  0.1029E-12  0.4096E-13  0.8590E-16  0.1000E-09  0.0000E+00  0.5351E+16
   -0.374990    1.18197  0.1019E-12  0.4096E-13  0.8590E-16  0.1000E-09  0.0000E+00  0.5104E+16
   -0.412490    1.29541  0.1014E-12  0.4096E-13  0.8590E-16  0.1000E-09  0.0000E+00  0.4876E+16
   -0.449990    1.40864  0.1008E-12  0.4096E-13  0.8590E-16  0.1000E-09  0.0000E+00  0.4648E+16
   -0.487491    1.52165  0.1003E-12  0.4096E-13  0.8590E-16  0.1000E-09  0.0000E+00  0.4420E+16
   -0.524992    1.63434  0.9953E-13  0.4096E-13  0.8590E-16  0.1000E-09  0.0000E+00  0.4178E+16
   -0.562493    1.74630  0.9869E-13  0.4096E-13  0.8590E-16  0.1000E-09  0.0000E+00  0.3941E+16
   -0.599994    1.85749  0.9779E-13  0.4096E-13  0.8590E-16  0.1000E-09  0.0000E+00  0.3707E+16
   -0.637495    1.96789  0.9688E-13  0.4096E-13  0.8590E-16  0.1000E-09  0.0000E+00  0.3478E+16
   -0.674996    2.07744  0.9604E-13  0.4096E-13  0.8590E-16  0.1000E-09  0.0000E+00  0.3252E+16
   -0.712497    2.18612  0.9530E-13  0.4096E-13  0.8590E-16  0.1000E-09  0.0000E+00  0.3031E+16
   -0.749998    2.29388  0.9469E-13  0.4096E-13  0.8590E-16  0.1000E-09  0.0000E+00  0.2826E+16
   -0.787499    2.40112  0.9422E-13  0.4096E-13  0.8590E-16  0.1000E-09  0.0000E+00  0.2627E+16
   -0.825000    2.50796  0.9386E-13  0.4096E-13  0.8590E-16  0.1000E-09  0.0000E+00  0.2430E+16
   -0.862501    2.61436  0.9359E-13  0.4096E-13  0.8590E-16  0.1000E-09  0.0000E+00  0.2235E+16
   -0.900002    2.72029  0.9340E-13  0.4096E-13  0.8590E-16  0.1000E-09  0.0000E+00  0.2043E+16
   -0.937503    2.82572  0.9327E-13  0.4096E-13  0.8590E-16  0.1000E-09  0.0000E+00  0.1853E+16
   -0.975004    2.93062  0.9318E-13  0.4984E-13  0.8590E-16  0.1000E-09  0.0000E+00  0.1666E+16
   -1.012505    3.03494  0.9312E-13  0.2195E-12  0.1665E-15  0.1000E-09  0.0000E+00  0.1495E+16
   -1.050005    3.13960  0.9308E-13  0.7089E-12  0.4753E-15  0.1000E-09  0.0000E+00  0.1325E+16
   -1.087506    3.24480  0.9305E-13  0.2113E-11  0.1360E-14  0.1000E-09  0.0000E+00  0.1154E+16
   -1.125006    3.35060  0.9304E-13  0.6136E-11  0.3826E-14  0.1000E-09  0.0000E+00  0.9903E+15
   -1.162506    3.45824  0.9304E-13  0.1754E-10  0.1062E-13  0.1000E-09  0.0000E+00  0.8200E+15
   -1.200006    3.56804  0.9303E-13  0.4943E-10  0.2907E-13  0.1245E-09  0.0000E+00  0.6399E+15
   -1.237506    3.68016  0.9303E-13  0.1374E-09  0.7860E-13  0.4787E-09  0.0000E+00  0.4479E+15
   -1.275005    3.79456  0.9303E-13  0.3767E-09  0.2098E-12  0.2324E-08  0.0000E+00  0.2432E+15
   -1.312504    3.91024  0.9303E-13  0.1005E-08  0.5479E-12  0.3157E-07  0.0000E+00  0.4140E+14
   -1.350003    4.00893  0.9303E-13  0.2262E-08  0.1256E-11  0.1491E-05  0.0000E+00 -0.4747E+13
   -1.387502    4.01975  0.9303E-13  0.2855E-08  0.1924E-11  0.1499E-05  0.0000E+00 -0.6872E+13
   -1.425000    4.03099  0.9303E-13  0.2957E-08  0.2948E-11  0.9734E-06  0.0000E+00 -0.1445E+14
   -1.462498    4.04830  0.9303E-13  0.2389E-08  0.5500E-11  0.2728E-06  0.0000E+00 -0.6620E+14
   -1.499996    4.09724  0.9303E-13  0.0000E+00  0.0000E+00  0.0000E+00  0.0000E+00  0.0000E+00
