 1 - depth, m
 2 - temperature, C
 3 - salinity, kg/kg
 4 - turbulent kinetic energy, m**2/s**2
 5 - dissipation rate, m**2/s**3
 6 - kinematic heat conductance, m**2/s
 7 - modulus of horizontal velocity, m/s
 8 - Richardson number, n/d
   -0.000000    5.80865  0.8766E-13  0.1658E-03  0.8166E-04  0.6629E-04  0.1299E+00 -0.4556E-02
   -0.037498    5.88723  0.8767E-13  0.9522E-04  0.2243E-04  0.1081E-03  0.4310E-01 -0.7953E-02
   -0.074996    5.89731  0.8767E-13  0.6895E-04  0.9657E-05  0.1083E-03  0.3141E-01 -0.1163E+00
   -0.112495    5.90561  0.8767E-13  0.5419E-04  0.5106E-05  0.1111E-03  0.2621E-01 -0.8859E-02
   -0.149994    5.91236  0.8767E-13  0.4379E-04  0.2849E-05  0.1159E-03  0.2246E-01 -0.1058E-01
   -0.187493    5.91832  0.8768E-13  0.3603E-04  0.1682E-05  0.1214E-03  0.1947E-01 -0.1374E-01
   -0.224993    5.92377  0.8768E-13  0.3017E-04  0.1052E-05  0.1272E-03  0.1700E-01 -0.1884E-01
   -0.262493    5.92883  0.8768E-13  0.2567E-04  0.6930E-06  0.1319E-03  0.1496E-01  0.1423E+00
   -0.299993    5.93359  0.8768E-13  0.2211E-04  0.4766E-06  0.1365E-03  0.1320E-01 -0.2992E-01
   -0.337493    5.93808  0.8768E-13  0.1920E-04  0.3389E-06  0.1412E-03  0.1169E-01 -0.3360E-01
   -0.374994    5.94233  0.8768E-13  0.1679E-04  0.2473E-06  0.1461E-03  0.1038E-01 -0.4457E-01
   -0.412494    5.94635  0.8768E-13  0.1478E-04  0.1843E-06  0.1515E-03  0.9264E-02 -0.5361E-01
   -0.449995    5.95015  0.8768E-13  0.1309E-04  0.1399E-06  0.1584E-03  0.8314E-02 -0.7329E-01
   -0.487496    5.95373  0.8768E-13  0.1171E-04  0.1083E-06  0.1664E-03  0.7515E-02  0.2658E+01
   -0.524997    5.95709  0.8768E-13  0.1060E-04  0.8562E-07  0.1725E-03  0.6842E-02 -0.3123E-01
   -0.562499    5.96028  0.8768E-13  0.9671E-05  0.6894E-07  0.1800E-03  0.6226E-02  0.4162E+01
   -0.600000    5.96328  0.8768E-13  0.8887E-05  0.5640E-07  0.1892E-03  0.5666E-02  0.7888E+00
   -0.637502    5.96609  0.8768E-13  0.8214E-05  0.4679E-07  0.2022E-03  0.5157E-02  0.1999E+01
   -0.675003    5.96870  0.8768E-13  0.7631E-05  0.3932E-07  0.2264E-03  0.4696E-02  0.6979E+02
   -0.712505    5.97105  0.8768E-13  0.7123E-05  0.3344E-07  0.2641E-03  0.4279E-02  0.3171E+02
   -0.750006    5.97310  0.8768E-13  0.6674E-05  0.2876E-07  0.3051E-03  0.3903E-02  0.3818E+03
   -0.787508    5.97488  0.8768E-13  0.6274E-05  0.2498E-07  0.3479E-03  0.3559E-02  0.2402E+03
   -0.825009    5.97641  0.8768E-13  0.5911E-05  0.2188E-07  0.3861E-03  0.3243E-02  0.3633E+03
   -0.862511    5.97774  0.8768E-13  0.5577E-05  0.1930E-07  0.4146E-03  0.2948E-02  0.8968E+02
   -0.900012    5.97891  0.8768E-13  0.5264E-05  0.1712E-07  0.4336E-03  0.2671E-02  0.2224E+03
   -0.937514    5.97995  0.8768E-13  0.4965E-05  0.1525E-07  0.4427E-03  0.2409E-02  0.1019E+03
   -0.975015    5.98093  0.8768E-13  0.4673E-05  0.1363E-07  0.4406E-03  0.2158E-02  0.3054E+02
   -1.012516    5.98186  0.8768E-13  0.4383E-05  0.1220E-07  0.4418E-03  0.1916E-02  0.7797E+01
   -1.050017    5.98277  0.8768E-13  0.4095E-05  0.1093E-07  0.4380E-03  0.1696E-02  0.3526E+01
   -1.087518    5.98366  0.8768E-13  0.3810E-05  0.9820E-08  0.4322E-03  0.1499E-02  0.2593E+01
   -1.125019    5.98454  0.8768E-13  0.3531E-05  0.8866E-08  0.4229E-03  0.1323E-02  0.2576E+01
   -1.162519    5.98542  0.8768E-13  0.3261E-05  0.8069E-08  0.4080E-03  0.1168E-02  0.1650E+01
   -1.200019    5.98630  0.8768E-13  0.3004E-05  0.7432E-08  0.3863E-03  0.1034E-02  0.1312E+01
   -1.237519    5.98722  0.8768E-13  0.2767E-05  0.6964E-08  0.3529E-03  0.9194E-03  0.1035E+01
   -1.275019    5.98820  0.8768E-13  0.2557E-05  0.6674E-08  0.3136E-03  0.8260E-03  0.8666E+00
   -1.312519    5.98926  0.8768E-13  0.2376E-05  0.6564E-08  0.2787E-03  0.7536E-03  0.1008E+01
   -1.350018    5.99042  0.8768E-13  0.2211E-05  0.6638E-08  0.2454E-03  0.6995E-03  0.1956E+01
   -1.387517    5.99170  0.8768E-13  0.2039E-05  0.6973E-08  0.2152E-03  0.6567E-03  0.7276E+01
   -1.425016    5.99312  0.8768E-13  0.1785E-05  0.8113E-08  0.8565E-04  0.6209E-03  0.1623E+05
   -1.462514    5.99649  0.8768E-13  0.9602E-06  0.1704E-07  0.7766E-05  0.5766E-03 -0.4837E+04
   -1.500012    6.03162  0.8768E-13  0.0000E+00  0.0000E+00  0.0000E+00  0.5684E-03  0.0000E+00
