 1 - depth, m
 2 - temperature, C
 3 - salinity, kg/kg
 4 - turbulent kinetic energy, m**2/s**2
 5 - dissipation rate, m**2/s**3
 6 - kinematic heat conductance, m**2/s
 7 - modulus of horizontal velocity, m/s
 8 - Richardson number, n/d
   -0.000000   -0.00000  0.6732E-12  0.6020E-11  0.2690E-14  0.1000E-09  0.0000E+00  0.1763E+17
   -0.037498    0.27452  0.4275E-12  0.1111E-10  0.2721E-14  0.1000E-09  0.0000E+00  0.1617E+17
   -0.074996    0.54678  0.2234E-12  0.2147E-10  0.3929E-14  0.1000E-09  0.0000E+00  0.1473E+17
   -0.112494    0.81638  0.1292E-12  0.3951E-10  0.6435E-14  0.1000E-09  0.0000E+00  0.1332E+17
   -0.149993    1.08298  0.9991E-13  0.7018E-10  0.1085E-13  0.1000E-09  0.0000E+00  0.1196E+17
   -0.187492    1.34631  0.9279E-13  0.1221E-09  0.1834E-13  0.1000E-09  0.0000E+00  0.1064E+17
   -0.224991    1.60611  0.9123E-13  0.2101E-09  0.3087E-13  0.1000E-09  0.0000E+00  0.9367E+16
   -0.262491    1.86214  0.9088E-13  0.3587E-09  0.5171E-13  0.1000E-09  0.0000E+00  0.8157E+16
   -0.299991    2.11454  0.9079E-13  0.6084E-09  0.8615E-13  0.1000E-09  0.0000E+00  0.7000E+16
   -0.337491    2.36322  0.9070E-13  0.1027E-08  0.1429E-12  0.1000E-09  0.0000E+00  0.5895E+16
   -0.374991    2.60802  0.9043E-13  0.1724E-08  0.2359E-12  0.1340E-09  0.0000E+00  0.4888E+16
   -0.412491    2.85140  0.8962E-13  0.2885E-08  0.3880E-12  0.2744E-09  0.0000E+00  0.3926E+16
   -0.449992    3.09477  0.8797E-13  0.4805E-08  0.6356E-12  0.5945E-09  0.0000E+00  0.2969E+16
   -0.487493    3.33788  0.8597E-13  0.7969E-08  0.1037E-11  0.1428E-08  0.0000E+00  0.2016E+16
   -0.524994    3.57976  0.8457E-13  0.1311E-07  0.1678E-11  0.4341E-08  0.0000E+00  0.1073E+16
   -0.562495    3.81627  0.8397E-13  0.2114E-07  0.2667E-11  0.3350E-07  0.0000E+00  0.2214E+15
   -0.599996    4.01287  0.8388E-13  0.2181E-07  0.2756E-11  0.6355E-04  0.0000E+00 -0.2270E+12
   -0.637497    4.01341  0.8388E-13  0.2212E-07  0.2806E-11  0.6217E-04  0.0000E+00 -0.2368E+12
   -0.674998    4.01396  0.8388E-13  0.2241E-07  0.2859E-11  0.6243E-04  0.0000E+00 -0.2411E+12
   -0.712499    4.01451  0.8388E-13  0.2267E-07  0.2917E-11  0.6259E-04  0.0000E+00 -0.2459E+12
   -0.750001    4.01507  0.8388E-13  0.2290E-07  0.2979E-11  0.6254E-04  0.0000E+00 -0.2517E+12
   -0.787502    4.01562  0.8388E-13  0.2310E-07  0.3045E-11  0.6228E-04  0.0000E+00 -0.2584E+12
   -0.825003    4.01618  0.8388E-13  0.2327E-07  0.3116E-11  0.6181E-04  0.0000E+00 -0.2662E+12
   -0.862504    4.01674  0.8388E-13  0.2340E-07  0.3194E-11  0.6113E-04  0.0000E+00 -0.2752E+12
   -0.900005    4.01731  0.8388E-13  0.2351E-07  0.3277E-11  0.6023E-04  0.0000E+00 -0.2856E+12
   -0.937507    4.01790  0.8388E-13  0.2358E-07  0.3368E-11  0.5912E-04  0.0000E+00 -0.2975E+12
   -0.975008    4.01849  0.8388E-13  0.2361E-07  0.3467E-11  0.5778E-04  0.0000E+00 -0.3114E+12
   -1.012508    4.01910  0.8388E-13  0.2361E-07  0.3576E-11  0.5620E-04  0.0000E+00 -0.3290E+12
   -1.050009    4.01974  0.8388E-13  0.2356E-07  0.3699E-11  0.5436E-04  0.0000E+00 -0.3502E+12
   -1.087510    4.02040  0.8388E-13  0.2346E-07  0.3837E-11  0.5225E-04  0.0000E+00 -0.3756E+12
   -1.125010    4.02110  0.8388E-13  0.2331E-07  0.3995E-11  0.4984E-04  0.0000E+00 -0.4042E+12
   -1.162510    4.02183  0.8388E-13  0.2309E-07  0.4178E-11  0.4711E-04  0.0000E+00 -0.4392E+12
   -1.200011    4.02261  0.8388E-13  0.2281E-07  0.4392E-11  0.4403E-04  0.0000E+00 -0.4833E+12
   -1.237510    4.02345  0.8388E-13  0.2243E-07  0.4649E-11  0.4062E-04  0.0000E+00 -0.5398E+12
   -1.275010    4.02437  0.8388E-13  0.2191E-07  0.4989E-11  0.3670E-04  0.0000E+00 -0.6167E+12
   -1.312509    4.02539  0.8388E-13  0.2112E-07  0.5505E-11  0.2681E-04  0.0000E+00 -0.8761E+12
   -1.350008    4.02680  0.8388E-13  0.1992E-07  0.6324E-11  0.1837E-04  0.0000E+00 -0.1342E+13
   -1.387507    4.02886  0.8388E-13  0.1814E-07  0.7723E-11  0.1146E-04  0.0000E+00 -0.2303E+13
   -1.425005    4.03219  0.8388E-13  0.1518E-07  0.1079E-10  0.5094E-05  0.0000E+00 -0.5778E+13
   -1.462503    4.03963  0.8388E-13  0.8981E-08  0.2312E-10  0.6762E-06  0.0000E+00 -0.5839E+14
   -1.500001    4.08783  0.8388E-13  0.0000E+00  0.0000E+00  0.0000E+00  0.0000E+00  0.0000E+00
