 1 - depth, m
 2 - temperature, C
 3 - salinity, kg/kg
 4 - turbulent kinetic energy, m**2/s**2
 5 - dissipation rate, m**2/s**3
 6 - kinematic heat conductance, m**2/s
 7 - modulus of horizontal velocity, m/s
 8 - Richardson number, n/d
   -0.000000   -0.00000  0.1083E-11  0.4096E-13  0.8590E-16  0.1000E-09  0.0000E+00  0.1235E+17
   -0.037498    0.19015  0.4233E-12  0.4096E-13  0.8590E-16  0.1000E-09  0.0000E+00  0.1147E+17
   -0.074996    0.37619  0.1677E-12  0.4096E-13  0.8590E-16  0.1000E-09  0.0000E+00  0.1058E+17
   -0.112494    0.55746  0.1052E-12  0.4096E-13  0.8590E-16  0.1000E-09  0.0000E+00  0.9720E+16
   -0.149993    0.73336  0.9892E-13  0.4096E-13  0.8590E-16  0.1000E-09  0.0000E+00  0.8884E+16
   -0.187492    0.90340  0.9786E-13  0.4096E-13  0.8590E-16  0.1000E-09  0.0000E+00  0.8085E+16
   -0.224991    1.06721  0.9777E-13  0.4209E-13  0.8590E-16  0.1000E-09  0.0000E+00  0.7332E+16
   -0.262490    1.22459  0.9773E-13  0.2064E-12  0.8590E-16  0.1000E-09  0.0000E+00  0.6659E+16
   -0.299990    1.37614  0.9772E-13  0.5369E-12  0.1317E-15  0.1000E-09  0.0000E+00  0.6045E+16
   -0.337490    1.52215  0.9771E-13  0.1124E-11  0.2359E-15  0.1000E-09  0.0000E+00  0.5487E+16
   -0.374990    1.66293  0.9770E-13  0.2172E-11  0.4299E-15  0.1000E-09  0.0000E+00  0.5091E+16
   -0.412491    1.80198  0.9768E-13  0.4059E-11  0.7788E-15  0.1000E-09  0.0000E+00  0.4792E+16
   -0.449991    1.94183  0.9762E-13  0.7467E-11  0.1400E-14  0.1000E-09  0.0000E+00  0.4510E+16
   -0.487492    2.08314  0.9745E-13  0.1361E-10  0.2501E-14  0.1000E-09  0.0000E+00  0.4237E+16
   -0.524993    2.22655  0.9705E-13  0.2458E-10  0.4428E-14  0.1000E-09  0.0000E+00  0.3963E+16
   -0.562494    2.37254  0.9628E-13  0.4402E-10  0.7781E-14  0.1000E-09  0.0000E+00  0.3681E+16
   -0.599995    2.52149  0.9512E-13  0.7836E-10  0.1359E-13  0.1000E-09  0.0000E+00  0.3385E+16
   -0.637496    2.67366  0.9373E-13  0.1388E-09  0.2362E-13  0.1000E-09  0.0000E+00  0.3068E+16
   -0.674997    2.82914  0.9239E-13  0.2444E-09  0.4085E-13  0.1000E-09  0.0000E+00  0.2727E+16
   -0.712498    2.98790  0.9135E-13  0.4284E-09  0.7030E-13  0.1000E-09  0.0000E+00  0.2360E+16
   -0.749999    3.14974  0.9062E-13  0.7473E-09  0.1204E-12  0.1685E-09  0.0000E+00  0.1983E+16
   -0.787501    3.31568  0.9002E-13  0.1297E-08  0.2052E-12  0.3618E-09  0.0000E+00  0.1574E+16
   -0.825002    3.48568  0.8936E-13  0.2240E-08  0.3481E-12  0.8538E-09  0.0000E+00  0.1131E+16
   -0.862503    3.65900  0.8892E-13  0.3846E-08  0.5874E-12  0.2470E-08  0.0000E+00  0.6596E+15
   -0.900004    3.83383  0.8876E-13  0.6533E-08  0.9813E-12  0.1498E-07  0.0000E+00  0.1814E+15
   -0.937505    3.99741  0.8873E-13  0.7511E-08  0.1134E-11  0.1513E-04  0.0000E+00 -0.3165E+12
   -0.975006    3.99910  0.8873E-13  0.8005E-08  0.1229E-11  0.1648E-04  0.0000E+00 -0.3351E+12
   -1.012507    4.00067  0.8873E-13  0.8455E-08  0.1333E-11  0.1752E-04  0.0000E+00 -0.3607E+12
   -1.050008    4.00220  0.8873E-13  0.8865E-08  0.1450E-11  0.1819E-04  0.0000E+00 -0.3938E+12
   -1.087508    4.00371  0.8873E-13  0.9232E-08  0.1580E-11  0.1850E-04  0.0000E+00 -0.4360E+12
   -1.125008    4.00524  0.8873E-13  0.9550E-08  0.1726E-11  0.1827E-04  0.0000E+00 -0.4886E+12
   -1.162509    4.00682  0.8873E-13  0.9815E-08  0.1894E-11  0.1764E-04  0.0000E+00 -0.5580E+12
   -1.200009    4.00849  0.8873E-13  0.1002E-07  0.2092E-11  0.1662E-04  0.0000E+00 -0.6529E+12
   -1.237508    4.01029  0.8873E-13  0.1014E-07  0.2330E-11  0.1520E-04  0.0000E+00 -0.7883E+12
   -1.275008    4.01231  0.8873E-13  0.1016E-07  0.2630E-11  0.1339E-04  0.0000E+00 -0.9936E+12
   -1.312507    4.01464  0.8873E-13  0.1005E-07  0.3028E-11  0.1116E-04  0.0000E+00 -0.1334E+13
   -1.350006    4.01750  0.8873E-13  0.9732E-08  0.3602E-11  0.8538E-05  0.0000E+00 -0.1980E+13
   -1.387505    4.02132  0.8873E-13  0.9079E-08  0.4554E-11  0.5594E-05  0.0000E+00 -0.3529E+13
   -1.425003    4.02725  0.8873E-13  0.7784E-08  0.6579E-11  0.2605E-05  0.0000E+00 -0.9440E+13
   -1.462501    4.04000  0.8873E-13  0.5282E-08  0.1348E-10  0.4891E-06  0.0000E+00 -0.7375E+14
   -1.499999    4.09726  0.8873E-13  0.0000E+00  0.0000E+00  0.0000E+00  0.0000E+00  0.0000E+00
