 1 - depth, m
 2 - temperature, C
 3 - salinity, kg/kg
 4 - turbulent kinetic energy, m**2/s**2
 5 - dissipation rate, m**2/s**3
 6 - kinematic heat conductance, m**2/s
 7 - modulus of horizontal velocity, m/s
 8 - Richardson number, n/d
   -0.000000    0.44433  0.9012E-13  0.1210E-02  0.7883E-02  0.1045E-03  0.5209E+00 -0.1060E-01
   -0.037498    0.47589  0.9016E-13  0.6717E-03  0.4754E-02  0.2611E-03  0.1546E+00  0.3634E-01
   -0.074996    0.48527  0.9018E-13  0.4439E-03  0.1752E-02  0.3355E-03  0.9506E-01 -0.7729E-02
   -0.112495    0.48955  0.9019E-13  0.3537E-03  0.1203E-02  0.3559E-03  0.7630E-01  0.1392E+00
   -0.149994    0.49217  0.9020E-13  0.2903E-03  0.8548E-03  0.3648E-03  0.6500E-01  0.4473E-01
   -0.187493    0.49415  0.9020E-13  0.2434E-03  0.6102E-03  0.3571E-03  0.5761E-01  0.1659E+00
   -0.224993    0.49587  0.9020E-13  0.2077E-03  0.4238E-03  0.3587E-03  0.5236E-01  0.2084E-01
   -0.262493    0.49748  0.9021E-13  0.1797E-03  0.2937E-03  0.3626E-03  0.4836E-01  0.9838E-02
   -0.299993    0.49899  0.9021E-13  0.1574E-03  0.2013E-03  0.3677E-03  0.4487E-01 -0.6280E+00
   -0.337493    0.50041  0.9021E-13  0.1392E-03  0.1357E-03  0.3738E-03  0.4184E-01  0.2225E-01
   -0.374993    0.50182  0.9021E-13  0.1242E-03  0.9009E-04  0.3784E-03  0.3922E-01  0.1337E+00
   -0.412494    0.50324  0.9021E-13  0.1115E-03  0.5887E-04  0.3864E-03  0.3689E-01  0.7569E+00
   -0.449995    0.50467  0.9022E-13  0.1009E-03  0.3797E-04  0.3958E-03  0.3490E-01  0.4918E+00
   -0.487496    0.50610  0.9022E-13  0.9214E-04  0.2431E-04  0.4046E-03  0.3329E-01  0.8812E+00
   -0.524997    0.50753  0.9022E-13  0.8491E-04  0.1560E-04  0.4079E-03  0.3215E-01  0.1974E+01
   -0.562498    0.50902  0.9022E-13  0.7876E-04  0.1010E-04  0.4098E-03  0.3073E-01  0.1549E+01
   -0.600000    0.51057  0.9022E-13  0.7337E-04  0.6669E-05  0.4136E-03  0.2929E-01  0.2073E+00
   -0.637501    0.51212  0.9023E-13  0.6863E-04  0.4530E-05  0.4157E-03  0.2795E-01  0.1551E+00
   -0.675002    0.51367  0.9023E-13  0.6438E-04  0.3173E-05  0.4207E-03  0.2669E-01  0.1381E+00
   -0.712504    0.51523  0.9023E-13  0.6063E-04  0.2295E-05  0.4220E-03  0.2552E-01  0.1820E+00
   -0.750005    0.51684  0.9023E-13  0.5720E-04  0.1712E-05  0.4229E-03  0.2442E-01  0.9173E+00
   -0.787507    0.51850  0.9023E-13  0.5411E-04  0.1318E-05  0.4223E-03  0.2338E-01  0.1618E+00
   -0.825008    0.52023  0.9023E-13  0.5129E-04  0.1045E-05  0.4200E-03  0.2239E-01  0.1646E+00
   -0.862510    0.52207  0.9024E-13  0.4869E-04  0.8525E-06  0.4155E-03  0.2144E-01  0.1424E+00
   -0.900011    0.52404  0.9024E-13  0.4630E-04  0.7152E-06  0.4095E-03  0.2053E-01  0.1394E+00
   -0.937513    0.52619  0.9024E-13  0.4412E-04  0.6173E-06  0.4010E-03  0.1964E-01  0.6256E+00
   -0.975014    0.52858  0.9024E-13  0.4202E-04  0.5471E-06  0.3271E-03  0.1876E-01  0.1176E+00
   -1.012515    0.54435  0.9025E-13  0.3868E-04  0.4600E-06  0.3743E-03  0.1308E-01  0.2051E+00
   -1.050016    0.54732  0.9025E-13  0.3598E-04  0.4014E-06  0.3621E-03  0.1226E-01  0.3481E+00
   -1.087517    0.55071  0.9025E-13  0.3334E-04  0.3534E-06  0.3467E-03  0.1153E-01  0.7630E+00
   -1.125018    0.55504  0.9026E-13  0.3077E-04  0.3134E-06  0.3284E-03  0.1084E-01  0.1237E+01
   -1.162518    0.56109  0.9026E-13  0.2825E-04  0.2798E-06  0.3073E-03  0.1020E-01  0.5466E+01
   -1.200018    0.57220  0.9027E-13  0.2578E-04  0.2517E-06  0.2832E-03  0.9599E-02  0.6097E+02
   -1.237518    0.60653  0.9029E-13  0.2330E-04  0.2284E-06  0.2566E-03  0.9009E-02  0.3997E+03
   -1.275018    0.69704  0.9036E-13  0.2082E-04  0.2098E-06  0.2267E-03  0.8408E-02  0.1134E+04
   -1.312518    0.79157  0.9042E-13  0.1837E-04  0.1977E-06  0.1933E-03  0.7852E-02  0.1869E+04
   -1.350017    0.87073  0.9047E-13  0.1589E-04  0.1950E-06  0.1558E-03  0.7354E-02  0.4961E+04
   -1.387516    0.92966  0.9051E-13  0.1328E-04  0.2094E-06  0.1139E-03  0.6903E-02  0.2347E+06
   -1.425015    0.98093  0.9054E-13  0.1032E-04  0.2673E-06  0.6749E-04  0.6490E-02 -0.1156E+05
   -1.462513    1.03735  0.9056E-13  0.5479E-05  0.5947E-06  0.1172E-04  0.6083E-02 -0.2421E+06
   -1.500011    1.19885  0.9057E-13  0.0000E+00  0.0000E+00  0.0000E+00  0.5485E-02  0.0000E+00
