 1 - depth, m
 2 - temperature, C
 3 - salinity, kg/kg
 4 - turbulent kinetic energy, m**2/s**2
 5 - dissipation rate, m**2/s**3
 6 - kinematic heat conductance, m**2/s
 7 - modulus of horizontal velocity, m/s
 8 - Richardson number, n/d
   -0.000000   -0.00000  0.8470E-14  0.4096E-13  0.8589E-16  0.1000E-09  0.0000E+00  0.1558E+17
   -0.037498    0.24152  0.2938E-13  0.4096E-13  0.8589E-16  0.1000E-09  0.0000E+00  0.1313E+17
   -0.074996    0.45875  0.7212E-13  0.4096E-13  0.8589E-16  0.1000E-09  0.0000E+00  0.1099E+17
   -0.112495    0.65215  0.1272E-12  0.4096E-13  0.8589E-16  0.1000E-09  0.0000E+00  0.9153E+16
   -0.149993    0.82274  0.1821E-12  0.4096E-13  0.8589E-16  0.1000E-09  0.0000E+00  0.7590E+16
   -0.187493    0.97193  0.2252E-12  0.4096E-13  0.8589E-16  0.1000E-09  0.0000E+00  0.6273E+16
   -0.224992    1.10135  0.2501E-12  0.4096E-13  0.8589E-16  0.1000E-09  0.0000E+00  0.5166E+16
   -0.262492    1.21271  0.2564E-12  0.4096E-13  0.8589E-16  0.1000E-09  0.0000E+00  0.4297E+16
   -0.299992    1.30904  0.2478E-12  0.4096E-13  0.8589E-16  0.1000E-09  0.0000E+00  0.3587E+16
   -0.337492    1.39232  0.2295E-12  0.4096E-13  0.8589E-16  0.1000E-09  0.0000E+00  0.2997E+16
   -0.374992    1.46409  0.2065E-12  0.4096E-13  0.8589E-16  0.1000E-09  0.0000E+00  0.2553E+16
   -0.412493    1.52697  0.1829E-12  0.4096E-13  0.8589E-16  0.1000E-09  0.0000E+00  0.2218E+16
   -0.449994    1.58300  0.1614E-12  0.4096E-13  0.8589E-16  0.1000E-09  0.0000E+00  0.1951E+16
   -0.487494    1.63343  0.1433E-12  0.4096E-13  0.8589E-16  0.1000E-09  0.0000E+00  0.1768E+16
   -0.524995    1.68011  0.1290E-12  0.4096E-13  0.8589E-16  0.1000E-09  0.0000E+00  0.1762E+16
   -0.562497    1.72763  0.1184E-12  0.4096E-13  0.8589E-16  0.1000E-09  0.0000E+00  0.1796E+16
   -0.599998    1.77716  0.1108E-12  0.4096E-13  0.8589E-16  0.1000E-09  0.0000E+00  0.1861E+16
   -0.637499    1.82972  0.1056E-12  0.9692E-13  0.8788E-16  0.1000E-09  0.0000E+00  0.1950E+16
   -0.675000    1.88627  0.1021E-12  0.2756E-12  0.1584E-15  0.1000E-09  0.0000E+00  0.2060E+16
   -0.712502    1.94777  0.9965E-13  0.7461E-12  0.3625E-15  0.1000E-09  0.0000E+00  0.2188E+16
   -0.750003    2.01528  0.9801E-13  0.1920E-11  0.8914E-15  0.1000E-09  0.0000E+00  0.2374E+16
   -0.787505    2.09134  0.9685E-13  0.4823E-11  0.2176E-14  0.1000E-09  0.0000E+00  0.2589E+16
   -0.825006    2.17810  0.9601E-13  0.1195E-10  0.5253E-14  0.1000E-09  0.0000E+00  0.2820E+16
   -0.862507    2.27779  0.9537E-13  0.2926E-10  0.1254E-13  0.1000E-09  0.0000E+00  0.3061E+16
   -0.900009    2.39333  0.9487E-13  0.7088E-10  0.2964E-13  0.1000E-09  0.0000E+00  0.3298E+16
   -0.937510    2.52841  0.9447E-13  0.1699E-09  0.6933E-13  0.1000E-09  0.0000E+00  0.3498E+16
   -0.975011    2.68750  0.9414E-13  0.4033E-09  0.1606E-12  0.1305E-09  0.0000E+00  0.3604E+16
   -1.012512    2.87571  0.9388E-13  0.9500E-09  0.3693E-12  0.2922E-09  0.0000E+00  0.3526E+16
   -1.050013    3.09857  0.9367E-13  0.2224E-08  0.8443E-12  0.7617E-09  0.0000E+00  0.3137E+16
   -1.087514    3.36134  0.9350E-13  0.5155E-08  0.1912E-11  0.2489E-08  0.0000E+00  0.2272E+16
   -1.125014    3.66587  0.9331E-13  0.1170E-07  0.4251E-11  0.2038E-07  0.0000E+00  0.8445E+15
   -1.162515    3.98085  0.9315E-13  0.1643E-07  0.6106E-11  0.1355E-04  0.0000E+00  0.4386E+14
   -1.200015    4.03298  0.9313E-13  0.1851E-07  0.7092E-11  0.1846E-04  0.0000E+00 -0.2242E+13
   -1.237515    4.03599  0.9313E-13  0.1968E-07  0.7903E-11  0.1841E-04  0.0000E+00 -0.2429E+13
   -1.275014    4.03905  0.9313E-13  0.2045E-07  0.8820E-11  0.1745E-04  0.0000E+00 -0.2772E+13
   -1.312514    4.04233  0.9313E-13  0.2079E-07  0.9951E-11  0.1550E-04  0.0000E+00 -0.3386E+13
   -1.350013    4.04609  0.9313E-13  0.2061E-07  0.1150E-10  0.1265E-04  0.0000E+00 -0.4536E+13
   -1.387512    4.05078  0.9313E-13  0.1968E-07  0.1394E-10  0.8967E-05  0.0000E+00 -0.7116E+13
   -1.425010    4.05752  0.9313E-13  0.1741E-07  0.1901E-10  0.4644E-05  0.0000E+00 -0.1591E+14
   -1.462509    4.07065  0.9313E-13  0.1206E-07  0.3781E-10  0.9071E-06  0.0000E+00 -0.1101E+15
   -1.500006    4.13192  0.9313E-13  0.0000E+00  0.0000E+00  0.0000E+00  0.0000E+00  0.0000E+00
