 1 - depth, m
 2 - temperature, C
 3 - salinity, kg/kg
 4 - turbulent kinetic energy, m**2/s**2
 5 - dissipation rate, m**2/s**3
 6 - kinematic heat conductance, m**2/s
 7 - modulus of horizontal velocity, m/s
 8 - Richardson number, n/d
   -0.000000   -0.00000  0.7834E-12  0.4096E-13  0.8590E-16  0.1000E-09  0.0000E+00  0.1289E+17
   -0.037498    0.19865  0.4115E-12  0.4096E-13  0.8590E-16  0.1000E-09  0.0000E+00  0.1210E+17
   -0.074996    0.39584  0.2487E-12  0.4366E-13  0.8590E-16  0.1000E-09  0.0000E+00  0.1133E+17
   -0.112494    0.59140  0.1802E-12  0.2078E-12  0.8590E-16  0.1000E-09  0.0000E+00  0.1056E+17
   -0.149992    0.78516  0.1446E-12  0.5382E-12  0.1117E-15  0.1000E-09  0.0000E+00  0.9811E+16
   -0.187491    0.97694  0.1227E-12  0.1088E-11  0.1794E-15  0.1000E-09  0.0000E+00  0.9077E+16
   -0.224990    1.16658  0.1085E-12  0.1989E-11  0.3009E-15  0.1000E-09  0.0000E+00  0.8359E+16
   -0.262490    1.35389  0.9952E-13  0.3481E-11  0.5052E-15  0.1000E-09  0.0000E+00  0.7664E+16
   -0.299990    1.53877  0.9405E-13  0.5956E-11  0.8426E-15  0.1000E-09  0.0000E+00  0.6990E+16
   -0.337489    1.72110  0.9074E-13  0.1007E-10  0.1397E-14  0.1000E-09  0.0000E+00  0.6339E+16
   -0.374990    1.90073  0.8866E-13  0.1692E-10  0.2302E-14  0.1000E-09  0.0000E+00  0.5724E+16
   -0.412490    2.07792  0.8727E-13  0.2825E-10  0.3777E-14  0.1000E-09  0.0000E+00  0.5136E+16
   -0.449990    2.25281  0.8626E-13  0.4696E-10  0.6172E-14  0.1000E-09  0.0000E+00  0.4570E+16
   -0.487491    2.42530  0.8549E-13  0.7773E-10  0.1004E-13  0.1000E-09  0.0000E+00  0.4025E+16
   -0.524992    2.59532  0.8493E-13  0.1278E-09  0.1623E-13  0.1000E-09  0.0000E+00  0.3503E+16
   -0.562492    2.76286  0.8453E-13  0.2087E-09  0.2607E-13  0.1000E-09  0.0000E+00  0.3003E+16
   -0.599993    2.92788  0.8428E-13  0.3392E-09  0.4169E-13  0.1000E-09  0.0000E+00  0.2526E+16
   -0.637494    3.09033  0.8412E-13  0.5491E-09  0.6637E-13  0.1000E-09  0.0000E+00  0.2070E+16
   -0.674996    3.25019  0.8404E-13  0.8850E-09  0.1052E-12  0.1787E-09  0.0000E+00  0.1636E+16
   -0.712497    3.40732  0.8400E-13  0.1421E-08  0.1662E-12  0.3777E-09  0.0000E+00  0.1222E+16
   -0.749998    3.56157  0.8399E-13  0.2271E-08  0.2615E-12  0.8718E-09  0.0000E+00  0.8334E+15
   -0.787499    3.71320  0.8398E-13  0.3614E-08  0.4095E-12  0.2458E-08  0.0000E+00  0.4633E+15
   -0.825000    3.86127  0.8398E-13  0.5698E-08  0.6360E-12  0.1458E-07  0.0000E+00  0.1219E+15
   -0.862501    3.99618  0.8398E-13  0.6301E-08  0.7061E-12  0.1865E-04  0.0000E+00 -0.1805E+12
   -0.900002    3.99730  0.8398E-13  0.6595E-08  0.7469E-12  0.2029E-04  0.0000E+00 -0.1835E+12
   -0.937503    3.99834  0.8398E-13  0.6853E-08  0.7896E-12  0.2156E-04  0.0000E+00 -0.1882E+12
   -0.975004    3.99931  0.8398E-13  0.7077E-08  0.8346E-12  0.2214E-04  0.0000E+00 -0.1972E+12
   -1.012505    4.00025  0.8398E-13  0.7269E-08  0.8825E-12  0.2228E-04  0.0000E+00 -0.2101E+12
   -1.050005    4.00119  0.8398E-13  0.7432E-08  0.9350E-12  0.2209E-04  0.0000E+00 -0.2266E+12
   -1.087506    4.00214  0.8398E-13  0.7565E-08  0.9937E-12  0.2153E-04  0.0000E+00 -0.2479E+12
   -1.125006    4.00311  0.8398E-13  0.7666E-08  0.1061E-11  0.2043E-04  0.0000E+00 -0.2778E+12
   -1.162506    4.00414  0.8398E-13  0.7729E-08  0.1139E-11  0.1891E-04  0.0000E+00 -0.3196E+12
   -1.200006    4.00525  0.8398E-13  0.7744E-08  0.1233E-11  0.1710E-04  0.0000E+00 -0.3768E+12
   -1.237506    4.00648  0.8398E-13  0.7701E-08  0.1347E-11  0.1516E-04  0.0000E+00 -0.4554E+12
   -1.275005    4.00788  0.8398E-13  0.7582E-08  0.1493E-11  0.1300E-04  0.0000E+00 -0.5723E+12
   -1.312504    4.00951  0.8398E-13  0.7358E-08  0.1688E-11  0.1054E-04  0.0000E+00 -0.7665E+12
   -1.350003    4.01154  0.8398E-13  0.6978E-08  0.1975E-11  0.7796E-05  0.0000E+00 -0.1141E+13
   -1.387502    4.01428  0.8398E-13  0.6342E-08  0.2460E-11  0.4874E-05  0.0000E+00 -0.2064E+13
   -1.425000    4.01865  0.8398E-13  0.5218E-08  0.3513E-11  0.2091E-05  0.0000E+00 -0.5786E+13
   -1.462498    4.02856  0.8398E-13  0.3267E-08  0.7058E-11  0.3316E-06  0.0000E+00 -0.4872E+14
   -1.499996    4.07581  0.8398E-13  0.0000E+00  0.0000E+00  0.0000E+00  0.0000E+00  0.0000E+00
