 1 - depth, m
 2 - temperature, C
 3 - salinity, kg/kg
 4 - turbulent kinetic energy, m**2/s**2
 5 - dissipation rate, m**2/s**3
 6 - kinematic heat conductance, m**2/s
 7 - modulus of horizontal velocity, m/s
 8 - Richardson number, n/d
   -0.000000   -0.00000  0.2006E-11  0.4096E-13  0.8590E-16  0.1000E-09  0.0000E+00  0.1812E+17
   -0.037497    0.28257  0.4710E-16  0.4096E-13  0.8590E-16  0.1000E-09  0.0000E+00  0.1491E+17
   -0.074995    0.53352  0.1389E-12  0.4096E-13  0.8590E-16  0.1000E-09  0.0000E+00  0.1210E+17
   -0.112493    0.75240  0.9276E-13  0.4096E-13  0.8590E-16  0.1000E-09  0.0000E+00  0.9722E+16
   -0.149991    0.94021  0.1042E-12  0.4096E-13  0.8590E-16  0.1000E-09  0.0000E+00  0.7735E+16
   -0.187490    1.09883  0.1016E-12  0.4096E-13  0.8590E-16  0.1000E-09  0.0000E+00  0.6095E+16
   -0.224989    1.23055  0.1020E-12  0.4096E-13  0.8590E-16  0.1000E-09  0.0000E+00  0.4749E+16
   -0.262488    1.33794  0.1019E-12  0.4096E-13  0.8590E-16  0.1000E-09  0.0000E+00  0.3707E+16
   -0.299987    1.42505  0.1019E-12  0.4096E-13  0.8590E-16  0.1000E-09  0.0000E+00  0.2877E+16
   -0.337487    1.49486  0.1018E-12  0.4096E-13  0.8590E-16  0.1000E-09  0.0000E+00  0.2211E+16
   -0.374987    1.54994  0.1018E-12  0.4583E-13  0.8590E-16  0.1000E-09  0.0000E+00  0.1803E+16
   -0.412487    1.59587  0.1018E-12  0.1415E-12  0.9068E-16  0.1000E-09  0.0000E+00  0.1586E+16
   -0.449987    1.63704  0.1018E-12  0.4078E-12  0.1704E-15  0.1000E-09  0.0000E+00  0.1479E+16
   -0.487488    1.67617  0.1017E-12  0.1012E-11  0.3814E-15  0.1000E-09  0.0000E+00  0.1502E+16
   -0.524988    1.71666  0.1013E-12  0.2364E-11  0.8565E-15  0.1000E-09  0.0000E+00  0.1727E+16
   -0.562489    1.76416  0.1005E-12  0.5381E-11  0.1898E-14  0.1000E-09  0.0000E+00  0.2042E+16
   -0.599989    1.82173  0.9914E-13  0.1208E-10  0.4155E-14  0.1000E-09  0.0000E+00  0.2433E+16
   -0.637490    1.89247  0.9741E-13  0.2681E-10  0.9001E-14  0.1000E-09  0.0000E+00  0.2881E+16
   -0.674991    1.97959  0.9594E-13  0.5889E-10  0.1930E-13  0.1000E-09  0.0000E+00  0.3364E+16
   -0.712492    2.08658  0.9511E-13  0.1280E-09  0.4095E-13  0.1000E-09  0.0000E+00  0.3846E+16
   -0.749993    2.21711  0.9461E-13  0.2754E-09  0.8601E-13  0.1000E-09  0.0000E+00  0.4366E+16
   -0.787494    2.37845  0.9405E-13  0.5864E-09  0.1788E-12  0.1069E-09  0.0000E+00  0.4752E+16
   -0.824994    2.57532  0.9360E-13  0.1236E-08  0.3677E-12  0.2095E-09  0.0000E+00  0.4853E+16
   -0.862495    2.81044  0.9341E-13  0.2577E-08  0.7484E-12  0.4557E-09  0.0000E+00  0.4546E+16
   -0.899996    3.08499  0.9337E-13  0.5318E-08  0.1508E-11  0.1133E-08  0.0000E+00  0.3715E+16
   -0.937497    3.39687  0.9329E-13  0.1085E-07  0.3003E-11  0.3771E-08  0.0000E+00  0.2294E+16
   -0.974997    3.73531  0.9311E-13  0.2151E-07  0.5830E-11  0.3840E-07  0.0000E+00  0.5189E+15
   -1.012498    4.02717  0.9302E-13  0.2373E-07  0.6457E-11  0.3456E-04  0.0000E+00 -0.9694E+12
   -1.049998    4.02866  0.9302E-13  0.2467E-07  0.6792E-11  0.3479E-04  0.0000E+00 -0.1028E+13
   -1.087498    4.03018  0.9302E-13  0.2542E-07  0.7140E-11  0.3512E-04  0.0000E+00 -0.1088E+13
   -1.124998    4.03173  0.9302E-13  0.2602E-07  0.7520E-11  0.3494E-04  0.0000E+00 -0.1148E+13
   -1.162498    4.03331  0.9302E-13  0.2647E-07  0.7945E-11  0.3425E-04  0.0000E+00 -0.1227E+13
   -1.199998    4.03493  0.9302E-13  0.2676E-07  0.8430E-11  0.3302E-04  0.0000E+00 -0.1335E+13
   -1.237497    4.03664  0.9302E-13  0.2686E-07  0.8999E-11  0.3113E-04  0.0000E+00 -0.1486E+13
   -1.274997    4.03848  0.9302E-13  0.2674E-07  0.9707E-11  0.2841E-04  0.0000E+00 -0.1711E+13
   -1.312495    4.04053  0.9302E-13  0.2630E-07  0.1071E-10  0.2358E-04  0.0000E+00 -0.2182E+13
   -1.349994    4.04304  0.9302E-13  0.2536E-07  0.1228E-10  0.1721E-04  0.0000E+00 -0.3209E+13
   -1.387492    4.04652  0.9302E-13  0.2365E-07  0.1486E-10  0.1144E-04  0.0000E+00 -0.5284E+13
   -1.424990    4.05185  0.9302E-13  0.2047E-07  0.2035E-10  0.5619E-05  0.0000E+00 -0.1226E+14
   -1.462488    4.06280  0.9302E-13  0.1347E-07  0.4159E-10  0.9640E-06  0.0000E+00 -0.9693E+14
   -1.499985    4.12107  0.9302E-13  0.0000E+00  0.0000E+00  0.0000E+00  0.0000E+00  0.0000E+00
