 1 - depth, m
 2 - temperature, C
 3 - salinity, kg/kg
 4 - turbulent kinetic energy, m**2/s**2
 5 - dissipation rate, m**2/s**3
 6 - kinematic heat conductance, m**2/s
 7 - modulus of horizontal velocity, m/s
 8 - Richardson number, n/d
   -0.000000   -0.00000  0.4552E-12  0.3658E-11  0.1437E-14  0.1000E-09  0.0000E+00  0.1657E+17
   -0.037498    0.25748  0.3713E-12  0.6377E-11  0.1443E-14  0.1000E-09  0.0000E+00  0.1524E+17
   -0.074995    0.51216  0.2787E-12  0.1189E-10  0.2026E-14  0.1000E-09  0.0000E+00  0.1395E+17
   -0.112494    0.76408  0.1894E-12  0.2135E-10  0.3231E-14  0.1000E-09  0.0000E+00  0.1271E+17
   -0.149992    1.01324  0.1329E-12  0.3716E-10  0.5325E-14  0.1000E-09  0.0000E+00  0.1152E+17
   -0.187491    1.25961  0.1060E-12  0.6341E-10  0.8816E-14  0.1000E-09  0.0000E+00  0.1036E+17
   -0.224990    1.50313  0.9555E-13  0.1070E-09  0.1455E-13  0.1000E-09  0.0000E+00  0.9250E+16
   -0.262490    1.74370  0.9210E-13  0.1791E-09  0.2391E-13  0.1000E-09  0.0000E+00  0.8183E+16
   -0.299989    1.98140  0.9102E-13  0.2979E-09  0.3908E-13  0.1000E-09  0.0000E+00  0.7155E+16
   -0.337489    2.21616  0.9055E-13  0.4931E-09  0.6359E-13  0.1000E-09  0.0000E+00  0.6165E+16
   -0.374989    2.44782  0.9000E-13  0.8127E-09  0.1031E-12  0.1000E-09  0.0000E+00  0.5248E+16
   -0.412490    2.67789  0.8906E-13  0.1334E-08  0.1664E-12  0.1057E-09  0.0000E+00  0.4372E+16
   -0.449990    2.90728  0.8770E-13  0.2182E-08  0.2678E-12  0.2120E-09  0.0000E+00  0.3506E+16
   -0.487491    3.13569  0.8622E-13  0.3554E-08  0.4292E-12  0.4492E-09  0.0000E+00  0.2653E+16
   -0.524991    3.36275  0.8502E-13  0.5751E-08  0.6834E-12  0.1046E-08  0.0000E+00  0.1814E+16
   -0.562492    3.58735  0.8430E-13  0.9240E-08  0.1081E-11  0.3000E-08  0.0000E+00  0.1000E+16
   -0.599993    3.80727  0.8400E-13  0.1467E-07  0.1692E-11  0.1886E-07  0.0000E+00  0.2491E+15
   -0.637494    4.00381  0.8394E-13  0.1523E-07  0.1759E-11  0.4996E-04  0.0000E+00 -0.1745E+12
   -0.674995    4.00443  0.8394E-13  0.1549E-07  0.1797E-11  0.4915E-04  0.0000E+00 -0.1833E+12
   -0.712496    4.00507  0.8394E-13  0.1574E-07  0.1839E-11  0.4945E-04  0.0000E+00 -0.1884E+12
   -0.749997    4.00570  0.8394E-13  0.1597E-07  0.1884E-11  0.4965E-04  0.0000E+00 -0.1941E+12
   -0.787498    4.00633  0.8394E-13  0.1617E-07  0.1932E-11  0.4966E-04  0.0000E+00 -0.2007E+12
   -0.825000    4.00696  0.8394E-13  0.1635E-07  0.1984E-11  0.4947E-04  0.0000E+00 -0.2081E+12
   -0.862501    4.00759  0.8394E-13  0.1651E-07  0.2040E-11  0.4910E-04  0.0000E+00 -0.2166E+12
   -0.900002    4.00823  0.8394E-13  0.1665E-07  0.2101E-11  0.4854E-04  0.0000E+00 -0.2261E+12
   -0.937503    4.00888  0.8394E-13  0.1676E-07  0.2167E-11  0.4778E-04  0.0000E+00 -0.2370E+12
   -0.975003    4.00954  0.8394E-13  0.1684E-07  0.2239E-11  0.4682E-04  0.0000E+00 -0.2495E+12
   -1.012504    4.01022  0.8394E-13  0.1689E-07  0.2317E-11  0.4566E-04  0.0000E+00 -0.2649E+12
   -1.050005    4.01092  0.8394E-13  0.1691E-07  0.2405E-11  0.4427E-04  0.0000E+00 -0.2832E+12
   -1.087505    4.01164  0.8394E-13  0.1689E-07  0.2504E-11  0.4264E-04  0.0000E+00 -0.3050E+12
   -1.125005    4.01240  0.8394E-13  0.1683E-07  0.2616E-11  0.4074E-04  0.0000E+00 -0.3304E+12
   -1.162506    4.01319  0.8394E-13  0.1672E-07  0.2745E-11  0.3855E-04  0.0000E+00 -0.3615E+12
   -1.200005    4.01404  0.8394E-13  0.1655E-07  0.2895E-11  0.3608E-04  0.0000E+00 -0.4005E+12
   -1.237505    4.01495  0.8394E-13  0.1631E-07  0.3082E-11  0.3327E-04  0.0000E+00 -0.4512E+12
   -1.275004    4.01594  0.8394E-13  0.1592E-07  0.3347E-11  0.2715E-04  0.0000E+00 -0.5766E+12
   -1.312504    4.01716  0.8394E-13  0.1532E-07  0.3742E-11  0.2002E-04  0.0000E+00 -0.8232E+12
   -1.350002    4.01882  0.8394E-13  0.1445E-07  0.4335E-11  0.1433E-04  0.0000E+00 -0.1228E+13
   -1.387501    4.02114  0.8394E-13  0.1313E-07  0.5341E-11  0.8931E-05  0.0000E+00 -0.2151E+13
   -1.424999    4.02489  0.8394E-13  0.1091E-07  0.7559E-11  0.3893E-05  0.0000E+00 -0.5689E+13
   -1.462497    4.03337  0.8394E-13  0.6548E-08  0.1603E-10  0.5449E-06  0.0000E+00 -0.5693E+14
   -1.499995    4.08373  0.8394E-13  0.0000E+00  0.0000E+00  0.0000E+00  0.0000E+00  0.0000E+00
