 1 - depth, m
 2 - temperature, C
 3 - salinity, kg/kg
 4 - turbulent kinetic energy, m**2/s**2
 5 - dissipation rate, m**2/s**3
 6 - kinematic heat conductance, m**2/s
 7 - modulus of horizontal velocity, m/s
 8 - Richardson number, n/d
   -0.000000   -0.00000  0.1600E-12  0.4096E-13  0.8590E-16  0.1000E-09  0.0000E+00  0.9129E+16
   -0.037498    0.13956  0.2348E-12  0.4096E-13  0.8590E-16  0.1000E-09  0.0000E+00  0.8789E+16
   -0.074996    0.27922  0.2756E-12  0.4096E-13  0.8590E-16  0.1000E-09  0.0000E+00  0.8444E+16
   -0.112494    0.41887  0.2752E-12  0.4096E-13  0.8590E-16  0.1000E-09  0.0000E+00  0.8095E+16
   -0.149993    0.55844  0.2465E-12  0.4096E-13  0.8590E-16  0.1000E-09  0.0000E+00  0.7744E+16
   -0.187492    0.69781  0.2075E-12  0.4096E-13  0.8590E-16  0.1000E-09  0.0000E+00  0.7390E+16
   -0.224992    0.83688  0.1709E-12  0.4096E-13  0.8590E-16  0.1000E-09  0.0000E+00  0.7034E+16
   -0.262491    0.97556  0.1420E-12  0.4096E-13  0.8590E-16  0.1000E-09  0.0000E+00  0.6682E+16
   -0.299991    1.11381  0.1216E-12  0.4096E-13  0.8590E-16  0.1000E-09  0.0000E+00  0.6330E+16
   -0.337491    1.25155  0.1079E-12  0.4096E-13  0.8590E-16  0.1000E-09  0.0000E+00  0.5979E+16
   -0.374992    1.38867  0.9918E-13  0.4096E-13  0.8590E-16  0.1000E-09  0.0000E+00  0.5628E+16
   -0.412492    1.52503  0.9368E-13  0.4096E-13  0.8590E-16  0.1000E-09  0.0000E+00  0.5278E+16
   -0.449993    1.66048  0.9023E-13  0.4096E-13  0.8590E-16  0.1000E-09  0.0000E+00  0.4932E+16
   -0.487494    1.79491  0.8804E-13  0.4096E-13  0.8590E-16  0.1000E-09  0.0000E+00  0.4592E+16
   -0.524995    1.92825  0.8663E-13  0.4096E-13  0.8590E-16  0.1000E-09  0.0000E+00  0.4269E+16
   -0.562496    2.06075  0.8571E-13  0.4096E-13  0.8590E-16  0.1000E-09  0.0000E+00  0.3949E+16
   -0.599997    2.19233  0.8510E-13  0.1720E-12  0.8590E-16  0.1000E-09  0.0000E+00  0.3635E+16
   -0.637498    2.32288  0.8469E-13  0.4665E-12  0.1405E-15  0.1000E-09  0.0000E+00  0.3326E+16
   -0.674999    2.45233  0.8442E-13  0.1029E-11  0.2703E-15  0.1000E-09  0.0000E+00  0.3023E+16
   -0.712501    2.58057  0.8425E-13  0.2109E-11  0.5266E-15  0.1000E-09  0.0000E+00  0.2727E+16
   -0.750002    2.70753  0.8414E-13  0.4194E-11  0.1017E-14  0.1000E-09  0.0000E+00  0.2444E+16
   -0.787503    2.83340  0.8407E-13  0.8222E-11  0.1948E-14  0.1000E-09  0.0000E+00  0.2169E+16
   -0.825005    2.95821  0.8403E-13  0.1597E-10  0.3702E-14  0.1000E-09  0.0000E+00  0.1901E+16
   -0.862506    3.08189  0.8400E-13  0.3080E-10  0.6988E-14  0.1000E-09  0.0000E+00  0.1640E+16
   -0.900007    3.20440  0.8399E-13  0.5898E-10  0.1310E-13  0.1000E-09  0.0000E+00  0.1386E+16
   -0.937509    3.32570  0.8399E-13  0.1122E-09  0.2442E-13  0.1000E-09  0.0000E+00  0.1140E+16
   -0.975010    3.44576  0.8398E-13  0.2122E-09  0.4521E-13  0.1390E-09  0.0000E+00  0.9021E+15
   -1.012511    3.56454  0.8398E-13  0.3995E-09  0.8341E-13  0.3453E-09  0.0000E+00  0.6699E+15
   -1.050011    3.68159  0.8398E-13  0.7502E-09  0.1535E-12  0.9525E-09  0.0000E+00  0.4469E+15
   -1.087512    3.79651  0.8398E-13  0.1400E-08  0.2810E-12  0.3319E-08  0.0000E+00  0.2345E+15
   -1.125013    3.90790  0.8398E-13  0.2566E-08  0.5058E-12  0.3001E-07  0.0000E+00  0.4639E+14
   -1.162513    4.00178  0.8398E-13  0.3468E-08  0.6877E-12  0.6674E-05  0.0000E+00 -0.6165E+12
   -1.200013    4.00415  0.8398E-13  0.3892E-08  0.7997E-12  0.7149E-05  0.0000E+00 -0.6591E+12
   -1.237513    4.00637  0.8398E-13  0.4204E-08  0.9179E-12  0.7164E-05  0.0000E+00 -0.7393E+12
   -1.275013    4.00860  0.8398E-13  0.4409E-08  0.1052E-11  0.6750E-05  0.0000E+00 -0.8746E+12
   -1.312512    4.01098  0.8398E-13  0.4495E-08  0.1215E-11  0.5921E-05  0.0000E+00 -0.1110E+13
   -1.350011    4.01370  0.8398E-13  0.4431E-08  0.1438E-11  0.4694E-05  0.0000E+00 -0.1569E+13
   -1.387510    4.01715  0.8398E-13  0.4149E-08  0.1789E-11  0.3128E-05  0.0000E+00 -0.2688E+13
   -1.425008    4.02228  0.8398E-13  0.3500E-08  0.2503E-11  0.1439E-05  0.0000E+00 -0.6952E+13
   -1.462506    4.03302  0.8398E-13  0.2297E-08  0.4705E-11  0.2575E-06  0.0000E+00 -0.4613E+14
   -1.500004    4.07618  0.8398E-13  0.0000E+00  0.0000E+00  0.0000E+00  0.0000E+00  0.0000E+00
