 1 - depth, m
 2 - temperature, C
 3 - salinity, kg/kg
 4 - turbulent kinetic energy, m**2/s**2
 5 - dissipation rate, m**2/s**3
 6 - kinematic heat conductance, m**2/s
 7 - modulus of horizontal velocity, m/s
 8 - Richardson number, n/d
   -0.000000   -0.00000  0.4172E-12  0.4096E-13  0.8590E-16  0.1000E-09  0.0000E+00  0.1046E+17
   -0.037498    0.16032  0.3990E-12  0.4096E-13  0.8590E-16  0.1000E-09  0.0000E+00  0.9985E+16
   -0.074996    0.32038  0.3248E-12  0.4096E-13  0.8590E-16  0.1000E-09  0.0000E+00  0.9509E+16
   -0.112494    0.48003  0.2497E-12  0.4096E-13  0.8590E-16  0.1000E-09  0.0000E+00  0.9031E+16
   -0.149993    0.63913  0.1915E-12  0.4096E-13  0.8590E-16  0.1000E-09  0.0000E+00  0.8551E+16
   -0.187492    0.79753  0.1514E-12  0.4096E-13  0.8590E-16  0.1000E-09  0.0000E+00  0.8073E+16
   -0.224991    0.95508  0.1257E-12  0.4096E-13  0.8590E-16  0.1000E-09  0.0000E+00  0.7597E+16
   -0.262491    1.11163  0.1098E-12  0.4096E-13  0.8590E-16  0.1000E-09  0.0000E+00  0.7128E+16
   -0.299991    1.26711  0.1002E-12  0.4096E-13  0.8590E-16  0.1000E-09  0.0000E+00  0.6664E+16
   -0.337491    1.42139  0.9435E-13  0.4096E-13  0.8590E-16  0.1000E-09  0.0000E+00  0.6206E+16
   -0.374991    1.57434  0.9073E-13  0.8420E-13  0.8590E-16  0.1000E-09  0.0000E+00  0.5759E+16
   -0.412491    1.72588  0.8844E-13  0.2919E-12  0.9374E-16  0.1000E-09  0.0000E+00  0.5321E+16
   -0.449992    1.87593  0.8696E-13  0.6822E-12  0.1563E-15  0.1000E-09  0.0000E+00  0.4891E+16
   -0.487493    2.02434  0.8596E-13  0.1378E-11  0.2838E-15  0.1000E-09  0.0000E+00  0.4473E+16
   -0.524994    2.17102  0.8527E-13  0.2621E-11  0.5161E-15  0.1000E-09  0.0000E+00  0.4073E+16
   -0.562495    2.31609  0.8481E-13  0.4851E-11  0.9298E-15  0.1000E-09  0.0000E+00  0.3683E+16
   -0.599996    2.45945  0.8449E-13  0.8861E-11  0.1662E-14  0.1000E-09  0.0000E+00  0.3304E+16
   -0.637497    2.60097  0.8428E-13  0.1605E-10  0.2951E-14  0.1000E-09  0.0000E+00  0.2937E+16
   -0.674998    2.74053  0.8415E-13  0.2890E-10  0.5211E-14  0.1000E-09  0.0000E+00  0.2583E+16
   -0.712499    2.87802  0.8407E-13  0.5173E-10  0.9151E-14  0.1000E-09  0.0000E+00  0.2243E+16
   -0.750001    3.01335  0.8403E-13  0.9210E-10  0.1599E-13  0.1000E-09  0.0000E+00  0.1924E+16
   -0.787502    3.14692  0.8400E-13  0.1631E-09  0.2779E-13  0.1000E-09  0.0000E+00  0.1618E+16
   -0.825003    3.27888  0.8399E-13  0.2875E-09  0.4808E-13  0.1016E-09  0.0000E+00  0.1325E+16
   -0.862504    3.40920  0.8398E-13  0.5040E-09  0.8276E-13  0.2205E-09  0.0000E+00  0.1042E+16
   -0.900006    3.53782  0.8398E-13  0.8791E-09  0.1418E-12  0.5111E-09  0.0000E+00  0.7698E+15
   -0.937507    3.66466  0.8398E-13  0.1525E-08  0.2416E-12  0.1318E-08  0.0000E+00  0.5086E+15
   -0.975008    3.78934  0.8398E-13  0.2630E-08  0.4093E-12  0.4384E-08  0.0000E+00  0.2590E+15
   -1.012509    3.91010  0.8398E-13  0.4441E-08  0.6808E-12  0.4378E-07  0.0000E+00  0.4308E+14
   -1.050009    4.00423  0.8398E-13  0.5259E-08  0.8109E-12  0.1325E-04  0.0000E+00 -0.3760E+12
   -1.087510    4.00552  0.8398E-13  0.5634E-08  0.8847E-12  0.1373E-04  0.0000E+00 -0.3872E+12
   -1.125010    4.00677  0.8398E-13  0.5936E-08  0.9611E-12  0.1386E-04  0.0000E+00 -0.4095E+12
   -1.162511    4.00801  0.8398E-13  0.6168E-08  0.1043E-11  0.1362E-04  0.0000E+00 -0.4442E+12
   -1.200011    4.00928  0.8398E-13  0.6329E-08  0.1134E-11  0.1300E-04  0.0000E+00 -0.4956E+12
   -1.237511    4.01062  0.8398E-13  0.6414E-08  0.1240E-11  0.1200E-04  0.0000E+00 -0.5721E+12
   -1.275010    4.01208  0.8398E-13  0.6410E-08  0.1370E-11  0.1062E-04  0.0000E+00 -0.6910E+12
   -1.312509    4.01374  0.8398E-13  0.6293E-08  0.1538E-11  0.8854E-05  0.0000E+00 -0.8910E+12
   -1.350008    4.01574  0.8398E-13  0.6020E-08  0.1780E-11  0.6722E-05  0.0000E+00 -0.1275E+13
   -1.387507    4.01839  0.8398E-13  0.5500E-08  0.2180E-11  0.4302E-05  0.0000E+00 -0.2209E+13
   -1.425006    4.02252  0.8398E-13  0.4530E-08  0.3038E-11  0.1879E-05  0.0000E+00 -0.5872E+13
   -1.462504    4.03171  0.8398E-13  0.2823E-08  0.5885E-11  0.2956E-06  0.0000E+00 -0.4515E+14
   -1.500001    4.07480  0.8398E-13  0.0000E+00  0.0000E+00  0.0000E+00  0.0000E+00  0.0000E+00
