 1 - depth, m
 2 - temperature, C
 3 - salinity, kg/kg
 4 - turbulent kinetic energy, m**2/s**2
 5 - dissipation rate, m**2/s**3
 6 - kinematic heat conductance, m**2/s
 7 - modulus of horizontal velocity, m/s
 8 - Richardson number, n/d
   -0.000000   -0.00000  0.8078E-12  0.4096E-13  0.8590E-16  0.1000E-09  0.0000E+00  0.1328E+17
   -0.037498    0.20484  0.3791E-12  0.4096E-13  0.8590E-16  0.1000E-09  0.0000E+00  0.1242E+17
   -0.074995    0.40768  0.2393E-12  0.4096E-13  0.8590E-16  0.1000E-09  0.0000E+00  0.1157E+17
   -0.112494    0.60840  0.1802E-12  0.1814E-12  0.8590E-16  0.1000E-09  0.0000E+00  0.1075E+17
   -0.149992    0.80685  0.1462E-12  0.4879E-12  0.1131E-15  0.1000E-09  0.0000E+00  0.9949E+16
   -0.187491    1.00290  0.1238E-12  0.1016E-11  0.1876E-15  0.1000E-09  0.0000E+00  0.9169E+16
   -0.224990    1.19641  0.1091E-12  0.1912E-11  0.3252E-15  0.1000E-09  0.0000E+00  0.8413E+16
   -0.262490    1.38725  0.9981E-13  0.3444E-11  0.5637E-15  0.1000E-09  0.0000E+00  0.7684E+16
   -0.299989    1.57532  0.9421E-13  0.6075E-11  0.9701E-15  0.1000E-09  0.0000E+00  0.6981E+16
   -0.337489    1.76049  0.9087E-13  0.1060E-10  0.1659E-14  0.1000E-09  0.0000E+00  0.6304E+16
   -0.374989    1.94264  0.8880E-13  0.1836E-10  0.2821E-14  0.1000E-09  0.0000E+00  0.5667E+16
   -0.412489    2.12205  0.8739E-13  0.3164E-10  0.4775E-14  0.1000E-09  0.0000E+00  0.5061E+16
   -0.449990    2.29888  0.8636E-13  0.5427E-10  0.8047E-14  0.1000E-09  0.0000E+00  0.4479E+16
   -0.487490    2.47302  0.8557E-13  0.9268E-10  0.1350E-13  0.1000E-09  0.0000E+00  0.3920E+16
   -0.524991    2.64437  0.8498E-13  0.1571E-09  0.2251E-13  0.1000E-09  0.0000E+00  0.3388E+16
   -0.562492    2.81290  0.8456E-13  0.2647E-09  0.3727E-13  0.1000E-09  0.0000E+00  0.2880E+16
   -0.599993    2.97856  0.8429E-13  0.4437E-09  0.6143E-13  0.1000E-09  0.0000E+00  0.2397E+16
   -0.637494    3.14131  0.8412E-13  0.7404E-09  0.1008E-12  0.1444E-09  0.0000E+00  0.1938E+16
   -0.674995    3.30107  0.8404E-13  0.1230E-08  0.1648E-12  0.3042E-09  0.0000E+00  0.1503E+16
   -0.712496    3.45768  0.8400E-13  0.2036E-08  0.2681E-12  0.6810E-09  0.0000E+00  0.1093E+16
   -0.749997    3.61092  0.8399E-13  0.3353E-08  0.4345E-12  0.1702E-08  0.0000E+00  0.7086E+15
   -0.787498    3.76073  0.8398E-13  0.5490E-08  0.7002E-12  0.5599E-08  0.0000E+00  0.3471E+15
   -0.824999    3.90451  0.8398E-13  0.8743E-08  0.1101E-11  0.6210E-07  0.0000E+00  0.4913E+14
   -0.862500    4.00703  0.8398E-13  0.9425E-08  0.1191E-11  0.3031E-04  0.0000E+00 -0.2250E+12
   -0.900001    4.00771  0.8398E-13  0.9713E-08  0.1237E-11  0.3017E-04  0.0000E+00 -0.2338E+12
   -0.937502    4.00840  0.8398E-13  0.9943E-08  0.1280E-11  0.3043E-04  0.0000E+00 -0.2396E+12
   -0.975003    4.00908  0.8398E-13  0.1014E-07  0.1327E-11  0.3050E-04  0.0000E+00 -0.2469E+12
   -1.012503    4.00976  0.8398E-13  0.1030E-07  0.1376E-11  0.3035E-04  0.0000E+00 -0.2567E+12
   -1.050004    4.01045  0.8398E-13  0.1042E-07  0.1430E-11  0.2996E-04  0.0000E+00 -0.2692E+12
   -1.087504    4.01115  0.8398E-13  0.1051E-07  0.1488E-11  0.2933E-04  0.0000E+00 -0.2847E+12
   -1.125005    4.01187  0.8398E-13  0.1056E-07  0.1554E-11  0.2843E-04  0.0000E+00 -0.3040E+12
   -1.162505    4.01262  0.8398E-13  0.1057E-07  0.1630E-11  0.2724E-04  0.0000E+00 -0.3287E+12
   -1.200005    4.01341  0.8398E-13  0.1052E-07  0.1728E-11  0.2550E-04  0.0000E+00 -0.3641E+12
   -1.237504    4.01425  0.8398E-13  0.1039E-07  0.1858E-11  0.2125E-04  0.0000E+00 -0.4544E+12
   -1.275004    4.01527  0.8398E-13  0.1017E-07  0.2027E-11  0.1742E-04  0.0000E+00 -0.5799E+12
   -1.312503    4.01652  0.8398E-13  0.9805E-08  0.2256E-11  0.1391E-04  0.0000E+00 -0.7658E+12
   -1.350002    4.01810  0.8398E-13  0.9247E-08  0.2593E-11  0.1025E-04  0.0000E+00 -0.1107E+13
   -1.387500    4.02025  0.8398E-13  0.8366E-08  0.3165E-11  0.6410E-05  0.0000E+00 -0.1924E+13
   -1.424998    4.02370  0.8398E-13  0.6852E-08  0.4426E-11  0.2738E-05  0.0000E+00 -0.5129E+13
   -1.462496    4.03162  0.8398E-13  0.4079E-08  0.8977E-11  0.3811E-06  0.0000E+00 -0.4656E+14
   -1.499994    4.07577  0.8398E-13  0.0000E+00  0.0000E+00  0.0000E+00  0.0000E+00  0.0000E+00
