 1 - depth, m
 2 - temperature, C
 3 - salinity, kg/kg
 4 - turbulent kinetic energy, m**2/s**2
 5 - dissipation rate, m**2/s**3
 6 - kinematic heat conductance, m**2/s
 7 - modulus of horizontal velocity, m/s
 8 - Richardson number, n/d
   -0.000000    7.48884  0.9965E-13  0.1724E-04  0.1368E-05  0.2135E-04  0.2486E-01 -0.8008E-02
   -0.037498    7.52169  0.9965E-13  0.1359E-04  0.4914E-06  0.3877E-04  0.1507E-01 -0.2211E-01
   -0.074996    7.53788  0.9965E-13  0.1133E-04  0.2573E-06  0.5273E-04  0.1111E-01 -0.4032E-01
   -0.112494    7.54958  0.9965E-13  0.9669E-05  0.1569E-06  0.6531E-04  0.8627E-02 -0.6522E-01
   -0.149993    7.55888  0.9965E-13  0.8383E-05  0.1040E-06  0.7784E-04  0.6886E-02 -0.1000E+00
   -0.187492    7.56654  0.9965E-13  0.7368E-05  0.7271E-07  0.9160E-04  0.5607E-02 -0.1481E+00
   -0.224991    7.57294  0.9965E-13  0.6568E-05  0.5290E-07  0.1111E-03  0.4648E-02 -0.1471E+00
   -0.262490    7.57816  0.9965E-13  0.5962E-05  0.4015E-07  0.1754E-03  0.3924E-02  0.8189E+03
   -0.299990    7.58183  0.9965E-13  0.5524E-05  0.3191E-07  0.2683E-03  0.3390E-02  0.8163E+02
   -0.337490    7.58417  0.9965E-13  0.5197E-05  0.2623E-07  0.3198E-03  0.2992E-02  0.5433E+03
   -0.374990    7.58598  0.9965E-13  0.4939E-05  0.2200E-07  0.3610E-03  0.2655E-02  0.1853E+02
   -0.412491    7.58749  0.9965E-13  0.4732E-05  0.1873E-07  0.3827E-03  0.2371E-02  0.2430E+01
   -0.449991    7.58888  0.9965E-13  0.4562E-05  0.1616E-07  0.4039E-03  0.2126E-02  0.2144E+01
   -0.487492    7.59019  0.9965E-13  0.4425E-05  0.1414E-07  0.4278E-03  0.1920E-02  0.1908E+01
   -0.524993    7.59140  0.9965E-13  0.4315E-05  0.1255E-07  0.4398E-03  0.1746E-02  0.2005E+01
   -0.562494    7.59257  0.9965E-13  0.4222E-05  0.1125E-07  0.4516E-03  0.1586E-02  0.2070E+01
   -0.599995    7.59369  0.9965E-13  0.4140E-05  0.1018E-07  0.4649E-03  0.1439E-02  0.2110E+01
   -0.637496    7.59476  0.9965E-13  0.4064E-05  0.9296E-08  0.4789E-03  0.1304E-02  0.2126E+01
   -0.674997    7.59578  0.9965E-13  0.3992E-05  0.8558E-08  0.4934E-03  0.1179E-02  0.2122E+01
   -0.712498    7.59676  0.9965E-13  0.3919E-05  0.7941E-08  0.5082E-03  0.1065E-02  0.2102E+01
   -0.749999    7.59770  0.9965E-13  0.3845E-05  0.7424E-08  0.5231E-03  0.9605E-03  0.2070E+01
   -0.787500    7.59859  0.9965E-13  0.3768E-05  0.6993E-08  0.5379E-03  0.8645E-03  0.2029E+01
   -0.825002    7.59945  0.9965E-13  0.3688E-05  0.6636E-08  0.5526E-03  0.7768E-03  0.1982E+01
   -0.862503    7.60028  0.9965E-13  0.3603E-05  0.6344E-08  0.5672E-03  0.6966E-03  0.1929E+01
   -0.900004    7.60108  0.9965E-13  0.3513E-05  0.6109E-08  0.5806E-03  0.6233E-03  0.1873E+01
   -0.937505    7.60184  0.9965E-13  0.3420E-05  0.5926E-08  0.5827E-03  0.5564E-03  0.1808E+01
   -0.975006    7.60259  0.9965E-13  0.3324E-05  0.5791E-08  0.5694E-03  0.4952E-03  0.1744E+01
   -1.012507    7.60335  0.9965E-13  0.3227E-05  0.5703E-08  0.5503E-03  0.4395E-03  0.1571E+01
   -1.050007    7.60412  0.9965E-13  0.3132E-05  0.5658E-08  0.5232E-03  0.3928E-03  0.1406E+01
   -1.087508    7.60493  0.9965E-13  0.3043E-05  0.5653E-08  0.4923E-03  0.3549E-03  0.1254E+01
   -1.125008    7.60577  0.9965E-13  0.2959E-05  0.5681E-08  0.4659E-03  0.3246E-03  0.1128E+01
   -1.162508    7.60665  0.9965E-13  0.2877E-05  0.5743E-08  0.4416E-03  0.3007E-03  0.1299E+01
   -1.200008    7.60757  0.9965E-13  0.2790E-05  0.5850E-08  0.4115E-03  0.2803E-03  0.1812E+01
   -1.237508    7.60855  0.9965E-13  0.2692E-05  0.6017E-08  0.3752E-03  0.2616E-03  0.2812E+01
   -1.275008    7.60961  0.9965E-13  0.2582E-05  0.6269E-08  0.3335E-03  0.2441E-03  0.4822E+01
   -1.312507    7.61079  0.9965E-13  0.2454E-05  0.6652E-08  0.2870E-03  0.2278E-03  0.9431E+01
   -1.350006    7.61214  0.9965E-13  0.2304E-05  0.7250E-08  0.2366E-03  0.2126E-03  0.2270E+02
   -1.387505    7.61377  0.9965E-13  0.2121E-05  0.8257E-08  0.1785E-03  0.1988E-03  0.7923E+02
   -1.425003    7.61589  0.9965E-13  0.1885E-05  0.1022E-07  0.1300E-03  0.1865E-03  0.4358E+03
   -1.462501    7.61878  0.9965E-13  0.1121E-05  0.2230E-07  0.9427E-05  0.1775E-03 -0.3915E+05
   -1.499999    7.65751  0.9965E-13  0.0000E+00  0.0000E+00  0.0000E+00  0.1767E-03  0.0000E+00
