 1 - depth, m
 2 - temperature, C
 3 - salinity, kg/kg
 4 - turbulent kinetic energy, m**2/s**2
 5 - dissipation rate, m**2/s**3
 6 - kinematic heat conductance, m**2/s
 7 - modulus of horizontal velocity, m/s
 8 - Richardson number, n/d
   -0.000000   -0.00000  0.3222E-14  0.7896E-11  0.4218E-14  0.1000E-09  0.0000E+00  0.1943E+17
   -0.037498    0.30377  0.1248E-13  0.1601E-10  0.5008E-14  0.1000E-09  0.0000E+00  0.1663E+17
   -0.074996    0.58681  0.3801E-13  0.3408E-10  0.8668E-14  0.1000E-09  0.0000E+00  0.1420E+17
   -0.112494    0.84978  0.7625E-13  0.6957E-10  0.1644E-13  0.1000E-09  0.0000E+00  0.1212E+17
   -0.149993    1.09428  0.1184E-12  0.1382E-09  0.3151E-13  0.1000E-09  0.0000E+00  0.1041E+17
   -0.187492    1.32293  0.1559E-12  0.2702E-09  0.6005E-13  0.1000E-09  0.0000E+00  0.9031E+16
   -0.224992    1.53953  0.1833E-12  0.5228E-09  0.1136E-12  0.1000E-09  0.0000E+00  0.7980E+16
   -0.262491    1.74920  0.1980E-12  0.1003E-08  0.2130E-12  0.1032E-09  0.0000E+00  0.7250E+16
   -0.299991    1.95939  0.2004E-12  0.1906E-08  0.3962E-12  0.1617E-09  0.0000E+00  0.6755E+16
   -0.337492    2.17821  0.1927E-12  0.3596E-08  0.7314E-12  0.3156E-09  0.0000E+00  0.6405E+16
   -0.374992    2.41493  0.1786E-12  0.6735E-08  0.1340E-11  0.6006E-09  0.0000E+00  0.6197E+16
   -0.412492    2.68597  0.1614E-12  0.1252E-07  0.2439E-11  0.1184E-08  0.0000E+00  0.5781E+16
   -0.449993    3.00636  0.1437E-12  0.2309E-07  0.4405E-11  0.2717E-08  0.0000E+00  0.4711E+16
   -0.487494    3.38560  0.1236E-12  0.4207E-07  0.7865E-11  0.1182E-07  0.0000E+00  0.2604E+16
   -0.524995    3.80833  0.9704E-13  0.6092E-07  0.1136E-10  0.3470E-04  0.0000E+00  0.4304E+15
   -0.562496    4.04214  0.8868E-13  0.6209E-07  0.1160E-10  0.1130E-03  0.0000E+00 -0.5599E+12
   -0.599997    4.04278  0.8868E-13  0.6269E-07  0.1175E-10  0.1114E-03  0.0000E+00 -0.5750E+12
   -0.637498    4.04343  0.8867E-13  0.6323E-07  0.1191E-10  0.1116E-03  0.0000E+00 -0.5807E+12
   -0.675000    4.04408  0.8866E-13  0.6368E-07  0.1208E-10  0.1116E-03  0.0000E+00 -0.5894E+12
   -0.712501    4.04473  0.8866E-13  0.6406E-07  0.1227E-10  0.1112E-03  0.0000E+00 -0.6000E+12
   -0.750002    4.04539  0.8865E-13  0.6435E-07  0.1246E-10  0.1105E-03  0.0000E+00 -0.6090E+12
   -0.787504    4.04604  0.8865E-13  0.6456E-07  0.1268E-10  0.1096E-03  0.0000E+00 -0.6185E+12
   -0.825005    4.04670  0.8864E-13  0.6468E-07  0.1290E-10  0.1082E-03  0.0000E+00 -0.6307E+12
   -0.862507    4.04737  0.8864E-13  0.6473E-07  0.1315E-10  0.1065E-03  0.0000E+00 -0.6453E+12
   -0.900008    4.04804  0.8863E-13  0.6468E-07  0.1342E-10  0.1045E-03  0.0000E+00 -0.6633E+12
   -0.937509    4.04873  0.8863E-13  0.6455E-07  0.1371E-10  0.1021E-03  0.0000E+00 -0.6843E+12
   -0.975010    4.04943  0.8863E-13  0.6432E-07  0.1404E-10  0.9942E-04  0.0000E+00 -0.7097E+12
   -1.012511    4.05014  0.8862E-13  0.6400E-07  0.1440E-10  0.9631E-04  0.0000E+00 -0.7425E+12
   -1.050012    4.05088  0.8862E-13  0.6356E-07  0.1481E-10  0.9277E-04  0.0000E+00 -0.7829E+12
   -1.087513    4.05165  0.8862E-13  0.6300E-07  0.1529E-10  0.8882E-04  0.0000E+00 -0.8313E+12
   -1.125013    4.05246  0.8861E-13  0.6230E-07  0.1583E-10  0.8441E-04  0.0000E+00 -0.8842E+12
   -1.162513    4.05331  0.8861E-13  0.6145E-07  0.1647E-10  0.7955E-04  0.0000E+00 -0.9483E+12
   -1.200014    4.05421  0.8861E-13  0.6042E-07  0.1724E-10  0.7417E-04  0.0000E+00 -0.1029E+13
   -1.237513    4.05517  0.8860E-13  0.5918E-07  0.1817E-10  0.6824E-04  0.0000E+00 -0.1133E+13
   -1.275013    4.05622  0.8860E-13  0.5770E-07  0.1933E-10  0.6172E-04  0.0000E+00 -0.1271E+13
   -1.312513    4.05737  0.8860E-13  0.5591E-07  0.2082E-10  0.5494E-04  0.0000E+00 -0.1451E+13
   -1.350012    4.05866  0.8859E-13  0.5334E-07  0.2320E-10  0.3964E-04  0.0000E+00 -0.2047E+13
   -1.387510    4.06046  0.8859E-13  0.4912E-07  0.2783E-10  0.2218E-04  0.0000E+00 -0.3776E+13
   -1.425009    4.06365  0.8859E-13  0.4216E-07  0.3802E-10  0.1035E-04  0.0000E+00 -0.8568E+13
   -1.462507    4.07044  0.8858E-13  0.2591E-07  0.8212E-10  0.1446E-05  0.0000E+00 -0.7486E+14
   -1.500005    4.11538  0.8857E-13  0.0000E+00  0.0000E+00  0.0000E+00  0.0000E+00  0.0000E+00
