 1 - depth, m
 2 - temperature, C
 3 - salinity, kg/kg
 4 - turbulent kinetic energy, m**2/s**2
 5 - dissipation rate, m**2/s**3
 6 - kinematic heat conductance, m**2/s
 7 - modulus of horizontal velocity, m/s
 8 - Richardson number, n/d
   -0.000000    0.87734  0.8737E-13  0.4174E-03  0.5264E-03  0.6509E-04  0.2321E+00  0.1179E-01
   -0.037498    0.92184  0.8737E-13  0.2196E-03  0.1299E-03  0.1703E-03  0.6836E-01  0.4614E-02
   -0.074996    0.92936  0.8737E-13  0.1535E-03  0.5729E-04  0.1876E-03  0.4670E-01 -0.5009E-01
   -0.112494    0.93458  0.8737E-13  0.1193E-03  0.3398E-04  0.1801E-03  0.3910E-01  0.6218E-02
   -0.149993    0.93810  0.8737E-13  0.9631E-04  0.2149E-04  0.1760E-03  0.3410E-01  0.4595E-01
   -0.187492    0.94074  0.8737E-13  0.7877E-04  0.1362E-04  0.1747E-03  0.3018E-01  0.9831E-02
   -0.224991    0.94302  0.8737E-13  0.6498E-04  0.8541E-05  0.1747E-03  0.2684E-01  0.1019E-01
   -0.262491    0.94508  0.8737E-13  0.5440E-04  0.5302E-05  0.1748E-03  0.2409E-01  0.1289E-01
   -0.299990    0.94704  0.8737E-13  0.4611E-04  0.3262E-05  0.1753E-03  0.2162E-01  0.1584E-01
   -0.337490    0.94895  0.8737E-13  0.3948E-04  0.2009E-05  0.1757E-03  0.1944E-01  0.1602E-01
   -0.374991    0.95081  0.8737E-13  0.3411E-04  0.1257E-05  0.1762E-03  0.1752E-01  0.2150E-01
   -0.412491    0.95265  0.8737E-13  0.2971E-04  0.8145E-06  0.1770E-03  0.1587E-01  0.3858E-01
   -0.449992    0.95445  0.8737E-13  0.2609E-04  0.5563E-06  0.1786E-03  0.1447E-01  0.4209E+00
   -0.487492    0.95617  0.8737E-13  0.2315E-04  0.4026E-06  0.1807E-03  0.1331E-01  0.9592E+00
   -0.524993    0.95780  0.8737E-13  0.2080E-04  0.3062E-06  0.1791E-03  0.1236E-01  0.1176E+01
   -0.562494    0.95942  0.8737E-13  0.1883E-04  0.2408E-06  0.1778E-03  0.1144E-01  0.1878E+00
   -0.599995    0.96103  0.8737E-13  0.1714E-04  0.1937E-06  0.1765E-03  0.1058E-01  0.1542E+00
   -0.637496    0.96261  0.8737E-13  0.1567E-04  0.1584E-06  0.1748E-03  0.9774E-02  0.1537E+00
   -0.674997    0.96418  0.8737E-13  0.1437E-04  0.1311E-06  0.1727E-03  0.9022E-02  0.1619E+00
   -0.712499    0.96575  0.8737E-13  0.1320E-04  0.1096E-06  0.1698E-03  0.8318E-02  0.1740E+00
   -0.750000    0.96733  0.8737E-13  0.1215E-04  0.9247E-07  0.1662E-03  0.7657E-02  0.1882E+00
   -0.787501    0.96892  0.8737E-13  0.1120E-04  0.7859E-07  0.1617E-03  0.7035E-02  0.2036E+00
   -0.825002    0.97055  0.8737E-13  0.1032E-04  0.6722E-07  0.1564E-03  0.6447E-02  0.2193E+00
   -0.862504    0.97222  0.8737E-13  0.9517E-05  0.5782E-07  0.1500E-03  0.5888E-02  0.2343E+00
   -0.900005    0.97395  0.8737E-13  0.8764E-05  0.4995E-07  0.1425E-03  0.5352E-02  0.2473E+00
   -0.937506    0.97577  0.8737E-13  0.8048E-05  0.4326E-07  0.1335E-03  0.4835E-02  0.2560E+00
   -0.975007    0.97771  0.8737E-13  0.7348E-05  0.3740E-07  0.1222E-03  0.4327E-02  0.2557E+00
   -1.012508    0.97985  0.8737E-13  0.6643E-05  0.3209E-07  0.1149E-03  0.3814E-02  0.3649E+00
   -1.050008    0.98209  0.8737E-13  0.5957E-05  0.2738E-07  0.1068E-03  0.3352E-02  0.5638E+00
   -1.087509    0.98446  0.8737E-13  0.5300E-05  0.2324E-07  0.9713E-04  0.2940E-02  0.8991E+00
   -1.125009    0.98701  0.8737E-13  0.4676E-05  0.1961E-07  0.8638E-04  0.2571E-02  0.1562E+01
   -1.162509    0.98984  0.8737E-13  0.4085E-05  0.1644E-07  0.7486E-04  0.2239E-02  0.3118E+01
   -1.200009    0.99307  0.8737E-13  0.3530E-05  0.1368E-07  0.6285E-04  0.1938E-02  0.8346E+01
   -1.237509    0.99687  0.8737E-13  0.3009E-05  0.1127E-07  0.5060E-04  0.1667E-02  0.3859E+02
   -1.275009    1.00157  0.8737E-13  0.2524E-05  0.9190E-08  0.3839E-04  0.1421E-02  0.3080E+03
   -1.312508    1.00777  0.8737E-13  0.2073E-05  0.7388E-08  0.2653E-04  0.1200E-02  0.3361E+04
   -1.350007    1.01705  0.8737E-13  0.1645E-05  0.5804E-08  0.1520E-04  0.9999E-03  0.7130E+05
   -1.387506    1.03778  0.8737E-13  0.1182E-05  0.4222E-08  0.5188E-05  0.8080E-03  0.2261E+08
   -1.425004    1.15197  0.8737E-13  0.6019E-06  0.2333E-08  0.4024E-06  0.5444E-03  0.1087E+07
   -1.462502    1.65044  0.8738E-13  0.1135E-06  0.1032E-08  0.8604E-07  0.2388E-03  0.1213E+07
   -1.500000    2.54607  0.8738E-13  0.0000E+00  0.0000E+00  0.0000E+00  0.2428E-03  0.0000E+00
