 1 - depth, m
 2 - temperature, C
 3 - salinity, kg/kg
 4 - turbulent kinetic energy, m**2/s**2
 5 - dissipation rate, m**2/s**3
 6 - kinematic heat conductance, m**2/s
 7 - modulus of horizontal velocity, m/s
 8 - Richardson number, n/d
   -0.000000   -0.00000  0.8483E-12  0.4096E-13  0.8590E-16  0.1000E-09  0.0000E+00  0.1158E+17
   -0.037498    0.17796  0.4620E-12  0.4096E-13  0.8590E-16  0.1000E-09  0.0000E+00  0.1096E+17
   -0.074996    0.35494  0.2696E-12  0.4096E-13  0.8590E-16  0.1000E-09  0.0000E+00  0.1034E+17
   -0.112494    0.53074  0.1862E-12  0.4096E-13  0.8590E-16  0.1000E-09  0.0000E+00  0.9722E+16
   -0.149993    0.70516  0.1453E-12  0.4096E-13  0.8590E-16  0.1000E-09  0.0000E+00  0.9112E+16
   -0.187491    0.87804  0.1220E-12  0.4096E-13  0.8590E-16  0.1000E-09  0.0000E+00  0.8511E+16
   -0.224991    1.04919  0.1079E-12  0.4096E-13  0.8590E-16  0.1000E-09  0.0000E+00  0.7921E+16
   -0.262490    1.21846  0.9954E-13  0.1174E-12  0.8590E-16  0.1000E-09  0.0000E+00  0.7346E+16
   -0.299990    1.38574  0.9477E-13  0.3587E-12  0.9903E-16  0.1000E-09  0.0000E+00  0.6785E+16
   -0.337490    1.55091  0.9211E-13  0.7927E-12  0.1616E-15  0.1000E-09  0.0000E+00  0.6239E+16
   -0.374990    1.71380  0.9057E-13  0.1542E-11  0.2838E-15  0.1000E-09  0.0000E+00  0.5724E+16
   -0.412490    1.87472  0.8953E-13  0.2847E-11  0.5010E-15  0.1000E-09  0.0000E+00  0.5231E+16
   -0.449991    2.03377  0.8867E-13  0.5131E-11  0.8791E-15  0.1000E-09  0.0000E+00  0.4752E+16
   -0.487492    2.19086  0.8783E-13  0.9134E-11  0.1532E-14  0.1000E-09  0.0000E+00  0.4288E+16
   -0.524992    2.34587  0.8697E-13  0.1609E-10  0.2647E-14  0.1000E-09  0.0000E+00  0.3839E+16
   -0.562493    2.49869  0.8611E-13  0.2810E-10  0.4539E-14  0.1000E-09  0.0000E+00  0.3407E+16
   -0.599994    2.64924  0.8529E-13  0.4881E-10  0.7741E-14  0.1000E-09  0.0000E+00  0.2992E+16
   -0.637495    2.79746  0.8458E-13  0.8433E-10  0.1313E-13  0.1000E-09  0.0000E+00  0.2595E+16
   -0.674996    2.94330  0.8401E-13  0.1450E-09  0.2218E-13  0.1000E-09  0.0000E+00  0.2216E+16
   -0.712498    3.08671  0.8360E-13  0.2482E-09  0.3730E-13  0.1000E-09  0.0000E+00  0.1855E+16
   -0.749999    3.22766  0.8334E-13  0.4228E-09  0.6243E-13  0.1143E-09  0.0000E+00  0.1517E+16
   -0.787500    3.36663  0.8319E-13  0.7169E-09  0.1040E-12  0.2419E-09  0.0000E+00  0.1194E+16
   -0.825001    3.50371  0.8312E-13  0.1210E-08  0.1726E-12  0.5421E-09  0.0000E+00  0.8840E+15
   -0.862502    3.63876  0.8308E-13  0.2033E-08  0.2850E-12  0.1348E-08  0.0000E+00  0.5869E+15
   -0.900003    3.77137  0.8307E-13  0.3395E-08  0.4681E-12  0.4277E-08  0.0000E+00  0.3039E+15
   -0.937504    3.89976  0.8307E-13  0.5561E-08  0.7557E-12  0.3719E-07  0.0000E+00  0.5653E+14
   -0.975005    4.00333  0.8307E-13  0.6306E-08  0.8611E-12  0.1736E-04  0.0000E+00 -0.2889E+12
   -1.012506    4.00439  0.8307E-13  0.6648E-08  0.9201E-12  0.1816E-04  0.0000E+00 -0.2936E+12
   -1.050007    4.00540  0.8307E-13  0.6935E-08  0.9815E-12  0.1852E-04  0.0000E+00 -0.3048E+12
   -1.087507    4.00639  0.8307E-13  0.7170E-08  0.1047E-11  0.1842E-04  0.0000E+00 -0.3237E+12
   -1.125008    4.00740  0.8307E-13  0.7354E-08  0.1119E-11  0.1793E-04  0.0000E+00 -0.3514E+12
   -1.162508    4.00843  0.8307E-13  0.7486E-08  0.1201E-11  0.1704E-04  0.0000E+00 -0.3910E+12
   -1.200008    4.00954  0.8307E-13  0.7558E-08  0.1295E-11  0.1584E-04  0.0000E+00 -0.4458E+12
   -1.237507    4.01073  0.8307E-13  0.7561E-08  0.1408E-11  0.1432E-04  0.0000E+00 -0.5237E+12
   -1.275007    4.01206  0.8307E-13  0.7479E-08  0.1550E-11  0.1246E-04  0.0000E+00 -0.6421E+12
   -1.312506    4.01361  0.8307E-13  0.7283E-08  0.1739E-11  0.1024E-04  0.0000E+00 -0.8393E+12
   -1.350005    4.01551  0.8307E-13  0.6924E-08  0.2013E-11  0.7681E-05  0.0000E+00 -0.1217E+13
   -1.387504    4.01806  0.8307E-13  0.6302E-08  0.2474E-11  0.4865E-05  0.0000E+00 -0.2135E+13
   -1.425002    4.02209  0.8307E-13  0.5183E-08  0.3473E-11  0.2106E-05  0.0000E+00 -0.5767E+13
   -1.462500    4.03122  0.8307E-13  0.3208E-08  0.6863E-11  0.3250E-06  0.0000E+00 -0.4710E+14
   -1.499998    4.07595  0.8307E-13  0.0000E+00  0.0000E+00  0.0000E+00  0.0000E+00  0.0000E+00
