 1 - depth, m
 2 - temperature, C
 3 - salinity, kg/kg
 4 - turbulent kinetic energy, m**2/s**2
 5 - dissipation rate, m**2/s**3
 6 - kinematic heat conductance, m**2/s
 7 - modulus of horizontal velocity, m/s
 8 - Richardson number, n/d
   -0.000000   -0.00000  0.1637E-12  0.4096E-13  0.8590E-16  0.1000E-09  0.0000E+00  0.9116E+16
   -0.037498    0.13935  0.2262E-12  0.4096E-13  0.8590E-16  0.1000E-09  0.0000E+00  0.8762E+16
   -0.074996    0.27856  0.2671E-12  0.4096E-13  0.8590E-16  0.1000E-09  0.0000E+00  0.8406E+16
   -0.112494    0.41755  0.2708E-12  0.4096E-13  0.8590E-16  0.1000E-09  0.0000E+00  0.8050E+16
   -0.149993    0.55626  0.2464E-12  0.4096E-13  0.8590E-16  0.1000E-09  0.0000E+00  0.7694E+16
   -0.187492    0.69463  0.2100E-12  0.4096E-13  0.8590E-16  0.1000E-09  0.0000E+00  0.7339E+16
   -0.224992    0.83258  0.1742E-12  0.4096E-13  0.8590E-16  0.1000E-09  0.0000E+00  0.6985E+16
   -0.262491    0.97006  0.1450E-12  0.4096E-13  0.8590E-16  0.1000E-09  0.0000E+00  0.6635E+16
   -0.299991    1.10705  0.1239E-12  0.4096E-13  0.8590E-16  0.1000E-09  0.0000E+00  0.6288E+16
   -0.337491    1.24350  0.1095E-12  0.4096E-13  0.8590E-16  0.1000E-09  0.0000E+00  0.5942E+16
   -0.374991    1.37932  0.1002E-12  0.4096E-13  0.8590E-16  0.1000E-09  0.0000E+00  0.5597E+16
   -0.412492    1.51437  0.9435E-13  0.4096E-13  0.8590E-16  0.1000E-09  0.0000E+00  0.5254E+16
   -0.449992    1.64855  0.9065E-13  0.4096E-13  0.8590E-16  0.1000E-09  0.0000E+00  0.4915E+16
   -0.487493    1.78174  0.8830E-13  0.4096E-13  0.8590E-16  0.1000E-09  0.0000E+00  0.4582E+16
   -0.524994    1.91390  0.8679E-13  0.4096E-13  0.8590E-16  0.1000E-09  0.0000E+00  0.4264E+16
   -0.562495    2.04526  0.8581E-13  0.4096E-13  0.8590E-16  0.1000E-09  0.0000E+00  0.3951E+16
   -0.599996    2.17574  0.8517E-13  0.9237E-13  0.8590E-16  0.1000E-09  0.0000E+00  0.3642E+16
   -0.637498    2.30526  0.8474E-13  0.3061E-12  0.1060E-15  0.1000E-09  0.0000E+00  0.3339E+16
   -0.674999    2.43374  0.8445E-13  0.7210E-12  0.1919E-15  0.1000E-09  0.0000E+00  0.3042E+16
   -0.712500    2.56112  0.8427E-13  0.1500E-11  0.3682E-15  0.1000E-09  0.0000E+00  0.2752E+16
   -0.750001    2.68732  0.8415E-13  0.2979E-11  0.7046E-15  0.1000E-09  0.0000E+00  0.2473E+16
   -0.787503    2.81254  0.8408E-13  0.5796E-11  0.1336E-14  0.1000E-09  0.0000E+00  0.2203E+16
   -0.825004    2.93681  0.8403E-13  0.1115E-10  0.2514E-14  0.1000E-09  0.0000E+00  0.1938E+16
   -0.862505    3.06008  0.8401E-13  0.2128E-10  0.4695E-14  0.1000E-09  0.0000E+00  0.1679E+16
   -0.900007    3.18231  0.8399E-13  0.4032E-10  0.8714E-14  0.1000E-09  0.0000E+00  0.1427E+16
   -0.937508    3.30344  0.8399E-13  0.7592E-10  0.1607E-13  0.1000E-09  0.0000E+00  0.1182E+16
   -0.975009    3.42343  0.8398E-13  0.1421E-09  0.2946E-13  0.1000E-09  0.0000E+00  0.9445E+15
   -1.012510    3.54224  0.8398E-13  0.2648E-09  0.5380E-13  0.2096E-09  0.0000E+00  0.7122E+15
   -1.050010    3.65946  0.8398E-13  0.4923E-09  0.9805E-13  0.5571E-09  0.0000E+00  0.4883E+15
   -1.087511    3.77477  0.8398E-13  0.9105E-09  0.1778E-12  0.1797E-08  0.0000E+00  0.2745E+15
   -1.125012    3.88738  0.8398E-13  0.1666E-08  0.3195E-12  0.1160E-07  0.0000E+00  0.7649E+14
   -1.162512    3.99239  0.8398E-13  0.2411E-08  0.4630E-12  0.3835E-05  0.0000E+00 -0.5090E+12
   -1.200012    3.99652  0.8398E-13  0.2838E-08  0.5722E-12  0.4799E-05  0.0000E+00 -0.6022E+12
   -1.237512    3.99979  0.8398E-13  0.3181E-08  0.6912E-12  0.5170E-05  0.0000E+00 -0.7133E+12
   -1.275011    4.00284  0.8398E-13  0.3439E-08  0.8276E-12  0.5083E-05  0.0000E+00 -0.8788E+12
   -1.312511    4.00595  0.8398E-13  0.3599E-08  0.9946E-12  0.4589E-05  0.0000E+00 -0.1154E+13
   -1.350010    4.00940  0.8398E-13  0.3631E-08  0.1219E-11  0.3720E-05  0.0000E+00 -0.1681E+13
   -1.387509    4.01366  0.8398E-13  0.3473E-08  0.1565E-11  0.2534E-05  0.0000E+00 -0.2956E+13
   -1.425007    4.01986  0.8398E-13  0.2999E-08  0.2241E-11  0.1211E-05  0.0000E+00 -0.7712E+13
   -1.462505    4.03225  0.8398E-13  0.2060E-08  0.4203E-11  0.2401E-06  0.0000E+00 -0.4752E+14
   -1.500003    4.07677  0.8398E-13  0.0000E+00  0.0000E+00  0.0000E+00  0.0000E+00  0.0000E+00
