 1 - depth, m
 2 - temperature, C
 3 - salinity, kg/kg
 4 - turbulent kinetic energy, m**2/s**2
 5 - dissipation rate, m**2/s**3
 6 - kinematic heat conductance, m**2/s
 7 - modulus of horizontal velocity, m/s
 8 - Richardson number, n/d
   -0.000000   -0.00000  0.5097E-12  0.5940E-11  0.2574E-14  0.1000E-09  0.0000E+00  0.1699E+17
   -0.037498    0.26421  0.4322E-12  0.1081E-10  0.2490E-14  0.1000E-09  0.0000E+00  0.1570E+17
   -0.074996    0.52746  0.2601E-12  0.2050E-10  0.3414E-14  0.1000E-09  0.0000E+00  0.1441E+17
   -0.112494    0.78937  0.1530E-12  0.3687E-10  0.5361E-14  0.1000E-09  0.0000E+00  0.1314E+17
   -0.149993    1.04955  0.1092E-12  0.6375E-10  0.8723E-14  0.1000E-09  0.0000E+00  0.1188E+17
   -0.187492    1.30766  0.9549E-13  0.1078E-09  0.1426E-13  0.1000E-09  0.0000E+00  0.1065E+17
   -0.224992    1.56336  0.9189E-13  0.1798E-09  0.2325E-13  0.1000E-09  0.0000E+00  0.9444E+16
   -0.262491    1.81634  0.9103E-13  0.2973E-09  0.3773E-13  0.1000E-09  0.0000E+00  0.8285E+16
   -0.299991    2.06663  0.9081E-13  0.4884E-09  0.6088E-13  0.1000E-09  0.0000E+00  0.7164E+16
   -0.337491    2.31405  0.9066E-13  0.7982E-09  0.9782E-13  0.1000E-09  0.0000E+00  0.6082E+16
   -0.374991    2.55840  0.9033E-13  0.1299E-08  0.1565E-12  0.1000E-09  0.0000E+00  0.5085E+16
   -0.412492    2.80179  0.8947E-13  0.2104E-08  0.2494E-12  0.1679E-09  0.0000E+00  0.4126E+16
   -0.449993    3.04545  0.8794E-13  0.3397E-08  0.3960E-12  0.3472E-09  0.0000E+00  0.3169E+16
   -0.487493    3.28924  0.8612E-13  0.5460E-08  0.6264E-12  0.7861E-09  0.0000E+00  0.2214E+16
   -0.524994    3.53264  0.8475E-13  0.8713E-08  0.9837E-12  0.2164E-08  0.0000E+00  0.1264E+16
   -0.562495    3.77355  0.8406E-13  0.1376E-07  0.1530E-11  0.1206E-07  0.0000E+00  0.3542E+15
   -0.599996    3.99885  0.8391E-13  0.1435E-07  0.1598E-11  0.4705E-04  0.0000E+00 -0.1476E+12
   -0.637498    3.99959  0.8391E-13  0.1462E-07  0.1636E-11  0.4816E-04  0.0000E+00 -0.1518E+12
   -0.674999    4.00030  0.8391E-13  0.1487E-07  0.1675E-11  0.4848E-04  0.0000E+00 -0.1587E+12
   -0.712500    4.00101  0.8391E-13  0.1510E-07  0.1718E-11  0.4873E-04  0.0000E+00 -0.1658E+12
   -0.750002    4.00172  0.8391E-13  0.1531E-07  0.1765E-11  0.4880E-04  0.0000E+00 -0.1735E+12
   -0.787503    4.00242  0.8391E-13  0.1552E-07  0.1816E-11  0.4871E-04  0.0000E+00 -0.1819E+12
   -0.825004    4.00313  0.8391E-13  0.1570E-07  0.1871E-11  0.4844E-04  0.0000E+00 -0.1911E+12
   -0.862506    4.00384  0.8391E-13  0.1586E-07  0.1931E-11  0.4799E-04  0.0000E+00 -0.2012E+12
   -0.900007    4.00457  0.8391E-13  0.1601E-07  0.1996E-11  0.4737E-04  0.0000E+00 -0.2125E+12
   -0.937508    4.00530  0.8391E-13  0.1613E-07  0.2066E-11  0.4657E-04  0.0000E+00 -0.2251E+12
   -0.975009    4.00604  0.8391E-13  0.1623E-07  0.2142E-11  0.4558E-04  0.0000E+00 -0.2394E+12
   -1.012510    4.00680  0.8391E-13  0.1630E-07  0.2226E-11  0.4440E-04  0.0000E+00 -0.2567E+12
   -1.050011    4.00759  0.8391E-13  0.1634E-07  0.2320E-11  0.4300E-04  0.0000E+00 -0.2772E+12
   -1.087511    4.00841  0.8391E-13  0.1634E-07  0.2425E-11  0.4138E-04  0.0000E+00 -0.3015E+12
   -1.125012    4.00926  0.8391E-13  0.1631E-07  0.2544E-11  0.3950E-04  0.0000E+00 -0.3295E+12
   -1.162512    4.01017  0.8391E-13  0.1623E-07  0.2681E-11  0.3735E-04  0.0000E+00 -0.3637E+12
   -1.200012    4.01112  0.8391E-13  0.1610E-07  0.2840E-11  0.3493E-04  0.0000E+00 -0.4063E+12
   -1.237512    4.01215  0.8391E-13  0.1588E-07  0.3043E-11  0.3210E-04  0.0000E+00 -0.4627E+12
   -1.275012    4.01327  0.8391E-13  0.1553E-07  0.3332E-11  0.2560E-04  0.0000E+00 -0.6114E+12
   -1.312511    4.01469  0.8391E-13  0.1497E-07  0.3752E-11  0.1906E-04  0.0000E+00 -0.8736E+12
   -1.350010    4.01659  0.8391E-13  0.1416E-07  0.4380E-11  0.1370E-04  0.0000E+00 -0.1315E+13
   -1.387509    4.01925  0.8391E-13  0.1290E-07  0.5444E-11  0.8557E-05  0.0000E+00 -0.2339E+13
   -1.425007    4.02351  0.8391E-13  0.1076E-07  0.7781E-11  0.3753E-05  0.0000E+00 -0.6311E+13
   -1.462505    4.03312  0.8391E-13  0.6624E-08  0.1656E-10  0.5587E-06  0.0000E+00 -0.6222E+14
   -1.500003    4.08702  0.8391E-13  0.0000E+00  0.0000E+00  0.0000E+00  0.0000E+00  0.0000E+00
