 1 - depth, m
 2 - temperature, C
 3 - salinity, kg/kg
 4 - turbulent kinetic energy, m**2/s**2
 5 - dissipation rate, m**2/s**3
 6 - kinematic heat conductance, m**2/s
 7 - modulus of horizontal velocity, m/s
 8 - Richardson number, n/d
   -0.000000   -0.00000  0.3679E-12  0.4096E-13  0.8590E-16  0.1000E-09  0.0000E+00  0.1021E+17
   -0.037498    0.15649  0.3837E-12  0.4096E-13  0.8590E-16  0.1000E-09  0.0000E+00  0.9776E+16
   -0.074996    0.31295  0.3275E-12  0.4096E-13  0.8590E-16  0.1000E-09  0.0000E+00  0.9332E+16
   -0.112494    0.46920  0.2580E-12  0.4096E-13  0.8590E-16  0.1000E-09  0.0000E+00  0.8881E+16
   -0.149993    0.62507  0.1997E-12  0.4096E-13  0.8590E-16  0.1000E-09  0.0000E+00  0.8428E+16
   -0.187492    0.78039  0.1577E-12  0.4096E-13  0.8590E-16  0.1000E-09  0.0000E+00  0.7972E+16
   -0.224992    0.93500  0.1300E-12  0.4096E-13  0.8590E-16  0.1000E-09  0.0000E+00  0.7517E+16
   -0.262491    1.08874  0.1126E-12  0.4096E-13  0.8590E-16  0.1000E-09  0.0000E+00  0.7068E+16
   -0.299991    1.24153  0.1019E-12  0.4096E-13  0.8590E-16  0.1000E-09  0.0000E+00  0.6622E+16
   -0.337491    1.39324  0.9535E-13  0.4096E-13  0.8590E-16  0.1000E-09  0.0000E+00  0.6182E+16
   -0.374991    1.54373  0.9134E-13  0.4096E-13  0.8590E-16  0.1000E-09  0.0000E+00  0.5749E+16
   -0.412492    1.69292  0.8881E-13  0.1500E-12  0.8590E-16  0.1000E-09  0.0000E+00  0.5325E+16
   -0.449992    1.84071  0.8719E-13  0.4233E-12  0.1093E-15  0.1000E-09  0.0000E+00  0.4909E+16
   -0.487493    1.98697  0.8611E-13  0.9076E-12  0.1837E-15  0.1000E-09  0.0000E+00  0.4503E+16
   -0.524994    2.13161  0.8537E-13  0.1741E-11  0.3236E-15  0.1000E-09  0.0000E+00  0.4116E+16
   -0.562495    2.27483  0.8488E-13  0.3185E-11  0.5693E-15  0.1000E-09  0.0000E+00  0.3739E+16
   -0.599996    2.41653  0.8454E-13  0.5702E-11  0.9938E-15  0.1000E-09  0.0000E+00  0.3371E+16
   -0.637498    2.55664  0.8432E-13  0.1009E-10  0.1722E-14  0.1000E-09  0.0000E+00  0.3015E+16
   -0.674999    2.69508  0.8417E-13  0.1773E-10  0.2967E-14  0.1000E-09  0.0000E+00  0.2670E+16
   -0.712500    2.83178  0.8409E-13  0.3095E-10  0.5083E-14  0.1000E-09  0.0000E+00  0.2337E+16
   -0.750001    2.96668  0.8403E-13  0.5374E-10  0.8661E-14  0.1000E-09  0.0000E+00  0.2024E+16
   -0.787503    3.10022  0.8401E-13  0.9282E-10  0.1469E-13  0.1000E-09  0.0000E+00  0.1721E+16
   -0.825004    3.23251  0.8399E-13  0.1595E-09  0.2478E-13  0.1000E-09  0.0000E+00  0.1428E+16
   -0.862505    3.36352  0.8399E-13  0.2728E-09  0.4161E-13  0.1086E-09  0.0000E+00  0.1144E+16
   -0.900007    3.49323  0.8398E-13  0.4641E-09  0.6955E-13  0.2228E-09  0.0000E+00  0.8678E+15
   -0.937508    3.62149  0.8398E-13  0.7858E-09  0.1157E-12  0.5357E-09  0.0000E+00  0.6008E+15
   -0.975009    3.74809  0.8398E-13  0.1323E-08  0.1914E-12  0.1553E-08  0.0000E+00  0.3437E+15
   -1.012510    3.87231  0.8398E-13  0.2214E-08  0.3150E-12  0.8746E-08  0.0000E+00  0.1019E+15
   -1.050010    3.98896  0.8398E-13  0.2872E-08  0.4098E-12  0.5078E-05  0.0000E+00 -0.2017E+12
   -1.087511    3.99306  0.8398E-13  0.3264E-08  0.4806E-12  0.6882E-05  0.0000E+00 -0.3024E+12
   -1.125012    3.99556  0.8398E-13  0.3598E-08  0.5551E-12  0.7789E-05  0.0000E+00 -0.3487E+12
   -1.162512    3.99774  0.8398E-13  0.3885E-08  0.6366E-12  0.8204E-05  0.0000E+00 -0.4017E+12
   -1.200012    3.99982  0.8398E-13  0.4123E-08  0.7280E-12  0.8210E-05  0.0000E+00 -0.4705E+12
   -1.237512    4.00189  0.8398E-13  0.4306E-08  0.8338E-12  0.7844E-05  0.0000E+00 -0.5672E+12
   -1.275011    4.00407  0.8398E-13  0.4422E-08  0.9616E-12  0.7126E-05  0.0000E+00 -0.7134E+12
   -1.312511    4.00648  0.8398E-13  0.4451E-08  0.1126E-11  0.6068E-05  0.0000E+00 -0.9572E+12
   -1.350010    4.00931  0.8398E-13  0.4356E-08  0.1356E-11  0.4690E-05  0.0000E+00 -0.1427E+13
   -1.387509    4.01298  0.8398E-13  0.4068E-08  0.1726E-11  0.3060E-05  0.0000E+00 -0.2580E+13
   -1.425007    4.01857  0.8398E-13  0.3440E-08  0.2480E-11  0.1394E-05  0.0000E+00 -0.7040E+13
   -1.462505    4.03035  0.8398E-13  0.2304E-08  0.4762E-11  0.2602E-06  0.0000E+00 -0.4781E+14
   -1.500003    4.07603  0.8398E-13  0.0000E+00  0.0000E+00  0.0000E+00  0.0000E+00  0.0000E+00
