 1 - depth, m
 2 - temperature, C
 3 - salinity, kg/kg
 4 - turbulent kinetic energy, m**2/s**2
 5 - dissipation rate, m**2/s**3
 6 - kinematic heat conductance, m**2/s
 7 - modulus of horizontal velocity, m/s
 8 - Richardson number, n/d
   -0.000000    7.80431  0.8815E-13  0.1604E-03  0.8011E-04  0.6018E-04  0.1234E+00 -0.2003E-02
   -0.037498    7.84354  0.8815E-13  0.9099E-04  0.2100E-04  0.9611E-04  0.4139E-01 -0.7651E-02
   -0.074996    7.84988  0.8815E-13  0.6612E-04  0.9318E-05  0.1042E-03  0.3018E-01 -0.1301E-01
   -0.112494    7.85474  0.8815E-13  0.5212E-04  0.5099E-05  0.1078E-03  0.2514E-01 -0.9489E-02
   -0.149993    7.85860  0.8815E-13  0.4222E-04  0.2946E-05  0.1129E-03  0.2152E-01 -0.1292E-01
   -0.187492    7.86193  0.8815E-13  0.3486E-04  0.1780E-05  0.1185E-03  0.1862E-01 -0.2023E-01
   -0.224991    7.86494  0.8815E-13  0.2922E-04  0.1118E-05  0.1247E-03  0.1625E-01 -0.2428E-01
   -0.262490    7.86770  0.8815E-13  0.2491E-04  0.7369E-06  0.1300E-03  0.1428E-01 -0.3091E-01
   -0.299990    7.87028  0.8815E-13  0.2151E-04  0.5058E-06  0.1354E-03  0.1260E-01 -0.4039E-01
   -0.337490    7.87269  0.8815E-13  0.1875E-04  0.3585E-06  0.1412E-03  0.1116E-01  0.8100E-01
   -0.374990    7.87493  0.8815E-13  0.1646E-04  0.2607E-06  0.1475E-03  0.9929E-02 -0.6424E-01
   -0.412491    7.87701  0.8815E-13  0.1455E-04  0.1938E-06  0.1557E-03  0.8878E-02 -0.1999E-01
   -0.449991    7.87894  0.8815E-13  0.1297E-04  0.1470E-06  0.1728E-03  0.7988E-02  0.5678E+02
   -0.487492    7.88064  0.8815E-13  0.1168E-04  0.1140E-06  0.2090E-03  0.7244E-02  0.1275E+04
   -0.524993    7.88207  0.8815E-13  0.1064E-04  0.9060E-07  0.2342E-03  0.6625E-02  0.1443E+03
   -0.562494    7.88335  0.8815E-13  0.9786E-05  0.7336E-07  0.2515E-03  0.6057E-02  0.3196E+01
   -0.599995    7.88454  0.8815E-13  0.9059E-05  0.6036E-07  0.2637E-03  0.5538E-02  0.1854E+01
   -0.637496    7.88565  0.8815E-13  0.8433E-05  0.5036E-07  0.2800E-03  0.5062E-02  0.1502E+02
   -0.674997    7.88668  0.8815E-13  0.7888E-05  0.4255E-07  0.2978E-03  0.4627E-02  0.2149E+02
   -0.712498    7.88765  0.8815E-13  0.7408E-05  0.3635E-07  0.3163E-03  0.4230E-02  0.1479E+03
   -0.749999    7.88855  0.8815E-13  0.6978E-05  0.3136E-07  0.3289E-03  0.3865E-02  0.3296E+01
   -0.787501    7.88940  0.8815E-13  0.6588E-05  0.2730E-07  0.3428E-03  0.3527E-02  0.3311E+02
   -0.825002    7.89021  0.8815E-13  0.6232E-05  0.2395E-07  0.3592E-03  0.3215E-02  0.2156E+02
   -0.862503    7.89098  0.8815E-13  0.5902E-05  0.2117E-07  0.3734E-03  0.2925E-02  0.5821E+02
   -0.900004    7.89171  0.8815E-13  0.5591E-05  0.1883E-07  0.3857E-03  0.2653E-02  0.5381E+01
   -0.937505    7.89241  0.8815E-13  0.5294E-05  0.1684E-07  0.3990E-03  0.2396E-02  0.8294E+01
   -0.975006    7.89308  0.8815E-13  0.5003E-05  0.1512E-07  0.4086E-03  0.2152E-02  0.1195E+03
   -1.012507    7.89372  0.8815E-13  0.4714E-05  0.1362E-07  0.4233E-03  0.1917E-02  0.3568E+02
   -1.050008    7.89434  0.8815E-13  0.4428E-05  0.1232E-07  0.4365E-03  0.1705E-02  0.1943E+02
   -1.087508    7.89493  0.8815E-13  0.4147E-05  0.1119E-07  0.4411E-03  0.1516E-02  0.6954E+02
   -1.125009    7.89550  0.8815E-13  0.3871E-05  0.1023E-07  0.4359E-03  0.1349E-02  0.3056E+02
   -1.162509    7.89609  0.8815E-13  0.3604E-05  0.9436E-08  0.4198E-03  0.1201E-02  0.2656E+02
   -1.200009    7.89670  0.8815E-13  0.3348E-05  0.8805E-08  0.3968E-03  0.1072E-02  0.2658E+01
   -1.237508    7.89734  0.8815E-13  0.3107E-05  0.8347E-08  0.3673E-03  0.9618E-03  0.1270E+01
   -1.275008    7.89804  0.8815E-13  0.2883E-05  0.8076E-08  0.3287E-03  0.8697E-03  0.1318E+01
   -1.312507    7.89881  0.8815E-13  0.2679E-05  0.8018E-08  0.2876E-03  0.7953E-03  0.1993E+01
   -1.350006    7.89970  0.8815E-13  0.2488E-05  0.8205E-08  0.2445E-03  0.7378E-03  0.1446E+02
   -1.387505    7.90074  0.8815E-13  0.2281E-05  0.8760E-08  0.1973E-03  0.6923E-03  0.1893E+03
   -1.425003    7.90203  0.8815E-13  0.1994E-05  0.1034E-07  0.1108E-03  0.6529E-03  0.3119E+05
   -1.462501    7.90424  0.8815E-13  0.1110E-05  0.2164E-07  0.8825E-05  0.6124E-03 -0.1421E+05
   -1.499999    7.93155  0.8815E-13  0.0000E+00  0.0000E+00  0.0000E+00  0.6030E-03  0.0000E+00
