 1 - depth, m
 2 - temperature, C
 3 - salinity, kg/kg
 4 - turbulent kinetic energy, m**2/s**2
 5 - dissipation rate, m**2/s**3
 6 - kinematic heat conductance, m**2/s
 7 - modulus of horizontal velocity, m/s
 8 - Richardson number, n/d
   -0.000000   -0.00000  0.4328E-12  0.3369E-11  0.1310E-14  0.1000E-09  0.0000E+00  0.1675E+17
   -0.037498    0.26038  0.4182E-12  0.5848E-11  0.1334E-14  0.1000E-09  0.0000E+00  0.1549E+17
   -0.074996    0.51965  0.2786E-12  0.1091E-10  0.1899E-14  0.1000E-09  0.0000E+00  0.1424E+17
   -0.112494    0.77762  0.1699E-12  0.1970E-10  0.3067E-14  0.1000E-09  0.0000E+00  0.1301E+17
   -0.149993    1.03402  0.1175E-12  0.3453E-10  0.5122E-14  0.1000E-09  0.0000E+00  0.1179E+17
   -0.187492    1.28856  0.9844E-13  0.5951E-10  0.8600E-14  0.1000E-09  0.0000E+00  0.1060E+17
   -0.224991    1.54091  0.9274E-13  0.1016E-09  0.1442E-13  0.1000E-09  0.0000E+00  0.9425E+16
   -0.262490    1.79067  0.9124E-13  0.1724E-09  0.2409E-13  0.1000E-09  0.0000E+00  0.8287E+16
   -0.299990    2.03762  0.9085E-13  0.2912E-09  0.4011E-13  0.1000E-09  0.0000E+00  0.7178E+16
   -0.337490    2.28122  0.9065E-13  0.4901E-09  0.6657E-13  0.1000E-09  0.0000E+00  0.6099E+16
   -0.374990    2.52066  0.9028E-13  0.8225E-09  0.1102E-12  0.1000E-09  0.0000E+00  0.5092E+16
   -0.412491    2.75674  0.8944E-13  0.1376E-08  0.1818E-12  0.1253E-09  0.0000E+00  0.4127E+16
   -0.449991    2.98927  0.8798E-13  0.2297E-08  0.2991E-12  0.2600E-09  0.0000E+00  0.3190E+16
   -0.487492    3.21663  0.8627E-13  0.3821E-08  0.4906E-12  0.5896E-09  0.0000E+00  0.2301E+16
   -0.524993    3.43705  0.8490E-13  0.6317E-08  0.7998E-12  0.1486E-08  0.0000E+00  0.1483E+16
   -0.562494    3.64894  0.8416E-13  0.1037E-07  0.1295E-11  0.4746E-08  0.0000E+00  0.7509E+15
   -0.599995    3.85030  0.8394E-13  0.1669E-07  0.2059E-11  0.4031E-07  0.0000E+00  0.1406E+15
   -0.637496    4.01040  0.8392E-13  0.1733E-07  0.2142E-11  0.5283E-04  0.0000E+00 -0.2107E+12
   -0.674997    4.01095  0.8392E-13  0.1763E-07  0.2189E-11  0.5187E-04  0.0000E+00 -0.2205E+12
   -0.712498    4.01152  0.8392E-13  0.1791E-07  0.2241E-11  0.5217E-04  0.0000E+00 -0.2256E+12
   -0.750000    4.01209  0.8392E-13  0.1817E-07  0.2296E-11  0.5237E-04  0.0000E+00 -0.2317E+12
   -0.787501    4.01266  0.8392E-13  0.1841E-07  0.2356E-11  0.5237E-04  0.0000E+00 -0.2391E+12
   -0.825002    4.01323  0.8392E-13  0.1862E-07  0.2420E-11  0.5218E-04  0.0000E+00 -0.2475E+12
   -0.862503    4.01382  0.8392E-13  0.1880E-07  0.2490E-11  0.5178E-04  0.0000E+00 -0.2573E+12
   -0.900004    4.01441  0.8392E-13  0.1896E-07  0.2565E-11  0.5119E-04  0.0000E+00 -0.2684E+12
   -0.937505    4.01502  0.8392E-13  0.1909E-07  0.2647E-11  0.5039E-04  0.0000E+00 -0.2813E+12
   -0.975006    4.01564  0.8392E-13  0.1919E-07  0.2736E-11  0.4938E-04  0.0000E+00 -0.2961E+12
   -1.012507    4.01629  0.8392E-13  0.1925E-07  0.2834E-11  0.4816E-04  0.0000E+00 -0.3146E+12
   -1.050008    4.01695  0.8392E-13  0.1928E-07  0.2944E-11  0.4670E-04  0.0000E+00 -0.3366E+12
   -1.087508    4.01765  0.8392E-13  0.1926E-07  0.3068E-11  0.4498E-04  0.0000E+00 -0.3629E+12
   -1.125009    4.01839  0.8392E-13  0.1920E-07  0.3208E-11  0.4299E-04  0.0000E+00 -0.3931E+12
   -1.162509    4.01916  0.8392E-13  0.1908E-07  0.3369E-11  0.4069E-04  0.0000E+00 -0.4302E+12
   -1.200009    4.02000  0.8392E-13  0.1890E-07  0.3556E-11  0.3808E-04  0.0000E+00 -0.4768E+12
   -1.237509    4.02089  0.8392E-13  0.1864E-07  0.3780E-11  0.3517E-04  0.0000E+00 -0.5367E+12
   -1.275008    4.02188  0.8392E-13  0.1824E-07  0.4086E-11  0.3135E-04  0.0000E+00 -0.6294E+12
   -1.312507    4.02300  0.8392E-13  0.1760E-07  0.4551E-11  0.2266E-04  0.0000E+00 -0.9115E+12
   -1.350006    4.02456  0.8392E-13  0.1664E-07  0.5257E-11  0.1591E-04  0.0000E+00 -0.1377E+13
   -1.387505    4.02680  0.8392E-13  0.1517E-07  0.6454E-11  0.9952E-05  0.0000E+00 -0.2385E+13
   -1.425003    4.03042  0.8392E-13  0.1268E-07  0.9071E-11  0.4398E-05  0.0000E+00 -0.6128E+13
   -1.462501    4.03856  0.8392E-13  0.7616E-08  0.1924E-10  0.6081E-06  0.0000E+00 -0.5987E+14
   -1.499999    4.08819  0.8392E-13  0.0000E+00  0.0000E+00  0.0000E+00  0.0000E+00  0.0000E+00
