 1 - depth, m
 2 - temperature, C
 3 - salinity, kg/kg
 4 - turbulent kinetic energy, m**2/s**2
 5 - dissipation rate, m**2/s**3
 6 - kinematic heat conductance, m**2/s
 7 - modulus of horizontal velocity, m/s
 8 - Richardson number, n/d
   -0.000000   -0.00000  0.1660E-12  0.4096E-13  0.8590E-16  0.1000E-09  0.0000E+00  0.8934E+16
   -0.037498    0.13652  0.2110E-12  0.4096E-13  0.8590E-16  0.1000E-09  0.0000E+00  0.8599E+16
   -0.074996    0.27298  0.2463E-12  0.4096E-13  0.8590E-16  0.1000E-09  0.0000E+00  0.8260E+16
   -0.112494    0.40928  0.2569E-12  0.4096E-13  0.8590E-16  0.1000E-09  0.0000E+00  0.7918E+16
   -0.149993    0.54532  0.2429E-12  0.4096E-13  0.8590E-16  0.1000E-09  0.0000E+00  0.7574E+16
   -0.187492    0.68101  0.2143E-12  0.4096E-13  0.8590E-16  0.1000E-09  0.0000E+00  0.7230E+16
   -0.224992    0.81625  0.1820E-12  0.4096E-13  0.8590E-16  0.1000E-09  0.0000E+00  0.6886E+16
   -0.262491    0.95098  0.1531E-12  0.4096E-13  0.8590E-16  0.1000E-09  0.0000E+00  0.6547E+16
   -0.299991    1.08516  0.1305E-12  0.4096E-13  0.8590E-16  0.1000E-09  0.0000E+00  0.6210E+16
   -0.337491    1.21875  0.1144E-12  0.4096E-13  0.8590E-16  0.1000E-09  0.0000E+00  0.5875E+16
   -0.374991    1.35165  0.1036E-12  0.4096E-13  0.8590E-16  0.1000E-09  0.0000E+00  0.5541E+16
   -0.412492    1.48378  0.9651E-13  0.4096E-13  0.8590E-16  0.1000E-09  0.0000E+00  0.5211E+16
   -0.449993    1.61504  0.9201E-13  0.4096E-13  0.8590E-16  0.1000E-09  0.0000E+00  0.4885E+16
   -0.487493    1.74532  0.8916E-13  0.4096E-13  0.8590E-16  0.1000E-09  0.0000E+00  0.4564E+16
   -0.524994    1.87460  0.8733E-13  0.4096E-13  0.8590E-16  0.1000E-09  0.0000E+00  0.4259E+16
   -0.562495    2.00309  0.8615E-13  0.4096E-13  0.8590E-16  0.1000E-09  0.0000E+00  0.3958E+16
   -0.599996    2.13074  0.8539E-13  0.4096E-13  0.8590E-16  0.1000E-09  0.0000E+00  0.3661E+16
   -0.637498    2.25747  0.8488E-13  0.4096E-13  0.8590E-16  0.1000E-09  0.0000E+00  0.3370E+16
   -0.674999    2.38320  0.8455E-13  0.1916E-12  0.8759E-16  0.1000E-09  0.0000E+00  0.3084E+16
   -0.712500    2.50787  0.8433E-13  0.5094E-12  0.1621E-15  0.1000E-09  0.0000E+00  0.2804E+16
   -0.750002    2.63140  0.8419E-13  0.1137E-11  0.3283E-15  0.1000E-09  0.0000E+00  0.2535E+16
   -0.787503    2.75395  0.8410E-13  0.2390E-11  0.6633E-15  0.1000E-09  0.0000E+00  0.2273E+16
   -0.825004    2.87553  0.8405E-13  0.4911E-11  0.1326E-14  0.1000E-09  0.0000E+00  0.2017E+16
   -0.862506    2.99609  0.8402E-13  0.9964E-11  0.2629E-14  0.1000E-09  0.0000E+00  0.1768E+16
   -0.900007    3.11557  0.8400E-13  0.2004E-10  0.5168E-14  0.1000E-09  0.0000E+00  0.1524E+16
   -0.937508    3.23394  0.8399E-13  0.3999E-10  0.1009E-13  0.1000E-09  0.0000E+00  0.1288E+16
   -0.975009    3.35114  0.8398E-13  0.7921E-10  0.1954E-13  0.1000E-09  0.0000E+00  0.1059E+16
   -1.012510    3.46716  0.8398E-13  0.1562E-09  0.3771E-13  0.1253E-09  0.0000E+00  0.8345E+15
   -1.050011    3.58165  0.8398E-13  0.3070E-09  0.7255E-13  0.3251E-09  0.0000E+00  0.6184E+15
   -1.087511    3.69437  0.8398E-13  0.6000E-09  0.1388E-12  0.9342E-09  0.0000E+00  0.4115E+15
   -1.125012    3.80494  0.8398E-13  0.1163E-08  0.2637E-12  0.3368E-08  0.0000E+00  0.2164E+15
   -1.162512    3.91336  0.8398E-13  0.2209E-08  0.4917E-12  0.3377E-07  0.0000E+00  0.3959E+14
   -1.200012    4.00293  0.8398E-13  0.3158E-08  0.7068E-12  0.5462E-05  0.0000E+00 -0.7912E+12
   -1.237512    4.00573  0.8398E-13  0.3599E-08  0.8426E-12  0.5838E-05  0.0000E+00 -0.8582E+12
   -1.275012    4.00837  0.8398E-13  0.3903E-08  0.9874E-12  0.5734E-05  0.0000E+00 -0.9920E+12
   -1.312511    4.01108  0.8398E-13  0.4071E-08  0.1157E-11  0.5185E-05  0.0000E+00 -0.1236E+13
   -1.350010    4.01408  0.8398E-13  0.4079E-08  0.1379E-11  0.4211E-05  0.0000E+00 -0.1719E+13
   -1.387509    4.01779  0.8398E-13  0.3866E-08  0.1722E-11  0.2867E-05  0.0000E+00 -0.2895E+13
   -1.425007    4.02320  0.8398E-13  0.3293E-08  0.2403E-11  0.1350E-05  0.0000E+00 -0.7313E+13
   -1.462505    4.03421  0.8398E-13  0.2188E-08  0.4462E-11  0.2488E-06  0.0000E+00 -0.4624E+14
   -1.500003    4.07689  0.8398E-13  0.0000E+00  0.0000E+00  0.0000E+00  0.0000E+00  0.0000E+00
