 1 - depth, m
 2 - temperature, C
 3 - salinity, kg/kg
 4 - turbulent kinetic energy, m**2/s**2
 5 - dissipation rate, m**2/s**3
 6 - kinematic heat conductance, m**2/s
 7 - modulus of horizontal velocity, m/s
 8 - Richardson number, n/d
   -0.000000   -0.00000  0.5707E-12  0.4096E-13  0.8590E-16  0.1000E-09  0.0000E+00  0.8604E+16
   -0.037498    0.13139  0.4706E-12  0.4096E-13  0.8590E-16  0.1000E-09  0.0000E+00  0.8268E+16
   -0.074996    0.26230  0.3256E-12  0.4096E-13  0.8590E-16  0.1000E-09  0.0000E+00  0.7927E+16
   -0.112494    0.39257  0.2194E-12  0.4096E-13  0.8590E-16  0.1000E-09  0.0000E+00  0.7581E+16
   -0.149993    0.52205  0.1555E-12  0.4096E-13  0.8590E-16  0.1000E-09  0.0000E+00  0.7234E+16
   -0.187492    0.65056  0.1231E-12  0.4096E-13  0.8590E-16  0.1000E-09  0.0000E+00  0.6886E+16
   -0.224991    0.77795  0.1093E-12  0.4096E-13  0.8590E-16  0.1000E-09  0.0000E+00  0.6540E+16
   -0.262491    0.90407  0.1041E-12  0.4096E-13  0.8590E-16  0.1000E-09  0.0000E+00  0.6200E+16
   -0.299991    1.02886  0.1025E-12  0.4096E-13  0.8590E-16  0.1000E-09  0.0000E+00  0.5865E+16
   -0.337491    1.15223  0.1020E-12  0.4096E-13  0.8590E-16  0.1000E-09  0.0000E+00  0.5535E+16
   -0.374991    1.27404  0.1018E-12  0.4096E-13  0.8590E-16  0.1000E-09  0.0000E+00  0.5246E+16
   -0.412491    1.39504  0.1016E-12  0.4096E-13  0.8590E-16  0.1000E-09  0.0000E+00  0.4982E+16
   -0.449992    1.51567  0.1013E-12  0.4096E-13  0.8590E-16  0.1000E-09  0.0000E+00  0.4719E+16
   -0.487493    1.63589  0.1008E-12  0.4096E-13  0.8590E-16  0.1000E-09  0.0000E+00  0.4457E+16
   -0.524994    1.75562  0.1001E-12  0.4096E-13  0.8590E-16  0.1000E-09  0.0000E+00  0.4190E+16
   -0.562495    1.87459  0.9925E-13  0.4096E-13  0.8590E-16  0.1000E-09  0.0000E+00  0.3927E+16
   -0.599996    1.99275  0.9822E-13  0.4096E-13  0.8590E-16  0.1000E-09  0.0000E+00  0.3668E+16
   -0.637497    2.11007  0.9716E-13  0.4096E-13  0.8590E-16  0.1000E-09  0.0000E+00  0.3414E+16
   -0.674998    2.22651  0.9617E-13  0.4096E-13  0.8590E-16  0.1000E-09  0.0000E+00  0.3165E+16
   -0.712499    2.34204  0.9534E-13  0.4096E-13  0.8590E-16  0.1000E-09  0.0000E+00  0.2921E+16
   -0.750001    2.45661  0.9468E-13  0.4096E-13  0.8590E-16  0.1000E-09  0.0000E+00  0.2698E+16
   -0.787502    2.57084  0.9417E-13  0.4096E-13  0.8590E-16  0.1000E-09  0.0000E+00  0.2481E+16
   -0.825003    2.68493  0.9381E-13  0.1510E-12  0.9238E-16  0.1000E-09  0.0000E+00  0.2265E+16
   -0.862504    2.79884  0.9355E-13  0.4373E-12  0.1992E-15  0.1000E-09  0.0000E+00  0.2050E+16
   -0.900006    2.91255  0.9337E-13  0.1104E-11  0.4678E-15  0.1000E-09  0.0000E+00  0.1837E+16
   -0.937507    3.02598  0.9324E-13  0.2664E-11  0.1091E-14  0.1000E-09  0.0000E+00  0.1624E+16
   -0.975008    3.13909  0.9315E-13  0.6307E-11  0.2512E-14  0.1000E-09  0.0000E+00  0.1414E+16
   -1.012508    3.25179  0.9310E-13  0.1479E-10  0.5738E-14  0.1000E-09  0.0000E+00  0.1215E+16
   -1.050009    3.36500  0.9306E-13  0.3447E-10  0.1303E-13  0.1000E-09  0.0000E+00  0.1016E+16
   -1.087510    3.47888  0.9304E-13  0.7959E-10  0.2934E-13  0.1024E-09  0.0000E+00  0.8133E+15
   -1.125010    3.59339  0.9303E-13  0.1821E-09  0.6546E-13  0.2949E-09  0.0000E+00  0.6131E+15
   -1.162510    3.70968  0.9303E-13  0.4125E-09  0.1447E-12  0.9879E-09  0.0000E+00  0.4038E+15
   -1.200011    3.82774  0.9303E-13  0.9238E-09  0.3167E-12  0.4706E-08  0.0000E+00  0.1842E+15
   -1.237510    3.94568  0.9303E-13  0.1953E-08  0.6590E-12  0.1599E-06  0.0000E+00  0.1013E+14
   -1.275010    4.00643  0.9303E-13  0.3214E-08  0.1117E-11  0.3400E-05  0.0000E+00 -0.1860E+13
   -1.312509    4.01168  0.9303E-13  0.3869E-08  0.1478E-11  0.3657E-05  0.0000E+00 -0.2229E+13
   -1.350008    4.01678  0.9303E-13  0.4272E-08  0.1914E-11  0.3358E-05  0.0000E+00 -0.3030E+13
   -1.387507    4.02259  0.9303E-13  0.4381E-08  0.2543E-11  0.2552E-05  0.0000E+00 -0.4979E+13
   -1.425005    4.03050  0.9303E-13  0.4047E-08  0.3714E-11  0.1376E-05  0.0000E+00 -0.1190E+14
   -1.462503    4.04524  0.9303E-13  0.3014E-08  0.7092E-11  0.3236E-06  0.0000E+00 -0.6678E+14
   -1.500001    4.09590  0.9303E-13  0.0000E+00  0.0000E+00  0.0000E+00  0.0000E+00  0.0000E+00
