 1 - depth, m
 2 - temperature, C
 3 - salinity, kg/kg
 4 - turbulent kinetic energy, m**2/s**2
 5 - dissipation rate, m**2/s**3
 6 - kinematic heat conductance, m**2/s
 7 - modulus of horizontal velocity, m/s
 8 - Richardson number, n/d
   -0.000000   12.83314  0.9216E-13  0.7491E-03  0.3444E-02  0.1082E-03  0.3518E+00  0.8108E-02
   -0.037498   12.95852  0.9215E-13  0.3946E-03  0.1644E-02  0.1855E-03  0.1046E+00  0.2198E-02
   -0.074995   12.99934  0.9215E-13  0.2489E-03  0.3659E-03  0.2441E-03  0.6546E-01 -0.1633E-01
   -0.112494   13.02175  0.9215E-13  0.1923E-03  0.2194E-03  0.2467E-03  0.5114E-01 -0.7448E-01
   -0.149992   13.03293  0.9215E-13  0.1562E-03  0.1477E-03  0.2445E-03  0.4286E-01  0.7806E-02
   -0.187491   13.04095  0.9214E-13  0.1290E-03  0.1006E-03  0.2465E-03  0.3702E-01 -0.4236E-01
   -0.224990   13.04636  0.9214E-13  0.1071E-03  0.6590E-04  0.2531E-03  0.3290E-01 -0.1659E-01
   -0.262490   13.05077  0.9214E-13  0.9093E-04  0.4227E-04  0.2589E-03  0.2973E-01 -0.2926E-01
   -0.299989   13.05491  0.9214E-13  0.7837E-04  0.2652E-04  0.2703E-03  0.2688E-01  0.1262E+01
   -0.337489   13.05857  0.9214E-13  0.6828E-04  0.1631E-04  0.2855E-03  0.2443E-01  0.4687E+00
   -0.374989   13.06215  0.9214E-13  0.6027E-04  0.1005E-04  0.3140E-03  0.2231E-01  0.9530E+01
   -0.412490   13.06513  0.9214E-13  0.5384E-04  0.6250E-05  0.3510E-03  0.2057E-01  0.1444E+02
   -0.449990   13.06786  0.9214E-13  0.4863E-04  0.3965E-05  0.3896E-03  0.1911E-01  0.1733E+02
   -0.487491   13.07009  0.9214E-13  0.4444E-04  0.2564E-05  0.4344E-03  0.1794E-01  0.1750E+02
   -0.524991   13.07220  0.9214E-13  0.4112E-04  0.1686E-05  0.4820E-03  0.1699E-01  0.3918E+02
   -0.562492   13.07417  0.9214E-13  0.3841E-04  0.1162E-05  0.5296E-03  0.1601E-01  0.8244E+02
   -0.599993   13.07582  0.9214E-13  0.3616E-04  0.8368E-06  0.5709E-03  0.1509E-01  0.2393E+03
   -0.637494   13.07747  0.9214E-13  0.3426E-04  0.6318E-06  0.6161E-03  0.1422E-01  0.5283E+02
   -0.674995   13.07886  0.9214E-13  0.3262E-04  0.4947E-06  0.6580E-03  0.1342E-01  0.8002E+02
   -0.712496   13.08028  0.9214E-13  0.3118E-04  0.4036E-06  0.7010E-03  0.1265E-01  0.8534E+02
   -0.749997   13.08141  0.9214E-13  0.2990E-04  0.3387E-06  0.7405E-03  0.1193E-01  0.5211E+02
   -0.787498   13.08261  0.9214E-13  0.2874E-04  0.2896E-06  0.7791E-03  0.1123E-01  0.3587E+02
   -0.825000   13.08361  0.9214E-13  0.2765E-04  0.2528E-06  0.8078E-03  0.1055E-01  0.6632E+02
   -0.862501   13.08464  0.9214E-13  0.2660E-04  0.2238E-06  0.8284E-03  0.9889E-02  0.4104E+02
   -0.900002   13.08558  0.9214E-13  0.2557E-04  0.2004E-06  0.8403E-03  0.9246E-02  0.6912E+02
   -0.937503   13.08653  0.9214E-13  0.2451E-04  0.1809E-06  0.8437E-03  0.8615E-02  0.1589E+03
   -0.975003   13.08746  0.9214E-13  0.2341E-04  0.1639E-06  0.8341E-03  0.7993E-02  0.1564E+03
   -1.012504   13.08840  0.9214E-13  0.2221E-04  0.1488E-06  0.8188E-03  0.7374E-02  0.3374E+03
   -1.050005   13.08936  0.9214E-13  0.2091E-04  0.1353E-06  0.7937E-03  0.6791E-02  0.1057E+03
   -1.087505   13.09033  0.9214E-13  0.1953E-04  0.1231E-06  0.7594E-03  0.6249E-02  0.4590E+02
   -1.125005   13.09137  0.9214E-13  0.1813E-04  0.1128E-06  0.7432E-03  0.5745E-02  0.2182E+02
   -1.162506   13.09244  0.9214E-13  0.1673E-04  0.1045E-06  0.6843E-03  0.5310E-02  0.1375E+02
   -1.200005   13.09360  0.9214E-13  0.1525E-04  0.9786E-07  0.6237E-03  0.4908E-02  0.2752E+02
   -1.237505   13.09487  0.9214E-13  0.1370E-04  0.9327E-07  0.5679E-03  0.4518E-02  0.4733E+01
   -1.275004   13.09627  0.9214E-13  0.1219E-04  0.9224E-07  0.4932E-03  0.4178E-02  0.4080E+02
   -1.312504   13.09794  0.9214E-13  0.1072E-04  0.9767E-07  0.4188E-03  0.3882E-02  0.4701E+01
   -1.350002   13.10003  0.9214E-13  0.9196E-05  0.1161E-06  0.3181E-03  0.3630E-02  0.4488E+02
   -1.387501   13.10338  0.9214E-13  0.7530E-05  0.1561E-06  0.2515E-03  0.3383E-02  0.9824E+02
   -1.424999   13.10729  0.9214E-13  0.5554E-05  0.2773E-06  0.1222E-03  0.3158E-02  0.2220E+04
   -1.462497   13.12123  0.9214E-13  0.3283E-05  0.5890E-06  0.5119E-04  0.2867E-02 -0.3154E+04
   -1.499995   13.14457  0.9214E-13  0.0000E+00  0.0000E+00  0.0000E+00  0.2911E-02  0.0000E+00
