 1 - depth, m
 2 - temperature, C
 3 - salinity, kg/kg
 4 - turbulent kinetic energy, m**2/s**2
 5 - dissipation rate, m**2/s**3
 6 - kinematic heat conductance, m**2/s
 7 - modulus of horizontal velocity, m/s
 8 - Richardson number, n/d
   -0.000000    7.62949  0.9529E-13  0.1727E-04  0.1372E-05  0.2139E-04  0.2482E-01 -0.8502E-02
   -0.037498    7.66314  0.9529E-13  0.1363E-04  0.4929E-06  0.3897E-04  0.1502E-01 -0.2349E-01
   -0.074996    7.67967  0.9529E-13  0.1137E-04  0.2581E-06  0.5320E-04  0.1107E-01 -0.4283E-01
   -0.112494    7.69159  0.9529E-13  0.9721E-05  0.1575E-06  0.6619E-04  0.8593E-02 -0.6929E-01
   -0.149993    7.70101  0.9528E-13  0.8447E-05  0.1045E-06  0.7932E-04  0.6860E-02 -0.1063E+00
   -0.187492    7.70873  0.9528E-13  0.7444E-05  0.7322E-07  0.9405E-04  0.5591E-02 -0.1562E+00
   -0.224991    7.71515  0.9528E-13  0.6659E-05  0.5342E-07  0.1172E-03  0.4642E-02 -0.9256E-01
   -0.262490    7.72027  0.9528E-13  0.6073E-05  0.4076E-07  0.1918E-03  0.3930E-02  0.7081E+01
   -0.299990    7.72374  0.9528E-13  0.5654E-05  0.3263E-07  0.2883E-03  0.3412E-02  0.2622E+03
   -0.337490    7.72595  0.9528E-13  0.5341E-05  0.2695E-07  0.3336E-03  0.3021E-02  0.2117E+02
   -0.374990    7.72771  0.9528E-13  0.5092E-05  0.2267E-07  0.3714E-03  0.2683E-02  0.2827E+01
   -0.412491    7.72921  0.9528E-13  0.4892E-05  0.1935E-07  0.3877E-03  0.2398E-02  0.2459E+01
   -0.449991    7.73063  0.9528E-13  0.4729E-05  0.1673E-07  0.4102E-03  0.2150E-02  0.2174E+01
   -0.487492    7.73196  0.9528E-13  0.4598E-05  0.1468E-07  0.4347E-03  0.1942E-02  0.1933E+01
   -0.524993    7.73319  0.9528E-13  0.4492E-05  0.1305E-07  0.4475E-03  0.1767E-02  0.2026E+01
   -0.562494    7.73437  0.9528E-13  0.4403E-05  0.1172E-07  0.4600E-03  0.1606E-02  0.2087E+01
   -0.599995    7.73550  0.9528E-13  0.4324E-05  0.1063E-07  0.4740E-03  0.1457E-02  0.2123E+01
   -0.637496    7.73659  0.9528E-13  0.4251E-05  0.9729E-08  0.4887E-03  0.1320E-02  0.2136E+01
   -0.674997    7.73762  0.9528E-13  0.4179E-05  0.8974E-08  0.5039E-03  0.1195E-02  0.2129E+01
   -0.712498    7.73861  0.9528E-13  0.4107E-05  0.8343E-08  0.5192E-03  0.1079E-02  0.2107E+01
   -0.749999    7.73956  0.9528E-13  0.4032E-05  0.7815E-08  0.5346E-03  0.9732E-03  0.2073E+01
   -0.787500    7.74047  0.9528E-13  0.3954E-05  0.7375E-08  0.5498E-03  0.8762E-03  0.2030E+01
   -0.825002    7.74134  0.9528E-13  0.3870E-05  0.7011E-08  0.5647E-03  0.7875E-03  0.1980E+01
   -0.862503    7.74218  0.9528E-13  0.3782E-05  0.6714E-08  0.5795E-03  0.7064E-03  0.1926E+01
   -0.900004    7.74299  0.9528E-13  0.3689E-05  0.6476E-08  0.5940E-03  0.6324E-03  0.1869E+01
   -0.937505    7.74376  0.9528E-13  0.3591E-05  0.6292E-08  0.5996E-03  0.5648E-03  0.1805E+01
   -0.975006    7.74452  0.9528E-13  0.3490E-05  0.6159E-08  0.5875E-03  0.5031E-03  0.1740E+01
   -1.012507    7.74528  0.9528E-13  0.3388E-05  0.6073E-08  0.5679E-03  0.4469E-03  0.1570E+01
   -1.050007    7.74606  0.9528E-13  0.3288E-05  0.6033E-08  0.5397E-03  0.3998E-03  0.1406E+01
   -1.087508    7.74686  0.9528E-13  0.3194E-05  0.6034E-08  0.5069E-03  0.3616E-03  0.1256E+01
   -1.125008    7.74771  0.9528E-13  0.3106E-05  0.6069E-08  0.4790E-03  0.3310E-03  0.1125E+01
   -1.162508    7.74860  0.9528E-13  0.3019E-05  0.6141E-08  0.4539E-03  0.3069E-03  0.1276E+01
   -1.200008    7.74953  0.9528E-13  0.2928E-05  0.6259E-08  0.4230E-03  0.2865E-03  0.1765E+01
   -1.237508    7.75051  0.9528E-13  0.2826E-05  0.6440E-08  0.3855E-03  0.2677E-03  0.2738E+01
   -1.275008    7.75158  0.9528E-13  0.2709E-05  0.6714E-08  0.3425E-03  0.2502E-03  0.4677E+01
   -1.312507    7.75276  0.9528E-13  0.2575E-05  0.7128E-08  0.2945E-03  0.2338E-03  0.9139E+01
   -1.350006    7.75412  0.9528E-13  0.2417E-05  0.7773E-08  0.2426E-03  0.2186E-03  0.2191E+02
   -1.387505    7.75576  0.9528E-13  0.2225E-05  0.8859E-08  0.1824E-03  0.2047E-03  0.7611E+02
   -1.425003    7.75790  0.9528E-13  0.1978E-05  0.1097E-07  0.1333E-03  0.1922E-03  0.3967E+03
   -1.462501    7.76080  0.9528E-13  0.1176E-05  0.2396E-07  0.9662E-05  0.1833E-03 -0.3771E+05
   -1.499998    7.79962  0.9528E-13  0.0000E+00  0.0000E+00  0.0000E+00  0.1824E-03  0.0000E+00
