 1 - depth, m
 2 - temperature, C
 3 - salinity, kg/kg
 4 - turbulent kinetic energy, m**2/s**2
 5 - dissipation rate, m**2/s**3
 6 - kinematic heat conductance, m**2/s
 7 - modulus of horizontal velocity, m/s
 8 - Richardson number, n/d
   -0.000000   14.38999  0.1009E-12  0.6420E-04  0.1477E-04  0.3907E-04  0.6451E-01  0.4579E-02
   -0.037498   14.41531  0.1009E-12  0.3869E-04  0.4339E-05  0.5841E-04  0.2598E-01 -0.1213E-01
   -0.074996   14.42095  0.1009E-12  0.2925E-04  0.2006E-05  0.6637E-04  0.1961E-01 -0.1954E-01
   -0.112494   14.42491  0.1009E-12  0.2326E-04  0.1062E-05  0.7485E-04  0.1596E-01 -0.2918E-01
   -0.149993   14.42813  0.1009E-12  0.1898E-04  0.6127E-06  0.8337E-04  0.1326E-01 -0.4132E-01
   -0.187492   14.43091  0.1009E-12  0.1579E-04  0.3771E-06  0.9167E-04  0.1115E-01 -0.5691E-01
   -0.224991   14.43335  0.1009E-12  0.1336E-04  0.2445E-06  0.1003E-03  0.9446E-02 -0.7812E-01
   -0.262491   14.43553  0.1009E-12  0.1150E-04  0.1659E-06  0.1093E-03  0.8074E-02 -0.9834E-01
   -0.299991   14.43748  0.1009E-12  0.1004E-04  0.1169E-06  0.1249E-03  0.6934E-02  0.1702E-01
   -0.337491   14.43919  0.1009E-12  0.8883E-05  0.8511E-07  0.1749E-03  0.5988E-02  0.4328E+01
   -0.374991   14.44059  0.1009E-12  0.7961E-05  0.6379E-07  0.1952E-03  0.5223E-02  0.6654E+01
   -0.412492   14.44181  0.1009E-12  0.7222E-05  0.4901E-07  0.2281E-03  0.4585E-02  0.1411E+02
   -0.449992   14.44286  0.1009E-12  0.6644E-05  0.3868E-07  0.2721E-03  0.4068E-02  0.1827E+03
   -0.487493   14.44372  0.1009E-12  0.6207E-05  0.3146E-07  0.3368E-03  0.3654E-02  0.1174E+03
   -0.524994   14.44438  0.1009E-12  0.5886E-05  0.2637E-07  0.3854E-03  0.3325E-02  0.2689E+02
   -0.562495   14.44493  0.1009E-12  0.5638E-05  0.2258E-07  0.4087E-03  0.3033E-02  0.4772E+02
   -0.599996   14.44543  0.1009E-12  0.5443E-05  0.1966E-07  0.4266E-03  0.2764E-02  0.2572E+02
   -0.637497   14.44590  0.1009E-12  0.5285E-05  0.1737E-07  0.4390E-03  0.2517E-02  0.3207E+01
   -0.674998   14.44635  0.1009E-12  0.5153E-05  0.1554E-07  0.4487E-03  0.2288E-02  0.2919E+01
   -0.712500   14.44679  0.1009E-12  0.5039E-05  0.1405E-07  0.4576E-03  0.2075E-02  0.2801E+01
   -0.750001   14.44724  0.1009E-12  0.4936E-05  0.1283E-07  0.4663E-03  0.1877E-02  0.2826E+01
   -0.787502   14.44768  0.1009E-12  0.4839E-05  0.1184E-07  0.4745E-03  0.1692E-02  0.2824E+01
   -0.825004   14.44811  0.1009E-12  0.4743E-05  0.1102E-07  0.4820E-03  0.1519E-02  0.2799E+01
   -0.862505   14.44856  0.1009E-12  0.4646E-05  0.1037E-07  0.4884E-03  0.1358E-02  0.2756E+01
   -0.900006   14.44900  0.1009E-12  0.4543E-05  0.9849E-08  0.4935E-03  0.1208E-02  0.2698E+01
   -0.937507   14.44944  0.1009E-12  0.4433E-05  0.9449E-08  0.4968E-03  0.1068E-02  0.2631E+01
   -0.975008   14.44990  0.1009E-12  0.4314E-05  0.9156E-08  0.4997E-03  0.9365E-03  0.2562E+01
   -1.012509   14.45036  0.1009E-12  0.4187E-05  0.8965E-08  0.5178E-03  0.8145E-03  0.2222E+01
   -1.050010   14.45081  0.1009E-12  0.4056E-05  0.8874E-08  0.5353E-03  0.7104E-03  0.1925E+01
   -1.087510   14.45125  0.1009E-12  0.3928E-05  0.8875E-08  0.5200E-03  0.6248E-03  0.1673E+01
   -1.125011   14.45172  0.1009E-12  0.3804E-05  0.8959E-08  0.4824E-03  0.5559E-03  0.1452E+01
   -1.162511   14.45223  0.1009E-12  0.3690E-05  0.9111E-08  0.4448E-03  0.5018E-03  0.1266E+01
   -1.200011   14.45279  0.1009E-12  0.3582E-05  0.9326E-08  0.4148E-03  0.4602E-03  0.1229E+01
   -1.237511   14.45341  0.1009E-12  0.3472E-05  0.9627E-08  0.3846E-03  0.4281E-03  0.1702E+01
   -1.275011   14.45409  0.1009E-12  0.3346E-05  0.1007E-07  0.3451E-03  0.3999E-03  0.2911E+01
   -1.312510   14.45486  0.1009E-12  0.3198E-05  0.1072E-07  0.2982E-03  0.3738E-03  0.5779E+01
   -1.350009   14.45578  0.1009E-12  0.3017E-05  0.1173E-07  0.2465E-03  0.3496E-03  0.1416E+02
   -1.387508   14.45692  0.1009E-12  0.2790E-05  0.1340E-07  0.1860E-03  0.3276E-03  0.5028E+02
   -1.425006   14.45846  0.1009E-12  0.2488E-05  0.1661E-07  0.1368E-03  0.3080E-03  0.2701E+03
   -1.462504   14.46060  0.1009E-12  0.1497E-05  0.3578E-07  0.1158E-04  0.2940E-03 -0.2996E+05
   -1.500002   14.48623  0.1009E-12  0.0000E+00  0.0000E+00  0.0000E+00  0.2922E-03  0.0000E+00
