 1 - depth, m
 2 - temperature, C
 3 - salinity, kg/kg
 4 - turbulent kinetic energy, m**2/s**2
 5 - dissipation rate, m**2/s**3
 6 - kinematic heat conductance, m**2/s
 7 - modulus of horizontal velocity, m/s
 8 - Richardson number, n/d
   -0.000000   -0.00000  0.1202E-11  0.4096E-13  0.8590E-16  0.1000E-09  0.0000E+00  0.1316E+17
   -0.037498    0.20293  0.3488E-12  0.4096E-13  0.8590E-16  0.1000E-09  0.0000E+00  0.1213E+17
   -0.074996    0.40089  0.1419E-12  0.4096E-13  0.8590E-16  0.1000E-09  0.0000E+00  0.1111E+17
   -0.112494    0.59290  0.9578E-13  0.4096E-13  0.8590E-16  0.1000E-09  0.0000E+00  0.1010E+17
   -0.149993    0.77806  0.9457E-13  0.4096E-13  0.8590E-16  0.1000E-09  0.0000E+00  0.9126E+16
   -0.187492    0.95560  0.9368E-13  0.9444E-13  0.8590E-16  0.1000E-09  0.0000E+00  0.8199E+16
   -0.224991    1.12498  0.9367E-13  0.3130E-12  0.1016E-15  0.1000E-09  0.0000E+00  0.7337E+16
   -0.262491    1.28600  0.9364E-13  0.7294E-12  0.1771E-15  0.1000E-09  0.0000E+00  0.6583E+16
   -0.299991    1.43952  0.9363E-13  0.1491E-11  0.3304E-15  0.1000E-09  0.0000E+00  0.5915E+16
   -0.337491    1.58622  0.9362E-13  0.2896E-11  0.6167E-15  0.1000E-09  0.0000E+00  0.5330E+16
   -0.374991    1.72689  0.9361E-13  0.5502E-11  0.1142E-14  0.1000E-09  0.0000E+00  0.4948E+16
   -0.412492    1.86615  0.9360E-13  0.1034E-10  0.2100E-14  0.1000E-09  0.0000E+00  0.4688E+16
   -0.449992    2.00745  0.9355E-13  0.1927E-10  0.3836E-14  0.1000E-09  0.0000E+00  0.4452E+16
   -0.487493    2.15205  0.9340E-13  0.3572E-10  0.6969E-14  0.1000E-09  0.0000E+00  0.4223E+16
   -0.524994    2.30100  0.9303E-13  0.6559E-10  0.1255E-13  0.1000E-09  0.0000E+00  0.3980E+16
   -0.562495    2.45498  0.9234E-13  0.1195E-09  0.2243E-13  0.1000E-09  0.0000E+00  0.3710E+16
   -0.599996    2.61438  0.9129E-13  0.2165E-09  0.3987E-13  0.1000E-09  0.0000E+00  0.3400E+16
   -0.637497    2.77924  0.9002E-13  0.3900E-09  0.7046E-13  0.1000E-09  0.0000E+00  0.3043E+16
   -0.674998    2.94929  0.8873E-13  0.6989E-09  0.1239E-12  0.1304E-09  0.0000E+00  0.2639E+16
   -0.712500    3.12402  0.8759E-13  0.1246E-08  0.2167E-12  0.2748E-09  0.0000E+00  0.2190E+16
   -0.750001    3.30270  0.8667E-13  0.2209E-08  0.3773E-12  0.6112E-09  0.0000E+00  0.1714E+16
   -0.787502    3.48573  0.8586E-13  0.3894E-08  0.6531E-12  0.1513E-08  0.0000E+00  0.1198E+16
   -0.825004    3.67233  0.8524E-13  0.6818E-08  0.1123E-11  0.4816E-08  0.0000E+00  0.6477E+15
   -0.862505    3.85904  0.8504E-13  0.1167E-07  0.1893E-11  0.4283E-07  0.0000E+00  0.1226E+15
   -0.900006    4.01031  0.8501E-13  0.1278E-07  0.2082E-11  0.2973E-04  0.0000E+00 -0.3615E+12
   -0.937507    4.01125  0.8501E-13  0.1325E-07  0.2179E-11  0.3140E-04  0.0000E+00 -0.3600E+12
   -0.975008    4.01216  0.8501E-13  0.1362E-07  0.2273E-11  0.3166E-04  0.0000E+00 -0.3748E+12
   -1.012509    4.01307  0.8501E-13  0.1394E-07  0.2374E-11  0.3179E-04  0.0000E+00 -0.3963E+12
   -1.050010    4.01400  0.8501E-13  0.1421E-07  0.2486E-11  0.3165E-04  0.0000E+00 -0.4239E+12
   -1.087510    4.01496  0.8501E-13  0.1444E-07  0.2610E-11  0.3123E-04  0.0000E+00 -0.4579E+12
   -1.125011    4.01596  0.8501E-13  0.1461E-07  0.2748E-11  0.3045E-04  0.0000E+00 -0.4942E+12
   -1.162511    4.01701  0.8501E-13  0.1472E-07  0.2903E-11  0.2936E-04  0.0000E+00 -0.5389E+12
   -1.200011    4.01811  0.8501E-13  0.1476E-07  0.3090E-11  0.2791E-04  0.0000E+00 -0.5971E+12
   -1.237511    4.01929  0.8501E-13  0.1471E-07  0.3338E-11  0.2524E-04  0.0000E+00 -0.6970E+12
   -1.275011    4.02061  0.8501E-13  0.1453E-07  0.3674E-11  0.2043E-04  0.0000E+00 -0.9148E+12
   -1.312510    4.02227  0.8501E-13  0.1416E-07  0.4131E-11  0.1620E-04  0.0000E+00 -0.1238E+13
   -1.350009    4.02441  0.8501E-13  0.1352E-07  0.4798E-11  0.1212E-04  0.0000E+00 -0.1798E+13
   -1.387508    4.02731  0.8501E-13  0.1244E-07  0.5907E-11  0.7824E-05  0.0000E+00 -0.3095E+13
   -1.425006    4.03188  0.8501E-13  0.1050E-07  0.8309E-11  0.3565E-05  0.0000E+00 -0.7956E+13
   -1.462504    4.04192  0.8501E-13  0.6666E-08  0.1715E-10  0.5696E-06  0.0000E+00 -0.6933E+14
   -1.500002    4.09565  0.8501E-13  0.0000E+00  0.0000E+00  0.0000E+00  0.0000E+00  0.0000E+00
