 1 - depth, m
 2 - temperature, C
 3 - salinity, kg/kg
 4 - turbulent kinetic energy, m**2/s**2
 5 - dissipation rate, m**2/s**3
 6 - kinematic heat conductance, m**2/s
 7 - modulus of horizontal velocity, m/s
 8 - Richardson number, n/d
   -0.000000   -0.00000  0.1115E-11  0.4096E-13  0.8590E-16  0.1000E-09  0.0000E+00  0.7283E+16
   -0.037498    0.11091  0.5369E-12  0.4096E-13  0.8590E-16  0.1000E-09  0.0000E+00  0.7053E+16
   -0.074996    0.22163  0.2945E-12  0.4096E-13  0.8590E-16  0.1000E-09  0.0000E+00  0.6819E+16
   -0.112494    0.33207  0.1985E-12  0.4096E-13  0.8590E-16  0.1000E-09  0.0000E+00  0.6583E+16
   -0.149992    0.44217  0.1541E-12  0.4096E-13  0.8590E-16  0.1000E-09  0.0000E+00  0.6347E+16
   -0.187491    0.55186  0.1301E-12  0.4096E-13  0.8590E-16  0.1000E-09  0.0000E+00  0.6110E+16
   -0.224990    0.66110  0.1165E-12  0.4096E-13  0.8590E-16  0.1000E-09  0.0000E+00  0.5875E+16
   -0.262490    0.76981  0.1089E-12  0.4096E-13  0.8590E-16  0.1000E-09  0.0000E+00  0.5636E+16
   -0.299990    0.87788  0.1047E-12  0.4096E-13  0.8590E-16  0.1000E-09  0.0000E+00  0.5399E+16
   -0.337490    0.98525  0.1025E-12  0.4096E-13  0.8590E-16  0.1000E-09  0.0000E+00  0.5164E+16
   -0.374990    1.09186  0.1011E-12  0.4096E-13  0.8590E-16  0.1000E-09  0.0000E+00  0.4949E+16
   -0.412490    1.19806  0.1002E-12  0.4096E-13  0.8590E-16  0.1000E-09  0.0000E+00  0.4747E+16
   -0.449990    1.30406  0.9943E-13  0.4096E-13  0.8590E-16  0.1000E-09  0.0000E+00  0.4546E+16
   -0.487491    1.40985  0.9865E-13  0.4096E-13  0.8590E-16  0.1000E-09  0.0000E+00  0.4343E+16
   -0.524992    1.51533  0.9785E-13  0.4096E-13  0.8590E-16  0.1000E-09  0.0000E+00  0.4122E+16
   -0.562493    1.61996  0.9706E-13  0.4096E-13  0.8590E-16  0.1000E-09  0.0000E+00  0.3905E+16
   -0.599994    1.72372  0.9631E-13  0.4096E-13  0.8590E-16  0.1000E-09  0.0000E+00  0.3692E+16
   -0.637495    1.82659  0.9562E-13  0.4096E-13  0.8590E-16  0.1000E-09  0.0000E+00  0.3484E+16
   -0.674996    1.92853  0.9502E-13  0.4096E-13  0.8590E-16  0.1000E-09  0.0000E+00  0.3280E+16
   -0.712497    2.02952  0.9452E-13  0.4096E-13  0.8590E-16  0.1000E-09  0.0000E+00  0.3080E+16
   -0.749998    2.12954  0.9411E-13  0.4096E-13  0.8590E-16  0.1000E-09  0.0000E+00  0.2895E+16
   -0.787499    2.22888  0.9380E-13  0.4096E-13  0.8590E-16  0.1000E-09  0.0000E+00  0.2715E+16
   -0.825000    2.32762  0.9356E-13  0.4096E-13  0.8590E-16  0.1000E-09  0.0000E+00  0.2539E+16
   -0.862501    2.42575  0.9339E-13  0.4096E-13  0.8590E-16  0.1000E-09  0.0000E+00  0.2365E+16
   -0.900002    2.52325  0.9327E-13  0.4096E-13  0.8590E-16  0.1000E-09  0.0000E+00  0.2195E+16
   -0.937503    2.62010  0.9318E-13  0.4096E-13  0.8590E-16  0.1000E-09  0.0000E+00  0.2028E+16
   -0.975004    2.71630  0.9312E-13  0.4096E-13  0.8590E-16  0.1000E-09  0.0000E+00  0.1865E+16
   -1.012505    2.81182  0.9309E-13  0.4096E-13  0.8590E-16  0.1000E-09  0.0000E+00  0.1720E+16
   -1.050006    2.90753  0.9306E-13  0.4096E-13  0.8590E-16  0.1000E-09  0.0000E+00  0.1577E+16
   -1.087506    3.00363  0.9305E-13  0.4096E-13  0.8590E-16  0.1000E-09  0.0000E+00  0.1435E+16
   -1.125006    3.10020  0.9304E-13  0.4096E-13  0.8590E-16  0.1000E-09  0.0000E+00  0.1301E+16
   -1.162507    3.19812  0.9304E-13  0.4096E-13  0.8590E-16  0.1000E-09  0.0000E+00  0.1165E+16
   -1.200007    3.29763  0.9303E-13  0.4096E-13  0.8590E-16  0.1000E-09  0.0000E+00  0.1023E+16
   -1.237506    3.39891  0.9303E-13  0.1550E-12  0.2446E-15  0.1000E-09  0.0000E+00  0.8737E+15
   -1.275006    3.50212  0.9303E-13  0.7267E-12  0.1106E-14  0.1000E-09  0.0000E+00  0.7171E+15
   -1.312505    3.60749  0.9303E-13  0.3363E-11  0.5036E-14  0.1000E-09  0.0000E+00  0.5514E+15
   -1.350004    3.71526  0.9303E-13  0.1535E-10  0.2279E-13  0.1476E-09  0.0000E+00  0.3747E+15
   -1.387502    3.82569  0.9303E-13  0.6898E-10  0.1029E-12  0.1201E-08  0.0000E+00  0.1844E+15
   -1.425001    3.93831  0.9303E-13  0.3010E-09  0.4695E-12  0.2439E-07  0.0000E+00 -0.2918E+13
   -1.462499    4.03811  0.9303E-13  0.1010E-08  0.2290E-11  0.1486E-06  0.0000E+00 -0.7550E+14
   -1.499996    4.09737  0.9303E-13  0.0000E+00  0.0000E+00  0.0000E+00  0.0000E+00  0.0000E+00
