 1 - depth, m
 2 - temperature, C
 3 - salinity, kg/kg
 4 - turbulent kinetic energy, m**2/s**2
 5 - dissipation rate, m**2/s**3
 6 - kinematic heat conductance, m**2/s
 7 - modulus of horizontal velocity, m/s
 8 - Richardson number, n/d
   -0.000000    0.93928  0.8724E-13  0.4505E-03  0.1131E-01  0.8144E-04  0.2381E+00  0.4865E-03
   -0.037498    0.98902  0.8724E-13  0.2475E-03  0.9038E-02  0.1611E-03  0.7402E-01 -0.8489E-02
   -0.074996    0.99840  0.8724E-13  0.1660E-03  0.7924E-02  0.1715E-03  0.4870E-01  0.1590E-01
   -0.112494    1.00548  0.8724E-13  0.1315E-03  0.6891E-02  0.1608E-03  0.3970E-01  0.4280E-01
   -0.149993    1.01004  0.8724E-13  0.1078E-03  0.5888E-02  0.1555E-03  0.3393E-01  0.1372E-01
   -0.187492    1.01355  0.8724E-13  0.8948E-04  0.4921E-02  0.1536E-03  0.2946E-01  0.2194E-01
   -0.224991    1.01665  0.8724E-13  0.7497E-04  0.4006E-02  0.1541E-03  0.2584E-01  0.2658E-01
   -0.262491    1.01949  0.8724E-13  0.6330E-04  0.3160E-02  0.1539E-03  0.2295E-01  0.4551E-01
   -0.299990    1.02214  0.8724E-13  0.5353E-04  0.2403E-02  0.1539E-03  0.2047E-01  0.1956E-01
   -0.337490    1.02466  0.8724E-13  0.4520E-04  0.1751E-02  0.1541E-03  0.1833E-01  0.3702E-01
   -0.374991    1.02710  0.8724E-13  0.3808E-04  0.1215E-02  0.1541E-03  0.1649E-01  0.4692E-01
   -0.412491    1.02949  0.8724E-13  0.3202E-04  0.7973E-03  0.1543E-03  0.1493E-01  0.1234E+00
   -0.449992    1.03183  0.8724E-13  0.2692E-04  0.4921E-03  0.1549E-03  0.1361E-01  0.1446E+01
   -0.487492    1.03408  0.8724E-13  0.2278E-04  0.2839E-03  0.1557E-03  0.1253E-01  0.2165E+01
   -0.524993    1.03623  0.8724E-13  0.1953E-04  0.1531E-03  0.1528E-03  0.1166E-01  0.2916E+01
   -0.562494    1.03842  0.8724E-13  0.1697E-04  0.7762E-04  0.1500E-03  0.1078E-01  0.1366E+01
   -0.599995    1.04061  0.8724E-13  0.1493E-04  0.3739E-04  0.1471E-03  0.9947E-02  0.4250E+00
   -0.637496    1.04280  0.8724E-13  0.1329E-04  0.1737E-04  0.1438E-03  0.9162E-02  0.3586E+00
   -0.674998    1.04500  0.8724E-13  0.1194E-04  0.7904E-05  0.1400E-03  0.8430E-02  0.3547E+00
   -0.712499    1.04722  0.8724E-13  0.1079E-04  0.3574E-05  0.1355E-03  0.7747E-02  0.3702E+00
   -0.750000    1.04948  0.8724E-13  0.9790E-05  0.1622E-05  0.1302E-03  0.7107E-02  0.3960E+00
   -0.787501    1.05180  0.8724E-13  0.8896E-05  0.7434E-06  0.1242E-03  0.6506E-02  0.4279E+00
   -0.825003    1.05421  0.8725E-13  0.8086E-05  0.3477E-06  0.1173E-03  0.5939E-02  0.4617E+00
   -0.862504    1.05673  0.8725E-13  0.7345E-05  0.1693E-06  0.1097E-03  0.5400E-02  0.4911E+00
   -0.900005    1.05941  0.8725E-13  0.6657E-05  0.8888E-07  0.1011E-03  0.4883E-02  0.5088E+00
   -0.937506    1.06229  0.8725E-13  0.6008E-05  0.5222E-07  0.9130E-04  0.4381E-02  0.5055E+00
   -0.975007    1.06547  0.8725E-13  0.5371E-05  0.3472E-07  0.7937E-04  0.3882E-02  0.4712E+00
   -1.012508    1.06921  0.8725E-13  0.4722E-05  0.2545E-07  0.7083E-04  0.3358E-02  0.8489E+00
   -1.050009    1.07327  0.8725E-13  0.4091E-05  0.1981E-07  0.6132E-04  0.2899E-02  0.1905E+01
   -1.087509    1.07786  0.8725E-13  0.3490E-05  0.1581E-07  0.5071E-04  0.2498E-02  0.4499E+01
   -1.125010    1.08332  0.8725E-13  0.2926E-05  0.1268E-07  0.3939E-04  0.2144E-02  0.1478E+02
   -1.162510    1.09045  0.8725E-13  0.2398E-05  0.1008E-07  0.2799E-04  0.1827E-02  0.5984E+02
   -1.200010    1.10084  0.8725E-13  0.1903E-05  0.7866E-08  0.1688E-04  0.1541E-02  0.4555E+03
   -1.237510    1.12124  0.8725E-13  0.1394E-05  0.5774E-08  0.6349E-05  0.1271E-02  0.6885E+04
   -1.275009    1.22325  0.8725E-13  0.7647E-06  0.3233E-08  0.7475E-06  0.9109E-03  0.8366E+05
   -1.312508    1.80306  0.8727E-13  0.2171E-06  0.9355E-09  0.7213E-07  0.4111E-03  0.3461E+06
   -1.350007    2.97156  0.8731E-13  0.4850E-07  0.1768E-09  0.1266E-05  0.9868E-04  0.1290E+07
   -1.387506    3.84446  0.8734E-13  0.4125E-07  0.9888E-10  0.4980E-05  0.1803E-04  0.2732E+07
   -1.425005    4.16141  0.8735E-13  0.4985E-07  0.1313E-09  0.6132E-05  0.6067E-05 -0.7578E+08
   -1.462503    4.19657  0.8735E-13  0.4288E-07  0.2314E-09  0.2148E-05  0.3096E-05 -0.1166E+09
   -1.500000    4.28969  0.8735E-13  0.0000E+00  0.0000E+00  0.0000E+00  0.3125E-05  0.0000E+00
