 1 - depth, m
 2 - temperature, C
 3 - salinity, kg/kg
 4 - turbulent kinetic energy, m**2/s**2
 5 - dissipation rate, m**2/s**3
 6 - kinematic heat conductance, m**2/s
 7 - modulus of horizontal velocity, m/s
 8 - Richardson number, n/d
   -0.000000   -0.00000  0.3724E-15  0.4096E-13  0.8590E-16  0.1000E-09  0.0000E+00  0.1325E+17
   -0.037498    0.20440  0.4534E-14  0.4096E-13  0.8590E-16  0.1000E-09  0.0000E+00  0.1034E+17
   -0.074996    0.37260  0.3441E-13  0.4096E-13  0.8590E-16  0.1000E-09  0.0000E+00  0.8264E+16
   -0.112495    0.51335  0.7825E-13  0.4096E-13  0.8590E-16  0.1000E-09  0.0000E+00  0.6807E+16
   -0.149994    0.63400  0.1273E-12  0.4096E-13  0.8590E-16  0.1000E-09  0.0000E+00  0.5785E+16
   -0.187493    0.74025  0.1716E-12  0.4096E-13  0.8590E-16  0.1000E-09  0.0000E+00  0.5058E+16
   -0.224992    0.83620  0.2035E-12  0.4096E-13  0.8590E-16  0.1000E-09  0.0000E+00  0.4522E+16
   -0.262492    0.92460  0.2200E-12  0.4096E-13  0.8590E-16  0.1000E-09  0.0000E+00  0.4231E+16
   -0.299992    1.00977  0.2222E-12  0.4096E-13  0.8590E-16  0.1000E-09  0.0000E+00  0.4028E+16
   -0.337492    1.09326  0.2134E-12  0.4096E-13  0.8590E-16  0.1000E-09  0.0000E+00  0.3851E+16
   -0.374993    1.17549  0.1975E-12  0.4096E-13  0.8590E-16  0.1000E-09  0.0000E+00  0.3659E+16
   -0.412493    1.25600  0.1784E-12  0.4096E-13  0.8590E-16  0.1000E-09  0.0000E+00  0.3442E+16
   -0.449994    1.33408  0.1591E-12  0.4096E-13  0.8590E-16  0.1000E-09  0.0000E+00  0.3204E+16
   -0.487495    1.40897  0.1416E-12  0.4096E-13  0.8590E-16  0.1000E-09  0.0000E+00  0.3004E+16
   -0.524996    1.48132  0.1269E-12  0.4096E-13  0.8590E-16  0.1000E-09  0.0000E+00  0.3093E+16
   -0.562497    1.55816  0.1154E-12  0.4096E-13  0.8590E-16  0.1000E-09  0.0000E+00  0.3142E+16
   -0.599998    1.63891  0.1068E-12  0.4096E-13  0.8590E-16  0.1000E-09  0.0000E+00  0.3155E+16
   -0.637500    1.72302  0.1006E-12  0.4618E-13  0.8744E-16  0.1000E-09  0.0000E+00  0.3138E+16
   -0.675001    1.81004  0.9629E-13  0.8544E-13  0.1052E-15  0.1000E-09  0.0000E+00  0.3096E+16
   -0.712503    1.89959  0.9331E-13  0.2191E-12  0.1860E-15  0.1000E-09  0.0000E+00  0.3034E+16
   -0.750004    1.99139  0.9123E-13  0.6457E-12  0.4492E-15  0.1000E-09  0.0000E+00  0.2966E+16
   -0.787505    2.08559  0.8977E-13  0.1928E-11  0.1231E-14  0.1000E-09  0.0000E+00  0.2894E+16
   -0.825007    2.18239  0.8870E-13  0.5706E-11  0.3483E-14  0.1000E-09  0.0000E+00  0.2822E+16
   -0.862508    2.28228  0.8790E-13  0.1663E-10  0.9804E-14  0.1000E-09  0.0000E+00  0.2762E+16
   -0.900010    2.38632  0.8729E-13  0.4770E-10  0.2725E-13  0.1036E-09  0.0000E+00  0.2725E+16
   -0.937511    2.49638  0.8680E-13  0.1346E-09  0.7462E-13  0.1283E-09  0.0000E+00  0.2726E+16
   -0.975012    2.61582  0.8642E-13  0.3737E-09  0.2013E-12  0.2171E-09  0.0000E+00  0.2778E+16
   -1.012513    2.75052  0.8613E-13  0.1025E-08  0.5365E-12  0.4713E-09  0.0000E+00  0.2759E+16
   -1.050014    2.90404  0.8590E-13  0.2774E-08  0.1414E-11  0.1170E-08  0.0000E+00  0.2750E+16
   -1.087515    3.09382  0.8573E-13  0.7346E-08  0.3651E-11  0.4878E-08  0.0000E+00  0.2472E+16
   -1.125015    3.34401  0.8557E-13  0.1409E-07  0.7087E-11  0.3338E-05  0.0000E+00  0.1869E+16
   -1.162516    3.59562  0.8547E-13  0.2064E-07  0.1070E-10  0.1036E-04  0.0000E+00  0.1275E+16
   -1.200016    3.80016  0.8542E-13  0.2653E-07  0.1435E-10  0.1580E-04  0.0000E+00  0.7325E+15
   -1.237516    3.95488  0.8539E-13  0.3158E-07  0.1798E-10  0.1975E-04  0.0000E+00  0.2563E+15
   -1.275016    4.05027  0.8538E-13  0.3515E-07  0.2131E-10  0.2215E-04  0.0000E+00  0.9960E+13
   -1.312515    4.07261  0.8538E-13  0.3701E-07  0.2443E-10  0.2159E-04  0.0000E+00 -0.6697E+13
   -1.350014    4.07749  0.8538E-13  0.3744E-07  0.2814E-10  0.1798E-04  0.0000E+00 -0.8517E+13
   -1.387513    4.08332  0.8538E-13  0.3640E-07  0.3377E-10  0.1304E-04  0.0000E+00 -0.1266E+14
   -1.425012    4.09136  0.8538E-13  0.3297E-07  0.4502E-10  0.7167E-05  0.0000E+00 -0.2572E+14
   -1.462510    4.10602  0.8538E-13  0.2368E-07  0.8748E-10  0.1515E-05  0.0000E+00 -0.1546E+15
   -1.500008    4.17109  0.8538E-13  0.0000E+00  0.0000E+00  0.0000E+00  0.0000E+00  0.0000E+00
