 1 - depth, m
 2 - temperature, C
 3 - salinity, kg/kg
 4 - turbulent kinetic energy, m**2/s**2
 5 - dissipation rate, m**2/s**3
 6 - kinematic heat conductance, m**2/s
 7 - modulus of horizontal velocity, m/s
 8 - Richardson number, n/d
   -0.000000   -0.00000  0.1093E-11  0.4096E-13  0.8590E-16  0.1000E-09  0.0000E+00  0.7599E+16
   -0.037498    0.11578  0.4684E-12  0.4096E-13  0.8590E-16  0.1000E-09  0.0000E+00  0.7322E+16
   -0.074995    0.23096  0.2823E-12  0.4096E-13  0.8590E-16  0.1000E-09  0.0000E+00  0.7047E+16
   -0.112494    0.34548  0.2032E-12  0.4096E-13  0.8590E-16  0.1000E-09  0.0000E+00  0.6775E+16
   -0.149992    0.45929  0.1596E-12  0.4096E-13  0.8590E-16  0.1000E-09  0.0000E+00  0.6505E+16
   -0.187491    0.57237  0.1335E-12  0.4096E-13  0.8590E-16  0.1000E-09  0.0000E+00  0.6239E+16
   -0.224990    0.68468  0.1182E-12  0.4096E-13  0.8590E-16  0.1000E-09  0.0000E+00  0.5977E+16
   -0.262489    0.79618  0.1096E-12  0.4096E-13  0.8590E-16  0.1000E-09  0.0000E+00  0.5715E+16
   -0.299989    0.90679  0.1051E-12  0.4096E-13  0.8590E-16  0.1000E-09  0.0000E+00  0.5458E+16
   -0.337489    1.01647  0.1027E-12  0.4096E-13  0.8590E-16  0.1000E-09  0.0000E+00  0.5205E+16
   -0.374989    1.12519  0.1015E-12  0.4096E-13  0.8590E-16  0.1000E-09  0.0000E+00  0.4979E+16
   -0.412489    1.23339  0.1006E-12  0.4096E-13  0.8590E-16  0.1000E-09  0.0000E+00  0.4767E+16
   -0.449989    1.34132  0.9986E-13  0.4096E-13  0.8590E-16  0.1000E-09  0.0000E+00  0.4558E+16
   -0.487490    1.44901  0.9911E-13  0.4096E-13  0.8590E-16  0.1000E-09  0.0000E+00  0.4347E+16
   -0.524991    1.55635  0.9831E-13  0.4096E-13  0.8590E-16  0.1000E-09  0.0000E+00  0.4118E+16
   -0.562491    1.66281  0.9749E-13  0.4096E-13  0.8590E-16  0.1000E-09  0.0000E+00  0.3895E+16
   -0.599992    1.76837  0.9669E-13  0.4096E-13  0.8590E-16  0.1000E-09  0.0000E+00  0.3676E+16
   -0.637493    1.87303  0.9594E-13  0.4096E-13  0.8590E-16  0.1000E-09  0.0000E+00  0.3462E+16
   -0.674994    1.97674  0.9528E-13  0.4096E-13  0.8590E-16  0.1000E-09  0.0000E+00  0.3253E+16
   -0.712495    2.07950  0.9472E-13  0.4096E-13  0.8590E-16  0.1000E-09  0.0000E+00  0.3048E+16
   -0.749996    2.18127  0.9426E-13  0.4096E-13  0.8590E-16  0.1000E-09  0.0000E+00  0.2858E+16
   -0.787497    2.28236  0.9391E-13  0.4096E-13  0.8590E-16  0.1000E-09  0.0000E+00  0.2674E+16
   -0.824999    2.38288  0.9364E-13  0.4096E-13  0.8590E-16  0.1000E-09  0.0000E+00  0.2493E+16
   -0.862500    2.48280  0.9344E-13  0.4096E-13  0.8590E-16  0.1000E-09  0.0000E+00  0.2315E+16
   -0.900000    2.58210  0.9330E-13  0.4096E-13  0.8590E-16  0.1000E-09  0.0000E+00  0.2140E+16
   -0.937501    2.68076  0.9320E-13  0.4096E-13  0.8590E-16  0.1000E-09  0.0000E+00  0.1968E+16
   -0.975002    2.77877  0.9314E-13  0.4096E-13  0.8590E-16  0.1000E-09  0.0000E+00  0.1800E+16
   -1.012503    2.87610  0.9309E-13  0.4096E-13  0.8590E-16  0.1000E-09  0.0000E+00  0.1650E+16
   -1.050003    2.97365  0.9307E-13  0.4096E-13  0.8590E-16  0.1000E-09  0.0000E+00  0.1502E+16
   -1.087504    3.07166  0.9305E-13  0.4096E-13  0.8590E-16  0.1000E-09  0.0000E+00  0.1354E+16
   -1.125004    3.17018  0.9304E-13  0.4096E-13  0.8590E-16  0.1000E-09  0.0000E+00  0.1215E+16
   -1.162504    3.27018  0.9304E-13  0.9580E-13  0.1299E-15  0.1000E-09  0.0000E+00  0.1071E+16
   -1.200004    3.37191  0.9303E-13  0.3962E-12  0.4927E-15  0.1000E-09  0.0000E+00  0.9214E+15
   -1.237503    3.47554  0.9303E-13  0.1629E-11  0.1965E-14  0.1000E-09  0.0000E+00  0.7637E+15
   -1.275003    3.58123  0.9303E-13  0.6580E-11  0.7744E-14  0.1000E-09  0.0000E+00  0.5971E+15
   -1.312502    3.68920  0.9303E-13  0.2614E-10  0.3012E-13  0.1847E-09  0.0000E+00  0.4200E+15
   -1.350001    3.79960  0.9303E-13  0.1021E-09  0.1160E-12  0.1230E-08  0.0000E+00  0.2302E+15
   -1.387499    3.91194  0.9303E-13  0.3886E-09  0.4426E-12  0.1824E-07  0.0000E+00  0.3689E+14
   -1.424997    4.01506  0.9303E-13  0.1299E-08  0.1673E-11  0.3516E-06  0.0000E+00 -0.2488E+14
   -1.462495    4.04961  0.9303E-13  0.1566E-08  0.3610E-11  0.2014E-06  0.0000E+00 -0.7253E+14
   -1.499993    4.10154  0.9303E-13  0.0000E+00  0.0000E+00  0.0000E+00  0.0000E+00  0.0000E+00
