 1 - depth, m
 2 - temperature, C
 3 - salinity, kg/kg
 4 - turbulent kinetic energy, m**2/s**2
 5 - dissipation rate, m**2/s**3
 6 - kinematic heat conductance, m**2/s
 7 - modulus of horizontal velocity, m/s
 8 - Richardson number, n/d
   -0.000000    9.00296  0.8850E-13  0.1012E-03  0.1089E-02  0.4441E-04  0.7903E-01 -0.2913E-01
   -0.037498    9.05456  0.8850E-13  0.6088E-04  0.4736E-03  0.6713E-04  0.3037E-01 -0.1119E-01
   -0.074996    9.06552  0.8850E-13  0.4524E-04  0.2045E-03  0.7342E-04  0.2244E-01 -0.1898E-01
   -0.112494    9.07369  0.8850E-13  0.3512E-04  0.7885E-04  0.8144E-04  0.1827E-01 -0.2703E-01
   -0.149993    9.08047  0.8850E-13  0.2773E-04  0.2887E-04  0.8976E-04  0.1524E-01 -0.6142E-01
   -0.187492    9.08638  0.8850E-13  0.2218E-04  0.1003E-04  0.9816E-04  0.1288E-01 -0.5321E-01
   -0.224991    9.09167  0.8850E-13  0.1799E-04  0.3265E-05  0.1072E-03  0.1098E-01 -0.7306E-01
   -0.262490    9.09641  0.8850E-13  0.1488E-04  0.1027E-05  0.1165E-03  0.9457E-02 -0.4356E-01
   -0.299990    9.10068  0.8850E-13  0.1262E-04  0.3633E-06  0.1280E-03  0.8187E-02  0.5137E+01
   -0.337490    9.10452  0.8850E-13  0.1098E-04  0.1703E-06  0.1541E-03  0.7128E-02  0.1359E+03
   -0.374990    9.10779  0.8850E-13  0.9761E-05  0.1038E-06  0.2174E-03  0.6253E-02  0.8054E+01
   -0.412491    9.11043  0.8850E-13  0.8829E-05  0.7459E-07  0.2416E-03  0.5545E-02  0.3156E+03
   -0.449991    9.11271  0.8850E-13  0.8097E-05  0.5714E-07  0.2987E-03  0.4954E-02  0.3853E+02
   -0.487492    9.11455  0.8850E-13  0.7531E-05  0.4561E-07  0.3440E-03  0.4482E-02  0.6010E+02
   -0.524993    9.11607  0.8850E-13  0.7096E-05  0.3765E-07  0.3846E-03  0.4097E-02  0.1058E+03
   -0.562494    9.11737  0.8850E-13  0.6751E-05  0.3183E-07  0.4128E-03  0.3750E-02  0.6427E+01
   -0.599995    9.11851  0.8850E-13  0.6469E-05  0.2740E-07  0.4317E-03  0.3432E-02  0.5399E+02
   -0.637496    9.11956  0.8850E-13  0.6230E-05  0.2391E-07  0.4465E-03  0.3138E-02  0.5319E+01
   -0.674997    9.12054  0.8850E-13  0.6022E-05  0.2111E-07  0.4584E-03  0.2865E-02  0.3802E+02
   -0.712498    9.12148  0.8850E-13  0.5834E-05  0.1882E-07  0.4671E-03  0.2612E-02  0.3987E+01
   -0.749999    9.12239  0.8850E-13  0.5659E-05  0.1692E-07  0.4748E-03  0.2374E-02  0.3368E+01
   -0.787500    9.12328  0.8850E-13  0.5491E-05  0.1533E-07  0.4812E-03  0.2152E-02  0.3323E+01
   -0.825002    9.12415  0.8850E-13  0.5326E-05  0.1399E-07  0.4866E-03  0.1944E-02  0.3307E+01
   -0.862503    9.12500  0.8850E-13  0.5160E-05  0.1286E-07  0.4907E-03  0.1748E-02  0.3286E+01
   -0.900004    9.12584  0.8850E-13  0.4990E-05  0.1190E-07  0.4927E-03  0.1564E-02  0.3268E+01
   -0.937505    9.12667  0.8850E-13  0.4812E-05  0.1109E-07  0.4924E-03  0.1391E-02  0.3262E+01
   -0.975006    9.12750  0.8850E-13  0.4625E-05  0.1041E-07  0.4897E-03  0.1227E-02  0.3292E+01
   -1.012507    9.12833  0.8850E-13  0.4429E-05  0.9848E-08  0.4982E-03  0.1071E-02  0.2770E+01
   -1.050007    9.12914  0.8850E-13  0.4229E-05  0.9406E-08  0.5086E-03  0.9348E-03  0.2316E+01
   -1.087508    9.12993  0.8850E-13  0.4030E-05  0.9083E-08  0.5060E-03  0.8188E-03  0.1964E+01
   -1.125008    9.13073  0.8850E-13  0.3838E-05  0.8875E-08  0.4833E-03  0.7217E-03  0.1666E+01
   -1.162508    9.13155  0.8850E-13  0.3656E-05  0.8777E-08  0.4506E-03  0.6420E-03  0.1414E+01
   -1.200008    9.13243  0.8850E-13  0.3490E-05  0.8784E-08  0.4165E-03  0.5782E-03  0.1247E+01
   -1.237508    9.13338  0.8850E-13  0.3335E-05  0.8898E-08  0.3809E-03  0.5284E-03  0.1374E+01
   -1.275008    9.13441  0.8850E-13  0.3181E-05  0.9141E-08  0.3427E-03  0.4888E-03  0.2035E+01
   -1.312507    9.13556  0.8850E-13  0.3015E-05  0.9569E-08  0.2990E-03  0.4558E-03  0.3838E+01
   -1.350006    9.13686  0.8850E-13  0.2825E-05  0.1029E-07  0.2491E-03  0.4266E-03  0.9154E+01
   -1.387504    9.13843  0.8850E-13  0.2596E-05  0.1158E-07  0.1893E-03  0.4003E-03  0.3187E+02
   -1.425003    9.14049  0.8850E-13  0.2304E-05  0.1417E-07  0.1390E-03  0.3770E-03  0.1725E+03
   -1.462501    9.14329  0.8850E-13  0.1367E-05  0.3038E-07  0.1063E-04  0.3601E-03 -0.2201E+05
   -1.499998    9.17916  0.8850E-13  0.0000E+00  0.0000E+00  0.0000E+00  0.3574E-03  0.0000E+00
