 1 - depth, m
 2 - temperature, C
 3 - salinity, kg/kg
 4 - turbulent kinetic energy, m**2/s**2
 5 - dissipation rate, m**2/s**3
 6 - kinematic heat conductance, m**2/s
 7 - modulus of horizontal velocity, m/s
 8 - Richardson number, n/d
   -0.000000   -0.00000  0.4316E-12  0.4096E-13  0.8589E-16  0.1000E-09  0.0000E+00  0.7837E+16
   -0.037498    0.11947  0.4690E-12  0.4096E-13  0.8589E-16  0.1000E-09  0.0000E+00  0.7632E+16
   -0.074996    0.23973  0.3916E-12  0.4096E-13  0.8589E-16  0.1000E-09  0.0000E+00  0.7407E+16
   -0.112495    0.36051  0.2986E-12  0.4096E-13  0.8589E-16  0.1000E-09  0.0000E+00  0.7167E+16
   -0.149994    0.48159  0.2236E-12  0.4096E-13  0.8589E-16  0.1000E-09  0.0000E+00  0.6916E+16
   -0.187493    0.60278  0.1721E-12  0.4096E-13  0.8589E-16  0.1000E-09  0.0000E+00  0.6657E+16
   -0.224992    0.72394  0.1398E-12  0.4096E-13  0.8589E-16  0.1000E-09  0.0000E+00  0.6393E+16
   -0.262492    0.84494  0.1206E-12  0.4096E-13  0.8589E-16  0.1000E-09  0.0000E+00  0.6125E+16
   -0.299992    0.96566  0.1095E-12  0.4096E-13  0.8589E-16  0.1000E-09  0.0000E+00  0.5855E+16
   -0.337492    1.08600  0.1032E-12  0.4096E-13  0.8589E-16  0.1000E-09  0.0000E+00  0.5584E+16
   -0.374993    1.20587  0.9953E-13  0.4096E-13  0.8589E-16  0.1000E-09  0.0000E+00  0.5319E+16
   -0.412493    1.32530  0.9731E-13  0.4096E-13  0.8589E-16  0.1000E-09  0.0000E+00  0.5057E+16
   -0.449994    1.44428  0.9584E-13  0.4096E-13  0.8589E-16  0.1000E-09  0.0000E+00  0.4795E+16
   -0.487495    1.56274  0.9474E-13  0.4096E-13  0.8589E-16  0.1000E-09  0.0000E+00  0.4534E+16
   -0.524996    1.68057  0.9383E-13  0.4096E-13  0.8589E-16  0.1000E-09  0.0000E+00  0.4273E+16
   -0.562497    1.79764  0.9301E-13  0.4096E-13  0.8589E-16  0.1000E-09  0.0000E+00  0.4015E+16
   -0.599998    1.91389  0.9227E-13  0.4096E-13  0.8589E-16  0.1000E-09  0.0000E+00  0.3760E+16
   -0.637500    2.02922  0.9159E-13  0.4096E-13  0.8589E-16  0.1000E-09  0.0000E+00  0.3509E+16
   -0.675001    2.14358  0.9098E-13  0.4096E-13  0.8589E-16  0.1000E-09  0.0000E+00  0.3263E+16
   -0.712503    2.25690  0.9045E-13  0.4096E-13  0.8589E-16  0.1000E-09  0.0000E+00  0.3021E+16
   -0.750004    2.36912  0.9001E-13  0.4096E-13  0.8589E-16  0.1000E-09  0.0000E+00  0.2790E+16
   -0.787506    2.48035  0.8966E-13  0.4096E-13  0.8589E-16  0.1000E-09  0.0000E+00  0.2565E+16
   -0.825007    2.59062  0.8940E-13  0.4096E-13  0.8589E-16  0.1000E-09  0.0000E+00  0.2344E+16
   -0.862508    2.69985  0.8920E-13  0.4096E-13  0.8589E-16  0.1000E-09  0.0000E+00  0.2129E+16
   -0.900010    2.80801  0.8907E-13  0.4096E-13  0.8589E-16  0.1000E-09  0.0000E+00  0.1920E+16
   -0.937511    2.91503  0.8899E-13  0.4096E-13  0.8589E-16  0.1000E-09  0.0000E+00  0.1716E+16
   -0.975012    3.02086  0.8893E-13  0.9900E-13  0.8746E-16  0.1000E-09  0.0000E+00  0.1518E+16
   -1.012513    3.12544  0.8890E-13  0.3235E-12  0.2046E-15  0.1000E-09  0.0000E+00  0.1328E+16
   -1.050014    3.22885  0.8889E-13  0.9418E-12  0.5553E-15  0.1000E-09  0.0000E+00  0.1143E+16
   -1.087515    3.33103  0.8888E-13  0.2631E-11  0.1499E-14  0.1000E-09  0.0000E+00  0.9651E+15
   -1.125015    3.43192  0.8888E-13  0.7213E-11  0.3990E-14  0.1000E-09  0.0000E+00  0.8027E+15
   -1.162516    3.53279  0.8887E-13  0.1951E-10  0.1050E-13  0.1000E-09  0.0000E+00  0.6421E+15
   -1.200016    3.63386  0.8887E-13  0.5212E-10  0.2728E-13  0.1554E-09  0.0000E+00  0.4813E+15
   -1.237516    3.73518  0.8887E-13  0.1375E-09  0.7015E-13  0.5988E-09  0.0000E+00  0.3194E+15
   -1.275016    3.83658  0.8887E-13  0.3581E-09  0.1783E-12  0.3056E-08  0.0000E+00  0.1567E+15
   -1.312515    3.93679  0.8887E-13  0.9020E-09  0.4413E-12  0.6134E-07  0.0000E+00  0.1546E+14
   -1.350014    4.00900  0.8887E-13  0.1907E-08  0.9752E-12  0.1419E-05  0.0000E+00 -0.4098E+13
   -1.387513    4.01853  0.8887E-13  0.2359E-08  0.1461E-11  0.1374E-05  0.0000E+00 -0.5859E+13
   -1.425012    4.02858  0.8887E-13  0.2382E-08  0.2177E-11  0.8620E-06  0.0000E+00 -0.1220E+14
   -1.462510    4.04415  0.8887E-13  0.1848E-08  0.3918E-11  0.2242E-06  0.0000E+00 -0.5508E+14
   -1.500008    4.08822  0.8887E-13  0.0000E+00  0.0000E+00  0.0000E+00  0.0000E+00  0.0000E+00
