 1 - depth, m
 2 - temperature, C
 3 - salinity, kg/kg
 4 - turbulent kinetic energy, m**2/s**2
 5 - dissipation rate, m**2/s**3
 6 - kinematic heat conductance, m**2/s
 7 - modulus of horizontal velocity, m/s
 8 - Richardson number, n/d
   -0.000000    7.39518  0.9921E-13  0.1747E-03  0.2414E-03  0.5677E-04  0.1221E+00  0.7072E-02
   -0.037498    7.45881  0.9920E-13  0.9750E-04  0.6675E-04  0.9820E-04  0.4081E-01 -0.3891E-01
   -0.074996    7.47044  0.9920E-13  0.6951E-04  0.2302E-04  0.1010E-03  0.2951E-01 -0.1467E+00
   -0.112494    7.47928  0.9920E-13  0.5312E-04  0.9430E-05  0.1033E-03  0.2444E-01 -0.3685E-01
   -0.149993    7.48628  0.9920E-13  0.4183E-04  0.4285E-05  0.1076E-03  0.2079E-01 -0.2547E-01
   -0.187492    7.49224  0.9920E-13  0.3363E-04  0.2129E-05  0.1129E-03  0.1788E-01 -0.3895E-01
   -0.224991    7.49765  0.9920E-13  0.2765E-04  0.1165E-05  0.1190E-03  0.1549E-01 -0.3657E-01
   -0.262490    7.50261  0.9920E-13  0.2328E-04  0.7101E-06  0.1244E-03  0.1351E-01 -0.4561E-01
   -0.299990    7.50721  0.9920E-13  0.1994E-04  0.4667E-06  0.1302E-03  0.1182E-01  0.7875E+01
   -0.337490    7.51147  0.9920E-13  0.1727E-04  0.3230E-06  0.1365E-03  0.1037E-01 -0.2963E-01
   -0.374990    7.51540  0.9920E-13  0.1511E-04  0.2319E-06  0.1443E-03  0.9154E-02  0.3003E+00
   -0.412491    7.51901  0.9920E-13  0.1334E-04  0.1713E-06  0.1544E-03  0.8132E-02  0.2528E+02
   -0.449991    7.52229  0.9920E-13  0.1189E-04  0.1296E-06  0.1751E-03  0.7280E-02  0.9484E+01
   -0.487492    7.52519  0.9920E-13  0.1072E-04  0.1004E-06  0.2204E-03  0.6580E-02  0.9171E+02
   -0.524993    7.52764  0.9920E-13  0.9797E-05  0.7973E-07  0.2471E-03  0.6007E-02  0.1049E+02
   -0.562494    7.52983  0.9920E-13  0.9039E-05  0.6461E-07  0.2739E-03  0.5488E-02  0.5999E+02
   -0.599995    7.53178  0.9920E-13  0.8408E-05  0.5331E-07  0.3031E-03  0.5020E-02  0.1572E+02
   -0.637496    7.53352  0.9920E-13  0.7874E-05  0.4467E-07  0.3375E-03  0.4598E-02  0.2417E+02
   -0.674997    7.53506  0.9920E-13  0.7416E-05  0.3797E-07  0.3777E-03  0.4213E-02  0.4934E+02
   -0.712498    7.53640  0.9920E-13  0.7017E-05  0.3267E-07  0.4113E-03  0.3861E-02  0.2196E+02
   -0.749999    7.53757  0.9920E-13  0.6663E-05  0.2842E-07  0.4346E-03  0.3536E-02  0.3155E+02
   -0.787500    7.53864  0.9920E-13  0.6342E-05  0.2495E-07  0.4501E-03  0.3231E-02  0.4420E+03
   -0.825002    7.53962  0.9920E-13  0.6044E-05  0.2206E-07  0.4597E-03  0.2946E-02  0.9440E+01
   -0.862503    7.54054  0.9920E-13  0.5763E-05  0.1965E-07  0.4656E-03  0.2676E-02  0.8055E+02
   -0.900004    7.54143  0.9920E-13  0.5493E-05  0.1760E-07  0.4683E-03  0.2421E-02  0.4935E+02
   -0.937505    7.54228  0.9920E-13  0.5228E-05  0.1584E-07  0.4666E-03  0.2178E-02  0.6140E+01
   -0.975006    7.54312  0.9920E-13  0.4961E-05  0.1431E-07  0.4592E-03  0.1946E-02  0.6015E+01
   -1.012507    7.54395  0.9920E-13  0.4689E-05  0.1296E-07  0.4587E-03  0.1721E-02  0.4383E+01
   -1.050007    7.54478  0.9920E-13  0.4414E-05  0.1178E-07  0.4571E-03  0.1518E-02  0.3318E+01
   -1.087508    7.54560  0.9920E-13  0.4139E-05  0.1076E-07  0.4502E-03  0.1338E-02  0.2641E+01
   -1.125008    7.54642  0.9920E-13  0.3867E-05  0.9914E-08  0.4356E-03  0.1180E-02  0.2145E+01
   -1.162508    7.54726  0.9920E-13  0.3603E-05  0.9233E-08  0.4153E-03  0.1042E-02  0.1754E+01
   -1.200008    7.54812  0.9920E-13  0.3351E-05  0.8722E-08  0.3925E-03  0.9243E-03  0.1454E+01
   -1.237508    7.54903  0.9920E-13  0.3116E-05  0.8390E-08  0.3622E-03  0.8260E-03  0.1318E+01
   -1.275008    7.55000  0.9920E-13  0.2902E-05  0.8248E-08  0.3214E-03  0.7460E-03  0.1503E+01
   -1.312507    7.55108  0.9920E-13  0.2707E-05  0.8313E-08  0.2807E-03  0.6828E-03  0.2363E+01
   -1.350006    7.55230  0.9920E-13  0.2519E-05  0.8624E-08  0.2397E-03  0.6347E-03  0.5334E+01
   -1.387504    7.55370  0.9920E-13  0.2315E-05  0.9328E-08  0.1978E-03  0.5955E-03  0.1846E+02
   -1.425003    7.55541  0.9920E-13  0.2041E-05  0.1109E-07  0.1278E-03  0.5635E-03  0.5226E+05
   -1.462501    7.55797  0.9920E-13  0.1162E-05  0.2345E-07  0.9241E-05  0.5327E-03 -0.1987E+05
   -1.499998    7.59214  0.9920E-13  0.0000E+00  0.0000E+00  0.0000E+00  0.5255E-03  0.0000E+00
