 1 - depth, m
 2 - temperature, C
 3 - salinity, kg/kg
 4 - turbulent kinetic energy, m**2/s**2
 5 - dissipation rate, m**2/s**3
 6 - kinematic heat conductance, m**2/s
 7 - modulus of horizontal velocity, m/s
 8 - Richardson number, n/d
   -0.000000   -0.00000  0.1568E-11  0.4096E-13  0.8589E-16  0.1000E-09  0.0000E+00  0.1368E+17
   -0.037498    0.21120  0.2336E-12  0.4096E-13  0.8589E-16  0.1000E-09  0.0000E+00  0.1258E+17
   -0.074996    0.41716  0.1294E-12  0.4096E-13  0.8589E-16  0.1000E-09  0.0000E+00  0.1138E+17
   -0.112494    0.61510  0.9476E-13  0.4096E-13  0.8589E-16  0.1000E-09  0.0000E+00  0.1016E+17
   -0.149993    0.80273  0.9887E-13  0.4096E-13  0.8589E-16  0.1000E-09  0.0000E+00  0.8957E+16
   -0.187492    0.97838  0.9765E-13  0.4096E-13  0.8589E-16  0.1000E-09  0.0000E+00  0.7821E+16
   -0.224992    1.14107  0.9777E-13  0.4611E-13  0.8589E-16  0.1000E-09  0.0000E+00  0.6786E+16
   -0.262491    1.29055  0.9773E-13  0.2076E-12  0.8589E-16  0.1000E-09  0.0000E+00  0.5905E+16
   -0.299991    1.42806  0.9771E-13  0.5363E-12  0.1372E-15  0.1000E-09  0.0000E+00  0.5163E+16
   -0.337491    1.55492  0.9771E-13  0.1134E-11  0.2523E-15  0.1000E-09  0.0000E+00  0.4554E+16
   -0.374991    1.67285  0.9770E-13  0.2227E-11  0.4700E-15  0.1000E-09  0.0000E+00  0.4219E+16
   -0.412492    1.78797  0.9768E-13  0.4243E-11  0.8698E-15  0.1000E-09  0.0000E+00  0.4068E+16
   -0.449993    1.90527  0.9763E-13  0.7969E-11  0.1597E-14  0.1000E-09  0.0000E+00  0.3988E+16
   -0.487493    2.02731  0.9747E-13  0.1484E-10  0.2914E-14  0.1000E-09  0.0000E+00  0.3948E+16
   -0.524994    2.15639  0.9707E-13  0.2735E-10  0.5267E-14  0.1000E-09  0.0000E+00  0.3906E+16
   -0.562495    2.29405  0.9627E-13  0.5003E-10  0.9449E-14  0.1000E-09  0.0000E+00  0.3833E+16
   -0.599997    2.44137  0.9505E-13  0.9094E-10  0.1685E-13  0.1000E-09  0.0000E+00  0.3697E+16
   -0.637498    2.59857  0.9359E-13  0.1644E-09  0.2988E-13  0.1000E-09  0.0000E+00  0.3473E+16
   -0.674999    2.76498  0.9222E-13  0.2954E-09  0.5269E-13  0.1000E-09  0.0000E+00  0.3149E+16
   -0.712500    2.93898  0.9121E-13  0.5281E-09  0.9244E-13  0.1000E-09  0.0000E+00  0.2731E+16
   -0.750002    3.11823  0.9055E-13  0.9391E-09  0.1613E-12  0.1988E-09  0.0000E+00  0.2253E+16
   -0.787503    3.30120  0.9000E-13  0.1661E-08  0.2800E-12  0.4499E-09  0.0000E+00  0.1728E+16
   -0.825004    3.48553  0.8930E-13  0.2921E-08  0.4835E-12  0.1136E-08  0.0000E+00  0.1183E+16
   -0.862506    3.66890  0.8882E-13  0.5103E-08  0.8295E-12  0.3596E-08  0.0000E+00  0.6440E+15
   -0.900007    3.84885  0.8874E-13  0.8765E-08  0.1401E-11  0.2724E-07  0.0000E+00  0.1463E+15
   -0.937508    4.00455  0.8873E-13  0.9849E-08  0.1582E-11  0.2086E-04  0.0000E+00 -0.3735E+12
   -0.975009    4.00582  0.8873E-13  0.1036E-07  0.1687E-11  0.2271E-04  0.0000E+00 -0.3717E+12
   -1.012510    4.00701  0.8873E-13  0.1081E-07  0.1799E-11  0.2438E-04  0.0000E+00 -0.3780E+12
   -1.050011    4.00815  0.8873E-13  0.1119E-07  0.1919E-11  0.2512E-04  0.0000E+00 -0.4001E+12
   -1.087511    4.00929  0.8873E-13  0.1151E-07  0.2049E-11  0.2505E-04  0.0000E+00 -0.4369E+12
   -1.125012    4.01048  0.8873E-13  0.1178E-07  0.2194E-11  0.2452E-04  0.0000E+00 -0.4789E+12
   -1.162512    4.01172  0.8873E-13  0.1198E-07  0.2364E-11  0.2325E-04  0.0000E+00 -0.5413E+12
   -1.200012    4.01305  0.8873E-13  0.1212E-07  0.2569E-11  0.2103E-04  0.0000E+00 -0.6424E+12
   -1.237512    4.01454  0.8873E-13  0.1217E-07  0.2822E-11  0.1849E-04  0.0000E+00 -0.7887E+12
   -1.275012    4.01627  0.8873E-13  0.1210E-07  0.3144E-11  0.1593E-04  0.0000E+00 -0.9963E+12
   -1.312511    4.01833  0.8873E-13  0.1188E-07  0.3574E-11  0.1315E-04  0.0000E+00 -0.1325E+13
   -1.350010    4.02087  0.8873E-13  0.1143E-07  0.4197E-11  0.1001E-04  0.0000E+00 -0.1939E+13
   -1.387509    4.02428  0.8873E-13  0.1059E-07  0.5233E-11  0.6528E-05  0.0000E+00 -0.3396E+13
   -1.425007    4.02962  0.8873E-13  0.9013E-08  0.7462E-11  0.3016E-05  0.0000E+00 -0.8923E+13
   -1.462506    4.04123  0.8873E-13  0.5951E-08  0.1534E-10  0.5309E-06  0.0000E+00 -0.7319E+14
   -1.500003    4.09754  0.8873E-13  0.0000E+00  0.0000E+00  0.0000E+00  0.0000E+00  0.0000E+00
