 1 - depth, m
 2 - temperature, C
 3 - salinity, kg/kg
 4 - turbulent kinetic energy, m**2/s**2
 5 - dissipation rate, m**2/s**3
 6 - kinematic heat conductance, m**2/s
 7 - modulus of horizontal velocity, m/s
 8 - Richardson number, n/d
   -0.000000   12.30469  0.1061E-12  0.1770E-03  0.1412E-03  0.4298E-04  0.1129E+00  0.1027E+00
   -0.037498   12.34618  0.1060E-12  0.9373E-04  0.3638E-04  0.9903E-04  0.3545E-01 -0.5234E-01
   -0.074996   12.35455  0.1060E-12  0.6728E-04  0.1688E-04  0.1136E-03  0.2483E-01 -0.8569E-01
   -0.112494   12.36018  0.1060E-12  0.5274E-04  0.9540E-05  0.1208E-03  0.2063E-01  0.1395E+02
   -0.149993   12.36419  0.1060E-12  0.4225E-04  0.5262E-05  0.1316E-03  0.1759E-01  0.6486E+01
   -0.187492   12.36741  0.1060E-12  0.3451E-04  0.3119E-05  0.1424E-03  0.1522E-01  0.1670E+01
   -0.224991   12.37014  0.1060E-12  0.2856E-04  0.1846E-05  0.1559E-03  0.1327E-01  0.1013E+02
   -0.262490   12.37251  0.1060E-12  0.2416E-04  0.1175E-05  0.1711E-03  0.1168E-01  0.3664E+02
   -0.299990   12.37464  0.1060E-12  0.2078E-04  0.7857E-06  0.1895E-03  0.1030E-01  0.2242E+01
   -0.337490   12.37653  0.1060E-12  0.1811E-04  0.5399E-06  0.2123E-03  0.9133E-02  0.5656E+02
   -0.374990   12.37820  0.1060E-12  0.1597E-04  0.3798E-06  0.2399E-03  0.8158E-02  0.9753E+02
   -0.412491   12.37969  0.1060E-12  0.1425E-04  0.2731E-06  0.2705E-03  0.7338E-02  0.3879E+01
   -0.449991   12.38103  0.1060E-12  0.1287E-04  0.2009E-06  0.3027E-03  0.6652E-02  0.9006E+01
   -0.487492   12.38222  0.1060E-12  0.1178E-04  0.1516E-06  0.3384E-03  0.6084E-02  0.2520E+02
   -0.524993   12.38327  0.1060E-12  0.1093E-04  0.1178E-06  0.3741E-03  0.5611E-02  0.1372E+02
   -0.562494   12.38423  0.1060E-12  0.1026E-04  0.9404E-07  0.4105E-03  0.5182E-02  0.2466E+02
   -0.599995   12.38509  0.1060E-12  0.9710E-05  0.7696E-07  0.4473E-03  0.4792E-02  0.2596E+02
   -0.637496   12.38586  0.1060E-12  0.9263E-05  0.6437E-07  0.4832E-03  0.4436E-02  0.7866E+01
   -0.674997   12.38657  0.1060E-12  0.8892E-05  0.5488E-07  0.5168E-03  0.4108E-02  0.2844E+03
   -0.712498   12.38721  0.1060E-12  0.8577E-05  0.4755E-07  0.5436E-03  0.3803E-02  0.9984E+01
   -0.749999   12.38781  0.1060E-12  0.8302E-05  0.4175E-07  0.5591E-03  0.3516E-02  0.1116E+02
   -0.787501   12.38840  0.1060E-12  0.8055E-05  0.3709E-07  0.5715E-03  0.3243E-02  0.2902E+02
   -0.825002   12.38897  0.1060E-12  0.7825E-05  0.3328E-07  0.5795E-03  0.2983E-02  0.9412E+01
   -0.862503   12.38955  0.1060E-12  0.7604E-05  0.3014E-07  0.5834E-03  0.2736E-02  0.1521E+02
   -0.900004   12.39014  0.1060E-12  0.7385E-05  0.2752E-07  0.5839E-03  0.2498E-02  0.1129E+02
   -0.937505   12.39074  0.1060E-12  0.7160E-05  0.2530E-07  0.5802E-03  0.2270E-02  0.7434E+01
   -0.975006   12.39135  0.1060E-12  0.6921E-05  0.2341E-07  0.5720E-03  0.2050E-02  0.8261E+01
   -1.012507   12.39200  0.1060E-12  0.6664E-05  0.2177E-07  0.5652E-03  0.1835E-02  0.7735E+01
   -1.050007   12.39266  0.1060E-12  0.6388E-05  0.2036E-07  0.5540E-03  0.1640E-02  0.4650E+01
   -1.087508   12.39335  0.1060E-12  0.6099E-05  0.1919E-07  0.5389E-03  0.1465E-02  0.3396E+01
   -1.125008   12.39408  0.1060E-12  0.5799E-05  0.1825E-07  0.5192E-03  0.1310E-02  0.3490E+01
   -1.162509   12.39485  0.1060E-12  0.5493E-05  0.1756E-07  0.4962E-03  0.1173E-02  0.3183E+01
   -1.200009   12.39567  0.1060E-12  0.5187E-05  0.1713E-07  0.4633E-03  0.1054E-02  0.3457E+01
   -1.237508   12.39658  0.1060E-12  0.4885E-05  0.1701E-07  0.4216E-03  0.9526E-03  0.4646E+01
   -1.275008   12.39761  0.1060E-12  0.4593E-05  0.1724E-07  0.3754E-03  0.8685E-03  0.7567E+01
   -1.312507   12.39880  0.1060E-12  0.4307E-05  0.1793E-07  0.3243E-03  0.8009E-03  0.1493E+02
   -1.350006   12.40022  0.1060E-12  0.4002E-05  0.1944E-07  0.2660E-03  0.7470E-03  0.4535E+02
   -1.387505   12.40206  0.1060E-12  0.3641E-05  0.2228E-07  0.2034E-03  0.6999E-03  0.1697E+03
   -1.425003   12.40453  0.1060E-12  0.3172E-05  0.2890E-07  0.1445E-03  0.6604E-03  0.7368E+03
   -1.462501   12.40859  0.1060E-12  0.1888E-05  0.6234E-07  0.1568E-04  0.6237E-03 -0.6367E+05
   -1.499999   12.44531  0.1060E-12  0.0000E+00  0.0000E+00  0.0000E+00  0.6248E-03  0.0000E+00
