 1 - depth, m
 2 - temperature, C
 3 - salinity, kg/kg
 4 - turbulent kinetic energy, m**2/s**2
 5 - dissipation rate, m**2/s**3
 6 - kinematic heat conductance, m**2/s
 7 - modulus of horizontal velocity, m/s
 8 - Richardson number, n/d
   -0.000000   -0.00000  0.3651E-12  0.6248E-12  0.1818E-15  0.1000E-09  0.0000E+00  0.1446E+17
   -0.037498    0.22359  0.3151E-12  0.9689E-12  0.2052E-15  0.1000E-09  0.0000E+00  0.1348E+17
   -0.074996    0.44560  0.2709E-12  0.1710E-11  0.3060E-15  0.1000E-09  0.0000E+00  0.1252E+17
   -0.112494    0.66585  0.2191E-12  0.3047E-11  0.5059E-15  0.1000E-09  0.0000E+00  0.1157E+17
   -0.149993    0.88419  0.1713E-12  0.5374E-11  0.8589E-15  0.1000E-09  0.0000E+00  0.1065E+17
   -0.187491    1.10040  0.1357E-12  0.9386E-11  0.1463E-14  0.1000E-09  0.0000E+00  0.9740E+16
   -0.224991    1.31430  0.1132E-12  0.1627E-10  0.2485E-14  0.1000E-09  0.0000E+00  0.8857E+16
   -0.262490    1.52567  0.1008E-12  0.2802E-10  0.4202E-14  0.1000E-09  0.0000E+00  0.8004E+16
   -0.299990    1.73444  0.9460E-13  0.4798E-10  0.7067E-14  0.1000E-09  0.0000E+00  0.7179E+16
   -0.337490    1.94047  0.9157E-13  0.8176E-10  0.1183E-13  0.1000E-09  0.0000E+00  0.6381E+16
   -0.374990    2.14354  0.8990E-13  0.1387E-09  0.1973E-13  0.1000E-09  0.0000E+00  0.5634E+16
   -0.412490    2.34429  0.8867E-13  0.2343E-09  0.3276E-13  0.1000E-09  0.0000E+00  0.4923E+16
   -0.449991    2.54306  0.8753E-13  0.3942E-09  0.5417E-13  0.1000E-09  0.0000E+00  0.4234E+16
   -0.487491    2.73974  0.8645E-13  0.6605E-09  0.8925E-13  0.1000E-09  0.0000E+00  0.3567E+16
   -0.524992    2.93427  0.8550E-13  0.1099E-08  0.1460E-12  0.1386E-09  0.0000E+00  0.2925E+16
   -0.562493    3.12665  0.8479E-13  0.1817E-08  0.2375E-12  0.2862E-09  0.0000E+00  0.2304E+16
   -0.599994    3.31672  0.8435E-13  0.2990E-08  0.3845E-12  0.6254E-09  0.0000E+00  0.1707E+16
   -0.637495    3.50420  0.8412E-13  0.4897E-08  0.6195E-12  0.1519E-08  0.0000E+00  0.1133E+16
   -0.674996    3.68842  0.8401E-13  0.7974E-08  0.9928E-12  0.4714E-08  0.0000E+00  0.5848E+15
   -0.712498    3.86657  0.8398E-13  0.1273E-07  0.1564E-11  0.3999E-07  0.0000E+00  0.1087E+15
   -0.749999    4.00844  0.8397E-13  0.1333E-07  0.1641E-11  0.4218E-04  0.0000E+00 -0.2129E+12
   -0.787500    4.00905  0.8397E-13  0.1361E-07  0.1683E-11  0.4153E-04  0.0000E+00 -0.2222E+12
   -0.825001    4.00966  0.8397E-13  0.1386E-07  0.1729E-11  0.4180E-04  0.0000E+00 -0.2271E+12
   -0.862502    4.01028  0.8397E-13  0.1407E-07  0.1777E-11  0.4193E-04  0.0000E+00 -0.2327E+12
   -0.900003    4.01089  0.8397E-13  0.1426E-07  0.1828E-11  0.4185E-04  0.0000E+00 -0.2396E+12
   -0.937504    4.01150  0.8397E-13  0.1441E-07  0.1883E-11  0.4156E-04  0.0000E+00 -0.2478E+12
   -0.975005    4.01212  0.8397E-13  0.1454E-07  0.1942E-11  0.4104E-04  0.0000E+00 -0.2577E+12
   -1.012506    4.01275  0.8397E-13  0.1463E-07  0.2006E-11  0.4031E-04  0.0000E+00 -0.2702E+12
   -1.050007    4.01340  0.8397E-13  0.1468E-07  0.2077E-11  0.3934E-04  0.0000E+00 -0.2855E+12
   -1.087507    4.01406  0.8397E-13  0.1470E-07  0.2157E-11  0.3811E-04  0.0000E+00 -0.3040E+12
   -1.125007    4.01475  0.8397E-13  0.1467E-07  0.2246E-11  0.3662E-04  0.0000E+00 -0.3259E+12
   -1.162508    4.01548  0.8397E-13  0.1460E-07  0.2349E-11  0.3484E-04  0.0000E+00 -0.3531E+12
   -1.200008    4.01624  0.8397E-13  0.1447E-07  0.2468E-11  0.3277E-04  0.0000E+00 -0.3874E+12
   -1.237507    4.01705  0.8397E-13  0.1425E-07  0.2624E-11  0.3028E-04  0.0000E+00 -0.4333E+12
   -1.275007    4.01794  0.8397E-13  0.1390E-07  0.2847E-11  0.2384E-04  0.0000E+00 -0.5708E+12
   -1.312506    4.01907  0.8397E-13  0.1337E-07  0.3164E-11  0.1809E-04  0.0000E+00 -0.7874E+12
   -1.350005    4.02057  0.8397E-13  0.1259E-07  0.3637E-11  0.1312E-04  0.0000E+00 -0.1149E+13
   -1.387503    4.02265  0.8397E-13  0.1141E-07  0.4440E-11  0.8190E-05  0.0000E+00 -0.1984E+13
   -1.425002    4.02599  0.8397E-13  0.9410E-08  0.6217E-11  0.3537E-05  0.0000E+00 -0.5187E+13
   -1.462500    4.03360  0.8397E-13  0.5548E-08  0.1295E-10  0.4755E-06  0.0000E+00 -0.5045E+14
   -1.499997    4.07950  0.8397E-13  0.0000E+00  0.0000E+00  0.0000E+00  0.0000E+00  0.0000E+00
