 1 - depth, m
 2 - temperature, C
 3 - salinity, kg/kg
 4 - turbulent kinetic energy, m**2/s**2
 5 - dissipation rate, m**2/s**3
 6 - kinematic heat conductance, m**2/s
 7 - modulus of horizontal velocity, m/s
 8 - Richardson number, n/d
   -0.000000   13.21159  0.9968E-13  0.3079E-03  0.5773E-03  0.8796E-04  0.1830E+00 -0.1069E-01
   -0.037498   13.27607  0.9967E-13  0.1575E-03  0.1686E-03  0.9503E-04  0.5732E-01 -0.3977E-01
   -0.074996   13.29722  0.9967E-13  0.1030E-03  0.5290E-04  0.1393E-03  0.3642E-01  0.4423E+02
   -0.112494   13.31023  0.9967E-13  0.7839E-04  0.2587E-04  0.1476E-03  0.2887E-01  0.8672E+02
   -0.149992   13.31751  0.9966E-13  0.6308E-04  0.1498E-04  0.1564E-03  0.2417E-01  0.3364E+02
   -0.187491   13.32256  0.9966E-13  0.5164E-04  0.8952E-05  0.1682E-03  0.2065E-01  0.2165E+01
   -0.224990   13.32677  0.9966E-13  0.4313E-04  0.5520E-05  0.1843E-03  0.1785E-01  0.5867E+02
   -0.262490   13.33004  0.9966E-13  0.3665E-04  0.3438E-05  0.2018E-03  0.1578E-01  0.4347E+01
   -0.299990   13.33283  0.9966E-13  0.3155E-04  0.2167E-05  0.2212E-03  0.1402E-01  0.1973E+01
   -0.337489   13.33535  0.9966E-13  0.2754E-04  0.1395E-05  0.2455E-03  0.1252E-01  0.2657E+01
   -0.374990   13.33754  0.9966E-13  0.2434E-04  0.9239E-06  0.2729E-03  0.1126E-01  0.1503E+02
   -0.412490   13.33953  0.9966E-13  0.2177E-04  0.6324E-06  0.3046E-03  0.1020E-01  0.1940E+03
   -0.449990   13.34128  0.9966E-13  0.1970E-04  0.4478E-06  0.3397E-03  0.9328E-02  0.7273E+01
   -0.487491   13.34283  0.9966E-13  0.1805E-04  0.3287E-06  0.3783E-03  0.8616E-02  0.7494E+02
   -0.524992   13.34420  0.9966E-13  0.1675E-04  0.2500E-06  0.4157E-03  0.8030E-02  0.3221E+02
   -0.562493   13.34545  0.9966E-13  0.1569E-04  0.1960E-06  0.4606E-03  0.7474E-02  0.8067E+02
   -0.599993   13.34656  0.9966E-13  0.1481E-04  0.1580E-06  0.4976E-03  0.6961E-02  0.2299E+02
   -0.637494   13.34756  0.9966E-13  0.1407E-04  0.1304E-06  0.5323E-03  0.6484E-02  0.3321E+02
   -0.674996   13.34845  0.9966E-13  0.1343E-04  0.1099E-06  0.5652E-03  0.6038E-02  0.1696E+02
   -0.712497   13.34925  0.9966E-13  0.1287E-04  0.9419E-07  0.5946E-03  0.5618E-02  0.2386E+02
   -0.749998   13.34997  0.9966E-13  0.1236E-04  0.8185E-07  0.6135E-03  0.5222E-02  0.2614E+02
   -0.787499   13.35064  0.9966E-13  0.1190E-04  0.7195E-07  0.6276E-03  0.4844E-02  0.1678E+02
   -0.825000   13.35128  0.9966E-13  0.1145E-04  0.6382E-07  0.6366E-03  0.4484E-02  0.6595E+02
   -0.862501   13.35189  0.9966E-13  0.1102E-04  0.5700E-07  0.6408E-03  0.4139E-02  0.1513E+02
   -0.900002   13.35250  0.9966E-13  0.1060E-04  0.5122E-07  0.6395E-03  0.3807E-02  0.2934E+02
   -0.937503   13.35310  0.9966E-13  0.1016E-04  0.4626E-07  0.6337E-03  0.3485E-02  0.1884E+02
   -0.975004   13.35370  0.9966E-13  0.9713E-05  0.4192E-07  0.6227E-03  0.3173E-02  0.2946E+02
   -1.012505   13.35431  0.9966E-13  0.9236E-05  0.3808E-07  0.6129E-03  0.2867E-02  0.1231E+02
   -1.050005   13.35493  0.9966E-13  0.8733E-05  0.3467E-07  0.5984E-03  0.2585E-02  0.9132E+01
   -1.087506   13.35556  0.9966E-13  0.8208E-05  0.3168E-07  0.5792E-03  0.2328E-02  0.6078E+01
   -1.125006   13.35621  0.9966E-13  0.7666E-05  0.2911E-07  0.5543E-03  0.2095E-02  0.4230E+01
   -1.162506   13.35689  0.9966E-13  0.7113E-05  0.2700E-07  0.5236E-03  0.1885E-02  0.3999E+01
   -1.200006   13.35760  0.9966E-13  0.6556E-05  0.2537E-07  0.4891E-03  0.1699E-02  0.3347E+01
   -1.237506   13.35837  0.9966E-13  0.6009E-05  0.2430E-07  0.4473E-03  0.1535E-02  0.4018E+01
   -1.275005   13.35921  0.9966E-13  0.5486E-05  0.2393E-07  0.3967E-03  0.1396E-02  0.6046E+01
   -1.312504   13.36017  0.9966E-13  0.4988E-05  0.2469E-07  0.3399E-03  0.1283E-02  0.1529E+02
   -1.350003   13.36133  0.9966E-13  0.4479E-05  0.2737E-07  0.2734E-03  0.1190E-02  0.4091E+02
   -1.387502   13.36290  0.9966E-13  0.3921E-05  0.3312E-07  0.2105E-03  0.1108E-02  0.1918E+03
   -1.425000   13.36489  0.9966E-13  0.3248E-05  0.5117E-07  0.1395E-03  0.1039E-02  0.6579E+03
   -1.462498   13.36937  0.9966E-13  0.1899E-05  0.1092E-06  0.2151E-04  0.9636E-03 -0.5650E+05
   -1.499996   13.39342  0.9966E-13  0.0000E+00  0.0000E+00  0.0000E+00  0.9848E-03  0.0000E+00
