 1 - depth, m
 2 - temperature, C
 3 - salinity, kg/kg
 4 - turbulent kinetic energy, m**2/s**2
 5 - dissipation rate, m**2/s**3
 6 - kinematic heat conductance, m**2/s
 7 - modulus of horizontal velocity, m/s
 8 - Richardson number, n/d
   -0.000000   -0.00000  0.1626E-12  0.4096E-13  0.8590E-16  0.1000E-09  0.0000E+00  0.9070E+16
   -0.037498    0.13864  0.2226E-12  0.4096E-13  0.8590E-16  0.1000E-09  0.0000E+00  0.8724E+16
   -0.074996    0.27720  0.2630E-12  0.4096E-13  0.8590E-16  0.1000E-09  0.0000E+00  0.8376E+16
   -0.112494    0.41563  0.2685E-12  0.4096E-13  0.8590E-16  0.1000E-09  0.0000E+00  0.8026E+16
   -0.149993    0.55382  0.2462E-12  0.4096E-13  0.8590E-16  0.1000E-09  0.0000E+00  0.7674E+16
   -0.187492    0.69171  0.2112E-12  0.4096E-13  0.8590E-16  0.1000E-09  0.0000E+00  0.7322E+16
   -0.224991    0.82919  0.1759E-12  0.4096E-13  0.8590E-16  0.1000E-09  0.0000E+00  0.6969E+16
   -0.262491    0.96619  0.1466E-12  0.4096E-13  0.8590E-16  0.1000E-09  0.0000E+00  0.6621E+16
   -0.299991    1.10270  0.1251E-12  0.4096E-13  0.8590E-16  0.1000E-09  0.0000E+00  0.6275E+16
   -0.337491    1.23864  0.1104E-12  0.4096E-13  0.8590E-16  0.1000E-09  0.0000E+00  0.5931E+16
   -0.374991    1.37393  0.1008E-12  0.4096E-13  0.8590E-16  0.1000E-09  0.0000E+00  0.5588E+16
   -0.412492    1.50845  0.9472E-13  0.4096E-13  0.8590E-16  0.1000E-09  0.0000E+00  0.5247E+16
   -0.449992    1.64208  0.9088E-13  0.4096E-13  0.8590E-16  0.1000E-09  0.0000E+00  0.4910E+16
   -0.487493    1.77474  0.8845E-13  0.4096E-13  0.8590E-16  0.1000E-09  0.0000E+00  0.4580E+16
   -0.524994    1.90638  0.8688E-13  0.4096E-13  0.8590E-16  0.1000E-09  0.0000E+00  0.4265E+16
   -0.562495    2.03723  0.8587E-13  0.4096E-13  0.8590E-16  0.1000E-09  0.0000E+00  0.3954E+16
   -0.599996    2.16723  0.8521E-13  0.4302E-13  0.8590E-16  0.1000E-09  0.0000E+00  0.3649E+16
   -0.637497    2.29630  0.8476E-13  0.1419E-12  0.8635E-16  0.1000E-09  0.0000E+00  0.3348E+16
   -0.674999    2.42437  0.8447E-13  0.3995E-12  0.1236E-15  0.1000E-09  0.0000E+00  0.3053E+16
   -0.712500    2.55137  0.8428E-13  0.8885E-12  0.2292E-15  0.1000E-09  0.0000E+00  0.2765E+16
   -0.750001    2.67724  0.8416E-13  0.1807E-11  0.4393E-15  0.1000E-09  0.0000E+00  0.2488E+16
   -0.787503    2.80215  0.8408E-13  0.3551E-11  0.8376E-15  0.1000E-09  0.0000E+00  0.2219E+16
   -0.825004    2.92613  0.8404E-13  0.6870E-11  0.1585E-14  0.1000E-09  0.0000E+00  0.1955E+16
   -0.862505    3.04913  0.8401E-13  0.1317E-10  0.2980E-14  0.1000E-09  0.0000E+00  0.1697E+16
   -0.900006    3.17109  0.8399E-13  0.2510E-10  0.5571E-14  0.1000E-09  0.0000E+00  0.1446E+16
   -0.937507    3.29193  0.8399E-13  0.4757E-10  0.1036E-13  0.1000E-09  0.0000E+00  0.1201E+16
   -0.975008    3.41157  0.8398E-13  0.8967E-10  0.1919E-13  0.1000E-09  0.0000E+00  0.9633E+15
   -1.012509    3.52987  0.8398E-13  0.1686E-09  0.3544E-13  0.1345E-09  0.0000E+00  0.7309E+15
   -1.050010    3.64631  0.8398E-13  0.3168E-09  0.6544E-13  0.3576E-09  0.0000E+00  0.5074E+15
   -1.087511    3.76026  0.8398E-13  0.5932E-09  0.1205E-12  0.1127E-08  0.0000E+00  0.2960E+15
   -1.125011    3.87068  0.8398E-13  0.1104E-08  0.2205E-12  0.5957E-08  0.0000E+00  0.1034E+15
   -1.162511    3.97538  0.8398E-13  0.1812E-08  0.3618E-12  0.1174E-05  0.0000E+00  0.1300E+13
   -1.200012    3.99535  0.8398E-13  0.2412E-08  0.5069E-12  0.3865E-05  0.0000E+00 -0.6449E+12
   -1.237511    3.99924  0.8398E-13  0.2823E-08  0.6387E-12  0.4432E-05  0.0000E+00 -0.7719E+12
   -1.275011    4.00267  0.8398E-13  0.3141E-08  0.7863E-12  0.4508E-05  0.0000E+00 -0.9529E+12
   -1.312510    4.00608  0.8398E-13  0.3355E-08  0.9633E-12  0.4167E-05  0.0000E+00 -0.1250E+13
   -1.350009    4.00979  0.8398E-13  0.3439E-08  0.1196E-11  0.3444E-05  0.0000E+00 -0.1816E+13
   -1.387508    4.01432  0.8398E-13  0.3333E-08  0.1549E-11  0.2390E-05  0.0000E+00 -0.3169E+13
   -1.425007    4.02081  0.8398E-13  0.2913E-08  0.2224E-11  0.1166E-05  0.0000E+00 -0.8132E+13
   -1.462505    4.03354  0.8398E-13  0.2026E-08  0.4148E-11  0.2378E-06  0.0000E+00 -0.4831E+14
   -1.500002    4.07799  0.8398E-13  0.0000E+00  0.0000E+00  0.0000E+00  0.0000E+00  0.0000E+00
