 1 - depth, m
 2 - temperature, C
 3 - salinity, kg/kg
 4 - turbulent kinetic energy, m**2/s**2
 5 - dissipation rate, m**2/s**3
 6 - kinematic heat conductance, m**2/s
 7 - modulus of horizontal velocity, m/s
 8 - Richardson number, n/d
   -0.000000   -0.00000  0.7743E-12  0.4096E-13  0.8590E-16  0.1000E-09  0.0000E+00  0.1280E+17
   -0.037498    0.19725  0.4178E-12  0.4096E-13  0.8590E-16  0.1000E-09  0.0000E+00  0.1203E+17
   -0.074996    0.39316  0.2520E-12  0.4096E-13  0.8590E-16  0.1000E-09  0.0000E+00  0.1127E+17
   -0.112494    0.58752  0.1809E-12  0.1547E-12  0.8590E-16  0.1000E-09  0.0000E+00  0.1052E+17
   -0.149993    0.78015  0.1446E-12  0.4328E-12  0.9728E-16  0.1000E-09  0.0000E+00  0.9775E+16
   -0.187491    0.97087  0.1225E-12  0.8992E-12  0.1477E-15  0.1000E-09  0.0000E+00  0.9050E+16
   -0.224991    1.15952  0.1084E-12  0.1652E-11  0.2416E-15  0.1000E-09  0.0000E+00  0.8343E+16
   -0.262490    1.34592  0.9951E-13  0.2873E-11  0.3990E-15  0.1000E-09  0.0000E+00  0.7656E+16
   -0.299990    1.52997  0.9404E-13  0.4861E-11  0.6556E-15  0.1000E-09  0.0000E+00  0.6990E+16
   -0.337490    1.71156  0.9073E-13  0.8109E-11  0.1070E-14  0.1000E-09  0.0000E+00  0.6346E+16
   -0.374990    1.89053  0.8865E-13  0.1342E-10  0.1738E-14  0.1000E-09  0.0000E+00  0.5736E+16
   -0.412490    2.06716  0.8725E-13  0.2206E-10  0.2809E-14  0.1000E-09  0.0000E+00  0.5154E+16
   -0.449991    2.24155  0.8624E-13  0.3611E-10  0.4521E-14  0.1000E-09  0.0000E+00  0.4591E+16
   -0.487491    2.41362  0.8548E-13  0.5885E-10  0.7245E-14  0.1000E-09  0.0000E+00  0.4049E+16
   -0.524992    2.58328  0.8492E-13  0.9522E-10  0.1153E-13  0.1000E-09  0.0000E+00  0.3530E+16
   -0.562493    2.75053  0.8453E-13  0.1531E-09  0.1825E-13  0.1000E-09  0.0000E+00  0.3032E+16
   -0.599994    2.91529  0.8428E-13  0.2451E-09  0.2874E-13  0.1000E-09  0.0000E+00  0.2556E+16
   -0.637495    3.07752  0.8413E-13  0.3905E-09  0.4506E-13  0.1000E-09  0.0000E+00  0.2100E+16
   -0.674996    3.23716  0.8404E-13  0.6195E-09  0.7038E-13  0.1203E-09  0.0000E+00  0.1667E+16
   -0.712497    3.39411  0.8401E-13  0.9791E-09  0.1095E-12  0.2428E-09  0.0000E+00  0.1254E+16
   -0.749999    3.54818  0.8399E-13  0.1541E-08  0.1697E-12  0.5457E-09  0.0000E+00  0.8648E+15
   -0.787500    3.69964  0.8398E-13  0.2415E-08  0.2619E-12  0.1474E-08  0.0000E+00  0.4949E+15
   -0.825001    3.84775  0.8398E-13  0.3760E-08  0.4017E-12  0.7558E-08  0.0000E+00  0.1502E+15
   -0.862502    3.98657  0.8398E-13  0.4390E-08  0.4709E-12  0.8893E-05  0.0000E+00  0.3399E+12
   -0.900003    3.99154  0.8398E-13  0.4738E-08  0.5162E-12  0.1205E-04  0.0000E+00 -0.1518E+12
   -0.937504    3.99323  0.8398E-13  0.5039E-08  0.5624E-12  0.1367E-04  0.0000E+00 -0.1713E+12
   -0.975005    3.99470  0.8398E-13  0.5313E-08  0.6118E-12  0.1477E-04  0.0000E+00 -0.1893E+12
   -1.012506    3.99605  0.8398E-13  0.5563E-08  0.6652E-12  0.1545E-04  0.0000E+00 -0.2088E+12
   -1.050006    3.99735  0.8398E-13  0.5790E-08  0.7236E-12  0.1576E-04  0.0000E+00 -0.2316E+12
   -1.087507    3.99862  0.8398E-13  0.5989E-08  0.7884E-12  0.1572E-04  0.0000E+00 -0.2591E+12
   -1.125007    3.99990  0.8398E-13  0.6159E-08  0.8610E-12  0.1535E-04  0.0000E+00 -0.2937E+12
   -1.162507    4.00122  0.8398E-13  0.6294E-08  0.9439E-12  0.1466E-04  0.0000E+00 -0.3387E+12
   -1.200007    4.00261  0.8398E-13  0.6386E-08  0.1041E-11  0.1366E-04  0.0000E+00 -0.3995E+12
   -1.237507    4.00411  0.8398E-13  0.6426E-08  0.1157E-11  0.1235E-04  0.0000E+00 -0.4861E+12
   -1.275006    4.00578  0.8398E-13  0.6397E-08  0.1303E-11  0.1072E-04  0.0000E+00 -0.6179E+12
   -1.312506    4.00771  0.8398E-13  0.6272E-08  0.1497E-11  0.8776E-05  0.0000E+00 -0.8384E+12
   -1.350005    4.01008  0.8398E-13  0.6008E-08  0.1778E-11  0.6556E-05  0.0000E+00 -0.1265E+13
   -1.387503    4.01327  0.8398E-13  0.5513E-08  0.2246E-11  0.4143E-05  0.0000E+00 -0.2320E+13
   -1.425002    4.01829  0.8398E-13  0.4589E-08  0.3240E-11  0.1815E-05  0.0000E+00 -0.6540E+13
   -1.462500    4.02941  0.8398E-13  0.2981E-08  0.6447E-11  0.3138E-06  0.0000E+00 -0.5095E+14
   -1.499997    4.07779  0.8398E-13  0.0000E+00  0.0000E+00  0.0000E+00  0.0000E+00  0.0000E+00
