 1 - depth, m
 2 - temperature, C
 3 - salinity, kg/kg
 4 - turbulent kinetic energy, m**2/s**2
 5 - dissipation rate, m**2/s**3
 6 - kinematic heat conductance, m**2/s
 7 - modulus of horizontal velocity, m/s
 8 - Richardson number, n/d
   -0.000000    1.80887  0.9065E-13  0.9816E-03  0.4484E-02  0.1312E-03  0.4403E+00  0.2129E-02
   -0.037498    1.95664  0.9065E-13  0.4861E-03  0.1914E-02  0.1925E-03  0.1354E+00 -0.2279E-02
   -0.074996    2.02193  0.9065E-13  0.3073E-03  0.6318E-03  0.2635E-03  0.8005E-01  0.1193E+00
   -0.112494    2.04786  0.9064E-13  0.2324E-03  0.3714E-03  0.2652E-03  0.6152E-01  0.1642E-01
   -0.149992    2.06098  0.9064E-13  0.1854E-03  0.2302E-03  0.2594E-03  0.5109E-01  0.2073E-01
   -0.187491    2.06995  0.9064E-13  0.1517E-03  0.1424E-03  0.2556E-03  0.4394E-01  0.1483E-01
   -0.224991    2.07668  0.9064E-13  0.1269E-03  0.9040E-04  0.2550E-03  0.3861E-01  0.1489E-01
   -0.262490    2.08193  0.9064E-13  0.1075E-03  0.5661E-04  0.2551E-03  0.3474E-01  0.1368E-01
   -0.299990    2.08648  0.9064E-13  0.9205E-04  0.3488E-04  0.2549E-03  0.3147E-01  0.3127E-01
   -0.337490    2.09075  0.9064E-13  0.7970E-04  0.2126E-04  0.2563E-03  0.2859E-01  0.1976E-01
   -0.374990    2.09491  0.9064E-13  0.6978E-04  0.1279E-04  0.2593E-03  0.2606E-01  0.5589E-01
   -0.412490    2.09904  0.9064E-13  0.6173E-04  0.7615E-05  0.2631E-03  0.2388E-01  0.6503E+00
   -0.449991    2.10313  0.9064E-13  0.5521E-04  0.4615E-05  0.2688E-03  0.2203E-01  0.1150E+01
   -0.487491    2.10701  0.9064E-13  0.5000E-04  0.2904E-05  0.2759E-03  0.2057E-01  0.2422E+01
   -0.524992    2.11054  0.9064E-13  0.4585E-04  0.1905E-05  0.2774E-03  0.1950E-01  0.2495E+01
   -0.562493    2.11396  0.9064E-13  0.4234E-04  0.1308E-05  0.2805E-03  0.1830E-01  0.2791E+01
   -0.599994    2.11726  0.9064E-13  0.3933E-04  0.9451E-06  0.2842E-03  0.1713E-01  0.5541E+00
   -0.637495    2.12039  0.9064E-13  0.3673E-04  0.7183E-06  0.2880E-03  0.1605E-01  0.3126E+00
   -0.674996    2.12335  0.9064E-13  0.3443E-04  0.5684E-06  0.2913E-03  0.1504E-01  0.2412E+00
   -0.712497    2.12615  0.9064E-13  0.3237E-04  0.4617E-06  0.2940E-03  0.1410E-01  0.2120E+00
   -0.749998    2.12884  0.9064E-13  0.3050E-04  0.3819E-06  0.2958E-03  0.1322E-01  0.1995E+00
   -0.787500    2.13143  0.9064E-13  0.2877E-04  0.3229E-06  0.2964E-03  0.1238E-01  0.1944E+00
   -0.825001    2.13395  0.9064E-13  0.2716E-04  0.2787E-06  0.2958E-03  0.1159E-01  0.1925E+00
   -0.862502    2.13639  0.9064E-13  0.2566E-04  0.2442E-06  0.2935E-03  0.1083E-01  0.1913E+00
   -0.900003    2.13878  0.9064E-13  0.2422E-04  0.2158E-06  0.2891E-03  0.1012E-01  0.1891E+00
   -0.937504    2.14115  0.9064E-13  0.2282E-04  0.1918E-06  0.2823E-03  0.9422E-02  0.1858E+00
   -0.975005    2.14350  0.9064E-13  0.2144E-04  0.1706E-06  0.2717E-03  0.8747E-02  0.1913E+00
   -1.012506    2.14591  0.9064E-13  0.2003E-04  0.1516E-06  0.2676E-03  0.8072E-02  0.3626E+00
   -1.050006    2.14827  0.9064E-13  0.1862E-04  0.1345E-06  0.2619E-03  0.7457E-02  0.9507E+00
   -1.087507    2.15061  0.9064E-13  0.1724E-04  0.1194E-06  0.2535E-03  0.6899E-02  0.2666E+01
   -1.125007    2.15296  0.9064E-13  0.1588E-04  0.1059E-06  0.2427E-03  0.6389E-02  0.7443E+01
   -1.162507    2.15537  0.9064E-13  0.1456E-04  0.9398E-07  0.2297E-03  0.5921E-02  0.1851E+02
   -1.200007    2.15787  0.9064E-13  0.1326E-04  0.8347E-07  0.2145E-03  0.5492E-02  0.4386E+02
   -1.237507    2.16051  0.9064E-13  0.1198E-04  0.7432E-07  0.1970E-03  0.5097E-02  0.1066E+03
   -1.275006    2.16335  0.9064E-13  0.1073E-04  0.6657E-07  0.1768E-03  0.4734E-02  0.2839E+03
   -1.312505    2.16649  0.9064E-13  0.9496E-05  0.6036E-07  0.1536E-03  0.4403E-02  0.1027E+04
   -1.350004    2.17012  0.9064E-13  0.8253E-05  0.5604E-07  0.1266E-03  0.4102E-02  0.1984E+07
   -1.387503    2.17461  0.9064E-13  0.6964E-05  0.5466E-07  0.9490E-04  0.3830E-02  0.2685E+05
   -1.425001    2.18108  0.9064E-13  0.5507E-05  0.6003E-07  0.5703E-04  0.3587E-02  0.1613E+05
   -1.462499    2.19636  0.9064E-13  0.2713E-05  0.1127E-06  0.8664E-05  0.3377E-02  0.4358E+03
   -1.499997    2.30134  0.9064E-13  0.0000E+00  0.0000E+00  0.0000E+00  0.3257E-02  0.0000E+00
