 1 - depth, m
 2 - temperature, C
 3 - salinity, kg/kg
 4 - turbulent kinetic energy, m**2/s**2
 5 - dissipation rate, m**2/s**3
 6 - kinematic heat conductance, m**2/s
 7 - modulus of horizontal velocity, m/s
 8 - Richardson number, n/d
   -0.000000   16.63857  0.9587E-13  0.2229E-04  0.2097E-05  0.2284E-04  0.2935E-01 -0.1344E-01
   -0.037498   16.66652  0.9587E-13  0.1730E-04  0.7186E-06  0.4382E-04  0.1697E-01 -0.3932E-01
   -0.074996   16.67823  0.9587E-13  0.1454E-04  0.3713E-06  0.6266E-04  0.1255E-01 -0.6972E-01
   -0.112494   16.68619  0.9587E-13  0.1264E-04  0.2263E-06  0.8182E-04  0.9826E-02 -0.1090E+00
   -0.149992   16.69212  0.9587E-13  0.1123E-04  0.1511E-06  0.1039E-03  0.7961E-02 -0.1576E+00
   -0.187491   16.69665  0.9587E-13  0.1019E-04  0.1078E-06  0.1472E-03  0.6634E-02  0.5709E+00
   -0.224991   16.69983  0.9587E-13  0.9498E-05  0.8273E-07  0.3066E-03  0.5683E-02  0.1525E+04
   -0.262490   16.70135  0.9587E-13  0.9060E-05  0.6726E-07  0.3801E-03  0.5059E-02  0.4181E+01
   -0.299990   16.70250  0.9587E-13  0.8737E-05  0.5579E-07  0.3941E-03  0.4513E-02  0.4002E+01
   -0.337490   16.70358  0.9587E-13  0.8495E-05  0.4707E-07  0.4161E-03  0.4026E-02  0.3651E+01
   -0.374990   16.70459  0.9587E-13  0.8315E-05  0.4036E-07  0.4382E-03  0.3603E-02  0.3254E+01
   -0.412490   16.70553  0.9587E-13  0.8182E-05  0.3511E-07  0.4642E-03  0.3234E-02  0.2883E+01
   -0.449991   16.70640  0.9587E-13  0.8086E-05  0.3096E-07  0.4941E-03  0.2914E-02  0.2522E+01
   -0.487491   16.70721  0.9587E-13  0.8019E-05  0.2768E-07  0.5266E-03  0.2640E-02  0.2249E+01
   -0.524992   16.70796  0.9587E-13  0.7975E-05  0.2506E-07  0.5489E-03  0.2403E-02  0.2337E+01
   -0.562493   16.70867  0.9587E-13  0.7940E-05  0.2293E-07  0.5720E-03  0.2182E-02  0.2401E+01
   -0.599994   16.70936  0.9587E-13  0.7904E-05  0.2116E-07  0.5965E-03  0.1975E-02  0.2444E+01
   -0.637495   16.71002  0.9587E-13  0.7859E-05  0.1969E-07  0.6189E-03  0.1780E-02  0.2462E+01
   -0.674996   16.71065  0.9587E-13  0.7798E-05  0.1848E-07  0.6464E-03  0.1597E-02  0.2492E+01
   -0.712497   16.71126  0.9587E-13  0.7712E-05  0.1742E-07  0.6446E-03  0.1429E-02  0.2435E+01
   -0.749998   16.71187  0.9587E-13  0.7653E-05  0.1697E-07  0.1064E-02  0.1255E-02  0.1690E+01
   -0.787499   16.71224  0.9587E-13  0.7612E-05  0.1675E-07  0.1067E-02  0.1204E-02  0.1771E+01
   -0.825001   16.71261  0.9587E-13  0.7545E-05  0.1654E-07  0.6789E-03  0.1160E-02  0.1899E+01
   -0.862502   16.71320  0.9587E-13  0.7387E-05  0.1626E-07  0.7095E-03  0.1030E-02  0.1990E+01
   -0.900003   16.71377  0.9587E-13  0.7215E-05  0.1613E-07  0.7103E-03  0.9208E-03  0.1887E+01
   -0.937504   16.71435  0.9587E-13  0.7025E-05  0.1612E-07  0.7156E-03  0.8205E-03  0.1807E+01
   -0.975005   16.71492  0.9587E-13  0.6822E-05  0.1624E-07  0.7269E-03  0.7294E-03  0.1739E+01
   -1.012505   16.71550  0.9587E-13  0.6613E-05  0.1646E-07  0.7237E-03  0.6472E-03  0.1537E+01
   -1.050006   16.71608  0.9587E-13  0.6485E-05  0.1666E-07  0.8400E-03  0.5763E-03  0.1197E+01
   -1.087507   16.71658  0.9587E-13  0.6374E-05  0.1691E-07  0.6426E-03  0.5512E-03  0.4875E+01
   -1.125007   16.71725  0.9587E-13  0.6230E-05  0.1728E-07  0.6731E-03  0.5226E-03  0.1213E+01
   -1.162507   16.71789  0.9587E-13  0.6054E-05  0.1781E-07  0.5843E-03  0.4871E-03  0.1077E+01
   -1.200007   16.71864  0.9587E-13  0.5886E-05  0.1841E-07  0.7100E-03  0.4597E-03  0.2037E+01
   -1.237507   16.71926  0.9587E-13  0.5685E-05  0.1929E-07  0.3961E-03  0.4408E-03  0.7614E+02
   -1.275006   16.72039  0.9587E-13  0.5460E-05  0.2041E-07  0.4229E-03  0.4136E-03  0.4856E+01
   -1.312505   16.72146  0.9587E-13  0.5184E-05  0.2206E-07  0.3749E-03  0.3910E-03  0.7371E+01
   -1.350004   16.72269  0.9587E-13  0.4843E-05  0.2461E-07  0.2907E-03  0.3703E-03  0.1849E+02
   -1.387503   16.72429  0.9587E-13  0.4410E-05  0.2895E-07  0.2443E-03  0.3503E-03  0.6148E+02
   -1.425001   16.72625  0.9587E-13  0.3728E-05  0.4080E-07  0.1156E-03  0.3341E-03  0.7155E+03
   -1.462499   16.73246  0.9587E-13  0.2151E-05  0.9169E-07  0.2760E-04  0.3125E-03 -0.2063E+05
   -1.499997   16.75175  0.9587E-13  0.0000E+00  0.0000E+00  0.0000E+00  0.3151E-03  0.0000E+00
