 1 - depth, m
 2 - temperature, C
 3 - salinity, kg/kg
 4 - turbulent kinetic energy, m**2/s**2
 5 - dissipation rate, m**2/s**3
 6 - kinematic heat conductance, m**2/s
 7 - modulus of horizontal velocity, m/s
 8 - Richardson number, n/d
   -0.000000   -0.00000  0.4279E-12  0.3472E-11  0.1386E-14  0.1000E-09  0.0000E+00  0.1679E+17
   -0.037498    0.26091  0.4076E-12  0.6096E-11  0.1447E-14  0.1000E-09  0.0000E+00  0.1547E+17
   -0.074996    0.51987  0.2815E-12  0.1152E-10  0.2117E-14  0.1000E-09  0.0000E+00  0.1418E+17
   -0.112494    0.77679  0.1753E-12  0.2108E-10  0.3490E-14  0.1000E-09  0.0000E+00  0.1293E+17
   -0.149993    1.03148  0.1207E-12  0.3747E-10  0.5917E-14  0.1000E-09  0.0000E+00  0.1170E+17
   -0.187492    1.28369  0.9978E-13  0.6548E-10  0.1006E-13  0.1000E-09  0.0000E+00  0.1050E+17
   -0.224991    1.53306  0.9317E-13  0.1133E-09  0.1703E-13  0.1000E-09  0.0000E+00  0.9327E+16
   -0.262491    1.77917  0.9136E-13  0.1945E-09  0.2871E-13  0.1000E-09  0.0000E+00  0.8198E+16
   -0.299990    2.02181  0.9087E-13  0.3318E-09  0.4815E-13  0.1000E-09  0.0000E+00  0.7108E+16
   -0.337490    2.26057  0.9063E-13  0.5636E-09  0.8038E-13  0.1000E-09  0.0000E+00  0.6061E+16
   -0.374991    2.49499  0.9024E-13  0.9530E-09  0.1336E-12  0.1000E-09  0.0000E+00  0.5101E+16
   -0.412491    2.72656  0.8938E-13  0.1605E-08  0.2213E-12  0.1465E-09  0.0000E+00  0.4194E+16
   -0.449991    2.95617  0.8795E-13  0.2692E-08  0.3652E-12  0.3059E-09  0.0000E+00  0.3314E+16
   -0.487492    3.18370  0.8628E-13  0.4498E-08  0.6002E-12  0.6766E-09  0.0000E+00  0.2462E+16
   -0.524993    3.40904  0.8494E-13  0.7459E-08  0.9794E-12  0.1662E-08  0.0000E+00  0.1636E+16
   -0.562494    3.63144  0.8421E-13  0.1227E-07  0.1586E-11  0.5247E-08  0.0000E+00  0.8391E+15
   -0.599995    3.84760  0.8395E-13  0.1973E-07  0.2516E-11  0.4816E-07  0.0000E+00  0.1447E+15
   -0.637496    4.01446  0.8392E-13  0.2040E-07  0.2607E-11  0.5939E-04  0.0000E+00 -0.2363E+12
   -0.674997    4.01499  0.8392E-13  0.2072E-07  0.2657E-11  0.5809E-04  0.0000E+00 -0.2460E+12
   -0.712499    4.01553  0.8392E-13  0.2100E-07  0.2711E-11  0.5835E-04  0.0000E+00 -0.2499E+12
   -0.750000    4.01608  0.8392E-13  0.2126E-07  0.2769E-11  0.5850E-04  0.0000E+00 -0.2547E+12
   -0.787501    4.01662  0.8392E-13  0.2148E-07  0.2831E-11  0.5844E-04  0.0000E+00 -0.2607E+12
   -0.825002    4.01716  0.8392E-13  0.2167E-07  0.2898E-11  0.5816E-04  0.0000E+00 -0.2677E+12
   -0.862503    4.01771  0.8392E-13  0.2183E-07  0.2969E-11  0.5767E-04  0.0000E+00 -0.2760E+12
   -0.900005    4.01827  0.8392E-13  0.2196E-07  0.3047E-11  0.5695E-04  0.0000E+00 -0.2857E+12
   -0.937506    4.01883  0.8392E-13  0.2205E-07  0.3131E-11  0.5602E-04  0.0000E+00 -0.2969E+12
   -0.975007    4.01941  0.8392E-13  0.2211E-07  0.3222E-11  0.5486E-04  0.0000E+00 -0.3100E+12
   -1.012507    4.02000  0.8392E-13  0.2212E-07  0.3323E-11  0.5347E-04  0.0000E+00 -0.3266E+12
   -1.050008    4.02062  0.8392E-13  0.2209E-07  0.3436E-11  0.5181E-04  0.0000E+00 -0.3466E+12
   -1.087509    4.02126  0.8392E-13  0.2202E-07  0.3563E-11  0.4988E-04  0.0000E+00 -0.3706E+12
   -1.125009    4.02193  0.8392E-13  0.2189E-07  0.3708E-11  0.4765E-04  0.0000E+00 -0.3981E+12
   -1.162509    4.02263  0.8392E-13  0.2170E-07  0.3875E-11  0.4510E-04  0.0000E+00 -0.4319E+12
   -1.200009    4.02338  0.8392E-13  0.2144E-07  0.4072E-11  0.4221E-04  0.0000E+00 -0.4745E+12
   -1.237509    4.02419  0.8392E-13  0.2109E-07  0.4306E-11  0.3900E-04  0.0000E+00 -0.5290E+12
   -1.275009    4.02507  0.8392E-13  0.2060E-07  0.4622E-11  0.3522E-04  0.0000E+00 -0.6043E+12
   -1.312508    4.02606  0.8392E-13  0.1985E-07  0.5103E-11  0.2547E-04  0.0000E+00 -0.8666E+12
   -1.350007    4.02743  0.8392E-13  0.1872E-07  0.5854E-11  0.1763E-04  0.0000E+00 -0.1313E+13
   -1.387506    4.02942  0.8392E-13  0.1703E-07  0.7135E-11  0.1101E-04  0.0000E+00 -0.2244E+13
   -1.425004    4.03262  0.8392E-13  0.1422E-07  0.9947E-11  0.4877E-05  0.0000E+00 -0.5625E+13
   -1.462502    4.03982  0.8392E-13  0.8372E-08  0.2119E-10  0.6401E-06  0.0000E+00 -0.5630E+14
   -1.500000    4.08661  0.8392E-13  0.0000E+00  0.0000E+00  0.0000E+00  0.0000E+00  0.0000E+00
