 1 - depth, m
 2 - temperature, C
 3 - salinity, kg/kg
 4 - turbulent kinetic energy, m**2/s**2
 5 - dissipation rate, m**2/s**3
 6 - kinematic heat conductance, m**2/s
 7 - modulus of horizontal velocity, m/s
 8 - Richardson number, n/d
   -0.000000   11.19222  0.8977E-13  0.2705E-03  0.3971E-03  0.6325E-04  0.1805E+00 -0.3149E+00
   -0.037498   11.24117  0.8979E-13  0.1493E-03  0.1461E-03  0.1262E-03  0.5854E-01 -0.2947E-02
   -0.074996   11.25410  0.8979E-13  0.1016E-03  0.4003E-04  0.1351E-03  0.3904E-01 -0.3576E-01
   -0.112495   11.26122  0.8979E-13  0.7864E-04  0.2010E-04  0.1379E-03  0.3130E-01 -0.1683E-01
   -0.149994   11.26563  0.8979E-13  0.6363E-04  0.1141E-04  0.1413E-03  0.2636E-01 -0.2530E-01
   -0.187493   11.26924  0.8979E-13  0.5259E-04  0.6715E-05  0.1461E-03  0.2266E-01 -0.2511E-01
   -0.224993   11.27240  0.8979E-13  0.4423E-04  0.4051E-05  0.1529E-03  0.1976E-01  0.2144E-01
   -0.262493   11.27510  0.8979E-13  0.3784E-04  0.2480E-05  0.1593E-03  0.1750E-01  0.6139E-01
   -0.299993   11.27754  0.8980E-13  0.3277E-04  0.1544E-05  0.1664E-03  0.1558E-01  0.1910E+01
   -0.337493   11.27979  0.8980E-13  0.2866E-04  0.9914E-06  0.1755E-03  0.1393E-01  0.8390E+00
   -0.374994   11.28187  0.8980E-13  0.2530E-04  0.6652E-06  0.1866E-03  0.1252E-01  0.6343E+02
   -0.412494   11.28377  0.8980E-13  0.2253E-04  0.4685E-06  0.2013E-03  0.1133E-01  0.1812E+02
   -0.449995   11.28549  0.8980E-13  0.2025E-04  0.3445E-06  0.2256E-03  0.1032E-01  0.1345E+02
   -0.487496   11.28701  0.8980E-13  0.1840E-04  0.2629E-06  0.2661E-03  0.9489E-02  0.2439E+02
   -0.524997   11.28831  0.8980E-13  0.1690E-04  0.2072E-06  0.2980E-03  0.8793E-02  0.7299E+02
   -0.562499   11.28948  0.8980E-13  0.1565E-04  0.1673E-06  0.3266E-03  0.8147E-02  0.9878E+01
   -0.600000   11.29053  0.8980E-13  0.1461E-04  0.1377E-06  0.3514E-03  0.7554E-02  0.6901E+01
   -0.637502   11.29150  0.8980E-13  0.1371E-04  0.1151E-06  0.3788E-03  0.7008E-02  0.6881E+01
   -0.675003   11.29240  0.8980E-13  0.1293E-04  0.9755E-07  0.4140E-03  0.6503E-02  0.3465E+02
   -0.712505   11.29321  0.8980E-13  0.1224E-04  0.8365E-07  0.4402E-03  0.6034E-02  0.1061E+02
   -0.750006   11.29397  0.8980E-13  0.1163E-04  0.7248E-07  0.4670E-03  0.5594E-02  0.9504E+01
   -0.787508   11.29468  0.8980E-13  0.1107E-04  0.6338E-07  0.4830E-03  0.5181E-02  0.7547E+01
   -0.825009   11.29535  0.8980E-13  0.1056E-04  0.5586E-07  0.4971E-03  0.4789E-02  0.9901E+01
   -0.862511   11.29599  0.8980E-13  0.1008E-04  0.4960E-07  0.5121E-03  0.4417E-02  0.8968E+02
   -0.900012   11.29660  0.8980E-13  0.9618E-05  0.4431E-07  0.5270E-03  0.4061E-02  0.9140E+01
   -0.937514   11.29718  0.8980E-13  0.9167E-05  0.3978E-07  0.5382E-03  0.3719E-02  0.2794E+02
   -0.975015   11.29775  0.8980E-13  0.8715E-05  0.3584E-07  0.5405E-03  0.3388E-02  0.2435E+02
   -1.012516   11.29832  0.8980E-13  0.8251E-05  0.3236E-07  0.5429E-03  0.3063E-02  0.1165E+02
   -1.050017   11.29888  0.8980E-13  0.7775E-05  0.2928E-07  0.5410E-03  0.2765E-02  0.5041E+01
   -1.087518   11.29944  0.8980E-13  0.7290E-05  0.2657E-07  0.5351E-03  0.2493E-02  0.6618E+01
   -1.125019   11.30000  0.8980E-13  0.6800E-05  0.2422E-07  0.5230E-03  0.2247E-02  0.7851E+01
   -1.162519   11.30057  0.8980E-13  0.6308E-05  0.2222E-07  0.5018E-03  0.2026E-02  0.2742E+01
   -1.200019   11.30116  0.8980E-13  0.5822E-05  0.2059E-07  0.4729E-03  0.1829E-02  0.4332E+01
   -1.237520   11.30180  0.8980E-13  0.5351E-05  0.1935E-07  0.4367E-03  0.1657E-02  0.1817E+01
   -1.275019   11.30249  0.8980E-13  0.4903E-05  0.1854E-07  0.3956E-03  0.1510E-02  0.2709E+01
   -1.312519   11.30326  0.8980E-13  0.4487E-05  0.1825E-07  0.3453E-03  0.1389E-02  0.2977E+01
   -1.350018   11.30415  0.8980E-13  0.4108E-05  0.1862E-07  0.2886E-03  0.1293E-02  0.7607E+01
   -1.387517   11.30523  0.8980E-13  0.3725E-05  0.1993E-07  0.2292E-03  0.1220E-02  0.4080E+02
   -1.425016   11.30661  0.8980E-13  0.3237E-05  0.2361E-07  0.1438E-03  0.1162E-02  0.7944E+03
   -1.462514   11.30878  0.8980E-13  0.1825E-05  0.4898E-07  0.1221E-04  0.1107E-02 -0.8130E+04
   -1.500012   11.33356  0.8980E-13  0.0000E+00  0.0000E+00  0.0000E+00  0.1082E-02  0.0000E+00
