 1 - depth, m
 2 - temperature, C
 3 - salinity, kg/kg
 4 - turbulent kinetic energy, m**2/s**2
 5 - dissipation rate, m**2/s**3
 6 - kinematic heat conductance, m**2/s
 7 - modulus of horizontal velocity, m/s
 8 - Richardson number, n/d
   -0.000000   -0.00000  0.2360E-12  0.4250E-09  0.6190E-12  0.1644E-09  0.2134E-19  0.1344E+17
   -0.037496    0.20760  0.8167E-13  0.1600E-08  0.4354E-12  0.1659E-09  0.9147E-20  0.8790E+16
   -0.074993    0.35047  0.9632E-13  0.3685E-08  0.4762E-12  0.2313E-09  0.3837E-20  0.5658E+16
   -0.112490    0.44595  0.9462E-13  0.6860E-08  0.6464E-12  0.4283E-09  0.1575E-20  0.3592E+16
   -0.149988    0.50818  0.9419E-13  0.1159E-07  0.9530E-12  0.9706E-09  0.6322E-21  0.2241E+16
   -0.187485    0.54767  0.9369E-13  0.1862E-07  0.1440E-11  0.2548E-08  0.2487E-21  0.1338E+16
   -0.224983    0.57145  0.9310E-13  0.2901E-07  0.2177E-11  0.8592E-08  0.9730E-22  0.6873E+15
   -0.262482    0.58365  0.9229E-13  0.4337E-07  0.3222E-11  0.4031E-07  0.4172E-22  0.4080E+15
   -0.299980    0.59078  0.9160E-13  0.4736E-07  0.3710E-11  0.1837E-03  0.1793E-22  0.2701E+15
   -0.337479    0.59541  0.9119E-13  0.5005E-07  0.4122E-11  0.2002E-03  0.7533E-23  0.1892E+15
   -0.374978    0.59864  0.9090E-13  0.5217E-07  0.4500E-11  0.2074E-03  0.3085E-23  0.9777E+14
   -0.412477    0.60031  0.9070E-13  0.5345E-07  0.4764E-11  0.2180E-03  0.1212E-23  0.1801E+14
   -0.449976    0.60061  0.9063E-13  0.5383E-07  0.4848E-11  0.2282E-03  0.4395E-24 -0.7265E+12
   -0.487475    0.60060  0.9063E-13  0.5384E-07  0.4859E-11  0.2285E-03  0.3994E-24 -0.9342E+12
   -0.524975    0.60058  0.9063E-13  0.5328E-07  0.4760E-11  0.2024E-03  0.3943E-24  0.7435E+14
   -0.562475    0.60186  0.9046E-13  0.4958E-07  0.4129E-11  0.2080E-07  0.3202E-24  0.6985E+15
   -0.599974    0.61424  0.8972E-13  0.3277E-07  0.2712E-11  0.5792E-08  0.2539E-24  0.1407E+16
   -0.637474    0.63948  0.8925E-13  0.2136E-07  0.1766E-11  0.2514E-08  0.1979E-24  0.2038E+16
   -0.674974    0.67647  0.8884E-13  0.1382E-07  0.1146E-11  0.1254E-08  0.1518E-24  0.2609E+16
   -0.712474    0.72451  0.8811E-13  0.8874E-08  0.7414E-12  0.6743E-09  0.1146E-24  0.3132E+16
   -0.749974    0.78321  0.8665E-13  0.5652E-08  0.4786E-12  0.3745E-09  0.8508E-25  0.3743E+16
   -0.787474    0.85494  0.8447E-13  0.3558E-08  0.3089E-12  0.2264E-09  0.6203E-25  0.4367E+16
   -0.824974    0.94093  0.8285E-13  0.2200E-08  0.2012E-12  0.1524E-09  0.4428E-25  0.4982E+16
   -0.862474    1.04236  0.8253E-13  0.1322E-08  0.1357E-12  0.1177E-09  0.3079E-25  0.5616E+16
   -0.899974    1.16144  0.8241E-13  0.7637E-09  0.1019E-12  0.1053E-09  0.2064E-25  0.6293E+16
   -0.937473    1.30173  0.8242E-13  0.4362E-09  0.9800E-13  0.1040E-09  0.1302E-25  0.7034E+16
   -0.974973    1.46873  0.8227E-13  0.3163E-09  0.1401E-12  0.1090E-09  0.7188E-26  0.7838E+16
   -1.012473    1.67064  0.8221E-13  0.4794E-09  0.3044E-12  0.1375E-09  0.2445E-26  0.8332E+16
   -1.049972    1.91011  0.8218E-13  0.1251E-08  0.8361E-12  0.2661E-09  0.7546E-27  0.8790E+16
   -1.087471    2.20413  0.8215E-13  0.3687E-08  0.2421E-11  0.7569E-09  0.2264E-27  0.8940E+16
   -1.124970    2.57990  0.8213E-13  0.1086E-07  0.6956E-11  0.3931E-08  0.6593E-28  0.8139E+16
   -1.162469    3.07635  0.8209E-13  0.2319E-07  0.1514E-10  0.3885E-05  0.1863E-28  0.5656E+16
   -1.199968    3.56846  0.8204E-13  0.3575E-07  0.2435E-10  0.1386E-04  0.5092E-29  0.2851E+16
   -1.237466    3.92332  0.8201E-13  0.4639E-07  0.3314E-10  0.2186E-04  0.1315E-29  0.5862E+15
   -1.274965    4.09813  0.8199E-13  0.5200E-07  0.3895E-10  0.2754E-04  0.2010E-30 -0.8567E+13
   -1.312463    4.10297  0.8199E-13  0.5422E-07  0.4353E-10  0.2654E-04  0.1254E-30 -0.9468E+13
   -1.349960    4.10808  0.8199E-13  0.5492E-07  0.4950E-10  0.2294E-04  0.7999E-31 -0.1169E+14
   -1.387458    4.11411  0.8199E-13  0.5355E-07  0.5887E-10  0.1646E-04  0.5140E-31 -0.1749E+14
   -1.424955    4.12264  0.8199E-13  0.4874E-07  0.7759E-10  0.9171E-05  0.3329E-31 -0.3476E+14
   -1.462452    4.13814  0.8199E-13  0.3491E-07  0.1500E-09  0.1917E-05  0.2329E-31 -0.2076E+15
   -1.499948    4.20924  0.8199E-13  0.0000E+00  0.0000E+00  0.0000E+00  0.3177E-31  0.0000E+00
