 1 - depth, m
 2 - temperature, C
 3 - salinity, kg/kg
 4 - turbulent kinetic energy, m**2/s**2
 5 - dissipation rate, m**2/s**3
 6 - kinematic heat conductance, m**2/s
 7 - modulus of horizontal velocity, m/s
 8 - Richardson number, n/d
   -0.000000   -0.00000  0.6939E-12  0.4096E-13  0.8590E-16  0.1000E-09  0.0000E+00  0.1243E+17
   -0.037498    0.19140  0.4394E-12  0.4096E-13  0.8590E-16  0.1000E-09  0.0000E+00  0.1173E+17
   -0.074996    0.38198  0.2693E-12  0.4096E-13  0.8590E-16  0.1000E-09  0.0000E+00  0.1103E+17
   -0.112494    0.57150  0.1875E-12  0.4096E-13  0.8590E-16  0.1000E-09  0.0000E+00  0.1034E+17
   -0.149993    0.75976  0.1469E-12  0.1189E-12  0.8590E-16  0.1000E-09  0.0000E+00  0.9645E+16
   -0.187492    0.94652  0.1236E-12  0.3622E-12  0.9702E-16  0.1000E-09  0.0000E+00  0.8961E+16
   -0.224991    1.13156  0.1091E-12  0.7955E-12  0.1553E-15  0.1000E-09  0.0000E+00  0.8288E+16
   -0.262490    1.31467  0.9997E-13  0.1533E-11  0.2685E-15  0.1000E-09  0.0000E+00  0.7631E+16
   -0.299990    1.49570  0.9434E-13  0.2796E-11  0.4672E-15  0.1000E-09  0.0000E+00  0.6989E+16
   -0.337490    1.67445  0.9089E-13  0.4971E-11  0.8083E-15  0.1000E-09  0.0000E+00  0.6364E+16
   -0.374990    1.85074  0.8872E-13  0.8727E-11  0.1389E-14  0.1000E-09  0.0000E+00  0.5768E+16
   -0.412491    2.02465  0.8728E-13  0.1520E-10  0.2375E-14  0.1000E-09  0.0000E+00  0.5194E+16
   -0.449991    2.19618  0.8625E-13  0.2633E-10  0.4039E-14  0.1000E-09  0.0000E+00  0.4640E+16
   -0.487492    2.36515  0.8549E-13  0.4539E-10  0.6838E-14  0.1000E-09  0.0000E+00  0.4106E+16
   -0.524993    2.53143  0.8494E-13  0.7763E-10  0.1149E-13  0.1000E-09  0.0000E+00  0.3597E+16
   -0.562494    2.69505  0.8455E-13  0.1319E-09  0.1919E-13  0.1000E-09  0.0000E+00  0.3111E+16
   -0.599995    2.85592  0.8429E-13  0.2230E-09  0.3189E-13  0.1000E-09  0.0000E+00  0.2647E+16
   -0.637496    3.01397  0.8414E-13  0.3753E-09  0.5275E-13  0.1000E-09  0.0000E+00  0.2206E+16
   -0.674997    3.16914  0.8405E-13  0.6288E-09  0.8689E-13  0.1349E-09  0.0000E+00  0.1788E+16
   -0.712498    3.32139  0.8401E-13  0.1049E-08  0.1425E-12  0.2841E-09  0.0000E+00  0.1393E+16
   -0.749999    3.47060  0.8399E-13  0.1742E-08  0.2328E-12  0.6315E-09  0.0000E+00  0.1024E+16
   -0.787501    3.61727  0.8398E-13  0.2881E-08  0.3786E-12  0.1563E-08  0.0000E+00  0.6727E+15
   -0.825002    3.76112  0.8398E-13  0.4735E-08  0.6123E-12  0.5009E-08  0.0000E+00  0.3396E+15
   -0.862503    3.89987  0.8398E-13  0.7606E-08  0.9701E-12  0.4856E-07  0.0000E+00  0.5574E+14
   -0.900004    4.00568  0.8398E-13  0.8314E-08  0.1065E-11  0.2608E-04  0.0000E+00 -0.2362E+12
   -0.937505    4.00645  0.8398E-13  0.8608E-08  0.1112E-11  0.2680E-04  0.0000E+00 -0.2388E+12
   -0.975006    4.00719  0.8398E-13  0.8833E-08  0.1156E-11  0.2701E-04  0.0000E+00 -0.2457E+12
   -1.012507    4.00793  0.8398E-13  0.9018E-08  0.1202E-11  0.2707E-04  0.0000E+00 -0.2545E+12
   -1.050008    4.00867  0.8398E-13  0.9168E-08  0.1251E-11  0.2688E-04  0.0000E+00 -0.2660E+12
   -1.087508    4.00941  0.8398E-13  0.9284E-08  0.1306E-11  0.2643E-04  0.0000E+00 -0.2806E+12
   -1.125008    4.01018  0.8398E-13  0.9364E-08  0.1369E-11  0.2569E-04  0.0000E+00 -0.2997E+12
   -1.162509    4.01096  0.8398E-13  0.9402E-08  0.1446E-11  0.2462E-04  0.0000E+00 -0.3249E+12
   -1.200009    4.01179  0.8398E-13  0.9384E-08  0.1543E-11  0.2167E-04  0.0000E+00 -0.3843E+12
   -1.237508    4.01274  0.8398E-13  0.9294E-08  0.1663E-11  0.1850E-04  0.0000E+00 -0.4705E+12
   -1.275008    4.01385  0.8398E-13  0.9110E-08  0.1817E-11  0.1558E-04  0.0000E+00 -0.5875E+12
   -1.312507    4.01518  0.8398E-13  0.8802E-08  0.2025E-11  0.1258E-04  0.0000E+00 -0.7703E+12
   -1.350006    4.01684  0.8398E-13  0.8312E-08  0.2331E-11  0.9314E-05  0.0000E+00 -0.1114E+13
   -1.387505    4.01908  0.8398E-13  0.7524E-08  0.2848E-11  0.5835E-05  0.0000E+00 -0.1943E+13
   -1.425003    4.02267  0.8398E-13  0.6156E-08  0.3985E-11  0.2491E-05  0.0000E+00 -0.5218E+13
   -1.462501    4.03091  0.8398E-13  0.3699E-08  0.8012E-11  0.3562E-06  0.0000E+00 -0.4599E+14
   -1.499999    4.07500  0.8398E-13  0.0000E+00  0.0000E+00  0.0000E+00  0.0000E+00  0.0000E+00
