 1 - depth, m
 2 - temperature, C
 3 - salinity, kg/kg
 4 - turbulent kinetic energy, m**2/s**2
 5 - dissipation rate, m**2/s**3
 6 - kinematic heat conductance, m**2/s
 7 - modulus of horizontal velocity, m/s
 8 - Richardson number, n/d
   -0.000000   -0.00000  0.5820E-12  0.4096E-13  0.8590E-16  0.1000E-09  0.0000E+00  0.1195E+17
   -0.037498    0.18372  0.4439E-12  0.4096E-13  0.8590E-16  0.1000E-09  0.0000E+00  0.1131E+17
   -0.074996    0.36675  0.2970E-12  0.4096E-13  0.8590E-16  0.1000E-09  0.0000E+00  0.1066E+17
   -0.112494    0.54891  0.2045E-12  0.4096E-13  0.8590E-16  0.1000E-09  0.0000E+00  0.1003E+17
   -0.149993    0.73002  0.1546E-12  0.4096E-13  0.8590E-16  0.1000E-09  0.0000E+00  0.9394E+16
   -0.187492    0.90993  0.1273E-12  0.5637E-13  0.8590E-16  0.1000E-09  0.0000E+00  0.8767E+16
   -0.224991    1.08843  0.1112E-12  0.2360E-12  0.8590E-16  0.1000E-09  0.0000E+00  0.8149E+16
   -0.262490    1.26536  0.1013E-12  0.5828E-12  0.1275E-15  0.1000E-09  0.0000E+00  0.7543E+16
   -0.299990    1.44062  0.9517E-13  0.1179E-11  0.2196E-15  0.1000E-09  0.0000E+00  0.6950E+16
   -0.337490    1.61404  0.9138E-13  0.2205E-11  0.3860E-15  0.1000E-09  0.0000E+00  0.6370E+16
   -0.374990    1.78545  0.8899E-13  0.3986E-11  0.6758E-15  0.1000E-09  0.0000E+00  0.5812E+16
   -0.412491    1.95491  0.8743E-13  0.7090E-11  0.1175E-14  0.1000E-09  0.0000E+00  0.5271E+16
   -0.449991    2.12237  0.8634E-13  0.1250E-10  0.2032E-14  0.1000E-09  0.0000E+00  0.4745E+16
   -0.487492    2.28764  0.8556E-13  0.2189E-10  0.3494E-14  0.1000E-09  0.0000E+00  0.4235E+16
   -0.524993    2.45053  0.8499E-13  0.3804E-10  0.5962E-14  0.1000E-09  0.0000E+00  0.3746E+16
   -0.562494    2.61105  0.8459E-13  0.6562E-10  0.1011E-13  0.1000E-09  0.0000E+00  0.3273E+16
   -0.599995    2.76895  0.8433E-13  0.1126E-09  0.1704E-13  0.1000E-09  0.0000E+00  0.2819E+16
   -0.637496    2.92399  0.8416E-13  0.1924E-09  0.2860E-13  0.1000E-09  0.0000E+00  0.2385E+16
   -0.674997    3.07592  0.8407E-13  0.3271E-09  0.4781E-13  0.1000E-09  0.0000E+00  0.1973E+16
   -0.712498    3.22457  0.8402E-13  0.5537E-09  0.7955E-13  0.1393E-09  0.0000E+00  0.1585E+16
   -0.750000    3.36977  0.8400E-13  0.9333E-09  0.1318E-12  0.2983E-09  0.0000E+00  0.1227E+16
   -0.787501    3.51212  0.8399E-13  0.1566E-08  0.2175E-12  0.6779E-09  0.0000E+00  0.8908E+15
   -0.825002    3.65185  0.8398E-13  0.2615E-08  0.3573E-12  0.1731E-08  0.0000E+00  0.5730E+15
   -0.862503    3.78876  0.8398E-13  0.4340E-08  0.5834E-12  0.5945E-08  0.0000E+00  0.2723E+15
   -0.900004    3.92044  0.8398E-13  0.6951E-08  0.9229E-12  0.8262E-07  0.0000E+00  0.3091E+14
   -0.937505    4.00641  0.8398E-13  0.7687E-08  0.1025E-11  0.2320E-04  0.0000E+00 -0.2643E+12
   -0.975006    4.00723  0.8398E-13  0.8006E-08  0.1079E-11  0.2431E-04  0.0000E+00 -0.2626E+12
   -1.012507    4.00802  0.8398E-13  0.8255E-08  0.1130E-11  0.2450E-04  0.0000E+00 -0.2710E+12
   -1.050008    4.00880  0.8398E-13  0.8456E-08  0.1184E-11  0.2449E-04  0.0000E+00 -0.2817E+12
   -1.087508    4.00959  0.8398E-13  0.8617E-08  0.1243E-11  0.2421E-04  0.0000E+00 -0.2960E+12
   -1.125009    4.01039  0.8398E-13  0.8739E-08  0.1311E-11  0.2365E-04  0.0000E+00 -0.3152E+12
   -1.162509    4.01121  0.8398E-13  0.8813E-08  0.1391E-11  0.2198E-04  0.0000E+00 -0.3534E+12
   -1.200009    4.01210  0.8398E-13  0.8828E-08  0.1487E-11  0.1949E-04  0.0000E+00 -0.4162E+12
   -1.237509    4.01311  0.8398E-13  0.8771E-08  0.1605E-11  0.1703E-04  0.0000E+00 -0.4998E+12
   -1.275008    4.01427  0.8398E-13  0.8622E-08  0.1755E-11  0.1456E-04  0.0000E+00 -0.6160E+12
   -1.312507    4.01565  0.8398E-13  0.8350E-08  0.1955E-11  0.1186E-04  0.0000E+00 -0.8026E+12
   -1.350006    4.01734  0.8398E-13  0.7900E-08  0.2248E-11  0.8828E-05  0.0000E+00 -0.1156E+13
   -1.387505    4.01964  0.8398E-13  0.7162E-08  0.2744E-11  0.5558E-05  0.0000E+00 -0.2008E+13
   -1.425003    4.02329  0.8398E-13  0.5866E-08  0.3829E-11  0.2385E-05  0.0000E+00 -0.5364E+13
   -1.462501    4.03161  0.8398E-13  0.3544E-08  0.7636E-11  0.3459E-06  0.0000E+00 -0.4600E+14
   -1.499999    4.07536  0.8398E-13  0.0000E+00  0.0000E+00  0.0000E+00  0.0000E+00  0.0000E+00
