 1 - depth, m
 2 - temperature, C
 3 - salinity, kg/kg
 4 - turbulent kinetic energy, m**2/s**2
 5 - dissipation rate, m**2/s**3
 6 - kinematic heat conductance, m**2/s
 7 - modulus of horizontal velocity, m/s
 8 - Richardson number, n/d
   -0.000000   -0.00000  0.4694E-12  0.3251E-12  0.8714E-16  0.1000E-09  0.0000E+00  0.1413E+17
   -0.037498    0.21834  0.3246E-12  0.4900E-12  0.1021E-15  0.1000E-09  0.0000E+00  0.1318E+17
   -0.074996    0.43484  0.2573E-12  0.8519E-12  0.1551E-15  0.1000E-09  0.0000E+00  0.1224E+17
   -0.112494    0.64937  0.2079E-12  0.1516E-11  0.2591E-15  0.1000E-09  0.0000E+00  0.1133E+17
   -0.149992    0.86176  0.1667E-12  0.2685E-11  0.4437E-15  0.1000E-09  0.0000E+00  0.1044E+17
   -0.187491    1.07186  0.1354E-12  0.4723E-11  0.7623E-15  0.1000E-09  0.0000E+00  0.9567E+16
   -0.224990    1.27948  0.1145E-12  0.8256E-11  0.1306E-14  0.1000E-09  0.0000E+00  0.8721E+16
   -0.262490    1.48443  0.1021E-12  0.1434E-10  0.2228E-14  0.1000E-09  0.0000E+00  0.7905E+16
   -0.299990    1.68664  0.9536E-13  0.2478E-10  0.3780E-14  0.1000E-09  0.0000E+00  0.7116E+16
   -0.337489    1.88593  0.9180E-13  0.4259E-10  0.6384E-14  0.1000E-09  0.0000E+00  0.6354E+16
   -0.374990    2.08210  0.8978E-13  0.7290E-10  0.1074E-13  0.1000E-09  0.0000E+00  0.5640E+16
   -0.412490    2.27560  0.8840E-13  0.1242E-09  0.1798E-13  0.1000E-09  0.0000E+00  0.4960E+16
   -0.449990    2.46665  0.8725E-13  0.2108E-09  0.2999E-13  0.1000E-09  0.0000E+00  0.4305E+16
   -0.487491    2.65513  0.8624E-13  0.3563E-09  0.4983E-13  0.1000E-09  0.0000E+00  0.3676E+16
   -0.524992    2.84095  0.8540E-13  0.5979E-09  0.8223E-13  0.1000E-09  0.0000E+00  0.3075E+16
   -0.562493    3.02415  0.8477E-13  0.9972E-09  0.1349E-12  0.1498E-09  0.0000E+00  0.2500E+16
   -0.599994    3.20466  0.8437E-13  0.1655E-08  0.2202E-12  0.3135E-09  0.0000E+00  0.1950E+16
   -0.637495    3.38236  0.8414E-13  0.2735E-08  0.3579E-12  0.6971E-09  0.0000E+00  0.1425E+16
   -0.674996    3.55699  0.8403E-13  0.4497E-08  0.5790E-12  0.1737E-08  0.0000E+00  0.9254E+15
   -0.712497    3.72782  0.8399E-13  0.7351E-08  0.9316E-12  0.5690E-08  0.0000E+00  0.4545E+15
   -0.749998    3.89164  0.8398E-13  0.1169E-07  0.1463E-11  0.6130E-07  0.0000E+00  0.6618E+14
   -0.787499    4.00927  0.8398E-13  0.1230E-07  0.1543E-11  0.3868E-04  0.0000E+00 -0.2233E+12
   -0.825000    4.00988  0.8398E-13  0.1258E-07  0.1586E-11  0.3815E-04  0.0000E+00 -0.2327E+12
   -0.862501    4.01051  0.8398E-13  0.1283E-07  0.1633E-11  0.3842E-04  0.0000E+00 -0.2377E+12
   -0.900002    4.01113  0.8398E-13  0.1304E-07  0.1682E-11  0.3853E-04  0.0000E+00 -0.2437E+12
   -0.937503    4.01174  0.8398E-13  0.1322E-07  0.1734E-11  0.3842E-04  0.0000E+00 -0.2511E+12
   -0.975004    4.01237  0.8398E-13  0.1337E-07  0.1790E-11  0.3809E-04  0.0000E+00 -0.2602E+12
   -1.012505    4.01300  0.8398E-13  0.1348E-07  0.1850E-11  0.3754E-04  0.0000E+00 -0.2720E+12
   -1.050006    4.01364  0.8398E-13  0.1356E-07  0.1917E-11  0.3674E-04  0.0000E+00 -0.2865E+12
   -1.087506    4.01430  0.8398E-13  0.1360E-07  0.1991E-11  0.3570E-04  0.0000E+00 -0.3043E+12
   -1.125006    4.01499  0.8398E-13  0.1360E-07  0.2074E-11  0.3438E-04  0.0000E+00 -0.3256E+12
   -1.162506    4.01570  0.8398E-13  0.1355E-07  0.2169E-11  0.3278E-04  0.0000E+00 -0.3521E+12
   -1.200006    4.01646  0.8398E-13  0.1344E-07  0.2279E-11  0.3089E-04  0.0000E+00 -0.3856E+12
   -1.237506    4.01726  0.8398E-13  0.1325E-07  0.2424E-11  0.2849E-04  0.0000E+00 -0.4324E+12
   -1.275005    4.01814  0.8398E-13  0.1293E-07  0.2634E-11  0.2219E-04  0.0000E+00 -0.5762E+12
   -1.312505    4.01928  0.8398E-13  0.1244E-07  0.2926E-11  0.1705E-04  0.0000E+00 -0.7848E+12
   -1.350004    4.02077  0.8398E-13  0.1172E-07  0.3359E-11  0.1243E-04  0.0000E+00 -0.1139E+13
   -1.387502    4.02282  0.8398E-13  0.1062E-07  0.4095E-11  0.7770E-05  0.0000E+00 -0.1963E+13
   -1.425000    4.02610  0.8398E-13  0.8739E-08  0.5721E-11  0.3346E-05  0.0000E+00 -0.5135E+13
   -1.462498    4.03363  0.8398E-13  0.5148E-08  0.1183E-10  0.4497E-06  0.0000E+00 -0.4905E+14
   -1.499996    4.07855  0.8398E-13  0.0000E+00  0.0000E+00  0.0000E+00  0.0000E+00  0.0000E+00
