 1 - depth, m
 2 - temperature, C
 3 - salinity, kg/kg
 4 - turbulent kinetic energy, m**2/s**2
 5 - dissipation rate, m**2/s**3
 6 - kinematic heat conductance, m**2/s
 7 - modulus of horizontal velocity, m/s
 8 - Richardson number, n/d
   -0.000000   -0.00000  0.6049E-12  0.1707E-12  0.8590E-16  0.1000E-09  0.0000E+00  0.1372E+17
   -0.037498    0.21181  0.3944E-12  0.3332E-12  0.8785E-16  0.1000E-09  0.0000E+00  0.1275E+17
   -0.074996    0.42070  0.2763E-12  0.6655E-12  0.1313E-15  0.1000E-09  0.0000E+00  0.1182E+17
   -0.112494    0.62667  0.1842E-12  0.1254E-11  0.2216E-15  0.1000E-09  0.0000E+00  0.1093E+17
   -0.149993    0.82975  0.1296E-12  0.2275E-11  0.3832E-15  0.1000E-09  0.0000E+00  0.1007E+17
   -0.187491    1.02998  0.1044E-12  0.4047E-11  0.6626E-15  0.1000E-09  0.0000E+00  0.9256E+16
   -0.224991    1.22740  0.9496E-13  0.7117E-11  0.1141E-14  0.1000E-09  0.0000E+00  0.8472E+16
   -0.262490    1.42205  0.9192E-13  0.1242E-10  0.1953E-14  0.1000E-09  0.0000E+00  0.7731E+16
   -0.299990    1.61419  0.9107E-13  0.2153E-10  0.3326E-14  0.1000E-09  0.0000E+00  0.7020E+16
   -0.337490    1.80390  0.9083E-13  0.3714E-10  0.5637E-14  0.1000E-09  0.0000E+00  0.6337E+16
   -0.374990    1.99117  0.9073E-13  0.6378E-10  0.9513E-14  0.1000E-09  0.0000E+00  0.5726E+16
   -0.412490    2.17759  0.9060E-13  0.1091E-09  0.1599E-13  0.1000E-09  0.0000E+00  0.5153E+16
   -0.449991    2.36414  0.9038E-13  0.1857E-09  0.2676E-13  0.1000E-09  0.0000E+00  0.4583E+16
   -0.487491    2.55087  0.9000E-13  0.3149E-09  0.4462E-13  0.1000E-09  0.0000E+00  0.4014E+16
   -0.524992    2.73775  0.8940E-13  0.5304E-09  0.7390E-13  0.1000E-09  0.0000E+00  0.3442E+16
   -0.562493    2.92449  0.8856E-13  0.8877E-09  0.1216E-12  0.1175E-09  0.0000E+00  0.2874E+16
   -0.599994    3.11104  0.8748E-13  0.1479E-08  0.1993E-12  0.2396E-09  0.0000E+00  0.2310E+16
   -0.637495    3.29719  0.8622E-13  0.2452E-08  0.3251E-12  0.5160E-09  0.0000E+00  0.1749E+16
   -0.674996    3.48267  0.8488E-13  0.4049E-08  0.5282E-12  0.1227E-08  0.0000E+00  0.1195E+16
   -0.712497    3.66684  0.8370E-13  0.6650E-08  0.8539E-12  0.3642E-08  0.0000E+00  0.6508E+15
   -0.749999    3.84744  0.8305E-13  0.1077E-07  0.1363E-11  0.2541E-07  0.0000E+00  0.1487E+15
   -0.787500    4.00430  0.8294E-13  0.1151E-07  0.1461E-11  0.3565E-04  0.0000E+00 -0.2099E+12
   -0.825001    4.00502  0.8294E-13  0.1182E-07  0.1511E-11  0.3548E-04  0.0000E+00 -0.2203E+12
   -0.862502    4.00576  0.8294E-13  0.1208E-07  0.1561E-11  0.3581E-04  0.0000E+00 -0.2279E+12
   -0.900003    4.00650  0.8294E-13  0.1232E-07  0.1614E-11  0.3598E-04  0.0000E+00 -0.2366E+12
   -0.937504    4.00723  0.8294E-13  0.1252E-07  0.1671E-11  0.3593E-04  0.0000E+00 -0.2468E+12
   -0.975005    4.00797  0.8294E-13  0.1270E-07  0.1734E-11  0.3567E-04  0.0000E+00 -0.2588E+12
   -1.012506    4.00872  0.8294E-13  0.1285E-07  0.1802E-11  0.3520E-04  0.0000E+00 -0.2742E+12
   -1.050006    4.00949  0.8294E-13  0.1296E-07  0.1878E-11  0.3449E-04  0.0000E+00 -0.2929E+12
   -1.087507    4.01028  0.8294E-13  0.1304E-07  0.1962E-11  0.3355E-04  0.0000E+00 -0.3155E+12
   -1.125007    4.01111  0.8294E-13  0.1308E-07  0.2057E-11  0.3233E-04  0.0000E+00 -0.3417E+12
   -1.162507    4.01197  0.8294E-13  0.1308E-07  0.2165E-11  0.3085E-04  0.0000E+00 -0.3741E+12
   -1.200007    4.01289  0.8294E-13  0.1302E-07  0.2296E-11  0.2904E-04  0.0000E+00 -0.4156E+12
   -1.237507    4.01387  0.8294E-13  0.1288E-07  0.2473E-11  0.2551E-04  0.0000E+00 -0.4960E+12
   -1.275006    4.01499  0.8294E-13  0.1262E-07  0.2715E-11  0.2027E-04  0.0000E+00 -0.6588E+12
   -1.312506    4.01642  0.8294E-13  0.1219E-07  0.3049E-11  0.1586E-04  0.0000E+00 -0.8976E+12
   -1.350005    4.01827  0.8294E-13  0.1154E-07  0.3541E-11  0.1165E-04  0.0000E+00 -0.1320E+13
   -1.387503    4.02081  0.8294E-13  0.1052E-07  0.4370E-11  0.7327E-05  0.0000E+00 -0.2320E+13
   -1.425001    4.02486  0.8294E-13  0.8735E-08  0.6186E-11  0.3204E-05  0.0000E+00 -0.6202E+13
   -1.462499    4.03404  0.8294E-13  0.5367E-08  0.1284E-10  0.4772E-06  0.0000E+00 -0.5753E+14
   -1.499997    4.08445  0.8294E-13  0.0000E+00  0.0000E+00  0.0000E+00  0.0000E+00  0.0000E+00
