 1 - depth, m
 2 - temperature, C
 3 - salinity, kg/kg
 4 - turbulent kinetic energy, m**2/s**2
 5 - dissipation rate, m**2/s**3
 6 - kinematic heat conductance, m**2/s
 7 - modulus of horizontal velocity, m/s
 8 - Richardson number, n/d
   -0.000000   -0.00000  0.1690E-11  0.6145E-11  0.3372E-14  0.1000E-09  0.0000E+00  0.2311E+17
   -0.037497    0.36438  0.9840E-16  0.1268E-10  0.4228E-14  0.1000E-09  0.0000E+00  0.1865E+17
   -0.074995    0.68973  0.1259E-12  0.2768E-10  0.7703E-14  0.1000E-09  0.0000E+00  0.1492E+17
   -0.112493    0.97662  0.8330E-13  0.5830E-10  0.1523E-13  0.1000E-09  0.0000E+00  0.1189E+17
   -0.149991    1.22782  0.9411E-13  0.1198E-09  0.3033E-13  0.1000E-09  0.0000E+00  0.9521E+16
   -0.187490    1.44773  0.9080E-13  0.2427E-09  0.5999E-13  0.1000E-09  0.0000E+00  0.7728E+16
   -0.224989    1.64214  0.9088E-13  0.4868E-09  0.1177E-12  0.1000E-09  0.0000E+00  0.6442E+16
   -0.262488    1.81831  0.9077E-13  0.9672E-09  0.2292E-12  0.1200E-09  0.0000E+00  0.5665E+16
   -0.299988    1.98698  0.9079E-13  0.1905E-08  0.4423E-12  0.2248E-09  0.0000E+00  0.5279E+16
   -0.337487    2.15953  0.9077E-13  0.3721E-08  0.8470E-12  0.4387E-09  0.0000E+00  0.5202E+16
   -0.374987    2.34936  0.9077E-13  0.7215E-08  0.1610E-11  0.7902E-09  0.0000E+00  0.5520E+16
   -0.412487    2.58170  0.9074E-13  0.1388E-07  0.3039E-11  0.1448E-08  0.0000E+00  0.5764E+16
   -0.449988    2.87987  0.9054E-13  0.2648E-07  0.5690E-11  0.3165E-08  0.0000E+00  0.5277E+16
   -0.487488    3.25903  0.8925E-13  0.4978E-07  0.1051E-10  0.1522E-07  0.0000E+00  0.3480E+16
   -0.524989    3.70035  0.8626E-13  0.7054E-07  0.1515E-10  0.4901E-04  0.0000E+00  0.1324E+16
   -0.562489    3.97063  0.8407E-13  0.8014E-07  0.1738E-10  0.9867E-04  0.0000E+00  0.1505E+15
   -0.599990    4.05356  0.8345E-13  0.8116E-07  0.1766E-10  0.1254E-03  0.0000E+00 -0.7481E+12
   -0.637491    4.05426  0.8345E-13  0.8186E-07  0.1790E-10  0.1249E-03  0.0000E+00 -0.7635E+12
   -0.674992    4.05497  0.8345E-13  0.8245E-07  0.1815E-10  0.1249E-03  0.0000E+00 -0.7726E+12
   -0.712493    4.05568  0.8345E-13  0.8294E-07  0.1843E-10  0.1245E-03  0.0000E+00 -0.7857E+12
   -0.749993    4.05639  0.8345E-13  0.8333E-07  0.1872E-10  0.1238E-03  0.0000E+00 -0.7976E+12
   -0.787494    4.05711  0.8344E-13  0.8360E-07  0.1903E-10  0.1227E-03  0.0000E+00 -0.8097E+12
   -0.824995    4.05783  0.8344E-13  0.8377E-07  0.1937E-10  0.1212E-03  0.0000E+00 -0.8258E+12
   -0.862496    4.05855  0.8344E-13  0.8382E-07  0.1974E-10  0.1193E-03  0.0000E+00 -0.8444E+12
   -0.899997    4.05928  0.8344E-13  0.8376E-07  0.2014E-10  0.1170E-03  0.0000E+00 -0.8676E+12
   -0.937498    4.06003  0.8344E-13  0.8359E-07  0.2058E-10  0.1144E-03  0.0000E+00 -0.8944E+12
   -0.974998    4.06079  0.8344E-13  0.8329E-07  0.2106E-10  0.1113E-03  0.0000E+00 -0.9271E+12
   -1.012499    4.06156  0.8344E-13  0.8287E-07  0.2161E-10  0.1078E-03  0.0000E+00 -0.9705E+12
   -1.049999    4.06237  0.8344E-13  0.8230E-07  0.2223E-10  0.1038E-03  0.0000E+00 -0.1025E+13
   -1.087499    4.06321  0.8344E-13  0.8157E-07  0.2293E-10  0.9933E-04  0.0000E+00 -0.1089E+13
   -1.125000    4.06409  0.8343E-13  0.8066E-07  0.2376E-10  0.9437E-04  0.0000E+00 -0.1160E+13
   -1.162499    4.06502  0.8343E-13  0.7954E-07  0.2472E-10  0.8890E-04  0.0000E+00 -0.1245E+13
   -1.199999    4.06601  0.8343E-13  0.7819E-07  0.2587E-10  0.8286E-04  0.0000E+00 -0.1352E+13
   -1.237499    4.06706  0.8343E-13  0.7657E-07  0.2727E-10  0.7622E-04  0.0000E+00 -0.1490E+13
   -1.274998    4.06821  0.8343E-13  0.7463E-07  0.2902E-10  0.6895E-04  0.0000E+00 -0.1673E+13
   -1.312497    4.06948  0.8343E-13  0.7227E-07  0.3130E-10  0.6112E-04  0.0000E+00 -0.1920E+13
   -1.349995    4.07090  0.8343E-13  0.6904E-07  0.3475E-10  0.4742E-04  0.0000E+00 -0.2476E+13
   -1.387494    4.07275  0.8343E-13  0.6391E-07  0.4119E-10  0.2634E-04  0.0000E+00 -0.4597E+13
   -1.424992    4.07605  0.8343E-13  0.5508E-07  0.5597E-10  0.1209E-04  0.0000E+00 -0.1055E+14
   -1.462490    4.08319  0.8343E-13  0.3351E-07  0.1221E-09  0.1629E-05  0.0000E+00 -0.9486E+14
   -1.499987    4.13247  0.8342E-13  0.0000E+00  0.0000E+00  0.0000E+00  0.0000E+00  0.0000E+00
