 1 - depth, m
 2 - temperature, C
 3 - salinity, kg/kg
 4 - turbulent kinetic energy, m**2/s**2
 5 - dissipation rate, m**2/s**3
 6 - kinematic heat conductance, m**2/s
 7 - modulus of horizontal velocity, m/s
 8 - Richardson number, n/d
   -0.000000   -0.00000  0.1864E-12  0.4096E-13  0.8590E-16  0.1000E-09  0.0000E+00  0.9380E+16
   -0.037498    0.14347  0.2677E-12  0.4096E-13  0.8590E-16  0.1000E-09  0.0000E+00  0.9019E+16
   -0.074996    0.28702  0.3001E-12  0.4096E-13  0.8590E-16  0.1000E-09  0.0000E+00  0.8653E+16
   -0.112494    0.43055  0.2824E-12  0.4096E-13  0.8590E-16  0.1000E-09  0.0000E+00  0.8283E+16
   -0.149993    0.57394  0.2401E-12  0.4096E-13  0.8590E-16  0.1000E-09  0.0000E+00  0.7910E+16
   -0.187492    0.71710  0.1955E-12  0.4096E-13  0.8590E-16  0.1000E-09  0.0000E+00  0.7535E+16
   -0.224992    0.85990  0.1588E-12  0.4096E-13  0.8590E-16  0.1000E-09  0.0000E+00  0.7158E+16
   -0.262491    1.00224  0.1324E-12  0.4096E-13  0.8590E-16  0.1000E-09  0.0000E+00  0.6786E+16
   -0.299991    1.14408  0.1147E-12  0.4096E-13  0.8590E-16  0.1000E-09  0.0000E+00  0.6414E+16
   -0.337491    1.28532  0.1033E-12  0.4096E-13  0.8590E-16  0.1000E-09  0.0000E+00  0.6043E+16
   -0.374992    1.42586  0.9626E-13  0.4096E-13  0.8590E-16  0.1000E-09  0.0000E+00  0.5673E+16
   -0.412492    1.56555  0.9186E-13  0.4096E-13  0.8590E-16  0.1000E-09  0.0000E+00  0.5306E+16
   -0.449993    1.70425  0.8909E-13  0.4096E-13  0.8590E-16  0.1000E-09  0.0000E+00  0.4943E+16
   -0.487494    1.84183  0.8733E-13  0.4096E-13  0.8590E-16  0.1000E-09  0.0000E+00  0.4587E+16
   -0.524995    1.97822  0.8617E-13  0.8463E-13  0.8590E-16  0.1000E-09  0.0000E+00  0.4248E+16
   -0.562496    2.11369  0.8541E-13  0.2905E-12  0.9765E-16  0.1000E-09  0.0000E+00  0.3914E+16
   -0.599997    2.24812  0.8490E-13  0.6816E-12  0.1682E-15  0.1000E-09  0.0000E+00  0.3585E+16
   -0.637498    2.38143  0.8456E-13  0.1392E-11  0.3122E-15  0.1000E-09  0.0000E+00  0.3264E+16
   -0.674999    2.51354  0.8434E-13  0.2695E-11  0.5800E-15  0.1000E-09  0.0000E+00  0.2950E+16
   -0.712501    2.64436  0.8419E-13  0.5099E-11  0.1069E-14  0.1000E-09  0.0000E+00  0.2643E+16
   -0.750002    2.77381  0.8410E-13  0.9530E-11  0.1954E-14  0.1000E-09  0.0000E+00  0.2351E+16
   -0.787503    2.90216  0.8405E-13  0.1767E-10  0.3547E-14  0.1000E-09  0.0000E+00  0.2068E+16
   -0.825005    3.02946  0.8401E-13  0.3254E-10  0.6401E-14  0.1000E-09  0.0000E+00  0.1792E+16
   -0.862506    3.15566  0.8400E-13  0.5955E-10  0.1148E-13  0.1000E-09  0.0000E+00  0.1523E+16
   -0.900007    3.28073  0.8399E-13  0.1083E-09  0.2048E-13  0.1000E-09  0.0000E+00  0.1262E+16
   -0.937508    3.40463  0.8398E-13  0.1960E-09  0.3634E-13  0.1055E-09  0.0000E+00  0.1008E+16
   -0.975009    3.52733  0.8398E-13  0.3525E-09  0.6410E-13  0.2336E-09  0.0000E+00  0.7620E+15
   -1.012510    3.64868  0.8398E-13  0.6319E-09  0.1127E-12  0.5990E-09  0.0000E+00  0.5227E+15
   -1.050011    3.76824  0.8398E-13  0.1130E-08  0.1978E-12  0.1876E-08  0.0000E+00  0.2931E+15
   -1.087512    3.88514  0.8398E-13  0.2002E-08  0.3441E-12  0.1203E-07  0.0000E+00  0.7998E+14
   -1.125012    3.99276  0.8398E-13  0.2733E-08  0.4714E-12  0.4887E-05  0.0000E+00 -0.4113E+12
   -1.162513    3.99614  0.8398E-13  0.3139E-08  0.5628E-12  0.5935E-05  0.0000E+00 -0.4740E+12
   -1.200013    3.99888  0.8398E-13  0.3474E-08  0.6614E-12  0.6410E-05  0.0000E+00 -0.5461E+12
   -1.237513    4.00142  0.8398E-13  0.3738E-08  0.7720E-12  0.6435E-05  0.0000E+00 -0.6469E+12
   -1.275012    4.00395  0.8398E-13  0.3926E-08  0.9020E-12  0.6058E-05  0.0000E+00 -0.8003E+12
   -1.312512    4.00665  0.8398E-13  0.4019E-08  0.1065E-11  0.5303E-05  0.0000E+00 -0.1057E+13
   -1.350011    4.00974  0.8398E-13  0.3986E-08  0.1288E-11  0.4195E-05  0.0000E+00 -0.1551E+13
   -1.387510    4.01364  0.8398E-13  0.3762E-08  0.1642E-11  0.2795E-05  0.0000E+00 -0.2753E+13
   -1.425008    4.01946  0.8398E-13  0.3209E-08  0.2348E-11  0.1302E-05  0.0000E+00 -0.7322E+13
   -1.462506    4.03141  0.8398E-13  0.2170E-08  0.4446E-11  0.2490E-06  0.0000E+00 -0.4735E+14
   -1.500004    4.07622  0.8398E-13  0.0000E+00  0.0000E+00  0.0000E+00  0.0000E+00  0.0000E+00
