 1 - depth, m
 2 - temperature, C
 3 - salinity, kg/kg
 4 - turbulent kinetic energy, m**2/s**2
 5 - dissipation rate, m**2/s**3
 6 - kinematic heat conductance, m**2/s
 7 - modulus of horizontal velocity, m/s
 8 - Richardson number, n/d
   -0.000000   -0.00000  0.1487E-12  0.4096E-13  0.8590E-16  0.1000E-09  0.0000E+00  0.8752E+16
   -0.037498    0.13368  0.1993E-12  0.4096E-13  0.8590E-16  0.1000E-09  0.0000E+00  0.8434E+16
   -0.074996    0.26736  0.2343E-12  0.4096E-13  0.8590E-16  0.1000E-09  0.0000E+00  0.8113E+16
   -0.112494    0.40095  0.2482E-12  0.4096E-13  0.8590E-16  0.1000E-09  0.0000E+00  0.7789E+16
   -0.149993    0.53439  0.2402E-12  0.4096E-13  0.8590E-16  0.1000E-09  0.0000E+00  0.7463E+16
   -0.187492    0.66758  0.2169E-12  0.4096E-13  0.8590E-16  0.1000E-09  0.0000E+00  0.7136E+16
   -0.224992    0.80044  0.1875E-12  0.4096E-13  0.8590E-16  0.1000E-09  0.0000E+00  0.6809E+16
   -0.262491    0.93288  0.1592E-12  0.4096E-13  0.8590E-16  0.1000E-09  0.0000E+00  0.6484E+16
   -0.299991    1.06489  0.1359E-12  0.4096E-13  0.8590E-16  0.1000E-09  0.0000E+00  0.6161E+16
   -0.337491    1.19640  0.1185E-12  0.4096E-13  0.8590E-16  0.1000E-09  0.0000E+00  0.5839E+16
   -0.374992    1.32731  0.1065E-12  0.4096E-13  0.8590E-16  0.1000E-09  0.0000E+00  0.5517E+16
   -0.412492    1.45752  0.9847E-13  0.4096E-13  0.8590E-16  0.1000E-09  0.0000E+00  0.5197E+16
   -0.449993    1.58692  0.9328E-13  0.4096E-13  0.8590E-16  0.1000E-09  0.0000E+00  0.4880E+16
   -0.487494    1.71540  0.8996E-13  0.4096E-13  0.8590E-16  0.1000E-09  0.0000E+00  0.4569E+16
   -0.524995    1.84294  0.8784E-13  0.4096E-13  0.8590E-16  0.1000E-09  0.0000E+00  0.4273E+16
   -0.562496    1.96977  0.8648E-13  0.4096E-13  0.8590E-16  0.1000E-09  0.0000E+00  0.3980E+16
   -0.599997    2.09582  0.8560E-13  0.4096E-13  0.8590E-16  0.1000E-09  0.0000E+00  0.3692E+16
   -0.637498    2.22103  0.8502E-13  0.4096E-13  0.8590E-16  0.1000E-09  0.0000E+00  0.3408E+16
   -0.674999    2.34534  0.8464E-13  0.4096E-13  0.8590E-16  0.1000E-09  0.0000E+00  0.3129E+16
   -0.712501    2.46869  0.8439E-13  0.8413E-13  0.8596E-16  0.1000E-09  0.0000E+00  0.2856E+16
   -0.750002    2.59101  0.8423E-13  0.2838E-12  0.1120E-15  0.1000E-09  0.0000E+00  0.2593E+16
   -0.787503    2.71245  0.8413E-13  0.6959E-12  0.2189E-15  0.1000E-09  0.0000E+00  0.2337E+16
   -0.825005    2.83303  0.8407E-13  0.1524E-11  0.4491E-15  0.1000E-09  0.0000E+00  0.2085E+16
   -0.862506    2.95267  0.8403E-13  0.3208E-11  0.9166E-15  0.1000E-09  0.0000E+00  0.1839E+16
   -0.900007    3.07133  0.8401E-13  0.6643E-11  0.1855E-14  0.1000E-09  0.0000E+00  0.1599E+16
   -0.937508    3.18890  0.8399E-13  0.1363E-10  0.3725E-14  0.1000E-09  0.0000E+00  0.1364E+16
   -0.975009    3.30532  0.8399E-13  0.2777E-10  0.7436E-14  0.1000E-09  0.0000E+00  0.1135E+16
   -1.012510    3.42044  0.8398E-13  0.5637E-10  0.1479E-13  0.1000E-09  0.0000E+00  0.9117E+15
   -1.050011    3.53382  0.8398E-13  0.1142E-09  0.2937E-13  0.1187E-09  0.0000E+00  0.6962E+15
   -1.087512    3.64511  0.8398E-13  0.2304E-09  0.5806E-13  0.3272E-09  0.0000E+00  0.4907E+15
   -1.125012    3.75384  0.8398E-13  0.4621E-09  0.1142E-12  0.1045E-08  0.0000E+00  0.3007E+15
   -1.162513    3.86084  0.8398E-13  0.9196E-09  0.2229E-12  0.5118E-08  0.0000E+00  0.1190E+15
   -1.200013    3.96443  0.8398E-13  0.1678E-08  0.4034E-12  0.4935E-06  0.0000E+00  0.3410E+13
   -1.237513    3.99914  0.8398E-13  0.2441E-08  0.6122E-12  0.3578E-05  0.0000E+00 -0.9604E+12
   -1.275012    4.00336  0.8398E-13  0.2886E-08  0.7818E-12  0.3945E-05  0.0000E+00 -0.1129E+13
   -1.312512    4.00721  0.8398E-13  0.3188E-08  0.9714E-12  0.3819E-05  0.0000E+00 -0.1423E+13
   -1.350011    4.01121  0.8398E-13  0.3333E-08  0.1209E-11  0.3258E-05  0.0000E+00 -0.1995E+13
   -1.387510    4.01591  0.8398E-13  0.3267E-08  0.1557E-11  0.2316E-05  0.0000E+00 -0.3366E+13
   -1.425008    4.02247  0.8398E-13  0.2872E-08  0.2211E-11  0.1152E-05  0.0000E+00 -0.8332E+13
   -1.462506    4.03503  0.8398E-13  0.1993E-08  0.4069E-11  0.2344E-06  0.0000E+00 -0.4795E+14
   -1.500004    4.07851  0.8398E-13  0.0000E+00  0.0000E+00  0.0000E+00  0.0000E+00  0.0000E+00
