 1 - depth, m
 2 - temperature, C
 3 - salinity, kg/kg
 4 - turbulent kinetic energy, m**2/s**2
 5 - dissipation rate, m**2/s**3
 6 - kinematic heat conductance, m**2/s
 7 - modulus of horizontal velocity, m/s
 8 - Richardson number, n/d
   -0.000000   -0.00000  0.1425E-12  0.4096E-13  0.8590E-16  0.1000E-09  0.0000E+00  0.8681E+16
   -0.037498    0.13258  0.1957E-12  0.4096E-13  0.8590E-16  0.1000E-09  0.0000E+00  0.8381E+16
   -0.074996    0.26536  0.2312E-12  0.4096E-13  0.8590E-16  0.1000E-09  0.0000E+00  0.8072E+16
   -0.112495    0.39819  0.2460E-12  0.4096E-13  0.8590E-16  0.1000E-09  0.0000E+00  0.7757E+16
   -0.149993    0.53095  0.2395E-12  0.4096E-13  0.8590E-16  0.1000E-09  0.0000E+00  0.7438E+16
   -0.187492    0.66352  0.2175E-12  0.4096E-13  0.8590E-16  0.1000E-09  0.0000E+00  0.7115E+16
   -0.224992    0.79581  0.1889E-12  0.4096E-13  0.8590E-16  0.1000E-09  0.0000E+00  0.6791E+16
   -0.262492    0.92770  0.1609E-12  0.4096E-13  0.8590E-16  0.1000E-09  0.0000E+00  0.6471E+16
   -0.299992    1.05917  0.1374E-12  0.4096E-13  0.8590E-16  0.1000E-09  0.0000E+00  0.6151E+16
   -0.337492    1.19017  0.1197E-12  0.4096E-13  0.8590E-16  0.1000E-09  0.0000E+00  0.5831E+16
   -0.374992    1.32060  0.1074E-12  0.4096E-13  0.8590E-16  0.1000E-09  0.0000E+00  0.5512E+16
   -0.412493    1.45033  0.9905E-13  0.4096E-13  0.8590E-16  0.1000E-09  0.0000E+00  0.5195E+16
   -0.449993    1.57927  0.9366E-13  0.4096E-13  0.8590E-16  0.1000E-09  0.0000E+00  0.4880E+16
   -0.487494    1.70731  0.9021E-13  0.4096E-13  0.8590E-16  0.1000E-09  0.0000E+00  0.4571E+16
   -0.524995    1.83442  0.8799E-13  0.4096E-13  0.8590E-16  0.1000E-09  0.0000E+00  0.4277E+16
   -0.562496    1.96084  0.8658E-13  0.4096E-13  0.8590E-16  0.1000E-09  0.0000E+00  0.3987E+16
   -0.599997    2.08650  0.8566E-13  0.4096E-13  0.8590E-16  0.1000E-09  0.0000E+00  0.3701E+16
   -0.637499    2.21135  0.8506E-13  0.4096E-13  0.8590E-16  0.1000E-09  0.0000E+00  0.3419E+16
   -0.675000    2.33530  0.8467E-13  0.4096E-13  0.8590E-16  0.1000E-09  0.0000E+00  0.3141E+16
   -0.712501    2.45830  0.8441E-13  0.6916E-13  0.8603E-16  0.1000E-09  0.0000E+00  0.2869E+16
   -0.750003    2.58027  0.8424E-13  0.2504E-12  0.1072E-15  0.1000E-09  0.0000E+00  0.2607E+16
   -0.787504    2.70134  0.8414E-13  0.6356E-12  0.2109E-15  0.1000E-09  0.0000E+00  0.2351E+16
   -0.825006    2.82151  0.8407E-13  0.1422E-11  0.4396E-15  0.1000E-09  0.0000E+00  0.2100E+16
   -0.862507    2.94071  0.8403E-13  0.3045E-11  0.9112E-15  0.1000E-09  0.0000E+00  0.1855E+16
   -0.900008    3.05885  0.8401E-13  0.6402E-11  0.1870E-14  0.1000E-09  0.0000E+00  0.1615E+16
   -0.937509    3.17585  0.8399E-13  0.1331E-10  0.3803E-14  0.1000E-09  0.0000E+00  0.1381E+16
   -0.975010    3.29161  0.8399E-13  0.2745E-10  0.7676E-14  0.1000E-09  0.0000E+00  0.1154E+16
   -1.012511    3.40603  0.8398E-13  0.5632E-10  0.1542E-13  0.1000E-09  0.0000E+00  0.9324E+15
   -1.050012    3.51870  0.8398E-13  0.1152E-09  0.3088E-13  0.1217E-09  0.0000E+00  0.7196E+15
   -1.087513    3.62940  0.8398E-13  0.2340E-09  0.6149E-13  0.3291E-09  0.0000E+00  0.5168E+15
   -1.125014    3.73790  0.8398E-13  0.4721E-09  0.1216E-12  0.1022E-08  0.0000E+00  0.3278E+15
   -1.162514    3.84508  0.8398E-13  0.9444E-09  0.2388E-12  0.4529E-08  0.0000E+00  0.1445E+15
   -1.200014    3.94830  0.8398E-13  0.1791E-08  0.4480E-12  0.2263E-06  0.0000E+00  0.1028E+14
   -1.237514    4.00290  0.8398E-13  0.2675E-08  0.6833E-12  0.4001E-05  0.0000E+00 -0.1014E+13
   -1.275014    4.00653  0.8398E-13  0.3124E-08  0.8522E-12  0.4299E-05  0.0000E+00 -0.1152E+13
   -1.312513    4.00994  0.8398E-13  0.3415E-08  0.1039E-11  0.4113E-05  0.0000E+00 -0.1422E+13
   -1.350012    4.01355  0.8398E-13  0.3536E-08  0.1272E-11  0.3484E-05  0.0000E+00 -0.1962E+13
   -1.387511    4.01785  0.8398E-13  0.3437E-08  0.1616E-11  0.2461E-05  0.0000E+00 -0.3271E+13
   -1.425010    4.02392  0.8398E-13  0.2994E-08  0.2271E-11  0.1209E-05  0.0000E+00 -0.8060E+13
   -1.462508    4.03577  0.8398E-13  0.2046E-08  0.4173E-11  0.2380E-06  0.0000E+00 -0.4730E+14
   -1.500006    4.07846  0.8398E-13  0.0000E+00  0.0000E+00  0.0000E+00  0.0000E+00  0.0000E+00
