 1 - depth, m
 2 - temperature, C
 3 - salinity, kg/kg
 4 - turbulent kinetic energy, m**2/s**2
 5 - dissipation rate, m**2/s**3
 6 - kinematic heat conductance, m**2/s
 7 - modulus of horizontal velocity, m/s
 8 - Richardson number, n/d
   -0.000000   -0.00000  0.2118E-12  0.4096E-13  0.8590E-16  0.1000E-09  0.0000E+00  0.9643E+16
   -0.037498    0.14757  0.3236E-12  0.4096E-13  0.8590E-16  0.1000E-09  0.0000E+00  0.9266E+16
   -0.074996    0.29530  0.3286E-12  0.4096E-13  0.8590E-16  0.1000E-09  0.0000E+00  0.8886E+16
   -0.112494    0.44313  0.2811E-12  0.4096E-13  0.8590E-16  0.1000E-09  0.0000E+00  0.8503E+16
   -0.149993    0.59098  0.2251E-12  0.4096E-13  0.8590E-16  0.1000E-09  0.0000E+00  0.8115E+16
   -0.187492    0.73875  0.1783E-12  0.4096E-13  0.8590E-16  0.1000E-09  0.0000E+00  0.7725E+16
   -0.224992    0.88632  0.1445E-12  0.4096E-13  0.8590E-16  0.1000E-09  0.0000E+00  0.7330E+16
   -0.262491    1.03353  0.1221E-12  0.4096E-13  0.8590E-16  0.1000E-09  0.0000E+00  0.6938E+16
   -0.299991    1.18034  0.1078E-12  0.4096E-13  0.8590E-16  0.1000E-09  0.0000E+00  0.6544E+16
   -0.337491    1.32660  0.9900E-13  0.4096E-13  0.8590E-16  0.1000E-09  0.0000E+00  0.6150E+16
   -0.374992    1.47215  0.9357E-13  0.4096E-13  0.8590E-16  0.1000E-09  0.0000E+00  0.5755E+16
   -0.412492    1.61680  0.9020E-13  0.4096E-13  0.8590E-16  0.1000E-09  0.0000E+00  0.5362E+16
   -0.449993    1.76035  0.8806E-13  0.5347E-13  0.8590E-16  0.1000E-09  0.0000E+00  0.4972E+16
   -0.487494    1.90265  0.8668E-13  0.2114E-12  0.8702E-16  0.1000E-09  0.0000E+00  0.4591E+16
   -0.524995    2.04358  0.8575E-13  0.5341E-12  0.1311E-15  0.1000E-09  0.0000E+00  0.4227E+16
   -0.562496    2.18339  0.8513E-13  0.1105E-11  0.2320E-15  0.1000E-09  0.0000E+00  0.3869E+16
   -0.599997    2.32195  0.8471E-13  0.2113E-11  0.4189E-15  0.1000E-09  0.0000E+00  0.3518E+16
   -0.637498    2.45915  0.8443E-13  0.3914E-11  0.7518E-15  0.1000E-09  0.0000E+00  0.3176E+16
   -0.674999    2.59490  0.8425E-13  0.7134E-11  0.1339E-14  0.1000E-09  0.0000E+00  0.2844E+16
   -0.712501    2.72911  0.8413E-13  0.1288E-10  0.2369E-14  0.1000E-09  0.0000E+00  0.2521E+16
   -0.750002    2.86169  0.8406E-13  0.2310E-10  0.4164E-14  0.1000E-09  0.0000E+00  0.2216E+16
   -0.787503    2.99302  0.8402E-13  0.4118E-10  0.7280E-14  0.1000E-09  0.0000E+00  0.1921E+16
   -0.825005    3.12320  0.8400E-13  0.7300E-10  0.1266E-13  0.1000E-09  0.0000E+00  0.1634E+16
   -0.862506    3.25220  0.8399E-13  0.1287E-09  0.2190E-13  0.1000E-09  0.0000E+00  0.1356E+16
   -0.900007    3.37999  0.8398E-13  0.2257E-09  0.3768E-13  0.1054E-09  0.0000E+00  0.1086E+16
   -0.937508    3.50656  0.8398E-13  0.3937E-09  0.6452E-13  0.2177E-09  0.0000E+00  0.8237E+15
   -0.975009    3.63179  0.8398E-13  0.6830E-09  0.1099E-12  0.5365E-09  0.0000E+00  0.5696E+15
   -1.012510    3.75544  0.8398E-13  0.1181E-08  0.1866E-12  0.1603E-08  0.0000E+00  0.3242E+15
   -1.050011    3.87667  0.8398E-13  0.2031E-08  0.3153E-12  0.9438E-08  0.0000E+00  0.9420E+14
   -1.087512    3.99001  0.8398E-13  0.2713E-08  0.4224E-12  0.4692E-05  0.0000E+00 -0.2880E+12
   -1.125012    3.99392  0.8398E-13  0.3116E-08  0.5029E-12  0.6183E-05  0.0000E+00 -0.3708E+12
   -1.162513    3.99664  0.8398E-13  0.3457E-08  0.5888E-12  0.6921E-05  0.0000E+00 -0.4301E+12
   -1.200013    3.99905  0.8398E-13  0.3742E-08  0.6836E-12  0.7175E-05  0.0000E+00 -0.5028E+12
   -1.237513    4.00137  0.8398E-13  0.3966E-08  0.7919E-12  0.7020E-05  0.0000E+00 -0.6036E+12
   -1.275012    4.00375  0.8398E-13  0.4120E-08  0.9211E-12  0.6491E-05  0.0000E+00 -0.7555E+12
   -1.312512    4.00634  0.8398E-13  0.4186E-08  0.1085E-11  0.5605E-05  0.0000E+00 -0.1009E+13
   -1.350011    4.00933  0.8398E-13  0.4127E-08  0.1312E-11  0.4385E-05  0.0000E+00 -0.1495E+13
   -1.387510    4.01316  0.8398E-13  0.3878E-08  0.1674E-11  0.2893E-05  0.0000E+00 -0.2684E+13
   -1.425008    4.01893  0.8398E-13  0.3298E-08  0.2403E-11  0.1335E-05  0.0000E+00 -0.7235E+13
   -1.462506    4.03089  0.8398E-13  0.2226E-08  0.4584E-11  0.2539E-06  0.0000E+00 -0.4774E+14
   -1.500004    4.07624  0.8398E-13  0.0000E+00  0.0000E+00  0.0000E+00  0.0000E+00  0.0000E+00
