 1 - depth, m
 2 - temperature, C
 3 - salinity, kg/kg
 4 - turbulent kinetic energy, m**2/s**2
 5 - dissipation rate, m**2/s**3
 6 - kinematic heat conductance, m**2/s
 7 - modulus of horizontal velocity, m/s
 8 - Richardson number, n/d
   -0.000000   -0.00000  0.5572E-16  0.4096E-13  0.8589E-16  0.1000E-09  0.0000E+00  0.1067E+17
   -0.037498    0.16361  0.1596E-13  0.4096E-13  0.8589E-16  0.1000E-09  0.0000E+00  0.9147E+16
   -0.074997    0.31014  0.5340E-13  0.4096E-13  0.8589E-16  0.1000E-09  0.0000E+00  0.8018E+16
   -0.112496    0.44390  0.9996E-13  0.4096E-13  0.8589E-16  0.1000E-09  0.0000E+00  0.7171E+16
   -0.149995    0.56823  0.1441E-12  0.4096E-13  0.8589E-16  0.1000E-09  0.0000E+00  0.6525E+16
   -0.187494    0.68565  0.1785E-12  0.4096E-13  0.8589E-16  0.1000E-09  0.0000E+00  0.6017E+16
   -0.224994    0.79797  0.1994E-12  0.4096E-13  0.8589E-16  0.1000E-09  0.0000E+00  0.5601E+16
   -0.262494    0.90639  0.2063E-12  0.4096E-13  0.8589E-16  0.1000E-09  0.0000E+00  0.5317E+16
   -0.299995    1.01317  0.2013E-12  0.4096E-13  0.8589E-16  0.1000E-09  0.0000E+00  0.5081E+16
   -0.337495    1.11911  0.1880E-12  0.4096E-13  0.8589E-16  0.1000E-09  0.0000E+00  0.4861E+16
   -0.374996    1.22443  0.1703E-12  0.4096E-13  0.8589E-16  0.1000E-09  0.0000E+00  0.4631E+16
   -0.412497    1.32884  0.1518E-12  0.4096E-13  0.8589E-16  0.1000E-09  0.0000E+00  0.4390E+16
   -0.449998    1.43192  0.1349E-12  0.4096E-13  0.8589E-16  0.1000E-09  0.0000E+00  0.4138E+16
   -0.487499    1.53322  0.1207E-12  0.4096E-13  0.8589E-16  0.1000E-09  0.0000E+00  0.3905E+16
   -0.525001    1.63298  0.1096E-12  0.4096E-13  0.8589E-16  0.1000E-09  0.0000E+00  0.3826E+16
   -0.562502    1.73518  0.1014E-12  0.4133E-13  0.8589E-16  0.1000E-09  0.0000E+00  0.3719E+16
   -0.600004    1.83937  0.9555E-13  0.8013E-13  0.9444E-16  0.1000E-09  0.0000E+00  0.3592E+16
   -0.637505    1.94522  0.9159E-13  0.2075E-12  0.1423E-15  0.1000E-09  0.0000E+00  0.3447E+16
   -0.675007    2.05246  0.8893E-13  0.5515E-12  0.2974E-15  0.1000E-09  0.0000E+00  0.3291E+16
   -0.712509    2.16089  0.8719E-13  0.1478E-11  0.7116E-15  0.1000E-09  0.0000E+00  0.3125E+16
   -0.750011    2.27038  0.8605E-13  0.3861E-11  0.1780E-14  0.1000E-09  0.0000E+00  0.2973E+16
   -0.787512    2.38170  0.8531E-13  0.9924E-11  0.4448E-14  0.1000E-09  0.0000E+00  0.2826E+16
   -0.825014    2.49542  0.8483E-13  0.2523E-10  0.1102E-13  0.1000E-09  0.0000E+00  0.2682E+16
   -0.862516    2.61227  0.8452E-13  0.6348E-10  0.2702E-13  0.1020E-09  0.0000E+00  0.2548E+16
   -0.900017    2.73366  0.8432E-13  0.1581E-09  0.6561E-13  0.1223E-09  0.0000E+00  0.2431E+16
   -0.937519    2.86202  0.8419E-13  0.3897E-09  0.1575E-12  0.2035E-09  0.0000E+00  0.2331E+16
   -0.975020    3.00139  0.8411E-13  0.9491E-09  0.3738E-12  0.4371E-09  0.0000E+00  0.2238E+16
   -1.012522    3.15855  0.8406E-13  0.2288E-08  0.8779E-12  0.1085E-08  0.0000E+00  0.2070E+16
   -1.050023    3.34185  0.8402E-13  0.5439E-08  0.2035E-11  0.3850E-08  0.0000E+00  0.1713E+16
   -1.087524    3.56726  0.8400E-13  0.1044E-07  0.3852E-11  0.1952E-05  0.0000E+00  0.1064E+16
   -1.125025    3.79264  0.8399E-13  0.1498E-07  0.5535E-11  0.9687E-05  0.0000E+00  0.4899E+15
   -1.162526    3.95152  0.8398E-13  0.1854E-07  0.6944E-11  0.1584E-04  0.0000E+00  0.1042E+15
   -1.200026    4.03366  0.8398E-13  0.2058E-07  0.7923E-11  0.2075E-04  0.0000E+00 -0.2004E+13
   -1.237527    4.03798  0.8398E-13  0.2167E-07  0.8733E-11  0.2088E-04  0.0000E+00 -0.2425E+13
   -1.275027    4.04099  0.8398E-13  0.2236E-07  0.9646E-11  0.1984E-04  0.0000E+00 -0.2738E+13
   -1.312527    4.04419  0.8398E-13  0.2261E-07  0.1079E-10  0.1744E-04  0.0000E+00 -0.3332E+13
   -1.350026    4.04782  0.8398E-13  0.2231E-07  0.1239E-10  0.1395E-04  0.0000E+00 -0.4486E+13
   -1.387525    4.05238  0.8398E-13  0.2122E-07  0.1493E-10  0.9746E-05  0.0000E+00 -0.7027E+13
   -1.425024    4.05891  0.8398E-13  0.1871E-07  0.2022E-10  0.5001E-05  0.0000E+00 -0.1559E+14
   -1.462523    4.07161  0.8398E-13  0.1279E-07  0.4022E-10  0.9438E-06  0.0000E+00 -0.1085E+15
   -1.500021    4.13182  0.8398E-13  0.0000E+00  0.0000E+00  0.0000E+00  0.0000E+00  0.0000E+00
