 1 - depth, m
 2 - temperature, C
 3 - salinity, kg/kg
 4 - turbulent kinetic energy, m**2/s**2
 5 - dissipation rate, m**2/s**3
 6 - kinematic heat conductance, m**2/s
 7 - modulus of horizontal velocity, m/s
 8 - Richardson number, n/d
   -0.000000   13.44817  0.9208E-13  0.2107E-03  0.1924E-03  0.5139E-04  0.1302E+00  0.1961E-01
   -0.037498   13.52725  0.9209E-13  0.1158E-03  0.5237E-04  0.1138E-03  0.4082E-01 -0.1344E+01
   -0.074996   13.54358  0.9209E-13  0.8285E-04  0.1955E-04  0.1288E-03  0.2888E-01 -0.1638E+00
   -0.112495   13.55379  0.9209E-13  0.6537E-04  0.1059E-04  0.1349E-03  0.2391E-01 -0.7057E-01
   -0.149994   13.56167  0.9209E-13  0.5345E-04  0.6342E-05  0.1430E-03  0.2054E-01 -0.7932E-01
   -0.187493   13.56793  0.9209E-13  0.4444E-04  0.3917E-05  0.1548E-03  0.1790E-01 -0.1254E+00
   -0.224993   13.57315  0.9210E-13  0.3753E-04  0.2480E-05  0.1835E-03  0.1577E-01  0.5620E+03
   -0.262493   13.57740  0.9210E-13  0.3226E-04  0.1619E-05  0.2402E-03  0.1404E-01  0.2331E+02
   -0.299993   13.58088  0.9210E-13  0.2814E-04  0.1083E-05  0.2650E-03  0.1259E-01  0.1286E+02
   -0.337493   13.58388  0.9210E-13  0.2488E-04  0.7434E-06  0.2959E-03  0.1135E-01  0.7201E+01
   -0.374993   13.58655  0.9210E-13  0.2228E-04  0.5256E-06  0.3276E-03  0.1029E-01  0.2350E+02
   -0.412494   13.58887  0.9210E-13  0.2020E-04  0.3840E-06  0.3683E-03  0.9383E-02  0.4108E+03
   -0.449995   13.59088  0.9210E-13  0.1855E-04  0.2895E-06  0.4136E-03  0.8616E-02  0.4635E+02
   -0.487496   13.59261  0.9210E-13  0.1724E-04  0.2251E-06  0.4619E-03  0.7968E-02  0.1730E+02
   -0.524997   13.59411  0.9210E-13  0.1622E-04  0.1804E-06  0.4973E-03  0.7415E-02  0.1827E+02
   -0.562498   13.59545  0.9210E-13  0.1540E-04  0.1482E-06  0.5288E-03  0.6896E-02  0.1778E+02
   -0.600000   13.59666  0.9210E-13  0.1474E-04  0.1243E-06  0.5567E-03  0.6409E-02  0.2294E+02
   -0.637501   13.59777  0.9210E-13  0.1418E-04  0.1060E-06  0.5823E-03  0.5952E-02  0.3121E+03
   -0.675002   13.59880  0.9210E-13  0.1370E-04  0.9161E-07  0.6059E-03  0.5521E-02  0.1577E+02
   -0.712504   13.59978  0.9210E-13  0.1326E-04  0.8010E-07  0.6254E-03  0.5113E-02  0.7046E+02
   -0.750005   13.60071  0.9210E-13  0.1286E-04  0.7081E-07  0.6446E-03  0.4726E-02  0.1593E+02
   -0.787507   13.60160  0.9210E-13  0.1247E-04  0.6319E-07  0.6604E-03  0.4359E-02  0.1543E+02
   -0.825008   13.60246  0.9210E-13  0.1209E-04  0.5684E-07  0.6731E-03  0.4009E-02  0.1442E+02
   -0.862510   13.60330  0.9210E-13  0.1170E-04  0.5150E-07  0.6809E-03  0.3676E-02  0.2547E+02
   -0.900011   13.60412  0.9210E-13  0.1130E-04  0.4696E-07  0.6839E-03  0.3356E-02  0.1014E+02
   -0.937513   13.60494  0.9210E-13  0.1087E-04  0.4305E-07  0.6817E-03  0.3050E-02  0.1529E+02
   -0.975014   13.60576  0.9210E-13  0.1042E-04  0.3966E-07  0.6746E-03  0.2755E-02  0.7421E+02
   -1.012515   13.60658  0.9210E-13  0.9921E-05  0.3669E-07  0.6739E-03  0.2469E-02  0.1236E+02
   -1.050016   13.60740  0.9210E-13  0.9397E-05  0.3411E-07  0.6691E-03  0.2210E-02  0.5761E+01
   -1.087517   13.60823  0.9210E-13  0.8854E-05  0.3194E-07  0.6480E-03  0.1979E-02  0.6236E+01
   -1.125018   13.60909  0.9210E-13  0.8302E-05  0.3017E-07  0.6123E-03  0.1775E-02  0.3062E+01
   -1.162518   13.60998  0.9210E-13  0.7752E-05  0.2883E-07  0.5729E-03  0.1596E-02  0.2341E+01
   -1.200018   13.61093  0.9210E-13  0.7214E-05  0.2795E-07  0.5325E-03  0.1443E-02  0.1685E+01
   -1.237518   13.61195  0.9210E-13  0.6695E-05  0.2760E-07  0.4832E-03  0.1312E-02  0.1862E+01
   -1.275018   13.61308  0.9210E-13  0.6199E-05  0.2792E-07  0.4260E-03  0.1204E-02  0.1993E+01
   -1.312518   13.61436  0.9210E-13  0.5706E-05  0.2937E-07  0.3650E-03  0.1116E-02  0.3819E+01
   -1.350017   13.61590  0.9210E-13  0.5159E-05  0.3328E-07  0.2853E-03  0.1042E-02  0.1329E+02
   -1.387516   13.61800  0.9210E-13  0.4521E-05  0.4181E-07  0.2393E-03  0.9715E-03  0.2930E+02
   -1.425015   13.62046  0.9210E-13  0.3659E-05  0.7019E-07  0.1114E-03  0.9122E-03  0.2999E+04
   -1.462513   13.62946  0.9210E-13  0.2109E-05  0.1516E-06  0.3269E-04  0.8345E-03 -0.5843E+04
   -1.500011   13.64893  0.9210E-13  0.0000E+00  0.0000E+00  0.0000E+00  0.8616E-03  0.0000E+00
