 1 - depth, m
 2 - temperature, C
 3 - salinity, kg/kg
 4 - turbulent kinetic energy, m**2/s**2
 5 - dissipation rate, m**2/s**3
 6 - kinematic heat conductance, m**2/s
 7 - modulus of horizontal velocity, m/s
 8 - Richardson number, n/d
   -0.000000   -0.00000  0.3466E-12  0.1121E-11  0.3602E-15  0.1000E-09  0.0000E+00  0.1515E+17
   -0.037498    0.23461  0.3396E-12  0.1803E-11  0.3963E-15  0.1000E-09  0.0000E+00  0.1409E+17
   -0.074996    0.46781  0.2847E-12  0.3250E-11  0.5873E-15  0.1000E-09  0.0000E+00  0.1305E+17
   -0.112494    0.69941  0.2159E-12  0.5844E-11  0.9701E-15  0.1000E-09  0.0000E+00  0.1202E+17
   -0.149993    0.92920  0.1605E-12  0.1034E-10  0.1647E-14  0.1000E-09  0.0000E+00  0.1101E+17
   -0.187492    1.15697  0.1249E-12  0.1806E-10  0.2804E-14  0.1000E-09  0.0000E+00  0.1003E+17
   -0.224991    1.38249  0.1056E-12  0.3129E-10  0.4760E-14  0.1000E-09  0.0000E+00  0.9062E+16
   -0.262491    1.60545  0.9645E-13  0.5385E-10  0.8043E-14  0.1000E-09  0.0000E+00  0.8127E+16
   -0.299990    1.82571  0.9254E-13  0.9214E-10  0.1352E-13  0.1000E-09  0.0000E+00  0.7218E+16
   -0.337490    2.04298  0.9083E-13  0.1569E-09  0.2263E-13  0.1000E-09  0.0000E+00  0.6337E+16
   -0.374991    2.25688  0.8978E-13  0.2660E-09  0.3771E-13  0.1000E-09  0.0000E+00  0.5513E+16
   -0.412491    2.46805  0.8876E-13  0.4491E-09  0.6260E-13  0.1000E-09  0.0000E+00  0.4729E+16
   -0.449992    2.67680  0.8760E-13  0.7553E-09  0.1035E-12  0.1000E-09  0.0000E+00  0.3971E+16
   -0.487492    2.88294  0.8639E-13  0.1265E-08  0.1705E-12  0.1460E-09  0.0000E+00  0.3243E+16
   -0.524993    3.08632  0.8535E-13  0.2105E-08  0.2790E-12  0.3044E-09  0.0000E+00  0.2545E+16
   -0.562494    3.28693  0.8462E-13  0.3479E-08  0.4539E-12  0.6710E-09  0.0000E+00  0.1878E+16
   -0.599995    3.48466  0.8422E-13  0.5722E-08  0.7345E-12  0.1645E-08  0.0000E+00  0.1239E+16
   -0.637496    3.67899  0.8403E-13  0.9354E-08  0.1182E-11  0.5204E-08  0.0000E+00  0.6304E+15
   -0.674998    3.86694  0.8397E-13  0.1495E-07  0.1863E-11  0.4829E-07  0.0000E+00  0.1070E+15
   -0.712499    4.01109  0.8397E-13  0.1557E-07  0.1946E-11  0.4779E-04  0.0000E+00 -0.2229E+12
   -0.750000    4.01165  0.8397E-13  0.1586E-07  0.1991E-11  0.4689E-04  0.0000E+00 -0.2324E+12
   -0.787501    4.01223  0.8397E-13  0.1613E-07  0.2040E-11  0.4716E-04  0.0000E+00 -0.2370E+12
   -0.825003    4.01281  0.8397E-13  0.1636E-07  0.2091E-11  0.4729E-04  0.0000E+00 -0.2423E+12
   -0.862504    4.01339  0.8397E-13  0.1656E-07  0.2146E-11  0.4721E-04  0.0000E+00 -0.2487E+12
   -0.900005    4.01397  0.8397E-13  0.1672E-07  0.2205E-11  0.4692E-04  0.0000E+00 -0.2564E+12
   -0.937506    4.01455  0.8397E-13  0.1686E-07  0.2268E-11  0.4641E-04  0.0000E+00 -0.2655E+12
   -0.975007    4.01515  0.8397E-13  0.1696E-07  0.2337E-11  0.4568E-04  0.0000E+00 -0.2763E+12
   -1.012508    4.01575  0.8397E-13  0.1702E-07  0.2412E-11  0.4473E-04  0.0000E+00 -0.2901E+12
   -1.050008    4.01637  0.8397E-13  0.1705E-07  0.2496E-11  0.4353E-04  0.0000E+00 -0.3067E+12
   -1.087509    4.01702  0.8397E-13  0.1703E-07  0.2589E-11  0.4207E-04  0.0000E+00 -0.3269E+12
   -1.125009    4.01769  0.8397E-13  0.1697E-07  0.2695E-11  0.4033E-04  0.0000E+00 -0.3505E+12
   -1.162510    4.01840  0.8397E-13  0.1686E-07  0.2817E-11  0.3828E-04  0.0000E+00 -0.3798E+12
   -1.200010    4.01914  0.8397E-13  0.1669E-07  0.2959E-11  0.3593E-04  0.0000E+00 -0.4168E+12
   -1.237509    4.01994  0.8397E-13  0.1644E-07  0.3133E-11  0.3327E-04  0.0000E+00 -0.4643E+12
   -1.275009    4.02081  0.8397E-13  0.1605E-07  0.3377E-11  0.2783E-04  0.0000E+00 -0.5741E+12
   -1.312508    4.02186  0.8397E-13  0.1544E-07  0.3746E-11  0.2048E-04  0.0000E+00 -0.8125E+12
   -1.350007    4.02329  0.8397E-13  0.1454E-07  0.4301E-11  0.1467E-04  0.0000E+00 -0.1195E+13
   -1.387506    4.02530  0.8397E-13  0.1319E-07  0.5244E-11  0.9168E-05  0.0000E+00 -0.2051E+13
   -1.425004    4.02853  0.8397E-13  0.1093E-07  0.7326E-11  0.3992E-05  0.0000E+00 -0.5270E+13
   -1.462502    4.03586  0.8397E-13  0.6418E-08  0.1539E-10  0.5273E-06  0.0000E+00 -0.5202E+14
   -1.500000    4.08172  0.8397E-13  0.0000E+00  0.0000E+00  0.0000E+00  0.0000E+00  0.0000E+00
