 1 - depth, m
 2 - temperature, C
 3 - salinity, kg/kg
 4 - turbulent kinetic energy, m**2/s**2
 5 - dissipation rate, m**2/s**3
 6 - kinematic heat conductance, m**2/s
 7 - modulus of horizontal velocity, m/s
 8 - Richardson number, n/d
   -0.000000   12.87807  0.9375E-13  0.1745E-03  0.1655E-03  0.5510E-04  0.1128E+00  0.2933E+00
   -0.037498   12.93371  0.9374E-13  0.9127E-04  0.4371E-04  0.9745E-04  0.3622E-01 -0.1319E+00
   -0.074996   12.94633  0.9374E-13  0.6394E-04  0.1891E-04  0.1151E-03  0.2484E-01  0.4836E+02
   -0.112494   12.95364  0.9374E-13  0.4972E-04  0.1043E-04  0.1254E-03  0.2041E-01  0.1343E+02
   -0.149993   12.95842  0.9374E-13  0.4016E-04  0.6133E-05  0.1384E-03  0.1743E-01  0.2317E+01
   -0.187492   12.96224  0.9374E-13  0.3299E-04  0.3634E-05  0.1559E-03  0.1508E-01  0.9368E+00
   -0.224991   12.96551  0.9374E-13  0.2758E-04  0.2191E-05  0.1767E-03  0.1315E-01  0.1827E+01
   -0.262490   12.96831  0.9374E-13  0.2353E-04  0.1349E-05  0.2010E-03  0.1159E-01  0.5130E+01
   -0.299990   12.97084  0.9374E-13  0.2038E-04  0.8488E-06  0.2307E-03  0.1025E-01  0.2116E+02
   -0.337490   12.97304  0.9374E-13  0.1791E-04  0.5488E-06  0.2628E-03  0.9111E-02  0.1172E+01
   -0.374990   12.97499  0.9374E-13  0.1594E-04  0.3667E-06  0.2958E-03  0.8159E-02  0.5726E+01
   -0.412491   12.97672  0.9374E-13  0.1438E-04  0.2542E-06  0.3318E-03  0.7365E-02  0.7531E+02
   -0.449991   12.97825  0.9374E-13  0.1313E-04  0.1833E-06  0.3714E-03  0.6703E-02  0.3872E+01
   -0.487492   12.97962  0.9374E-13  0.1216E-04  0.1379E-06  0.4165E-03  0.6154E-02  0.2260E+04
   -0.524993   12.98081  0.9374E-13  0.1141E-04  0.1081E-06  0.4572E-03  0.5697E-02  0.3145E+02
   -0.562494   12.98189  0.9374E-13  0.1083E-04  0.8762E-07  0.5018E-03  0.5276E-02  0.2450E+02
   -0.599995   12.98283  0.9374E-13  0.1037E-04  0.7305E-07  0.5409E-03  0.4889E-02  0.1789E+02
   -0.637496   12.98367  0.9374E-13  0.9993E-05  0.6223E-07  0.5695E-03  0.4532E-02  0.7438E+01
   -0.674997   12.98444  0.9374E-13  0.9686E-05  0.5395E-07  0.5933E-03  0.4196E-02  0.1415E+02
   -0.712498   12.98517  0.9374E-13  0.9424E-05  0.4748E-07  0.6128E-03  0.3882E-02  0.1065E+02
   -0.749999   12.98586  0.9374E-13  0.9190E-05  0.4230E-07  0.6268E-03  0.3585E-02  0.9559E+01
   -0.787500   12.98654  0.9374E-13  0.8974E-05  0.3810E-07  0.6357E-03  0.3303E-02  0.6708E+01
   -0.825002   12.98722  0.9374E-13  0.8764E-05  0.3462E-07  0.6422E-03  0.3034E-02  0.7640E+01
   -0.862503   12.98789  0.9374E-13  0.8552E-05  0.3171E-07  0.6438E-03  0.2777E-02  0.8761E+01
   -0.900004   12.98858  0.9374E-13  0.8332E-05  0.2926E-07  0.6414E-03  0.2530E-02  0.6869E+01
   -0.937505   12.98928  0.9374E-13  0.8096E-05  0.2718E-07  0.6348E-03  0.2292E-02  0.5200E+01
   -0.975006   12.99000  0.9374E-13  0.7837E-05  0.2539E-07  0.6230E-03  0.2063E-02  0.6735E+01
   -1.012507   12.99075  0.9374E-13  0.7550E-05  0.2385E-07  0.6127E-03  0.1839E-02  0.5264E+01
   -1.050007   12.99153  0.9374E-13  0.7238E-05  0.2254E-07  0.5980E-03  0.1636E-02  0.3349E+01
   -1.087508   12.99234  0.9374E-13  0.6906E-05  0.2149E-07  0.5786E-03  0.1455E-02  0.2902E+01
   -1.125008   12.99318  0.9374E-13  0.6559E-05  0.2069E-07  0.5550E-03  0.1295E-02  0.2694E+01
   -1.162508   12.99408  0.9374E-13  0.6206E-05  0.2018E-07  0.5279E-03  0.1156E-02  0.2658E+01
   -1.200008   12.99504  0.9374E-13  0.5853E-05  0.1999E-07  0.4908E-03  0.1037E-02  0.2967E+01
   -1.237508   12.99608  0.9374E-13  0.5509E-05  0.2014E-07  0.4443E-03  0.9366E-03  0.3919E+01
   -1.275008   12.99727  0.9374E-13  0.5179E-05  0.2070E-07  0.3901E-03  0.8554E-03  0.6312E+01
   -1.312507   12.99865  0.9374E-13  0.4853E-05  0.2183E-07  0.3342E-03  0.7918E-03  0.1326E+02
   -1.350006   13.00030  0.9374E-13  0.4495E-05  0.2398E-07  0.2677E-03  0.7414E-03  0.4669E+02
   -1.387504   13.00246  0.9374E-13  0.4059E-05  0.2805E-07  0.2127E-03  0.6967E-03  0.1332E+03
   -1.425003   13.00525  0.9374E-13  0.3444E-05  0.3917E-07  0.1216E-03  0.6596E-03  0.3782E+07
   -1.462501   13.01192  0.9374E-13  0.2015E-05  0.8536E-07  0.2410E-04  0.6178E-03 -0.9241E+05
   -1.499998   13.04019  0.9374E-13  0.0000E+00  0.0000E+00  0.0000E+00  0.6229E-03  0.0000E+00
