 1 - depth, m
 2 - temperature, C
 3 - salinity, kg/kg
 4 - turbulent kinetic energy, m**2/s**2
 5 - dissipation rate, m**2/s**3
 6 - kinematic heat conductance, m**2/s
 7 - modulus of horizontal velocity, m/s
 8 - Richardson number, n/d
   -0.000000   11.89859  0.9865E-13  0.2123E-03  0.1875E-03  0.6734E-04  0.1370E+00 -0.6341E-01
   -0.037498   11.95066  0.9866E-13  0.1172E-03  0.4769E-04  0.1122E-03  0.4349E-01  0.3128E+02
   -0.074996   11.95983  0.9866E-13  0.8334E-04  0.2032E-04  0.1311E-03  0.3047E-01  0.1937E+01
   -0.112494   11.96665  0.9866E-13  0.6532E-04  0.1075E-04  0.1429E-03  0.2507E-01  0.6780E+02
   -0.149993   11.97133  0.9866E-13  0.5303E-04  0.6050E-05  0.1561E-03  0.2153E-01  0.1371E+01
   -0.187492   11.97494  0.9866E-13  0.4385E-04  0.3551E-05  0.1722E-03  0.1877E-01  0.2933E+01
   -0.224991   11.97795  0.9866E-13  0.3696E-04  0.2176E-05  0.1902E-03  0.1653E-01  0.9616E+01
   -0.262490   11.98052  0.9866E-13  0.3171E-04  0.1385E-05  0.2085E-03  0.1470E-01  0.1562E+01
   -0.299990   11.98281  0.9866E-13  0.2761E-04  0.9158E-06  0.2289E-03  0.1313E-01  0.2265E+01
   -0.337490   11.98487  0.9866E-13  0.2435E-04  0.6308E-06  0.2500E-03  0.1178E-01  0.3258E+01
   -0.374990   11.98674  0.9866E-13  0.2170E-04  0.4517E-06  0.2732E-03  0.1063E-01  0.1348E+02
   -0.412491   11.98842  0.9866E-13  0.1953E-04  0.3350E-06  0.2971E-03  0.9658E-02  0.1615E+02
   -0.449991   11.98994  0.9866E-13  0.1774E-04  0.2560E-06  0.3256E-03  0.8838E-02  0.4844E+01
   -0.487492   11.99131  0.9866E-13  0.1629E-04  0.2008E-06  0.3558E-03  0.8152E-02  0.5682E+01
   -0.524993   11.99255  0.9866E-13  0.1511E-04  0.1614E-06  0.3812E-03  0.7572E-02  0.6748E+01
   -0.562494   11.99370  0.9866E-13  0.1414E-04  0.1324E-06  0.4116E-03  0.7038E-02  0.1505E+02
   -0.599995   11.99476  0.9866E-13  0.1333E-04  0.1104E-06  0.4462E-03  0.6548E-02  0.9847E+01
   -0.637496   11.99572  0.9866E-13  0.1263E-04  0.9345E-07  0.4916E-03  0.6096E-02  0.1693E+02
   -0.674997   11.99658  0.9866E-13  0.1203E-04  0.8018E-07  0.5408E-03  0.5677E-02  0.8947E+02
   -0.712498   11.99734  0.9866E-13  0.1151E-04  0.6962E-07  0.5799E-03  0.5285E-02  0.1981E+02
   -0.749999   11.99803  0.9866E-13  0.1104E-04  0.6108E-07  0.6032E-03  0.4913E-02  0.1590E+02
   -0.787501   11.99867  0.9866E-13  0.1061E-04  0.5409E-07  0.6201E-03  0.4558E-02  0.1524E+02
   -0.825002   11.99929  0.9866E-13  0.1021E-04  0.4829E-07  0.6313E-03  0.4218E-02  0.8274E+02
   -0.862503   11.99988  0.9866E-13  0.9824E-05  0.4342E-07  0.6373E-03  0.3892E-02  0.1040E+02
   -0.900004   12.00046  0.9866E-13  0.9447E-05  0.3928E-07  0.6370E-03  0.3579E-02  0.1128E+02
   -0.937505   12.00103  0.9866E-13  0.9066E-05  0.3571E-07  0.6310E-03  0.3275E-02  0.1178E+02
   -0.975006   12.00161  0.9866E-13  0.8674E-05  0.3259E-07  0.6184E-03  0.2979E-02  0.1465E+02
   -1.012507   12.00220  0.9866E-13  0.8259E-05  0.2979E-07  0.6071E-03  0.2689E-02  0.9224E+01
   -1.050008   12.00280  0.9866E-13  0.7822E-05  0.2728E-07  0.5916E-03  0.2421E-02  0.4866E+01
   -1.087508   12.00342  0.9866E-13  0.7368E-05  0.2508E-07  0.5720E-03  0.2176E-02  0.3821E+01
   -1.125009   12.00406  0.9866E-13  0.6899E-05  0.2319E-07  0.5483E-03  0.1954E-02  0.3269E+01
   -1.162509   12.00473  0.9866E-13  0.6420E-05  0.2163E-07  0.5203E-03  0.1753E-02  0.3129E+01
   -1.200009   12.00544  0.9866E-13  0.5937E-05  0.2043E-07  0.4867E-03  0.1574E-02  0.3219E+01
   -1.237509   12.00620  0.9866E-13  0.5461E-05  0.1966E-07  0.4469E-03  0.1417E-02  0.4006E+01
   -1.275008   12.00704  0.9866E-13  0.5006E-05  0.1939E-07  0.3990E-03  0.1284E-02  0.5723E+01
   -1.312507   12.00799  0.9866E-13  0.4586E-05  0.1978E-07  0.3396E-03  0.1176E-02  0.1100E+02
   -1.350006   12.00912  0.9866E-13  0.4169E-05  0.2134E-07  0.2731E-03  0.1092E-02  0.3471E+02
   -1.387505   12.01066  0.9866E-13  0.3701E-05  0.2479E-07  0.2134E-03  0.1020E-02  0.1083E+03
   -1.425003   12.01265  0.9866E-13  0.3107E-05  0.3452E-07  0.1417E-03  0.9597E-03  0.1011E+04
   -1.462501   12.01695  0.9866E-13  0.1801E-05  0.7491E-07  0.1905E-04  0.8959E-03 -0.8461E+05
   -1.499999   12.04281  0.9866E-13  0.0000E+00  0.0000E+00  0.0000E+00  0.9067E-03  0.0000E+00
