 1 - depth, m
 2 - temperature, C
 3 - salinity, kg/kg
 4 - turbulent kinetic energy, m**2/s**2
 5 - dissipation rate, m**2/s**3
 6 - kinematic heat conductance, m**2/s
 7 - modulus of horizontal velocity, m/s
 8 - Richardson number, n/d
   -0.000000   11.31042  0.9107E-13  0.3779E-03  0.7760E-03  0.6446E-04  0.2371E+00 -0.2021E-01
   -0.037498   11.39342  0.9108E-13  0.2055E-03  0.2774E-03  0.1465E-03  0.7440E-01 -0.4247E-01
   -0.074996   11.41751  0.9108E-13  0.1357E-03  0.9004E-04  0.1661E-03  0.4726E-01 -0.6627E+00
   -0.112495   11.42949  0.9108E-13  0.1045E-03  0.5003E-04  0.1614E-03  0.3710E-01  0.8319E-02
   -0.149993   11.43665  0.9109E-13  0.8488E-04  0.3083E-04  0.1641E-03  0.3110E-01 -0.3355E-01
   -0.187493   11.44229  0.9109E-13  0.7005E-04  0.1931E-04  0.1699E-03  0.2671E-01 -0.2748E-01
   -0.224992   11.44681  0.9109E-13  0.5875E-04  0.1228E-04  0.1781E-03  0.2334E-01  0.8536E-01
   -0.262492   11.45061  0.9109E-13  0.5019E-04  0.7909E-05  0.1850E-03  0.2080E-01  0.3694E+00
   -0.299992   11.45407  0.9109E-13  0.4345E-04  0.5216E-05  0.1937E-03  0.1862E-01  0.3640E+00
   -0.337492   11.45725  0.9109E-13  0.3805E-04  0.3460E-05  0.2064E-03  0.1674E-01  0.8953E+02
   -0.374992   11.46008  0.9109E-13  0.3367E-04  0.2230E-05  0.2207E-03  0.1515E-01  0.2873E+02
   -0.412493   11.46255  0.9109E-13  0.3011E-04  0.1424E-05  0.2374E-03  0.1380E-01  0.8615E+01
   -0.449993   11.46490  0.9109E-13  0.2718E-04  0.8979E-06  0.2643E-03  0.1266E-01  0.1174E+02
   -0.487494   11.46692  0.9109E-13  0.2481E-04  0.5823E-06  0.3047E-03  0.1171E-01  0.2367E+02
   -0.524995   11.46870  0.9109E-13  0.2291E-04  0.4043E-06  0.3441E-03  0.1093E-01  0.3038E+03
   -0.562496   11.47032  0.9109E-13  0.2130E-04  0.2987E-06  0.3860E-03  0.1016E-01  0.1085E+03
   -0.599998   11.47178  0.9109E-13  0.1995E-04  0.2355E-06  0.4242E-03  0.9457E-02  0.4299E+02
   -0.637499   11.47302  0.9109E-13  0.1881E-04  0.1956E-06  0.4592E-03  0.8821E-02  0.9065E+01
   -0.675000   11.47410  0.9109E-13  0.1781E-04  0.1659E-06  0.4850E-03  0.8234E-02  0.2325E+03
   -0.712502   11.47510  0.9109E-13  0.1693E-04  0.1428E-06  0.5134E-03  0.7683E-02  0.2351E+02
   -0.750003   11.47600  0.9109E-13  0.1613E-04  0.1243E-06  0.5363E-03  0.7167E-02  0.1796E+02
   -0.787505   11.47685  0.9109E-13  0.1539E-04  0.1091E-06  0.5588E-03  0.6676E-02  0.1457E+02
   -0.825006   11.47763  0.9109E-13  0.1470E-04  0.9642E-07  0.5793E-03  0.6211E-02  0.4494E+02
   -0.862507   11.47837  0.9109E-13  0.1404E-04  0.8575E-07  0.5961E-03  0.5765E-02  0.2308E+02
   -0.900009   11.47908  0.9109E-13  0.1340E-04  0.7663E-07  0.6083E-03  0.5338E-02  0.1661E+02
   -0.937510   11.47976  0.9109E-13  0.1277E-04  0.6875E-07  0.6142E-03  0.4924E-02  0.2779E+02
   -0.975011   11.48041  0.9109E-13  0.1213E-04  0.6185E-07  0.6123E-03  0.4522E-02  0.1077E+03
   -1.012512   11.48106  0.9109E-13  0.1148E-04  0.5572E-07  0.6127E-03  0.4128E-02  0.2136E+02
   -1.050013   11.48169  0.9109E-13  0.1081E-04  0.5025E-07  0.6085E-03  0.3764E-02  0.2408E+02
   -1.087514   11.48232  0.9109E-13  0.1012E-04  0.4539E-07  0.5981E-03  0.3429E-02  0.9413E+01
   -1.125014   11.48294  0.9109E-13  0.9415E-05  0.4109E-07  0.5827E-03  0.3124E-02  0.6171E+01
   -1.162514   11.48357  0.9109E-13  0.8708E-05  0.3736E-07  0.5624E-03  0.2846E-02  0.4980E+01
   -1.200015   11.48421  0.9109E-13  0.8001E-05  0.3421E-07  0.5320E-03  0.2595E-02  0.2319E+01
   -1.237515   11.48488  0.9109E-13  0.7305E-05  0.3168E-07  0.4937E-03  0.2373E-02  0.2994E+01
   -1.275014   11.48559  0.9109E-13  0.6637E-05  0.2986E-07  0.4470E-03  0.2180E-02  0.2035E+01
   -1.312514   11.48637  0.9109E-13  0.6015E-05  0.2888E-07  0.3913E-03  0.2018E-02  0.4991E+01
   -1.350013   11.48726  0.9109E-13  0.5448E-05  0.2899E-07  0.3232E-03  0.1888E-02  0.5700E+01
   -1.387512   11.48832  0.9109E-13  0.4887E-05  0.3065E-07  0.2513E-03  0.1788E-02  0.3150E+02
   -1.425010   11.48967  0.9109E-13  0.4185E-05  0.3629E-07  0.1540E-03  0.1707E-02  0.1298E+03
   -1.462508   11.49188  0.9109E-13  0.2303E-05  0.7506E-07  0.1367E-04  0.1628E-02 -0.7089E+04
   -1.500006   11.51506  0.9109E-13  0.0000E+00  0.0000E+00  0.0000E+00  0.1579E-02  0.0000E+00
