 1 - depth, m
 2 - temperature, C
 3 - salinity, kg/kg
 4 - turbulent kinetic energy, m**2/s**2
 5 - dissipation rate, m**2/s**3
 6 - kinematic heat conductance, m**2/s
 7 - modulus of horizontal velocity, m/s
 8 - Richardson number, n/d
   -0.000000   12.24026  0.9405E-13  0.1081E-03  0.4829E-04  0.4090E-04  0.8841E-01 -0.2214E-01
   -0.037498   12.30958  0.9405E-13  0.6319E-04  0.1337E-04  0.7940E-04  0.3182E-01 -0.4705E+00
   -0.074996   12.32345  0.9405E-13  0.4680E-04  0.5837E-05  0.9161E-04  0.2313E-01 -0.3857E-01
   -0.112495   12.33318  0.9405E-13  0.3742E-04  0.3183E-05  0.1013E-03  0.1905E-01 -0.1016E+00
   -0.149994   12.34055  0.9405E-13  0.3083E-04  0.1879E-05  0.1126E-03  0.1613E-01 -0.7804E-01
   -0.187493   12.34664  0.9405E-13  0.2589E-04  0.1160E-05  0.1265E-03  0.1387E-01 -0.1011E+00
   -0.224992   12.35181  0.9405E-13  0.2214E-04  0.7420E-06  0.1559E-03  0.1206E-01  0.4259E+02
   -0.262492   12.35607  0.9405E-13  0.1929E-04  0.4918E-06  0.2165E-03  0.1061E-01  0.1840E+02
   -0.299992   12.35955  0.9405E-13  0.1709E-04  0.3384E-06  0.2509E-03  0.9421E-02  0.1707E+02
   -0.337492   12.36257  0.9405E-13  0.1535E-04  0.2410E-06  0.2812E-03  0.8407E-02  0.5421E+02
   -0.374992   12.36521  0.9405E-13  0.1397E-04  0.1775E-06  0.3203E-03  0.7551E-02  0.3756E+02
   -0.412493   12.36748  0.9405E-13  0.1288E-04  0.1359E-06  0.3748E-03  0.6834E-02  0.2838E+03
   -0.449994   12.36936  0.9405E-13  0.1202E-04  0.1069E-06  0.4280E-03  0.6234E-02  0.1277E+03
   -0.487495   12.37092  0.9405E-13  0.1135E-04  0.8640E-07  0.4680E-03  0.5727E-02  0.2176E+02
   -0.524996   12.37226  0.9405E-13  0.1084E-04  0.7161E-07  0.4918E-03  0.5290E-02  0.1586E+02
   -0.562497   12.37347  0.9405E-13  0.1044E-04  0.6058E-07  0.5131E-03  0.4881E-02  0.1005E+02
   -0.599998   12.37460  0.9405E-13  0.1011E-04  0.5218E-07  0.5332E-03  0.4498E-02  0.6154E+01
   -0.637499   12.37566  0.9405E-13  0.9841E-05  0.4561E-07  0.5516E-03  0.4140E-02  0.5772E+02
   -0.675001   12.37666  0.9405E-13  0.9602E-05  0.4036E-07  0.5691E-03  0.3802E-02  0.9148E+01
   -0.712502   12.37763  0.9405E-13  0.9383E-05  0.3609E-07  0.5846E-03  0.3485E-02  0.4162E+01
   -0.750004   12.37857  0.9405E-13  0.9172E-05  0.3257E-07  0.5989E-03  0.3185E-02  0.3837E+01
   -0.787505   12.37949  0.9405E-13  0.8960E-05  0.2963E-07  0.6114E-03  0.2902E-02  0.4276E+01
   -0.825006   12.38038  0.9405E-13  0.8740E-05  0.2718E-07  0.6218E-03  0.2635E-02  0.3656E+01
   -0.862508   12.38126  0.9405E-13  0.8507E-05  0.2512E-07  0.6294E-03  0.2382E-02  0.3622E+01
   -0.900009   12.38213  0.9405E-13  0.8256E-05  0.2338E-07  0.6336E-03  0.2142E-02  0.3564E+01
   -0.937510   12.38299  0.9405E-13  0.7982E-05  0.2193E-07  0.6337E-03  0.1915E-02  0.3532E+01
   -0.975011   12.38385  0.9405E-13  0.7682E-05  0.2072E-07  0.6305E-03  0.1699E-02  0.3558E+01
   -1.012512   12.38472  0.9405E-13  0.7356E-05  0.1973E-07  0.6346E-03  0.1493E-02  0.2975E+01
   -1.050013   12.38559  0.9405E-13  0.7012E-05  0.1896E-07  0.6226E-03  0.1310E-02  0.2467E+01
   -1.087514   12.38648  0.9405E-13  0.6661E-05  0.1841E-07  0.6019E-03  0.1154E-02  0.2078E+01
   -1.125015   12.38738  0.9405E-13  0.6313E-05  0.1809E-07  0.5768E-03  0.1021E-02  0.1761E+01
   -1.162515   12.38833  0.9405E-13  0.5978E-05  0.1799E-07  0.5511E-03  0.9100E-03  0.1503E+01
   -1.200015   12.38931  0.9405E-13  0.5662E-05  0.1813E-07  0.5136E-03  0.8203E-03  0.1407E+01
   -1.237515   12.39037  0.9405E-13  0.5367E-05  0.1852E-07  0.4606E-03  0.7490E-03  0.1537E+01
   -1.275015   12.39155  0.9405E-13  0.5086E-05  0.1919E-07  0.4051E-03  0.6935E-03  0.2147E+01
   -1.312514   12.39290  0.9405E-13  0.4794E-05  0.2029E-07  0.3517E-03  0.6504E-03  0.3996E+01
   -1.350014   12.39446  0.9405E-13  0.4455E-05  0.2214E-07  0.2777E-03  0.6139E-03  0.9992E+01
   -1.387512   12.39643  0.9405E-13  0.4038E-05  0.2550E-07  0.2342E-03  0.5796E-03  0.3282E+02
   -1.425011   12.39879  0.9405E-13  0.3392E-05  0.3526E-07  0.1098E-03  0.5519E-03  0.3557E+03
   -1.462509   12.40663  0.9405E-13  0.1936E-05  0.7866E-07  0.2624E-04  0.5139E-03 -0.9412E+04
   -1.500007   12.42927  0.9405E-13  0.0000E+00  0.0000E+00  0.0000E+00  0.5177E-03  0.0000E+00
