 1 - depth, m
 2 - temperature, C
 3 - salinity, kg/kg
 4 - turbulent kinetic energy, m**2/s**2
 5 - dissipation rate, m**2/s**3
 6 - kinematic heat conductance, m**2/s
 7 - modulus of horizontal velocity, m/s
 8 - Richardson number, n/d
   -0.000000    9.25038  0.8900E-13  0.4613E-04  0.1050E-04  0.2987E-04  0.4503E-01 -0.1708E-01
   -0.037498    9.28897  0.8900E-13  0.2954E-04  0.3227E-05  0.5504E-04  0.1860E-01 -0.2751E-01
   -0.074996    9.29975  0.8900E-13  0.2290E-04  0.1589E-05  0.6563E-04  0.1374E-01 -0.4505E-01
   -0.112494    9.30743  0.8900E-13  0.1865E-04  0.9146E-06  0.7568E-04  0.1108E-01 -0.7348E-01
   -0.149993    9.31348  0.8900E-13  0.1552E-04  0.5686E-06  0.8714E-04  0.9187E-02 -0.1132E+00
   -0.187492    9.31846  0.8900E-13  0.1315E-04  0.3720E-06  0.1017E-03  0.7747E-02 -0.1506E+00
   -0.224991    9.32261  0.8900E-13  0.1134E-04  0.2527E-06  0.1417E-03  0.6625E-02  0.4479E+03
   -0.262491    9.32577  0.8900E-13  0.9956E-05  0.1775E-06  0.2054E-03  0.5755E-02  0.4499E+02
   -0.299990    9.32817  0.8900E-13  0.8882E-05  0.1282E-06  0.2422E-03  0.5067E-02  0.5607E+02
   -0.337490    9.33021  0.8900E-13  0.8023E-05  0.9477E-07  0.2718E-03  0.4482E-02  0.3449E+02
   -0.374991    9.33201  0.8900E-13  0.7332E-05  0.7154E-07  0.3070E-03  0.3984E-02  0.2780E+03
   -0.412491    9.33356  0.8900E-13  0.6776E-05  0.5515E-07  0.3386E-03  0.3565E-02  0.2207E+01
   -0.449992    9.33494  0.8900E-13  0.6330E-05  0.4341E-07  0.3714E-03  0.3212E-02  0.1780E+02
   -0.487492    9.33615  0.8900E-13  0.5978E-05  0.3495E-07  0.4051E-03  0.2917E-02  0.3813E+01
   -0.524993    9.33723  0.8900E-13  0.5704E-05  0.2883E-07  0.4300E-03  0.2670E-02  0.1051E+02
   -0.562494    9.33821  0.8900E-13  0.5484E-05  0.2429E-07  0.4522E-03  0.2444E-02  0.2691E+03
   -0.599995    9.33913  0.8900E-13  0.5304E-05  0.2084E-07  0.4749E-03  0.2236E-02  0.5708E+01
   -0.637496    9.33998  0.8900E-13  0.5151E-05  0.1818E-07  0.4974E-03  0.2045E-02  0.8149E+01
   -0.674998    9.34077  0.8900E-13  0.5018E-05  0.1610E-07  0.5180E-03  0.1868E-02  0.2832E+03
   -0.712499    9.34152  0.8900E-13  0.4898E-05  0.1445E-07  0.5368E-03  0.1705E-02  0.2987E+01
   -0.750000    9.34223  0.8900E-13  0.4786E-05  0.1312E-07  0.5531E-03  0.1554E-02  0.3004E+01
   -0.787501    9.34291  0.8900E-13  0.4677E-05  0.1204E-07  0.5652E-03  0.1413E-02  0.2656E+01
   -0.825003    9.34357  0.8900E-13  0.4568E-05  0.1114E-07  0.5734E-03  0.1282E-02  0.2577E+01
   -0.862504    9.34422  0.8900E-13  0.4457E-05  0.1041E-07  0.5778E-03  0.1160E-02  0.2529E+01
   -0.900005    9.34486  0.8900E-13  0.4342E-05  0.9794E-08  0.5772E-03  0.1046E-02  0.2537E+01
   -0.937506    9.34550  0.8900E-13  0.4222E-05  0.9287E-08  0.5710E-03  0.9395E-03  0.2568E+01
   -0.975007    9.34614  0.8900E-13  0.4097E-05  0.8868E-08  0.5582E-03  0.8390E-03  0.2664E+01
   -1.012508    9.34680  0.8900E-13  0.3965E-05  0.8526E-08  0.5434E-03  0.7440E-03  0.2242E+01
   -1.050009    9.34747  0.8900E-13  0.3831E-05  0.8255E-08  0.5258E-03  0.6605E-03  0.1897E+01
   -1.087509    9.34816  0.8900E-13  0.3695E-05  0.8053E-08  0.5048E-03  0.5887E-03  0.1715E+01
   -1.125010    9.34888  0.8900E-13  0.3559E-05  0.7924E-08  0.4835E-03  0.5266E-03  0.1703E+01
   -1.162510    9.34962  0.8900E-13  0.3420E-05  0.7869E-08  0.4450E-03  0.4741E-03  0.1925E+01
   -1.200010    9.35044  0.8900E-13  0.3304E-05  0.7936E-08  0.4988E-03  0.4264E-03  0.3848E+01
   -1.237510    9.35117  0.8900E-13  0.3189E-05  0.8122E-08  0.3461E-03  0.4016E-03  0.1136E+03
   -1.275009    9.35222  0.8900E-13  0.3059E-05  0.8410E-08  0.3413E-03  0.3753E-03  0.7501E+01
   -1.312509    9.35328  0.8900E-13  0.2902E-05  0.8881E-08  0.2973E-03  0.3475E-03  0.1172E+02
   -1.350008    9.35451  0.8900E-13  0.2725E-05  0.9638E-08  0.2472E-03  0.3250E-03  0.2815E+02
   -1.387506    9.35598  0.8900E-13  0.2511E-05  0.1093E-07  0.1877E-03  0.3054E-03  0.9976E+02
   -1.425005    9.35794  0.8900E-13  0.2232E-05  0.1347E-07  0.1373E-03  0.2881E-03  0.5365E+03
   -1.462503    9.36063  0.8900E-13  0.1327E-05  0.2916E-07  0.1049E-04  0.2753E-03 -0.4910E+05
   -1.500000    9.39523  0.8900E-13  0.0000E+00  0.0000E+00  0.0000E+00  0.2732E-03  0.0000E+00
