 1 - depth, m
 2 - temperature, C
 3 - salinity, kg/kg
 4 - turbulent kinetic energy, m**2/s**2
 5 - dissipation rate, m**2/s**3
 6 - kinematic heat conductance, m**2/s
 7 - modulus of horizontal velocity, m/s
 8 - Richardson number, n/d
   -0.000000   16.88383  0.9245E-13  0.7907E-04  0.2156E-04  0.4254E-04  0.7262E-01 -0.9950E-01
   -0.037498   16.94239  0.9244E-13  0.4653E-04  0.6245E-05  0.6684E-04  0.2720E-01 -0.2336E+01
   -0.074996   16.95367  0.9244E-13  0.3494E-04  0.2815E-05  0.7624E-04  0.2030E-01 -0.4468E-01
   -0.112494   16.96155  0.9244E-13  0.2792E-04  0.1498E-05  0.8769E-04  0.1658E-01 -0.6811E-01
   -0.149993   16.96785  0.9244E-13  0.2302E-04  0.8748E-06  0.1009E-03  0.1387E-01 -0.6104E-01
   -0.187492   16.97312  0.9244E-13  0.1944E-04  0.5449E-06  0.1169E-03  0.1176E-01  0.1832E+00
   -0.224991   16.97759  0.9244E-13  0.1679E-04  0.3578E-06  0.1507E-03  0.1009E-01  0.1256E+03
   -0.262490   16.98121  0.9244E-13  0.1484E-04  0.2467E-06  0.2113E-03  0.8787E-02  0.1969E+03
   -0.299990   16.98402  0.9244E-13  0.1338E-04  0.1777E-06  0.2723E-03  0.7739E-02  0.1895E+04
   -0.337490   16.98622  0.9244E-13  0.1229E-04  0.1330E-06  0.3233E-03  0.6881E-02  0.7273E+02
   -0.374990   16.98799  0.9244E-13  0.1145E-04  0.1030E-06  0.3737E-03  0.6163E-02  0.2626E+02
   -0.412490   16.98943  0.9244E-13  0.1081E-04  0.8215E-07  0.4158E-03  0.5559E-02  0.3621E+02
   -0.449991   16.99064  0.9244E-13  0.1033E-04  0.6722E-07  0.4489E-03  0.5044E-02  0.1268E+02
   -0.487492   16.99171  0.9244E-13  0.9966E-05  0.5634E-07  0.4807E-03  0.4604E-02  0.4225E+01
   -0.524992   16.99266  0.9244E-13  0.9707E-05  0.4831E-07  0.5004E-03  0.4227E-02  0.3426E+01
   -0.562493   16.99356  0.9244E-13  0.9515E-05  0.4216E-07  0.5203E-03  0.3875E-02  0.3021E+01
   -0.599994   16.99440  0.9244E-13  0.9364E-05  0.3732E-07  0.5404E-03  0.3547E-02  0.2956E+01
   -0.637495   16.99522  0.9244E-13  0.9237E-05  0.3343E-07  0.5612E-03  0.3240E-02  0.3007E+01
   -0.674997   16.99599  0.9244E-13  0.9119E-05  0.3026E-07  0.5828E-03  0.2952E-02  0.3021E+01
   -0.712498   16.99674  0.9244E-13  0.9000E-05  0.2765E-07  0.6038E-03  0.2683E-02  0.3004E+01
   -0.749999   16.99746  0.9244E-13  0.8872E-05  0.2551E-07  0.6230E-03  0.2431E-02  0.2962E+01
   -0.787500   16.99815  0.9244E-13  0.8729E-05  0.2374E-07  0.6390E-03  0.2195E-02  0.2900E+01
   -0.825001   16.99882  0.9244E-13  0.8565E-05  0.2229E-07  0.6507E-03  0.1975E-02  0.2823E+01
   -0.862502   16.99949  0.9244E-13  0.8377E-05  0.2111E-07  0.6572E-03  0.1770E-02  0.2736E+01
   -0.900003   17.00014  0.9244E-13  0.8162E-05  0.2017E-07  0.6586E-03  0.1579E-02  0.2644E+01
   -0.937504   17.00080  0.9244E-13  0.7919E-05  0.1944E-07  0.6549E-03  0.1401E-02  0.2548E+01
   -0.975005   17.00145  0.9244E-13  0.7649E-05  0.1892E-07  0.6486E-03  0.1235E-02  0.2457E+01
   -1.012506   17.00212  0.9244E-13  0.7357E-05  0.1859E-07  0.6560E-03  0.1081E-02  0.2143E+01
   -1.050007   17.00278  0.9244E-13  0.7057E-05  0.1845E-07  0.6778E-03  0.9501E-03  0.1870E+01
   -1.087507   17.00343  0.9244E-13  0.6761E-05  0.1850E-07  0.6746E-03  0.8417E-03  0.1642E+01
   -1.125008   17.00408  0.9244E-13  0.6478E-05  0.1871E-07  0.6331E-03  0.7540E-03  0.1435E+01
   -1.162508   17.00477  0.9244E-13  0.6215E-05  0.1907E-07  0.5810E-03  0.6844E-03  0.1251E+01
   -1.200008   17.00552  0.9244E-13  0.5975E-05  0.1956E-07  0.5307E-03  0.6306E-03  0.1134E+01
   -1.237508   17.00634  0.9244E-13  0.5743E-05  0.2023E-07  0.4874E-03  0.5898E-03  0.1384E+01
   -1.275007   17.00724  0.9244E-13  0.5491E-05  0.2118E-07  0.4339E-03  0.5563E-03  0.2221E+01
   -1.312506   17.00826  0.9244E-13  0.5198E-05  0.2263E-07  0.3723E-03  0.5263E-03  0.4358E+01
   -1.350005   17.00946  0.9244E-13  0.4842E-05  0.2498E-07  0.2881E-03  0.4983E-03  0.1105E+02
   -1.387504   17.01101  0.9244E-13  0.4396E-05  0.2910E-07  0.2439E-03  0.4711E-03  0.3565E+02
   -1.425002   17.01287  0.9244E-13  0.3696E-05  0.4080E-07  0.1131E-03  0.4491E-03  0.5085E+04
   -1.462500   17.01912  0.9244E-13  0.2122E-05  0.9135E-07  0.2794E-04  0.4193E-03 -0.1027E+05
   -1.499998   17.03675  0.9244E-13  0.0000E+00  0.0000E+00  0.0000E+00  0.4226E-03  0.0000E+00
