 1 - depth, m
 2 - temperature, C
 3 - salinity, kg/kg
 4 - turbulent kinetic energy, m**2/s**2
 5 - dissipation rate, m**2/s**3
 6 - kinematic heat conductance, m**2/s
 7 - modulus of horizontal velocity, m/s
 8 - Richardson number, n/d
   -0.000000   -0.00000  0.1071E-11  0.4096E-13  0.8590E-16  0.1000E-09  0.0000E+00  0.7633E+16
   -0.037497    0.11632  0.4621E-12  0.4096E-13  0.8590E-16  0.1000E-09  0.0000E+00  0.7348E+16
   -0.074995    0.23193  0.2839E-12  0.4096E-13  0.8590E-16  0.1000E-09  0.0000E+00  0.7067E+16
   -0.112494    0.34681  0.2051E-12  0.4096E-13  0.8590E-16  0.1000E-09  0.0000E+00  0.6789E+16
   -0.149992    0.46092  0.1609E-12  0.4096E-13  0.8590E-16  0.1000E-09  0.0000E+00  0.6516E+16
   -0.187491    0.57425  0.1343E-12  0.4096E-13  0.8590E-16  0.1000E-09  0.0000E+00  0.6247E+16
   -0.224990    0.68676  0.1186E-12  0.4096E-13  0.8590E-16  0.1000E-09  0.0000E+00  0.5983E+16
   -0.262489    0.79845  0.1098E-12  0.4096E-13  0.8590E-16  0.1000E-09  0.0000E+00  0.5720E+16
   -0.299989    0.90923  0.1052E-12  0.4096E-13  0.8590E-16  0.1000E-09  0.0000E+00  0.5461E+16
   -0.337489    1.01907  0.1028E-12  0.4096E-13  0.8590E-16  0.1000E-09  0.0000E+00  0.5208E+16
   -0.374989    1.12796  0.1015E-12  0.4096E-13  0.8590E-16  0.1000E-09  0.0000E+00  0.4981E+16
   -0.412489    1.23631  0.1007E-12  0.4096E-13  0.8590E-16  0.1000E-09  0.0000E+00  0.4769E+16
   -0.449989    1.34443  0.9993E-13  0.4096E-13  0.8590E-16  0.1000E-09  0.0000E+00  0.4560E+16
   -0.487490    1.45231  0.9918E-13  0.4096E-13  0.8590E-16  0.1000E-09  0.0000E+00  0.4349E+16
   -0.524991    1.55984  0.9838E-13  0.4096E-13  0.8590E-16  0.1000E-09  0.0000E+00  0.4120E+16
   -0.562491    1.66652  0.9756E-13  0.4096E-13  0.8590E-16  0.1000E-09  0.0000E+00  0.3896E+16
   -0.599992    1.77231  0.9675E-13  0.4096E-13  0.8590E-16  0.1000E-09  0.0000E+00  0.3677E+16
   -0.637493    1.87720  0.9600E-13  0.4096E-13  0.8590E-16  0.1000E-09  0.0000E+00  0.3463E+16
   -0.674994    1.98116  0.9532E-13  0.4096E-13  0.8590E-16  0.1000E-09  0.0000E+00  0.3253E+16
   -0.712495    2.08417  0.9475E-13  0.4096E-13  0.8590E-16  0.1000E-09  0.0000E+00  0.3048E+16
   -0.749996    2.18621  0.9429E-13  0.4096E-13  0.8590E-16  0.1000E-09  0.0000E+00  0.2857E+16
   -0.787497    2.28758  0.9393E-13  0.4096E-13  0.8590E-16  0.1000E-09  0.0000E+00  0.2672E+16
   -0.824998    2.38839  0.9365E-13  0.4096E-13  0.8590E-16  0.1000E-09  0.0000E+00  0.2491E+16
   -0.862499    2.48859  0.9345E-13  0.4096E-13  0.8590E-16  0.1000E-09  0.0000E+00  0.2312E+16
   -0.900000    2.58819  0.9331E-13  0.4096E-13  0.8590E-16  0.1000E-09  0.0000E+00  0.2136E+16
   -0.937501    2.68714  0.9321E-13  0.4096E-13  0.8590E-16  0.1000E-09  0.0000E+00  0.1963E+16
   -0.975002    2.78543  0.9314E-13  0.4096E-13  0.8590E-16  0.1000E-09  0.0000E+00  0.1794E+16
   -1.012503    2.88304  0.9310E-13  0.4096E-13  0.8590E-16  0.1000E-09  0.0000E+00  0.1643E+16
   -1.050003    2.98087  0.9307E-13  0.4096E-13  0.8590E-16  0.1000E-09  0.0000E+00  0.1495E+16
   -1.087504    3.07914  0.9305E-13  0.4096E-13  0.8590E-16  0.1000E-09  0.0000E+00  0.1345E+16
   -1.125004    3.17790  0.9304E-13  0.4096E-13  0.8590E-16  0.1000E-09  0.0000E+00  0.1205E+16
   -1.162504    3.27812  0.9304E-13  0.1190E-12  0.1554E-15  0.1000E-09  0.0000E+00  0.1060E+16
   -1.200004    3.38006  0.9303E-13  0.4912E-12  0.5921E-15  0.1000E-09  0.0000E+00  0.9094E+15
   -1.237503    3.48386  0.9303E-13  0.1985E-11  0.2321E-14  0.1000E-09  0.0000E+00  0.7507E+15
   -1.275003    3.58970  0.9303E-13  0.7875E-11  0.8979E-14  0.1000E-09  0.0000E+00  0.5832E+15
   -1.312502    3.69779  0.9303E-13  0.3072E-10  0.3428E-13  0.2183E-09  0.0000E+00  0.4052E+15
   -1.350000    3.80824  0.9303E-13  0.1178E-09  0.1295E-12  0.1472E-08  0.0000E+00  0.2148E+15
   -1.387499    3.92044  0.9303E-13  0.4393E-09  0.4844E-12  0.2495E-07  0.0000E+00  0.2544E+14
   -1.424997    4.01943  0.9303E-13  0.1407E-08  0.1797E-11  0.3898E-06  0.0000E+00 -0.2470E+14
   -1.462495    4.05153  0.9303E-13  0.1632E-08  0.3775E-11  0.2073E-06  0.0000E+00 -0.7268E+14
   -1.499992    4.10269  0.9303E-13  0.0000E+00  0.0000E+00  0.0000E+00  0.0000E+00  0.0000E+00
