 1 - depth, m
 2 - temperature, C
 3 - salinity, kg/kg
 4 - turbulent kinetic energy, m**2/s**2
 5 - dissipation rate, m**2/s**3
 6 - kinematic heat conductance, m**2/s
 7 - modulus of horizontal velocity, m/s
 8 - Richardson number, n/d
   -0.000000   -0.00000  0.7842E-12  0.4096E-13  0.8590E-16  0.1000E-09  0.0000E+00  0.1136E+17
   -0.037498    0.17455  0.4780E-12  0.4096E-13  0.8590E-16  0.1000E-09  0.0000E+00  0.1078E+17
   -0.074996    0.34836  0.2831E-12  0.4096E-13  0.8590E-16  0.1000E-09  0.0000E+00  0.1019E+17
   -0.112494    0.52124  0.1916E-12  0.4096E-13  0.8590E-16  0.1000E-09  0.0000E+00  0.9606E+16
   -0.149993    0.69300  0.1473E-12  0.4096E-13  0.8590E-16  0.1000E-09  0.0000E+00  0.9024E+16
   -0.187492    0.86344  0.1229E-12  0.4096E-13  0.8590E-16  0.1000E-09  0.0000E+00  0.8447E+16
   -0.224991    1.03237  0.1085E-12  0.4096E-13  0.8590E-16  0.1000E-09  0.0000E+00  0.7878E+16
   -0.262490    1.19963  0.9991E-13  0.8984E-13  0.8590E-16  0.1000E-09  0.0000E+00  0.7322E+16
   -0.299990    1.36509  0.9500E-13  0.3026E-12  0.8889E-16  0.1000E-09  0.0000E+00  0.6777E+16
   -0.337490    1.52861  0.9223E-13  0.6875E-12  0.1376E-15  0.1000E-09  0.0000E+00  0.6245E+16
   -0.374990    1.69003  0.9061E-13  0.1340E-11  0.2358E-15  0.1000E-09  0.0000E+00  0.5741E+16
   -0.412491    1.84959  0.8952E-13  0.2451E-11  0.4091E-15  0.1000E-09  0.0000E+00  0.5258E+16
   -0.449991    2.00742  0.8864E-13  0.4359E-11  0.7061E-15  0.1000E-09  0.0000E+00  0.4788E+16
   -0.487492    2.16339  0.8779E-13  0.7641E-11  0.1211E-14  0.1000E-09  0.0000E+00  0.4332E+16
   -0.524993    2.31741  0.8693E-13  0.1324E-10  0.2058E-14  0.1000E-09  0.0000E+00  0.3891E+16
   -0.562494    2.46942  0.8608E-13  0.2275E-10  0.3471E-14  0.1000E-09  0.0000E+00  0.3465E+16
   -0.599995    2.61934  0.8528E-13  0.3886E-10  0.5822E-14  0.1000E-09  0.0000E+00  0.3056E+16
   -0.637496    2.76714  0.8458E-13  0.6603E-10  0.9717E-14  0.1000E-09  0.0000E+00  0.2663E+16
   -0.674997    2.91275  0.8402E-13  0.1117E-09  0.1614E-13  0.1000E-09  0.0000E+00  0.2287E+16
   -0.712498    3.05615  0.8361E-13  0.1880E-09  0.2670E-13  0.1000E-09  0.0000E+00  0.1927E+16
   -0.749999    3.19730  0.8335E-13  0.3150E-09  0.4397E-13  0.1000E-09  0.0000E+00  0.1589E+16
   -0.787500    3.33669  0.8320E-13  0.5254E-09  0.7208E-13  0.1583E-09  0.0000E+00  0.1265E+16
   -0.825002    3.47444  0.8312E-13  0.8725E-09  0.1177E-12  0.3433E-09  0.0000E+00  0.9523E+15
   -0.862503    3.61043  0.8309E-13  0.1442E-08  0.1912E-12  0.8157E-09  0.0000E+00  0.6516E+15
   -0.900004    3.74443  0.8308E-13  0.2372E-08  0.3093E-12  0.2370E-08  0.0000E+00  0.3631E+15
   -0.937505    3.87547  0.8307E-13  0.3862E-08  0.4956E-12  0.1449E-07  0.0000E+00  0.9580E+14
   -0.975006    3.99503  0.8307E-13  0.4523E-08  0.5832E-12  0.1136E-04  0.0000E+00 -0.2384E+12
   -1.012507    3.99666  0.8307E-13  0.4856E-08  0.6371E-12  0.1249E-04  0.0000E+00 -0.2533E+12
   -1.050007    3.99814  0.8307E-13  0.5148E-08  0.6950E-12  0.1319E-04  0.0000E+00 -0.2720E+12
   -1.087508    3.99954  0.8307E-13  0.5402E-08  0.7580E-12  0.1349E-04  0.0000E+00 -0.2962E+12
   -1.125008    4.00091  0.8307E-13  0.5616E-08  0.8277E-12  0.1346E-04  0.0000E+00 -0.3281E+12
   -1.162508    4.00229  0.8307E-13  0.5789E-08  0.9062E-12  0.1308E-04  0.0000E+00 -0.3707E+12
   -1.200008    4.00371  0.8307E-13  0.5913E-08  0.9971E-12  0.1237E-04  0.0000E+00 -0.4295E+12
   -1.237508    4.00522  0.8307E-13  0.5981E-08  0.1105E-11  0.1132E-04  0.0000E+00 -0.5141E+12
   -1.275008    4.00689  0.8307E-13  0.5977E-08  0.1240E-11  0.9932E-05  0.0000E+00 -0.6436E+12
   -1.312507    4.00880  0.8307E-13  0.5878E-08  0.1419E-11  0.8215E-05  0.0000E+00 -0.8607E+12
   -1.350006    4.01113  0.8307E-13  0.5640E-08  0.1676E-11  0.6190E-05  0.0000E+00 -0.1281E+13
   -1.387504    4.01423  0.8307E-13  0.5179E-08  0.2104E-11  0.3939E-05  0.0000E+00 -0.2316E+13
   -1.425003    4.01911  0.8307E-13  0.4306E-08  0.3009E-11  0.1732E-05  0.0000E+00 -0.6432E+13
   -1.462501    4.02987  0.8307E-13  0.2785E-08  0.5913E-11  0.2974E-06  0.0000E+00 -0.4887E+14
   -1.499998    4.07655  0.8307E-13  0.0000E+00  0.0000E+00  0.0000E+00  0.0000E+00  0.0000E+00
