 1 - depth, m
 2 - temperature, C
 3 - salinity, kg/kg
 4 - turbulent kinetic energy, m**2/s**2
 5 - dissipation rate, m**2/s**3
 6 - kinematic heat conductance, m**2/s
 7 - modulus of horizontal velocity, m/s
 8 - Richardson number, n/d
   -0.000000   -0.00000  0.9680E-13  0.1730E-03  0.1416E-03  0.5726E-04  0.1531E+00  0.9943E-02
   -0.037498    0.00875  0.9683E-13  0.1098E-03  0.5028E-04  0.9233E-04  0.5824E-01  0.3037E-01
   -0.074997    0.01409  0.9685E-13  0.8119E-04  0.1783E-04  0.1129E-03  0.4115E-01  0.4180E-01
   -0.112496    0.01741  0.9686E-13  0.6586E-04  0.9400E-05  0.1232E-03  0.3388E-01  0.4205E-02
   -0.149995    0.02001  0.9687E-13  0.5494E-04  0.5303E-05  0.1322E-03  0.2904E-01  0.6029E-02
   -0.187495    0.02229  0.9688E-13  0.4669E-04  0.3155E-05  0.1401E-03  0.2536E-01  0.8958E-02
   -0.224995    0.02438  0.9688E-13  0.4018E-04  0.1958E-05  0.1469E-03  0.2248E-01  0.2047E-01
   -0.262495    0.02636  0.9688E-13  0.3498E-04  0.1271E-05  0.1509E-03  0.2016E-01  0.2826E-01
   -0.299995    0.02830  0.9689E-13  0.3066E-04  0.8593E-06  0.1533E-03  0.1815E-01  0.4204E-01
   -0.337496    0.03022  0.9689E-13  0.2696E-04  0.6035E-06  0.1543E-03  0.1641E-01  0.7106E-01
   -0.374997    0.03215  0.9690E-13  0.2376E-04  0.4385E-06  0.1540E-03  0.1490E-01  0.1864E+00
   -0.412498    0.03409  0.9690E-13  0.2095E-04  0.3283E-06  0.1528E-03  0.1360E-01  0.3670E+01
   -0.449999    0.03605  0.9690E-13  0.1851E-04  0.2522E-06  0.1512E-03  0.1249E-01  0.2017E+01
   -0.487500    0.03805  0.9691E-13  0.1644E-04  0.1984E-06  0.1490E-03  0.1157E-01  0.1479E+01
   -0.525002    0.04009  0.9691E-13  0.1471E-04  0.1596E-06  0.1427E-03  0.1080E-01  0.3564E+01
   -0.562503    0.04224  0.9691E-13  0.1321E-04  0.1304E-06  0.1361E-03  0.1006E-01  0.1072E+02
   -0.600005    0.04447  0.9692E-13  0.1190E-04  0.1079E-06  0.1290E-03  0.9360E-02  0.8205E+01
   -0.637506    0.04680  0.9692E-13  0.1072E-04  0.9002E-07  0.1212E-03  0.8692E-02  0.1143E+01
   -0.675008    0.04929  0.9692E-13  0.9660E-05  0.7568E-07  0.1127E-03  0.8060E-02  0.9403E+00
   -0.712510    0.05199  0.9693E-13  0.8689E-05  0.6400E-07  0.1034E-03  0.7461E-02  0.9492E+00
   -0.750012    0.05500  0.9693E-13  0.7796E-05  0.5437E-07  0.9343E-04  0.6891E-02  0.1026E+01
   -0.787514    0.05843  0.9693E-13  0.6970E-05  0.4637E-07  0.8285E-04  0.6347E-02  0.1209E+01
   -0.825016    0.06257  0.9694E-13  0.6203E-05  0.3966E-07  0.7182E-04  0.5824E-02  0.1684E+01
   -0.862517    0.06849  0.9694E-13  0.5481E-05  0.3398E-07  0.6072E-04  0.5310E-02  0.4650E+01
   -0.900019    0.08640  0.9694E-13  0.4792E-05  0.2909E-07  0.5032E-04  0.4763E-02  0.2994E+02
   -0.937521    0.13871  0.9693E-13  0.4145E-05  0.2486E-07  0.4059E-04  0.4178E-02  0.1587E+03
   -0.975022    0.22901  0.9695E-13  0.3520E-05  0.2103E-07  0.3097E-04  0.3520E-02  0.7274E+03
   -1.012524    0.37496  0.9699E-13  0.2890E-05  0.1714E-07  0.2448E-04  0.2772E-02  0.9350E+04
   -1.050025    0.57911  0.9703E-13  0.2332E-05  0.1372E-07  0.1815E-04  0.2187E-02  0.1467E+06
   -1.087526    0.81024  0.9707E-13  0.1824E-05  0.1066E-07  0.1204E-04  0.1758E-02  0.2444E+07
   -1.125027    1.06258  0.9710E-13  0.1352E-05  0.7892E-08  0.7113E-05  0.1363E-02  0.4627E+08
   -1.162528    1.40068  0.9717E-13  0.9373E-06  0.5541E-08  0.3251E-05  0.9964E-03  0.9195E+09
   -1.200029    1.82822  0.9725E-13  0.5682E-06  0.3489E-08  0.5771E-06  0.6812E-03  0.1841E+11
   -1.237529    2.35041  0.9734E-13  0.2274E-06  0.1484E-08  0.7494E-07  0.3715E-03  0.3472E+12
   -1.275029    3.03963  0.9748E-13  0.5986E-07  0.3773E-09  0.3827E-07  0.1305E-03  0.4943E+13
   -1.312529    3.75612  0.9763E-13  0.2598E-07  0.8898E-10  0.5640E-05  0.3554E-04  0.8485E+13
   -1.350029    3.99905  0.9768E-13  0.2340E-07  0.3658E-10  0.7728E-05  0.8824E-05 -0.2894E+13
   -1.387528    4.06883  0.9769E-13  0.2437E-07  0.3095E-10  0.7154E-05  0.2457E-05 -0.3976E+13
   -1.425027    4.08666  0.9769E-13  0.2363E-07  0.3826E-10  0.4688E-05  0.8564E-06 -0.8636E+13
   -1.462526    4.10862  0.9769E-13  0.1865E-07  0.7055E-10  0.1269E-05  0.3700E-06 -0.6926E+14
   -1.500024    4.18004  0.9769E-13  0.0000E+00  0.0000E+00  0.0000E+00  0.3799E-06  0.0000E+00
