 1 - depth, m
 2 - temperature, C
 3 - salinity, kg/kg
 4 - turbulent kinetic energy, m**2/s**2
 5 - dissipation rate, m**2/s**3
 6 - kinematic heat conductance, m**2/s
 7 - modulus of horizontal velocity, m/s
 8 - Richardson number, n/d
   -0.000000    3.74386  0.8733E-13  0.8896E-04  0.4590E-02  0.4454E-04  0.6366E-01  0.2729E-02
   -0.037498    3.79477  0.8734E-13  0.5984E-04  0.3359E-02  0.5996E-04  0.2681E-01  0.1099E-02
   -0.074996    3.80785  0.8734E-13  0.4346E-04  0.2586E-02  0.6280E-04  0.2015E-01  0.9175E-03
   -0.112494    3.81796  0.8734E-13  0.3433E-04  0.1733E-02  0.6758E-04  0.1641E-01  0.3117E-03
   -0.149993    3.82674  0.8734E-13  0.2615E-04  0.9464E-03  0.7165E-04  0.1367E-01  0.1966E-02
   -0.187492    3.83485  0.8734E-13  0.1868E-04  0.3413E-03  0.7473E-04  0.1150E-01  0.2724E-02
   -0.224991    3.84259  0.8734E-13  0.1300E-04  0.5856E-04  0.7704E-04  0.9730E-02  0.3792E-02
   -0.262491    3.85020  0.8735E-13  0.9933E-05  0.4021E-05  0.7787E-04  0.8271E-02  0.4872E-02
   -0.299991    3.85777  0.8735E-13  0.8201E-05  0.2610E-06  0.7788E-04  0.7031E-02  0.6211E-02
   -0.337491    3.86518  0.8735E-13  0.6891E-05  0.8461E-07  0.7722E-04  0.6003E-02  0.7976E-02
   -0.374991    3.87255  0.8735E-13  0.5813E-05  0.5263E-07  0.7604E-04  0.5144E-02  0.1045E-01
   -0.412492    3.87996  0.8735E-13  0.4910E-05  0.3695E-07  0.7460E-04  0.4429E-02  0.1444E-01
   -0.449992    3.88741  0.8735E-13  0.4156E-05  0.2686E-07  0.7332E-04  0.3840E-02  0.2410E-01
   -0.487493    3.89487  0.8735E-13  0.3539E-05  0.1991E-07  0.7211E-04  0.3363E-02  0.7073E-01
   -0.524994    3.90236  0.8735E-13  0.3046E-05  0.1509E-07  0.6947E-04  0.2978E-02  0.3580E-01
   -0.562495    3.91002  0.8735E-13  0.2639E-05  0.1160E-07  0.6724E-04  0.2626E-02  0.2418E-01
   -0.599996    3.91781  0.8735E-13  0.2298E-05  0.9023E-08  0.6535E-04  0.2307E-02  0.1066E-01
   -0.637497    3.92566  0.8735E-13  0.2010E-05  0.7088E-08  0.6378E-04  0.2020E-02 -0.1015E-01
   -0.674998    3.93352  0.8735E-13  0.1763E-05  0.5613E-08  0.6253E-04  0.1763E-02 -0.4280E-01
   -0.712500    3.94135  0.8736E-13  0.1551E-05  0.4474E-08  0.6159E-04  0.1532E-02 -0.9240E-01
   -0.750001    3.94912  0.8736E-13  0.1367E-05  0.3588E-08  0.6105E-04  0.1327E-02 -0.1606E+00
   -0.787502    3.95679  0.8736E-13  0.1208E-05  0.2891E-08  0.6162E-04  0.1143E-02 -0.1890E+00
   -0.825004    3.96431  0.8736E-13  0.1070E-05  0.2342E-08  0.6574E-04  0.9795E-03  0.1239E+02
   -0.862505    3.97160  0.8736E-13  0.9505E-06  0.1906E-08  0.6792E-04  0.8337E-03  0.6528E+04
   -0.900006    3.97878  0.8736E-13  0.8459E-06  0.1559E-08  0.6905E-04  0.7039E-03  0.5331E+02
   -0.937507    3.98596  0.8736E-13  0.7540E-06  0.1279E-08  0.6967E-04  0.5873E-03  0.3374E+03
   -0.975008    3.99318  0.8736E-13  0.6725E-06  0.1052E-08  0.6997E-04  0.4815E-03  0.1742E+04
   -1.012509    4.00053  0.8736E-13  0.5997E-06  0.8666E-09  0.7085E-04  0.3840E-03  0.3220E+03
   -1.050010    4.00788  0.8736E-13  0.5359E-06  0.7168E-09  0.7143E-04  0.3040E-03  0.7862E+02
   -1.087510    4.01525  0.8736E-13  0.4805E-06  0.5975E-09  0.7159E-04  0.2398E-03  0.7030E+02
   -1.125011    4.02261  0.8736E-13  0.4328E-06  0.5035E-09  0.7149E-04  0.1886E-03  0.1141E+03
   -1.162511    4.02994  0.8736E-13  0.3917E-06  0.4305E-09  0.7102E-04  0.1478E-03  0.2252E+03
   -1.200011    4.03717  0.8736E-13  0.3562E-06  0.3749E-09  0.7002E-04  0.1157E-03  0.1015E+03
   -1.237511    4.04429  0.8736E-13  0.3253E-06  0.3337E-09  0.6798E-04  0.9054E-04  0.4056E+03
   -1.275011    4.05136  0.8736E-13  0.2977E-06  0.3051E-09  0.6461E-04  0.7088E-04  0.3751E+04
   -1.312510    4.05851  0.8736E-13  0.2722E-06  0.2880E-09  0.5937E-04  0.5556E-04  0.1750E+04
   -1.350009    4.06604  0.8736E-13  0.2473E-06  0.2833E-09  0.5174E-04  0.4359E-04  0.6036E+06
   -1.387508    4.07452  0.8736E-13  0.2201E-06  0.2978E-09  0.3802E-04  0.3412E-04 -0.4995E+03
   -1.425006    4.08565  0.8736E-13  0.1850E-06  0.3596E-09  0.1945E-04  0.2642E-04 -0.2859E+04
   -1.462504    4.10600  0.8736E-13  0.1087E-06  0.7334E-09  0.2990E-05  0.2050E-04 -0.1613E+07
   -1.500002    4.22879  0.8736E-13  0.0000E+00  0.0000E+00  0.0000E+00  0.2051E-04  0.0000E+00
