 1 - depth, m
 2 - temperature, C
 3 - salinity, kg/kg
 4 - turbulent kinetic energy, m**2/s**2
 5 - dissipation rate, m**2/s**3
 6 - kinematic heat conductance, m**2/s
 7 - modulus of horizontal velocity, m/s
 8 - Richardson number, n/d
   -0.000000   -0.00000  0.3956E-12  0.2070E-11  0.7349E-15  0.1000E-09  0.0000E+00  0.1561E+17
   -0.037498    0.24199  0.3684E-12  0.3462E-11  0.7738E-15  0.1000E-09  0.0000E+00  0.1452E+17
   -0.074996    0.48310  0.2811E-12  0.6353E-11  0.1119E-14  0.1000E-09  0.0000E+00  0.1343E+17
   -0.112494    0.72298  0.2022E-12  0.1143E-10  0.1821E-14  0.1000E-09  0.0000E+00  0.1235E+17
   -0.149993    0.96122  0.1470E-12  0.2008E-10  0.3052E-14  0.1000E-09  0.0000E+00  0.1128E+17
   -0.187492    1.19747  0.1153E-12  0.3474E-10  0.5132E-14  0.1000E-09  0.0000E+00  0.1022E+17
   -0.224991    1.43135  0.1002E-12  0.5948E-10  0.8604E-14  0.1000E-09  0.0000E+00  0.9187E+16
   -0.262491    1.66249  0.9391E-13  0.1011E-09  0.1436E-13  0.1000E-09  0.0000E+00  0.8188E+16
   -0.299991    1.89078  0.9156E-13  0.1709E-09  0.2383E-13  0.1000E-09  0.0000E+00  0.7222E+16
   -0.337491    2.11598  0.9054E-13  0.2872E-09  0.3937E-13  0.1000E-09  0.0000E+00  0.6289E+16
   -0.374991    2.33783  0.8975E-13  0.4808E-09  0.6478E-13  0.1000E-09  0.0000E+00  0.5425E+16
   -0.412492    2.55743  0.8877E-13  0.8014E-09  0.1062E-12  0.1000E-09  0.0000E+00  0.4604E+16
   -0.449992    2.77547  0.8753E-13  0.1331E-08  0.1733E-12  0.1265E-09  0.0000E+00  0.3804E+16
   -0.487493    2.99188  0.8623E-13  0.2200E-08  0.2818E-12  0.2587E-09  0.0000E+00  0.3025E+16
   -0.524994    3.20651  0.8515E-13  0.3613E-08  0.4552E-12  0.5577E-09  0.0000E+00  0.2267E+16
   -0.562495    3.41910  0.8446E-13  0.5894E-08  0.7307E-12  0.1325E-08  0.0000E+00  0.1532E+16
   -0.599996    3.62909  0.8411E-13  0.9558E-08  0.1166E-11  0.3946E-08  0.0000E+00  0.8212E+15
   -0.637497    3.83397  0.8398E-13  0.1526E-07  0.1835E-11  0.2867E-07  0.0000E+00  0.1785E+15
   -0.674998    4.00804  0.8396E-13  0.1586E-07  0.1911E-11  0.5006E-04  0.0000E+00 -0.2026E+12
   -0.712500    4.00862  0.8396E-13  0.1613E-07  0.1952E-11  0.4911E-04  0.0000E+00 -0.2112E+12
   -0.750001    4.00922  0.8396E-13  0.1639E-07  0.1997E-11  0.4938E-04  0.0000E+00 -0.2156E+12
   -0.787502    4.00981  0.8396E-13  0.1661E-07  0.2045E-11  0.4954E-04  0.0000E+00 -0.2208E+12
   -0.825004    4.01041  0.8396E-13  0.1681E-07  0.2096E-11  0.4949E-04  0.0000E+00 -0.2268E+12
   -0.862505    4.01100  0.8396E-13  0.1698E-07  0.2151E-11  0.4924E-04  0.0000E+00 -0.2339E+12
   -0.900006    4.01160  0.8396E-13  0.1712E-07  0.2210E-11  0.4878E-04  0.0000E+00 -0.2422E+12
   -0.937507    4.01220  0.8396E-13  0.1723E-07  0.2274E-11  0.4812E-04  0.0000E+00 -0.2518E+12
   -0.975008    4.01282  0.8396E-13  0.1731E-07  0.2343E-11  0.4724E-04  0.0000E+00 -0.2630E+12
   -1.012509    4.01344  0.8396E-13  0.1735E-07  0.2419E-11  0.4615E-04  0.0000E+00 -0.2771E+12
   -1.050010    4.01409  0.8396E-13  0.1736E-07  0.2503E-11  0.4481E-04  0.0000E+00 -0.2940E+12
   -1.087511    4.01475  0.8396E-13  0.1733E-07  0.2599E-11  0.4322E-04  0.0000E+00 -0.3142E+12
   -1.125011    4.01545  0.8396E-13  0.1726E-07  0.2707E-11  0.4136E-04  0.0000E+00 -0.3380E+12
   -1.162511    4.01618  0.8396E-13  0.1714E-07  0.2831E-11  0.3920E-04  0.0000E+00 -0.3672E+12
   -1.200011    4.01696  0.8396E-13  0.1695E-07  0.2976E-11  0.3673E-04  0.0000E+00 -0.4040E+12
   -1.237511    4.01779  0.8396E-13  0.1669E-07  0.3154E-11  0.3396E-04  0.0000E+00 -0.4512E+12
   -1.275011    4.01869  0.8396E-13  0.1629E-07  0.3404E-11  0.2823E-04  0.0000E+00 -0.5622E+12
   -1.312510    4.01978  0.8396E-13  0.1566E-07  0.3784E-11  0.2069E-04  0.0000E+00 -0.8009E+12
   -1.350009    4.02128  0.8396E-13  0.1475E-07  0.4356E-11  0.1477E-04  0.0000E+00 -0.1185E+13
   -1.387508    4.02338  0.8396E-13  0.1338E-07  0.5331E-11  0.9213E-05  0.0000E+00 -0.2048E+13
   -1.425006    4.02676  0.8396E-13  0.1109E-07  0.7482E-11  0.4009E-05  0.0000E+00 -0.5318E+13
   -1.462504    4.03443  0.8396E-13  0.6545E-08  0.1581E-10  0.5372E-06  0.0000E+00 -0.5328E+14
   -1.500002    4.08183  0.8396E-13  0.0000E+00  0.0000E+00  0.0000E+00  0.0000E+00  0.0000E+00
