 1 - depth, m
 2 - temperature, C
 3 - salinity, kg/kg
 4 - turbulent kinetic energy, m**2/s**2
 5 - dissipation rate, m**2/s**3
 6 - kinematic heat conductance, m**2/s
 7 - modulus of horizontal velocity, m/s
 8 - Richardson number, n/d
   -0.000000   -0.00000  0.4288E-12  0.6928E-12  0.1931E-15  0.1000E-09  0.0000E+00  0.1434E+17
   -0.037498    0.22170  0.3159E-12  0.1059E-11  0.2066E-15  0.1000E-09  0.0000E+00  0.1336E+17
   -0.074996    0.44154  0.2621E-12  0.1824E-11  0.2914E-15  0.1000E-09  0.0000E+00  0.1240E+17
   -0.112494    0.65937  0.2130E-12  0.3158E-11  0.4604E-15  0.1000E-09  0.0000E+00  0.1146E+17
   -0.149992    0.87504  0.1690E-12  0.5396E-11  0.7516E-15  0.1000E-09  0.0000E+00  0.1055E+17
   -0.187491    1.08844  0.1357E-12  0.9110E-11  0.1234E-14  0.1000E-09  0.0000E+00  0.9656E+16
   -0.224991    1.29942  0.1140E-12  0.1525E-10  0.2023E-14  0.1000E-09  0.0000E+00  0.8792E+16
   -0.262490    1.50786  0.1015E-12  0.2536E-10  0.3301E-14  0.1000E-09  0.0000E+00  0.7961E+16
   -0.299990    1.71377  0.9501E-13  0.4191E-10  0.5361E-14  0.1000E-09  0.0000E+00  0.7158E+16
   -0.337490    1.91705  0.9169E-13  0.6894E-10  0.8669E-14  0.1000E-09  0.0000E+00  0.6383E+16
   -0.374990    2.11756  0.8984E-13  0.1129E-09  0.1396E-13  0.1000E-09  0.0000E+00  0.5658E+16
   -0.412490    2.31598  0.8853E-13  0.1842E-09  0.2239E-13  0.1000E-09  0.0000E+00  0.4967E+16
   -0.449991    2.51267  0.8738E-13  0.2993E-09  0.3579E-13  0.1000E-09  0.0000E+00  0.4294E+16
   -0.487491    2.70755  0.8634E-13  0.4845E-09  0.5698E-13  0.1000E-09  0.0000E+00  0.3642E+16
   -0.524992    2.90051  0.8545E-13  0.7790E-09  0.9014E-13  0.1000E-09  0.0000E+00  0.3010E+16
   -0.562493    3.09148  0.8478E-13  0.1245E-08  0.1418E-12  0.1642E-09  0.0000E+00  0.2398E+16
   -0.599994    3.28028  0.8436E-13  0.1981E-08  0.2219E-12  0.3411E-09  0.0000E+00  0.1807E+16
   -0.637495    3.46669  0.8413E-13  0.3138E-08  0.3459E-12  0.7756E-09  0.0000E+00  0.1239E+16
   -0.674996    3.65030  0.8402E-13  0.4947E-08  0.5369E-12  0.2145E-08  0.0000E+00  0.6955E+15
   -0.712497    3.82988  0.8398E-13  0.7736E-08  0.8268E-12  0.1205E-07  0.0000E+00  0.1913E+15
   -0.749998    3.99575  0.8398E-13  0.8347E-08  0.8951E-12  0.2497E-04  0.0000E+00 -0.1561E+12
   -0.787499    3.99676  0.8398E-13  0.8644E-08  0.9344E-12  0.2834E-04  0.0000E+00 -0.1515E+12
   -0.825001    3.99766  0.8398E-13  0.8903E-08  0.9745E-12  0.3039E-04  0.0000E+00 -0.1523E+12
   -0.862502    3.99849  0.8398E-13  0.9126E-08  0.1015E-11  0.3143E-04  0.0000E+00 -0.1574E+12
   -0.900003    3.99930  0.8398E-13  0.9320E-08  0.1057E-11  0.3175E-04  0.0000E+00 -0.1659E+12
   -0.937504    4.00009  0.8398E-13  0.9489E-08  0.1101E-11  0.3165E-04  0.0000E+00 -0.1764E+12
   -0.975005    4.00089  0.8398E-13  0.9634E-08  0.1148E-11  0.3137E-04  0.0000E+00 -0.1882E+12
   -1.012505    4.00169  0.8398E-13  0.9756E-08  0.1199E-11  0.3091E-04  0.0000E+00 -0.2022E+12
   -1.050006    4.00251  0.8398E-13  0.9856E-08  0.1255E-11  0.3023E-04  0.0000E+00 -0.2186E+12
   -1.087507    4.00335  0.8398E-13  0.9930E-08  0.1318E-11  0.2934E-04  0.0000E+00 -0.2381E+12
   -1.125007    4.00422  0.8398E-13  0.9977E-08  0.1391E-11  0.2818E-04  0.0000E+00 -0.2614E+12
   -1.162507    4.00513  0.8398E-13  0.9987E-08  0.1482E-11  0.2635E-04  0.0000E+00 -0.2952E+12
   -1.200007    4.00611  0.8398E-13  0.9948E-08  0.1597E-11  0.2307E-04  0.0000E+00 -0.3571E+12
   -1.237507    4.00723  0.8398E-13  0.9843E-08  0.1743E-11  0.1938E-04  0.0000E+00 -0.4521E+12
   -1.275006    4.00857  0.8398E-13  0.9650E-08  0.1932E-11  0.1609E-04  0.0000E+00 -0.5838E+12
   -1.312505    4.01019  0.8398E-13  0.9335E-08  0.2188E-11  0.1286E-04  0.0000E+00 -0.7912E+12
   -1.350004    4.01222  0.8398E-13  0.8837E-08  0.2565E-11  0.9437E-05  0.0000E+00 -0.1185E+13
   -1.387503    4.01499  0.8398E-13  0.8037E-08  0.3204E-11  0.5881E-05  0.0000E+00 -0.2149E+13
   -1.425001    4.01944  0.8398E-13  0.6643E-08  0.4603E-11  0.2533E-05  0.0000E+00 -0.6027E+13
   -1.462499    4.02952  0.8398E-13  0.4154E-08  0.9481E-11  0.3975E-06  0.0000E+00 -0.5413E+14
   -1.499997    4.08003  0.8398E-13  0.0000E+00  0.0000E+00  0.0000E+00  0.0000E+00  0.0000E+00
