 1 - depth, m
 2 - temperature, C
 3 - salinity, kg/kg
 4 - turbulent kinetic energy, m**2/s**2
 5 - dissipation rate, m**2/s**3
 6 - kinematic heat conductance, m**2/s
 7 - modulus of horizontal velocity, m/s
 8 - Richardson number, n/d
   -0.000000   -0.00000  0.3474E-12  0.4096E-13  0.8590E-16  0.1000E-09  0.0000E+00  0.1012E+17
   -0.037498    0.15507  0.3772E-12  0.4096E-13  0.8590E-16  0.1000E-09  0.0000E+00  0.9699E+16
   -0.074996    0.31020  0.3282E-12  0.4096E-13  0.8590E-16  0.1000E-09  0.0000E+00  0.9265E+16
   -0.112495    0.46518  0.2612E-12  0.4096E-13  0.8590E-16  0.1000E-09  0.0000E+00  0.8825E+16
   -0.149994    0.61984  0.2030E-12  0.4096E-13  0.8590E-16  0.1000E-09  0.0000E+00  0.8381E+16
   -0.187493    0.77401  0.1603E-12  0.4096E-13  0.8590E-16  0.1000E-09  0.0000E+00  0.7935E+16
   -0.224993    0.92754  0.1318E-12  0.4096E-13  0.8590E-16  0.1000E-09  0.0000E+00  0.7489E+16
   -0.262493    1.08027  0.1137E-12  0.4096E-13  0.8590E-16  0.1000E-09  0.0000E+00  0.7048E+16
   -0.299993    1.23213  0.1026E-12  0.4096E-13  0.8590E-16  0.1000E-09  0.0000E+00  0.6610E+16
   -0.337493    1.38297  0.9578E-13  0.4096E-13  0.8590E-16  0.1000E-09  0.0000E+00  0.6176E+16
   -0.374993    1.53267  0.9160E-13  0.4096E-13  0.8590E-16  0.1000E-09  0.0000E+00  0.5750E+16
   -0.412494    1.68112  0.8897E-13  0.5268E-13  0.8590E-16  0.1000E-09  0.0000E+00  0.5331E+16
   -0.449995    1.82823  0.8729E-13  0.1637E-12  0.8797E-16  0.1000E-09  0.0000E+00  0.4919E+16
   -0.487496    1.97386  0.8617E-13  0.4459E-12  0.1184E-15  0.1000E-09  0.0000E+00  0.4518E+16
   -0.524997    2.11794  0.8542E-13  0.9583E-12  0.2071E-15  0.1000E-09  0.0000E+00  0.4135E+16
   -0.562498    2.26066  0.8491E-13  0.1872E-11  0.3773E-15  0.1000E-09  0.0000E+00  0.3761E+16
   -0.600000    2.40194  0.8456E-13  0.3517E-11  0.6856E-15  0.1000E-09  0.0000E+00  0.3396E+16
   -0.637501    2.54167  0.8433E-13  0.6489E-11  0.1237E-14  0.1000E-09  0.0000E+00  0.3042E+16
   -0.675003    2.67979  0.8418E-13  0.1186E-10  0.2216E-14  0.1000E-09  0.0000E+00  0.2698E+16
   -0.712504    2.81617  0.8409E-13  0.2151E-10  0.3948E-14  0.1000E-09  0.0000E+00  0.2365E+16
   -0.750006    2.95071  0.8404E-13  0.3881E-10  0.6993E-14  0.1000E-09  0.0000E+00  0.2050E+16
   -0.787507    3.08369  0.8401E-13  0.6962E-10  0.1232E-13  0.1000E-09  0.0000E+00  0.1745E+16
   -0.825009    3.21507  0.8399E-13  0.1242E-09  0.2160E-13  0.1000E-09  0.0000E+00  0.1450E+16
   -0.862510    3.34465  0.8399E-13  0.2205E-09  0.3768E-13  0.1050E-09  0.0000E+00  0.1165E+16
   -0.900012    3.47220  0.8398E-13  0.3894E-09  0.6540E-13  0.2030E-09  0.0000E+00  0.8925E+15
   -0.937513    3.59750  0.8398E-13  0.6840E-09  0.1129E-12  0.4920E-09  0.0000E+00  0.6339E+15
   -0.975014    3.72048  0.8398E-13  0.1195E-08  0.1940E-12  0.1367E-08  0.0000E+00  0.3892E+15
   -1.012515    3.84107  0.8398E-13  0.2076E-08  0.3316E-12  0.5793E-08  0.0000E+00  0.1565E+15
   -1.050016    3.95672  0.8398E-13  0.3228E-08  0.5146E-12  0.1251E-05  0.0000E+00  0.8273E+13
   -1.087517    3.99903  0.8398E-13  0.3922E-08  0.6342E-12  0.8696E-05  0.0000E+00 -0.3866E+12
   -1.125018    4.00101  0.8398E-13  0.4308E-08  0.7173E-12  0.9427E-05  0.0000E+00 -0.4168E+12
   -1.162518    4.00282  0.8398E-13  0.4624E-08  0.8051E-12  0.9717E-05  0.0000E+00 -0.4594E+12
   -1.200019    4.00457  0.8398E-13  0.4872E-08  0.9012E-12  0.9605E-05  0.0000E+00 -0.5201E+12
   -1.237519    4.00636  0.8398E-13  0.5049E-08  0.1011E-11  0.9111E-05  0.0000E+00 -0.6091E+12
   -1.275018    4.00825  0.8398E-13  0.5144E-08  0.1142E-11  0.8240E-05  0.0000E+00 -0.7465E+12
   -1.312518    4.01036  0.8398E-13  0.5137E-08  0.1310E-11  0.6998E-05  0.0000E+00 -0.9772E+12
   -1.350017    4.01286  0.8398E-13  0.4988E-08  0.1546E-11  0.5400E-05  0.0000E+00 -0.1421E+13
   -1.387516    4.01611  0.8398E-13  0.4621E-08  0.1928E-11  0.3515E-05  0.0000E+00 -0.2502E+13
   -1.425015    4.02109  0.8398E-13  0.3867E-08  0.2721E-11  0.1580E-05  0.0000E+00 -0.6682E+13
   -1.462513    4.03176  0.8398E-13  0.2510E-08  0.5216E-11  0.2743E-06  0.0000E+00 -0.4697E+14
   -1.500011    4.07614  0.8398E-13  0.0000E+00  0.0000E+00  0.0000E+00  0.0000E+00  0.0000E+00
