 1 - depth, m
 2 - temperature, C
 3 - salinity, kg/kg
 4 - turbulent kinetic energy, m**2/s**2
 5 - dissipation rate, m**2/s**3
 6 - kinematic heat conductance, m**2/s
 7 - modulus of horizontal velocity, m/s
 8 - Richardson number, n/d
   -0.000000   14.94501  0.9302E-13  0.5699E-03  0.6810E-01  0.9077E-04  0.2385E+00 -0.1644E-03
   -0.037498   15.07775  0.9301E-13  0.3660E-03  0.4250E-01  0.1433E-03  0.7372E-01 -0.3216E-01
   -0.074996   15.12312  0.9300E-13  0.2483E-03  0.2712E-01  0.1743E-03  0.4633E-01 -0.1739E+00
   -0.112494   15.14523  0.9300E-13  0.1998E-03  0.1639E-01  0.1734E-03  0.3687E-01 -0.1746E+00
   -0.149992   15.15672  0.9300E-13  0.1622E-03  0.9601E-02  0.1753E-03  0.3115E-01  0.4426E-02
   -0.187491   15.16540  0.9300E-13  0.1310E-03  0.5407E-02  0.1789E-03  0.2686E-01 -0.3980E-01
   -0.224990   15.17382  0.9300E-13  0.1047E-03  0.2890E-02  0.1897E-03  0.2332E-01  0.3236E+02
   -0.262490   15.17981  0.9300E-13  0.8298E-04  0.1437E-02  0.2019E-03  0.2072E-01  0.5658E+01
   -0.299990   15.18459  0.9300E-13  0.6518E-04  0.6458E-03  0.2220E-03  0.1853E-01  0.9204E+01
   -0.337490   15.18887  0.9300E-13  0.5105E-04  0.2515E-03  0.2504E-03  0.1667E-01  0.6758E+02
   -0.374990   15.19267  0.9300E-13  0.4039E-04  0.8018E-04  0.2976E-03  0.1512E-01  0.6385E+02
   -0.412490   15.19592  0.9300E-13  0.3298E-04  0.2012E-04  0.3570E-03  0.1384E-01  0.5527E+02
   -0.449990   15.19862  0.9300E-13  0.2816E-04  0.4129E-05  0.4138E-03  0.1275E-01  0.1513E+03
   -0.487491   15.20096  0.9300E-13  0.2515E-04  0.9937E-06  0.4691E-03  0.1184E-01  0.1048E+03
   -0.524992   15.20301  0.9300E-13  0.2319E-04  0.4582E-06  0.5171E-03  0.1105E-01  0.1116E+03
   -0.562493   15.20476  0.9300E-13  0.2174E-04  0.3032E-06  0.5534E-03  0.1028E-01  0.8948E+02
   -0.599994   15.20631  0.9300E-13  0.2059E-04  0.2283E-06  0.5877E-03  0.9566E-02  0.2062E+03
   -0.637495   15.20764  0.9300E-13  0.1960E-04  0.1818E-06  0.6116E-03  0.8895E-02  0.9256E+02
   -0.674996   15.20885  0.9300E-13  0.1876E-04  0.1512E-06  0.6793E-03  0.8251E-02  0.7844E+02
   -0.712497   15.20992  0.9300E-13  0.1802E-04  0.1292E-06  0.7048E-03  0.7696E-02  0.3524E+02
   -0.749998   15.21106  0.9300E-13  0.1737E-04  0.1131E-06  0.7463E-03  0.7142E-02  0.4214E+02
   -0.787499   15.21198  0.9300E-13  0.1677E-04  0.1004E-06  0.7605E-03  0.6661E-02  0.3061E+02
   -0.825000   15.21291  0.9300E-13  0.1619E-04  0.8955E-07  0.6898E-03  0.6196E-02  0.2109E+02
   -0.862501   15.21380  0.9300E-13  0.1555E-04  0.7981E-07  0.7039E-03  0.5681E-02  0.2413E+02
   -0.900002   15.21468  0.9300E-13  0.1491E-04  0.7156E-07  0.7078E-03  0.5199E-02  0.1813E+02
   -0.937503   15.21553  0.9300E-13  0.1423E-04  0.6430E-07  0.7065E-03  0.4733E-02  0.3397E+02
   -0.975004   15.21644  0.9300E-13  0.1356E-04  0.5821E-07  0.7537E-03  0.4267E-02  0.1956E+02
   -1.012505   15.21719  0.9300E-13  0.1287E-04  0.5298E-07  0.7380E-03  0.3867E-02  0.1133E+02
   -1.050006   15.21871  0.9300E-13  0.1211E-04  0.4818E-07  0.6563E-03  0.3448E-02  0.6396E+01
   -1.087506   15.21953  0.9300E-13  0.1125E-04  0.4380E-07  0.6260E-03  0.3070E-02  0.1078E+02
   -1.125006   15.22037  0.9300E-13  0.1036E-04  0.4011E-07  0.5907E-03  0.2738E-02  0.3261E+01
   -1.162507   15.22126  0.9300E-13  0.9461E-05  0.3715E-07  0.5575E-03  0.2440E-02  0.2559E+01
   -1.200006   15.22216  0.9300E-13  0.8571E-05  0.3501E-07  0.5209E-03  0.2180E-02  0.2049E+01
   -1.237506   15.22312  0.9300E-13  0.7728E-05  0.3378E-07  0.4774E-03  0.1957E-02  0.1904E+01
   -1.275006   15.22413  0.9300E-13  0.6970E-05  0.3360E-07  0.4196E-03  0.1775E-02  0.1686E+01
   -1.312505   15.22527  0.9300E-13  0.6288E-05  0.3491E-07  0.3626E-03  0.1632E-02  0.3219E+04
   -1.350004   15.22661  0.9300E-13  0.5578E-05  0.3961E-07  0.2889E-03  0.1522E-02  0.1033E+02
   -1.387502   15.22865  0.9300E-13  0.4775E-05  0.4945E-07  0.2300E-03  0.1415E-02  0.3577E+03
   -1.425001   15.23075  0.9300E-13  0.3779E-05  0.8233E-07  0.1325E-03  0.1331E-02  0.8481E+03
   -1.462498   15.23835  0.9300E-13  0.2194E-05  0.1810E-06  0.3347E-04  0.1223E-02 -0.7835E+04
   -1.499996   15.25570  0.9300E-13  0.0000E+00  0.0000E+00  0.0000E+00  0.1267E-02  0.0000E+00
