 1 - depth, m
 2 - temperature, C
 3 - salinity, kg/kg
 4 - turbulent kinetic energy, m**2/s**2
 5 - dissipation rate, m**2/s**3
 6 - kinematic heat conductance, m**2/s
 7 - modulus of horizontal velocity, m/s
 8 - Richardson number, n/d
   -0.000000   -0.00000  0.6135E-12  0.4096E-13  0.8590E-16  0.1000E-09  0.0000E+00  0.1044E+17
   -0.037498    0.16011  0.4528E-12  0.4096E-13  0.8590E-16  0.1000E-09  0.0000E+00  0.9922E+16
   -0.074995    0.31913  0.3325E-12  0.4096E-13  0.8590E-16  0.1000E-09  0.0000E+00  0.9412E+16
   -0.112494    0.47705  0.2372E-12  0.4096E-13  0.8590E-16  0.1000E-09  0.0000E+00  0.8911E+16
   -0.149992    0.63384  0.1742E-12  0.4096E-13  0.8590E-16  0.1000E-09  0.0000E+00  0.8420E+16
   -0.187491    0.78947  0.1371E-12  0.4096E-13  0.8590E-16  0.1000E-09  0.0000E+00  0.7938E+16
   -0.224990    0.94388  0.1161E-12  0.4096E-13  0.8590E-16  0.1000E-09  0.0000E+00  0.7464E+16
   -0.262490    1.09700  0.1042E-12  0.4096E-13  0.8590E-16  0.1000E-09  0.0000E+00  0.7002E+16
   -0.299989    1.24880  0.9748E-13  0.4096E-13  0.8590E-16  0.1000E-09  0.0000E+00  0.6548E+16
   -0.337489    1.39919  0.9356E-13  0.4096E-13  0.8590E-16  0.1000E-09  0.0000E+00  0.6103E+16
   -0.374989    1.54809  0.9121E-13  0.4096E-13  0.8590E-16  0.1000E-09  0.0000E+00  0.5677E+16
   -0.412490    1.69563  0.8968E-13  0.4096E-13  0.8590E-16  0.1000E-09  0.0000E+00  0.5264E+16
   -0.449990    1.84186  0.8856E-13  0.1135E-12  0.8590E-16  0.1000E-09  0.0000E+00  0.4860E+16
   -0.487491    1.98668  0.8762E-13  0.3520E-12  0.1077E-15  0.1000E-09  0.0000E+00  0.4465E+16
   -0.524991    2.13001  0.8676E-13  0.7984E-12  0.1890E-15  0.1000E-09  0.0000E+00  0.4081E+16
   -0.562492    2.27181  0.8596E-13  0.1609E-11  0.3504E-15  0.1000E-09  0.0000E+00  0.3707E+16
   -0.599993    2.41199  0.8524E-13  0.3094E-11  0.6492E-15  0.1000E-09  0.0000E+00  0.3344E+16
   -0.637494    2.55046  0.8461E-13  0.5830E-11  0.1193E-14  0.1000E-09  0.0000E+00  0.2992E+16
   -0.674995    2.68712  0.8410E-13  0.1086E-10  0.2177E-14  0.1000E-09  0.0000E+00  0.2652E+16
   -0.712496    2.82187  0.8372E-13  0.2010E-10  0.3946E-14  0.1000E-09  0.0000E+00  0.2323E+16
   -0.749997    2.95460  0.8345E-13  0.3694E-10  0.7113E-14  0.1000E-09  0.0000E+00  0.2012E+16
   -0.787499    3.08552  0.8327E-13  0.6749E-10  0.1275E-13  0.1000E-09  0.0000E+00  0.1714E+16
   -0.825000    3.21460  0.8317E-13  0.1227E-09  0.2273E-13  0.1000E-09  0.0000E+00  0.1425E+16
   -0.862501    3.34165  0.8311E-13  0.2217E-09  0.4030E-13  0.1003E-09  0.0000E+00  0.1149E+16
   -0.900002    3.46648  0.8309E-13  0.3984E-09  0.7109E-13  0.2227E-09  0.0000E+00  0.8854E+15
   -0.937503    3.58881  0.8308E-13  0.7122E-09  0.1247E-12  0.5434E-09  0.0000E+00  0.6366E+15
   -0.975004    3.70851  0.8307E-13  0.1266E-08  0.2177E-12  0.1496E-08  0.0000E+00  0.4032E+15
   -1.012504    3.82543  0.8307E-13  0.2237E-08  0.3779E-12  0.5661E-08  0.0000E+00  0.1846E+15
   -1.050005    3.93788  0.8307E-13  0.3792E-08  0.6323E-12  0.1075E-06  0.0000E+00  0.1588E+14
   -1.087505    4.00431  0.8307E-13  0.4650E-08  0.7811E-12  0.1071E-04  0.0000E+00 -0.4454E+12
   -1.125006    4.00582  0.8307E-13  0.5057E-08  0.8694E-12  0.1122E-04  0.0000E+00 -0.4636E+12
   -1.162506    4.00728  0.8307E-13  0.5380E-08  0.9613E-12  0.1133E-04  0.0000E+00 -0.4979E+12
   -1.200006    4.00875  0.8307E-13  0.5622E-08  0.1061E-11  0.1105E-04  0.0000E+00 -0.5520E+12
   -1.237505    4.01027  0.8307E-13  0.5781E-08  0.1175E-11  0.1039E-04  0.0000E+00 -0.6348E+12
   -1.275005    4.01190  0.8307E-13  0.5849E-08  0.1311E-11  0.9337E-05  0.0000E+00 -0.7650E+12
   -1.312504    4.01374  0.8307E-13  0.5802E-08  0.1486E-11  0.7894E-05  0.0000E+00 -0.9853E+12
   -1.350003    4.01595  0.8307E-13  0.5601E-08  0.1733E-11  0.6072E-05  0.0000E+00 -0.1409E+13
   -1.387501    4.01884  0.8307E-13  0.5161E-08  0.2137E-11  0.3940E-05  0.0000E+00 -0.2438E+13
   -1.425000    4.02332  0.8307E-13  0.4291E-08  0.2986E-11  0.1755E-05  0.0000E+00 -0.6431E+13
   -1.462497    4.03312  0.8307E-13  0.2733E-08  0.5737E-11  0.2910E-06  0.0000E+00 -0.4706E+14
   -1.499995    4.07689  0.8307E-13  0.0000E+00  0.0000E+00  0.0000E+00  0.0000E+00  0.0000E+00
