 1 - depth, m
 2 - temperature, C
 3 - salinity, kg/kg
 4 - turbulent kinetic energy, m**2/s**2
 5 - dissipation rate, m**2/s**3
 6 - kinematic heat conductance, m**2/s
 7 - modulus of horizontal velocity, m/s
 8 - Richardson number, n/d
   -0.000000   -0.00000  0.1422E-13  0.4095E-13  0.8589E-16  0.1000E-09  0.0000E+00  0.6993E+16
   -0.037499    0.10642  0.7464E-13  0.4095E-13  0.8589E-16  0.1000E-09  0.0000E+00  0.6994E+16
   -0.074997    0.21607  0.1246E-12  0.4095E-13  0.8589E-16  0.1000E-09  0.0000E+00  0.6945E+16
   -0.112497    0.32841  0.1674E-12  0.4095E-13  0.8589E-16  0.1000E-09  0.0000E+00  0.6846E+16
   -0.149996    0.44286  0.1973E-12  0.4095E-13  0.8589E-16  0.1000E-09  0.0000E+00  0.6706E+16
   -0.187496    0.55891  0.2114E-12  0.4095E-13  0.8589E-16  0.1000E-09  0.0000E+00  0.6530E+16
   -0.224996    0.67605  0.2110E-12  0.4095E-13  0.8589E-16  0.1000E-09  0.0000E+00  0.6327E+16
   -0.262497    0.79388  0.1995E-12  0.4095E-13  0.8589E-16  0.1000E-09  0.0000E+00  0.6111E+16
   -0.299997    0.91222  0.1815E-12  0.4095E-13  0.8589E-16  0.1000E-09  0.0000E+00  0.5882E+16
   -0.337498    1.03083  0.1614E-12  0.4095E-13  0.8589E-16  0.1000E-09  0.0000E+00  0.5644E+16
   -0.374999    1.14953  0.1423E-12  0.4095E-13  0.8589E-16  0.1000E-09  0.0000E+00  0.5390E+16
   -0.412501    1.26796  0.1260E-12  0.4095E-13  0.8589E-16  0.1000E-09  0.0000E+00  0.5127E+16
   -0.450002    1.38585  0.1133E-12  0.4095E-13  0.8589E-16  0.1000E-09  0.0000E+00  0.4862E+16
   -0.487504    1.50304  0.1038E-12  0.4095E-13  0.8589E-16  0.1000E-09  0.0000E+00  0.4601E+16
   -0.525005    1.61952  0.9712E-13  0.4095E-13  0.8589E-16  0.1000E-09  0.0000E+00  0.4365E+16
   -0.562507    1.73582  0.9257E-13  0.4095E-13  0.8589E-16  0.1000E-09  0.0000E+00  0.4128E+16
   -0.600009    1.85186  0.8956E-13  0.4095E-13  0.8589E-16  0.1000E-09  0.0000E+00  0.3891E+16
   -0.637511    1.96757  0.8758E-13  0.4095E-13  0.8589E-16  0.1000E-09  0.0000E+00  0.3655E+16
   -0.675013    2.08287  0.8630E-13  0.4095E-13  0.8589E-16  0.1000E-09  0.0000E+00  0.3420E+16
   -0.712515    2.19770  0.8548E-13  0.4095E-13  0.8589E-16  0.1000E-09  0.0000E+00  0.3187E+16
   -0.750018    2.31199  0.8494E-13  0.4095E-13  0.8589E-16  0.1000E-09  0.0000E+00  0.2960E+16
   -0.787520    2.42582  0.8459E-13  0.4095E-13  0.8589E-16  0.1000E-09  0.0000E+00  0.2736E+16
   -0.825022    2.53919  0.8436E-13  0.4095E-13  0.8589E-16  0.1000E-09  0.0000E+00  0.2514E+16
   -0.862524    2.65206  0.8422E-13  0.4095E-13  0.8589E-16  0.1000E-09  0.0000E+00  0.2295E+16
   -0.900026    2.76439  0.8412E-13  0.4095E-13  0.8589E-16  0.1000E-09  0.0000E+00  0.2080E+16
   -0.937528    2.87615  0.8407E-13  0.4095E-13  0.8589E-16  0.1000E-09  0.0000E+00  0.1867E+16
   -0.975030    2.98731  0.8403E-13  0.1052E-12  0.8949E-16  0.1000E-09  0.0000E+00  0.1659E+16
   -1.012531    3.09784  0.8401E-13  0.3403E-12  0.2087E-15  0.1000E-09  0.0000E+00  0.1445E+16
   -1.050033    3.20697  0.8400E-13  0.9784E-12  0.5602E-15  0.1000E-09  0.0000E+00  0.1235E+16
   -1.087534    3.31437  0.8399E-13  0.2701E-11  0.1495E-14  0.1000E-09  0.0000E+00  0.1033E+16
   -1.125036    3.41979  0.8398E-13  0.7323E-11  0.3941E-14  0.1000E-09  0.0000E+00  0.8507E+15
   -1.162537    3.52457  0.8398E-13  0.1960E-10  0.1026E-13  0.1000E-09  0.0000E+00  0.6732E+15
   -1.200038    3.62880  0.8398E-13  0.5184E-10  0.2644E-13  0.1459E-09  0.0000E+00  0.4984E+15
   -1.237538    3.73235  0.8398E-13  0.1356E-09  0.6741E-13  0.5653E-09  0.0000E+00  0.3270E+15
   -1.275039    3.83498  0.8398E-13  0.3500E-09  0.1700E-12  0.2898E-08  0.0000E+00  0.1599E+15
   -1.312539    3.93562  0.8398E-13  0.8754E-09  0.4179E-12  0.6032E-07  0.0000E+00  0.1706E+14
   -1.350039    4.00860  0.8398E-13  0.1841E-08  0.9171E-12  0.1436E-05  0.0000E+00 -0.3923E+13
   -1.387538    4.01790  0.8398E-13  0.2257E-08  0.1355E-11  0.1372E-05  0.0000E+00 -0.5542E+13
   -1.425038    4.02761  0.8398E-13  0.2249E-08  0.1987E-11  0.8450E-06  0.0000E+00 -0.1142E+14
   -1.462537    4.04257  0.8398E-13  0.1710E-08  0.3521E-11  0.2110E-06  0.0000E+00 -0.5142E+14
   -1.500035    4.08498  0.8398E-13  0.0000E+00  0.0000E+00  0.0000E+00  0.0000E+00  0.0000E+00
