 1 - depth, m
 2 - temperature, C
 3 - salinity, kg/kg
 4 - turbulent kinetic energy, m**2/s**2
 5 - dissipation rate, m**2/s**3
 6 - kinematic heat conductance, m**2/s
 7 - modulus of horizontal velocity, m/s
 8 - Richardson number, n/d
   -0.000000    0.00000  0.0000E+00  0.1910E-08  0.4379E-11  0.3565E-09  0.0000E+00  0.3446E+17
   -0.037499    0.55885  0.5119E-14  0.1033E-07  0.5249E-11  0.5073E-09  0.0000E+00  0.2654E+17
   -0.074999    1.06837  0.2369E-13  0.3040E-07  0.1162E-10  0.1233E-08  0.0000E+00  0.2122E+17
   -0.112498    1.56730  0.5861E-13  0.7642E-07  0.2746E-10  0.3669E-08  0.0000E+00  0.1707E+17
   -0.149998    2.12619  0.1085E-12  0.1527E-06  0.5312E-10  0.1205E-04  0.0000E+00  0.1153E+17
   -0.187499    2.70475  0.1541E-12  0.2142E-06  0.7355E-10  0.9253E-04  0.0000E+00  0.7251E+16
   -0.224999    3.13816  0.1775E-12  0.2649E-06  0.9035E-10  0.1585E-03  0.0000E+00  0.4618E+16
   -0.262500    3.46362  0.1807E-12  0.3073E-06  0.1046E-09  0.2127E-03  0.0000E+00  0.3075E+16
   -0.300002    3.71300  0.1711E-12  0.3433E-06  0.1170E-09  0.2576E-03  0.0000E+00  0.2104E+16
   -0.337503    3.91015  0.1562E-12  0.3731E-06  0.1276E-09  0.2948E-03  0.0000E+00  0.1326E+16
   -0.375005    4.06310  0.1416E-12  0.3942E-06  0.1354E-09  0.3273E-03  0.0000E+00  0.4853E+15
   -0.412506    4.15874  0.1313E-12  0.3988E-06  0.1376E-09  0.3576E-03  0.0000E+00  0.1417E+14
   -0.450008    4.17052  0.1302E-12  0.3999E-06  0.1388E-09  0.3620E-03  0.0000E+00 -0.2136E+13
   -0.487510    4.17128  0.1302E-12  0.4006E-06  0.1400E-09  0.3589E-03  0.0000E+00 -0.2117E+13
   -0.525013    4.17204  0.1301E-12  0.4011E-06  0.1414E-09  0.3564E-03  0.0000E+00 -0.2123E+13
   -0.562515    4.17280  0.1301E-12  0.4013E-06  0.1429E-09  0.3532E-03  0.0000E+00 -0.2147E+13
   -0.600017    4.17356  0.1301E-12  0.4012E-06  0.1445E-09  0.3494E-03  0.0000E+00 -0.2173E+13
   -0.637520    4.17433  0.1301E-12  0.4009E-06  0.1462E-09  0.3447E-03  0.0000E+00 -0.2210E+13
   -0.675023    4.17510  0.1300E-12  0.4002E-06  0.1481E-09  0.3395E-03  0.0000E+00 -0.2252E+13
   -0.712525    4.17588  0.1300E-12  0.3992E-06  0.1501E-09  0.3334E-03  0.0000E+00 -0.2304E+13
   -0.750028    4.17667  0.1300E-12  0.3979E-06  0.1523E-09  0.3268E-03  0.0000E+00 -0.2355E+13
   -0.787530    4.17748  0.1300E-12  0.3963E-06  0.1548E-09  0.3193E-03  0.0000E+00 -0.2417E+13
   -0.825033    4.17830  0.1300E-12  0.3944E-06  0.1574E-09  0.3112E-03  0.0000E+00 -0.2486E+13
   -0.862536    4.17914  0.1299E-12  0.3920E-06  0.1604E-09  0.3023E-03  0.0000E+00 -0.2571E+13
   -0.900038    4.18000  0.1299E-12  0.3894E-06  0.1637E-09  0.2927E-03  0.0000E+00 -0.2666E+13
   -0.937541    4.18089  0.1299E-12  0.3863E-06  0.1673E-09  0.2822E-03  0.0000E+00 -0.2780E+13
   -0.975043    4.18182  0.1299E-12  0.3828E-06  0.1714E-09  0.2711E-03  0.0000E+00 -0.2911E+13
   -1.012545    4.18278  0.1299E-12  0.3788E-06  0.1760E-09  0.2591E-03  0.0000E+00 -0.3073E+13
   -1.050047    4.18378  0.1298E-12  0.3742E-06  0.1814E-09  0.2463E-03  0.0000E+00 -0.3263E+13
   -1.087549    4.18484  0.1298E-12  0.3690E-06  0.1876E-09  0.2324E-03  0.0000E+00 -0.3496E+13
   -1.125051    4.18598  0.1298E-12  0.3631E-06  0.1949E-09  0.2176E-03  0.0000E+00 -0.3763E+13
   -1.162553    4.18719  0.1298E-12  0.3564E-06  0.2036E-09  0.2017E-03  0.0000E+00 -0.4097E+13
   -1.200054    4.18849  0.1298E-12  0.3487E-06  0.2141E-09  0.1849E-03  0.0000E+00 -0.4512E+13
   -1.237555    4.18992  0.1298E-12  0.3398E-06  0.2272E-09  0.1671E-03  0.0000E+00 -0.5052E+13
   -1.275056    4.19151  0.1298E-12  0.3296E-06  0.2437E-09  0.1483E-03  0.0000E+00 -0.5766E+13
   -1.312557    4.19331  0.1297E-12  0.3176E-06  0.2653E-09  0.1284E-03  0.0000E+00 -0.6762E+13
   -1.350057    4.19539  0.1297E-12  0.3034E-06  0.2952E-09  0.1080E-03  0.0000E+00 -0.8196E+13
   -1.387557    4.19789  0.1297E-12  0.2853E-06  0.3418E-09  0.8471E-04  0.0000E+00 -0.1052E+14
   -1.425057    4.20107  0.1297E-12  0.2541E-06  0.4487E-09  0.3284E-04  0.0000E+00 -0.2810E+14
   -1.462557    4.20934  0.1297E-12  0.1470E-06  0.1074E-08  0.3319E-05  0.0000E+00 -0.3208E+15
   -1.500056    4.28777  0.1296E-12  0.0000E+00  0.0000E+00  0.0000E+00  0.0000E+00  0.0000E+00
