 1 - depth, m
 2 - temperature, C
 3 - salinity, kg/kg
 4 - turbulent kinetic energy, m**2/s**2
 5 - dissipation rate, m**2/s**3
 6 - kinematic heat conductance, m**2/s
 7 - modulus of horizontal velocity, m/s
 8 - Richardson number, n/d
   -0.000000   -0.00000  0.4217E-12  0.3535E-11  0.1411E-14  0.1000E-09  0.0000E+00  0.1657E+17
   -0.037498    0.25750  0.3912E-12  0.6205E-11  0.1464E-14  0.1000E-09  0.0000E+00  0.1530E+17
   -0.074996    0.51329  0.2838E-12  0.1171E-10  0.2128E-14  0.1000E-09  0.0000E+00  0.1405E+17
   -0.112494    0.76707  0.1839E-12  0.2137E-10  0.3491E-14  0.1000E-09  0.0000E+00  0.1281E+17
   -0.149993    1.01854  0.1269E-12  0.3788E-10  0.5894E-14  0.1000E-09  0.0000E+00  0.1161E+17
   -0.187492    1.26744  0.1026E-12  0.6595E-10  0.9975E-14  0.1000E-09  0.0000E+00  0.1043E+17
   -0.224991    1.51347  0.9416E-13  0.1136E-09  0.1682E-13  0.1000E-09  0.0000E+00  0.9293E+16
   -0.262491    1.75638  0.9165E-13  0.1943E-09  0.2824E-13  0.1000E-09  0.0000E+00  0.8200E+16
   -0.299990    1.99619  0.9093E-13  0.3302E-09  0.4713E-13  0.1000E-09  0.0000E+00  0.7148E+16
   -0.337490    2.23276  0.9061E-13  0.5583E-09  0.7832E-13  0.1000E-09  0.0000E+00  0.6137E+16
   -0.374991    2.46590  0.9016E-13  0.9399E-09  0.1296E-12  0.1000E-09  0.0000E+00  0.5207E+16
   -0.412491    2.69728  0.8927E-13  0.1576E-08  0.2136E-12  0.1373E-09  0.0000E+00  0.4321E+16
   -0.449992    2.92791  0.8788E-13  0.2630E-08  0.3507E-12  0.2825E-09  0.0000E+00  0.3447E+16
   -0.487492    3.15763  0.8629E-13  0.4374E-08  0.5734E-12  0.6156E-09  0.0000E+00  0.2586E+16
   -0.524993    3.38609  0.8500E-13  0.7219E-08  0.9311E-12  0.1487E-08  0.0000E+00  0.1739E+16
   -0.562494    3.61219  0.8426E-13  0.1182E-07  0.1501E-11  0.4553E-08  0.0000E+00  0.9153E+15
   -0.599995    3.83261  0.8397E-13  0.1900E-07  0.2377E-11  0.3671E-07  0.0000E+00  0.1800E+15
   -0.637496    4.01245  0.8393E-13  0.1965E-07  0.2463E-11  0.5842E-04  0.0000E+00 -0.2259E+12
   -0.674998    4.01300  0.8393E-13  0.1995E-07  0.2511E-11  0.5715E-04  0.0000E+00 -0.2353E+12
   -0.712499    4.01356  0.8393E-13  0.2023E-07  0.2562E-11  0.5741E-04  0.0000E+00 -0.2391E+12
   -0.750000    4.01411  0.8393E-13  0.2047E-07  0.2616E-11  0.5755E-04  0.0000E+00 -0.2438E+12
   -0.787501    4.01466  0.8393E-13  0.2069E-07  0.2675E-11  0.5750E-04  0.0000E+00 -0.2495E+12
   -0.825002    4.01522  0.8393E-13  0.2087E-07  0.2737E-11  0.5722E-04  0.0000E+00 -0.2563E+12
   -0.862504    4.01578  0.8393E-13  0.2102E-07  0.2805E-11  0.5674E-04  0.0000E+00 -0.2642E+12
   -0.900005    4.01635  0.8393E-13  0.2114E-07  0.2877E-11  0.5604E-04  0.0000E+00 -0.2734E+12
   -0.937506    4.01692  0.8393E-13  0.2123E-07  0.2956E-11  0.5513E-04  0.0000E+00 -0.2841E+12
   -0.975007    4.01751  0.8393E-13  0.2128E-07  0.3042E-11  0.5399E-04  0.0000E+00 -0.2966E+12
   -1.012508    4.01811  0.8393E-13  0.2130E-07  0.3136E-11  0.5262E-04  0.0000E+00 -0.3123E+12
   -1.050008    4.01873  0.8393E-13  0.2127E-07  0.3242E-11  0.5099E-04  0.0000E+00 -0.3312E+12
   -1.087509    4.01938  0.8393E-13  0.2119E-07  0.3361E-11  0.4909E-04  0.0000E+00 -0.3539E+12
   -1.125009    4.02006  0.8393E-13  0.2107E-07  0.3497E-11  0.4690E-04  0.0000E+00 -0.3801E+12
   -1.162510    4.02077  0.8393E-13  0.2088E-07  0.3654E-11  0.4440E-04  0.0000E+00 -0.4122E+12
   -1.200010    4.02152  0.8393E-13  0.2063E-07  0.3837E-11  0.4155E-04  0.0000E+00 -0.4527E+12
   -1.237509    4.02233  0.8393E-13  0.2030E-07  0.4057E-11  0.3839E-04  0.0000E+00 -0.5044E+12
   -1.275009    4.02322  0.8393E-13  0.1982E-07  0.4358E-11  0.3462E-04  0.0000E+00 -0.5769E+12
   -1.312508    4.02420  0.8393E-13  0.1907E-07  0.4820E-11  0.2458E-04  0.0000E+00 -0.8431E+12
   -1.350007    4.02560  0.8393E-13  0.1797E-07  0.5532E-11  0.1711E-04  0.0000E+00 -0.1271E+13
   -1.387506    4.02761  0.8393E-13  0.1634E-07  0.6747E-11  0.1068E-04  0.0000E+00 -0.2176E+13
   -1.425004    4.03085  0.8393E-13  0.1362E-07  0.9421E-11  0.4712E-05  0.0000E+00 -0.5497E+13
   -1.462502    4.03814  0.8393E-13  0.8006E-08  0.2007E-10  0.6192E-06  0.0000E+00 -0.5540E+14
   -1.500000    4.08514  0.8393E-13  0.0000E+00  0.0000E+00  0.0000E+00  0.0000E+00  0.0000E+00
