 1 - depth, m
 2 - temperature, C
 3 - salinity, kg/kg
 4 - turbulent kinetic energy, m**2/s**2
 5 - dissipation rate, m**2/s**3
 6 - kinematic heat conductance, m**2/s
 7 - modulus of horizontal velocity, m/s
 8 - Richardson number, n/d
   -0.000000   -0.00000  0.2393E-12  0.4096E-13  0.8590E-16  0.1000E-09  0.0000E+00  0.8723E+16
   -0.037498    0.13323  0.3200E-12  0.4096E-13  0.8590E-16  0.1000E-09  0.0000E+00  0.8415E+16
   -0.074996    0.26659  0.3373E-12  0.4096E-13  0.8590E-16  0.1000E-09  0.0000E+00  0.8102E+16
   -0.112494    0.39997  0.3022E-12  0.4096E-13  0.8590E-16  0.1000E-09  0.0000E+00  0.7784E+16
   -0.149993    0.53328  0.2473E-12  0.4096E-13  0.8590E-16  0.1000E-09  0.0000E+00  0.7464E+16
   -0.187492    0.66643  0.1959E-12  0.4096E-13  0.8590E-16  0.1000E-09  0.0000E+00  0.7141E+16
   -0.224992    0.79933  0.1567E-12  0.4096E-13  0.8590E-16  0.1000E-09  0.0000E+00  0.6816E+16
   -0.262491    0.93187  0.1300E-12  0.4096E-13  0.8590E-16  0.1000E-09  0.0000E+00  0.6493E+16
   -0.299991    1.06402  0.1130E-12  0.4096E-13  0.8590E-16  0.1000E-09  0.0000E+00  0.6171E+16
   -0.337491    1.19569  0.1026E-12  0.4096E-13  0.8590E-16  0.1000E-09  0.0000E+00  0.5848E+16
   -0.374991    1.32678  0.9637E-13  0.4096E-13  0.8590E-16  0.1000E-09  0.0000E+00  0.5528E+16
   -0.412492    1.45723  0.9261E-13  0.4096E-13  0.8590E-16  0.1000E-09  0.0000E+00  0.5211E+16
   -0.449993    1.58698  0.9024E-13  0.4096E-13  0.8590E-16  0.1000E-09  0.0000E+00  0.4896E+16
   -0.487493    1.71590  0.8865E-13  0.4096E-13  0.8590E-16  0.1000E-09  0.0000E+00  0.4586E+16
   -0.524994    1.84396  0.8747E-13  0.4096E-13  0.8590E-16  0.1000E-09  0.0000E+00  0.4286E+16
   -0.562495    1.97125  0.8655E-13  0.4096E-13  0.8590E-16  0.1000E-09  0.0000E+00  0.3989E+16
   -0.599997    2.09770  0.8577E-13  0.4096E-13  0.8590E-16  0.1000E-09  0.0000E+00  0.3697E+16
   -0.637498    2.22323  0.8512E-13  0.4096E-13  0.8590E-16  0.1000E-09  0.0000E+00  0.3410E+16
   -0.674999    2.34777  0.8457E-13  0.4096E-13  0.8590E-16  0.1000E-09  0.0000E+00  0.3127E+16
   -0.712500    2.47123  0.8413E-13  0.5932E-13  0.8590E-16  0.1000E-09  0.0000E+00  0.2851E+16
   -0.750002    2.59354  0.8378E-13  0.2279E-12  0.1013E-15  0.1000E-09  0.0000E+00  0.2585E+16
   -0.787503    2.71482  0.8353E-13  0.5861E-12  0.1971E-15  0.1000E-09  0.0000E+00  0.2326E+16
   -0.825004    2.83503  0.8335E-13  0.1314E-11  0.4101E-15  0.1000E-09  0.0000E+00  0.2072E+16
   -0.862506    2.95410  0.8323E-13  0.2812E-11  0.8496E-15  0.1000E-09  0.0000E+00  0.1825E+16
   -0.900007    3.07195  0.8316E-13  0.5910E-11  0.1744E-14  0.1000E-09  0.0000E+00  0.1584E+16
   -0.937508    3.18847  0.8312E-13  0.1230E-10  0.3554E-14  0.1000E-09  0.0000E+00  0.1350E+16
   -0.975009    3.30356  0.8309E-13  0.2542E-10  0.7193E-14  0.1000E-09  0.0000E+00  0.1124E+16
   -1.012510    3.41710  0.8308E-13  0.5233E-10  0.1451E-13  0.1000E-09  0.0000E+00  0.9052E+15
   -1.050011    3.52875  0.8308E-13  0.1075E-09  0.2920E-13  0.1181E-09  0.0000E+00  0.6955E+15
   -1.087511    3.63827  0.8307E-13  0.2198E-09  0.5852E-13  0.3263E-09  0.0000E+00  0.4958E+15
   -1.125012    3.74523  0.8307E-13  0.4469E-09  0.1166E-12  0.1032E-08  0.0000E+00  0.3112E+15
   -1.162512    3.85027  0.8307E-13  0.9016E-09  0.2308E-12  0.4657E-08  0.0000E+00  0.1353E+15
   -1.200012    3.95086  0.8307E-13  0.1730E-08  0.4370E-12  0.1419E-06  0.0000E+00  0.8005E+13
   -1.237512    4.00275  0.8307E-13  0.2618E-08  0.6744E-12  0.3897E-05  0.0000E+00 -0.1037E+13
   -1.275012    4.00640  0.8307E-13  0.3078E-08  0.8472E-12  0.4201E-05  0.0000E+00 -0.1177E+13
   -1.312511    4.00987  0.8307E-13  0.3380E-08  0.1039E-11  0.4033E-05  0.0000E+00 -0.1455E+13
   -1.350010    4.01354  0.8307E-13  0.3514E-08  0.1280E-11  0.3427E-05  0.0000E+00 -0.2012E+13
   -1.387509    4.01792  0.8307E-13  0.3429E-08  0.1635E-11  0.2429E-05  0.0000E+00 -0.3363E+13
   -1.425008    4.02412  0.8307E-13  0.3002E-08  0.2308E-11  0.1201E-05  0.0000E+00 -0.8291E+13
   -1.462506    4.03620  0.8307E-13  0.2069E-08  0.4250E-11  0.2407E-06  0.0000E+00 -0.4834E+14
   -1.500003    4.07941  0.8307E-13  0.0000E+00  0.0000E+00  0.0000E+00  0.0000E+00  0.0000E+00
