 1 - depth, m
 2 - temperature, C
 3 - salinity, kg/kg
 4 - turbulent kinetic energy, m**2/s**2
 5 - dissipation rate, m**2/s**3
 6 - kinematic heat conductance, m**2/s
 7 - modulus of horizontal velocity, m/s
 8 - Richardson number, n/d
   -0.000000   -0.00000  0.3373E-12  0.1124E-11  0.3556E-15  0.1000E-09  0.0000E+00  0.1517E+17
   -0.037498    0.23490  0.3452E-12  0.1797E-11  0.3857E-15  0.1000E-09  0.0000E+00  0.1411E+17
   -0.074996    0.46844  0.2866E-12  0.3214E-11  0.5631E-15  0.1000E-09  0.0000E+00  0.1308E+17
   -0.112494    0.70059  0.2154E-12  0.5733E-11  0.9202E-15  0.1000E-09  0.0000E+00  0.1206E+17
   -0.149993    0.93127  0.1592E-12  0.1006E-10  0.1549E-14  0.1000E-09  0.0000E+00  0.1106E+17
   -0.187492    1.16029  0.1237E-12  0.1744E-10  0.2620E-14  0.1000E-09  0.0000E+00  0.1009E+17
   -0.224991    1.38747  0.1048E-12  0.2999E-10  0.4423E-14  0.1000E-09  0.0000E+00  0.9124E+16
   -0.262490    1.61253  0.9604E-13  0.5128E-10  0.7437E-14  0.1000E-09  0.0000E+00  0.8190E+16
   -0.299990    1.83537  0.9237E-13  0.8723E-10  0.1245E-13  0.1000E-09  0.0000E+00  0.7277E+16
   -0.337490    2.05567  0.9078E-13  0.1478E-09  0.2076E-13  0.1000E-09  0.0000E+00  0.6386E+16
   -0.374990    2.27297  0.8979E-13  0.2495E-09  0.3451E-13  0.1000E-09  0.0000E+00  0.5542E+16
   -0.412491    2.48768  0.8879E-13  0.4197E-09  0.5716E-13  0.1000E-09  0.0000E+00  0.4729E+16
   -0.449991    2.69970  0.8761E-13  0.7036E-09  0.9436E-13  0.1000E-09  0.0000E+00  0.3936E+16
   -0.487492    2.90823  0.8639E-13  0.1176E-08  0.1552E-12  0.1359E-09  0.0000E+00  0.3170E+16
   -0.524993    3.11237  0.8533E-13  0.1952E-08  0.2538E-12  0.2881E-09  0.0000E+00  0.2444E+16
   -0.562494    3.31134  0.8461E-13  0.3221E-08  0.4126E-12  0.6473E-09  0.0000E+00  0.1767E+16
   -0.599995    3.50453  0.8420E-13  0.5291E-08  0.6676E-12  0.1615E-08  0.0000E+00  0.1145E+16
   -0.637496    3.69161  0.8402E-13  0.8641E-08  0.1074E-11  0.5147E-08  0.0000E+00  0.5781E+15
   -0.674997    3.87090  0.8397E-13  0.1381E-07  0.1695E-11  0.4681E-07  0.0000E+00  0.1002E+15
   -0.712498    4.00952  0.8397E-13  0.1442E-07  0.1775E-11  0.4516E-04  0.0000E+00 -0.2115E+12
   -0.749999    4.01009  0.8397E-13  0.1470E-07  0.1819E-11  0.4442E-04  0.0000E+00 -0.2211E+12
   -0.787501    4.01068  0.8397E-13  0.1497E-07  0.1866E-11  0.4472E-04  0.0000E+00 -0.2264E+12
   -0.825002    4.01127  0.8397E-13  0.1520E-07  0.1917E-11  0.4488E-04  0.0000E+00 -0.2324E+12
   -0.862503    4.01185  0.8397E-13  0.1541E-07  0.1971E-11  0.4484E-04  0.0000E+00 -0.2396E+12
   -0.900004    4.01245  0.8397E-13  0.1558E-07  0.2030E-11  0.4459E-04  0.0000E+00 -0.2481E+12
   -0.937505    4.01305  0.8397E-13  0.1573E-07  0.2093E-11  0.4412E-04  0.0000E+00 -0.2581E+12
   -0.975006    4.01366  0.8397E-13  0.1585E-07  0.2161E-11  0.4345E-04  0.0000E+00 -0.2699E+12
   -1.012507    4.01428  0.8397E-13  0.1593E-07  0.2236E-11  0.4256E-04  0.0000E+00 -0.2846E+12
   -1.050007    4.01492  0.8397E-13  0.1598E-07  0.2319E-11  0.4143E-04  0.0000E+00 -0.3023E+12
   -1.087508    4.01559  0.8397E-13  0.1599E-07  0.2412E-11  0.4006E-04  0.0000E+00 -0.3236E+12
   -1.125008    4.01629  0.8397E-13  0.1595E-07  0.2518E-11  0.3841E-04  0.0000E+00 -0.3486E+12
   -1.162509    4.01702  0.8397E-13  0.1587E-07  0.2639E-11  0.3647E-04  0.0000E+00 -0.3796E+12
   -1.200009    4.01781  0.8397E-13  0.1573E-07  0.2779E-11  0.3423E-04  0.0000E+00 -0.4185E+12
   -1.237508    4.01864  0.8397E-13  0.1551E-07  0.2954E-11  0.3165E-04  0.0000E+00 -0.4694E+12
   -1.275008    4.01956  0.8397E-13  0.1516E-07  0.3200E-11  0.2610E-04  0.0000E+00 -0.5927E+12
   -1.312507    4.02068  0.8397E-13  0.1460E-07  0.3564E-11  0.1941E-04  0.0000E+00 -0.8345E+12
   -1.350006    4.02220  0.8397E-13  0.1377E-07  0.4108E-11  0.1397E-04  0.0000E+00 -0.1230E+13
   -1.387505    4.02433  0.8397E-13  0.1251E-07  0.5029E-11  0.8732E-05  0.0000E+00 -0.2127E+13
   -1.425003    4.02775  0.8397E-13  0.1037E-07  0.7055E-11  0.3801E-05  0.0000E+00 -0.5530E+13
   -1.462501    4.03554  0.8397E-13  0.6161E-08  0.1479E-10  0.5168E-06  0.0000E+00 -0.5380E+14
   -1.499999    4.08274  0.8397E-13  0.0000E+00  0.0000E+00  0.0000E+00  0.0000E+00  0.0000E+00
