 1 - depth, m
 2 - temperature, C
 3 - salinity, kg/kg
 4 - turbulent kinetic energy, m**2/s**2
 5 - dissipation rate, m**2/s**3
 6 - kinematic heat conductance, m**2/s
 7 - modulus of horizontal velocity, m/s
 8 - Richardson number, n/d
   -0.000000   13.21475  0.0000E+00  0.1549E-02  0.5080E-01  0.1510E-03  0.6193E+00 -0.6599E-03
   -0.034997   13.74043  0.0000E+00  0.8844E-03  0.3609E-01  0.2728E-03  0.1906E+00  0.4978E-01
   -0.069995   14.01316  0.0000E+00  0.5874E-03  0.2438E-01  0.3738E-03  0.1021E+00 -0.4710E-01
   -0.104993   14.09968  0.0000E+00  0.4412E-03  0.9413E-02  0.4307E-03  0.7332E-01  0.7264E+01
   -0.139992   14.13719  0.0000E+00  0.3570E-03  0.3784E-02  0.4405E-03  0.5879E-01  0.1262E+01
   -0.174991   14.16248  0.0000E+00  0.3015E-03  0.1554E-02  0.4582E-03  0.4958E-01  0.1010E+00
   -0.209990   14.17921  0.0000E+00  0.2626E-03  0.7386E-03  0.4904E-03  0.4349E-01  0.9930E+01
   -0.244989   14.19045  0.0000E+00  0.2338E-03  0.4261E-03  0.5098E-03  0.3860E-01  0.4376E+01
   -0.279988   14.20143  0.0000E+00  0.2096E-03  0.2848E-03  0.5379E-03  0.3384E-01  0.1783E+02
   -0.314988   14.21672  0.0000E+00  0.1888E-03  0.2047E-03  0.5864E-03  0.2845E-01  0.5453E+01
   -0.349988   14.22394  0.0000E+00  0.1726E-03  0.1495E-03  0.6335E-03  0.2539E-01  0.2289E+02
   -0.384988   14.23026  0.0000E+00  0.1593E-03  0.1100E-03  0.6899E-03  0.2309E-01  0.4182E+02
   -0.419988   14.23531  0.0000E+00  0.1484E-03  0.8159E-04  0.7817E-03  0.2123E-01  0.3662E+03
   -0.454988   14.24069  0.0000E+00  0.1394E-03  0.6142E-04  0.8729E-03  0.1925E-01  0.1960E+03
   -0.489989   14.24656  0.0000E+00  0.1318E-03  0.4705E-04  0.9693E-03  0.1710E-01  0.1403E+03
   -0.524989   14.25340  0.0000E+00  0.1247E-03  0.3742E-04  0.1087E-02  0.1504E-01  0.3644E+03
   -0.559990   14.25963  0.0000E+00  0.1171E-03  0.2951E-04  0.1190E-02  0.1352E-01  0.1335E+03
   -0.594990   14.26381  0.0000E+00  0.1081E-03  0.2240E-04  0.1254E-02  0.1234E-01  0.2876E+03
   -0.629991   14.26647  0.0000E+00  0.9978E-04  0.1630E-04  0.1280E-02  0.1187E-01 -0.3134E+02
   -0.664992   14.27329  0.0000E+00  0.9241E-04  0.1192E-04  0.1285E-02  0.1099E-01  0.1000E+03
   -0.699993   14.27954  0.0000E+00  0.8598E-04  0.9277E-05  0.1304E-02  0.9981E-02  0.3239E+03
   -0.734994   14.28516  0.0000E+00  0.8066E-04  0.7437E-05  0.1328E-02  0.9112E-02  0.4685E+02
   -0.769994   14.29178  0.0000E+00  0.7604E-04  0.6045E-05  0.1360E-02  0.8341E-02  0.5085E+03
   -0.804995   14.29766  0.0000E+00  0.7189E-04  0.4704E-05  0.1347E-02  0.7637E-02  0.1749E+03
   -0.839996   14.30590  0.0000E+00  0.6806E-04  0.3625E-05  0.1331E-02  0.6915E-02  0.6828E+02
   -0.874997   14.31317  0.0000E+00  0.6441E-04  0.2716E-05  0.1296E-02  0.6263E-02  0.6047E+03
   -0.909997   14.32162  0.0000E+00  0.6081E-04  0.2292E-05  0.1282E-02  0.5618E-02  0.4466E+02
   -0.944997   14.32858  0.0000E+00  0.5734E-04  0.1944E-05  0.1241E-02  0.5025E-02  0.7512E+03
   -0.979998   14.33573  0.0000E+00  0.5407E-04  0.1462E-05  0.1180E-02  0.4478E-02  0.1318E+04
   -1.014998   14.34470  0.0000E+00  0.5077E-04  0.1003E-05  0.1092E-02  0.3887E-02  0.2380E+05
   -1.049998   14.35267  0.0000E+00  0.4760E-04  0.8726E-06  0.1029E-02  0.3406E-02  0.6889E+03
   -1.084998   14.36142  0.0000E+00  0.4428E-04  0.8159E-06  0.9179E-03  0.2959E-02  0.1533E+04
   -1.119997   14.37268  0.0000E+00  0.4090E-04  0.8280E-06  0.8528E-03  0.2556E-02  0.1720E+05
   -1.154997   14.38623  0.0000E+00  0.3742E-04  0.1059E-05  0.7851E-03  0.2151E-02  0.5182E+05
   -1.189996   14.40448  0.0000E+00  0.3406E-04  0.1614E-05  0.7047E-03  0.1750E-02  0.1790E+05
   -1.224995   14.42879  0.0000E+00  0.3096E-04  0.2648E-05  0.6380E-03  0.1347E-02  0.1922E+06
   -1.259994   14.45213  0.0000E+00  0.2772E-04  0.5596E-05  0.5190E-03  0.9994E-03 -0.4445E+08
   -1.294992   14.62122  0.0000E+00  0.2426E-04  0.1120E-04  0.5130E-03  0.6833E-03  0.3129E+07
   -1.329990   14.50513  0.0000E+00  0.2034E-04  0.3134E-04  0.3085E-03  0.5864E-03 -0.4905E+09
   -1.364988   14.96175  0.0000E+00  0.1589E-04  0.4552E-04  0.4033E-03  0.3670E-03 -0.1004E+07
   -1.399986   14.76078  0.0000E+00  0.0000E+00  0.0000E+00  0.0000E+00  0.6975E-03  0.0000E+00
