 1 - depth, m
 2 - temperature, C
 3 - salinity, kg/kg
 4 - turbulent kinetic energy, m**2/s**2
 5 - dissipation rate, m**2/s**3
 6 - kinematic heat conductance, m**2/s
 7 - modulus of horizontal velocity, m/s
 8 - Richardson number, n/d
   -0.000000   15.51277  0.0000E+00  0.1269E-03  0.7517E-04  0.5516E-04  0.1063E+00 -0.1508E+00
   -0.034998   15.68566  0.0000E+00  0.7422E-04  0.2097E-04  0.8020E-04  0.3531E-01 -0.1949E+00
   -0.069996   15.73555  0.0000E+00  0.5492E-04  0.8291E-05  0.1142E-03  0.2344E-01  0.3449E+01
   -0.104994   15.76171  0.0000E+00  0.4543E-04  0.4521E-05  0.1388E-03  0.1877E-01  0.8993E+01
   -0.139993   15.77865  0.0000E+00  0.3919E-04  0.2693E-05  0.1827E-03  0.1558E-01  0.8838E+01
   -0.174991   15.79022  0.0000E+00  0.3491E-04  0.1675E-05  0.2559E-03  0.1324E-01  0.1215E+03
   -0.209991   15.79889  0.0000E+00  0.3190E-04  0.1078E-05  0.3413E-03  0.1139E-01  0.1678E+04
   -0.244990   15.80552  0.0000E+00  0.2984E-04  0.7521E-06  0.4089E-03  0.9844E-02  0.6511E+03
   -0.279990   15.81055  0.0000E+00  0.2839E-04  0.5545E-06  0.4552E-03  0.8473E-02  0.1074E+04
   -0.314989   15.81482  0.0000E+00  0.2727E-04  0.4272E-06  0.5046E-03  0.7189E-02  0.8430E+03
   -0.349989   15.81833  0.0000E+00  0.2643E-04  0.3419E-06  0.5402E-03  0.6105E-02  0.1300E+03
   -0.384990   15.82156  0.0000E+00  0.2583E-04  0.2822E-06  0.5808E-03  0.5153E-02  0.2545E+02
   -0.419990   15.82461  0.0000E+00  0.2546E-04  0.2404E-06  0.6173E-03  0.4322E-02  0.1716E+02
   -0.454990   15.82748  0.0000E+00  0.2528E-04  0.2109E-06  0.6681E-03  0.3550E-02  0.6125E+01
   -0.489991   15.83019  0.0000E+00  0.2528E-04  0.1908E-06  0.7268E-03  0.2842E-02  0.3826E+02
   -0.524992   15.83273  0.0000E+00  0.2543E-04  0.1759E-06  0.7794E-03  0.2196E-02  0.6536E+01
   -0.559993   15.83565  0.0000E+00  0.2574E-04  0.1644E-06  0.8323E-03  0.1670E-02  0.1630E+01
   -0.594993   15.83882  0.0000E+00  0.2612E-04  0.1553E-06  0.9393E-03  0.1307E-02  0.1309E+01
   -0.629994   15.84271  0.0000E+00  0.2632E-04  0.1497E-06  0.1060E-02  0.1112E-02  0.1505E+01
   -0.664995   15.84615  0.0000E+00  0.2643E-04  0.1469E-06  0.1100E-02  0.9665E-03  0.1410E+01
   -0.699996   15.84956  0.0000E+00  0.2645E-04  0.1464E-06  0.1153E-02  0.8390E-03  0.1420E+01
   -0.734997   15.85275  0.0000E+00  0.2641E-04  0.1477E-06  0.1198E-02  0.7340E-03  0.1450E+01
   -0.769998   15.85589  0.0000E+00  0.2631E-04  0.1505E-06  0.1225E-02  0.6475E-03  0.1298E+01
   -0.804999   15.85902  0.0000E+00  0.2615E-04  0.1547E-06  0.1238E-02  0.5761E-03  0.1279E+01
   -0.840000   15.86220  0.0000E+00  0.2594E-04  0.1604E-06  0.1223E-02  0.5174E-03  0.1351E+01
   -0.875001   15.86553  0.0000E+00  0.2567E-04  0.1681E-06  0.1195E-02  0.4687E-03  0.1415E+01
   -0.910002   15.86905  0.0000E+00  0.2535E-04  0.1789E-06  0.1146E-02  0.4276E-03  0.1565E+01
   -0.945002   15.87299  0.0000E+00  0.2496E-04  0.1936E-06  0.1114E-02  0.3911E-03  0.4161E+01
   -0.980003   15.87718  0.0000E+00  0.2450E-04  0.2153E-06  0.1059E-02  0.3587E-03  0.1398E+03
   -1.015003   15.88222  0.0000E+00  0.2395E-04  0.2473E-06  0.1019E-02  0.3274E-03  0.1185E+05
   -1.050003   15.88776  0.0000E+00  0.2326E-04  0.2977E-06  0.9804E-03  0.2971E-03  0.5892E+04
   -1.085003   15.89580  0.0000E+00  0.2244E-04  0.3841E-06  0.9129E-03  0.2648E-03  0.7424E+04
   -1.120003   15.90554  0.0000E+00  0.2147E-04  0.4829E-06  0.8290E-03  0.2337E-03  0.6711E+05
   -1.155003   15.91658  0.0000E+00  0.2042E-04  0.7647E-06  0.7786E-03  0.2017E-03  0.3494E+06
   -1.190002   15.93710  0.0000E+00  0.1929E-04  0.1045E-05  0.7115E-03  0.1648E-03  0.2589E+06
   -1.225001   15.94916  0.0000E+00  0.1830E-04  0.1491E-05  0.6211E-03  0.1309E-03  0.1596E+07
   -1.260000   15.99090  0.0000E+00  0.1709E-04  0.3865E-05  0.5607E-03  0.9674E-04 -0.4512E+07
   -1.294999   16.10853  0.0000E+00  0.1587E-04  0.5779E-05  0.5239E-03  0.6980E-04  0.3884E+07
   -1.329997   16.03052  0.0000E+00  0.1379E-04  0.1912E-04  0.3025E-03  0.6033E-04 -0.1466E+10
   -1.364995   16.41128  0.0000E+00  0.1103E-04  0.2678E-04  0.3632E-03  0.3675E-04 -0.1416E+06
   -1.399993   16.23908  0.0000E+00  0.0000E+00  0.0000E+00  0.0000E+00  0.7604E-04  0.0000E+00
