 1 - depth, m
 2 - temperature, C
 3 - salinity, kg/kg
 4 - turbulent kinetic energy, m**2/s**2
 5 - dissipation rate, m**2/s**3
 6 - kinematic heat conductance, m**2/s
 7 - modulus of horizontal velocity, m/s
 8 - Richardson number, n/d
   -0.000000   16.96874  0.0000E+00  0.4803E-03  0.1185E-02  0.8977E-04  0.2731E+00 -0.2332E-01
   -0.034998   17.21384  0.0000E+00  0.2605E-03  0.5501E-03  0.1475E-03  0.8481E-01 -0.2448E-01
   -0.069996   17.32009  0.0000E+00  0.1778E-03  0.1989E-03  0.2078E-03  0.4893E-01  0.3046E+01
   -0.104995   17.35682  0.0000E+00  0.1432E-03  0.1218E-03  0.2259E-03  0.3782E-01  0.4927E+00
   -0.139994   17.37464  0.0000E+00  0.1198E-03  0.7702E-04  0.2360E-03  0.3132E-01  0.1965E+00
   -0.174994   17.38802  0.0000E+00  0.1032E-03  0.4846E-04  0.2669E-03  0.2666E-01  0.1569E+01
   -0.209993   17.39752  0.0000E+00  0.9081E-04  0.3052E-04  0.3038E-03  0.2317E-01  0.2227E+01
   -0.244993   17.40460  0.0000E+00  0.8149E-04  0.1900E-04  0.3361E-03  0.2031E-01  0.1590E+03
   -0.279993   17.41125  0.0000E+00  0.7417E-04  0.1152E-04  0.3943E-03  0.1774E-01  0.2972E+02
   -0.314993   17.41909  0.0000E+00  0.6807E-04  0.7103E-05  0.5000E-03  0.1516E-01  0.1551E+03
   -0.349994   17.42347  0.0000E+00  0.6317E-04  0.4568E-05  0.5907E-03  0.1331E-01  0.2670E+03
   -0.384994   17.42803  0.0000E+00  0.5920E-04  0.2964E-05  0.6790E-03  0.1174E-01  0.5112E+03
   -0.419995   17.43095  0.0000E+00  0.5601E-04  0.2047E-05  0.7330E-03  0.1035E-01  0.1796E+03
   -0.454996   17.43454  0.0000E+00  0.5340E-04  0.1479E-05  0.7751E-03  0.8994E-02  0.2953E+03
   -0.489997   17.43722  0.0000E+00  0.5113E-04  0.1140E-05  0.8168E-03  0.7678E-02  0.2429E+03
   -0.524998   17.44041  0.0000E+00  0.4884E-04  0.9161E-06  0.8653E-03  0.6413E-02  0.3091E+03
   -0.559999   17.44320  0.0000E+00  0.4651E-04  0.7642E-06  0.9409E-03  0.5389E-02  0.2435E+03
   -0.595001   17.44621  0.0000E+00  0.4399E-04  0.6316E-06  0.1019E-02  0.4675E-02  0.4903E+02
   -0.630002   17.45001  0.0000E+00  0.4180E-04  0.5165E-06  0.1030E-02  0.4231E-02  0.1468E+03
   -0.665003   17.45344  0.0000E+00  0.3986E-04  0.4381E-06  0.1022E-02  0.3818E-02  0.1411E+03
   -0.700005   17.45722  0.0000E+00  0.3808E-04  0.3742E-06  0.9708E-03  0.3397E-02  0.1146E+03
   -0.735006   17.46083  0.0000E+00  0.3629E-04  0.3211E-06  0.9940E-03  0.2939E-02 -0.4548E+03
   -0.770008   17.46453  0.0000E+00  0.3470E-04  0.2819E-06  0.1032E-02  0.2529E-02  0.2714E+02
   -0.805009   17.46803  0.0000E+00  0.3337E-04  0.2567E-06  0.1105E-02  0.2159E-02  0.6737E+01
   -0.840010   17.47142  0.0000E+00  0.3220E-04  0.2403E-06  0.1079E-02  0.1898E-02  0.8523E+01
   -0.875012   17.47483  0.0000E+00  0.3103E-04  0.2291E-06  0.1011E-02  0.1657E-02  0.6841E+01
   -0.910013   17.47856  0.0000E+00  0.2974E-04  0.2220E-06  0.9711E-03  0.1414E-02  0.1757E+02
   -0.945014   17.48248  0.0000E+00  0.2859E-04  0.2214E-06  0.9507E-03  0.1213E-02  0.7628E+01
   -0.980015   17.48651  0.0000E+00  0.2754E-04  0.2280E-06  0.9389E-03  0.1038E-02  0.3741E+02
   -1.015015   17.49070  0.0000E+00  0.2654E-04  0.2447E-06  0.8759E-03  0.9056E-03  0.2222E+05
   -1.050016   17.49551  0.0000E+00  0.2543E-04  0.2827E-06  0.8299E-03  0.7787E-03  0.5578E+03
   -1.085016   17.50211  0.0000E+00  0.2421E-04  0.3471E-06  0.8133E-03  0.6637E-03 -0.1953E+04
   -1.120017   17.50961  0.0000E+00  0.2287E-04  0.4591E-06  0.7590E-03  0.5686E-03  0.1877E+04
   -1.155017   17.51959  0.0000E+00  0.2149E-04  0.6907E-06  0.6968E-03  0.4771E-03  0.2531E+05
   -1.190017   17.53532  0.0000E+00  0.2008E-04  0.1056E-05  0.6502E-03  0.3815E-03  0.8649E+05
   -1.225016   17.54856  0.0000E+00  0.1895E-04  0.1691E-05  0.5777E-03  0.2919E-03  0.2788E+06
   -1.260015   17.57586  0.0000E+00  0.1756E-04  0.3889E-05  0.5154E-03  0.2160E-03 -0.3699E+06
   -1.295014   17.68381  0.0000E+00  0.1623E-04  0.6300E-05  0.5010E-03  0.1524E-03 -0.5583E+07
   -1.330013   17.60567  0.0000E+00  0.1395E-04  0.1867E-04  0.2835E-03  0.1339E-03 -0.9911E+08
   -1.365012   17.93121  0.0000E+00  0.1105E-04  0.2681E-04  0.3490E-03  0.7932E-04 -0.1051E+07
   -1.400010   17.78966  0.0000E+00  0.0000E+00  0.0000E+00  0.0000E+00  0.1732E-03  0.0000E+00
