 1 - depth, m
 2 - temperature, C
 3 - salinity, kg/kg
 4 - turbulent kinetic energy, m**2/s**2
 5 - dissipation rate, m**2/s**3
 6 - kinematic heat conductance, m**2/s
 7 - modulus of horizontal velocity, m/s
 8 - Richardson number, n/d
   -0.000000    6.04539  0.0000E+00  0.1251E-02  0.8769E-02  0.1130E-03  0.5300E+00  0.2618E-02
   -0.034998    6.52987  0.0000E+00  0.6753E-03  0.5178E-02  0.2421E-03  0.1583E+00 -0.1551E+00
   -0.069996    6.72876  0.0000E+00  0.4241E-03  0.1614E-02  0.3274E-03  0.8699E-01  0.3938E+00
   -0.104994    6.80554  0.0000E+00  0.3355E-03  0.1040E-02  0.3532E-03  0.6415E-01  0.3468E+01
   -0.139992    6.84439  0.0000E+00  0.2786E-03  0.6238E-03  0.3620E-03  0.5069E-01 -0.9550E-02
   -0.174991    6.86472  0.0000E+00  0.2372E-03  0.4105E-03  0.3745E-03  0.4253E-01  0.1683E-01
   -0.209990    6.88200  0.0000E+00  0.2049E-03  0.2871E-03  0.3758E-03  0.3647E-01  0.1414E-01
   -0.244990    6.89566  0.0000E+00  0.1804E-03  0.2069E-03  0.3876E-03  0.3194E-01  0.5336E+00
   -0.279989    6.90820  0.0000E+00  0.1610E-03  0.1509E-03  0.3929E-03  0.2811E-01  0.2523E+00
   -0.314989    6.92184  0.0000E+00  0.1445E-03  0.1108E-03  0.4242E-03  0.2384E-01  0.1463E+02
   -0.349989    6.93399  0.0000E+00  0.1309E-03  0.8140E-04  0.4501E-03  0.2102E-01  0.2903E+02
   -0.384989    6.94316  0.0000E+00  0.1197E-03  0.5996E-04  0.4736E-03  0.1877E-01  0.2823E+01
   -0.419989    6.95166  0.0000E+00  0.1104E-03  0.4454E-04  0.4970E-03  0.1699E-01  0.1975E+02
   -0.454990    6.96083  0.0000E+00  0.1027E-03  0.3335E-04  0.5261E-03  0.1514E-01  0.3503E+02
   -0.489990    6.96874  0.0000E+00  0.9618E-04  0.2552E-04  0.5796E-03  0.1321E-01  0.2811E+03
   -0.524991    6.97810  0.0000E+00  0.9031E-04  0.2008E-04  0.6807E-03  0.1145E-01  0.2725E+02
   -0.559992    6.98687  0.0000E+00  0.8459E-04  0.1567E-04  0.8175E-03  0.1025E-01 -0.9933E+02
   -0.594993    6.99560  0.0000E+00  0.7806E-04  0.1126E-04  0.9226E-03  0.9381E-02  0.1034E+04
   -0.629994    7.00588  0.0000E+00  0.7194E-04  0.7859E-05  0.9595E-03  0.9014E-02  0.1909E+04
   -0.664994    7.01491  0.0000E+00  0.6664E-04  0.5709E-05  0.9666E-03  0.8385E-02  0.6380E+02
   -0.699995    7.02592  0.0000E+00  0.6203E-04  0.4135E-05  0.9811E-03  0.7697E-02 -0.8330E+03
   -0.734996    7.03267  0.0000E+00  0.5792E-04  0.2864E-05  0.9805E-03  0.7038E-02  0.1746E+03
   -0.769997    7.04392  0.0000E+00  0.5425E-04  0.2023E-05  0.9971E-03  0.6392E-02  0.2096E+04
   -0.804998    7.05137  0.0000E+00  0.5097E-04  0.1430E-05  0.1013E-02  0.5813E-02  0.1983E+04
   -0.839999    7.06138  0.0000E+00  0.4796E-04  0.1046E-05  0.1007E-02  0.5270E-02  0.2742E+02
   -0.875000    7.06917  0.0000E+00  0.4511E-04  0.7901E-06  0.9876E-03  0.4753E-02  0.2326E+03
   -0.910000    7.07909  0.0000E+00  0.4235E-04  0.6266E-06  0.9565E-03  0.4269E-02  0.3155E+02
   -0.945001    7.08806  0.0000E+00  0.3976E-04  0.5322E-06  0.9479E-03  0.3787E-02  0.3368E+02
   -0.980001    7.09797  0.0000E+00  0.3739E-04  0.4765E-06  0.9066E-03  0.3359E-02  0.3226E+02
   -1.015002    7.10753  0.0000E+00  0.3515E-04  0.4425E-06  0.8708E-03  0.2947E-02  0.5509E+02
   -1.050002    7.11889  0.0000E+00  0.3296E-04  0.4261E-06  0.8108E-03  0.2567E-02  0.2721E+03
   -1.085002    7.13136  0.0000E+00  0.3082E-04  0.4362E-06  0.7594E-03  0.2245E-02  0.8628E+03
   -1.120002    7.14692  0.0000E+00  0.2857E-04  0.4758E-06  0.6903E-03  0.1937E-02  0.1101E+04
   -1.155001    7.16720  0.0000E+00  0.2638E-04  0.5769E-06  0.6507E-03  0.1651E-02  0.1359E+07
   -1.190000    7.19034  0.0000E+00  0.2421E-04  0.8000E-06  0.5888E-03  0.1366E-02  0.2934E+06
   -1.225000    7.22833  0.0000E+00  0.2211E-04  0.1215E-05  0.5347E-03  0.1081E-02  0.3173E+06
   -1.259998    7.25782  0.0000E+00  0.1990E-04  0.2290E-05  0.4141E-03  0.8260E-03 -0.2053E+09
   -1.294997    7.49477  0.0000E+00  0.1741E-04  0.4479E-05  0.4117E-03  0.5866E-03  0.5490E+08
   -1.329995    7.36789  0.0000E+00  0.1441E-04  0.1109E-04  0.2354E-03  0.5084E-03 -0.4541E+10
   -1.364993    8.00954  0.0000E+00  0.1093E-04  0.1846E-04  0.2673E-03  0.3360E-03  0.3909E+07
   -1.399991    7.79214  0.0000E+00  0.0000E+00  0.0000E+00  0.0000E+00  0.6392E-03  0.0000E+00
