 1 - depth, m
 2 - temperature, C
 3 - salinity, kg/kg
 4 - turbulent kinetic energy, m**2/s**2
 5 - dissipation rate, m**2/s**3
 6 - kinematic heat conductance, m**2/s
 7 - modulus of horizontal velocity, m/s
 8 - Richardson number, n/d
   -0.000000   20.03993  0.0000E+00  0.8730E-04  0.8068E-04  0.3973E-04  0.7239E-01  0.6295E-01
   -0.034998   20.14531  0.0000E+00  0.5164E-04  0.3764E-04  0.7430E-04  0.2604E-01 -0.6451E-01
   -0.069996   20.17552  0.0000E+00  0.3892E-04  0.8618E-05  0.1100E-03  0.1745E-01  0.3733E+01
   -0.104994   20.19269  0.0000E+00  0.3251E-04  0.3538E-05  0.1763E-03  0.1377E-01  0.4279E+02
   -0.139993   20.20328  0.0000E+00  0.2842E-04  0.1765E-05  0.2483E-03  0.1139E-01  0.2147E+03
   -0.174992   20.21053  0.0000E+00  0.2586E-04  0.1057E-05  0.3080E-03  0.9653E-02  0.1319E+03
   -0.209991   20.21565  0.0000E+00  0.2417E-04  0.6856E-06  0.3692E-03  0.8273E-02  0.6041E+03
   -0.244990   20.21952  0.0000E+00  0.2310E-04  0.4787E-06  0.4134E-03  0.7116E-02  0.4126E+03
   -0.279990   20.22269  0.0000E+00  0.2240E-04  0.3541E-06  0.4559E-03  0.6083E-02  0.3336E+03
   -0.314990   20.22552  0.0000E+00  0.2189E-04  0.2772E-06  0.5119E-03  0.5115E-02  0.3027E+03
   -0.349990   20.22789  0.0000E+00  0.2156E-04  0.2258E-06  0.5626E-03  0.4304E-02  0.3810E+02
   -0.384990   20.23007  0.0000E+00  0.2137E-04  0.1896E-06  0.6182E-03  0.3600E-02  0.5797E+02
   -0.419990   20.23205  0.0000E+00  0.2130E-04  0.1645E-06  0.6713E-03  0.2991E-02  0.7854E+03
   -0.454991   20.23389  0.0000E+00  0.2133E-04  0.1469E-06  0.7245E-03  0.2438E-02  0.9206E+02
   -0.489992   20.23564  0.0000E+00  0.2143E-04  0.1347E-06  0.7733E-03  0.1933E-02  0.8477E+01
   -0.524992   20.23730  0.0000E+00  0.2160E-04  0.1258E-06  0.8216E-03  0.1475E-02  0.1878E+02
   -0.559993   20.23906  0.0000E+00  0.2182E-04  0.1192E-06  0.8963E-03  0.1128E-02  0.1443E+01
   -0.594994   20.24088  0.0000E+00  0.2202E-04  0.1141E-06  0.1060E-02  0.9012E-03  0.1196E+01
   -0.629995   20.24288  0.0000E+00  0.2212E-04  0.1108E-06  0.1204E-02  0.7787E-03  0.1360E+01
   -0.664996   20.24470  0.0000E+00  0.2216E-04  0.1092E-06  0.1227E-02  0.6866E-03  0.1312E+01
   -0.699997   20.24648  0.0000E+00  0.2216E-04  0.1089E-06  0.1246E-02  0.6052E-03  0.1284E+01
   -0.734998   20.24824  0.0000E+00  0.2212E-04  0.1097E-06  0.1249E-02  0.5358E-03  0.1262E+01
   -0.769999   20.25001  0.0000E+00  0.2204E-04  0.1116E-06  0.1240E-02  0.4773E-03  0.1266E+01
   -0.805000   20.25181  0.0000E+00  0.2192E-04  0.1145E-06  0.1223E-02  0.4285E-03  0.1310E+01
   -0.840001   20.25368  0.0000E+00  0.2177E-04  0.1185E-06  0.1193E-02  0.3875E-03  0.1526E+01
   -0.875002   20.25564  0.0000E+00  0.2157E-04  0.1238E-06  0.1165E-02  0.3528E-03  0.2291E+01
   -0.910003   20.25774  0.0000E+00  0.2132E-04  0.1310E-06  0.1123E-02  0.3229E-03  0.3572E+01
   -0.945003   20.26002  0.0000E+00  0.2102E-04  0.1411E-06  0.1085E-02  0.2961E-03 -0.6390E+03
   -0.980004   20.26255  0.0000E+00  0.2065E-04  0.1547E-06  0.1034E-02  0.2717E-03  0.8782E+04
   -1.015004   20.26543  0.0000E+00  0.2021E-04  0.1744E-06  0.9722E-03  0.2485E-03  0.6044E+03
   -1.050004   20.26891  0.0000E+00  0.1966E-04  0.2033E-06  0.9524E-03  0.2249E-03  0.1773E+03
   -1.085005   20.27314  0.0000E+00  0.1898E-04  0.2564E-06  0.8399E-03  0.2010E-03  0.5687E+04
   -1.120004   20.27973  0.0000E+00  0.1819E-04  0.3224E-06  0.8019E-03  0.1761E-03  0.3622E+05
   -1.155004   20.28430  0.0000E+00  0.1733E-04  0.4328E-06  0.7231E-03  0.1542E-03  0.6404E+06
   -1.190003   20.29680  0.0000E+00  0.1642E-04  0.6056E-06  0.6734E-03  0.1258E-03  0.7605E+06
   -1.225003   20.30290  0.0000E+00  0.1557E-04  0.8860E-06  0.5709E-03  0.1011E-03 -0.2761E+06
   -1.260002   20.32763  0.0000E+00  0.1447E-04  0.2175E-05  0.5119E-03  0.7542E-04  0.2902E+08
   -1.295000   20.38801  0.0000E+00  0.1331E-04  0.3397E-05  0.4832E-03  0.5475E-04  0.2935E+08
   -1.329999   20.34595  0.0000E+00  0.1132E-04  0.1011E-04  0.2636E-03  0.4755E-04 -0.8638E+09
   -1.364997   20.55876  0.0000E+00  0.8931E-05  0.1516E-04  0.2987E-03  0.2913E-04 -0.5294E+06
   -1.399994   20.48059  0.0000E+00  0.0000E+00  0.0000E+00  0.0000E+00  0.5749E-04  0.0000E+00
