 1 - depth, m
 2 - temperature, C
 3 - salinity, kg/kg
 4 - turbulent kinetic energy, m**2/s**2
 5 - dissipation rate, m**2/s**3
 6 - kinematic heat conductance, m**2/s
 7 - modulus of horizontal velocity, m/s
 8 - Richardson number, n/d
   -0.000000   -0.00011  0.0000E+00  0.9282E-04  0.4206E-04  0.3659E-04  0.9333E-01  0.4994E+00
   -0.035000    0.12642  0.0000E+00  0.5891E-04  0.1335E-04  0.5912E-04  0.4005E-01  0.1560E+01
   -0.070001    0.22198  0.0000E+00  0.4381E-04  0.5561E-05  0.6335E-04  0.2976E-01  0.1155E+00
   -0.105002    0.35087  0.0000E+00  0.3494E-04  0.2899E-05  0.6426E-04  0.2428E-01  0.1599E+00
   -0.140004    0.57274  0.0000E+00  0.2876E-04  0.1630E-05  0.6453E-04  0.1997E-01  0.1978E+00
   -0.175006    0.87874  0.0000E+00  0.2421E-04  0.9979E-06  0.7962E-04  0.1643E-01  0.2767E+00
   -0.210008    1.10264  0.0000E+00  0.2072E-04  0.6662E-06  0.1035E-03  0.1370E-01  0.2484E+01
   -0.245010    1.29453  0.0000E+00  0.1791E-04  0.4747E-06  0.1279E-03  0.1138E-01  0.3864E+02
   -0.280012    1.47823  0.0000E+00  0.1544E-04  0.3512E-06  0.1560E-03  0.9298E-02  0.6377E+02
   -0.315015    1.64990  0.0000E+00  0.1261E-04  0.2511E-06  0.1741E-03  0.7240E-02  0.8236E+00
   -0.350018    1.85843  0.0000E+00  0.1005E-04  0.1767E-06  0.1884E-03  0.5590E-02  0.9001E+01
   -0.385021    2.17051  0.0000E+00  0.7870E-05  0.1223E-06  0.2042E-03  0.4199E-02  0.1125E+02
   -0.420024    2.51250  0.0000E+00  0.6265E-05  0.8405E-07  0.2204E-03  0.3029E-02  0.1718E+02
   -0.455027    3.08833  0.0000E+00  0.5296E-05  0.5858E-07  0.2477E-03  0.1829E-02  0.2158E+03
   -0.490031    3.46305  0.0000E+00  0.4754E-05  0.4268E-07  0.2785E-03  0.1012E-02  0.9952E+03
   -0.525034    3.70874  0.0000E+00  0.4349E-05  0.3128E-07  0.3202E-03  0.5519E-03  0.3808E+06
   -0.560038    3.85318  0.0000E+00  0.4058E-05  0.2091E-07  0.3580E-03  0.3002E-03  0.1610E+07
   -0.595042    4.17747  0.0000E+00  0.4043E-05  0.1523E-07  0.4172E-03  0.1293E-03  0.1086E+08
   -0.630045    4.37840  0.0000E+00  0.4180E-05  0.1361E-07  0.4594E-03  0.7557E-04 -0.2728E+07
   -0.665049    4.40454  0.0000E+00  0.4342E-05  0.1314E-07  0.4871E-03  0.6307E-04  0.4715E+07
   -0.700053    4.42544  0.0000E+00  0.4503E-05  0.1301E-07  0.5129E-03  0.5384E-04  0.1572E+09
   -0.735057    4.44403  0.0000E+00  0.4661E-05  0.1308E-07  0.5352E-03  0.4650E-04  0.2783E+07
   -0.770061    4.46128  0.0000E+00  0.4815E-05  0.1328E-07  0.5531E-03  0.4048E-04  0.1043E+07
   -0.805064    4.47788  0.0000E+00  0.4964E-05  0.1358E-07  0.5676E-03  0.3546E-04  0.5263E+06
   -0.840068    4.49403  0.0000E+00  0.5106E-05  0.1397E-07  0.5783E-03  0.3125E-04  0.2772E+06
   -0.875072    4.50990  0.0000E+00  0.5242E-05  0.1444E-07  0.5852E-03  0.2776E-04  0.1502E+06
   -0.910075    4.52572  0.0000E+00  0.5369E-05  0.1500E-07  0.5884E-03  0.2478E-04  0.1145E+06
   -0.945079    4.54142  0.0000E+00  0.5488E-05  0.1563E-07  0.5878E-03  0.2214E-04  0.1018E+06
   -0.980082    4.55702  0.0000E+00  0.5598E-05  0.1637E-07  0.5825E-03  0.1969E-04  0.9611E+05
   -1.015085    4.57254  0.0000E+00  0.5701E-05  0.1725E-07  0.5722E-03  0.1746E-04  0.9855E+05
   -1.050088    4.58850  0.0000E+00  0.5797E-05  0.1834E-07  0.5560E-03  0.1539E-04  0.1061E+06
   -1.085091    4.60530  0.0000E+00  0.5886E-05  0.1970E-07  0.5357E-03  0.1352E-04  0.1257E+06
   -1.120094    4.62334  0.0000E+00  0.5965E-05  0.2142E-07  0.5040E-03  0.1179E-04  0.1707E+06
   -1.155096    4.64280  0.0000E+00  0.6031E-05  0.2362E-07  0.5602E-03  0.1017E-04  0.7828E+06
   -1.190098    4.65968  0.0000E+00  0.6097E-05  0.2687E-07  0.3914E-03  0.8806E-05  0.4056E+08
   -1.225100    4.68457  0.0000E+00  0.6148E-05  0.3157E-07  0.3860E-03  0.7331E-05  0.4757E+06
   -1.260102    4.70773  0.0000E+00  0.6188E-05  0.4081E-07  0.3030E-03  0.6164E-05 -0.1815E+08
   -1.295103    4.74750  0.0000E+00  0.6128E-05  0.6371E-07  0.2589E-03  0.4838E-05  0.5187E+07
   -1.330105    4.81121  0.0000E+00  0.5706E-05  0.1194E-06  0.1290E-03  0.3723E-05  0.7755E+09
   -1.365105    4.99544  0.0000E+00  0.4004E-05  0.2862E-06  0.4559E-04  0.2560E-05 -0.1967E+11
   -1.400106    5.30653  0.0000E+00  0.0000E+00  0.0000E+00  0.0000E+00  0.2739E-05  0.0000E+00
