 1 - depth, m
 2 - temperature, C
 3 - salinity, kg/kg
 4 - turbulent kinetic energy, m**2/s**2
 5 - dissipation rate, m**2/s**3
 6 - kinematic heat conductance, m**2/s
 7 - modulus of horizontal velocity, m/s
 8 - Richardson number, n/d
   -0.000000   12.70059  0.0000E+00  0.4433E-04  0.1091E-04  0.2834E-04  0.4309E-01 -0.1363E+00
   -0.034998   12.85929  0.0000E+00  0.2961E-04  0.2963E-05  0.6163E-04  0.1790E-01 -0.1042E+00
   -0.069996   12.89871  0.0000E+00  0.2456E-04  0.1382E-05  0.1288E-03  0.1290E-01  0.1533E+03
   -0.104995   12.91844  0.0000E+00  0.2214E-04  0.7953E-06  0.2187E-03  0.1049E-01  0.1128E+03
   -0.139994   12.93057  0.0000E+00  0.2087E-04  0.5159E-06  0.2979E-03  0.8877E-02  0.1196E+03
   -0.174993   12.93913  0.0000E+00  0.2027E-04  0.3664E-06  0.3594E-03  0.7625E-02  0.1519E+03
   -0.209992   12.94571  0.0000E+00  0.2010E-04  0.2791E-06  0.4125E-03  0.6579E-02  0.8848E+02
   -0.244992   12.95109  0.0000E+00  0.2019E-04  0.2247E-06  0.4674E-03  0.5659E-02  0.2144E+03
   -0.279992   12.95562  0.0000E+00  0.2043E-04  0.1890E-06  0.5264E-03  0.4826E-02  0.5138E+03
   -0.314992   12.95952  0.0000E+00  0.2074E-04  0.1635E-06  0.5994E-03  0.4044E-02  0.7440E+03
   -0.349992   12.96303  0.0000E+00  0.2110E-04  0.1449E-06  0.6748E-03  0.3372E-02  0.1002E+03
   -0.384993   12.96623  0.0000E+00  0.2151E-04  0.1314E-06  0.7481E-03  0.2793E-02  0.3485E+03
   -0.419993   12.96921  0.0000E+00  0.2198E-04  0.1221E-06  0.8151E-03  0.2298E-02  0.7071E+01
   -0.454994   12.97199  0.0000E+00  0.2249E-04  0.1164E-06  0.8746E-03  0.1856E-02  0.2300E+01
   -0.489995   12.97462  0.0000E+00  0.2305E-04  0.1138E-06  0.9267E-03  0.1462E-02  0.1933E+01
   -0.524996   12.97713  0.0000E+00  0.2370E-04  0.1139E-06  0.9713E-03  0.1112E-02  0.1507E+01
   -0.559997   12.97990  0.0000E+00  0.2442E-04  0.1165E-06  0.1053E-02  0.8504E-03  0.1364E+01
   -0.594998   12.98305  0.0000E+00  0.2509E-04  0.1206E-06  0.1255E-02  0.6833E-03  0.1237E+01
   -0.629999   12.98678  0.0000E+00  0.2549E-04  0.1245E-06  0.1412E-02  0.5961E-03  0.1420E+01
   -0.665001   12.99020  0.0000E+00  0.2573E-04  0.1285E-06  0.1430E-02  0.5345E-03  0.1381E+01
   -0.700002   12.99362  0.0000E+00  0.2587E-04  0.1332E-06  0.1436E-02  0.4812E-03  0.1303E+01
   -0.735003   12.99704  0.0000E+00  0.2593E-04  0.1386E-06  0.1425E-02  0.4366E-03  0.7632E+00
   -0.770004   13.00061  0.0000E+00  0.2592E-04  0.1450E-06  0.1396E-02  0.3990E-03  0.4438E+01
   -0.805006   13.00433  0.0000E+00  0.2583E-04  0.1528E-06  0.1364E-02  0.3672E-03  0.4883E+01
   -0.840007   13.00835  0.0000E+00  0.2568E-04  0.1625E-06  0.1337E-02  0.3398E-03  0.1621E+04
   -0.875008   13.01254  0.0000E+00  0.2544E-04  0.1755E-06  0.1281E-02  0.3158E-03  0.1365E+03
   -0.910009   13.01748  0.0000E+00  0.2513E-04  0.1928E-06  0.1261E-02  0.2932E-03  0.8529E+02
   -0.945010   13.02276  0.0000E+00  0.2472E-04  0.2161E-06  0.1152E-02  0.2721E-03  0.8009E+04
   -0.980010   13.02910  0.0000E+00  0.2422E-04  0.2477E-06  0.1149E-02  0.2507E-03  0.9393E+03
   -1.015011   13.03630  0.0000E+00  0.2363E-04  0.2907E-06  0.1084E-02  0.2293E-03  0.2833E+05
   -1.050012   13.04490  0.0000E+00  0.2292E-04  0.3559E-06  0.1027E-02  0.2066E-03  0.3447E+05
   -1.085012   13.05560  0.0000E+00  0.2209E-04  0.4610E-06  0.9429E-03  0.1830E-03  0.4892E+05
   -1.120012   13.07078  0.0000E+00  0.2116E-04  0.5963E-06  0.8738E-03  0.1606E-03  0.7705E+05
   -1.155012   13.08406  0.0000E+00  0.2019E-04  0.9335E-06  0.8016E-03  0.1384E-03  0.6236E+06
   -1.190011   13.11371  0.0000E+00  0.1917E-04  0.1261E-05  0.7718E-03  0.1129E-03  0.2129E+07
   -1.225011   13.12809  0.0000E+00  0.1819E-04  0.1847E-05  0.6600E-03  0.8891E-04  0.5010E+07
   -1.260010   13.19509  0.0000E+00  0.1704E-04  0.4562E-05  0.6324E-03  0.6515E-04  0.1837E+10
   -1.295009   13.33873  0.0000E+00  0.1581E-04  0.6760E-05  0.5644E-03  0.4697E-04  0.3127E+08
   -1.330008   13.24003  0.0000E+00  0.1379E-04  0.2287E-04  0.3269E-03  0.4097E-04 -0.2431E+10
   -1.365006   13.78021  0.0000E+00  0.1112E-04  0.3109E-04  0.3929E-03  0.2458E-04  0.2108E+06
   -1.400004   13.51054  0.0000E+00  0.0000E+00  0.0000E+00  0.0000E+00  0.5394E-04  0.0000E+00
