 1 - depth, m
 2 - temperature, C
 3 - salinity, kg/kg
 4 - turbulent kinetic energy, m**2/s**2
 5 - dissipation rate, m**2/s**3
 6 - kinematic heat conductance, m**2/s
 7 - modulus of horizontal velocity, m/s
 8 - Richardson number, n/d
   -0.000000   16.81813  0.0000E+00  0.6175E-03  0.1546E-02  0.1055E-03  0.3082E+00 -0.6861E-01
   -0.034998   17.03693  0.0000E+00  0.3253E-03  0.6081E-03  0.1506E-03  0.9338E-01  0.9811E-01
   -0.069996   17.10655  0.0000E+00  0.2149E-03  0.1884E-03  0.2254E-03  0.5430E-01  0.7902E+00
   -0.104995   17.14082  0.0000E+00  0.1716E-03  0.1144E-03  0.2483E-03  0.4194E-01  0.3086E+00
   -0.139993   17.15883  0.0000E+00  0.1430E-03  0.7182E-04  0.2585E-03  0.3440E-01  0.2476E+00
   -0.174992   17.17029  0.0000E+00  0.1222E-03  0.4507E-04  0.2761E-03  0.2918E-01  0.4880E+01
   -0.209992   17.17925  0.0000E+00  0.1065E-03  0.2765E-04  0.2942E-03  0.2518E-01  0.1070E+01
   -0.244991   17.18637  0.0000E+00  0.9473E-04  0.1700E-04  0.3180E-03  0.2192E-01  0.3134E+01
   -0.279991   17.19294  0.0000E+00  0.8563E-04  0.1058E-04  0.3538E-03  0.1904E-01  0.1250E+02
   -0.314991   17.19994  0.0000E+00  0.7794E-04  0.6782E-05  0.4330E-03  0.1618E-01  0.3362E+03
   -0.349991   17.20484  0.0000E+00  0.7174E-04  0.4446E-05  0.5158E-03  0.1419E-01  0.1261E+03
   -0.384992   17.20911  0.0000E+00  0.6667E-04  0.3120E-05  0.6079E-03  0.1254E-01  0.2759E+03
   -0.419992   17.21230  0.0000E+00  0.6260E-04  0.2285E-05  0.6956E-03  0.1113E-01  0.2941E+03
   -0.454993   17.21561  0.0000E+00  0.5930E-04  0.1722E-05  0.7519E-03  0.9737E-02  0.3536E+03
   -0.489994   17.21824  0.0000E+00  0.5654E-04  0.1368E-05  0.7950E-03  0.8380E-02  0.4567E+03
   -0.524995   17.22108  0.0000E+00  0.5385E-04  0.1120E-05  0.8345E-03  0.7087E-02  0.1044E+03
   -0.559996   17.22380  0.0000E+00  0.5097E-04  0.9238E-06  0.8937E-03  0.6022E-02 -0.2244E+03
   -0.594997   17.22695  0.0000E+00  0.4775E-04  0.7519E-06  0.9845E-03  0.5213E-02  0.1624E+02
   -0.629998   17.23049  0.0000E+00  0.4484E-04  0.6207E-06  0.9886E-03  0.4749E-02 -0.1448E+02
   -0.664999   17.23412  0.0000E+00  0.4227E-04  0.5224E-06  0.9877E-03  0.4260E-02  0.1709E+03
   -0.700000   17.23769  0.0000E+00  0.4012E-04  0.4472E-06  0.1076E-02  0.3770E-02  0.2658E+02
   -0.735001   17.24104  0.0000E+00  0.3836E-04  0.3893E-06  0.1091E-02  0.3372E-02  0.1806E+04
   -0.770002   17.24436  0.0000E+00  0.3664E-04  0.3415E-06  0.1037E-02  0.3004E-02  0.5297E+01
   -0.805003   17.24776  0.0000E+00  0.3498E-04  0.3024E-06  0.1080E-02  0.2600E-02  0.5869E+02
   -0.840005   17.25109  0.0000E+00  0.3355E-04  0.2755E-06  0.1094E-02  0.2273E-02  0.1063E+02
   -0.875006   17.25441  0.0000E+00  0.3219E-04  0.2558E-06  0.9764E-03  0.2006E-02  0.9688E+01
   -0.910006   17.25813  0.0000E+00  0.3065E-04  0.2406E-06  0.9236E-03  0.1718E-02  0.3921E+01
   -0.945007   17.26202  0.0000E+00  0.2921E-04  0.2325E-06  0.9142E-03  0.1457E-02  0.2091E+02
   -0.980008   17.26600  0.0000E+00  0.2790E-04  0.2321E-06  0.8835E-03  0.1238E-02  0.5574E+01
   -1.015008   17.27018  0.0000E+00  0.2669E-04  0.2408E-06  0.8194E-03  0.1054E-02  0.2022E+04
   -1.050009   17.27493  0.0000E+00  0.2550E-04  0.2621E-06  0.7979E-03  0.8961E-03 -0.5053E+01
   -1.085009   17.28054  0.0000E+00  0.2427E-04  0.3063E-06  0.7545E-03  0.7671E-03  0.4032E+04
   -1.120009   17.28824  0.0000E+00  0.2291E-04  0.3896E-06  0.7394E-03  0.6554E-03  0.2262E+03
   -1.155009   17.29774  0.0000E+00  0.2150E-04  0.5554E-06  0.6777E-03  0.5499E-03  0.1451E+05
   -1.190008   17.31034  0.0000E+00  0.2006E-04  0.8396E-06  0.6043E-03  0.4431E-03  0.1614E+06
   -1.225008   17.32817  0.0000E+00  0.1885E-04  0.1320E-05  0.5443E-03  0.3377E-03  0.3038E+06
   -1.260007   17.34313  0.0000E+00  0.1740E-04  0.2673E-05  0.4906E-03  0.2529E-03 -0.5340E+08
   -1.295006   17.45674  0.0000E+00  0.1594E-04  0.4749E-05  0.4715E-03  0.1770E-03  0.9063E+07
   -1.330004   17.38685  0.0000E+00  0.1364E-04  0.1393E-04  0.2736E-03  0.1519E-03 -0.7365E+09
   -1.365002   17.70087  0.0000E+00  0.1081E-04  0.2119E-04  0.3154E-03  0.9059E-04 -0.5229E+06
   -1.400000   17.55699  0.0000E+00  0.0000E+00  0.0000E+00  0.0000E+00  0.1952E-03  0.0000E+00
