 1 - depth, m
 2 - temperature, C
 3 - salinity, kg/kg
 4 - turbulent kinetic energy, m**2/s**2
 5 - dissipation rate, m**2/s**3
 6 - kinematic heat conductance, m**2/s
 7 - modulus of horizontal velocity, m/s
 8 - Richardson number, n/d
   -0.000000    1.82186  0.0000E+00  0.1248E-03  0.8637E-04  0.4683E-04  0.1066E+00  0.5074E+00
   -0.034998    2.13544  0.0000E+00  0.7474E-04  0.3002E-04  0.8172E-04  0.3953E-01  0.2152E-01
   -0.069996    2.19800  0.0000E+00  0.5513E-04  0.1298E-04  0.8440E-04  0.2915E-01  0.3888E-01
   -0.104994    2.24806  0.0000E+00  0.4363E-04  0.5430E-05  0.8806E-04  0.2406E-01  0.1469E+00
   -0.139993    2.29106  0.0000E+00  0.3556E-04  0.2387E-05  0.9104E-04  0.2026E-01  0.6669E-01
   -0.174992    2.33375  0.0000E+00  0.2973E-04  0.1305E-05  0.9278E-04  0.1710E-01  0.2440E+00
   -0.209991    2.38006  0.0000E+00  0.2533E-04  0.8453E-06  0.9283E-04  0.1438E-01  0.1110E+00
   -0.244990    2.43762  0.0000E+00  0.2183E-04  0.5906E-06  0.9127E-04  0.1199E-01  0.1395E+00
   -0.279990    2.53010  0.0000E+00  0.1887E-04  0.4289E-06  0.8703E-04  0.9737E-02  0.1565E+00
   -0.314990    2.67466  0.0000E+00  0.1591E-04  0.3084E-06  0.8642E-04  0.7488E-02  0.3492E+00
   -0.349990    2.91469  0.0000E+00  0.1342E-04  0.2237E-06  0.9779E-04  0.5685E-02  0.1411E+02
   -0.384990    3.26261  0.0000E+00  0.1157E-04  0.1646E-06  0.1145E-03  0.4188E-02  0.1441E+03
   -0.419990    3.60240  0.0000E+00  0.1026E-04  0.1260E-06  0.1436E-03  0.3098E-02  0.3692E+02
   -0.454991    3.79110  0.0000E+00  0.9222E-05  0.9900E-07  0.1735E-03  0.2342E-02 -0.6379E+04
   -0.489991    3.91896  0.0000E+00  0.8341E-05  0.7962E-07  0.1967E-03  0.1724E-02  0.3160E+03
   -0.524992    3.96299  0.0000E+00  0.7550E-05  0.6435E-07  0.2119E-03  0.1237E-02  0.1175E+03
   -0.559993    4.00664  0.0000E+00  0.6864E-05  0.5207E-07  0.2344E-03  0.9043E-03  0.3988E+03
   -0.594994    4.05851  0.0000E+00  0.6246E-05  0.4134E-07  0.2893E-03  0.6990E-03  0.3949E+04
   -0.629995    4.11781  0.0000E+00  0.5801E-05  0.3356E-07  0.3367E-03  0.5883E-03  0.4061E+05
   -0.664996    4.16367  0.0000E+00  0.5487E-05  0.2798E-07  0.3673E-03  0.4894E-03  0.2655E+04
   -0.699997    4.20289  0.0000E+00  0.5273E-05  0.2396E-07  0.3892E-03  0.4034E-03  0.3795E+04
   -0.734998    4.23734  0.0000E+00  0.5138E-05  0.2112E-07  0.4131E-03  0.3323E-03  0.1411E+04
   -0.769999    4.26748  0.0000E+00  0.5063E-05  0.1915E-07  0.4400E-03  0.2749E-03  0.2896E+04
   -0.805000    4.29369  0.0000E+00  0.5031E-05  0.1782E-07  0.4628E-03  0.2282E-03  0.2372E+04
   -0.840001    4.31692  0.0000E+00  0.5030E-05  0.1695E-07  0.4808E-03  0.1898E-03  0.1494E+04
   -0.875002    4.33807  0.0000E+00  0.5049E-05  0.1642E-07  0.4930E-03  0.1582E-03  0.1247E+04
   -0.910002    4.35833  0.0000E+00  0.5084E-05  0.1618E-07  0.5026E-03  0.1328E-03  0.1478E+04
   -0.945003    4.37758  0.0000E+00  0.5128E-05  0.1616E-07  0.5087E-03  0.1119E-03  0.1803E+04
   -0.980004    4.39613  0.0000E+00  0.5177E-05  0.1634E-07  0.5092E-03  0.9453E-04  0.2265E+04
   -1.015004    4.41428  0.0000E+00  0.5231E-05  0.1670E-07  0.5044E-03  0.7983E-04  0.2823E+04
   -1.050004    4.43283  0.0000E+00  0.5289E-05  0.1726E-07  0.4949E-03  0.6767E-04  0.3642E+04
   -1.085004    4.45207  0.0000E+00  0.5348E-05  0.1807E-07  0.4809E-03  0.5756E-04  0.5472E+04
   -1.120004    4.47264  0.0000E+00  0.5405E-05  0.1915E-07  0.4623E-03  0.4915E-04  0.7804E+04
   -1.155004    4.49394  0.0000E+00  0.5459E-05  0.2058E-07  0.4386E-03  0.4174E-04  0.1152E+05
   -1.190003    4.51615  0.0000E+00  0.5510E-05  0.2255E-07  0.4059E-03  0.3502E-04  0.1522E+05
   -1.225002    4.53898  0.0000E+00  0.5563E-05  0.2559E-07  0.3676E-03  0.2934E-04  0.2537E+05
   -1.260001    4.56490  0.0000E+00  0.5611E-05  0.3112E-07  0.2893E-03  0.2389E-04  0.4013E+05
   -1.295000    4.59758  0.0000E+00  0.5579E-05  0.4492E-07  0.2403E-03  0.1888E-04  0.2861E+06
   -1.329998    4.67429  0.0000E+00  0.5237E-05  0.7823E-07  0.1246E-03  0.1470E-04  0.5425E+09
   -1.364996    4.83477  0.0000E+00  0.3697E-05  0.1968E-06  0.3921E-04  0.9985E-05 -0.7193E+10
   -1.399994    5.19006  0.0000E+00  0.0000E+00  0.0000E+00  0.0000E+00  0.1048E-04  0.0000E+00
