 1 - depth, m
 2 - temperature, C
 3 - salinity, kg/kg
 4 - turbulent kinetic energy, m**2/s**2
 5 - dissipation rate, m**2/s**3
 6 - kinematic heat conductance, m**2/s
 7 - modulus of horizontal velocity, m/s
 8 - Richardson number, n/d
   -0.000000    2.07167  0.0000E+00  0.5611E-04  0.1921E-04  0.3028E-04  0.5435E-01  0.5460E-01
   -0.034998    2.31792  0.0000E+00  0.3432E-04  0.5285E-05  0.4465E-04  0.2377E-01  0.1969E+01
   -0.069996    2.48554  0.0000E+00  0.2599E-04  0.2417E-05  0.5556E-04  0.1754E-01  0.1361E+00
   -0.104994    2.70478  0.0000E+00  0.2100E-04  0.1326E-05  0.8518E-04  0.1398E-01 -0.2319E+00
   -0.139993    2.91369  0.0000E+00  0.1747E-04  0.7898E-06  0.1195E-03  0.1133E-01  0.1138E+03
   -0.174992    3.10976  0.0000E+00  0.1489E-04  0.5000E-06  0.1529E-03  0.9228E-02 -0.9983E+01
   -0.209991    3.30381  0.0000E+00  0.1299E-04  0.3343E-06  0.2073E-03  0.7487E-02  0.8662E+02
   -0.244990    3.49599  0.0000E+00  0.1157E-04  0.2348E-06  0.2514E-03  0.6000E-02  0.3253E+01
   -0.279990    3.68678  0.0000E+00  0.1046E-04  0.1716E-06  0.2941E-03  0.4690E-02  0.1222E+02
   -0.314990    3.86300  0.0000E+00  0.9384E-05  0.1252E-06  0.3429E-03  0.3505E-02  0.1776E+02
   -0.349990    4.05163  0.0000E+00  0.8540E-05  0.9314E-07  0.3862E-03  0.2645E-02  0.1808E+02
   -0.384990    4.25224  0.0000E+00  0.7924E-05  0.7116E-07  0.4286E-03  0.1985E-02  0.2286E+02
   -0.419990    4.42065  0.0000E+00  0.7554E-05  0.5608E-07  0.4700E-03  0.1485E-02 -0.6145E+00
   -0.454991    4.66301  0.0000E+00  0.7425E-05  0.4685E-07  0.5150E-03  0.1010E-02  0.4994E+02
   -0.489991    4.76964  0.0000E+00  0.7364E-05  0.4147E-07  0.5583E-03  0.7582E-03  0.1665E+02
   -0.524992    4.77699  0.0000E+00  0.7353E-05  0.3742E-07  0.5898E-03  0.5961E-03  0.5906E+03
   -0.559993    4.78480  0.0000E+00  0.7391E-05  0.3410E-07  0.6308E-03  0.4678E-03  0.3180E+01
   -0.594994    4.79412  0.0000E+00  0.7468E-05  0.3109E-07  0.6939E-03  0.3790E-03  0.6633E+01
   -0.629995    4.80559  0.0000E+00  0.7547E-05  0.2890E-07  0.7323E-03  0.3286E-03  0.1562E+02
   -0.664996    4.81655  0.0000E+00  0.7627E-05  0.2736E-07  0.7538E-03  0.2884E-03  0.1627E+02
   -0.699997    4.82714  0.0000E+00  0.7710E-05  0.2630E-07  0.7754E-03  0.2518E-03  0.1845E+02
   -0.734998    4.83746  0.0000E+00  0.7794E-05  0.2563E-07  0.7918E-03  0.2197E-03  0.2080E+02
   -0.769999    4.84767  0.0000E+00  0.7876E-05  0.2529E-07  0.8030E-03  0.1919E-03  0.2664E+02
   -0.805000    4.85786  0.0000E+00  0.7955E-05  0.2523E-07  0.8096E-03  0.1683E-03  0.3012E+02
   -0.840001    4.86809  0.0000E+00  0.8029E-05  0.2541E-07  0.8115E-03  0.1481E-03  0.4130E+02
   -0.875002    4.87841  0.0000E+00  0.8098E-05  0.2581E-07  0.8082E-03  0.1310E-03  0.4535E+02
   -0.910002    4.88892  0.0000E+00  0.8159E-05  0.2643E-07  0.8000E-03  0.1166E-03  0.6374E+02
   -0.945003    4.89962  0.0000E+00  0.8212E-05  0.2726E-07  0.7864E-03  0.1042E-03  0.6935E+02
   -0.980004    4.91046  0.0000E+00  0.8257E-05  0.2835E-07  0.7676E-03  0.9318E-04  0.9263E+02
   -1.015004    4.92148  0.0000E+00  0.8293E-05  0.2981E-07  0.7426E-03  0.8346E-04  0.9497E+02
   -1.050004    4.93313  0.0000E+00  0.8318E-05  0.3177E-07  0.7132E-03  0.7457E-04  0.1459E+03
   -1.085004    4.94558  0.0000E+00  0.8328E-05  0.3452E-07  0.6732E-03  0.6678E-04  0.2016E+03
   -1.120004    4.95994  0.0000E+00  0.8319E-05  0.3871E-07  0.6276E-03  0.5911E-04  0.3393E+03
   -1.155004    4.97559  0.0000E+00  0.8291E-05  0.4423E-07  0.5886E-03  0.5187E-04  0.1013E+04
   -1.190003    4.99178  0.0000E+00  0.8245E-05  0.5300E-07  0.5180E-03  0.4516E-04  0.1036E+04
   -1.225002    5.01225  0.0000E+00  0.8180E-05  0.6775E-07  0.4776E-03  0.3834E-04  0.4969E+05
   -1.260001    5.03090  0.0000E+00  0.8063E-05  0.1052E-06  0.3543E-03  0.3112E-04 -0.1129E+07
   -1.295000    5.09125  0.0000E+00  0.7749E-05  0.1862E-06  0.3243E-03  0.2363E-04 -0.3780E+06
   -1.329998    5.13110  0.0000E+00  0.6923E-05  0.4133E-06  0.1449E-03  0.1879E-04 -0.2055E+08
   -1.364996    5.40417  0.0000E+00  0.4875E-05  0.8557E-06  0.7313E-04  0.1245E-04 -0.2927E+09
   -1.399994    5.59088  0.0000E+00  0.0000E+00  0.0000E+00  0.0000E+00  0.1610E-04  0.0000E+00
