 1 - depth, m
 2 - temperature, C
 3 - salinity, kg/kg
 4 - turbulent kinetic energy, m**2/s**2
 5 - dissipation rate, m**2/s**3
 6 - kinematic heat conductance, m**2/s
 7 - modulus of horizontal velocity, m/s
 8 - Richardson number, n/d
   -0.000000    3.43877  0.0000E+00  0.8231E-03  0.3960E-02  0.9495E-04  0.3737E+00  0.4580E-02
   -0.034998    3.94414  0.0000E+00  0.4568E-03  0.2206E-02  0.1949E-03  0.1097E+00 -0.1221E-01
   -0.069996    4.10782  0.0000E+00  0.3033E-03  0.8357E-03  0.2877E-03  0.6389E-01  0.4267E-02
   -0.104994    4.17210  0.0000E+00  0.2417E-03  0.5583E-03  0.2920E-03  0.4813E-01 -0.2632E-01
   -0.139993    4.20301  0.0000E+00  0.2027E-03  0.4006E-03  0.3015E-03  0.3990E-01  0.1730E-01
   -0.174992    4.22652  0.0000E+00  0.1744E-03  0.2885E-03  0.3062E-03  0.3416E-01  0.2651E+00
   -0.209991    4.24447  0.0000E+00  0.1526E-03  0.2073E-03  0.3142E-03  0.2982E-01  0.6898E-02
   -0.244990    4.25958  0.0000E+00  0.1353E-03  0.1481E-03  0.3156E-03  0.2631E-01 -0.7919E-02
   -0.279990    4.27396  0.0000E+00  0.1210E-03  0.1050E-03  0.3230E-03  0.2312E-01 -0.1079E-02
   -0.314990    4.28897  0.0000E+00  0.1081E-03  0.7383E-04  0.3313E-03  0.1964E-01  0.6987E+01
   -0.349990    4.30239  0.0000E+00  0.9782E-04  0.5134E-04  0.3408E-03  0.1719E-01  0.2307E+00
   -0.384990    4.31557  0.0000E+00  0.8883E-04  0.3526E-04  0.3479E-03  0.1515E-01 -0.4354E+01
   -0.419991    4.32861  0.0000E+00  0.8159E-04  0.2404E-04  0.3514E-03  0.1347E-01  0.3129E+00
   -0.454991    4.34195  0.0000E+00  0.7525E-04  0.1644E-04  0.3549E-03  0.1180E-01  0.1884E+01
   -0.489992    4.35573  0.0000E+00  0.6968E-04  0.1155E-04  0.3657E-03  0.1013E-01  0.1016E+02
   -0.524993    4.37017  0.0000E+00  0.6455E-04  0.8319E-05  0.3927E-03  0.8633E-02 -0.1990E+03
   -0.559993    4.38595  0.0000E+00  0.5965E-04  0.6033E-05  0.4272E-03  0.7584E-02 -0.1574E+03
   -0.594994    4.40449  0.0000E+00  0.5445E-04  0.4178E-05  0.4622E-03  0.6876E-02  0.2373E+03
   -0.629995    4.42408  0.0000E+00  0.4978E-04  0.2878E-05  0.4835E-03  0.6513E-02  0.2480E+04
   -0.664996    4.44394  0.0000E+00  0.4575E-04  0.2024E-05  0.5069E-03  0.6041E-02 -0.5637E+03
   -0.699997    4.46231  0.0000E+00  0.4228E-04  0.1461E-05  0.5387E-03  0.5559E-02  0.2390E+03
   -0.734998    4.47982  0.0000E+00  0.3923E-04  0.1066E-05  0.5711E-03  0.5103E-02  0.8918E+04
   -0.769999    4.49740  0.0000E+00  0.3653E-04  0.8178E-06  0.5990E-03  0.4675E-02  0.5644E+02
   -0.805000    4.51326  0.0000E+00  0.3412E-04  0.6402E-06  0.6244E-03  0.4281E-02  0.1504E+04
   -0.840001    4.53042  0.0000E+00  0.3195E-04  0.5130E-06  0.6621E-03  0.3909E-02  0.1361E+03
   -0.875002    4.54540  0.0000E+00  0.2997E-04  0.4251E-06  0.6816E-03  0.3562E-02  0.2682E+03
   -0.910003    4.56163  0.0000E+00  0.2815E-04  0.3605E-06  0.7074E-03  0.3238E-02  0.1192E+03
   -0.945004    4.57612  0.0000E+00  0.2646E-04  0.3138E-06  0.7107E-03  0.2927E-02  0.5366E+03
   -0.980004    4.59162  0.0000E+00  0.2491E-04  0.2800E-06  0.7052E-03  0.2625E-02  0.1193E+03
   -1.015004    4.60582  0.0000E+00  0.2346E-04  0.2561E-06  0.6767E-03  0.2336E-02  0.2034E+03
   -1.050005    4.62170  0.0000E+00  0.2206E-04  0.2412E-06  0.6630E-03  0.2070E-02  0.9709E+02
   -1.085005    4.63778  0.0000E+00  0.2066E-04  0.2357E-06  0.6303E-03  0.1821E-02  0.9841E+02
   -1.120005    4.65650  0.0000E+00  0.1928E-04  0.2447E-06  0.5874E-03  0.1590E-02  0.2063E+03
   -1.155004    4.67753  0.0000E+00  0.1792E-04  0.2760E-06  0.5288E-03  0.1370E-02  0.3849E+03
   -1.190004    4.70311  0.0000E+00  0.1658E-04  0.3443E-06  0.4759E-03  0.1149E-02  0.5502E+03
   -1.225003    4.73375  0.0000E+00  0.1524E-04  0.4884E-06  0.4227E-03  0.9216E-03  0.2861E+04
   -1.260002    4.77396  0.0000E+00  0.1379E-04  0.8107E-06  0.3365E-03  0.7092E-03  0.1360E+07
   -1.295001    4.89115  0.0000E+00  0.1208E-04  0.1615E-05  0.3182E-03  0.5291E-03 -0.5764E+07
   -1.329999    4.89855  0.0000E+00  0.1002E-04  0.4141E-05  0.1738E-03  0.4777E-03  0.1821E+07
   -1.364997    5.38962  0.0000E+00  0.7316E-05  0.7403E-05  0.1487E-03  0.3207E-03  0.4425E+09
   -1.399995    5.37893  0.0000E+00  0.0000E+00  0.0000E+00  0.0000E+00  0.5768E-03  0.0000E+00
