 1 - depth, m
 2 - temperature, C
 3 - salinity, kg/kg
 4 - turbulent kinetic energy, m**2/s**2
 5 - dissipation rate, m**2/s**3
 6 - kinematic heat conductance, m**2/s
 7 - modulus of horizontal velocity, m/s
 8 - Richardson number, n/d
   -0.000000   15.78565  0.0000E+00  0.1988E-03  0.1806E-03  0.6194E-04  0.1464E+00 -0.1077E+00
   -0.034998   15.96823  0.0000E+00  0.1109E-03  0.4892E-04  0.9237E-04  0.4803E-01 -0.1809E+00
   -0.069996   16.02510  0.0000E+00  0.7944E-04  0.1979E-04  0.1248E-03  0.3023E-01 -0.1214E-01
   -0.104994   16.05403  0.0000E+00  0.6447E-04  0.1066E-04  0.1466E-03  0.2365E-01  0.2566E+01
   -0.139993   16.07103  0.0000E+00  0.5456E-04  0.6133E-05  0.1740E-03  0.1955E-01  0.2246E+02
   -0.174991   16.08260  0.0000E+00  0.4766E-04  0.3684E-05  0.2177E-03  0.1657E-01  0.9754E+01
   -0.209991   16.09161  0.0000E+00  0.4276E-04  0.2295E-05  0.2819E-03  0.1422E-01  0.1229E+03
   -0.244990   16.09892  0.0000E+00  0.3921E-04  0.1500E-05  0.3585E-03  0.1228E-01  0.4486E+03
   -0.279990   16.10466  0.0000E+00  0.3661E-04  0.1036E-05  0.4255E-03  0.1059E-01  0.5681E+03
   -0.314989   16.10993  0.0000E+00  0.3453E-04  0.7667E-06  0.4915E-03  0.9024E-02  0.5299E+03
   -0.349989   16.11382  0.0000E+00  0.3290E-04  0.5911E-06  0.5464E-03  0.7743E-02  0.6235E+03
   -0.384990   16.11726  0.0000E+00  0.3165E-04  0.4723E-06  0.5931E-03  0.6630E-02  0.1662E+03
   -0.419990   16.12026  0.0000E+00  0.3073E-04  0.3916E-06  0.6251E-03  0.5643E-02  0.1516E+03
   -0.454990   16.12313  0.0000E+00  0.3004E-04  0.3338E-06  0.6653E-03  0.4709E-02  0.7674E+02
   -0.489991   16.12583  0.0000E+00  0.2951E-04  0.2930E-06  0.7223E-03  0.3834E-02  0.4127E+02
   -0.524992   16.12840  0.0000E+00  0.2906E-04  0.2633E-06  0.8770E-03  0.2995E-02  0.5898E+01
   -0.559992   16.13095  0.0000E+00  0.2874E-04  0.2400E-06  0.9819E-03  0.2488E-02  0.2273E+01
   -0.594993   16.13356  0.0000E+00  0.2838E-04  0.2148E-06  0.8172E-03  0.2108E-02  0.1570E+01
   -0.629994   16.13784  0.0000E+00  0.2800E-04  0.1907E-06  0.9480E-03  0.1754E-02  0.3048E+00
   -0.664995   16.14156  0.0000E+00  0.2775E-04  0.1799E-06  0.1295E-02  0.1468E-02  0.2668E+01
   -0.699996   16.14428  0.0000E+00  0.2760E-04  0.1748E-06  0.1378E-02  0.1365E-02  0.5718E+01
   -0.734997   16.14685  0.0000E+00  0.2742E-04  0.1708E-06  0.9849E-03  0.1285E-02  0.1462E+01
   -0.769998   16.15051  0.0000E+00  0.2705E-04  0.1669E-06  0.1023E-02  0.1090E-02  0.1522E+01
   -0.804999   16.15409  0.0000E+00  0.2665E-04  0.1658E-06  0.1029E-02  0.9294E-03  0.1531E+01
   -0.840000   16.15775  0.0000E+00  0.2632E-04  0.1677E-06  0.1244E-02  0.7906E-03  0.1800E+01
   -0.875001   16.16085  0.0000E+00  0.2604E-04  0.1723E-06  0.1140E-02  0.7171E-03 -0.7482E+02
   -0.910001   16.16440  0.0000E+00  0.2569E-04  0.1799E-06  0.1066E-02  0.6634E-03  0.4255E+00
   -0.945002   16.16838  0.0000E+00  0.2519E-04  0.1927E-06  0.1014E-02  0.5887E-03  0.7387E+02
   -0.980002   16.17259  0.0000E+00  0.2464E-04  0.2119E-06  0.9945E-03  0.5226E-03  0.5511E+02
   -1.015003   16.17744  0.0000E+00  0.2403E-04  0.2426E-06  0.9372E-03  0.4640E-03  0.1083E+03
   -1.050003   16.18296  0.0000E+00  0.2332E-04  0.3027E-06  0.9328E-03  0.4113E-03  0.3295E+03
   -1.085003   16.19023  0.0000E+00  0.2249E-04  0.3842E-06  0.8407E-03  0.3629E-03 -0.1928E+05
   -1.120003   16.20021  0.0000E+00  0.2154E-04  0.5015E-06  0.7973E-03  0.3173E-03  0.7618E+05
   -1.155002   16.21004  0.0000E+00  0.2051E-04  0.6933E-06  0.7250E-03  0.2744E-03  0.1430E+06
   -1.190002   16.22906  0.0000E+00  0.1946E-04  0.9922E-06  0.7031E-03  0.2235E-03  0.1328E+07
   -1.225001   16.24184  0.0000E+00  0.1853E-04  0.1862E-05  0.6193E-03  0.1785E-03  0.1589E+08
   -1.260000   16.27746  0.0000E+00  0.1734E-04  0.4011E-05  0.5654E-03  0.1331E-03  0.1335E+09
   -1.294998   16.39099  0.0000E+00  0.1608E-04  0.5935E-05  0.4950E-03  0.9649E-04 -0.4199E+07
   -1.329997   16.31895  0.0000E+00  0.1386E-04  0.2292E-04  0.3046E-03  0.8335E-04 -0.1997E+10
   -1.364995   16.68113  0.0000E+00  0.1101E-04  0.3089E-04  0.3711E-03  0.5093E-04 -0.8988E+05
   -1.399992   16.52914  0.0000E+00  0.0000E+00  0.0000E+00  0.0000E+00  0.1044E-03  0.0000E+00
