 1 - depth, m
 2 - temperature, C
 3 - salinity, kg/kg
 4 - turbulent kinetic energy, m**2/s**2
 5 - dissipation rate, m**2/s**3
 6 - kinematic heat conductance, m**2/s
 7 - modulus of horizontal velocity, m/s
 8 - Richardson number, n/d
   -0.000000    0.00019  0.0000E+00  0.2179E-03  0.1523E-03  0.5683E-04  0.1765E+00  0.9720E-01
   -0.035000    0.12773  0.0000E+00  0.1375E-03  0.5185E-04  0.1144E-03  0.6099E-01  0.6059E-01
   -0.070000    0.19241  0.0000E+00  0.1025E-03  0.2202E-04  0.1248E-03  0.4252E-01  0.8656E-01
   -0.105001    0.23788  0.0000E+00  0.8377E-04  0.1236E-04  0.1310E-03  0.3517E-01  0.1395E+00
   -0.140002    0.27378  0.0000E+00  0.7086E-04  0.7488E-05  0.1359E-03  0.3013E-01  0.9686E-01
   -0.175003    0.30526  0.0000E+00  0.6112E-04  0.4712E-05  0.1395E-03  0.2611E-01  0.8871E-01
   -0.210005    0.33453  0.0000E+00  0.5350E-04  0.3061E-05  0.1411E-03  0.2271E-01  0.1030E+00
   -0.245006    0.36280  0.0000E+00  0.4730E-04  0.2056E-05  0.1394E-03  0.1972E-01  0.1609E+00
   -0.280008    0.39121  0.0000E+00  0.4177E-04  0.1423E-05  0.1311E-03  0.1695E-01  0.1135E+00
   -0.315010    0.42184  0.0000E+00  0.3599E-04  0.1006E-05  0.1256E-03  0.1417E-01  0.2371E+00
   -0.350013    0.45611  0.0000E+00  0.3065E-04  0.7374E-06  0.1145E-03  0.1192E-01  0.1287E+01
   -0.385015    0.49923  0.0000E+00  0.2584E-04  0.5552E-06  0.1002E-03  0.1000E-01  0.5040E+02
   -0.420018    0.56512  0.0000E+00  0.2167E-04  0.4287E-06  0.8324E-04  0.8319E-02  0.5347E+03
   -0.455021    0.72649  0.0000E+00  0.1807E-04  0.3342E-06  0.6780E-04  0.6512E-02  0.1224E+05
   -0.490024    1.20869  0.0000E+00  0.1511E-04  0.2590E-06  0.6326E-04  0.4464E-02  0.8578E+05
   -0.525027    1.71278  0.0000E+00  0.1235E-04  0.1951E-06  0.9784E-04  0.2841E-02  0.1339E+07
   -0.560030    2.22428  0.0000E+00  0.1012E-04  0.1442E-06  0.1252E-03  0.1844E-02  0.1384E+08
   -0.595033    2.74751  0.0000E+00  0.7926E-05  0.9888E-07  0.1817E-03  0.1327E-02  0.4946E+08
   -0.630036    3.24927  0.0000E+00  0.6298E-05  0.6520E-07  0.2225E-03  0.1030E-02  0.1453E+12
   -0.665040    3.61484  0.0000E+00  0.5194E-05  0.4228E-07  0.2687E-03  0.7656E-03  0.7252E+09
   -0.700043    3.97298  0.0000E+00  0.4677E-05  0.2849E-07  0.3122E-03  0.4467E-03  0.1281E+09
   -0.735046    4.17765  0.0000E+00  0.4538E-05  0.2209E-07  0.3538E-03  0.2765E-03  0.1161E+09
   -0.770050    4.33036  0.0000E+00  0.4550E-05  0.1912E-07  0.3908E-03  0.1703E-03  0.7520E+08
   -0.805053    4.38127  0.0000E+00  0.4625E-05  0.1780E-07  0.4177E-03  0.1214E-03  0.1879E+09
   -0.840056    4.40905  0.0000E+00  0.4719E-05  0.1714E-07  0.4370E-03  0.9492E-04  0.2278E+10
   -0.875059    4.43285  0.0000E+00  0.4821E-05  0.1685E-07  0.4529E-03  0.7577E-04  0.5203E+10
   -0.910062    4.45483  0.0000E+00  0.4928E-05  0.1683E-07  0.4649E-03  0.6185E-04  0.5925E+09
   -0.945065    4.47566  0.0000E+00  0.5033E-05  0.1700E-07  0.4734E-03  0.5141E-04  0.1616E+09
   -0.980068    4.49565  0.0000E+00  0.5136E-05  0.1736E-07  0.4771E-03  0.4309E-04  0.8578E+08
   -1.015071    4.51517  0.0000E+00  0.5238E-05  0.1789E-07  0.4762E-03  0.3626E-04  0.6749E+08
   -1.050073    4.53488  0.0000E+00  0.5337E-05  0.1863E-07  0.4703E-03  0.3065E-04  0.7627E+08
   -1.085076    4.55522  0.0000E+00  0.5434E-05  0.1963E-07  0.4596E-03  0.2593E-04  0.9406E+08
   -1.120078    4.57670  0.0000E+00  0.5524E-05  0.2092E-07  0.4435E-03  0.2191E-04  0.8040E+08
   -1.155080    4.59890  0.0000E+00  0.5605E-05  0.2260E-07  0.4226E-03  0.1837E-04  0.7778E+08
   -1.190081    4.62186  0.0000E+00  0.5681E-05  0.2487E-07  0.3920E-03  0.1518E-04  0.6476E+08
   -1.225083    4.64551  0.0000E+00  0.5756E-05  0.2834E-07  0.3565E-03  0.1242E-04  0.9029E+08
   -1.260084    4.67232  0.0000E+00  0.5824E-05  0.3464E-07  0.2825E-03  0.9845E-05  0.1100E+09
   -1.295085    4.70678  0.0000E+00  0.5808E-05  0.5018E-07  0.2344E-03  0.7542E-05 -0.2243E+10
   -1.330086    4.78574  0.0000E+00  0.5450E-05  0.8696E-07  0.1238E-03  0.5735E-05  0.4934E+12
   -1.365086    4.94727  0.0000E+00  0.3847E-05  0.2152E-06  0.3995E-04  0.3963E-05 -0.1977E+13
   -1.400086    5.29600  0.0000E+00  0.0000E+00  0.0000E+00  0.0000E+00  0.4155E-05  0.0000E+00
