 1 - depth, m
 2 - temperature, C
 3 - salinity, kg/kg
 4 - turbulent kinetic energy, m**2/s**2
 5 - dissipation rate, m**2/s**3
 6 - kinematic heat conductance, m**2/s
 7 - modulus of horizontal velocity, m/s
 8 - Richardson number, n/d
   -0.000000   10.16112  0.0000E+00  0.1093E-02  0.8986E-02  0.1365E-03  0.4836E+00 -0.1303E-01
   -0.034998   10.57227  0.0000E+00  0.5534E-03  0.5328E-02  0.1796E-03  0.1511E+00 -0.8068E+00
   -0.069996   10.79290  0.0000E+00  0.3442E-03  0.1508E-02  0.2886E-03  0.8136E-01  0.4172E+00
   -0.104994   10.87390  0.0000E+00  0.2708E-03  0.9604E-03  0.3137E-03  0.5772E-01  0.5654E+01
   -0.139992   10.91147  0.0000E+00  0.2257E-03  0.6561E-03  0.3221E-03  0.4532E-01  0.2861E+01
   -0.174991   10.93808  0.0000E+00  0.1916E-03  0.4511E-03  0.3323E-03  0.3670E-01  0.1198E+01
   -0.209990   10.95597  0.0000E+00  0.1665E-03  0.3100E-03  0.3712E-03  0.3127E-01  0.2159E+00
   -0.244990   10.97016  0.0000E+00  0.1476E-03  0.2117E-03  0.3913E-03  0.2721E-01  0.6946E+01
   -0.279989   10.97903  0.0000E+00  0.1323E-03  0.1423E-03  0.4001E-03  0.2384E-01  0.1093E+02
   -0.314989   10.99140  0.0000E+00  0.1191E-03  0.9495E-04  0.4806E-03  0.1995E-01  0.4236E+02
   -0.349989   10.99871  0.0000E+00  0.1086E-03  0.6374E-04  0.5276E-03  0.1761E-01  0.1629E+03
   -0.384989   11.00541  0.0000E+00  0.1000E-03  0.4292E-04  0.5919E-03  0.1580E-01  0.1619E+03
   -0.419989   11.01154  0.0000E+00  0.9305E-04  0.2868E-04  0.6508E-03  0.1429E-01  0.8250E+02
   -0.454990   11.01754  0.0000E+00  0.8739E-04  0.1942E-04  0.7093E-03  0.1274E-01  0.3220E+03
   -0.489990   11.02288  0.0000E+00  0.8276E-04  0.1405E-04  0.7989E-03  0.1114E-01  0.4117E+04
   -0.524991   11.02896  0.0000E+00  0.7843E-04  0.1054E-04  0.8883E-03  0.9620E-02 -0.4615E+02
   -0.559992   11.03436  0.0000E+00  0.7390E-04  0.7881E-05  0.9648E-03  0.8482E-02  0.8657E+02
   -0.594993   11.04068  0.0000E+00  0.6851E-04  0.5582E-05  0.1026E-02  0.7615E-02  0.3914E+02
   -0.629994   11.04718  0.0000E+00  0.6365E-04  0.3900E-05  0.1067E-02  0.7191E-02 -0.5465E+02
   -0.664995   11.05407  0.0000E+00  0.5945E-04  0.2816E-05  0.1064E-02  0.6628E-02  0.6255E+01
   -0.699995   11.06079  0.0000E+00  0.5580E-04  0.2023E-05  0.1094E-02  0.5998E-02  0.3695E+03
   -0.734996   11.06842  0.0000E+00  0.5266E-04  0.1539E-05  0.1115E-02  0.5421E-02 -0.7088E+03
   -0.769997   11.07496  0.0000E+00  0.4979E-04  0.1208E-05  0.1098E-02  0.4918E-02  0.6693E+03
   -0.804998   11.08170  0.0000E+00  0.4704E-04  0.9620E-06  0.1102E-02  0.4398E-02  0.2945E+03
   -0.839999   11.08886  0.0000E+00  0.4458E-04  0.7880E-06  0.1110E-02  0.3942E-02 -0.7979E+02
   -0.875000   11.09626  0.0000E+00  0.4226E-04  0.6597E-06  0.1056E-02  0.3537E-02  0.3296E+02
   -0.910000   11.10325  0.0000E+00  0.3998E-04  0.5524E-06  0.1041E-02  0.3135E-02  0.1888E+02
   -0.945001   11.11112  0.0000E+00  0.3785E-04  0.4743E-06  0.9924E-03  0.2771E-02  0.6276E+02
   -0.980001   11.11892  0.0000E+00  0.3582E-04  0.4250E-06  0.9512E-03  0.2421E-02  0.9904E+03
   -1.015002   11.12737  0.0000E+00  0.3386E-04  0.4006E-06  0.9179E-03  0.2095E-02 -0.5579E+03
   -1.050002   11.13650  0.0000E+00  0.3198E-04  0.4098E-06  0.8475E-03  0.1823E-02 -0.1497E+04
   -1.085002   11.14727  0.0000E+00  0.2998E-04  0.4592E-06  0.7850E-03  0.1572E-02 -0.5593E+04
   -1.120002   11.16210  0.0000E+00  0.2789E-04  0.5657E-06  0.7422E-03  0.1341E-02  0.9071E+05
   -1.155001   11.17809  0.0000E+00  0.2577E-04  0.8069E-06  0.6594E-03  0.1131E-02  0.3552E+05
   -1.190001   11.20510  0.0000E+00  0.2368E-04  0.1212E-05  0.6256E-03  0.9046E-03  0.1033E+06
   -1.225000   11.22940  0.0000E+00  0.2186E-04  0.1969E-05  0.5393E-03  0.6799E-03  0.8927E+06
   -1.259999   11.27195  0.0000E+00  0.1988E-04  0.4515E-05  0.4617E-03  0.4906E-03 -0.1328E+09
   -1.294997   11.47517  0.0000E+00  0.1787E-04  0.8053E-05  0.4527E-03  0.3258E-03  0.1178E+09
   -1.329995   11.34085  0.0000E+00  0.1531E-04  0.2229E-04  0.2789E-03  0.2805E-03 -0.1361E+10
   -1.364993   11.93213  0.0000E+00  0.1206E-04  0.3237E-04  0.3552E-03  0.1637E-03 -0.9884E+06
   -1.399991   11.63092  0.0000E+00  0.0000E+00  0.0000E+00  0.0000E+00  0.3518E-03  0.0000E+00
