 1 - depth, m
 2 - temperature, C
 3 - salinity, kg/kg
 4 - turbulent kinetic energy, m**2/s**2
 5 - dissipation rate, m**2/s**3
 6 - kinematic heat conductance, m**2/s
 7 - modulus of horizontal velocity, m/s
 8 - Richardson number, n/d
   -0.000000   13.23083  0.0000E+00  0.5008E-03  0.1148E-02  0.9539E-04  0.2841E+00 -0.8968E+00
   -0.034998   13.54944  0.0000E+00  0.2841E-03  0.4880E-03  0.1400E-03  0.8695E-01 -0.1378E+02
   -0.069996   13.68138  0.0000E+00  0.1872E-03  0.1575E-03  0.1964E-03  0.5022E-01  0.6821E-01
   -0.104994   13.72821  0.0000E+00  0.1499E-03  0.9373E-04  0.2354E-03  0.3880E-01  0.2222E+01
   -0.139992   13.75063  0.0000E+00  0.1268E-03  0.5723E-04  0.2516E-03  0.3229E-01  0.4562E+00
   -0.174991   13.76703  0.0000E+00  0.1103E-03  0.3629E-04  0.2726E-03  0.2749E-01  0.2689E+01
   -0.209990   13.78010  0.0000E+00  0.9769E-04  0.2380E-04  0.3046E-03  0.2372E-01  0.1014E+02
   -0.244989   13.78991  0.0000E+00  0.8785E-04  0.1561E-04  0.3527E-03  0.2069E-01  0.9563E+02
   -0.279989   13.79801  0.0000E+00  0.8009E-04  0.1038E-04  0.4093E-03  0.1809E-01  0.1144E+03
   -0.314989   13.80660  0.0000E+00  0.7357E-04  0.6998E-05  0.5060E-03  0.1554E-01  0.1723E+03
   -0.349989   13.81259  0.0000E+00  0.6832E-04  0.4730E-05  0.5835E-03  0.1368E-01  0.2620E+03
   -0.384989   13.81784  0.0000E+00  0.6408E-04  0.3326E-05  0.6593E-03  0.1209E-01  0.2846E+03
   -0.419989   13.82228  0.0000E+00  0.6063E-04  0.2406E-05  0.7325E-03  0.1069E-01  0.4656E+03
   -0.454990   13.82646  0.0000E+00  0.5781E-04  0.1811E-05  0.7694E-03  0.9335E-02  0.3502E+03
   -0.489990   13.83031  0.0000E+00  0.5541E-04  0.1443E-05  0.8175E-03  0.8016E-02  0.4904E+03
   -0.524991   13.83415  0.0000E+00  0.5300E-04  0.1179E-05  0.8583E-03  0.6747E-02  0.1473E+03
   -0.559991   13.83802  0.0000E+00  0.5040E-04  0.9673E-06  0.9075E-03  0.5683E-02 -0.4313E+03
   -0.594992   13.84257  0.0000E+00  0.4753E-04  0.7808E-06  0.9963E-03  0.4888E-02  0.3305E+02
   -0.629993   13.84730  0.0000E+00  0.4497E-04  0.6386E-06  0.1009E-02  0.4429E-02 -0.4729E+02
   -0.664994   13.85242  0.0000E+00  0.4276E-04  0.5406E-06  0.1017E-02  0.3968E-02  0.6076E+03
   -0.699995   13.85718  0.0000E+00  0.4091E-04  0.4699E-06  0.1038E-02  0.3526E-02  0.5184E+01
   -0.734996   13.86188  0.0000E+00  0.3919E-04  0.4128E-06  0.1040E-02  0.3120E-02 -0.4324E+02
   -0.769997   13.86683  0.0000E+00  0.3756E-04  0.3659E-06  0.1044E-02  0.2720E-02  0.9032E+01
   -0.804998   13.87184  0.0000E+00  0.3604E-04  0.3307E-06  0.1048E-02  0.2372E-02  0.1016E+02
   -0.839998   13.87680  0.0000E+00  0.3463E-04  0.3056E-06  0.1038E-02  0.2070E-02  0.1813E+02
   -0.874999   13.88191  0.0000E+00  0.3323E-04  0.2877E-06  0.1023E-02  0.1796E-02  0.6293E+01
   -0.910000   13.88703  0.0000E+00  0.3195E-04  0.2784E-06  0.1026E-02  0.1563E-02  0.9909E+01
   -0.945000   13.89276  0.0000E+00  0.3071E-04  0.2762E-06  0.9844E-03  0.1362E-02  0.7535E+03
   -0.980001   13.89847  0.0000E+00  0.2957E-04  0.2852E-06  0.9748E-03  0.1193E-02  0.3841E+02
   -1.015001   13.90484  0.0000E+00  0.2843E-04  0.3111E-06  0.9195E-03  0.1037E-02  0.9424E+03
   -1.050001   13.91206  0.0000E+00  0.2725E-04  0.3628E-06  0.8775E-03  0.9138E-03  0.5913E+04
   -1.085001   13.92146  0.0000E+00  0.2587E-04  0.4659E-06  0.8173E-03  0.7788E-03  0.3626E+03
   -1.120001   13.93473  0.0000E+00  0.2445E-04  0.6126E-06  0.7797E-03  0.6689E-03  0.9675E+05
   -1.155000   13.94454  0.0000E+00  0.2294E-04  0.9642E-06  0.7157E-03  0.5670E-03  0.1349E+03
   -1.190000   13.97428  0.0000E+00  0.2140E-04  0.1483E-05  0.7096E-03  0.4466E-03  0.8227E+06
   -1.224999   13.98636  0.0000E+00  0.2013E-04  0.2424E-05  0.5885E-03  0.3398E-03  0.4300E+07
   -1.259998   14.04068  0.0000E+00  0.1865E-04  0.5609E-05  0.5358E-03  0.2435E-03  0.9963E+08
   -1.294996   14.19388  0.0000E+00  0.1721E-04  0.8759E-05  0.5025E-03  0.1701E-03  0.9636E+07
   -1.329994   14.07092  0.0000E+00  0.1494E-04  0.2179E-04  0.3184E-03  0.1524E-03 -0.3160E+09
   -1.364992   14.56602  0.0000E+00  0.1184E-04  0.3202E-04  0.3820E-03  0.9122E-04 -0.2730E+06
   -1.399990   14.34690  0.0000E+00  0.0000E+00  0.0000E+00  0.0000E+00  0.1969E-03  0.0000E+00
