 1 - depth, m
 2 - temperature, C
 3 - salinity, kg/kg
 4 - turbulent kinetic energy, m**2/s**2
 5 - dissipation rate, m**2/s**3
 6 - kinematic heat conductance, m**2/s
 7 - modulus of horizontal velocity, m/s
 8 - Richardson number, n/d
   -0.000000   19.24854  0.0000E+00  0.5510E-04  0.2233E-04  0.3598E-04  0.4774E-01  0.1033E+03
   -0.034998   19.36279  0.0000E+00  0.3444E-04  0.6079E-05  0.9405E-04  0.1749E-01 -0.3103E+00
   -0.069996   19.39520  0.0000E+00  0.2776E-04  0.2672E-05  0.1641E-03  0.1207E-01  0.1540E+03
   -0.104994   19.41043  0.0000E+00  0.2473E-04  0.1495E-05  0.2460E-03  0.9824E-02  0.4649E+02
   -0.139993   19.41951  0.0000E+00  0.2300E-04  0.9108E-06  0.3281E-03  0.8339E-02  0.1176E+04
   -0.174992   19.42605  0.0000E+00  0.2201E-04  0.5958E-06  0.3947E-03  0.7165E-02  0.1631E+03
   -0.209991   19.43097  0.0000E+00  0.2155E-04  0.4192E-06  0.4573E-03  0.6195E-02  0.2530E+03
   -0.244990   19.43498  0.0000E+00  0.2141E-04  0.3140E-06  0.5183E-03  0.5345E-02  0.1399E+03
   -0.279990   19.43832  0.0000E+00  0.2147E-04  0.2499E-06  0.5784E-03  0.4575E-02  0.2914E+03
   -0.314990   19.44122  0.0000E+00  0.2158E-04  0.2073E-06  0.6481E-03  0.3846E-02  0.1313E+03
   -0.349990   19.44378  0.0000E+00  0.2173E-04  0.1773E-06  0.7189E-03  0.3216E-02  0.2754E+02
   -0.384990   19.44608  0.0000E+00  0.2193E-04  0.1559E-06  0.7871E-03  0.2672E-02  0.1538E+02
   -0.419990   19.44824  0.0000E+00  0.2216E-04  0.1404E-06  0.8562E-03  0.2196E-02  0.2940E+02
   -0.454991   19.45021  0.0000E+00  0.2240E-04  0.1291E-06  0.9366E-03  0.1769E-02  0.7241E+01
   -0.489992   19.45204  0.0000E+00  0.2259E-04  0.1223E-06  0.1045E-02  0.1357E-02  0.5451E+01
   -0.524992   19.45371  0.0000E+00  0.2281E-04  0.1186E-06  0.1224E-02  0.1089E-02  0.1003E+02
   -0.559993   19.45520  0.0000E+00  0.2303E-04  0.1166E-06  0.1192E-02  0.8977E-03  0.2804E+01
   -0.594994   19.45702  0.0000E+00  0.2329E-04  0.1151E-06  0.1354E-02  0.7355E-03  0.4401E+01
   -0.629995   19.45898  0.0000E+00  0.2347E-04  0.1148E-06  0.1208E-02  0.6658E-03  0.6155E+01
   -0.664996   19.46119  0.0000E+00  0.2363E-04  0.1157E-06  0.1264E-02  0.5792E-03  0.6681E+01
   -0.699997   19.46330  0.0000E+00  0.2371E-04  0.1175E-06  0.1260E-02  0.5066E-03  0.7745E+01
   -0.734998   19.46545  0.0000E+00  0.2375E-04  0.1198E-06  0.1574E-02  0.4421E-03  0.2324E+02
   -0.769999   19.46715  0.0000E+00  0.2376E-04  0.1230E-06  0.1273E-02  0.4187E-03  0.7113E+02
   -0.805000   19.46938  0.0000E+00  0.2372E-04  0.1269E-06  0.1272E-02  0.3966E-03  0.1313E+02
   -0.840001   19.47160  0.0000E+00  0.2358E-04  0.1327E-06  0.1253E-02  0.3577E-03  0.1554E+02
   -0.875002   19.47394  0.0000E+00  0.2341E-04  0.1399E-06  0.1220E-02  0.3261E-03  0.2063E+02
   -0.910002   19.47643  0.0000E+00  0.2317E-04  0.1492E-06  0.1168E-02  0.2992E-03  0.3748E+02
   -0.945003   19.47922  0.0000E+00  0.2287E-04  0.1611E-06  0.1121E-02  0.2751E-03  0.5214E+02
   -0.980004   19.48224  0.0000E+00  0.2248E-04  0.1774E-06  0.1081E-02  0.2530E-03  0.2474E+04
   -1.015004   19.48572  0.0000E+00  0.2199E-04  0.2024E-06  0.1028E-02  0.2314E-03 -0.7730E+03
   -1.050004   19.49000  0.0000E+00  0.2137E-04  0.2441E-06  0.9892E-03  0.2097E-03  0.2359E+05
   -1.085004   19.49559  0.0000E+00  0.2062E-04  0.3123E-06  0.9257E-03  0.1867E-03  0.1524E+05
   -1.120004   19.50312  0.0000E+00  0.1972E-04  0.3897E-06  0.8123E-03  0.1643E-03  0.7871E+07
   -1.155004   19.51071  0.0000E+00  0.1875E-04  0.5417E-06  0.7454E-03  0.1417E-03  0.4950E+06
   -1.190003   19.52397  0.0000E+00  0.1771E-04  0.7596E-06  0.7189E-03  0.1165E-03  0.2572E+07
   -1.225002   19.53719  0.0000E+00  0.1676E-04  0.1108E-05  0.6124E-03  0.9086E-04 -0.2916E+07
   -1.260001   19.55978  0.0000E+00  0.1555E-04  0.2742E-05  0.5342E-03  0.6766E-04  0.6939E+08
   -1.295000   19.64876  0.0000E+00  0.1433E-04  0.4258E-05  0.5088E-03  0.4816E-04  0.4802E+08
   -1.329998   19.58874  0.0000E+00  0.1229E-04  0.1417E-04  0.2783E-03  0.4182E-04 -0.6915E+10
   -1.364996   19.85472  0.0000E+00  0.9838E-05  0.2013E-04  0.3420E-03  0.2527E-04 -0.4207E+07
   -1.399994   19.74402  0.0000E+00  0.0000E+00  0.0000E+00  0.0000E+00  0.5322E-04  0.0000E+00
