 1 - depth, m
 2 - temperature, C
 3 - salinity, kg/kg
 4 - turbulent kinetic energy, m**2/s**2
 5 - dissipation rate, m**2/s**3
 6 - kinematic heat conductance, m**2/s
 7 - modulus of horizontal velocity, m/s
 8 - Richardson number, n/d
   -0.000000   20.82221  0.0000E+00  0.3927E-04  0.7378E-05  0.3084E-04  0.4256E-01 -0.3064E+00
   -0.034998   20.91385  0.0000E+00  0.2667E-04  0.2182E-05  0.5651E-04  0.1811E-01 -0.3125E-01
   -0.069996   20.93807  0.0000E+00  0.2231E-04  0.1006E-05  0.9552E-04  0.1311E-01  0.6753E+01
   -0.104994   20.95197  0.0000E+00  0.2020E-04  0.5778E-06  0.1936E-03  0.1051E-01  0.3710E+03
   -0.139993   20.96021  0.0000E+00  0.1912E-04  0.3839E-06  0.3056E-03  0.8856E-02  0.3386E+03
   -0.174991   20.96527  0.0000E+00  0.1864E-04  0.2834E-06  0.3564E-03  0.7629E-02  0.3881E+03
   -0.209991   20.96903  0.0000E+00  0.1854E-04  0.2247E-06  0.4008E-03  0.6577E-02  0.1279E+03
   -0.244990   20.97208  0.0000E+00  0.1864E-04  0.1870E-06  0.4372E-03  0.5654E-02  0.4513E+02
   -0.279990   20.97478  0.0000E+00  0.1883E-04  0.1602E-06  0.4738E-03  0.4809E-02  0.1341E+02
   -0.314989   20.97724  0.0000E+00  0.1902E-04  0.1397E-06  0.5255E-03  0.4012E-02  0.5656E+01
   -0.349989   20.97947  0.0000E+00  0.1925E-04  0.1238E-06  0.5838E-03  0.3327E-02  0.3782E+01
   -0.384990   20.98150  0.0000E+00  0.1951E-04  0.1117E-06  0.6502E-03  0.2738E-02  0.2888E+01
   -0.419990   20.98335  0.0000E+00  0.1982E-04  0.1028E-06  0.7204E-03  0.2233E-02  0.2540E+01
   -0.454991   20.98502  0.0000E+00  0.2014E-04  0.9660E-07  0.7904E-03  0.1783E-02  0.2278E+01
   -0.489991   20.98657  0.0000E+00  0.2049E-04  0.9285E-07  0.8522E-03  0.1381E-02  0.2005E+01
   -0.524992   20.98800  0.0000E+00  0.2087E-04  0.9112E-07  0.8918E-03  0.1029E-02  0.1564E+01
   -0.559993   20.98950  0.0000E+00  0.2128E-04  0.9120E-07  0.9543E-03  0.7760E-03  0.1369E+01
   -0.594994   20.99110  0.0000E+00  0.2165E-04  0.9257E-07  0.1141E-02  0.6192E-03  0.1213E+01
   -0.629995   20.99279  0.0000E+00  0.2185E-04  0.9420E-07  0.1346E-02  0.5392E-03  0.1362E+01
   -0.664995   20.99426  0.0000E+00  0.2195E-04  0.9611E-07  0.1384E-02  0.4832E-03  0.1304E+01
   -0.699996   20.99569  0.0000E+00  0.2199E-04  0.9840E-07  0.1405E-02  0.4351E-03  0.1252E+01
   -0.734997   20.99711  0.0000E+00  0.2197E-04  0.1011E-06  0.1393E-02  0.3946E-03  0.1213E+01
   -0.769998   20.99858  0.0000E+00  0.2190E-04  0.1042E-06  0.1356E-02  0.3605E-03  0.1186E+01
   -0.804999   21.00010  0.0000E+00  0.2180E-04  0.1078E-06  0.1315E-02  0.3318E-03  0.1207E+01
   -0.840000   21.00172  0.0000E+00  0.2165E-04  0.1123E-06  0.1266E-02  0.3072E-03  0.1298E+01
   -0.875001   21.00342  0.0000E+00  0.2145E-04  0.1180E-06  0.1221E-02  0.2856E-03  0.1830E+01
   -0.910002   21.00526  0.0000E+00  0.2119E-04  0.1253E-06  0.1183E-02  0.2663E-03  0.1737E+01
   -0.945002   21.00726  0.0000E+00  0.2086E-04  0.1353E-06  0.1147E-02  0.2484E-03  0.1099E+02
   -0.980003   21.00946  0.0000E+00  0.2046E-04  0.1486E-06  0.1067E-02  0.2310E-03  0.1276E+02
   -1.015003   21.01210  0.0000E+00  0.1997E-04  0.1671E-06  0.1039E-02  0.2124E-03  0.1992E+03
   -1.050003   21.01509  0.0000E+00  0.1937E-04  0.1952E-06  0.9640E-03  0.1932E-03  0.1077E+05
   -1.085004   21.01913  0.0000E+00  0.1865E-04  0.2347E-06  0.8717E-03  0.1725E-03 -0.2119E+03
   -1.120003   21.02423  0.0000E+00  0.1780E-04  0.2932E-06  0.8287E-03  0.1523E-03  0.9171E+04
   -1.155003   21.02954  0.0000E+00  0.1688E-04  0.4134E-06  0.7589E-03  0.1318E-03  0.3468E+06
   -1.190002   21.03929  0.0000E+00  0.1588E-04  0.5756E-06  0.6780E-03  0.1088E-03  0.1298E+06
   -1.225002   21.04769  0.0000E+00  0.1499E-04  0.8245E-06  0.6053E-03  0.8495E-04  0.9168E+03
   -1.260000   21.06373  0.0000E+00  0.1383E-04  0.1923E-05  0.5387E-03  0.6471E-04  0.5337E+07
   -1.294999   21.12639  0.0000E+00  0.1269E-04  0.3103E-05  0.5149E-03  0.4556E-04  0.2944E+07
   -1.329997   21.08500  0.0000E+00  0.1075E-04  0.1038E-04  0.2776E-03  0.3976E-04 -0.1203E+10
   -1.364995   21.27541  0.0000E+00  0.8532E-05  0.1514E-04  0.3203E-03  0.2399E-04 -0.6987E+05
   -1.399993   21.19709  0.0000E+00  0.0000E+00  0.0000E+00  0.0000E+00  0.4921E-04  0.0000E+00
