 1 - depth, m
 2 - temperature, C
 3 - salinity, kg/kg
 4 - turbulent kinetic energy, m**2/s**2
 5 - dissipation rate, m**2/s**3
 6 - kinematic heat conductance, m**2/s
 7 - modulus of horizontal velocity, m/s
 8 - Richardson number, n/d
   -0.000000    8.85562  0.0000E+00  0.3918E-03  0.9159E-03  0.7594E-04  0.2338E+00  0.1788E-01
   -0.034998    9.24747  0.0000E+00  0.2088E-03  0.3510E-03  0.1158E-03  0.7295E-01  0.1769E+00
   -0.069997    9.38755  0.0000E+00  0.1357E-03  0.1116E-03  0.1687E-03  0.4252E-01 -0.1201E+00
   -0.104995    9.46244  0.0000E+00  0.1056E-03  0.6108E-04  0.1775E-03  0.3209E-01  0.1231E+00
   -0.139994    9.49774  0.0000E+00  0.8629E-04  0.3506E-04  0.1863E-03  0.2601E-01  0.4961E+00
   -0.174994    9.52238  0.0000E+00  0.7207E-04  0.1910E-04  0.2004E-03  0.2153E-01  0.6274E+01
   -0.209993    9.54157  0.0000E+00  0.6216E-04  0.1122E-04  0.2310E-03  0.1813E-01  0.1902E+01
   -0.244993    9.55600  0.0000E+00  0.5472E-04  0.6589E-05  0.2590E-03  0.1541E-01  0.1260E+02
   -0.279993    9.56772  0.0000E+00  0.4920E-04  0.4099E-05  0.2953E-03  0.1307E-01  0.1116E+03
   -0.314994    9.58260  0.0000E+00  0.4463E-04  0.2658E-05  0.3914E-03  0.1075E-01  0.5881E+03
   -0.349994    9.59093  0.0000E+00  0.4106E-04  0.1780E-05  0.4700E-03  0.9234E-02  0.2170E+03
   -0.384995    9.59827  0.0000E+00  0.3830E-04  0.1258E-05  0.5374E-03  0.7993E-02  0.2391E+03
   -0.419996    9.60438  0.0000E+00  0.3616E-04  0.9223E-06  0.5785E-03  0.6917E-02  0.2612E+03
   -0.454997    9.61047  0.0000E+00  0.3451E-04  0.6988E-06  0.6191E-03  0.5886E-02  0.6788E+03
   -0.489998    9.61583  0.0000E+00  0.3324E-04  0.5631E-06  0.6521E-03  0.4921E-02  0.3095E+03
   -0.524999    9.62094  0.0000E+00  0.3211E-04  0.4701E-06  0.6930E-03  0.4021E-02 -0.6407E+03
   -0.560000    9.62638  0.0000E+00  0.3097E-04  0.3961E-06  0.7403E-03  0.3289E-02 -0.5507E+03
   -0.595002    9.63259  0.0000E+00  0.2969E-04  0.3269E-06  0.8170E-03  0.2740E-02 -0.6248E+02
   -0.630003    9.64017  0.0000E+00  0.2856E-04  0.2761E-06  0.8628E-03  0.2428E-02 -0.4587E+02
   -0.665005    9.64733  0.0000E+00  0.2762E-04  0.2399E-06  0.8594E-03  0.2145E-02  0.2655E+02
   -0.700006    9.65437  0.0000E+00  0.2677E-04  0.2122E-06  0.8890E-03  0.1867E-02 -0.1043E+03
   -0.735007    9.66125  0.0000E+00  0.2601E-04  0.1915E-06  0.8972E-03  0.1617E-02 -0.2054E+03
   -0.770009    9.66803  0.0000E+00  0.2536E-04  0.1776E-06  0.9544E-03  0.1382E-02  0.8837E+04
   -0.805010    9.67463  0.0000E+00  0.2479E-04  0.1693E-06  0.9635E-03  0.1207E-02  0.3481E+06
   -0.840012    9.68119  0.0000E+00  0.2422E-04  0.1643E-06  0.9190E-03  0.1059E-02  0.9563E+03
   -0.875013    9.68822  0.0000E+00  0.2360E-04  0.1619E-06  0.9130E-03  0.9089E-03  0.5403E+02
   -0.910014    9.69539  0.0000E+00  0.2300E-04  0.1632E-06  0.8976E-03  0.7872E-03  0.2634E+02
   -0.945015    9.70287  0.0000E+00  0.2242E-04  0.1684E-06  0.8713E-03  0.6839E-03  0.3351E+02
   -0.980016    9.71085  0.0000E+00  0.2182E-04  0.1789E-06  0.8453E-03  0.5950E-03  0.2678E+02
   -1.015017    9.71959  0.0000E+00  0.2120E-04  0.1975E-06  0.8030E-03  0.5169E-03 -0.1408E+03
   -1.050018    9.73004  0.0000E+00  0.2051E-04  0.2280E-06  0.7791E-03  0.4495E-03 -0.2642E+04
   -1.085018    9.74280  0.0000E+00  0.1971E-04  0.2811E-06  0.7403E-03  0.3914E-03 -0.1572E+05
   -1.120019    9.76178  0.0000E+00  0.1879E-04  0.3634E-06  0.6861E-03  0.3363E-03  0.8520E+04
   -1.155019    9.78143  0.0000E+00  0.1783E-04  0.5132E-06  0.6069E-03  0.2868E-03  0.5271E+05
   -1.190019    9.81512  0.0000E+00  0.1682E-04  0.7707E-06  0.5831E-03  0.2292E-03  0.4129E+05
   -1.225018    9.84117  0.0000E+00  0.1599E-04  0.1165E-05  0.5063E-03  0.1799E-03  0.7621E+07
   -1.260018    9.89401  0.0000E+00  0.1495E-04  0.2915E-05  0.4482E-03  0.1328E-03 -0.1318E+09
   -1.295017   10.13262  0.0000E+00  0.1388E-04  0.4622E-05  0.4292E-03  0.9396E-04  0.2090E+08
   -1.330015    9.96183  0.0000E+00  0.1204E-04  0.1296E-04  0.2542E-03  0.8180E-04 -0.2797E+10
   -1.365014   10.64901  0.0000E+00  0.9596E-05  0.1940E-04  0.3127E-03  0.4813E-04 -0.1092E+08
   -1.400012   10.31669  0.0000E+00  0.0000E+00  0.0000E+00  0.0000E+00  0.1048E-03  0.0000E+00
