 1 - depth, m
 2 - temperature, C
 3 - salinity, kg/kg
 4 - turbulent kinetic energy, m**2/s**2
 5 - dissipation rate, m**2/s**3
 6 - kinematic heat conductance, m**2/s
 7 - modulus of horizontal velocity, m/s
 8 - Richardson number, n/d
   -0.000000   11.08857  0.0000E+00  0.2588E-03  0.1509E-02  0.7207E-04  0.1635E+00 -0.1186E+00
   -0.034998   11.33049  0.0000E+00  0.1439E-03  0.9722E-03  0.1080E-03  0.5219E-01 -0.3274E+01
   -0.069996   11.39165  0.0000E+00  0.1042E-03  0.7406E-03  0.1390E-03  0.3353E-01  0.6352E-01
   -0.104994   11.42578  0.0000E+00  0.8506E-04  0.5542E-03  0.1567E-03  0.2681E-01 -0.9996E-01
   -0.139993   11.44764  0.0000E+00  0.7165E-04  0.3924E-03  0.1753E-03  0.2240E-01 -0.4165E-01
   -0.174992   11.46322  0.0000E+00  0.6153E-04  0.2546E-03  0.1970E-03  0.1903E-01  0.1263E+02
   -0.209991   11.47648  0.0000E+00  0.5364E-04  0.1464E-03  0.2358E-03  0.1630E-01  0.1813E+03
   -0.244990   11.48741  0.0000E+00  0.4748E-04  0.7177E-04  0.2884E-03  0.1405E-01  0.4741E+02
   -0.279990   11.49701  0.0000E+00  0.4280E-04  0.2991E-04  0.3675E-03  0.1207E-01  0.1802E+03
   -0.314990   11.50499  0.0000E+00  0.3917E-04  0.1105E-04  0.4734E-03  0.1026E-01  0.5288E+03
   -0.349990   11.51128  0.0000E+00  0.3647E-04  0.3755E-05  0.5434E-03  0.8840E-02  0.5828E+03
   -0.384990   11.51649  0.0000E+00  0.3448E-04  0.1364E-05  0.5846E-03  0.7609E-02  0.3275E+03
   -0.419990   11.52103  0.0000E+00  0.3302E-04  0.6605E-06  0.6234E-03  0.6515E-02  0.1693E+03
   -0.454991   11.52550  0.0000E+00  0.3196E-04  0.4475E-06  0.6587E-03  0.5510E-02  0.1241E+03
   -0.489991   11.52939  0.0000E+00  0.3114E-04  0.3604E-06  0.6673E-03  0.4567E-02  0.3054E+03
   -0.524992   11.53408  0.0000E+00  0.3039E-04  0.3120E-06  0.7250E-03  0.3615E-02  0.4113E+01
   -0.559993   11.53816  0.0000E+00  0.2973E-04  0.2742E-06  0.7748E-03  0.2892E-02 -0.1013E+02
   -0.594994   11.54318  0.0000E+00  0.2904E-04  0.2384E-06  0.8133E-03  0.2358E-02  0.1674E+01
   -0.629995   11.54932  0.0000E+00  0.2841E-04  0.2109E-06  0.8897E-03  0.2027E-02  0.1145E+03
   -0.664996   11.55516  0.0000E+00  0.2790E-04  0.1917E-06  0.9042E-03  0.1753E-02  0.1307E+03
   -0.699997   11.56086  0.0000E+00  0.2745E-04  0.1783E-06  0.9375E-03  0.1499E-02  0.2446E+01
   -0.734998   11.56643  0.0000E+00  0.2701E-04  0.1697E-06  0.9646E-03  0.1277E-02 -0.6271E+01
   -0.769999   11.57188  0.0000E+00  0.2658E-04  0.1650E-06  0.9780E-03  0.1087E-02  0.3415E+02
   -0.805000   11.57741  0.0000E+00  0.2619E-04  0.1638E-06  0.1128E-02  0.9253E-03  0.5830E+01
   -0.840001   11.58238  0.0000E+00  0.2582E-04  0.1655E-06  0.1075E-02  0.8191E-03  0.9059E+01
   -0.875001   11.58773  0.0000E+00  0.2542E-04  0.1698E-06  0.1020E-02  0.7327E-03  0.3647E+01
   -0.910002   11.59334  0.0000E+00  0.2494E-04  0.1784E-06  0.1009E-02  0.6442E-03  0.2828E+01
   -0.945003   11.59937  0.0000E+00  0.2444E-04  0.1927E-06  0.9826E-03  0.5708E-03  0.3278E+01
   -0.980003   11.60571  0.0000E+00  0.2390E-04  0.2155E-06  0.9849E-03  0.5071E-03  0.7477E+01
   -1.015004   11.61288  0.0000E+00  0.2329E-04  0.2519E-06  0.9192E-03  0.4524E-03  0.2042E+03
   -1.050004   11.62141  0.0000E+00  0.2259E-04  0.3144E-06  0.8714E-03  0.4027E-03  0.1514E+03
   -1.085004   11.63268  0.0000E+00  0.2176E-04  0.4004E-06  0.8248E-03  0.3553E-03  0.3916E+03
   -1.120004   11.64916  0.0000E+00  0.2081E-04  0.5105E-06  0.7828E-03  0.3093E-03  0.6017E+05
   -1.155003   11.66096  0.0000E+00  0.1978E-04  0.7165E-06  0.6951E-03  0.2684E-03  0.3385E+05
   -1.190003   11.69487  0.0000E+00  0.1873E-04  0.1026E-05  0.6963E-03  0.2166E-03  0.8772E+05
   -1.225002   11.70892  0.0000E+00  0.1781E-04  0.1509E-05  0.5631E-03  0.1725E-03 -0.3940E+05
   -1.260001   11.76888  0.0000E+00  0.1665E-04  0.3864E-05  0.5245E-03  0.1264E-03  0.4065E+08
   -1.294999   11.94425  0.0000E+00  0.1552E-04  0.5785E-05  0.4879E-03  0.9158E-04  0.2182E+08
   -1.329998   11.82096  0.0000E+00  0.1349E-04  0.1697E-04  0.2877E-03  0.7947E-04 -0.1796E+11
   -1.364996   12.39463  0.0000E+00  0.1075E-04  0.2452E-04  0.3403E-03  0.4828E-04 -0.1904E+06
   -1.399993   12.12338  0.0000E+00  0.0000E+00  0.0000E+00  0.0000E+00  0.1009E-03  0.0000E+00
