 1 - depth, m
 2 - temperature, C
 3 - salinity, kg/kg
 4 - turbulent kinetic energy, m**2/s**2
 5 - dissipation rate, m**2/s**3
 6 - kinematic heat conductance, m**2/s
 7 - modulus of horizontal velocity, m/s
 8 - Richardson number, n/d
   -0.000000    3.79124  0.0000E+00  0.4782E-03  0.1756E-02  0.8376E-04  0.2497E+00  0.8707E-01
   -0.034998    4.10272  0.0000E+00  0.2532E-03  0.6941E-03  0.1228E-03  0.7959E-01  0.2306E-02
   -0.069996    4.19391  0.0000E+00  0.1712E-03  0.3195E-03  0.1673E-03  0.4776E-01 -0.3287E-02
   -0.104994    4.24554  0.0000E+00  0.1362E-03  0.2233E-03  0.1756E-03  0.3698E-01  0.7754E-01
   -0.139993    4.27739  0.0000E+00  0.1131E-03  0.1643E-03  0.1799E-03  0.3064E-01  0.2662E+00
   -0.174991    4.30358  0.0000E+00  0.9600E-04  0.1216E-03  0.1859E-03  0.2620E-01  0.6425E+01
   -0.209991    4.32782  0.0000E+00  0.8261E-04  0.9035E-04  0.1915E-03  0.2250E-01  0.2341E+00
   -0.244990    4.35122  0.0000E+00  0.7185E-04  0.6696E-04  0.1986E-03  0.1946E-01  0.1744E+00
   -0.279990    4.37510  0.0000E+00  0.6376E-04  0.4955E-04  0.1969E-03  0.1674E-01  0.4620E+00
   -0.314989    4.40487  0.0000E+00  0.5587E-04  0.3648E-04  0.2115E-03  0.1353E-01  0.1035E+01
   -0.349989    4.43944  0.0000E+00  0.4938E-04  0.2662E-04  0.2185E-03  0.1142E-01  0.2639E+02
   -0.384990    4.50546  0.0000E+00  0.4406E-04  0.1924E-04  0.2284E-03  0.9653E-02  0.4733E+01
   -0.419990    4.69931  0.0000E+00  0.3986E-04  0.1382E-04  0.2400E-03  0.8121E-02  0.2328E+03
   -0.454990    4.94520  0.0000E+00  0.3652E-04  0.9987E-05  0.2705E-03  0.6687E-02  0.8028E+02
   -0.489991    5.05145  0.0000E+00  0.3379E-04  0.7407E-05  0.3003E-03  0.5427E-02  0.1016E+03
   -0.524992    5.11056  0.0000E+00  0.3144E-04  0.5608E-05  0.3716E-03  0.4409E-02  0.9447E+02
   -0.559992    5.15341  0.0000E+00  0.2924E-04  0.4204E-05  0.4637E-03  0.3747E-02  0.6829E+04
   -0.594993    5.19017  0.0000E+00  0.2682E-04  0.2877E-05  0.5291E-03  0.3305E-02  0.3174E+05
   -0.629994    5.22331  0.0000E+00  0.2469E-04  0.1942E-05  0.5705E-03  0.3115E-02  0.2261E+04
   -0.664995    5.24700  0.0000E+00  0.2299E-04  0.1360E-05  0.5916E-03  0.2844E-02  0.1539E+04
   -0.699996    5.26749  0.0000E+00  0.2154E-04  0.9605E-06  0.6000E-03  0.2563E-02  0.2905E+05
   -0.734997    5.28475  0.0000E+00  0.2023E-04  0.6743E-06  0.6186E-03  0.2284E-02  0.8582E+03
   -0.769998    5.30193  0.0000E+00  0.1909E-04  0.4687E-06  0.6287E-03  0.2026E-02  0.1377E+04
   -0.804999    5.31709  0.0000E+00  0.1805E-04  0.3302E-06  0.6412E-03  0.1791E-02  0.4114E+03
   -0.840000    5.33255  0.0000E+00  0.1712E-04  0.2405E-06  0.6508E-03  0.1573E-02  0.4658E+03
   -0.875001    5.34671  0.0000E+00  0.1632E-04  0.1851E-06  0.6619E-03  0.1374E-02  0.6328E+03
   -0.910001    5.36122  0.0000E+00  0.1561E-04  0.1515E-06  0.6618E-03  0.1209E-02  0.6255E+03
   -0.945002    5.37544  0.0000E+00  0.1495E-04  0.1308E-06  0.6475E-03  0.1061E-02  0.7113E+03
   -0.980002    5.38994  0.0000E+00  0.1433E-04  0.1180E-06  0.6381E-03  0.9119E-03  0.1173E+04
   -1.015003    5.40442  0.0000E+00  0.1379E-04  0.1113E-06  0.6226E-03  0.7865E-03  0.9606E+03
   -1.050003    5.41969  0.0000E+00  0.1326E-04  0.1092E-06  0.5953E-03  0.6769E-03  0.1333E+04
   -1.085003    5.43594  0.0000E+00  0.1272E-04  0.1122E-06  0.5688E-03  0.5784E-03  0.2180E+04
   -1.120003    5.45461  0.0000E+00  0.1218E-04  0.1237E-06  0.5383E-03  0.4932E-03  0.2344E+04
   -1.155002    5.47572  0.0000E+00  0.1163E-04  0.1511E-06  0.5057E-03  0.4163E-03  0.3923E+04
   -1.190002    5.50039  0.0000E+00  0.1109E-04  0.2041E-06  0.4545E-03  0.3419E-03  0.1845E+05
   -1.225001    5.53187  0.0000E+00  0.1059E-04  0.2953E-06  0.4151E-03  0.2664E-03  0.3050E+06
   -1.260000    5.55869  0.0000E+00  0.1002E-04  0.5448E-06  0.3267E-03  0.2045E-03 -0.1394E+09
   -1.294998    5.70896  0.0000E+00  0.9290E-05  0.1118E-05  0.2987E-03  0.1465E-03  0.4012E+08
   -1.329997    5.68236  0.0000E+00  0.8130E-05  0.2759E-05  0.1701E-03  0.1255E-03 -0.8521E+08
   -1.364995    6.10602  0.0000E+00  0.5969E-05  0.4657E-05  0.1184E-03  0.8499E-04 -0.3762E+10
   -1.399992    6.19316  0.0000E+00  0.0000E+00  0.0000E+00  0.0000E+00  0.1489E-03  0.0000E+00
