 1 - depth, m
 2 - temperature, C
 3 - salinity, kg/kg
 4 - turbulent kinetic energy, m**2/s**2
 5 - dissipation rate, m**2/s**3
 6 - kinematic heat conductance, m**2/s
 7 - modulus of horizontal velocity, m/s
 8 - Richardson number, n/d
   -0.000000    9.49125  0.0000E+00  0.4244E-03  0.1660E-02  0.7586E-04  0.2291E+00 -0.5396E-01
   -0.034998    9.75122  0.0000E+00  0.2301E-03  0.8555E-03  0.1213E-03  0.7040E-01 -0.3974E+00
   -0.069997    9.83343  0.0000E+00  0.1565E-03  0.2928E-03  0.1940E-03  0.4103E-01  0.2926E+01
   -0.104995    9.86904  0.0000E+00  0.1232E-03  0.1722E-03  0.2269E-03  0.3155E-01  0.4721E+01
   -0.139995    9.88786  0.0000E+00  0.1030E-03  0.1075E-03  0.2534E-03  0.2611E-01  0.1996E+01
   -0.174994    9.90147  0.0000E+00  0.8814E-04  0.6645E-04  0.2775E-03  0.2210E-01  0.3098E+01
   -0.209994    9.91160  0.0000E+00  0.7707E-04  0.4093E-04  0.3056E-03  0.1903E-01  0.1069E+02
   -0.244993    9.92049  0.0000E+00  0.6865E-04  0.2465E-04  0.3338E-03  0.1653E-01  0.3577E+01
   -0.279994    9.92777  0.0000E+00  0.6201E-04  0.1473E-04  0.3624E-03  0.1433E-01  0.2321E+02
   -0.314994    9.93706  0.0000E+00  0.5656E-04  0.8996E-05  0.4309E-03  0.1200E-01  0.1037E+03
   -0.349994    9.94378  0.0000E+00  0.5229E-04  0.5630E-05  0.4876E-03  0.1042E-01  0.3095E+02
   -0.384995    9.94954  0.0000E+00  0.4888E-04  0.3604E-05  0.5601E-03  0.9141E-02  0.3081E+03
   -0.419996    9.95488  0.0000E+00  0.4620E-04  0.2428E-05  0.6402E-03  0.8060E-02  0.1768E+03
   -0.454997    9.95938  0.0000E+00  0.4407E-04  0.1700E-05  0.7008E-03  0.7034E-02  0.2203E+03
   -0.489998    9.96412  0.0000E+00  0.4237E-04  0.1261E-05  0.7578E-03  0.6026E-02  0.1890E+03
   -0.524999    9.96782  0.0000E+00  0.4081E-04  0.9742E-06  0.8311E-03  0.5098E-02  0.9088E+03
   -0.560000    9.97254  0.0000E+00  0.3912E-04  0.7524E-06  0.8890E-03  0.4335E-02  0.7578E+02
   -0.595002    9.97714  0.0000E+00  0.3703E-04  0.5677E-06  0.9771E-03  0.3728E-02  0.6188E+02
   -0.630003    9.98389  0.0000E+00  0.3512E-04  0.4459E-06  0.1035E-02  0.3369E-02 -0.2306E+03
   -0.665005    9.98960  0.0000E+00  0.3356E-04  0.3691E-06  0.1078E-02  0.3020E-02  0.3510E+02
   -0.700006    9.99548  0.0000E+00  0.3231E-04  0.3207E-06  0.1099E-02  0.2711E-02  0.5520E+02
   -0.735008   10.00096  0.0000E+00  0.3116E-04  0.2842E-06  0.1070E-02  0.2433E-02 -0.1116E+04
   -0.770009   10.00688  0.0000E+00  0.3012E-04  0.2553E-06  0.1123E-02  0.2135E-02  0.4023E+04
   -0.805011   10.01256  0.0000E+00  0.2922E-04  0.2344E-06  0.1112E-02  0.1913E-02  0.3786E+03
   -0.840012   10.01827  0.0000E+00  0.2828E-04  0.2179E-06  0.1010E-02  0.1708E-02  0.1987E+02
   -0.875013   10.02490  0.0000E+00  0.2721E-04  0.2049E-06  0.1021E-02  0.1461E-02  0.2125E+02
   -0.910014   10.03149  0.0000E+00  0.2620E-04  0.1978E-06  0.9745E-03  0.1262E-02  0.4224E+03
   -0.945015   10.03838  0.0000E+00  0.2523E-04  0.1968E-06  0.9490E-03  0.1088E-02  0.9163E+01
   -0.980016   10.04610  0.0000E+00  0.2432E-04  0.2026E-06  0.9191E-03  0.9290E-03  0.1469E+06
   -1.015017   10.05335  0.0000E+00  0.2347E-04  0.2188E-06  0.8554E-03  0.8032E-03  0.4520E+03
   -1.050018   10.06341  0.0000E+00  0.2258E-04  0.2474E-06  0.8131E-03  0.6930E-03  0.1062E+05
   -1.085019   10.07313  0.0000E+00  0.2157E-04  0.2981E-06  0.7555E-03  0.5909E-03  0.1781E+05
   -1.120019   10.09051  0.0000E+00  0.2049E-04  0.3815E-06  0.7208E-03  0.5035E-03  0.2454E+06
   -1.155019   10.10401  0.0000E+00  0.1933E-04  0.5769E-06  0.6438E-03  0.4234E-03  0.6365E+04
   -1.190019   10.13729  0.0000E+00  0.1813E-04  0.8547E-06  0.5992E-03  0.3336E-03  0.4079E+06
   -1.225018   10.15608  0.0000E+00  0.1711E-04  0.1324E-05  0.5274E-03  0.2519E-03 -0.6759E+07
   -1.260018   10.20896  0.0000E+00  0.1589E-04  0.3114E-05  0.4556E-03  0.1832E-03  0.8910E+09
   -1.295017   10.41354  0.0000E+00  0.1471E-04  0.5122E-05  0.4379E-03  0.1245E-03  0.2325E+08
   -1.330016   10.28439  0.0000E+00  0.1272E-04  0.1377E-04  0.2780E-03  0.1099E-03 -0.6640E+09
   -1.365014   10.89616  0.0000E+00  0.1008E-04  0.2063E-04  0.3161E-03  0.6466E-04 -0.3697E+06
   -1.400012   10.61428  0.0000E+00  0.0000E+00  0.0000E+00  0.0000E+00  0.1417E-03  0.0000E+00
