 1 - depth, m
 2 - temperature, C
 3 - salinity, kg/kg
 4 - turbulent kinetic energy, m**2/s**2
 5 - dissipation rate, m**2/s**3
 6 - kinematic heat conductance, m**2/s
 7 - modulus of horizontal velocity, m/s
 8 - Richardson number, n/d
   -0.000000    1.46894  0.0000E+00  0.2110E-02  0.2108E-01  0.1554E-03  0.7968E+00  0.6828E-01
   -0.035010    1.85930  0.0000E+00  0.1389E-02  0.1372E-01  0.4621E-03  0.2441E+00 -0.1005E-01
   -0.070021    2.00186  0.0000E+00  0.1399E-02  0.2201E-02  0.5406E-03  0.1396E+00  0.8778E+00
   -0.105032    2.08835  0.0000E+00  0.1170E-02  0.1592E-02  0.7702E-03  0.1028E+00 -0.3410E-01
   -0.140043    2.12519  0.0000E+00  0.9708E-03  0.1245E-02  0.7624E-03  0.8451E-01  0.3393E+00
   -0.175055    2.15120  0.0000E+00  0.8358E-03  0.9813E-03  0.7361E-03  0.7368E-01  0.1654E+01
   -0.210066    2.16757  0.0000E+00  0.7370E-03  0.7876E-03  0.7512E-03  0.6527E-01 -0.4353E-03
   -0.245078    2.17996  0.0000E+00  0.6533E-03  0.6447E-03  0.7522E-03  0.5904E-01 -0.4152E-01
   -0.280091    2.19243  0.0000E+00  0.5310E-03  0.5144E-03  0.7021E-03  0.5349E-01 -0.7043E+00
   -0.315103    2.21222  0.0000E+00  0.4477E-03  0.4142E-03  0.6811E-03  0.4590E-01  0.1674E-01
   -0.350116    2.22474  0.0000E+00  0.4078E-03  0.3286E-03  0.6890E-03  0.4127E-01  0.2023E+00
   -0.385128    2.23514  0.0000E+00  0.3757E-03  0.2600E-03  0.7014E-03  0.3777E-01  0.1495E+02
   -0.420141    2.24514  0.0000E+00  0.3475E-03  0.1979E-03  0.6858E-03  0.3490E-01 -0.9551E-01
   -0.455155    2.25506  0.0000E+00  0.3194E-03  0.1502E-03  0.6683E-03  0.3194E-01 -0.1765E-01
   -0.490168    2.26740  0.0000E+00  0.2827E-03  0.1154E-03  0.6529E-03  0.2857E-01 -0.3572E+03
   -0.525181    2.28505  0.0000E+00  0.2604E-03  0.8799E-04  0.6700E-03  0.2527E-01  0.1106E+04
   -0.560195    2.30436  0.0000E+00  0.2401E-03  0.6644E-04  0.6806E-03  0.2316E-01  0.5589E+05
   -0.595208    2.32418  0.0000E+00  0.2184E-03  0.4909E-04  0.6736E-03  0.2175E-01 -0.1642E+04
   -0.630222    2.34093  0.0000E+00  0.1967E-03  0.3603E-04  0.6510E-03  0.2157E-01  0.5374E+04
   -0.665235    2.36200  0.0000E+00  0.1795E-03  0.2545E-04  0.6393E-03  0.2060E-01  0.7616E+06
   -0.700249    2.38888  0.0000E+00  0.1643E-03  0.1843E-04  0.6247E-03  0.1943E-01  0.6243E+05
   -0.735262    2.41686  0.0000E+00  0.1514E-03  0.1377E-04  0.6102E-03  0.1829E-01  0.1457E+06
   -0.770276    2.44707  0.0000E+00  0.1398E-03  0.1036E-04  0.5982E-03  0.1716E-01  0.1008E+07
   -0.805289    2.48873  0.0000E+00  0.1291E-03  0.8100E-05  0.5809E-03  0.1608E-01  0.3321E+07
   -0.840303    2.53673  0.0000E+00  0.1198E-03  0.6565E-05  0.5755E-03  0.1505E-01  0.1052E+08
   -0.875316    2.59596  0.0000E+00  0.1113E-03  0.5414E-05  0.5573E-03  0.1400E-01  0.4926E+11
   -0.910330    2.65215  0.0000E+00  0.1035E-03  0.4637E-05  0.5439E-03  0.1307E-01  0.1225E+09
   -0.945343    2.71378  0.0000E+00  0.9601E-04  0.4080E-05  0.5201E-03  0.1202E-01  0.5313E+08
   -0.980356    2.79016  0.0000E+00  0.8936E-04  0.3748E-05  0.5037E-03  0.1102E-01  0.1272E+09
   -1.015369    2.89495  0.0000E+00  0.8319E-04  0.3607E-05  0.4822E-03  0.9960E-02  0.2946E+10
   -1.050382    3.03583  0.0000E+00  0.7741E-04  0.3637E-05  0.4579E-03  0.8983E-02  0.2311E+12
   -1.085395    3.19258  0.0000E+00  0.7198E-04  0.3884E-05  0.4436E-03  0.8101E-02  0.5039E+13
   -1.120407    3.35936  0.0000E+00  0.6674E-04  0.4371E-05  0.4150E-03  0.7333E-02  0.4741E+12
   -1.155419    3.53088  0.0000E+00  0.6193E-04  0.5192E-05  0.3917E-03  0.6512E-02 -0.2778E+13
   -1.190431    3.71966  0.0000E+00  0.5717E-04  0.6526E-05  0.3581E-03  0.5597E-02 -0.4665E+13
   -1.225443    3.93879  0.0000E+00  0.5283E-04  0.8819E-05  0.3393E-03  0.4620E-02 -0.3829E+13
   -1.260454    4.15615  0.0000E+00  0.4828E-04  0.1283E-04  0.3162E-03  0.3794E-02 -0.6386E+13
   -1.295466    4.37566  0.0000E+00  0.4243E-04  0.2202E-04  0.2976E-03  0.3116E-02 -0.1504E+14
   -1.330477    4.63075  0.0000E+00  0.3568E-04  0.4127E-04  0.1871E-03  0.2807E-02 -0.2546E+14
   -1.365487    4.90725  0.0000E+00  0.2544E-04  0.7280E-04  0.1119E-03  0.2167E-02 -0.2645E+15
   -1.400497    5.31005  0.0000E+00  0.0000E+00  0.0000E+00  0.0000E+00  0.3240E-02  0.0000E+00
