 1 - depth, m
 2 - temperature, C
 3 - salinity, kg/kg
 4 - turbulent kinetic energy, m**2/s**2
 5 - dissipation rate, m**2/s**3
 6 - kinematic heat conductance, m**2/s
 7 - modulus of horizontal velocity, m/s
 8 - Richardson number, n/d
   -0.000000    0.00371  0.0000E+00  0.5295E-03  0.1110E-02  0.9195E-04  0.3576E+00  0.1558E+00
   -0.034998    0.13270  0.0000E+00  0.3614E-03  0.4679E-03  0.1805E-03  0.1220E+00  0.2506E+00
   -0.069996    0.21890  0.0000E+00  0.2671E-03  0.1672E-03  0.2556E-03  0.7135E-01  0.2653E+00
   -0.104994    0.25589  0.0000E+00  0.2233E-03  0.9906E-04  0.2753E-03  0.5489E-01  0.7731E-01
   -0.139993    0.27841  0.0000E+00  0.1952E-03  0.6311E-04  0.2912E-03  0.4610E-01  0.1511E+00
   -0.174992    0.29475  0.0000E+00  0.1744E-03  0.4120E-04  0.3032E-03  0.4035E-01  0.4138E-01
   -0.209991    0.30778  0.0000E+00  0.1579E-03  0.2740E-04  0.3157E-03  0.3600E-01  0.5536E-01
   -0.244991    0.31937  0.0000E+00  0.1443E-03  0.1855E-04  0.3247E-03  0.3227E-01  0.5691E-01
   -0.279990    0.33031  0.0000E+00  0.1324E-03  0.1281E-04  0.3260E-03  0.2878E-01  0.6263E-01
   -0.314990    0.34103  0.0000E+00  0.1213E-03  0.9053E-05  0.3377E-03  0.2504E-01  0.1059E+00
   -0.349990    0.35193  0.0000E+00  0.1117E-03  0.6563E-05  0.3413E-03  0.2226E-01  0.3739E+00
   -0.384990    0.36355  0.0000E+00  0.1032E-03  0.4886E-05  0.3419E-03  0.1990E-01  0.1293E+03
   -0.419991    0.37590  0.0000E+00  0.9559E-04  0.3744E-05  0.3360E-03  0.1788E-01  0.3850E+01
   -0.454991    0.38910  0.0000E+00  0.8858E-04  0.2959E-05  0.3220E-03  0.1585E-01  0.5081E+01
   -0.489992    0.40314  0.0000E+00  0.8171E-04  0.2411E-05  0.3078E-03  0.1377E-01  0.1439E+03
   -0.524993    0.42018  0.0000E+00  0.7442E-04  0.1991E-05  0.3042E-03  0.1180E-01  0.7011E+05
   -0.559994    0.44516  0.0000E+00  0.6698E-04  0.1652E-05  0.2919E-03  0.1036E-01  0.2597E+08
   -0.594995    0.48376  0.0000E+00  0.5871E-04  0.1335E-05  0.2560E-03  0.9379E-02  0.2473E+12
   -0.629996    0.53578  0.0000E+00  0.5098E-04  0.1076E-05  0.2208E-03  0.8874E-02  0.3603E+10
   -0.664997    0.60680  0.0000E+00  0.4409E-04  0.8716E-06  0.1926E-03  0.8233E-02  0.5160E+11
   -0.699998    0.69524  0.0000E+00  0.3792E-04  0.7091E-06  0.1663E-03  0.7519E-02  0.1115E+10
   -0.734999    0.81534  0.0000E+00  0.3235E-04  0.5766E-06  0.1422E-03  0.6759E-02  0.4663E+10
   -0.770000    0.99251  0.0000E+00  0.2733E-04  0.4663E-06  0.1234E-03  0.5969E-02  0.6296E+10
   -0.805001    1.26528  0.0000E+00  0.2289E-04  0.3734E-06  0.1156E-03  0.5147E-02  0.2722E+10
   -0.840002    1.67218  0.0000E+00  0.1916E-04  0.2987E-06  0.1242E-03  0.4315E-02  0.1251E+11
   -0.875003    2.09810  0.0000E+00  0.1608E-04  0.2378E-06  0.1372E-03  0.3521E-02  0.1005E+11
   -0.910004    2.54454  0.0000E+00  0.1368E-04  0.1908E-06  0.1580E-03  0.2825E-02  0.9664E+09
   -0.945004    2.93332  0.0000E+00  0.1186E-04  0.1552E-06  0.1792E-03  0.2246E-02  0.2805E+10
   -0.980005    3.24726  0.0000E+00  0.1051E-04  0.1295E-06  0.2003E-03  0.1753E-02  0.4467E+09
   -1.015005    3.51289  0.0000E+00  0.9462E-05  0.1100E-06  0.2189E-03  0.1346E-02  0.9054E+09
   -1.050006    3.73581  0.0000E+00  0.8621E-05  0.9418E-07  0.2341E-03  0.1011E-02  0.8658E+09
   -1.085006    3.93389  0.0000E+00  0.8069E-05  0.8385E-07  0.2465E-03  0.7596E-03  0.1563E+10
   -1.120006    4.08366  0.0000E+00  0.7760E-05  0.7854E-07  0.2540E-03  0.6020E-03  0.2032E+11
   -1.155005    4.17616  0.0000E+00  0.7552E-05  0.7655E-07  0.2546E-03  0.4981E-03  0.6558E+12
   -1.190005    4.25178  0.0000E+00  0.7402E-05  0.7781E-07  0.2465E-03  0.4127E-03  0.6862E+12
   -1.225004    4.32410  0.0000E+00  0.7281E-05  0.8347E-07  0.2350E-03  0.3393E-03  0.2555E+13
   -1.260003    4.40016  0.0000E+00  0.7152E-05  0.9875E-07  0.2015E-03  0.2774E-03  0.2738E+13
   -1.295002    4.48855  0.0000E+00  0.6829E-05  0.1408E-06  0.1669E-03  0.2268E-03 -0.9657E+13
   -1.330000    4.63362  0.0000E+00  0.6099E-05  0.2459E-06  0.1039E-03  0.1837E-03 -0.2116E+14
   -1.364998    4.85124  0.0000E+00  0.4215E-05  0.5946E-06  0.3533E-04  0.1425E-03 -0.1762E+15
   -1.399996    5.25070  0.0000E+00  0.0000E+00  0.0000E+00  0.0000E+00  0.1676E-03  0.0000E+00
