 1 - depth, m
 2 - temperature, C
 3 - salinity, kg/kg
 4 - turbulent kinetic energy, m**2/s**2
 5 - dissipation rate, m**2/s**3
 6 - kinematic heat conductance, m**2/s
 7 - modulus of horizontal velocity, m/s
 8 - Richardson number, n/d
   -0.000000   17.74662  0.0000E+00  0.4398E-03  0.9911E-03  0.8522E-04  0.2465E+00  0.1095E+00
   -0.034998   17.95601  0.0000E+00  0.2249E-03  0.3495E-03  0.1297E-03  0.7593E-01  0.5761E+01
   -0.069996   18.03712  0.0000E+00  0.1501E-03  0.1129E-03  0.1888E-03  0.4278E-01  0.1028E+01
   -0.104994   18.07192  0.0000E+00  0.1181E-03  0.6421E-04  0.2034E-03  0.3238E-01  0.2885E+01
   -0.139993   18.08899  0.0000E+00  0.9756E-04  0.3926E-04  0.2133E-03  0.2647E-01  0.5337E+00
   -0.174992   18.10143  0.0000E+00  0.8262E-04  0.2389E-04  0.2333E-03  0.2224E-01  0.1317E+02
   -0.209991   18.11004  0.0000E+00  0.7148E-04  0.1472E-04  0.2680E-03  0.1901E-01  0.1642E+02
   -0.244990   18.11759  0.0000E+00  0.6323E-04  0.9187E-05  0.3106E-03  0.1639E-01  0.5240E+02
   -0.279990   18.12339  0.0000E+00  0.5693E-04  0.5775E-05  0.3540E-03  0.1413E-01  0.3457E+03
   -0.314990   18.13101  0.0000E+00  0.5174E-04  0.3728E-05  0.4475E-03  0.1180E-01  0.7672E+03
   -0.349990   18.13520  0.0000E+00  0.4763E-04  0.2468E-05  0.5173E-03  0.1021E-01  0.5446E+03
   -0.384990   18.13911  0.0000E+00  0.4439E-04  0.1684E-05  0.5827E-03  0.8873E-02  0.3867E+03
   -0.419991   18.14219  0.0000E+00  0.4187E-04  0.1203E-05  0.6265E-03  0.7711E-02  0.7616E+03
   -0.454991   18.14514  0.0000E+00  0.3993E-04  0.8959E-06  0.6660E-03  0.6597E-02  0.7522E+03
   -0.489992   18.14782  0.0000E+00  0.3838E-04  0.7106E-06  0.6941E-03  0.5524E-02  0.2930E+03
   -0.524992   18.15039  0.0000E+00  0.3694E-04  0.5836E-06  0.7416E-03  0.4515E-02  0.3779E+02
   -0.559993   18.15309  0.0000E+00  0.3552E-04  0.4875E-06  0.7990E-03  0.3718E-02 -0.1363E+02
   -0.594994   18.15622  0.0000E+00  0.3394E-04  0.4035E-06  0.8616E-03  0.3139E-02 -0.1740E+03
   -0.629995   18.15974  0.0000E+00  0.3249E-04  0.3402E-06  0.8866E-03  0.2791E-02 -0.9329E+03
   -0.664996   18.16309  0.0000E+00  0.3128E-04  0.2943E-06  0.9378E-03  0.2464E-02 -0.9543E+02
   -0.699997   18.16627  0.0000E+00  0.3026E-04  0.2605E-06  0.9510E-03  0.2181E-02 -0.2636E+03
   -0.734998   18.16956  0.0000E+00  0.2930E-04  0.2340E-06  0.9338E-03  0.1907E-02 -0.6731E+03
   -0.769999   18.17270  0.0000E+00  0.2839E-04  0.2134E-06  0.9500E-03  0.1648E-02  0.2220E+02
   -0.805000   18.17583  0.0000E+00  0.2752E-04  0.1986E-06  0.9535E-03  0.1424E-02  0.8057E+01
   -0.840001   18.17895  0.0000E+00  0.2668E-04  0.1885E-06  0.9529E-03  0.1225E-02  0.1089E+02
   -0.875002   18.18215  0.0000E+00  0.2585E-04  0.1827E-06  0.9422E-03  0.1054E-02  0.1860E+02
   -0.910003   18.18545  0.0000E+00  0.2511E-04  0.1815E-06  0.9883E-03  0.9065E-03  0.1099E+02
   -0.945003   18.18870  0.0000E+00  0.2444E-04  0.1847E-06  0.9329E-03  0.7937E-03  0.1278E+04
   -0.980004   18.19222  0.0000E+00  0.2377E-04  0.1929E-06  0.9124E-03  0.7005E-03 -0.7486E+03
   -1.015004   18.19593  0.0000E+00  0.2303E-04  0.2098E-06  0.8445E-03  0.6111E-03  0.2977E+03
   -1.050005   18.20029  0.0000E+00  0.2222E-04  0.2399E-06  0.8169E-03  0.5325E-03  0.3231E+04
   -1.085005   18.20590  0.0000E+00  0.2129E-04  0.2976E-06  0.7853E-03  0.4610E-03  0.1714E+04
   -1.120005   18.21334  0.0000E+00  0.2025E-04  0.3820E-06  0.7374E-03  0.3969E-03  0.5554E+04
   -1.155004   18.22173  0.0000E+00  0.1916E-04  0.5485E-06  0.6625E-03  0.3376E-03  0.1336E+05
   -1.190004   18.23567  0.0000E+00  0.1802E-04  0.8051E-06  0.6295E-03  0.2706E-03  0.5615E+05
   -1.225003   18.24822  0.0000E+00  0.1705E-04  0.1240E-05  0.5335E-03  0.2092E-03  0.1961E+06
   -1.260002   18.27199  0.0000E+00  0.1583E-04  0.2761E-05  0.4878E-03  0.1555E-03 -0.2099E+09
   -1.295000   18.36229  0.0000E+00  0.1466E-04  0.4505E-05  0.4602E-03  0.1104E-03  0.1507E+08
   -1.329999   18.30518  0.0000E+00  0.1268E-04  0.1391E-04  0.2726E-03  0.9533E-04 -0.2946E+09
   -1.364997   18.58786  0.0000E+00  0.1003E-04  0.2051E-04  0.3105E-03  0.5760E-04 -0.1336E+07
   -1.399995   18.46644  0.0000E+00  0.0000E+00  0.0000E+00  0.0000E+00  0.1252E-03  0.0000E+00
