 1 - depth, m
 2 - temperature, C
 3 - salinity, kg/kg
 4 - turbulent kinetic energy, m**2/s**2
 5 - dissipation rate, m**2/s**3
 6 - kinematic heat conductance, m**2/s
 7 - modulus of horizontal velocity, m/s
 8 - Richardson number, n/d
   -0.000000    8.06466  0.0000E+00  0.7279E-03  0.5184E-01  0.1236E-03  0.3301E+00 -0.9904E-02
   -0.034998    8.44922  0.0000E+00  0.4302E-03  0.4557E-01  0.1776E-03  0.1034E+00  0.3600E+00
   -0.069996    8.57880  0.0000E+00  0.2803E-03  0.4150E-01  0.2335E-03  0.5893E-01  0.4356E+00
   -0.104994    8.63351  0.0000E+00  0.2272E-03  0.3653E-01  0.2395E-03  0.4412E-01  0.4236E+00
   -0.139993    8.66200  0.0000E+00  0.1928E-03  0.2975E-01  0.2489E-03  0.3595E-01  0.2696E+00
   -0.174992    8.68055  0.0000E+00  0.1634E-03  0.2168E-01  0.2594E-03  0.3016E-01 -0.4157E-01
   -0.209991    8.69604  0.0000E+00  0.1386E-03  0.1356E-01  0.2786E-03  0.2590E-01 -0.4108E+00
   -0.244991    8.70764  0.0000E+00  0.1173E-03  0.6999E-02  0.2997E-03  0.2256E-01  0.1099E+01
   -0.279990    8.71774  0.0000E+00  0.1002E-03  0.2887E-02  0.3184E-03  0.1971E-01  0.1317E+02
   -0.314990    8.72933  0.0000E+00  0.8690E-04  0.9408E-03  0.3793E-03  0.1669E-01  0.1644E+03
   -0.349990    8.73744  0.0000E+00  0.7757E-04  0.2453E-03  0.4250E-03  0.1464E-01  0.7531E+02
   -0.384991    8.74486  0.0000E+00  0.7100E-04  0.5601E-04  0.4841E-03  0.1295E-01  0.1004E+03
   -0.419991    8.75159  0.0000E+00  0.6611E-04  0.1381E-04  0.5381E-03  0.1153E-01  0.5009E+03
   -0.454992    8.75793  0.0000E+00  0.6223E-04  0.4754E-05  0.5921E-03  0.1016E-01  0.1921E+03
   -0.489992    8.76399  0.0000E+00  0.5908E-04  0.2557E-05  0.6692E-03  0.8822E-02  0.3665E+03
   -0.524993    8.76933  0.0000E+00  0.5618E-04  0.1779E-05  0.7506E-03  0.7585E-02 -0.3130E+02
   -0.559994    8.77515  0.0000E+00  0.5317E-04  0.1350E-05  0.8388E-03  0.6607E-02 -0.3114E+03
   -0.594995    8.78141  0.0000E+00  0.4961E-04  0.1041E-05  0.9029E-03  0.5834E-02  0.2952E+03
   -0.629996    8.78893  0.0000E+00  0.4626E-04  0.8156E-06  0.9249E-03  0.5376E-02  0.1525E+03
   -0.664997    8.79657  0.0000E+00  0.4339E-04  0.6560E-06  0.9703E-03  0.4856E-02  0.2395E+03
   -0.699998    8.80305  0.0000E+00  0.4112E-04  0.5496E-06  0.1124E-02  0.4372E-02  0.3320E+04
   -0.734999    8.80949  0.0000E+00  0.3926E-04  0.4719E-06  0.1129E-02  0.4009E-02  0.2493E+03
   -0.770000    8.81577  0.0000E+00  0.3760E-04  0.4141E-06  0.1048E-02  0.3649E-02  0.2465E+03
   -0.805001    8.82265  0.0000E+00  0.3601E-04  0.3697E-06  0.1001E-02  0.3299E-02 -0.2688E+03
   -0.840002    8.83008  0.0000E+00  0.3439E-04  0.3317E-06  0.9778E-03  0.2944E-02  0.3732E+02
   -0.875003    8.83724  0.0000E+00  0.3278E-04  0.3004E-06  0.9715E-03  0.2593E-02  0.1844E+02
   -0.910004    8.84490  0.0000E+00  0.3123E-04  0.2765E-06  0.9273E-03  0.2286E-02  0.9873E+01
   -0.945005    8.85267  0.0000E+00  0.2974E-04  0.2594E-06  0.9379E-03  0.1983E-02  0.1463E+02
   -0.980005    8.86054  0.0000E+00  0.2835E-04  0.2500E-06  0.8881E-03  0.1727E-02 -0.4772E+04
   -1.015006    8.86889  0.0000E+00  0.2700E-04  0.2488E-06  0.8439E-03  0.1495E-02  0.3152E+02
   -1.050006    8.87805  0.0000E+00  0.2567E-04  0.2588E-06  0.8002E-03  0.1279E-02  0.4924E+04
   -1.085006    8.88899  0.0000E+00  0.2431E-04  0.2848E-06  0.7538E-03  0.1104E-02  0.4504E+03
   -1.120006    8.90350  0.0000E+00  0.2284E-04  0.3416E-06  0.6986E-03  0.9399E-03 -0.8705E+03
   -1.155006    8.92044  0.0000E+00  0.2134E-04  0.4598E-06  0.6601E-03  0.7888E-03  0.1248E+06
   -1.190005    8.94717  0.0000E+00  0.1980E-04  0.6828E-06  0.5708E-03  0.6421E-03  0.2140E+05
   -1.225004    8.97819  0.0000E+00  0.1848E-04  0.1069E-05  0.5117E-03  0.4907E-03  0.1224E+06
   -1.260003    9.01550  0.0000E+00  0.1697E-04  0.2212E-05  0.4409E-03  0.3653E-03 -0.3881E+09
   -1.295002    9.21835  0.0000E+00  0.1538E-04  0.4262E-05  0.4339E-03  0.2485E-03  0.6833E+09
   -1.330000    9.10748  0.0000E+00  0.1311E-04  0.1191E-04  0.2606E-03  0.2102E-03 -0.2815E+09
   -1.364999    9.70505  0.0000E+00  0.1023E-04  0.1836E-04  0.2800E-03  0.1275E-03 -0.3513E+06
   -1.399996    9.47370  0.0000E+00  0.0000E+00  0.0000E+00  0.0000E+00  0.2556E-03  0.0000E+00
