 1 - depth, m
 2 - temperature, C
 3 - salinity, kg/kg
 4 - turbulent kinetic energy, m**2/s**2
 5 - dissipation rate, m**2/s**3
 6 - kinematic heat conductance, m**2/s
 7 - modulus of horizontal velocity, m/s
 8 - Richardson number, n/d
   -0.000000    6.57550  0.0000E+00  0.6402E-03  0.2443E-02  0.8766E-04  0.2997E+00 -0.3199E+00
   -0.034998    7.03142  0.0000E+00  0.3326E-03  0.1213E-02  0.1691E-03  0.8866E-01 -0.2273E+00
   -0.069996    7.18511  0.0000E+00  0.2207E-03  0.3945E-03  0.2348E-03  0.4958E-01  0.2477E+02
   -0.104994    7.24859  0.0000E+00  0.1754E-03  0.2402E-03  0.2624E-03  0.3763E-01  0.2492E+02
   -0.139992    7.28265  0.0000E+00  0.1464E-03  0.1595E-03  0.2870E-03  0.3099E-01  0.1008E+02
   -0.174991    7.30379  0.0000E+00  0.1258E-03  0.1060E-03  0.3082E-03  0.2652E-01  0.3271E+02
   -0.209990    7.31977  0.0000E+00  0.1102E-03  0.6900E-04  0.3338E-03  0.2313E-01  0.2375E+02
   -0.244990    7.33243  0.0000E+00  0.9813E-04  0.4337E-04  0.3545E-03  0.2029E-01  0.1056E+02
   -0.279989    7.34365  0.0000E+00  0.8855E-04  0.2700E-04  0.3753E-03  0.1773E-01  0.1978E+03
   -0.314989    7.35706  0.0000E+00  0.8003E-04  0.1693E-04  0.4232E-03  0.1489E-01  0.5653E+02
   -0.349989    7.36662  0.0000E+00  0.7316E-04  0.1072E-04  0.4608E-03  0.1300E-01  0.6191E+02
   -0.384989    7.37517  0.0000E+00  0.6756E-04  0.6930E-05  0.5003E-03  0.1147E-01  0.2890E+02
   -0.419989    7.38302  0.0000E+00  0.6298E-04  0.4612E-05  0.5421E-03  0.1020E-01  0.6608E+02
   -0.454990    7.39067  0.0000E+00  0.5922E-04  0.3280E-05  0.5886E-03  0.8967E-02  0.7401E+02
   -0.489990    7.39771  0.0000E+00  0.5611E-04  0.2452E-05  0.6406E-03  0.7766E-02  0.3610E+03
   -0.524991    7.40501  0.0000E+00  0.5326E-04  0.1881E-05  0.7378E-03  0.6660E-02  0.4707E+03
   -0.559992    7.41195  0.0000E+00  0.5038E-04  0.1474E-05  0.8447E-03  0.5829E-02  0.2824E+03
   -0.594993    7.41940  0.0000E+00  0.4702E-04  0.1117E-05  0.9523E-03  0.5193E-02  0.6435E+02
   -0.629994    7.42820  0.0000E+00  0.4393E-04  0.8603E-06  0.9884E-03  0.4847E-02 -0.5377E+02
   -0.664995    7.43645  0.0000E+00  0.4126E-04  0.6887E-06  0.9942E-03  0.4441E-02 -0.4611E+03
   -0.699995    7.44491  0.0000E+00  0.3891E-04  0.5690E-06  0.9991E-03  0.4026E-02  0.6979E+03
   -0.734996    7.45284  0.0000E+00  0.3682E-04  0.4806E-06  0.1006E-02  0.3641E-02  0.6796E+03
   -0.769997    7.46111  0.0000E+00  0.3483E-04  0.4122E-06  0.9801E-03  0.3254E-02 -0.2206E+04
   -0.804998    7.46936  0.0000E+00  0.3298E-04  0.3588E-06  0.9728E-03  0.2902E-02  0.9493E+05
   -0.839999    7.47765  0.0000E+00  0.3131E-04  0.3184E-06  0.1006E-02  0.2569E-02  0.2078E+03
   -0.875000    7.48590  0.0000E+00  0.2986E-04  0.2895E-06  0.1022E-02  0.2286E-02  0.1620E+02
   -0.910000    7.49431  0.0000E+00  0.2851E-04  0.2687E-06  0.9508E-03  0.2060E-02  0.2689E+02
   -0.945001    7.50317  0.0000E+00  0.2709E-04  0.2534E-06  0.9018E-03  0.1813E-02  0.1194E+02
   -0.980001    7.51269  0.0000E+00  0.2575E-04  0.2473E-06  0.8930E-03  0.1575E-02  0.6935E+02
   -1.015002    7.52233  0.0000E+00  0.2450E-04  0.2549E-06  0.8354E-03  0.1372E-02 -0.3348E+02
   -1.050002    7.53428  0.0000E+00  0.2322E-04  0.2815E-06  0.7633E-03  0.1188E-02  0.4243E+04
   -1.085002    7.54672  0.0000E+00  0.2188E-04  0.3366E-06  0.7206E-03  0.1011E-02  0.3973E+04
   -1.120002    7.56680  0.0000E+00  0.2051E-04  0.4408E-06  0.6747E-03  0.8585E-03  0.1804E+05
   -1.155001    7.58490  0.0000E+00  0.1912E-04  0.5935E-06  0.6215E-03  0.7180E-03  0.2335E+05
   -1.190001    7.61739  0.0000E+00  0.1768E-04  0.8160E-06  0.5563E-03  0.5849E-03  0.3572E+06
   -1.225000    7.64955  0.0000E+00  0.1639E-04  0.1225E-05  0.4981E-03  0.4423E-03  0.1977E+06
   -1.259999    7.69278  0.0000E+00  0.1500E-04  0.2711E-05  0.4050E-03  0.3256E-03 -0.6376E+09
   -1.294997    7.97608  0.0000E+00  0.1355E-04  0.4933E-05  0.3994E-03  0.2163E-03  0.8708E+09
   -1.329995    7.78331  0.0000E+00  0.1157E-04  0.1201E-04  0.2535E-03  0.1926E-03 -0.3650E+10
   -1.364993    8.51447  0.0000E+00  0.9102E-05  0.1863E-04  0.2749E-03  0.1117E-03 -0.1212E+08
   -1.399991    8.23271  0.0000E+00  0.0000E+00  0.0000E+00  0.0000E+00  0.2252E-03  0.0000E+00
