 1 - depth, m
 2 - temperature, C
 3 - salinity, kg/kg
 4 - turbulent kinetic energy, m**2/s**2
 5 - dissipation rate, m**2/s**3
 6 - kinematic heat conductance, m**2/s
 7 - modulus of horizontal velocity, m/s
 8 - Richardson number, n/d
   -0.000000    9.91023  0.0000E+00  0.1004E-02  0.1090E-01  0.1349E-03  0.4457E+00  0.3314E+01
   -0.034998   10.19962  0.0000E+00  0.5118E-03  0.6845E-02  0.1389E-03  0.1357E+00  0.3098E+00
   -0.069996   10.31705  0.0000E+00  0.3165E-03  0.2032E-02  0.2597E-03  0.7244E-01  0.2914E+00
   -0.104994   10.37140  0.0000E+00  0.2499E-03  0.1295E-02  0.2888E-03  0.5306E-01 -0.5121E-02
   -0.139993   10.39543  0.0000E+00  0.2107E-03  0.9115E-03  0.2944E-03  0.4280E-01  0.5976E-01
   -0.174992   10.41208  0.0000E+00  0.1804E-03  0.6486E-03  0.3058E-03  0.3537E-01  0.6598E-02
   -0.209991   10.42378  0.0000E+00  0.1581E-03  0.4621E-03  0.3270E-03  0.3056E-01  0.5559E+01
   -0.244990   10.43251  0.0000E+00  0.1408E-03  0.3261E-03  0.3539E-03  0.2638E-01  0.3553E+03
   -0.279990   10.44094  0.0000E+00  0.1269E-03  0.2282E-03  0.3627E-03  0.2307E-01  0.1609E+02
   -0.314990   10.45052  0.0000E+00  0.1141E-03  0.1588E-03  0.4272E-03  0.1915E-01  0.7552E+02
   -0.349990   10.45811  0.0000E+00  0.1036E-03  0.1099E-03  0.4787E-03  0.1677E-01  0.8915E+02
   -0.384990   10.46356  0.0000E+00  0.9547E-04  0.7596E-04  0.5216E-03  0.1494E-01  0.1581E+03
   -0.419990   10.46912  0.0000E+00  0.8882E-04  0.5291E-04  0.5642E-03  0.1342E-01  0.2787E+03
   -0.454991   10.47474  0.0000E+00  0.8345E-04  0.3769E-04  0.6029E-03  0.1190E-01  0.2764E+03
   -0.489991   10.47969  0.0000E+00  0.7902E-04  0.2796E-04  0.6663E-03  0.1039E-01  0.1696E+03
   -0.524992   10.48456  0.0000E+00  0.7493E-04  0.2101E-04  0.7503E-03  0.8970E-02  0.7893E+01
   -0.559993   10.48947  0.0000E+00  0.7087E-04  0.1527E-04  0.8525E-03  0.7926E-02  0.1108E+04
   -0.594994   10.49557  0.0000E+00  0.6624E-04  0.1099E-04  0.9489E-03  0.7158E-02  0.5931E+03
   -0.629995   10.50197  0.0000E+00  0.6188E-04  0.7671E-05  0.9797E-03  0.6782E-02  0.5391E+01
   -0.664996   10.50930  0.0000E+00  0.5803E-04  0.5186E-05  0.1001E-02  0.6278E-02  0.9475E+02
   -0.699997   10.51413  0.0000E+00  0.5464E-04  0.3651E-05  0.1001E-02  0.5772E-02 -0.4969E+03
   -0.734998   10.52166  0.0000E+00  0.5175E-04  0.2566E-05  0.1019E-02  0.5249E-02 -0.8583E+01
   -0.769999   10.52811  0.0000E+00  0.4925E-04  0.1846E-05  0.1039E-02  0.4745E-02  0.7548E+03
   -0.805000   10.53582  0.0000E+00  0.4690E-04  0.1359E-05  0.1040E-02  0.4221E-02  0.9656E+01
   -0.840001   10.54207  0.0000E+00  0.4455E-04  0.1034E-05  0.1026E-02  0.3780E-02  0.1829E+02
   -0.875002   10.54865  0.0000E+00  0.4223E-04  0.8089E-06  0.1013E-02  0.3399E-02  0.3156E+02
   -0.910002   10.55504  0.0000E+00  0.4009E-04  0.6625E-06  0.1021E-02  0.3057E-02  0.2004E+02
   -0.945003   10.56177  0.0000E+00  0.3804E-04  0.5691E-06  0.9760E-03  0.2730E-02  0.5733E+02
   -0.980004   10.56902  0.0000E+00  0.3613E-04  0.5095E-06  0.9382E-03  0.2429E-02  0.5241E+02
   -1.015004   10.57684  0.0000E+00  0.3431E-04  0.4844E-06  0.8855E-03  0.2138E-02  0.9214E+02
   -1.050004   10.58530  0.0000E+00  0.3250E-04  0.4856E-06  0.8300E-03  0.1894E-02  0.3874E+03
   -1.085004   10.59629  0.0000E+00  0.3056E-04  0.5136E-06  0.7924E-03  0.1628E-02 -0.1306E+03
   -1.120004   10.60941  0.0000E+00  0.2865E-04  0.5882E-06  0.7405E-03  0.1418E-02  0.3897E+04
   -1.155004   10.62522  0.0000E+00  0.2675E-04  0.7504E-06  0.6711E-03  0.1217E-02  0.1847E+05
   -1.190003   10.64951  0.0000E+00  0.2481E-04  0.1074E-05  0.6175E-03  0.1006E-02  0.2699E+05
   -1.225002   10.67752  0.0000E+00  0.2308E-04  0.1660E-05  0.5568E-03  0.7837E-03  0.1486E+06
   -1.260001   10.71020  0.0000E+00  0.2119E-04  0.3469E-05  0.4602E-03  0.6044E-03 -0.2287E+09
   -1.295000   10.91121  0.0000E+00  0.1904E-04  0.6578E-05  0.4585E-03  0.4386E-03  0.4604E+07
   -1.329998   10.79129  0.0000E+00  0.1615E-04  0.1816E-04  0.2546E-03  0.3867E-03 -0.2606E+10
   -1.364996   11.35392  0.0000E+00  0.1253E-04  0.2771E-04  0.3135E-03  0.2568E-03  0.3994E+07
   -1.399994   11.11674  0.0000E+00  0.0000E+00  0.0000E+00  0.0000E+00  0.4518E-03  0.0000E+00
