 1 - depth, m
 2 - temperature, C
 3 - salinity, kg/kg
 4 - turbulent kinetic energy, m**2/s**2
 5 - dissipation rate, m**2/s**3
 6 - kinematic heat conductance, m**2/s
 7 - modulus of horizontal velocity, m/s
 8 - Richardson number, n/d
   -0.000000    0.00227  0.0000E+00  0.4488E-03  0.9537E-03  0.8171E-04  0.3138E+00  0.2014E+00
   -0.035002    0.13217  0.0000E+00  0.2927E-03  0.4498E-03  0.1529E-03  0.1108E+00 -0.1254E+00
   -0.070004    0.22025  0.0000E+00  0.2117E-03  0.1296E-03  0.2016E-03  0.6645E-01  0.1991E-01
   -0.105007    0.26437  0.0000E+00  0.1734E-03  0.6832E-04  0.2156E-03  0.5097E-01  0.1621E+01
   -0.140010    0.29550  0.0000E+00  0.1495E-03  0.3885E-04  0.2277E-03  0.4223E-01  0.8037E-01
   -0.175013    0.32084  0.0000E+00  0.1324E-03  0.2371E-04  0.2381E-03  0.3611E-01  0.1576E+00
   -0.210017    0.34330  0.0000E+00  0.1191E-03  0.1518E-04  0.2481E-03  0.3154E-01  0.6191E-01
   -0.245021    0.36394  0.0000E+00  0.1087E-03  0.1018E-04  0.2545E-03  0.2780E-01  0.1090E+00
   -0.280025    0.38336  0.0000E+00  0.9970E-04  0.7031E-05  0.2546E-03  0.2444E-01  0.1214E+00
   -0.315029    0.40244  0.0000E+00  0.9110E-04  0.5055E-05  0.2604E-03  0.2101E-01  0.2822E+00
   -0.350033    0.42277  0.0000E+00  0.8354E-04  0.3772E-05  0.2607E-03  0.1842E-01  0.4672E+01
   -0.385038    0.44564  0.0000E+00  0.7684E-04  0.2907E-05  0.2574E-03  0.1628E-01  0.4487E+03
   -0.420043    0.47235  0.0000E+00  0.7082E-04  0.2304E-05  0.2482E-03  0.1444E-01  0.2096E+04
   -0.455047    0.50418  0.0000E+00  0.6525E-04  0.1873E-05  0.2349E-03  0.1262E-01  0.5926E+05
   -0.490052    0.55021  0.0000E+00  0.5976E-04  0.1557E-05  0.2211E-03  0.1076E-01  0.2578E+07
   -0.525057    0.63373  0.0000E+00  0.5387E-04  0.1298E-05  0.2218E-03  0.8997E-02  0.3856E+08
   -0.560063    0.74354  0.0000E+00  0.4785E-04  0.1079E-05  0.2178E-03  0.7702E-02  0.3113E+11
   -0.595068    0.95501  0.0000E+00  0.4131E-04  0.8675E-06  0.1996E-03  0.6776E-02  0.6337E+11
   -0.630073    1.24147  0.0000E+00  0.3547E-04  0.6932E-06  0.1986E-03  0.6258E-02  0.2618E+10
   -0.665079    1.57689  0.0000E+00  0.3057E-04  0.5585E-06  0.2082E-03  0.5680E-02  0.1867E+10
   -0.700084    1.82577  0.0000E+00  0.2642E-04  0.4538E-06  0.2099E-03  0.5085E-02  0.2846E+11
   -0.735089    2.07575  0.0000E+00  0.2286E-04  0.3702E-06  0.2180E-03  0.4490E-02  0.7958E+12
   -0.770095    2.35777  0.0000E+00  0.1980E-04  0.3007E-06  0.2313E-03  0.3889E-02  0.1176E+12
   -0.805100    2.64629  0.0000E+00  0.1731E-04  0.2460E-06  0.2499E-03  0.3339E-02  0.3072E+12
   -0.840105    2.86970  0.0000E+00  0.1515E-04  0.2014E-06  0.2704E-03  0.2897E-02  0.7709E+11
   -0.875110    3.05495  0.0000E+00  0.1325E-04  0.1644E-06  0.2848E-03  0.2497E-02  0.1080E+12
   -0.910115    3.21949  0.0000E+00  0.1156E-04  0.1337E-06  0.2960E-03  0.2140E-02  0.1167E+13
   -0.945120    3.37182  0.0000E+00  0.1008E-04  0.1079E-06  0.3031E-03  0.1787E-02  0.1099E+13
   -0.980125    3.52876  0.0000E+00  0.8786E-05  0.8598E-07  0.3097E-03  0.1431E-02  0.8040E+12
   -1.015130    3.70388  0.0000E+00  0.7715E-05  0.6799E-07  0.3134E-03  0.1062E-02  0.3860E+12
   -1.050135    3.86436  0.0000E+00  0.6835E-05  0.5366E-07  0.3157E-03  0.7681E-03  0.1023E+13
   -1.085139    4.02724  0.0000E+00  0.6159E-05  0.4287E-07  0.3161E-03  0.5298E-03  0.3675E+12
   -1.120143    4.19500  0.0000E+00  0.5672E-05  0.3522E-07  0.3149E-03  0.3454E-03  0.7558E+12
   -1.155147    4.33679  0.0000E+00  0.5431E-05  0.3156E-07  0.3096E-03  0.2085E-03  0.9329E+12
   -1.190151    4.43515  0.0000E+00  0.5348E-05  0.3104E-07  0.2951E-03  0.1285E-03  0.9633E+12
   -1.225155    4.50198  0.0000E+00  0.5352E-05  0.3324E-07  0.2764E-03  0.7854E-04  0.2068E+13
   -1.260158    4.55972  0.0000E+00  0.5394E-05  0.3938E-07  0.2286E-03  0.4826E-04  0.3621E+13
   -1.295161    4.62210  0.0000E+00  0.5379E-05  0.5547E-07  0.1943E-03  0.2993E-04  0.1007E+14
   -1.330163    4.73231  0.0000E+00  0.5035E-05  0.9476E-07  0.1117E-03  0.2042E-04 -0.2277E+14
   -1.365166    4.92067  0.0000E+00  0.3608E-05  0.2262E-06  0.3676E-04  0.1286E-04 -0.2577E+15
   -1.400168    5.30175  0.0000E+00  0.0000E+00  0.0000E+00  0.0000E+00  0.1556E-04  0.0000E+00
