 1 - depth, m
 2 - temperature, C
 3 - salinity, kg/kg
 4 - turbulent kinetic energy, m**2/s**2
 5 - dissipation rate, m**2/s**3
 6 - kinematic heat conductance, m**2/s
 7 - modulus of horizontal velocity, m/s
 8 - Richardson number, n/d
   -0.000000   10.34178  0.0000E+00  0.6417E-04  0.4023E-04  0.4242E-04  0.5238E-01  0.3007E+02
   -0.034998   10.49386  0.0000E+00  0.3923E-04  0.1508E-04  0.9722E-04  0.1920E-01  0.1753E+03
   -0.069996   10.52563  0.0000E+00  0.3077E-04  0.7758E-05  0.1429E-03  0.1356E-01  0.2423E+03
   -0.104995   10.54478  0.0000E+00  0.2636E-04  0.4232E-05  0.1900E-03  0.1096E-01  0.2893E+02
   -0.139994   10.55861  0.0000E+00  0.2352E-04  0.2319E-05  0.2447E-03  0.9129E-02  0.4896E+01
   -0.174993   10.56944  0.0000E+00  0.2165E-04  0.1274E-05  0.3057E-03  0.7717E-02  0.1321E+02
   -0.209992   10.57813  0.0000E+00  0.2042E-04  0.7154E-06  0.3791E-03  0.6585E-02  0.1288E+03
   -0.244992   10.58520  0.0000E+00  0.1964E-04  0.4298E-06  0.4577E-03  0.5644E-02  0.5746E+03
   -0.279992   10.59074  0.0000E+00  0.1917E-04  0.2870E-06  0.5247E-03  0.4831E-02  0.7330E+03
   -0.314992   10.59554  0.0000E+00  0.1886E-04  0.2131E-06  0.5878E-03  0.4073E-02  0.5899E+03
   -0.349992   10.59942  0.0000E+00  0.1870E-04  0.1722E-06  0.6359E-03  0.3444E-02  0.1223E+03
   -0.384992   10.60304  0.0000E+00  0.1867E-04  0.1468E-06  0.6944E-03  0.2892E-02  0.1000E+02
   -0.419993   10.60643  0.0000E+00  0.1876E-04  0.1309E-06  0.7412E-03  0.2431E-02  0.1281E+02
   -0.454994   10.60969  0.0000E+00  0.1895E-04  0.1201E-06  0.7690E-03  0.2011E-02  0.4519E+01
   -0.489995   10.61289  0.0000E+00  0.1922E-04  0.1128E-06  0.8109E-03  0.1605E-02  0.2975E+01
   -0.524996   10.61602  0.0000E+00  0.1959E-04  0.1082E-06  0.8572E-03  0.1237E-02  0.2375E+01
   -0.559997   10.61951  0.0000E+00  0.2008E-04  0.1057E-06  0.9176E-03  0.9444E-03  0.2639E+01
   -0.594998   10.62363  0.0000E+00  0.2062E-04  0.1049E-06  0.1017E-02  0.7462E-03  0.3367E+01
   -0.629999   10.62878  0.0000E+00  0.2100E-04  0.1053E-06  0.1105E-02  0.6383E-03  0.5918E+01
   -0.665000   10.63362  0.0000E+00  0.2128E-04  0.1068E-06  0.1130E-02  0.5607E-03  0.6507E+01
   -0.700002   10.63835  0.0000E+00  0.2149E-04  0.1093E-06  0.1156E-02  0.4934E-03  0.7494E+01
   -0.735003   10.64304  0.0000E+00  0.2163E-04  0.1127E-06  0.1170E-02  0.4371E-03  0.1727E+02
   -0.770004   10.64773  0.0000E+00  0.2170E-04  0.1170E-06  0.1170E-02  0.3902E-03  0.9857E+01
   -0.805005   10.65260  0.0000E+00  0.2172E-04  0.1225E-06  0.1155E-02  0.3516E-03  0.1406E+02
   -0.840006   10.65768  0.0000E+00  0.2168E-04  0.1292E-06  0.1129E-02  0.3192E-03  0.1335E+02
   -0.875007   10.66312  0.0000E+00  0.2157E-04  0.1379E-06  0.1094E-02  0.2917E-03  0.8168E+05
   -0.910008   10.66897  0.0000E+00  0.2139E-04  0.1496E-06  0.1059E-02  0.2677E-03  0.3286E+03
   -0.945009   10.67555  0.0000E+00  0.2114E-04  0.1649E-06  0.1014E-02  0.2460E-03  0.3526E+03
   -0.980010   10.68279  0.0000E+00  0.2080E-04  0.1878E-06  0.9666E-03  0.2253E-03  0.5926E+03
   -1.015011   10.69134  0.0000E+00  0.2036E-04  0.2193E-06  0.9069E-03  0.2054E-03  0.2419E+04
   -1.050011   10.70179  0.0000E+00  0.1982E-04  0.2617E-06  0.8894E-03  0.1844E-03  0.7625E+05
   -1.085011   10.71356  0.0000E+00  0.1916E-04  0.3438E-06  0.7779E-03  0.1645E-03  0.5831E+04
   -1.120011   10.73491  0.0000E+00  0.1837E-04  0.4347E-06  0.7507E-03  0.1431E-03  0.1432E+07
   -1.155011   10.74859  0.0000E+00  0.1752E-04  0.5878E-06  0.6485E-03  0.1243E-03  0.6185E+07
   -1.190011   10.78562  0.0000E+00  0.1659E-04  0.8174E-06  0.6419E-03  0.9975E-04  0.2940E+07
   -1.225010   10.80483  0.0000E+00  0.1579E-04  0.1187E-05  0.5551E-03  0.7863E-04 -0.2831E+08
   -1.260010   10.87134  0.0000E+00  0.1485E-04  0.3195E-05  0.5231E-03  0.5769E-04 -0.1019E+10
   -1.295008   11.08872  0.0000E+00  0.1380E-04  0.4874E-05  0.4551E-03  0.4105E-04  0.1307E+10
   -1.330007   10.93221  0.0000E+00  0.1213E-04  0.2027E-04  0.2691E-03  0.3566E-04 -0.6725E+11
   -1.365005   11.60205  0.0000E+00  0.9754E-05  0.2709E-04  0.3568E-03  0.2143E-04 -0.1122E+07
   -1.400003   11.28351  0.0000E+00  0.0000E+00  0.0000E+00  0.0000E+00  0.4531E-04  0.0000E+00
