 1 - depth, m
 2 - temperature, C
 3 - salinity, kg/kg
 4 - turbulent kinetic energy, m**2/s**2
 5 - dissipation rate, m**2/s**3
 6 - kinematic heat conductance, m**2/s
 7 - modulus of horizontal velocity, m/s
 8 - Richardson number, n/d
   -0.000000    1.46780  0.0000E+00  0.4740E-03  0.1329E-02  0.7614E-04  0.2771E+00  0.9291E-01
   -0.035010    1.81442  0.0000E+00  0.2625E-03  0.6371E-03  0.1292E-03  0.8922E-01  0.8110E-01
   -0.070021    1.95868  0.0000E+00  0.1790E-03  0.2091E-03  0.1739E-03  0.5460E-01 -0.4537E-01
   -0.105032    2.02732  0.0000E+00  0.1418E-03  0.1218E-03  0.1792E-03  0.4252E-01  0.4858E-01
   -0.140044    2.07471  0.0000E+00  0.1179E-03  0.7715E-04  0.1837E-03  0.3520E-01  0.9745E-01
   -0.175055    2.11016  0.0000E+00  0.1002E-03  0.5005E-04  0.1886E-03  0.2983E-01  0.5116E+00
   -0.210067    2.13963  0.0000E+00  0.8674E-04  0.3262E-04  0.1937E-03  0.2568E-01  0.4376E-01
   -0.245080    2.16631  0.0000E+00  0.7639E-04  0.2129E-04  0.1954E-03  0.2223E-01  0.7142E-01
   -0.280092    2.19202  0.0000E+00  0.6793E-04  0.1388E-04  0.1932E-03  0.1909E-01  0.1157E+00
   -0.315105    2.21814  0.0000E+00  0.6002E-04  0.9052E-05  0.1968E-03  0.1583E-01  0.7177E+00
   -0.350117    2.24579  0.0000E+00  0.5327E-04  0.5917E-05  0.1965E-03  0.1346E-01  0.1457E+02
   -0.385130    2.27663  0.0000E+00  0.4753E-04  0.3896E-05  0.1943E-03  0.1154E-01  0.4054E+03
   -0.420144    2.31237  0.0000E+00  0.4272E-04  0.2608E-05  0.1880E-03  0.9938E-02  0.9995E+04
   -0.455157    2.36290  0.0000E+00  0.3854E-04  0.1788E-05  0.1797E-03  0.8355E-02  0.2512E+06
   -0.490170    2.45823  0.0000E+00  0.3479E-04  0.1271E-05  0.1747E-03  0.6732E-02  0.1114E+08
   -0.525184    2.62414  0.0000E+00  0.3117E-04  0.9291E-06  0.1909E-03  0.5218E-02  0.9036E+09
   -0.560197    2.98744  0.0000E+00  0.2799E-04  0.6952E-06  0.2337E-03  0.4158E-02  0.1233E+11
   -0.595211    3.38930  0.0000E+00  0.2479E-04  0.5104E-06  0.2861E-03  0.3543E-02  0.3503E+10
   -0.630225    3.65637  0.0000E+00  0.2205E-04  0.3847E-06  0.3159E-03  0.3234E-02  0.1548E+11
   -0.665239    3.79687  0.0000E+00  0.1981E-04  0.3004E-06  0.3299E-03  0.2905E-02  0.7304E+11
   -0.700252    3.88807  0.0000E+00  0.1792E-04  0.2399E-06  0.3426E-03  0.2594E-02  0.9102E+11
   -0.735266    3.96549  0.0000E+00  0.1632E-04  0.1948E-06  0.3574E-03  0.2299E-02  0.1437E+12
   -0.770280    4.02234  0.0000E+00  0.1494E-04  0.1605E-06  0.3656E-03  0.2037E-02  0.1414E+12
   -0.805294    4.07048  0.0000E+00  0.1375E-04  0.1338E-06  0.3732E-03  0.1798E-02  0.2979E+12
   -0.840307    4.11752  0.0000E+00  0.1274E-04  0.1129E-06  0.3822E-03  0.1579E-02  0.1970E+12
   -0.875321    4.16156  0.0000E+00  0.1187E-04  0.9666E-07  0.3911E-03  0.1388E-02  0.1253E+12
   -0.910335    4.20160  0.0000E+00  0.1113E-04  0.8391E-07  0.4025E-03  0.1219E-02  0.7862E+11
   -0.945348    4.23603  0.0000E+00  0.1050E-04  0.7402E-07  0.4098E-03  0.1064E-02  0.3522E+11
   -0.980361    4.26643  0.0000E+00  0.9961E-05  0.6655E-07  0.4149E-03  0.9227E-03  0.3914E+11
   -1.015374    4.29450  0.0000E+00  0.9493E-05  0.6112E-07  0.4145E-03  0.7926E-03  0.4178E+11
   -1.050387    4.32183  0.0000E+00  0.9072E-05  0.5752E-07  0.4114E-03  0.6760E-03  0.5179E+11
   -1.085400    4.34920  0.0000E+00  0.8679E-05  0.5584E-07  0.4077E-03  0.5727E-03  0.7567E+11
   -1.120413    4.37751  0.0000E+00  0.8296E-05  0.5662E-07  0.3935E-03  0.4823E-03  0.1009E+12
   -1.155425    4.40686  0.0000E+00  0.7917E-05  0.6126E-07  0.3780E-03  0.3962E-03  0.1436E+12
   -1.190438    4.43741  0.0000E+00  0.7546E-05  0.7204E-07  0.3439E-03  0.3138E-03  0.1734E+12
   -1.225449    4.47197  0.0000E+00  0.7197E-05  0.9293E-07  0.3209E-03  0.2325E-03  0.3083E+12
   -1.260461    4.51078  0.0000E+00  0.6854E-05  0.1443E-06  0.2593E-03  0.1640E-03  0.3855E+12
   -1.295473    4.59199  0.0000E+00  0.6422E-05  0.2664E-06  0.2364E-03  0.1101E-03  0.4298E+13
   -1.330484    4.65307  0.0000E+00  0.5680E-05  0.6150E-06  0.1271E-03  0.9146E-04 -0.2768E+14
   -1.365494    4.98240  0.0000E+00  0.4108E-05  0.1208E-05  0.7068E-04  0.5677E-04 -0.9560E+14
   -1.400505    5.19109  0.0000E+00  0.0000E+00  0.0000E+00  0.0000E+00  0.1049E-03  0.0000E+00
