 1 - depth, m
 2 - temperature, C
 3 - salinity, kg/kg
 4 - turbulent kinetic energy, m**2/s**2
 5 - dissipation rate, m**2/s**3
 6 - kinematic heat conductance, m**2/s
 7 - modulus of horizontal velocity, m/s
 8 - Richardson number, n/d
   -0.000000    8.19456  0.0000E+00  0.6827E-05  0.3079E-06  0.1938E-04  0.8290E-02 -0.2567E+00
   -0.034998    8.29517  0.0000E+00  0.7306E-05  0.1289E-06  0.1064E-03  0.4373E-02  0.4888E+02
   -0.069996    8.31849  0.0000E+00  0.7648E-05  0.8747E-07  0.1921E-03  0.3280E-02  0.4810E+02
   -0.104994    8.32982  0.0000E+00  0.8096E-05  0.7029E-07  0.2788E-03  0.2746E-02  0.7600E+02
   -0.139993    8.33698  0.0000E+00  0.8646E-05  0.6036E-07  0.3598E-03  0.2359E-02  0.2197E+01
   -0.174992    8.34246  0.0000E+00  0.9251E-05  0.5379E-07  0.4253E-03  0.2028E-02  0.2207E+01
   -0.209991    8.34714  0.0000E+00  0.9883E-05  0.4937E-07  0.4882E-03  0.1736E-02  0.2162E+01
   -0.244991    8.35124  0.0000E+00  0.1053E-04  0.4646E-07  0.5521E-03  0.1477E-02  0.2084E+01
   -0.279990    8.35490  0.0000E+00  0.1117E-04  0.4470E-07  0.6195E-03  0.1243E-02  0.2015E+01
   -0.314990    8.35815  0.0000E+00  0.1181E-04  0.4386E-07  0.7008E-03  0.1029E-02  0.1706E+01
   -0.349990    8.36113  0.0000E+00  0.1244E-04  0.4382E-07  0.7847E-03  0.8505E-03  0.1499E+01
   -0.384991    8.36390  0.0000E+00  0.1304E-04  0.4444E-07  0.8672E-03  0.7048E-03  0.1343E+01
   -0.419991    8.36652  0.0000E+00  0.1362E-04  0.4563E-07  0.9420E-03  0.5863E-03  0.1247E+01
   -0.454992    8.36901  0.0000E+00  0.1417E-04  0.4730E-07  0.1013E-02  0.4863E-03  0.1167E+01
   -0.489992    8.37139  0.0000E+00  0.1470E-04  0.4945E-07  0.1075E-02  0.4014E-03  0.1141E+01
   -0.524993    8.37367  0.0000E+00  0.1528E-04  0.5225E-07  0.1165E-02  0.3329E-03  0.1131E+01
   -0.559994    8.37617  0.0000E+00  0.1587E-04  0.5564E-07  0.1276E-02  0.2835E-03  0.1225E+01
   -0.594995    8.37903  0.0000E+00  0.1644E-04  0.5943E-07  0.1349E-02  0.2520E-03  0.1289E+01
   -0.629996    8.38315  0.0000E+00  0.1686E-04  0.6262E-07  0.1341E-02  0.2222E-03  0.1810E+01
   -0.664997    8.38747  0.0000E+00  0.1718E-04  0.6561E-07  0.1329E-02  0.2077E-03  0.1948E+01
   -0.699998    8.39189  0.0000E+00  0.1745E-04  0.6868E-07  0.1314E-02  0.1946E-03  0.2110E+01
   -0.734999    8.39639  0.0000E+00  0.1767E-04  0.7195E-07  0.1293E-02  0.1829E-03  0.2435E+01
   -0.770000    8.40108  0.0000E+00  0.1785E-04  0.7555E-07  0.1266E-02  0.1721E-03  0.2871E+01
   -0.805001    8.40600  0.0000E+00  0.1798E-04  0.7961E-07  0.1235E-02  0.1620E-03  0.3589E+01
   -0.840002    8.41120  0.0000E+00  0.1807E-04  0.8431E-07  0.1196E-02  0.1524E-03  0.4669E+01
   -0.875003    8.41672  0.0000E+00  0.1811E-04  0.8991E-07  0.1157E-02  0.1430E-03  0.5371E+01
   -0.910004    8.42269  0.0000E+00  0.1809E-04  0.9677E-07  0.1107E-02  0.1339E-03  0.5914E+01
   -0.945005    8.42923  0.0000E+00  0.1801E-04  0.1054E-06  0.1060E-02  0.1248E-03 -0.1095E+02
   -0.980005    8.43649  0.0000E+00  0.1786E-04  0.1164E-06  0.1013E-02  0.1158E-03  0.1794E+03
   -1.015006    8.44459  0.0000E+00  0.1764E-04  0.1319E-06  0.9574E-03  0.1064E-03 -0.3398E+03
   -1.050006    8.45406  0.0000E+00  0.1733E-04  0.1535E-06  0.8954E-03  0.9664E-04  0.1869E+06
   -1.085006    8.46593  0.0000E+00  0.1692E-04  0.1977E-06  0.8148E-03  0.8644E-04  0.2074E+05
   -1.120006    8.48223  0.0000E+00  0.1637E-04  0.2496E-06  0.7681E-03  0.7645E-04  0.1650E+06
   -1.155006    8.50221  0.0000E+00  0.1576E-04  0.3348E-06  0.6793E-03  0.6573E-04  0.1888E+06
   -1.190005    8.52660  0.0000E+00  0.1505E-04  0.4732E-06  0.6453E-03  0.5513E-04  0.4240E+06
   -1.225005    8.56181  0.0000E+00  0.1442E-04  0.6834E-06  0.5252E-03  0.4311E-04  0.8596E+08
   -1.260004    8.59711  0.0000E+00  0.1364E-04  0.1601E-05  0.4526E-03  0.3338E-04  0.5166E+08
   -1.295002    8.82890  0.0000E+00  0.1274E-04  0.2610E-05  0.4594E-03  0.2374E-04  0.3046E+09
   -1.330001    8.70194  0.0000E+00  0.1104E-04  0.6684E-05  0.2493E-03  0.2008E-04 -0.5508E+11
   -1.364999    9.33924  0.0000E+00  0.8648E-05  0.1070E-04  0.2499E-03  0.1270E-04 -0.1018E+07
   -1.399997    9.11795  0.0000E+00  0.0000E+00  0.0000E+00  0.0000E+00  0.2273E-04  0.0000E+00
