 1 - depth, m
 2 - temperature, C
 3 - salinity, kg/kg
 4 - turbulent kinetic energy, m**2/s**2
 5 - dissipation rate, m**2/s**3
 6 - kinematic heat conductance, m**2/s
 7 - modulus of horizontal velocity, m/s
 8 - Richardson number, n/d
   -0.000000    8.94130  0.0000E+00  0.6164E-03  0.1696E-02  0.1009E-03  0.3085E+00  0.2343E-02
   -0.034998    9.30973  0.0000E+00  0.3249E-03  0.6593E-03  0.1815E-03  0.9136E-01 -0.4757E-01
   -0.069996    9.42376  0.0000E+00  0.2171E-03  0.2307E-03  0.2268E-03  0.5354E-01  0.1110E+01
   -0.104994    9.47984  0.0000E+00  0.1687E-03  0.1256E-03  0.2392E-03  0.4083E-01 -0.8318E-01
   -0.139992    9.51032  0.0000E+00  0.1404E-03  0.7901E-04  0.2479E-03  0.3348E-01 -0.2517E-01
   -0.174991    9.53126  0.0000E+00  0.1192E-03  0.4991E-04  0.2597E-03  0.2816E-01 -0.5056E+00
   -0.209990    9.54651  0.0000E+00  0.1033E-03  0.3170E-04  0.2693E-03  0.2396E-01  0.2604E+01
   -0.244990    9.55987  0.0000E+00  0.9087E-04  0.2011E-04  0.2955E-03  0.2063E-01  0.7827E+01
   -0.279989    9.57016  0.0000E+00  0.8112E-04  0.1276E-04  0.3127E-03  0.1786E-01  0.6399E+02
   -0.314989    9.58079  0.0000E+00  0.7293E-04  0.8193E-05  0.3662E-03  0.1502E-01  0.2146E+03
   -0.349989    9.58900  0.0000E+00  0.6643E-04  0.5370E-05  0.4238E-03  0.1307E-01  0.2301E+03
   -0.384989    9.59659  0.0000E+00  0.6117E-04  0.3629E-05  0.4959E-03  0.1148E-01  0.2592E+03
   -0.419990    9.60315  0.0000E+00  0.5698E-04  0.2521E-05  0.5653E-03  0.1015E-01  0.1868E+03
   -0.454990    9.60973  0.0000E+00  0.5360E-04  0.1848E-05  0.6332E-03  0.8856E-02  0.2474E+03
   -0.489991    9.61508  0.0000E+00  0.5084E-04  0.1426E-05  0.6923E-03  0.7605E-02  0.4019E+03
   -0.524991    9.62061  0.0000E+00  0.4828E-04  0.1132E-05  0.7508E-03  0.6427E-02  0.2615E+03
   -0.559992    9.62570  0.0000E+00  0.4570E-04  0.9097E-06  0.8036E-03  0.5472E-02 -0.5121E+03
   -0.594993    9.63255  0.0000E+00  0.4282E-04  0.7202E-06  0.8861E-03  0.4776E-02 -0.6002E+03
   -0.629994    9.63931  0.0000E+00  0.4013E-04  0.5779E-06  0.8766E-03  0.4365E-02 -0.1916E+03
   -0.664995    9.64697  0.0000E+00  0.3778E-04  0.4772E-06  0.9206E-03  0.3894E-02  0.9168E+02
   -0.699996    9.65382  0.0000E+00  0.3591E-04  0.4067E-06  0.9892E-03  0.3489E-02  0.1383E+04
   -0.734997    9.66042  0.0000E+00  0.3423E-04  0.3511E-06  0.9423E-03  0.3125E-02  0.6114E+03
   -0.769998    9.66709  0.0000E+00  0.3262E-04  0.3052E-06  0.9257E-03  0.2743E-02  0.1655E+02
   -0.804999    9.67395  0.0000E+00  0.3118E-04  0.2714E-06  0.9584E-03  0.2388E-02  0.9311E+01
   -0.839999    9.68083  0.0000E+00  0.2989E-04  0.2470E-06  0.9526E-03  0.2092E-02  0.1532E+02
   -0.875000    9.68760  0.0000E+00  0.2863E-04  0.2287E-06  0.9038E-03  0.1827E-02  0.6275E+01
   -0.910001    9.69485  0.0000E+00  0.2735E-04  0.2155E-06  0.8812E-03  0.1573E-02  0.6896E+01
   -0.945002    9.70231  0.0000E+00  0.2614E-04  0.2086E-06  0.8576E-03  0.1343E-02  0.1571E+02
   -0.980002    9.71031  0.0000E+00  0.2501E-04  0.2089E-06  0.8120E-03  0.1146E-02  0.6430E-01
   -1.015002    9.71859  0.0000E+00  0.2392E-04  0.2187E-06  0.7876E-03  0.9707E-03  0.4638E+01
   -1.050002    9.72843  0.0000E+00  0.2285E-04  0.2429E-06  0.7654E-03  0.8201E-03 -0.1297E+03
   -1.085002    9.73970  0.0000E+00  0.2176E-04  0.2899E-06  0.7244E-03  0.7003E-03 -0.1337E+06
   -1.120002    9.75663  0.0000E+00  0.2058E-04  0.3740E-06  0.6740E-03  0.5951E-03  0.1290E+06
   -1.155002    9.77522  0.0000E+00  0.1935E-04  0.5250E-06  0.6274E-03  0.4975E-03  0.4628E+06
   -1.190001    9.80033  0.0000E+00  0.1808E-04  0.7897E-06  0.5583E-03  0.3964E-03  0.8581E+04
   -1.225000    9.83669  0.0000E+00  0.1705E-04  0.1227E-05  0.5057E-03  0.2983E-03  0.2213E+06
   -1.259999    9.87270  0.0000E+00  0.1581E-04  0.2530E-05  0.4419E-03  0.2214E-03 -0.4429E+09
   -1.294998   10.10612  0.0000E+00  0.1456E-04  0.4437E-05  0.4258E-03  0.1521E-03  0.1486E+08
   -1.329996    9.95729  0.0000E+00  0.1255E-04  0.1285E-04  0.2524E-03  0.1317E-03 -0.1543E+09
   -1.364994   10.60306  0.0000E+00  0.9983E-05  0.1936E-04  0.3046E-03  0.7811E-04 -0.2521E+07
   -1.399992   10.29379  0.0000E+00  0.0000E+00  0.0000E+00  0.0000E+00  0.1693E-03  0.0000E+00
