 1 - depth, m
 2 - temperature, C
 3 - salinity, kg/kg
 4 - turbulent kinetic energy, m**2/s**2
 5 - dissipation rate, m**2/s**3
 6 - kinematic heat conductance, m**2/s
 7 - modulus of horizontal velocity, m/s
 8 - Richardson number, n/d
   -0.000000   10.03410  0.0000E+00  0.9185E-04  0.8770E-04  0.3969E-04  0.7605E-01 -0.8405E-01
   -0.034998   10.26681  0.0000E+00  0.5339E-04  0.3024E-04  0.6015E-04  0.2753E-01 -0.1452E+00
   -0.069996   10.33355  0.0000E+00  0.3892E-04  0.7985E-05  0.9330E-04  0.1849E-01  0.3741E+01
   -0.104994   10.37160  0.0000E+00  0.3250E-04  0.4176E-05  0.1420E-03  0.1451E-01  0.4433E+02
   -0.139992   10.39602  0.0000E+00  0.2846E-04  0.2356E-05  0.2392E-03  0.1189E-01  0.3082E+03
   -0.174991   10.41151  0.0000E+00  0.2588E-04  0.1397E-05  0.3106E-03  0.1000E-01  0.2285E+03
   -0.209990   10.42203  0.0000E+00  0.2422E-04  0.8566E-06  0.3620E-03  0.8494E-02  0.7140E+04
   -0.244990   10.43089  0.0000E+00  0.2314E-04  0.5562E-06  0.4035E-03  0.7188E-02  0.6990E+03
   -0.279989   10.43802  0.0000E+00  0.2244E-04  0.3926E-06  0.4526E-03  0.6034E-02  0.4614E+03
   -0.314989   10.44410  0.0000E+00  0.2193E-04  0.2911E-06  0.5033E-03  0.4984E-02  0.3358E+03
   -0.349989   10.44945  0.0000E+00  0.2147E-04  0.2285E-06  0.7327E-03  0.4020E-02  0.1354E+03
   -0.384989   10.45344  0.0000E+00  0.2121E-04  0.1908E-06  0.7820E-03  0.3462E-02  0.3002E+02
   -0.419990   10.45715  0.0000E+00  0.2111E-04  0.1657E-06  0.7352E-03  0.2966E-02  0.1530E+02
   -0.454990   10.46095  0.0000E+00  0.2114E-04  0.1499E-06  0.8689E-03  0.2477E-02  0.9409E+01
   -0.489991   10.46420  0.0000E+00  0.2127E-04  0.1402E-06  0.8430E-03  0.2089E-02  0.3971E+01
   -0.524992   10.46749  0.0000E+00  0.2150E-04  0.1335E-06  0.1005E-02  0.1726E-02  0.2227E+01
   -0.559992   10.47094  0.0000E+00  0.2196E-04  0.1285E-06  0.7452E-03  0.1426E-02  0.1656E+01
   -0.594993   10.47646  0.0000E+00  0.2273E-04  0.1260E-06  0.9221E-03  0.1079E-02  0.1397E+01
   -0.629994   10.48250  0.0000E+00  0.2317E-04  0.1249E-06  0.1047E-02  0.9222E-03  0.1533E+01
   -0.664995   10.48795  0.0000E+00  0.2344E-04  0.1253E-06  0.1102E-02  0.8042E-03  0.1457E+01
   -0.699996   10.49316  0.0000E+00  0.2361E-04  0.1268E-06  0.1159E-02  0.7033E-03  0.1401E+01
   -0.734997   10.49818  0.0000E+00  0.2369E-04  0.1295E-06  0.1193E-02  0.6193E-03  0.1367E+01
   -0.769998   10.50317  0.0000E+00  0.2369E-04  0.1333E-06  0.1203E-02  0.5500E-03  0.1354E+01
   -0.804999   10.50825  0.0000E+00  0.2362E-04  0.1384E-06  0.1190E-02  0.4930E-03  0.1430E+01
   -0.840000   10.51356  0.0000E+00  0.2349E-04  0.1453E-06  0.1159E-02  0.4457E-03  0.1590E+01
   -0.875001   10.51924  0.0000E+00  0.2329E-04  0.1544E-06  0.1133E-02  0.4054E-03  0.2156E+01
   -0.910001   10.52547  0.0000E+00  0.2301E-04  0.1668E-06  0.1104E-02  0.3710E-03  0.1018E+03
   -0.945002   10.53237  0.0000E+00  0.2267E-04  0.1842E-06  0.1031E-02  0.3402E-03  0.1081E+04
   -0.980002   10.54000  0.0000E+00  0.2225E-04  0.2091E-06  0.9989E-03  0.3112E-03  0.7834E+04
   -1.015003   10.54936  0.0000E+00  0.2175E-04  0.2434E-06  0.9637E-03  0.2822E-03  0.1924E+04
   -1.050003   10.55880  0.0000E+00  0.2115E-04  0.2985E-06  0.9218E-03  0.2548E-03  0.5754E+03
   -1.085003   10.57255  0.0000E+00  0.2042E-04  0.4080E-06  0.8645E-03  0.2256E-03  0.6762E+04
   -1.120003   10.59222  0.0000E+00  0.1957E-04  0.5120E-06  0.7932E-03  0.1976E-03  0.2172E+05
   -1.155002   10.60407  0.0000E+00  0.1865E-04  0.7856E-06  0.7338E-03  0.1711E-03  0.2450E+06
   -1.190002   10.64342  0.0000E+00  0.1766E-04  0.1089E-05  0.6604E-03  0.1377E-03  0.2509E+07
   -1.225001   10.65704  0.0000E+00  0.1684E-04  0.1591E-05  0.5786E-03  0.1078E-03 -0.1118E+07
   -1.260000   10.74073  0.0000E+00  0.1582E-04  0.3756E-05  0.5344E-03  0.7917E-04  0.1730E+09
   -1.294998   10.91887  0.0000E+00  0.1478E-04  0.5599E-05  0.4913E-03  0.5632E-04  0.6359E+07
   -1.329997   10.77975  0.0000E+00  0.1278E-04  0.1740E-04  0.3070E-03  0.4993E-04 -0.3454E+10
   -1.364995   11.41796  0.0000E+00  0.1021E-04  0.2473E-04  0.3476E-03  0.2980E-04 -0.5019E+05
   -1.399992   11.14152  0.0000E+00  0.0000E+00  0.0000E+00  0.0000E+00  0.6375E-04  0.0000E+00
