 1 - depth, m
 2 - temperature, C
 3 - salinity, kg/kg
 4 - turbulent kinetic energy, m**2/s**2
 5 - dissipation rate, m**2/s**3
 6 - kinematic heat conductance, m**2/s
 7 - modulus of horizontal velocity, m/s
 8 - Richardson number, n/d
   -0.000000   10.71638  0.0000E+00  0.1109E-02  0.6935E-02  0.1241E-03  0.5132E+00 -0.1037E-01
   -0.034998   11.03013  0.0000E+00  0.6184E-03  0.3915E-02  0.2392E-03  0.1525E+00 -0.4414E-01
   -0.069996   11.17425  0.0000E+00  0.4057E-03  0.1485E-02  0.3335E-03  0.8192E-01  0.4637E+00
   -0.104994   11.22187  0.0000E+00  0.3284E-03  0.9972E-03  0.3715E-03  0.6081E-01  0.7573E+01
   -0.139993   11.24511  0.0000E+00  0.2747E-03  0.6946E-03  0.3794E-03  0.4883E-01  0.1252E+00
   -0.174992   11.25943  0.0000E+00  0.2356E-03  0.4832E-03  0.3955E-03  0.4161E-01 -0.1222E+00
   -0.209991   11.26924  0.0000E+00  0.2069E-03  0.3346E-03  0.4142E-03  0.3663E-01  0.1357E+01
   -0.244991   11.27689  0.0000E+00  0.1853E-03  0.2306E-03  0.4254E-03  0.3268E-01 -0.9555E+00
   -0.279990   11.28439  0.0000E+00  0.1681E-03  0.1586E-03  0.4395E-03  0.2904E-01  0.1950E+01
   -0.314990   11.29227  0.0000E+00  0.1521E-03  0.1092E-03  0.4753E-03  0.2478E-01  0.1720E+02
   -0.349990   11.29848  0.0000E+00  0.1391E-03  0.7513E-04  0.5075E-03  0.2208E-01  0.1034E+02
   -0.384991   11.30392  0.0000E+00  0.1284E-03  0.5169E-04  0.5479E-03  0.1990E-01 -0.1688E+03
   -0.419991   11.30868  0.0000E+00  0.1195E-03  0.3569E-04  0.6001E-03  0.1811E-01  0.2820E+02
   -0.454992   11.31387  0.0000E+00  0.1122E-03  0.2503E-04  0.6629E-03  0.1630E-01  0.1080E+03
   -0.489992   11.31845  0.0000E+00  0.1061E-03  0.1802E-04  0.7906E-03  0.1445E-01  0.3078E+03
   -0.524993   11.32283  0.0000E+00  0.1003E-03  0.1313E-04  0.9391E-03  0.1272E-01  0.9953E+02
   -0.559994   11.32749  0.0000E+00  0.9435E-04  0.9674E-05  0.1049E-02  0.1139E-01 -0.1329E+04
   -0.594995   11.33226  0.0000E+00  0.8731E-04  0.6761E-05  0.1157E-02  0.1035E-01 -0.3547E+03
   -0.629996   11.33824  0.0000E+00  0.8077E-04  0.4678E-05  0.1170E-02  0.9832E-02 -0.1285E+02
   -0.664997   11.34345  0.0000E+00  0.7504E-04  0.3164E-05  0.1175E-02  0.9111E-02 -0.2060E+04
   -0.699998   11.35027  0.0000E+00  0.6993E-04  0.2303E-05  0.1177E-02  0.8318E-02  0.4932E+03
   -0.734999   11.35538  0.0000E+00  0.6552E-04  0.1879E-05  0.1228E-02  0.7552E-02  0.2469E+03
   -0.770000   11.36184  0.0000E+00  0.6157E-04  0.1523E-05  0.1251E-02  0.6857E-02 -0.2739E+05
   -0.805001   11.36865  0.0000E+00  0.5798E-04  0.1148E-05  0.1205E-02  0.6191E-02  0.2422E+04
   -0.840002   11.37455  0.0000E+00  0.5467E-04  0.8901E-06  0.1203E-02  0.5586E-02  0.3595E+04
   -0.875003   11.38186  0.0000E+00  0.5173E-04  0.7158E-06  0.1201E-02  0.5024E-02  0.3761E+02
   -0.910004   11.38847  0.0000E+00  0.4887E-04  0.6079E-06  0.1171E-02  0.4482E-02  0.8178E+03
   -0.945005   11.39579  0.0000E+00  0.4617E-04  0.5389E-06  0.1114E-02  0.4005E-02  0.1660E+03
   -0.980005   11.40244  0.0000E+00  0.4347E-04  0.4910E-06  0.1064E-02  0.3501E-02  0.4759E+02
   -1.015006   11.40948  0.0000E+00  0.4096E-04  0.4638E-06  0.9960E-03  0.3077E-02  0.2176E+02
   -1.050006   11.41681  0.0000E+00  0.3833E-04  0.4557E-06  0.9060E-03  0.2663E-02  0.4568E+04
   -1.085006   11.42535  0.0000E+00  0.3563E-04  0.4750E-06  0.8451E-03  0.2289E-02 -0.7163E+02
   -1.120006   11.43584  0.0000E+00  0.3292E-04  0.5495E-06  0.7702E-03  0.1952E-02  0.1138E+04
   -1.155006   11.44945  0.0000E+00  0.3019E-04  0.7241E-06  0.7081E-03  0.1646E-02  0.2723E+04
   -1.190005   11.46764  0.0000E+00  0.2742E-04  0.1112E-05  0.6237E-03  0.1335E-02  0.5343E+04
   -1.225005   11.49487  0.0000E+00  0.2491E-04  0.1829E-05  0.5636E-03  0.1006E-02  0.1564E+05
   -1.260003   11.51808  0.0000E+00  0.2235E-04  0.3880E-05  0.4645E-03  0.7278E-03 -0.2963E+07
   -1.295002   11.70981  0.0000E+00  0.1965E-04  0.7964E-05  0.4498E-03  0.4790E-03  0.1235E+06
   -1.330001   11.59632  0.0000E+00  0.1649E-04  0.2075E-04  0.2827E-03  0.4056E-03 -0.3544E+08
   -1.364999   12.12429  0.0000E+00  0.1289E-04  0.3104E-04  0.3583E-03  0.2444E-03 -0.3538E+07
   -1.399996   11.83923  0.0000E+00  0.0000E+00  0.0000E+00  0.0000E+00  0.5001E-03  0.0000E+00
