 1 - depth, m
 2 - temperature, C
 3 - salinity, kg/kg
 4 - turbulent kinetic energy, m**2/s**2
 5 - dissipation rate, m**2/s**3
 6 - kinematic heat conductance, m**2/s
 7 - modulus of horizontal velocity, m/s
 8 - Richardson number, n/d
   -0.000000    7.43488  0.0000E+00  0.5135E-05  0.2354E-06  0.2479E-04  0.4987E-02  0.8731E+02
   -0.034998    7.57808  0.0000E+00  0.6429E-05  0.1058E-06  0.1351E-03  0.2439E-02  0.7814E+03
   -0.069996    7.60633  0.0000E+00  0.7212E-05  0.7847E-07  0.2140E-03  0.1957E-02  0.1053E+02
   -0.104994    7.62077  0.0000E+00  0.7918E-05  0.6602E-07  0.2806E-03  0.1684E-02  0.2628E+01
   -0.139993    7.63168  0.0000E+00  0.8622E-05  0.5827E-07  0.3711E-03  0.1447E-02  0.2280E+01
   -0.174992    7.63976  0.0000E+00  0.9309E-05  0.5321E-07  0.4483E-03  0.1246E-02  0.2373E+01
   -0.209991    7.64641  0.0000E+00  0.9975E-05  0.4982E-07  0.5196E-03  0.1070E-02  0.2001E+01
   -0.244990    7.65208  0.0000E+00  0.1062E-04  0.4761E-07  0.5864E-03  0.9139E-03  0.1878E+01
   -0.279990    7.65706  0.0000E+00  0.1123E-04  0.4628E-07  0.6555E-03  0.7738E-03  0.1794E+01
   -0.314990    7.66145  0.0000E+00  0.1181E-04  0.4570E-07  0.7343E-03  0.6473E-03  0.1637E+01
   -0.349990    7.66543  0.0000E+00  0.1236E-04  0.4572E-07  0.8159E-03  0.5429E-03  0.1560E+01
   -0.384990    7.66910  0.0000E+00  0.1288E-04  0.4624E-07  0.8958E-03  0.4584E-03  0.1503E+01
   -0.419990    7.67254  0.0000E+00  0.1336E-04  0.4717E-07  0.9689E-03  0.3896E-03  0.1481E+01
   -0.454991    7.67577  0.0000E+00  0.1381E-04  0.4847E-07  0.1039E-02  0.3318E-03  0.1463E+01
   -0.489991    7.67884  0.0000E+00  0.1424E-04  0.5013E-07  0.1098E-02  0.2831E-03  0.1511E+01
   -0.524992    7.68177  0.0000E+00  0.1470E-04  0.5229E-07  0.1172E-02  0.2459E-03  0.1639E+01
   -0.559993    7.68497  0.0000E+00  0.1518E-04  0.5497E-07  0.1238E-02  0.2175E-03  0.2115E+01
   -0.594994    7.68873  0.0000E+00  0.1569E-04  0.5814E-07  0.1251E-02  0.1970E-03  0.3007E+01
   -0.629995    7.69411  0.0000E+00  0.1609E-04  0.6099E-07  0.1249E-02  0.1720E-03  0.5406E+01
   -0.664996    7.69961  0.0000E+00  0.1642E-04  0.6375E-07  0.1245E-02  0.1617E-03  0.5966E+01
   -0.699997    7.70517  0.0000E+00  0.1669E-04  0.6662E-07  0.1239E-02  0.1521E-03  0.6772E+01
   -0.734998    7.71077  0.0000E+00  0.1692E-04  0.6972E-07  0.1222E-02  0.1434E-03  0.7789E+01
   -0.769999    7.71659  0.0000E+00  0.1711E-04  0.7315E-07  0.1238E-02  0.1349E-03  0.9737E+01
   -0.805000    7.72245  0.0000E+00  0.1725E-04  0.7711E-07  0.1155E-02  0.1270E-03  0.1329E+02
   -0.840001    7.72889  0.0000E+00  0.1735E-04  0.8167E-07  0.1158E-02  0.1191E-03  0.2886E+02
   -0.875002    7.73543  0.0000E+00  0.1740E-04  0.8727E-07  0.1099E-02  0.1116E-03  0.1160E+05
   -0.910002    7.74276  0.0000E+00  0.1739E-04  0.9423E-07  0.1059E-02  0.1042E-03 -0.6834E+03
   -0.945003    7.75048  0.0000E+00  0.1732E-04  0.1028E-06  0.1023E-02  0.9691E-04  0.5352E+04
   -0.980004    7.75921  0.0000E+00  0.1718E-04  0.1141E-06  0.9745E-03  0.8951E-04  0.2557E+05
   -1.015004    7.76884  0.0000E+00  0.1697E-04  0.1301E-06  0.9419E-03  0.8194E-04  0.2090E+04
   -1.050004    7.78049  0.0000E+00  0.1667E-04  0.1527E-06  0.8751E-03  0.7408E-04  0.1290E+07
   -1.085004    7.79463  0.0000E+00  0.1628E-04  0.1868E-06  0.7748E-03  0.6593E-04  0.8608E+05
   -1.120004    7.81470  0.0000E+00  0.1576E-04  0.2354E-06  0.7318E-03  0.5788E-04  0.7701E+05
   -1.155004    7.83605  0.0000E+00  0.1519E-04  0.3246E-06  0.6532E-03  0.4981E-04  0.1294E+08
   -1.190003    7.86650  0.0000E+00  0.1452E-04  0.4595E-06  0.6158E-03  0.4112E-04  0.1381E+07
   -1.225002    7.90087  0.0000E+00  0.1392E-04  0.6563E-06  0.5228E-03  0.3219E-04 -0.7124E+07
   -1.260001    7.94076  0.0000E+00  0.1314E-04  0.1599E-05  0.4408E-03  0.2456E-04  0.1734E+10
   -1.295000    8.20671  0.0000E+00  0.1225E-04  0.2573E-05  0.4363E-03  0.1727E-04  0.2693E+09
   -1.329998    8.05329  0.0000E+00  0.1068E-04  0.7290E-05  0.2409E-03  0.1476E-04 -0.1397E+11
   -1.364996    8.73886  0.0000E+00  0.8322E-05  0.1133E-04  0.2459E-03  0.9139E-05 -0.1765E+08
   -1.399994    8.51231  0.0000E+00  0.0000E+00  0.0000E+00  0.0000E+00  0.1717E-04  0.0000E+00
