 1 - depth, m
 2 - temperature, C
 3 - salinity, kg/kg
 4 - turbulent kinetic energy, m**2/s**2
 5 - dissipation rate, m**2/s**3
 6 - kinematic heat conductance, m**2/s
 7 - modulus of horizontal velocity, m/s
 8 - Richardson number, n/d
   -0.000000    5.91108  0.0000E+00  0.4781E-03  0.1333E-02  0.7432E-04  0.2501E+00 -0.1485E-01
   -0.034998    6.33332  0.0000E+00  0.2525E-03  0.5256E-03  0.1445E-03  0.7591E-01 -0.1193E+00
   -0.069996    6.47058  0.0000E+00  0.1670E-03  0.1673E-03  0.1865E-03  0.4401E-01 -0.3528E+00
   -0.104994    6.53445  0.0000E+00  0.1321E-03  0.1003E-03  0.2004E-03  0.3331E-01 -0.2891E+00
   -0.139993    6.56794  0.0000E+00  0.1106E-03  0.6524E-04  0.2077E-03  0.2741E-01 -0.4078E-01
   -0.174992    6.59120  0.0000E+00  0.9394E-04  0.4242E-04  0.2189E-03  0.2312E-01  0.1032E+01
   -0.209991    6.61018  0.0000E+00  0.8166E-04  0.2760E-04  0.2435E-03  0.1983E-01  0.1448E+02
   -0.244991    6.62526  0.0000E+00  0.7212E-04  0.1719E-04  0.2747E-03  0.1720E-01  0.1892E+02
   -0.279990    6.63853  0.0000E+00  0.6438E-04  0.1055E-04  0.2954E-03  0.1476E-01  0.1402E+03
   -0.314990    6.65286  0.0000E+00  0.5769E-04  0.6649E-05  0.3366E-03  0.1224E-01  0.5996E+02
   -0.349990    6.66417  0.0000E+00  0.5240E-04  0.4269E-05  0.3659E-03  0.1055E-01  0.4360E+02
   -0.384991    6.67414  0.0000E+00  0.4810E-04  0.2818E-05  0.3992E-03  0.9177E-02  0.2012E+02
   -0.419991    6.68370  0.0000E+00  0.4466E-04  0.1925E-05  0.4379E-03  0.8031E-02  0.1587E+02
   -0.454992    6.69245  0.0000E+00  0.4190E-04  0.1407E-05  0.4871E-03  0.6947E-02  0.1454E+03
   -0.489992    6.70070  0.0000E+00  0.3967E-04  0.1087E-05  0.5417E-03  0.5912E-02  0.6978E+02
   -0.524993    6.70837  0.0000E+00  0.3768E-04  0.8566E-06  0.6160E-03  0.4969E-02  0.7863E+02
   -0.559994    6.71623  0.0000E+00  0.3572E-04  0.6877E-06  0.6929E-03  0.4250E-02  0.1640E+03
   -0.594995    6.72514  0.0000E+00  0.3349E-04  0.5433E-06  0.7953E-03  0.3716E-02 -0.2388E+02
   -0.629996    6.73475  0.0000E+00  0.3143E-04  0.4367E-06  0.8469E-03  0.3392E-02  0.1255E+04
   -0.664997    6.74430  0.0000E+00  0.2968E-04  0.3623E-06  0.8614E-03  0.3064E-02  0.8978E+03
   -0.699998    6.75308  0.0000E+00  0.2814E-04  0.3070E-06  0.8742E-03  0.2748E-02  0.6407E+03
   -0.734999    6.76191  0.0000E+00  0.2679E-04  0.2648E-06  0.8962E-03  0.2441E-02  0.5148E+01
   -0.770000    6.77034  0.0000E+00  0.2555E-04  0.2316E-06  0.9014E-03  0.2165E-02  0.1065E+04
   -0.805001    6.77885  0.0000E+00  0.2440E-04  0.2046E-06  0.9031E-03  0.1905E-02  0.7480E+03
   -0.840002    6.78740  0.0000E+00  0.2340E-04  0.1844E-06  0.9442E-03  0.1658E-02  0.3224E+02
   -0.875003    6.79551  0.0000E+00  0.2253E-04  0.1694E-06  0.9145E-03  0.1477E-02  0.1678E+02
   -0.910004    6.80409  0.0000E+00  0.2168E-04  0.1578E-06  0.9180E-03  0.1303E-02  0.6311E+02
   -0.945005    6.81266  0.0000E+00  0.2092E-04  0.1505E-06  0.8847E-03  0.1150E-02  0.2378E+02
   -0.980005    6.82171  0.0000E+00  0.2016E-04  0.1465E-06  0.7966E-03  0.1022E-02  0.8098E+01
   -1.015006    6.83182  0.0000E+00  0.1927E-04  0.1454E-06  0.7749E-03  0.8592E-03  0.1454E+02
   -1.050006    6.84264  0.0000E+00  0.1843E-04  0.1506E-06  0.7188E-03  0.7269E-03  0.3431E+02
   -1.085006    6.85610  0.0000E+00  0.1761E-04  0.1640E-06  0.6779E-03  0.6150E-03 -0.1406E+03
   -1.120006    6.87154  0.0000E+00  0.1673E-04  0.1923E-06  0.6349E-03  0.5235E-03  0.2111E+04
   -1.155006    6.89440  0.0000E+00  0.1580E-04  0.2451E-06  0.5929E-03  0.4360E-03  0.5460E+05
   -1.190005    6.91641  0.0000E+00  0.1481E-04  0.3598E-06  0.5335E-03  0.3553E-03  0.4770E+04
   -1.225004    6.96188  0.0000E+00  0.1393E-04  0.5408E-06  0.4732E-03  0.2683E-03  0.6106E+05
   -1.260003    6.98114  0.0000E+00  0.1292E-04  0.1103E-05  0.3710E-03  0.2002E-03 -0.1363E+08
   -1.295002    7.25054  0.0000E+00  0.1180E-04  0.2050E-05  0.3796E-03  0.1355E-03  0.5407E+07
   -1.330001    7.09480  0.0000E+00  0.1005E-04  0.5034E-05  0.2140E-03  0.1181E-03 -0.1309E+09
   -1.364999    7.77976  0.0000E+00  0.7746E-05  0.8656E-05  0.2142E-03  0.7023E-04 -0.3954E+07
   -1.399996    7.54157  0.0000E+00  0.0000E+00  0.0000E+00  0.0000E+00  0.1398E-03  0.0000E+00
