 1 - depth, m
 2 - temperature, C
 3 - salinity, kg/kg
 4 - turbulent kinetic energy, m**2/s**2
 5 - dissipation rate, m**2/s**3
 6 - kinematic heat conductance, m**2/s
 7 - modulus of horizontal velocity, m/s
 8 - Richardson number, n/d
   -0.000000    0.00016  0.0000E+00  0.3439E-03  0.4790E-03  0.8324E-04  0.2608E+00  0.5974E-01
   -0.035007    0.12464  0.0000E+00  0.2150E-03  0.1843E-03  0.1378E-03  0.8731E-01  0.1861E-01
   -0.070015    0.20448  0.0000E+00  0.1580E-03  0.7971E-04  0.1712E-03  0.5382E-01  0.1201E+00
   -0.105023    0.24903  0.0000E+00  0.1297E-03  0.4695E-04  0.1779E-03  0.4271E-01 -0.1183E-02
   -0.140031    0.28059  0.0000E+00  0.1109E-03  0.2928E-04  0.1848E-03  0.3613E-01  0.4768E-01
   -0.175040    0.30706  0.0000E+00  0.9687E-04  0.1888E-04  0.1912E-03  0.3122E-01  0.7123E-01
   -0.210049    0.33037  0.0000E+00  0.8595E-04  0.1182E-04  0.1968E-03  0.2725E-01  0.6529E-01
   -0.245058    0.35242  0.0000E+00  0.7703E-04  0.6508E-05  0.1996E-03  0.2376E-01  0.6809E-01
   -0.280067    0.37304  0.0000E+00  0.6953E-04  0.4284E-05  0.1962E-03  0.2058E-01  0.6683E-01
   -0.315077    0.39367  0.0000E+00  0.6221E-04  0.2907E-05  0.1982E-03  0.1734E-01  0.4593E+00
   -0.350086    0.41551  0.0000E+00  0.5572E-04  0.2048E-05  0.1948E-03  0.1487E-01  0.9419E+01
   -0.385096    0.43902  0.0000E+00  0.5002E-04  0.1504E-05  0.1887E-03  0.1283E-01  0.7186E+03
   -0.420106    0.46403  0.0000E+00  0.4505E-04  0.1154E-05  0.1771E-03  0.1107E-01  0.1678E+04
   -0.455116    0.49137  0.0000E+00  0.4048E-04  0.9165E-06  0.1618E-03  0.9380E-02  0.1815E+05
   -0.490127    0.52237  0.0000E+00  0.3601E-04  0.7447E-06  0.1452E-03  0.7688E-02  0.9561E+06
   -0.525137    0.56187  0.0000E+00  0.3122E-04  0.6031E-06  0.1307E-03  0.6084E-02  0.4410E+09
   -0.560148    0.63231  0.0000E+00  0.2636E-04  0.4814E-06  0.1064E-03  0.4887E-02  0.9220E+12
   -0.595158    0.81315  0.0000E+00  0.2097E-04  0.3600E-06  0.7979E-04  0.4056E-02  0.1762E+13
   -0.630169    1.29864  0.0000E+00  0.1628E-04  0.2595E-06  0.9463E-04  0.3560E-02 -0.8891E+11
   -0.665180    1.82987  0.0000E+00  0.1266E-04  0.1844E-06  0.1219E-03  0.2996E-02  0.4107E+12
   -0.700190    2.38758  0.0000E+00  0.9859E-05  0.1279E-06  0.1647E-03  0.2386E-02 -0.4643E+11
   -0.735201    3.00417  0.0000E+00  0.7855E-05  0.8712E-07  0.2218E-03  0.1734E-02 -0.8571E+10
   -0.770212    3.53803  0.0000E+00  0.6553E-05  0.5990E-07  0.2756E-03  0.1200E-02  0.3584E+12
   -0.805222    3.91443  0.0000E+00  0.5811E-05  0.4328E-07  0.3151E-03  0.7755E-03 -0.5690E+11
   -0.840233    4.12673  0.0000E+00  0.5399E-05  0.3332E-07  0.3477E-03  0.5366E-03 -0.5823E+11
   -0.875243    4.26781  0.0000E+00  0.5164E-05  0.2698E-07  0.3730E-03  0.3672E-03  0.6730E+11
   -0.910254    4.35891  0.0000E+00  0.5103E-05  0.2392E-07  0.3945E-03  0.2477E-03 -0.3942E+11
   -0.945264    4.39992  0.0000E+00  0.5108E-05  0.2237E-07  0.4085E-03  0.1856E-03 -0.3528E+11
   -0.980274    4.43074  0.0000E+00  0.5139E-05  0.2158E-07  0.4173E-03  0.1419E-03  0.8427E+11
   -1.015284    4.45710  0.0000E+00  0.5187E-05  0.2132E-07  0.4204E-03  0.1086E-03  0.5427E+11
   -1.050294    4.48200  0.0000E+00  0.5246E-05  0.2149E-07  0.4178E-03  0.8412E-04  0.9923E+11
   -1.085304    4.50675  0.0000E+00  0.5312E-05  0.2205E-07  0.4104E-03  0.6627E-04  0.4358E+11
   -1.120313    4.53244  0.0000E+00  0.5379E-05  0.2304E-07  0.3977E-03  0.5283E-04  0.2492E+11
   -1.155323    4.55873  0.0000E+00  0.5444E-05  0.2456E-07  0.3811E-03  0.4205E-04  0.3238E+11
   -1.190332    4.58589  0.0000E+00  0.5509E-05  0.2687E-07  0.3545E-03  0.3312E-04  0.4588E+11
   -1.225340    4.61444  0.0000E+00  0.5578E-05  0.3067E-07  0.3291E-03  0.2575E-04  0.5018E+11
   -1.260349    4.64683  0.0000E+00  0.5648E-05  0.3826E-07  0.2575E-03  0.1967E-04  0.1314E+12
   -1.295357    4.69322  0.0000E+00  0.5637E-05  0.5644E-07  0.2175E-03  0.1451E-04  0.1530E+13
   -1.330365    4.78185  0.0000E+00  0.5279E-05  0.1009E-06  0.1177E-03  0.1100E-04 -0.7641E+13
   -1.365373    4.97488  0.0000E+00  0.3761E-05  0.2459E-06  0.4004E-04  0.7489E-05 -0.2724E+14
   -1.400380    5.32864  0.0000E+00  0.0000E+00  0.0000E+00  0.0000E+00  0.8087E-05  0.0000E+00
