 1 - depth, m
 2 - temperature, C
 3 - salinity, kg/kg
 4 - turbulent kinetic energy, m**2/s**2
 5 - dissipation rate, m**2/s**3
 6 - kinematic heat conductance, m**2/s
 7 - modulus of horizontal velocity, m/s
 8 - Richardson number, n/d
   -0.000000    6.85952  0.0000E+00  0.6825E-03  0.2012E-02  0.8429E-04  0.3324E+00  0.4599E-01
   -0.034998    7.13066  0.0000E+00  0.3593E-03  0.7582E-03  0.1665E-03  0.9897E-01 -0.3770E-01
   -0.069996    7.22526  0.0000E+00  0.2353E-03  0.2127E-03  0.2281E-03  0.5725E-01  0.7276E-01
   -0.104994    7.27018  0.0000E+00  0.1850E-03  0.1176E-03  0.2445E-03  0.4320E-01  0.2123E+00
   -0.139993    7.29527  0.0000E+00  0.1547E-03  0.7733E-04  0.2517E-03  0.3533E-01 -0.2419E-01
   -0.174992    7.31087  0.0000E+00  0.1316E-03  0.5184E-04  0.2586E-03  0.2970E-01 -0.1116E-01
   -0.209992    7.32301  0.0000E+00  0.1144E-03  0.3565E-04  0.2695E-03  0.2559E-01 -0.2100E-01
   -0.244991    7.33251  0.0000E+00  0.1011E-03  0.2511E-04  0.2768E-03  0.2229E-01  0.6978E-03
   -0.279991    7.34139  0.0000E+00  0.9013E-04  0.1759E-04  0.2804E-03  0.1934E-01  0.2580E+01
   -0.314991    7.35153  0.0000E+00  0.8050E-04  0.1233E-04  0.3144E-03  0.1617E-01  0.7736E+01
   -0.349991    7.36035  0.0000E+00  0.7284E-04  0.8778E-05  0.3409E-03  0.1404E-01  0.1858E+01
   -0.384991    7.36751  0.0000E+00  0.6645E-04  0.6263E-05  0.3726E-03  0.1232E-01 -0.1722E+01
   -0.419992    7.37499  0.0000E+00  0.6123E-04  0.4484E-05  0.4138E-03  0.1088E-01  0.4996E+02
   -0.454993    7.38193  0.0000E+00  0.5697E-04  0.3301E-05  0.4695E-03  0.9499E-02  0.1372E+03
   -0.489993    7.38880  0.0000E+00  0.5344E-04  0.2515E-05  0.5425E-03  0.8135E-02  0.9874E+02
   -0.524994    7.39497  0.0000E+00  0.5025E-04  0.1974E-05  0.6335E-03  0.6893E-02  0.3587E+02
   -0.559995    7.40167  0.0000E+00  0.4711E-04  0.1574E-05  0.7073E-03  0.5956E-02  0.2044E+03
   -0.594996    7.40944  0.0000E+00  0.4350E-04  0.1193E-05  0.7851E-03  0.5255E-02  0.5794E+02
   -0.629997    7.41879  0.0000E+00  0.4022E-04  0.8954E-06  0.8047E-03  0.4864E-02  0.4845E+03
   -0.664998    7.42699  0.0000E+00  0.3740E-04  0.6917E-06  0.8028E-03  0.4418E-02  0.1060E+03
   -0.700000    7.43576  0.0000E+00  0.3496E-04  0.5454E-06  0.8063E-03  0.3960E-02  0.1769E+03
   -0.735001    7.44364  0.0000E+00  0.3283E-04  0.4402E-06  0.8169E-03  0.3526E-02  0.3419E+03
   -0.770002    7.45229  0.0000E+00  0.3094E-04  0.3638E-06  0.8267E-03  0.3128E-02  0.3294E+03
   -0.805003    7.46032  0.0000E+00  0.2926E-04  0.3088E-06  0.8417E-03  0.2756E-02  0.1027E+03
   -0.840004    7.46876  0.0000E+00  0.2778E-04  0.2688E-06  0.8500E-03  0.2430E-02  0.6251E+04
   -0.875005    7.47701  0.0000E+00  0.2644E-04  0.2396E-06  0.8292E-03  0.2145E-02  0.1129E+03
   -0.910006    7.48562  0.0000E+00  0.2510E-04  0.2168E-06  0.8053E-03  0.1875E-02  0.1723E+03
   -0.945007    7.49449  0.0000E+00  0.2385E-04  0.2006E-06  0.7871E-03  0.1624E-02  0.9650E+02
   -0.980007    7.50356  0.0000E+00  0.2269E-04  0.1911E-06  0.7612E-03  0.1399E-02 -0.3259E+03
   -1.015008    7.51314  0.0000E+00  0.2160E-04  0.1890E-06  0.7290E-03  0.1196E-02  0.1357E+04
   -1.050008    7.52361  0.0000E+00  0.2055E-04  0.1961E-06  0.7032E-03  0.1021E-02  0.6836E+03
   -1.085008    7.53602  0.0000E+00  0.1948E-04  0.2183E-06  0.6544E-03  0.8704E-03  0.3925E+03
   -1.120008    7.55281  0.0000E+00  0.1837E-04  0.2598E-06  0.6298E-03  0.7402E-03 -0.3940E+04
   -1.155008    7.57052  0.0000E+00  0.1724E-04  0.3454E-06  0.5736E-03  0.6239E-03  0.5081E+05
   -1.190008    7.59969  0.0000E+00  0.1608E-04  0.5184E-06  0.5145E-03  0.5016E-03  0.3722E+04
   -1.225007    7.63055  0.0000E+00  0.1506E-04  0.8357E-06  0.4582E-03  0.3861E-03  0.1412E+06
   -1.260006    7.67349  0.0000E+00  0.1387E-04  0.1575E-05  0.3845E-03  0.2836E-03 -0.1050E+08
   -1.295005    7.89831  0.0000E+00  0.1265E-04  0.2782E-05  0.3797E-03  0.1958E-03 -0.2485E+07
   -1.330003    7.75622  0.0000E+00  0.1074E-04  0.6740E-05  0.2209E-03  0.1728E-03 -0.4186E+09
   -1.365001    8.42472  0.0000E+00  0.8350E-05  0.1123E-04  0.2420E-03  0.1030E-03 -0.1873E+07
   -1.399999    8.15757  0.0000E+00  0.0000E+00  0.0000E+00  0.0000E+00  0.2129E-03  0.0000E+00
