 1 - depth, m
 2 - temperature, C
 3 - salinity, kg/kg
 4 - turbulent kinetic energy, m**2/s**2
 5 - dissipation rate, m**2/s**3
 6 - kinematic heat conductance, m**2/s
 7 - modulus of horizontal velocity, m/s
 8 - Richardson number, n/d
   -0.000000    7.54228  0.0000E+00  0.2965E-03  0.3774E-03  0.6634E-04  0.1804E+00  0.4197E-01
   -0.034998    7.87445  0.0000E+00  0.1613E-03  0.1130E-03  0.1125E-03  0.5572E-01 -0.8678E-01
   -0.069996    7.96557  0.0000E+00  0.1118E-03  0.4169E-04  0.1454E-03  0.3512E-01 -0.1851E+00
   -0.104994    8.01695  0.0000E+00  0.8784E-04  0.2107E-04  0.1595E-03  0.2769E-01 -0.2031E-01
   -0.139992    8.04715  0.0000E+00  0.7273E-04  0.1187E-04  0.1722E-03  0.2306E-01  0.1757E+00
   -0.174991    8.06918  0.0000E+00  0.6199E-04  0.7039E-05  0.1875E-03  0.1950E-01  0.1505E+00
   -0.209990    8.08728  0.0000E+00  0.5411E-04  0.4389E-05  0.2068E-03  0.1659E-01  0.2062E+01
   -0.244990    8.10299  0.0000E+00  0.4815E-04  0.2837E-05  0.2382E-03  0.1417E-01  0.3263E+02
   -0.279989    8.11636  0.0000E+00  0.4352E-04  0.1905E-05  0.2828E-03  0.1210E-01  0.1626E+03
   -0.314989    8.12958  0.0000E+00  0.3965E-04  0.1330E-05  0.3681E-03  0.1014E-01  0.2176E+03
   -0.349989    8.13923  0.0000E+00  0.3658E-04  0.9697E-06  0.4369E-03  0.8699E-02  0.3144E+03
   -0.384989    8.14753  0.0000E+00  0.3415E-04  0.7382E-06  0.5079E-03  0.7491E-02  0.2353E+03
   -0.419990    8.15466  0.0000E+00  0.3227E-04  0.5816E-06  0.5552E-03  0.6443E-02  0.1484E+03
   -0.454990    8.16096  0.0000E+00  0.3082E-04  0.4757E-06  0.5937E-03  0.5464E-02  0.1836E+03
   -0.489991    8.16682  0.0000E+00  0.2969E-04  0.4039E-06  0.6151E-03  0.4542E-02  0.1598E+03
   -0.524992    8.17244  0.0000E+00  0.2865E-04  0.3483E-06  0.6455E-03  0.3674E-02  0.2380E+02
   -0.559992    8.17858  0.0000E+00  0.2765E-04  0.3006E-06  0.6819E-03  0.2961E-02  0.6453E+01
   -0.594993    8.18571  0.0000E+00  0.2655E-04  0.2541E-06  0.7636E-03  0.2435E-02  0.5255E+02
   -0.629994    8.19411  0.0000E+00  0.2559E-04  0.2183E-06  0.8258E-03  0.2131E-02  0.2046E+01
   -0.664995    8.20202  0.0000E+00  0.2479E-04  0.1916E-06  0.8407E-03  0.1868E-02  0.3459E+01
   -0.699996    8.20981  0.0000E+00  0.2411E-04  0.1713E-06  0.8718E-03  0.1620E-02  0.4812E+02
   -0.734997    8.21737  0.0000E+00  0.2353E-04  0.1564E-06  0.9021E-03  0.1397E-02  0.2384E+01
   -0.769998    8.22480  0.0000E+00  0.2299E-04  0.1459E-06  0.9284E-03  0.1201E-02  0.1723E+01
   -0.804999    8.23213  0.0000E+00  0.2249E-04  0.1388E-06  0.9434E-03  0.1033E-02  0.1702E+01
   -0.840000    8.23952  0.0000E+00  0.2201E-04  0.1348E-06  0.9480E-03  0.8889E-03  0.1860E+01
   -0.875001    8.24697  0.0000E+00  0.2155E-04  0.1336E-06  0.9411E-03  0.7680E-03  0.2084E+01
   -0.910001    8.25470  0.0000E+00  0.2109E-04  0.1350E-06  0.9247E-03  0.6678E-03  0.2501E+01
   -0.945002    8.26267  0.0000E+00  0.2064E-04  0.1391E-06  0.8941E-03  0.5835E-03  0.5108E+01
   -0.980002    8.27122  0.0000E+00  0.2018E-04  0.1466E-06  0.8699E-03  0.5110E-03 -0.1464E+02
   -1.015003    8.28026  0.0000E+00  0.1969E-04  0.1595E-06  0.8289E-03  0.4493E-03 -0.3415E+01
   -1.050003    8.29112  0.0000E+00  0.1914E-04  0.1798E-06  0.7869E-03  0.3948E-03  0.7092E+03
   -1.085003    8.30389  0.0000E+00  0.1850E-04  0.2135E-06  0.7502E-03  0.3473E-03  0.1202E+06
   -1.120003    8.32217  0.0000E+00  0.1774E-04  0.2704E-06  0.6923E-03  0.3028E-03  0.5927E+04
   -1.155002    8.34334  0.0000E+00  0.1691E-04  0.3581E-06  0.6344E-03  0.2602E-03  0.2087E+06
   -1.190002    8.37223  0.0000E+00  0.1599E-04  0.5048E-06  0.5856E-03  0.2120E-03  0.2059E+05
   -1.225001    8.40448  0.0000E+00  0.1519E-04  0.7403E-06  0.4870E-03  0.1672E-03  0.2179E+07
   -1.260000    8.44795  0.0000E+00  0.1420E-04  0.1863E-05  0.4235E-03  0.1264E-03 -0.9503E+08
   -1.294998    8.69558  0.0000E+00  0.1313E-04  0.3048E-05  0.4179E-03  0.8919E-04  0.9831E+07
   -1.329997    8.54475  0.0000E+00  0.1131E-04  0.8262E-05  0.2318E-03  0.7646E-04 -0.6611E+09
   -1.364994    9.21687  0.0000E+00  0.8965E-05  0.1304E-04  0.2643E-03  0.4635E-04  0.3623E+05
   -1.399992    8.96989  0.0000E+00  0.0000E+00  0.0000E+00  0.0000E+00  0.9202E-04  0.0000E+00
