 1 - depth, m
 2 - temperature, C
 3 - salinity, kg/kg
 4 - turbulent kinetic energy, m**2/s**2
 5 - dissipation rate, m**2/s**3
 6 - kinematic heat conductance, m**2/s
 7 - modulus of horizontal velocity, m/s
 8 - Richardson number, n/d
   -0.000000    0.00000  0.0000E+00  0.1178E-02  0.9993E-03  0.1385E-03  0.3741E+00  0.7392E-01
   -0.035038    0.03673  0.0000E+00  0.1059E-02  0.3163E-03  0.2996E-03  0.2221E+00  0.7579E-02
   -0.070077    0.05030  0.0000E+00  0.9733E-03  0.1696E-03  0.4953E-03  0.1822E+00  0.7191E-03
   -0.105115    0.05825  0.0000E+00  0.9179E-03  0.1142E-03  0.6900E-03  0.1619E+00  0.9573E-03
   -0.140155    0.06389  0.0000E+00  0.8828E-03  0.8601E-04  0.8589E-03  0.1488E+00  0.1238E-02
   -0.175194    0.06841  0.0000E+00  0.8556E-03  0.6882E-04  0.1013E-02  0.1387E+00  0.1461E-02
   -0.210234    0.07225  0.0000E+00  0.8328E-03  0.5734E-04  0.1152E-02  0.1303E+00  0.1673E-02
   -0.245274    0.07562  0.0000E+00  0.8127E-03  0.4918E-04  0.1274E-02  0.1231E+00  0.1867E-02
   -0.280314    0.07867  0.0000E+00  0.7939E-03  0.4309E-04  0.1377E-02  0.1166E+00  0.2020E-02
   -0.315354    0.08147  0.0000E+00  0.7753E-03  0.3834E-04  0.1478E-02  0.1106E+00  0.2274E-02
   -0.350395    0.08410  0.0000E+00  0.7570E-03  0.3451E-04  0.1570E-02  0.1052E+00  0.2613E-02
   -0.385435    0.08665  0.0000E+00  0.7391E-03  0.3137E-04  0.1648E-02  0.1003E+00  0.2974E-02
   -0.420476    0.08915  0.0000E+00  0.7216E-03  0.2876E-04  0.1704E-02  0.9567E-01  0.3240E-02
   -0.455517    0.09163  0.0000E+00  0.7040E-03  0.2656E-04  0.1743E-02  0.9129E-01  0.3438E-02
   -0.490558    0.09410  0.0000E+00  0.6858E-03  0.2466E-04  0.1769E-02  0.8706E-01  0.3497E-02
   -0.525599    0.09650  0.0000E+00  0.6658E-03  0.2293E-04  0.1851E-02  0.8295E-01  0.4610E-02
   -0.560641    0.09899  0.0000E+00  0.6440E-03  0.2124E-04  0.1945E-02  0.7932E-01  0.7353E-02
   -0.595682    0.10173  0.0000E+00  0.6193E-03  0.1947E-04  0.2033E-02  0.7624E-01  0.2038E-01
   -0.630724    0.10572  0.0000E+00  0.5947E-03  0.1778E-04  0.2038E-02  0.7374E-01  0.2313E-01
   -0.665765    0.11016  0.0000E+00  0.5725E-03  0.1634E-04  0.2041E-02  0.7132E-01  0.2313E-01
   -0.700807    0.11461  0.0000E+00  0.5521E-03  0.1509E-04  0.2043E-02  0.6894E-01  0.2336E-01
   -0.735848    0.11903  0.0000E+00  0.5332E-03  0.1400E-04  0.2044E-02  0.6661E-01  0.2430E-01
   -0.770890    0.12347  0.0000E+00  0.5154E-03  0.1306E-04  0.2043E-02  0.6435E-01  0.2553E-01
   -0.805931    0.12796  0.0000E+00  0.4987E-03  0.1224E-04  0.2035E-02  0.6216E-01  0.2695E-01
   -0.840972    0.13251  0.0000E+00  0.4828E-03  0.1152E-04  0.2022E-02  0.6002E-01  0.2807E-01
   -0.876014    0.13711  0.0000E+00  0.4677E-03  0.1092E-04  0.2001E-02  0.5793E-01  0.2947E-01
   -0.911055    0.14178  0.0000E+00  0.4531E-03  0.1041E-04  0.1969E-02  0.5589E-01  0.3157E-01
   -0.946096    0.14660  0.0000E+00  0.4392E-03  0.1000E-04  0.1927E-02  0.5388E-01  0.3110E-01
   -0.981137    0.15146  0.0000E+00  0.4256E-03  0.9706E-05  0.1873E-02  0.5187E-01  0.4018E-01
   -1.016178    0.15634  0.0000E+00  0.4123E-03  0.9532E-05  0.1815E-02  0.4984E-01  0.3001E-01
   -1.051219    0.16168  0.0000E+00  0.3987E-03  0.9494E-05  0.1747E-02  0.4770E-01 -0.4695E+00
   -1.086259    0.16671  0.0000E+00  0.3848E-03  0.9651E-05  0.1665E-02  0.4566E-01  0.9362E-01
   -1.121300    0.17216  0.0000E+00  0.3704E-03  0.1009E-04  0.1554E-02  0.4361E-01 -0.8344E-01
   -1.156340    0.17839  0.0000E+00  0.3551E-03  0.1092E-04  0.1439E-02  0.4139E-01 -0.4311E+00
   -1.191380    0.18563  0.0000E+00  0.3381E-03  0.1246E-04  0.1267E-02  0.3875E-01  0.6158E+00
   -1.226419    0.19487  0.0000E+00  0.3171E-03  0.1504E-04  0.1131E-02  0.3503E-01  0.9635E-01
   -1.261459    0.20353  0.0000E+00  0.2905E-03  0.2021E-04  0.1034E-02  0.3121E-01  0.2844E+01
   -1.296498    0.21396  0.0000E+00  0.2537E-03  0.3183E-04  0.8898E-03  0.2705E-01 -0.1390E+02
   -1.331537    0.26115  0.0000E+00  0.2033E-03  0.6351E-04  0.4942E-03  0.2482E-01 -0.5137E+02
   -1.366575    0.37416  0.0000E+00  0.1345E-03  0.1497E-03  0.2465E-03  0.1977E-01  0.3446E+01
   -1.401613    0.38070  0.0000E+00  0.0000E+00  0.0000E+00  0.0000E+00  0.2312E-01  0.0000E+00
