 1 - depth, m
 2 - temperature, C
 3 - salinity, kg/kg
 4 - turbulent kinetic energy, m**2/s**2
 5 - dissipation rate, m**2/s**3
 6 - kinematic heat conductance, m**2/s
 7 - modulus of horizontal velocity, m/s
 8 - Richardson number, n/d
   -0.000000   -0.00033  0.0000E+00  0.6994E-03  0.2387E-02  0.9396E-04  0.4313E+00  0.5810E-01
   -0.034993    0.13058  0.0000E+00  0.4543E-03  0.1112E-02  0.2084E-03  0.1436E+00 -0.4822E+00
   -0.069986    0.22834  0.0000E+00  0.3322E-03  0.4421E-03  0.2982E-03  0.8115E-01  0.5333E-01
   -0.104979    0.27075  0.0000E+00  0.2740E-03  0.2727E-03  0.3212E-03  0.6071E-01  0.5531E+00
   -0.139973    0.29584  0.0000E+00  0.2372E-03  0.1846E-03  0.3356E-03  0.4982E-01  0.2312E-01
   -0.174967    0.31291  0.0000E+00  0.2110E-03  0.1281E-03  0.3449E-03  0.4313E-01 -0.1292E-01
   -0.209961    0.32620  0.0000E+00  0.1906E-03  0.8958E-04  0.3501E-03  0.3838E-01  0.3348E+00
   -0.244955    0.33786  0.0000E+00  0.1741E-03  0.6303E-04  0.3597E-03  0.3447E-01  0.2300E-01
   -0.279950    0.34873  0.0000E+00  0.1597E-03  0.4470E-04  0.3576E-03  0.3086E-01  0.2568E-01
   -0.314945    0.35973  0.0000E+00  0.1464E-03  0.3205E-04  0.3668E-03  0.2683E-01  0.9787E-01
   -0.349940    0.37109  0.0000E+00  0.1351E-03  0.2318E-04  0.3695E-03  0.2399E-01  0.1362E+01
   -0.384935    0.38306  0.0000E+00  0.1251E-03  0.1688E-04  0.3686E-03  0.2163E-01  0.1038E+04
   -0.419931    0.39527  0.0000E+00  0.1161E-03  0.1240E-04  0.3605E-03  0.1965E-01  0.5908E+02
   -0.454926    0.40843  0.0000E+00  0.1078E-03  0.9296E-05  0.3491E-03  0.1758E-01  0.7715E+03
   -0.489922    0.42334  0.0000E+00  0.9984E-04  0.7189E-05  0.3339E-03  0.1540E-01  0.7686E+05
   -0.524918    0.44408  0.0000E+00  0.9139E-04  0.5595E-05  0.3326E-03  0.1333E-01  0.4243E+08
   -0.559914    0.47421  0.0000E+00  0.8293E-04  0.4261E-05  0.3268E-03  0.1184E-01  0.1195E+12
   -0.594910    0.51942  0.0000E+00  0.7373E-04  0.3148E-05  0.2957E-03  0.1083E-01  0.7925E+08
   -0.629906    0.56656  0.0000E+00  0.6515E-04  0.2355E-05  0.2629E-03  0.1035E-01  0.3427E+09
   -0.664902    0.63023  0.0000E+00  0.5754E-04  0.1804E-05  0.2335E-03  0.9676E-02  0.1366E+09
   -0.699898    0.72650  0.0000E+00  0.5076E-04  0.1409E-05  0.2077E-03  0.8894E-02  0.5162E+09
   -0.734894    0.84024  0.0000E+00  0.4474E-04  0.1109E-05  0.1862E-03  0.8090E-02  0.7868E+10
   -0.769890    0.99708  0.0000E+00  0.3930E-04  0.8779E-06  0.1720E-03  0.7297E-02  0.1423E+11
   -0.804886    1.24221  0.0000E+00  0.3447E-04  0.7008E-06  0.1696E-03  0.6466E-02  0.1099E+12
   -0.839882    1.50502  0.0000E+00  0.3024E-04  0.5660E-06  0.1727E-03  0.5718E-02  0.4870E+09
   -0.874878    1.76421  0.0000E+00  0.2647E-04  0.4614E-06  0.1726E-03  0.5003E-02  0.3714E+13
   -0.909874    2.01993  0.0000E+00  0.2322E-04  0.3808E-06  0.1737E-03  0.4352E-02  0.5337E+12
   -0.944869    2.26894  0.0000E+00  0.2040E-04  0.3175E-06  0.1759E-03  0.3723E-02  0.8684E+13
   -0.979865    2.54193  0.0000E+00  0.1799E-04  0.2664E-06  0.1820E-03  0.3082E-02  0.4663E+14
   -1.014860    2.82899  0.0000E+00  0.1603E-04  0.2260E-06  0.1923E-03  0.2486E-02  0.2640E+14
   -1.049855    3.07171  0.0000E+00  0.1445E-04  0.1947E-06  0.2005E-03  0.2035E-02  0.1507E+14
   -1.084851    3.27973  0.0000E+00  0.1317E-04  0.1702E-06  0.2075E-03  0.1661E-02  0.9610E+13
   -1.119845    3.47753  0.0000E+00  0.1212E-04  0.1517E-06  0.2138E-03  0.1382E-02 -0.3432E+13
   -1.154840    3.66476  0.0000E+00  0.1130E-04  0.1389E-06  0.2177E-03  0.1122E-02 -0.1201E+14
   -1.189835    3.82382  0.0000E+00  0.1069E-04  0.1322E-06  0.2144E-03  0.9110E-03 -0.1591E+14
   -1.224829    3.96791  0.0000E+00  0.1018E-04  0.1318E-06  0.2100E-03  0.7332E-03 -0.1652E+14
   -1.259823    4.10643  0.0000E+00  0.9680E-05  0.1421E-06  0.1782E-03  0.5845E-03 -0.3324E+14
   -1.294816    4.24963  0.0000E+00  0.8852E-05  0.1822E-06  0.1488E-03  0.4652E-03 -0.6182E+14
   -1.329810    4.45058  0.0000E+00  0.7557E-05  0.2929E-06  0.9767E-04  0.3748E-03 -0.9789E+14
   -1.364803    4.67757  0.0000E+00  0.4998E-05  0.7190E-06  0.3332E-04  0.2950E-03 -0.7050E+15
   -1.399796    5.12005  0.0000E+00  0.0000E+00  0.0000E+00  0.0000E+00  0.3334E-03  0.0000E+00
