 1 - depth, m
 2 - temperature, C
 3 - salinity, kg/kg
 4 - turbulent kinetic energy, m**2/s**2
 5 - dissipation rate, m**2/s**3
 6 - kinematic heat conductance, m**2/s
 7 - modulus of horizontal velocity, m/s
 8 - Richardson number, n/d
   -0.000000   17.72583  0.0000E+00  0.3720E-04  0.7352E-05  0.2944E-04  0.3989E-01  0.1502E+00
   -0.034998   17.80547  0.0000E+00  0.2566E-04  0.2159E-05  0.5275E-04  0.1757E-01  0.2761E+01
   -0.069996   17.82769  0.0000E+00  0.2148E-04  0.9790E-06  0.8993E-04  0.1265E-01  0.1563E+00
   -0.104995   17.84112  0.0000E+00  0.1942E-04  0.5588E-06  0.1807E-03  0.1006E-01  0.5504E+02
   -0.139994   17.84930  0.0000E+00  0.1835E-04  0.3669E-06  0.2777E-03  0.8392E-02  0.2304E+03
   -0.174993   17.85474  0.0000E+00  0.1788E-04  0.2676E-06  0.3576E-03  0.7159E-02  0.3232E+03
   -0.209993   17.85854  0.0000E+00  0.1777E-04  0.2102E-06  0.4058E-03  0.6152E-02  0.2428E+03
   -0.244993   17.86155  0.0000E+00  0.1789E-04  0.1739E-06  0.4458E-03  0.5260E-02  0.1693E+03
   -0.279993   17.86417  0.0000E+00  0.1810E-04  0.1486E-06  0.4933E-03  0.4440E-02  0.1164E+03
   -0.314993   17.86651  0.0000E+00  0.1835E-04  0.1285E-06  0.5687E-03  0.3683E-02  0.1263E+02
   -0.349993   17.86863  0.0000E+00  0.1848E-04  0.1158E-06  0.8354E-03  0.2951E-02  0.2911E+01
   -0.384994   17.87019  0.0000E+00  0.1866E-04  0.1082E-06  0.9468E-03  0.2590E-02  0.2643E+01
   -0.419995   17.87165  0.0000E+00  0.1898E-04  0.1023E-06  0.6649E-03  0.2285E-02  0.2552E+01
   -0.454995   17.87359  0.0000E+00  0.1954E-04  0.9688E-07  0.7977E-03  0.1776E-02  0.2613E+01
   -0.489996   17.87529  0.0000E+00  0.1993E-04  0.9464E-07  0.1045E-02  0.1334E-02  0.1849E+01
   -0.524998   17.87663  0.0000E+00  0.2030E-04  0.9421E-07  0.1219E-02  0.1092E-02  0.1895E+01
   -0.559999   17.87795  0.0000E+00  0.2084E-04  0.9560E-07  0.8358E-03  0.9294E-03  0.1471E+01
   -0.595000   17.88027  0.0000E+00  0.2166E-04  0.9967E-07  0.1084E-02  0.7080E-03  0.1324E+01
   -0.630001   17.88268  0.0000E+00  0.2216E-04  0.1033E-06  0.1238E-02  0.6136E-03  0.1465E+01
   -0.665003   17.88486  0.0000E+00  0.2247E-04  0.1069E-06  0.1280E-02  0.5457E-03  0.1391E+01
   -0.700004   17.88699  0.0000E+00  0.2268E-04  0.1108E-06  0.1309E-02  0.4883E-03  0.1336E+01
   -0.735005   17.88910  0.0000E+00  0.2280E-04  0.1152E-06  0.1311E-02  0.4407E-03  0.1305E+01
   -0.770007   17.89127  0.0000E+00  0.2284E-04  0.1202E-06  0.1292E-02  0.4010E-03  0.1337E+01
   -0.805008   17.89354  0.0000E+00  0.2281E-04  0.1262E-06  0.1261E-02  0.3676E-03  0.1349E+01
   -0.840009   17.89597  0.0000E+00  0.2272E-04  0.1336E-06  0.1215E-02  0.3389E-03  0.1659E+01
   -0.875010   17.89864  0.0000E+00  0.2255E-04  0.1429E-06  0.1199E-02  0.3135E-03 -0.1634E+01
   -0.910012   17.90149  0.0000E+00  0.2231E-04  0.1552E-06  0.1117E-02  0.2909E-03  0.4235E+02
   -0.945013   17.90483  0.0000E+00  0.2199E-04  0.1716E-06  0.1106E-02  0.2695E-03  0.5343E+04
   -0.980013   17.90838  0.0000E+00  0.2160E-04  0.1983E-06  0.1024E-02  0.2487E-03  0.2672E+04
   -1.015014   17.91280  0.0000E+00  0.2112E-04  0.2447E-06  0.1007E-02  0.2272E-03  0.3104E+03
   -1.050015   17.91811  0.0000E+00  0.2053E-04  0.2926E-06  0.9440E-03  0.2047E-03  0.2268E+05
   -1.085015   17.92385  0.0000E+00  0.1983E-04  0.3908E-06  0.8784E-03  0.1830E-03  0.3647E+05
   -1.120015   17.93484  0.0000E+00  0.1899E-04  0.5031E-06  0.8050E-03  0.1591E-03  0.4413E+05
   -1.155015   17.93959  0.0000E+00  0.1810E-04  0.6931E-06  0.7251E-03  0.1388E-03  0.1534E+06
   -1.190015   17.96092  0.0000E+00  0.1711E-04  0.9731E-06  0.6807E-03  0.1117E-03  0.3023E+06
   -1.225015   17.96724  0.0000E+00  0.1627E-04  0.1416E-05  0.5913E-03  0.8768E-04 -0.2449E+07
   -1.260014   18.00787  0.0000E+00  0.1520E-04  0.3498E-05  0.5285E-03  0.6517E-04  0.5890E+09
   -1.295013   18.10333  0.0000E+00  0.1410E-04  0.5329E-05  0.5035E-03  0.4611E-04  0.1407E+08
   -1.330012   18.02727  0.0000E+00  0.1216E-04  0.1487E-04  0.3077E-03  0.4061E-04 -0.1722E+10
   -1.365010   18.35385  0.0000E+00  0.9707E-05  0.2156E-04  0.3431E-03  0.2447E-04 -0.3986E+05
   -1.400008   18.22495  0.0000E+00  0.0000E+00  0.0000E+00  0.0000E+00  0.5138E-04  0.0000E+00
