 1 - depth, m
 2 - temperature, C
 3 - salinity, kg/kg
 4 - turbulent kinetic energy, m**2/s**2
 5 - dissipation rate, m**2/s**3
 6 - kinematic heat conductance, m**2/s
 7 - modulus of horizontal velocity, m/s
 8 - Richardson number, n/d
   -0.000000   13.29439  0.0000E+00  0.6778E-03  0.2230E-02  0.9732E-04  0.3631E+00 -0.3421E-01
   -0.034998   13.57485  0.0000E+00  0.3703E-03  0.1013E-02  0.1471E-03  0.1145E+00 -0.2256E-01
   -0.069996   13.67222  0.0000E+00  0.2432E-03  0.3568E-03  0.2221E-03  0.6503E-01  0.3348E+00
   -0.104994   13.71245  0.0000E+00  0.1936E-03  0.2194E-03  0.2507E-03  0.4881E-01  0.2876E+01
   -0.139993   13.73426  0.0000E+00  0.1631E-03  0.1447E-03  0.2651E-03  0.3979E-01 -0.2869E+00
   -0.174992   13.74855  0.0000E+00  0.1407E-03  0.9677E-04  0.2794E-03  0.3360E-01 -0.3515E-01
   -0.209991   13.75932  0.0000E+00  0.1238E-03  0.6409E-04  0.3051E-03  0.2904E-01  0.3625E-01
   -0.244991   13.76688  0.0000E+00  0.1107E-03  0.4028E-04  0.3260E-03  0.2542E-01  0.3192E+01
   -0.279990   13.77438  0.0000E+00  0.1003E-03  0.2482E-04  0.3454E-03  0.2214E-01  0.8461E+01
   -0.314990   13.78293  0.0000E+00  0.9123E-04  0.1566E-04  0.4080E-03  0.1875E-01  0.3632E+02
   -0.349990   13.78842  0.0000E+00  0.8394E-04  0.1017E-04  0.4769E-03  0.1648E-01  0.7056E+02
   -0.384991   13.79348  0.0000E+00  0.7796E-04  0.6742E-05  0.5555E-03  0.1464E-01  0.2880E+03
   -0.419991   13.79773  0.0000E+00  0.7322E-04  0.4738E-05  0.6608E-03  0.1307E-01  0.1778E+03
   -0.454992   13.80202  0.0000E+00  0.6944E-04  0.3447E-05  0.7599E-03  0.1158E-01  0.4300E+03
   -0.489992   13.80550  0.0000E+00  0.6627E-04  0.2600E-05  0.8274E-03  0.1011E-01  0.1044E+04
   -0.524993   13.80931  0.0000E+00  0.6315E-04  0.2034E-05  0.8848E-03  0.8688E-02  0.6830E+03
   -0.559994   13.81261  0.0000E+00  0.5974E-04  0.1630E-05  0.9397E-03  0.7535E-02  0.3789E+04
   -0.594995   13.81690  0.0000E+00  0.5558E-04  0.1234E-05  0.9978E-03  0.6596E-02  0.1231E+03
   -0.629996   13.82202  0.0000E+00  0.5191E-04  0.9162E-06  0.1049E-02  0.6026E-02  0.8572E+02
   -0.664997   13.82682  0.0000E+00  0.4885E-04  0.7181E-06  0.1059E-02  0.5472E-02  0.4373E+03
   -0.699998   13.83172  0.0000E+00  0.4624E-04  0.5887E-06  0.1075E-02  0.4913E-02 -0.4232E+04
   -0.734999   13.83701  0.0000E+00  0.4393E-04  0.4977E-06  0.1098E-02  0.4400E-02 -0.1499E+05
   -0.770000   13.84172  0.0000E+00  0.4187E-04  0.4321E-06  0.1087E-02  0.3924E-02  0.9915E+03
   -0.805001   13.84673  0.0000E+00  0.3992E-04  0.3810E-06  0.1089E-02  0.3468E-02  0.7002E+02
   -0.840002   13.85185  0.0000E+00  0.3805E-04  0.3412E-06  0.1077E-02  0.3046E-02  0.9389E+02
   -0.875003   13.85717  0.0000E+00  0.3629E-04  0.3112E-06  0.1092E-02  0.2647E-02  0.6591E+02
   -0.910004   13.86228  0.0000E+00  0.3466E-04  0.2907E-06  0.1046E-02  0.2324E-02  0.5081E+02
   -0.945005   13.86738  0.0000E+00  0.3305E-04  0.2777E-06  0.9920E-03  0.2023E-02  0.4134E+03
   -0.980005   13.87286  0.0000E+00  0.3144E-04  0.2726E-06  0.9236E-03  0.1740E-02  0.1842E+03
   -1.015006   13.87857  0.0000E+00  0.2984E-04  0.2781E-06  0.8586E-03  0.1481E-02  0.1571E+03
   -1.050006   13.88506  0.0000E+00  0.2823E-04  0.3004E-06  0.7924E-03  0.1241E-02 -0.2231E+03
   -1.085006   13.89292  0.0000E+00  0.2664E-04  0.3464E-06  0.7468E-03  0.1047E-02 -0.2426E+04
   -1.120006   13.90297  0.0000E+00  0.2494E-04  0.4357E-06  0.7065E-03  0.8787E-03  0.5362E+03
   -1.155006   13.91616  0.0000E+00  0.2321E-04  0.6170E-06  0.6588E-03  0.7261E-03  0.3457E+06
   -1.190005   13.93467  0.0000E+00  0.2150E-04  0.9879E-06  0.6116E-03  0.5742E-03  0.1966E+06
   -1.225004   13.95594  0.0000E+00  0.2009E-04  0.1677E-05  0.5368E-03  0.4327E-03  0.7134E+06
   -1.260003   13.98539  0.0000E+00  0.1857E-04  0.3750E-05  0.4726E-03  0.3154E-03 -0.3856E+08
   -1.295002   14.14538  0.0000E+00  0.1699E-04  0.6566E-05  0.4677E-03  0.2200E-03  0.3465E+07
   -1.330000   14.03738  0.0000E+00  0.1450E-04  0.1780E-04  0.2866E-03  0.1913E-03 -0.5613E+09
   -1.364999   14.49174  0.0000E+00  0.1155E-04  0.2630E-04  0.3447E-03  0.1136E-03  0.1414E+09
   -1.399996   14.28579  0.0000E+00  0.0000E+00  0.0000E+00  0.0000E+00  0.2455E-03  0.0000E+00
