 1 - depth, m
 2 - temperature, C
 3 - salinity, kg/kg
 4 - turbulent kinetic energy, m**2/s**2
 5 - dissipation rate, m**2/s**3
 6 - kinematic heat conductance, m**2/s
 7 - modulus of horizontal velocity, m/s
 8 - Richardson number, n/d
   -0.000000   19.92591  0.0000E+00  0.1455E-04  0.1238E-05  0.2148E-04  0.1718E-01 -0.1467E+00
   -0.034998   19.97983  0.0000E+00  0.1271E-04  0.4303E-06  0.8600E-04  0.9019E-02  0.2558E+02
   -0.069996   19.99496  0.0000E+00  0.1218E-04  0.2412E-06  0.1508E-03  0.6664E-02  0.3627E+02
   -0.104994   20.00287  0.0000E+00  0.1220E-04  0.1704E-06  0.2793E-03  0.5430E-02  0.5457E+03
   -0.139993   20.00658  0.0000E+00  0.1255E-04  0.1361E-06  0.3528E-03  0.4693E-02  0.5299E+01
   -0.174992   20.00938  0.0000E+00  0.1306E-04  0.1140E-06  0.4082E-03  0.4046E-02  0.4734E+01
   -0.209991   20.01181  0.0000E+00  0.1364E-04  0.9898E-07  0.4598E-03  0.3479E-02  0.4095E+01
   -0.244990   20.01397  0.0000E+00  0.1425E-04  0.8827E-07  0.5123E-03  0.2970E-02  0.3873E+01
   -0.279990   20.01591  0.0000E+00  0.1486E-04  0.8044E-07  0.5720E-03  0.2505E-02  0.3848E+01
   -0.314990   20.01764  0.0000E+00  0.1544E-04  0.7461E-07  0.6501E-03  0.2068E-02  0.2884E+01
   -0.349990   20.01919  0.0000E+00  0.1599E-04  0.7050E-07  0.7334E-03  0.1699E-02  0.2297E+01
   -0.384990   20.02058  0.0000E+00  0.1652E-04  0.6789E-07  0.8156E-03  0.1389E-02  0.1917E+01
   -0.419990   20.02186  0.0000E+00  0.1703E-04  0.6662E-07  0.8899E-03  0.1133E-02  0.1729E+01
   -0.454991   20.02305  0.0000E+00  0.1750E-04  0.6653E-07  0.9552E-03  0.9120E-03  0.1575E+01
   -0.489992   20.02419  0.0000E+00  0.1796E-04  0.6752E-07  0.1007E-02  0.7213E-03  0.1454E+01
   -0.524992   20.02527  0.0000E+00  0.1843E-04  0.6963E-07  0.1076E-02  0.5609E-03  0.1277E+01
   -0.559993   20.02641  0.0000E+00  0.1890E-04  0.7274E-07  0.1180E-02  0.4479E-03  0.1254E+01
   -0.594994   20.02760  0.0000E+00  0.1933E-04  0.7647E-07  0.1341E-02  0.3782E-03  0.1179E+01
   -0.629995   20.02902  0.0000E+00  0.1961E-04  0.7966E-07  0.1414E-02  0.3348E-03  0.1434E+01
   -0.664996   20.03042  0.0000E+00  0.1979E-04  0.8272E-07  0.1401E-02  0.3082E-03  0.1440E+01
   -0.699997   20.03185  0.0000E+00  0.1992E-04  0.8600E-07  0.1375E-02  0.2847E-03  0.1509E+01
   -0.734998   20.03333  0.0000E+00  0.1999E-04  0.8965E-07  0.1345E-02  0.2644E-03  0.1630E+01
   -0.769999   20.03489  0.0000E+00  0.2002E-04  0.9386E-07  0.1306E-02  0.2464E-03  0.1852E+01
   -0.805000   20.03654  0.0000E+00  0.2000E-04  0.9885E-07  0.1274E-02  0.2304E-03  0.1983E-01
   -0.840001   20.03830  0.0000E+00  0.1993E-04  0.1049E-06  0.1226E-02  0.2157E-03 -0.1243E+01
   -0.875002   20.04022  0.0000E+00  0.1979E-04  0.1127E-06  0.1188E-02  0.2019E-03  0.8405E+02
   -0.910003   20.04235  0.0000E+00  0.1960E-04  0.1226E-06  0.1135E-02  0.1885E-03 -0.2811E+01
   -0.945003   20.04477  0.0000E+00  0.1932E-04  0.1352E-06  0.1107E-02  0.1751E-03 -0.1582E+04
   -0.980004   20.04727  0.0000E+00  0.1898E-04  0.1529E-06  0.1067E-02  0.1620E-03  0.1353E+04
   -1.015004   20.05070  0.0000E+00  0.1855E-04  0.1805E-06  0.9714E-03  0.1472E-03  0.3473E+06
   -1.050004   20.05438  0.0000E+00  0.1802E-04  0.2141E-06  0.9180E-03  0.1327E-03  0.1158E+06
   -1.085004   20.05874  0.0000E+00  0.1737E-04  0.2790E-06  0.8483E-03  0.1178E-03  0.5369E+04
   -1.120004   20.06711  0.0000E+00  0.1662E-04  0.3552E-06  0.7821E-03  0.1023E-03  0.5138E+06
   -1.155004   20.07073  0.0000E+00  0.1583E-04  0.5075E-06  0.7036E-03  0.8855E-04  0.3191E+06
   -1.190003   20.08529  0.0000E+00  0.1496E-04  0.7200E-06  0.6664E-03  0.7104E-04  0.1863E+07
   -1.225002   20.09138  0.0000E+00  0.1421E-04  0.1062E-05  0.5833E-03  0.5499E-04 -0.6264E+07
   -1.260001   20.12163  0.0000E+00  0.1322E-04  0.2500E-05  0.5200E-03  0.4055E-04  0.8990E+09
   -1.295000   20.19082  0.0000E+00  0.1226E-04  0.3818E-05  0.4779E-03  0.2814E-04  0.1581E+09
   -1.329998   20.13319  0.0000E+00  0.1052E-04  0.1061E-04  0.2701E-03  0.2523E-04 -0.2579E+10
   -1.364996   20.38585  0.0000E+00  0.8359E-05  0.1592E-04  0.3163E-03  0.1477E-04 -0.8450E+06
   -1.399994   20.29085  0.0000E+00  0.0000E+00  0.0000E+00  0.0000E+00  0.3260E-04  0.0000E+00
