 1 - depth, m
 2 - temperature, C
 3 - salinity, kg/kg
 4 - turbulent kinetic energy, m**2/s**2
 5 - dissipation rate, m**2/s**3
 6 - kinematic heat conductance, m**2/s
 7 - modulus of horizontal velocity, m/s
 8 - Richardson number, n/d
   -0.000000    6.66326  0.0000E+00  0.3245E-04  0.7341E-05  0.2396E-04  0.3045E-01 -0.8863E-01
   -0.034998    6.84779  0.0000E+00  0.2221E-04  0.2180E-05  0.7756E-04  0.1265E-01  0.4600E+02
   -0.069996    6.89545  0.0000E+00  0.1863E-04  0.1067E-05  0.1504E-03  0.9224E-02  0.2540E+02
   -0.104994    6.92052  0.0000E+00  0.1673E-04  0.6259E-06  0.2075E-03  0.7503E-02  0.6630E+01
   -0.139993    6.93772  0.0000E+00  0.1559E-04  0.4057E-06  0.2757E-03  0.6271E-02  0.5586E+01
   -0.174992    6.95050  0.0000E+00  0.1490E-04  0.2830E-06  0.3285E-03  0.5313E-02  0.8194E+02
   -0.209991    6.96082  0.0000E+00  0.1452E-04  0.2094E-06  0.3807E-03  0.4528E-02  0.4964E+02
   -0.244991    6.96947  0.0000E+00  0.1433E-04  0.1630E-06  0.4334E-03  0.3860E-02  0.7211E+02
   -0.279991    6.97681  0.0000E+00  0.1427E-04  0.1321E-06  0.4930E-03  0.3275E-02  0.1257E+03
   -0.314990    6.98306  0.0000E+00  0.1429E-04  0.1106E-06  0.5592E-03  0.2745E-02  0.8024E+02
   -0.349991    6.98849  0.0000E+00  0.1437E-04  0.9538E-07  0.6230E-03  0.2300E-02  0.2802E+02
   -0.384991    6.99343  0.0000E+00  0.1450E-04  0.8447E-07  0.6839E-03  0.1921E-02  0.2167E+02
   -0.419991    6.99805  0.0000E+00  0.1468E-04  0.7681E-07  0.7402E-03  0.1596E-02  0.5507E+01
   -0.454992    7.00243  0.0000E+00  0.1490E-04  0.7171E-07  0.7966E-03  0.1306E-02  0.2538E+01
   -0.489993    7.00657  0.0000E+00  0.1516E-04  0.6862E-07  0.8475E-03  0.1044E-02  0.1875E+01
   -0.524994    7.01058  0.0000E+00  0.1548E-04  0.6695E-07  0.9280E-03  0.8086E-03  0.1422E+01
   -0.559994    7.01492  0.0000E+00  0.1585E-04  0.6636E-07  0.1040E-02  0.6290E-03  0.1296E+01
   -0.594995    7.01979  0.0000E+00  0.1621E-04  0.6643E-07  0.1153E-02  0.5110E-03  0.1199E+01
   -0.629997    7.02583  0.0000E+00  0.1644E-04  0.6684E-07  0.1200E-02  0.4422E-03  0.1442E+01
   -0.664998    7.03168  0.0000E+00  0.1660E-04  0.6767E-07  0.1202E-02  0.3945E-03  0.1439E+01
   -0.699999    7.03752  0.0000E+00  0.1672E-04  0.6898E-07  0.1202E-02  0.3524E-03  0.1476E+01
   -0.735000    7.04339  0.0000E+00  0.1680E-04  0.7076E-07  0.1192E-02  0.3168E-03  0.1577E+01
   -0.770001    7.04939  0.0000E+00  0.1685E-04  0.7304E-07  0.1174E-02  0.2865E-03  0.1776E+01
   -0.805002    7.05562  0.0000E+00  0.1686E-04  0.7589E-07  0.1145E-02  0.2611E-03  0.2157E+01
   -0.840003    7.06219  0.0000E+00  0.1683E-04  0.7943E-07  0.1112E-02  0.2390E-03  0.3287E+01
   -0.875004    7.06916  0.0000E+00  0.1676E-04  0.8391E-07  0.1071E-02  0.2199E-03  0.2798E+01
   -0.910005    7.07683  0.0000E+00  0.1665E-04  0.8962E-07  0.1038E-02  0.2024E-03  0.1806E+01
   -0.945005    7.08494  0.0000E+00  0.1648E-04  0.9782E-07  0.9827E-03  0.1867E-03  0.1189E+03
   -0.980006    7.09452  0.0000E+00  0.1626E-04  0.1080E-06  0.9329E-03  0.1709E-03  0.6528E+04
   -1.015006    7.10424  0.0000E+00  0.1597E-04  0.1228E-06  0.8916E-03  0.1557E-03 -0.2472E+04
   -1.050007    7.11811  0.0000E+00  0.1560E-04  0.1439E-06  0.8427E-03  0.1395E-03  0.2914E+05
   -1.085007    7.13109  0.0000E+00  0.1513E-04  0.1799E-06  0.7715E-03  0.1243E-03  0.7088E+03
   -1.120007    7.15724  0.0000E+00  0.1456E-04  0.2289E-06  0.6976E-03  0.1079E-03  0.7946E+06
   -1.155007    7.17357  0.0000E+00  0.1395E-04  0.3106E-06  0.6126E-03  0.9279E-04  0.1568E+06
   -1.190006    7.21535  0.0000E+00  0.1326E-04  0.4442E-06  0.5883E-03  0.7520E-04  0.3067E+06
   -1.225005    7.24218  0.0000E+00  0.1268E-04  0.6498E-06  0.4968E-03  0.5828E-04  0.6112E+06
   -1.260004    7.30480  0.0000E+00  0.1193E-04  0.1626E-05  0.4176E-03  0.4374E-04  0.1263E+09
   -1.295003    7.57625  0.0000E+00  0.1109E-04  0.2599E-05  0.4134E-03  0.3003E-04  0.7211E+08
   -1.330001    7.38814  0.0000E+00  0.9585E-05  0.6286E-05  0.2259E-03  0.2638E-04 -0.1391E+11
   -1.365000    8.17267  0.0000E+00  0.7529E-05  0.1012E-04  0.2524E-03  0.1565E-04 -0.1137E+07
   -1.399997    7.91176  0.0000E+00  0.0000E+00  0.0000E+00  0.0000E+00  0.3123E-04  0.0000E+00
