 1 - depth, m
 2 - temperature, C
 3 - salinity, kg/kg
 4 - turbulent kinetic energy, m**2/s**2
 5 - dissipation rate, m**2/s**3
 6 - kinematic heat conductance, m**2/s
 7 - modulus of horizontal velocity, m/s
 8 - Richardson number, n/d
   -0.000000   -0.00093  0.0000E+00  0.3380E-03  0.5546E-03  0.9056E-04  0.2510E+00  0.1306E+00
   -0.034998    0.12253  0.0000E+00  0.2134E-03  0.2354E-03  0.1337E-03  0.8561E-01  0.3034E-01
   -0.069997    0.20244  0.0000E+00  0.1540E-03  0.8452E-04  0.1647E-03  0.5262E-01  0.1276E+00
   -0.104996    0.24390  0.0000E+00  0.1252E-03  0.4813E-04  0.1709E-03  0.4129E-01  0.8600E-01
   -0.139995    0.27365  0.0000E+00  0.1066E-03  0.2925E-04  0.1781E-03  0.3467E-01  0.5850E-01
   -0.174994    0.29768  0.0000E+00  0.9314E-04  0.1848E-04  0.1863E-03  0.2984E-01  0.4721E-01
   -0.209994    0.31859  0.0000E+00  0.8292E-04  0.1189E-04  0.1919E-03  0.2606E-01  0.3504E-01
   -0.244994    0.33809  0.0000E+00  0.7473E-04  0.7717E-05  0.1949E-03  0.2279E-01  0.3100E+00
   -0.279994    0.35691  0.0000E+00  0.6758E-04  0.5154E-05  0.1915E-03  0.1980E-01  0.1007E+00
   -0.314995    0.37659  0.0000E+00  0.6063E-04  0.3537E-05  0.1933E-03  0.1676E-01  0.4873E+00
   -0.349995    0.39699  0.0000E+00  0.5441E-04  0.2498E-05  0.1895E-03  0.1445E-01  0.1061E+02
   -0.384996    0.41957  0.0000E+00  0.4884E-04  0.1812E-05  0.1829E-03  0.1252E-01  0.2652E+04
   -0.419997    0.44559  0.0000E+00  0.4399E-04  0.1359E-05  0.1713E-03  0.1086E-01  0.4188E+04
   -0.454998    0.47974  0.0000E+00  0.3957E-04  0.1051E-05  0.1564E-03  0.9223E-02  0.6129E+05
   -0.489999    0.55824  0.0000E+00  0.3534E-04  0.8351E-06  0.1414E-03  0.7523E-02  0.3969E+07
   -0.525001    0.74581  0.0000E+00  0.3094E-04  0.6657E-06  0.1416E-03  0.5864E-02  0.1505E+10
   -0.560002    1.04118  0.0000E+00  0.2664E-04  0.5302E-06  0.1490E-03  0.4692E-02  0.1919E+11
   -0.595003    1.28872  0.0000E+00  0.2193E-04  0.4032E-06  0.1469E-03  0.3940E-02  0.7120E+10
   -0.630005    1.76856  0.0000E+00  0.1786E-04  0.3037E-06  0.1706E-03  0.3531E-02  0.2395E+11
   -0.665006    2.05288  0.0000E+00  0.1443E-04  0.2248E-06  0.1727E-03  0.3093E-02  0.4948E+11
   -0.700008    2.40893  0.0000E+00  0.1173E-04  0.1644E-06  0.1945E-03  0.2573E-02  0.7365E+11
   -0.735010    2.79489  0.0000E+00  0.9651E-05  0.1192E-06  0.2296E-03  0.2059E-02  0.1228E+13
   -0.770011    3.17541  0.0000E+00  0.8110E-05  0.8604E-07  0.2672E-03  0.1593E-02  0.1612E+12
   -0.805013    3.54687  0.0000E+00  0.6960E-05  0.6219E-07  0.3070E-03  0.1192E-02  0.4055E+11
   -0.840014    3.83602  0.0000E+00  0.6096E-05  0.4467E-07  0.3417E-03  0.8633E-03  0.3080E+11
   -0.875016    4.11844  0.0000E+00  0.5574E-05  0.3283E-07  0.3680E-03  0.5312E-03  0.1161E+11
   -0.910017    4.31683  0.0000E+00  0.5378E-05  0.2698E-07  0.3923E-03  0.3284E-03  0.2534E+10
   -0.945018    4.40683  0.0000E+00  0.5326E-05  0.2418E-07  0.4070E-03  0.2276E-03  0.1870E+10
   -0.980019    4.45448  0.0000E+00  0.5339E-05  0.2289E-07  0.4170E-03  0.1642E-03  0.4554E+10
   -1.015020    4.48714  0.0000E+00  0.5382E-05  0.2244E-07  0.4223E-03  0.1222E-03  0.2951E+10
   -1.050021    4.51481  0.0000E+00  0.5439E-05  0.2255E-07  0.4226E-03  0.9321E-04  0.3011E+10
   -1.085021    4.54109  0.0000E+00  0.5504E-05  0.2314E-07  0.4163E-03  0.7195E-04  0.7356E+10
   -1.120022    4.56737  0.0000E+00  0.5567E-05  0.2421E-07  0.4094E-03  0.5614E-04  0.8281E+10
   -1.155022    4.59391  0.0000E+00  0.5629E-05  0.2591E-07  0.3844E-03  0.4361E-04  0.2753E+11
   -1.190022    4.62145  0.0000E+00  0.5688E-05  0.2850E-07  0.3597E-03  0.3376E-04  0.1560E+12
   -1.225022    4.65039  0.0000E+00  0.5750E-05  0.3286E-07  0.3302E-03  0.2569E-04  0.2945E+12
   -1.260021    4.68358  0.0000E+00  0.5809E-05  0.4202E-07  0.2638E-03  0.1918E-04 -0.1680E+13
   -1.295020    4.72969  0.0000E+00  0.5782E-05  0.6388E-07  0.2230E-03  0.1398E-04 -0.4797E+11
   -1.330019    4.81783  0.0000E+00  0.5401E-05  0.1174E-06  0.1194E-03  0.1058E-04 -0.2908E+14
   -1.365018    5.01372  0.0000E+00  0.3837E-05  0.2785E-06  0.4202E-04  0.7161E-05 -0.2494E+14
   -1.400016    5.35637  0.0000E+00  0.0000E+00  0.0000E+00  0.0000E+00  0.7901E-05  0.0000E+00
