 1 - depth, m
 2 - temperature, C
 3 - salinity, kg/kg
 4 - turbulent kinetic energy, m**2/s**2
 5 - dissipation rate, m**2/s**3
 6 - kinematic heat conductance, m**2/s
 7 - modulus of horizontal velocity, m/s
 8 - Richardson number, n/d
   -0.000000    0.00009  0.0000E+00  0.4178E-03  0.8944E-03  0.8322E-04  0.3057E+00  0.1745E+00
   -0.035003    0.12304  0.0000E+00  0.2681E-03  0.4064E-03  0.1552E-03  0.1021E+00  0.1290E-01
   -0.070006    0.20626  0.0000E+00  0.1949E-03  0.1544E-03  0.2075E-03  0.6058E-01  0.1862E+00
   -0.105009    0.24592  0.0000E+00  0.1597E-03  0.9258E-04  0.2151E-03  0.4636E-01  0.1276E+00
   -0.140013    0.27399  0.0000E+00  0.1379E-03  0.5946E-04  0.2225E-03  0.3885E-01  0.3774E-01
   -0.175017    0.29651  0.0000E+00  0.1218E-03  0.3912E-04  0.2309E-03  0.3364E-01 -0.6438E-01
   -0.210022    0.31553  0.0000E+00  0.1090E-03  0.2599E-04  0.2372E-03  0.2970E-01  0.6501E-01
   -0.245026    0.33273  0.0000E+00  0.9861E-04  0.1732E-04  0.2410E-03  0.2631E-01  0.4237E-01
   -0.280031    0.34892  0.0000E+00  0.8957E-04  0.1160E-04  0.2402E-03  0.2310E-01  0.8010E-01
   -0.315036    0.36510  0.0000E+00  0.8097E-04  0.7900E-05  0.2442E-03  0.1957E-01  0.2011E+00
   -0.350041    0.38213  0.0000E+00  0.7350E-04  0.5526E-05  0.2429E-03  0.1702E-01  0.2245E+01
   -0.385046    0.40089  0.0000E+00  0.6684E-04  0.3929E-05  0.2389E-03  0.1493E-01  0.1054E+04
   -0.420052    0.42137  0.0000E+00  0.6101E-04  0.2847E-05  0.2294E-03  0.1315E-01  0.8936E+02
   -0.455058    0.44278  0.0000E+00  0.5564E-04  0.2085E-05  0.2155E-03  0.1139E-01  0.2226E+03
   -0.490063    0.46584  0.0000E+00  0.5038E-04  0.1558E-05  0.2006E-03  0.9587E-02  0.1078E+05
   -0.525069    0.49508  0.0000E+00  0.4482E-04  0.1190E-05  0.1906E-03  0.7897E-02  0.5642E+07
   -0.560075    0.53924  0.0000E+00  0.3912E-04  0.9214E-06  0.1708E-03  0.6675E-02  0.2111E+10
   -0.595081    0.62002  0.0000E+00  0.3274E-04  0.6842E-06  0.1338E-03  0.5844E-02  0.1156E+11
   -0.630087    0.81889  0.0000E+00  0.2694E-04  0.5041E-06  0.1090E-03  0.5390E-02  0.1839E+11
   -0.665093    1.09502  0.0000E+00  0.2207E-04  0.3801E-06  0.1028E-03  0.4825E-02  0.4346E+09
   -0.700100    1.39147  0.0000E+00  0.1787E-04  0.2886E-06  0.1079E-03  0.4221E-02  0.7211E+10
   -0.735106    1.72534  0.0000E+00  0.1431E-04  0.2161E-06  0.1154E-03  0.3569E-02  0.3330E+11
   -0.770112    2.12270  0.0000E+00  0.1130E-04  0.1562E-06  0.1368E-03  0.2881E-02  0.2182E+11
   -0.805118    2.64035  0.0000E+00  0.9019E-05  0.1110E-06  0.1766E-03  0.2175E-02  0.1400E+12
   -0.840124    3.14773  0.0000E+00  0.7425E-05  0.7867E-07  0.2204E-03  0.1557E-02  0.2787E+12
   -0.875130    3.54291  0.0000E+00  0.6351E-05  0.5709E-07  0.2598E-03  0.1120E-02 -0.9688E+11
   -0.910136    3.86184  0.0000E+00  0.5657E-05  0.4236E-07  0.2898E-03  0.7574E-03 -0.3973E+12
   -0.945142    4.07759  0.0000E+00  0.5284E-05  0.3369E-07  0.3140E-03  0.5179E-03  0.4256E+11
   -0.980147    4.20826  0.0000E+00  0.5081E-05  0.2835E-07  0.3319E-03  0.3599E-03  0.1456E+12
   -1.015153    4.31672  0.0000E+00  0.4981E-05  0.2515E-07  0.3426E-03  0.2454E-03  0.3738E+12
   -1.050158    4.39061  0.0000E+00  0.4970E-05  0.2371E-07  0.3493E-03  0.1669E-03  0.1157E+12
   -1.085163    4.43787  0.0000E+00  0.4996E-05  0.2331E-07  0.3514E-03  0.1220E-03  0.2867E+12
   -1.120168    4.47393  0.0000E+00  0.5041E-05  0.2366E-07  0.3455E-03  0.9108E-04  0.1450E+12
   -1.155173    4.50704  0.0000E+00  0.5096E-05  0.2474E-07  0.3354E-03  0.6794E-04  0.2845E+12
   -1.190178    4.53954  0.0000E+00  0.5158E-05  0.2673E-07  0.3148E-03  0.5017E-04  0.5100E+12
   -1.225182    4.57311  0.0000E+00  0.5231E-05  0.3028E-07  0.2917E-03  0.3626E-04  0.3793E+12
   -1.260186    4.61148  0.0000E+00  0.5309E-05  0.3733E-07  0.2380E-03  0.2567E-04  0.6798E+12
   -1.295190    4.66294  0.0000E+00  0.5317E-05  0.5499E-07  0.1985E-03  0.1785E-04  0.1613E+12
   -1.330193    4.76525  0.0000E+00  0.4999E-05  0.9818E-07  0.1125E-03  0.1318E-04 -0.2697E+13
   -1.365196    4.96125  0.0000E+00  0.3591E-05  0.2373E-06  0.3762E-04  0.8765E-05 -0.1022E+15
   -1.400199    5.33143  0.0000E+00  0.0000E+00  0.0000E+00  0.0000E+00  0.1009E-04  0.0000E+00
