 1 - depth, m
 2 - temperature, C
 3 - salinity, kg/kg
 4 - turbulent kinetic energy, m**2/s**2
 5 - dissipation rate, m**2/s**3
 6 - kinematic heat conductance, m**2/s
 7 - modulus of horizontal velocity, m/s
 8 - Richardson number, n/d
   -0.000000   17.30340  0.0000E+00  0.3983E-03  0.1343E-02  0.8998E-04  0.2469E+00  0.2875E-01
   -0.034998   17.58229  0.0000E+00  0.2110E-03  0.6347E-03  0.1036E-03  0.8016E-01 -0.1254E-01
   -0.069995   17.75194  0.0000E+00  0.1383E-03  0.2299E-03  0.1824E-03  0.4433E-01  0.2024E+01
   -0.104994   17.81385  0.0000E+00  0.1093E-03  0.1422E-03  0.2058E-03  0.3295E-01  0.1886E+01
   -0.139992   17.83881  0.0000E+00  0.9175E-04  0.9333E-04  0.2207E-03  0.2674E-01  0.1368E+02
   -0.174991   17.85830  0.0000E+00  0.7838E-04  0.6044E-04  0.2700E-03  0.2217E-01  0.4950E+02
   -0.209990   17.87048  0.0000E+00  0.6892E-04  0.3874E-04  0.3242E-03  0.1902E-01  0.3179E+02
   -0.244989   17.87840  0.0000E+00  0.6192E-04  0.2460E-04  0.3737E-03  0.1656E-01  0.1869E+03
   -0.279988   17.88676  0.0000E+00  0.5644E-04  0.1563E-04  0.4421E-03  0.1428E-01  0.3026E+03
   -0.314988   17.89528  0.0000E+00  0.5204E-04  0.1009E-04  0.5515E-03  0.1199E-01  0.8560E+03
   -0.349988   17.89973  0.0000E+00  0.4854E-04  0.6634E-05  0.6000E-03  0.1041E-01  0.3544E+03
   -0.384988   17.90367  0.0000E+00  0.4569E-04  0.4404E-05  0.6465E-03  0.9038E-02  0.1413E+03
   -0.419988   17.90725  0.0000E+00  0.4342E-04  0.2989E-05  0.6987E-03  0.7835E-02  0.2482E+03
   -0.454989   17.91078  0.0000E+00  0.4163E-04  0.2030E-05  0.7335E-03  0.6697E-02  0.6766E+04
   -0.489989   17.91430  0.0000E+00  0.4012E-04  0.1411E-05  0.7671E-03  0.5576E-02  0.4644E+03
   -0.524990   17.91792  0.0000E+00  0.3864E-04  0.1019E-05  0.8152E-03  0.4510E-02 -0.1097E+05
   -0.559990   17.92124  0.0000E+00  0.3715E-04  0.7947E-06  0.8784E-03  0.3695E-02 -0.1624E+02
   -0.594991   17.92456  0.0000E+00  0.3554E-04  0.6135E-06  0.9882E-03  0.3104E-02  0.4065E+02
   -0.629992   17.92834  0.0000E+00  0.3427E-04  0.4785E-06  0.1073E-02  0.2786E-02 -0.1401E+03
   -0.664993   17.93207  0.0000E+00  0.3323E-04  0.3631E-06  0.1017E-02  0.2511E-02  0.1817E+03
   -0.699994   17.93561  0.0000E+00  0.3227E-04  0.3012E-06  0.9907E-03  0.2224E-02 -0.1694E+02
   -0.734994   17.93938  0.0000E+00  0.3134E-04  0.2597E-06  0.9924E-03  0.1938E-02  0.6251E+03
   -0.769995   17.94311  0.0000E+00  0.3046E-04  0.2345E-06  0.9994E-03  0.1675E-02 -0.1361E+03
   -0.804996   17.94678  0.0000E+00  0.2960E-04  0.2176E-06  0.1011E-02  0.1443E-02  0.5598E+01
   -0.839997   17.95035  0.0000E+00  0.2883E-04  0.2088E-06  0.1047E-02  0.1242E-02  0.3858E+02
   -0.874997   17.95403  0.0000E+00  0.2809E-04  0.2050E-06  0.1025E-02  0.1084E-02  0.1068E+02
   -0.909998   17.95773  0.0000E+00  0.2738E-04  0.2059E-06  0.9994E-03  0.9518E-03  0.2565E+02
   -0.944998   17.96159  0.0000E+00  0.2663E-04  0.2117E-06  0.9623E-03  0.8317E-03  0.3638E+03
   -0.979999   17.96564  0.0000E+00  0.2588E-04  0.2239E-06  0.9370E-03  0.7330E-03  0.1631E+02
   -1.014999   17.96988  0.0000E+00  0.2505E-04  0.2461E-06  0.8778E-03  0.6353E-03  0.5750E+03
   -1.049999   17.97527  0.0000E+00  0.2419E-04  0.2839E-06  0.8621E-03  0.5540E-03  0.5338E+02
   -1.084999   17.98095  0.0000E+00  0.2320E-04  0.3483E-06  0.8080E-03  0.4850E-03 -0.3274E+05
   -1.119999   17.99005  0.0000E+00  0.2206E-04  0.4603E-06  0.7681E-03  0.4196E-03  0.9880E+05
   -1.154998   17.99862  0.0000E+00  0.2083E-04  0.7084E-06  0.6843E-03  0.3579E-03  0.5130E+05
   -1.189997   18.01550  0.0000E+00  0.1956E-04  0.1022E-05  0.6543E-03  0.2896E-03  0.7775E+05
   -1.224996   18.02766  0.0000E+00  0.1844E-04  0.1599E-05  0.5667E-03  0.2248E-03  0.1510E+07
   -1.259995   18.05922  0.0000E+00  0.1709E-04  0.3675E-05  0.5104E-03  0.1655E-03 -0.1122E+09
   -1.294994   18.15672  0.0000E+00  0.1579E-04  0.5796E-05  0.4756E-03  0.1174E-03  0.1148E+08
   -1.329992   18.08963  0.0000E+00  0.1355E-04  0.1701E-04  0.2814E-03  0.1036E-03 -0.1333E+10
   -1.364990   18.40922  0.0000E+00  0.1081E-04  0.2473E-04  0.3383E-03  0.6231E-04 -0.1248E+06
   -1.399987   18.27571  0.0000E+00  0.0000E+00  0.0000E+00  0.0000E+00  0.1347E-03  0.0000E+00
