 1 - depth, m
 2 - temperature, C
 3 - salinity, kg/kg
 4 - turbulent kinetic energy, m**2/s**2
 5 - dissipation rate, m**2/s**3
 6 - kinematic heat conductance, m**2/s
 7 - modulus of horizontal velocity, m/s
 8 - Richardson number, n/d
   -0.000000   -0.00081  0.0000E+00  0.2549E-03  0.2556E-03  0.7461E-04  0.2079E+00  0.1671E+00
   -0.035000    0.11809  0.0000E+00  0.1613E-03  0.9701E-04  0.1286E-03  0.6956E-01  0.9160E-01
   -0.070000    0.18492  0.0000E+00  0.1187E-03  0.3638E-04  0.1405E-03  0.4564E-01  0.4633E+00
   -0.105001    0.22762  0.0000E+00  0.9644E-04  0.2014E-04  0.1467E-03  0.3676E-01  0.1526E+00
   -0.140002    0.26016  0.0000E+00  0.8181E-04  0.1222E-04  0.1520E-03  0.3112E-01  0.1227E+01
   -0.175003    0.28853  0.0000E+00  0.7099E-04  0.7741E-05  0.1579E-03  0.2681E-01  0.1180E+00
   -0.210005    0.31426  0.0000E+00  0.6265E-04  0.5057E-05  0.1615E-03  0.2328E-01  0.9318E-01
   -0.245007    0.33830  0.0000E+00  0.5594E-04  0.3392E-05  0.1624E-03  0.2023E-01  0.1046E+00
   -0.280009    0.36141  0.0000E+00  0.5003E-04  0.2312E-05  0.1569E-03  0.1745E-01  0.1057E+00
   -0.315011    0.38484  0.0000E+00  0.4406E-04  0.1597E-05  0.1550E-03  0.1465E-01  0.6964E+00
   -0.350013    0.40948  0.0000E+00  0.3867E-04  0.1140E-05  0.1483E-03  0.1244E-01  0.1204E+02
   -0.385016    0.43679  0.0000E+00  0.3387E-04  0.8420E-06  0.1383E-03  0.1057E-01  0.3285E+03
   -0.420019    0.46787  0.0000E+00  0.2969E-04  0.6437E-06  0.1240E-03  0.8954E-02  0.1417E+04
   -0.455022    0.50592  0.0000E+00  0.2591E-04  0.5050E-06  0.1069E-03  0.7377E-02  0.9246E+04
   -0.490025    0.55809  0.0000E+00  0.2229E-04  0.4005E-06  0.8933E-04  0.5767E-02  0.2311E+06
   -0.525028    0.65732  0.0000E+00  0.1844E-04  0.3099E-06  0.7667E-04  0.4202E-02  0.6683E+08
   -0.560031    0.86898  0.0000E+00  0.1460E-04  0.2295E-06  0.6518E-04  0.3036E-02  0.5492E+11
   -0.595034    1.45181  0.0000E+00  0.1069E-04  0.1508E-06  0.7697E-04  0.2152E-02  0.1534E+12
   -0.630038    2.49610  0.0000E+00  0.7642E-05  0.9241E-07  0.1547E-03  0.1645E-02  0.9818E+10
   -0.665041    3.18343  0.0000E+00  0.5871E-05  0.5582E-07  0.2006E-03  0.1108E-02  0.5175E+12
   -0.700044    3.81190  0.0000E+00  0.5018E-05  0.3629E-07  0.2695E-03  0.6731E-03  0.5672E+12
   -0.735048    4.18405  0.0000E+00  0.4730E-05  0.2722E-07  0.3155E-03  0.3654E-03  0.1563E+13
   -0.770051    4.31542  0.0000E+00  0.4665E-05  0.2312E-07  0.3510E-03  0.2461E-03  0.1619E+13
   -0.805054    4.36135  0.0000E+00  0.4675E-05  0.2088E-07  0.3774E-03  0.1859E-03  0.5455E+12
   -0.840058    4.39307  0.0000E+00  0.4722E-05  0.1959E-07  0.3999E-03  0.1446E-03  0.1780E+12
   -0.875061    4.41897  0.0000E+00  0.4791E-05  0.1886E-07  0.4161E-03  0.1147E-03  0.5818E+11
   -0.910064    4.44243  0.0000E+00  0.4870E-05  0.1849E-07  0.4288E-03  0.9269E-04  0.1470E+12
   -0.945067    4.46458  0.0000E+00  0.4955E-05  0.1838E-07  0.4369E-03  0.7588E-04  0.1333E+11
   -0.980070    4.48601  0.0000E+00  0.5043E-05  0.1852E-07  0.4418E-03  0.6300E-04  0.2581E+11
   -1.015073    4.50687  0.0000E+00  0.5133E-05  0.1888E-07  0.4423E-03  0.5288E-04  0.1675E+11
   -1.050075    4.52789  0.0000E+00  0.5225E-05  0.1949E-07  0.4386E-03  0.4465E-04  0.2650E+11
   -1.085078    4.54949  0.0000E+00  0.5315E-05  0.2039E-07  0.4303E-03  0.3783E-04  0.1369E+12
   -1.120080    4.57229  0.0000E+00  0.5401E-05  0.2163E-07  0.4170E-03  0.3202E-04 -0.4760E+11
   -1.155082    4.59576  0.0000E+00  0.5480E-05  0.2330E-07  0.3987E-03  0.2682E-04 -0.1663E+12
   -1.190084    4.62004  0.0000E+00  0.5554E-05  0.2564E-07  0.3715E-03  0.2211E-04 -0.9112E+11
   -1.225085    4.64519  0.0000E+00  0.5628E-05  0.2931E-07  0.3387E-03  0.1799E-04 -0.2141E+13
   -1.260087    4.67389  0.0000E+00  0.5701E-05  0.3663E-07  0.2707E-03  0.1424E-04 -0.1546E+14
   -1.295088    4.71250  0.0000E+00  0.5697E-05  0.5325E-07  0.2252E-03  0.1094E-04  0.1605E+14
   -1.330088    4.79268  0.0000E+00  0.5354E-05  0.9234E-07  0.1206E-03  0.8364E-05 -0.1024E+15
   -1.365089    4.96286  0.0000E+00  0.3794E-05  0.2242E-06  0.3976E-04  0.5770E-05 -0.2574E+14
   -1.400089    5.31268  0.0000E+00  0.0000E+00  0.0000E+00  0.0000E+00  0.6034E-05  0.0000E+00
