 1 - depth, m
 2 - temperature, C
 3 - salinity, kg/kg
 4 - turbulent kinetic energy, m**2/s**2
 5 - dissipation rate, m**2/s**3
 6 - kinematic heat conductance, m**2/s
 7 - modulus of horizontal velocity, m/s
 8 - Richardson number, n/d
   -0.000000    8.10521  0.0000E+00  0.3706E-03  0.6826E-03  0.7600E-04  0.2154E+00 -0.1388E-01
   -0.034998    8.50757  0.0000E+00  0.1948E-03  0.2296E-03  0.1305E-03  0.6517E-01 -0.4048E-01
   -0.069996    8.63548  0.0000E+00  0.1343E-03  0.8730E-04  0.1759E-03  0.3922E-01  0.9500E-01
   -0.104994    8.69759  0.0000E+00  0.1066E-03  0.4468E-04  0.1844E-03  0.3064E-01 -0.1082E-02
   -0.139993    8.73105  0.0000E+00  0.8866E-04  0.2387E-04  0.1966E-03  0.2540E-01 -0.3304E-02
   -0.174992    8.75459  0.0000E+00  0.7542E-04  0.1311E-04  0.2094E-03  0.2155E-01  0.1899E+00
   -0.209991    8.77635  0.0000E+00  0.6549E-04  0.7611E-05  0.2311E-03  0.1841E-01  0.4947E+01
   -0.244990    8.79162  0.0000E+00  0.5813E-04  0.4713E-05  0.2617E-03  0.1587E-01  0.4066E+01
   -0.279990    8.80494  0.0000E+00  0.5245E-04  0.3069E-05  0.3076E-03  0.1366E-01  0.2340E+03
   -0.314990    8.81929  0.0000E+00  0.4771E-04  0.2073E-05  0.3946E-03  0.1152E-01  0.9107E+03
   -0.349990    8.82897  0.0000E+00  0.4392E-04  0.1452E-05  0.4743E-03  0.9961E-02  0.2277E+03
   -0.384990    8.83752  0.0000E+00  0.4091E-04  0.1076E-05  0.5527E-03  0.8649E-02  0.2169E+03
   -0.419990    8.84460  0.0000E+00  0.3858E-04  0.8245E-06  0.5987E-03  0.7511E-02  0.2082E+03
   -0.454991    8.85120  0.0000E+00  0.3674E-04  0.6566E-06  0.6268E-03  0.6432E-02  0.3086E+03
   -0.489991    8.85714  0.0000E+00  0.3525E-04  0.5453E-06  0.6592E-03  0.5389E-02  0.1062E+03
   -0.524992    8.86280  0.0000E+00  0.3384E-04  0.4611E-06  0.6919E-03  0.4403E-02  0.1803E+03
   -0.559993    8.86864  0.0000E+00  0.3243E-04  0.3914E-06  0.7476E-03  0.3577E-02 -0.1656E+01
   -0.594994    8.87551  0.0000E+00  0.3091E-04  0.3267E-06  0.8261E-03  0.2989E-02  0.5913E+01
   -0.629995    8.88362  0.0000E+00  0.2954E-04  0.2760E-06  0.8273E-03  0.2651E-02  0.4661E+01
   -0.664996    8.89170  0.0000E+00  0.2841E-04  0.2392E-06  0.8911E-03  0.2304E-02  0.4894E+01
   -0.699997    8.89932  0.0000E+00  0.2754E-04  0.2136E-06  0.9256E-03  0.2025E-02  0.1841E+01
   -0.734998    8.90660  0.0000E+00  0.2676E-04  0.1939E-06  0.8828E-03  0.1776E-02  0.1569E+01
   -0.769999    8.91427  0.0000E+00  0.2596E-04  0.1775E-06  0.9050E-03  0.1517E-02  0.1678E+01
   -0.805000    8.92173  0.0000E+00  0.2523E-04  0.1664E-06  0.9174E-03  0.1299E-02  0.1620E+01
   -0.840001    8.92918  0.0000E+00  0.2453E-04  0.1597E-06  0.9235E-03  0.1111E-02  0.1681E+01
   -0.875001    8.93669  0.0000E+00  0.2387E-04  0.1567E-06  0.9227E-03  0.9524E-03  0.1760E+01
   -0.910002    8.94435  0.0000E+00  0.2323E-04  0.1571E-06  0.9133E-03  0.8213E-03  0.1906E+01
   -0.945003    8.95222  0.0000E+00  0.2262E-04  0.1613E-06  0.8984E-03  0.7110E-03  0.2230E+01
   -0.980003    8.96046  0.0000E+00  0.2202E-04  0.1701E-06  0.8685E-03  0.6182E-03  0.3000E+01
   -1.015004    8.96929  0.0000E+00  0.2141E-04  0.1864E-06  0.8424E-03  0.5382E-03 -0.8416E+02
   -1.050004    8.97957  0.0000E+00  0.2074E-04  0.2145E-06  0.8086E-03  0.4703E-03  0.1251E+03
   -1.085004    8.99167  0.0000E+00  0.1998E-04  0.2609E-06  0.7601E-03  0.4119E-03 -0.1991E+05
   -1.120004    9.00943  0.0000E+00  0.1909E-04  0.3343E-06  0.7164E-03  0.3569E-03  0.7354E+04
   -1.155003    9.02770  0.0000E+00  0.1814E-04  0.4683E-06  0.6369E-03  0.3059E-03  0.1582E+05
   -1.190003    9.05987  0.0000E+00  0.1712E-04  0.6682E-06  0.6017E-03  0.2473E-03  0.1251E+05
   -1.225002    9.08523  0.0000E+00  0.1627E-04  0.1011E-05  0.5163E-03  0.1948E-03  0.4307E+05
   -1.260001    9.13304  0.0000E+00  0.1520E-04  0.2354E-05  0.4601E-03  0.1457E-03 -0.1501E+08
   -1.294999    9.34780  0.0000E+00  0.1408E-04  0.3821E-05  0.4403E-03  0.1029E-03  0.1857E+07
   -1.329998    9.22282  0.0000E+00  0.1214E-04  0.1055E-04  0.2643E-03  0.8834E-04 -0.4406E+09
   -1.364996    9.84985  0.0000E+00  0.9616E-05  0.1622E-04  0.2845E-03  0.5342E-04 -0.8014E+06
   -1.399993    9.61042  0.0000E+00  0.0000E+00  0.0000E+00  0.0000E+00  0.1103E-03  0.0000E+00
