 1 - depth, m
 2 - temperature, C
 3 - salinity, kg/kg
 4 - turbulent kinetic energy, m**2/s**2
 5 - dissipation rate, m**2/s**3
 6 - kinematic heat conductance, m**2/s
 7 - modulus of horizontal velocity, m/s
 8 - Richardson number, n/d
   -0.000000    9.87874  0.0000E+00  0.5941E-03  0.1512E-02  0.9195E-04  0.3264E+00  0.1410E+00
   -0.034998   10.17603  0.0000E+00  0.3372E-03  0.6795E-03  0.1596E-03  0.9847E-01 -0.2220E+00
   -0.069996   10.27228  0.0000E+00  0.2252E-03  0.2058E-03  0.2177E-03  0.5785E-01  0.2738E-02
   -0.104994   10.31507  0.0000E+00  0.1790E-03  0.1095E-03  0.2366E-03  0.4461E-01  0.3047E+00
   -0.139993   10.33525  0.0000E+00  0.1507E-03  0.6439E-04  0.2585E-03  0.3715E-01  0.1533E+02
   -0.174992   10.34868  0.0000E+00  0.1302E-03  0.4083E-04  0.2684E-03  0.3183E-01  0.4171E-01
   -0.209991   10.36067  0.0000E+00  0.1145E-03  0.2609E-04  0.2918E-03  0.2771E-01  0.1018E+00
   -0.244990   10.36961  0.0000E+00  0.1025E-03  0.1687E-04  0.3083E-03  0.2426E-01  0.1459E+01
   -0.279990   10.37798  0.0000E+00  0.9291E-04  0.1120E-04  0.3247E-03  0.2115E-01  0.2172E+01
   -0.314990   10.38765  0.0000E+00  0.8462E-04  0.7595E-05  0.3763E-03  0.1798E-01  0.7811E+01
   -0.349990   10.39503  0.0000E+00  0.7780E-04  0.5270E-05  0.4212E-03  0.1575E-01  0.1922E+02
   -0.384990   10.40092  0.0000E+00  0.7217E-04  0.3690E-05  0.4887E-03  0.1394E-01  0.1175E+03
   -0.419991   10.40718  0.0000E+00  0.6762E-04  0.2698E-05  0.5643E-03  0.1239E-01  0.3283E+03
   -0.454991   10.41206  0.0000E+00  0.6390E-04  0.2042E-05  0.6642E-03  0.1092E-01  0.2315E+03
   -0.489992   10.41732  0.0000E+00  0.6081E-04  0.1604E-05  0.7669E-03  0.9495E-02  0.7533E+03
   -0.524993   10.42120  0.0000E+00  0.5785E-04  0.1312E-05  0.8579E-03  0.8165E-02  0.2838E+03
   -0.559994   10.42584  0.0000E+00  0.5458E-04  0.1072E-05  0.8875E-03  0.7053E-02 -0.2414E+01
   -0.594995   10.43112  0.0000E+00  0.5071E-04  0.8512E-06  0.9620E-03  0.6151E-02  0.2480E+03
   -0.629996   10.43703  0.0000E+00  0.4743E-04  0.6928E-06  0.1012E-02  0.5616E-02  0.5590E+02
   -0.664997   10.44331  0.0000E+00  0.4462E-04  0.5774E-06  0.9868E-03  0.5112E-02  0.1548E+02
   -0.699998   10.44937  0.0000E+00  0.4199E-04  0.4826E-06  0.9717E-03  0.4557E-02  0.2479E+03
   -0.734999   10.45581  0.0000E+00  0.3968E-04  0.4112E-06  0.1013E-02  0.4007E-02  0.1102E+03
   -0.770000   10.46171  0.0000E+00  0.3763E-04  0.3572E-06  0.1008E-02  0.3544E-02  0.1063E+03
   -0.805001   10.46806  0.0000E+00  0.3571E-04  0.3138E-06  0.1024E-02  0.3089E-02  0.1281E+02
   -0.840002   10.47406  0.0000E+00  0.3411E-04  0.2834E-06  0.1080E-02  0.2684E-02  0.7396E+01
   -0.875003   10.47992  0.0000E+00  0.3276E-04  0.2630E-06  0.1078E-02  0.2378E-02  0.2103E+02
   -0.910003   10.48574  0.0000E+00  0.3142E-04  0.2482E-06  0.1001E-02  0.2118E-02 -0.1983E+03
   -0.945004   10.49202  0.0000E+00  0.2990E-04  0.2374E-06  0.9127E-03  0.1836E-02  0.7302E+02
   -0.980005   10.49881  0.0000E+00  0.2834E-04  0.2337E-06  0.8544E-03  0.1543E-02 -0.6878E+01
   -1.015005   10.50623  0.0000E+00  0.2691E-04  0.2407E-06  0.8248E-03  0.1293E-02  0.3107E+02
   -1.050005   10.51455  0.0000E+00  0.2556E-04  0.2635E-06  0.7782E-03  0.1084E-02  0.6590E+02
   -1.085005   10.52399  0.0000E+00  0.2421E-04  0.3185E-06  0.7344E-03  0.9155E-03  0.7462E+03
   -1.120005   10.53831  0.0000E+00  0.2278E-04  0.4197E-06  0.7077E-03  0.7652E-03  0.1417E+05
   -1.155005   10.55218  0.0000E+00  0.2134E-04  0.6301E-06  0.6664E-03  0.6365E-03  0.4154E+06
   -1.190004   10.57877  0.0000E+00  0.1991E-04  0.9970E-06  0.6024E-03  0.5026E-03  0.1672E+05
   -1.225004   10.60165  0.0000E+00  0.1877E-04  0.1665E-05  0.5387E-03  0.3822E-03  0.1964E+07
   -1.260003   10.64135  0.0000E+00  0.1740E-04  0.3136E-05  0.4895E-03  0.2846E-03 -0.7950E+08
   -1.295001   10.82670  0.0000E+00  0.1604E-04  0.5314E-05  0.4662E-03  0.2002E-03  0.9214E+08
   -1.330000   10.69886  0.0000E+00  0.1376E-04  0.1362E-04  0.2916E-03  0.1746E-03 -0.1565E+10
   -1.364998   11.26690  0.0000E+00  0.1082E-04  0.2089E-04  0.3085E-03  0.1045E-03  0.1237E+07
   -1.399995   11.00783  0.0000E+00  0.0000E+00  0.0000E+00  0.0000E+00  0.2172E-03  0.0000E+00
