 1 - depth, m
 2 - temperature, C
 3 - salinity, kg/kg
 4 - turbulent kinetic energy, m**2/s**2
 5 - dissipation rate, m**2/s**3
 6 - kinematic heat conductance, m**2/s
 7 - modulus of horizontal velocity, m/s
 8 - Richardson number, n/d
   -0.000000   17.15202  0.0000E+00  0.2221E-03  0.3989E-03  0.7070E-04  0.1463E+00 -0.8813E-01
   -0.034998   17.31970  0.0000E+00  0.1238E-03  0.1585E-03  0.9231E-04  0.4867E-01 -0.1522E+00
   -0.069996   17.37179  0.0000E+00  0.8730E-04  0.5325E-04  0.1298E-03  0.3041E-01  0.5982E-01
   -0.104994   17.39728  0.0000E+00  0.7100E-04  0.3200E-04  0.1607E-03  0.2365E-01  0.1268E+03
   -0.139993   17.41078  0.0000E+00  0.6008E-04  0.1742E-04  0.2112E-03  0.1953E-01  0.4578E+03
   -0.174992   17.41999  0.0000E+00  0.5236E-04  0.1012E-04  0.2602E-03  0.1658E-01  0.1914E+03
   -0.209991   17.42701  0.0000E+00  0.4695E-04  0.5963E-05  0.3188E-03  0.1426E-01  0.5230E+03
   -0.244991   17.43250  0.0000E+00  0.4303E-04  0.3657E-05  0.3719E-03  0.1236E-01  0.8274E+03
   -0.279990   17.43688  0.0000E+00  0.4012E-04  0.2320E-05  0.4194E-03  0.1072E-01  0.5107E+03
   -0.314990   17.44169  0.0000E+00  0.3771E-04  0.1536E-05  0.4946E-03  0.9104E-02  0.2007E+03
   -0.349990   17.44498  0.0000E+00  0.3582E-04  0.1059E-05  0.5580E-03  0.7867E-02  0.1642E+03
   -0.384991   17.44788  0.0000E+00  0.3435E-04  0.7739E-06  0.6179E-03  0.6802E-02  0.3502E+03
   -0.419991   17.45048  0.0000E+00  0.3325E-04  0.5927E-06  0.6712E-03  0.5855E-02  0.2287E+03
   -0.454992   17.45294  0.0000E+00  0.3244E-04  0.4754E-06  0.7241E-03  0.4972E-02  0.1667E+03
   -0.489992   17.45517  0.0000E+00  0.3183E-04  0.4001E-06  0.7639E-03  0.4138E-02  0.1788E+03
   -0.524993   17.45748  0.0000E+00  0.3130E-04  0.3458E-06  0.8209E-03  0.3350E-02  0.1882E+02
   -0.559994   17.45971  0.0000E+00  0.3069E-04  0.3011E-06  0.9603E-03  0.2710E-02 -0.2663E+03
   -0.594995   17.46230  0.0000E+00  0.2988E-04  0.2592E-06  0.1060E-02  0.2263E-02  0.2235E+02
   -0.629996   17.46530  0.0000E+00  0.2912E-04  0.2273E-06  0.9808E-03  0.2006E-02  0.1636E+03
   -0.664997   17.46848  0.0000E+00  0.2852E-04  0.2045E-06  0.1050E-02  0.1748E-02 -0.4743E+02
   -0.699998   17.47150  0.0000E+00  0.2801E-04  0.1900E-06  0.1220E-02  0.1513E-02  0.2066E+02
   -0.734999   17.47419  0.0000E+00  0.2758E-04  0.1805E-06  0.1202E-02  0.1350E-02  0.1134E+03
   -0.770000   17.47688  0.0000E+00  0.2713E-04  0.1739E-06  0.1122E-02  0.1210E-02  0.1822E+01
   -0.805002   17.47985  0.0000E+00  0.2658E-04  0.1693E-06  0.1106E-02  0.1048E-02  0.1731E+01
   -0.840002   17.48282  0.0000E+00  0.2606E-04  0.1680E-06  0.1136E-02  0.9021E-03  0.1899E+01
   -0.875003   17.48586  0.0000E+00  0.2555E-04  0.1705E-06  0.1097E-02  0.7957E-03  0.4316E+01
   -0.910004   17.48904  0.0000E+00  0.2501E-04  0.1762E-06  0.1041E-02  0.7096E-03  0.9930E+00
   -0.945005   17.49256  0.0000E+00  0.2437E-04  0.1867E-06  0.1013E-02  0.6185E-03  0.9344E+01
   -0.980006   17.49645  0.0000E+00  0.2372E-04  0.2041E-06  0.9825E-03  0.5404E-03  0.2082E+02
   -1.015006   17.50080  0.0000E+00  0.2304E-04  0.2320E-06  0.9481E-03  0.4748E-03  0.1952E+05
   -1.050006   17.50609  0.0000E+00  0.2225E-04  0.2792E-06  0.8994E-03  0.4174E-03  0.1016E+05
   -1.085006   17.51253  0.0000E+00  0.2135E-04  0.3519E-06  0.8461E-03  0.3619E-03  0.1267E+05
   -1.120006   17.52248  0.0000E+00  0.2034E-04  0.4566E-06  0.7776E-03  0.3130E-03  0.2426E+05
   -1.155006   17.52983  0.0000E+00  0.1932E-04  0.6806E-06  0.6964E-03  0.2673E-03  0.1248E+06
   -1.190006   17.54839  0.0000E+00  0.1827E-04  0.9803E-06  0.6994E-03  0.2145E-03  0.6086E+05
   -1.225005   17.55710  0.0000E+00  0.1736E-04  0.1514E-05  0.5881E-03  0.1683E-03  0.1578E+07
   -1.260004   17.59152  0.0000E+00  0.1617E-04  0.3628E-05  0.5348E-03  0.1240E-03 -0.6115E+08
   -1.295002   17.69733  0.0000E+00  0.1500E-04  0.5540E-05  0.4916E-03  0.8841E-04  0.2027E+08
   -1.330001   17.61440  0.0000E+00  0.1302E-04  0.1639E-04  0.2803E-03  0.7770E-04 -0.1244E+10
   -1.364999   17.95247  0.0000E+00  0.1036E-04  0.2375E-04  0.3416E-03  0.4634E-04 -0.1267E+06
   -1.399997   17.80219  0.0000E+00  0.0000E+00  0.0000E+00  0.0000E+00  0.1001E-03  0.0000E+00
