 1 - depth, m
 2 - temperature, C
 3 - salinity, kg/kg
 4 - turbulent kinetic energy, m**2/s**2
 5 - dissipation rate, m**2/s**3
 6 - kinematic heat conductance, m**2/s
 7 - modulus of horizontal velocity, m/s
 8 - Richardson number, n/d
   -0.000000    0.02252  0.0000E+00  0.1665E-02  0.5193E-02  0.1498E-03  0.6393E+00  0.1559E-01
   -0.034997    0.11641  0.0000E+00  0.1373E-02  0.2796E-02  0.4285E-03  0.2616E+00 -0.9137E-01
   -0.069994    0.16945  0.0000E+00  0.1136E-02  0.1545E-02  0.5541E-03  0.1712E+00 -0.2106E+00
   -0.104991    0.19580  0.0000E+00  0.9592E-03  0.1069E-02  0.6814E-03  0.1336E+00  0.2134E-01
   -0.139989    0.21067  0.0000E+00  0.8614E-03  0.3752E-03  0.7825E-03  0.1170E+00 -0.1323E+00
   -0.174987    0.22092  0.0000E+00  0.7933E-03  0.2726E-03  0.8491E-03  0.1069E+00  0.2964E+00
   -0.209986    0.22803  0.0000E+00  0.7406E-03  0.2039E-03  0.9139E-03  0.9875E-01  0.9100E-01
   -0.244984    0.23370  0.0000E+00  0.6991E-03  0.1547E-03  0.9619E-03  0.9220E-01  0.1662E-01
   -0.279983    0.23924  0.0000E+00  0.6626E-03  0.1217E-03  0.9908E-03  0.8605E-01  0.9126E-02
   -0.314982    0.24462  0.0000E+00  0.6298E-03  0.9634E-04  0.1050E-02  0.7953E-01  0.4015E+00
   -0.349981    0.24983  0.0000E+00  0.6024E-03  0.7797E-04  0.1088E-02  0.7472E-01  0.3168E+00
   -0.384980    0.25520  0.0000E+00  0.5773E-03  0.6399E-04  0.1123E-02  0.7056E-01  0.4635E+02
   -0.419980    0.26085  0.0000E+00  0.5553E-03  0.5380E-04  0.1144E-02  0.6697E-01  0.1031E+01
   -0.454980    0.26701  0.0000E+00  0.5352E-03  0.4604E-04  0.1143E-02  0.6329E-01  0.1170E+01
   -0.489979    0.27327  0.0000E+00  0.5146E-03  0.4010E-04  0.1122E-02  0.5936E-01  0.5475E+02
   -0.524979    0.28201  0.0000E+00  0.4924E-03  0.3518E-04  0.1197E-02  0.5466E-01  0.3069E+05
   -0.559979    0.29297  0.0000E+00  0.4708E-03  0.3097E-04  0.1246E-02  0.5177E-01  0.5078E+08
   -0.594979    0.31007  0.0000E+00  0.4478E-03  0.2682E-04  0.1270E-02  0.4964E-01  0.4734E+06
   -0.629979    0.32882  0.0000E+00  0.4255E-03  0.2316E-04  0.1258E-02  0.4840E-01  0.4508E+07
   -0.664979    0.34903  0.0000E+00  0.4053E-03  0.2018E-04  0.1243E-02  0.4678E-01  0.8679E+06
   -0.699980    0.36862  0.0000E+00  0.3868E-03  0.1775E-04  0.1227E-02  0.4512E-01  0.1037E+07
   -0.734980    0.38885  0.0000E+00  0.3697E-03  0.1572E-04  0.1211E-02  0.4344E-01  0.5049E+07
   -0.769980    0.41083  0.0000E+00  0.3538E-03  0.1403E-04  0.1193E-02  0.4180E-01  0.6775E+08
   -0.804980    0.43864  0.0000E+00  0.3389E-03  0.1261E-04  0.1172E-02  0.4022E-01  0.4512E+09
   -0.839980    0.47639  0.0000E+00  0.3248E-03  0.1144E-04  0.1150E-02  0.3864E-01  0.3260E+10
   -0.874980    0.53135  0.0000E+00  0.3115E-03  0.1049E-04  0.1130E-02  0.3710E-01  0.1550E+12
   -0.909980    0.59337  0.0000E+00  0.2989E-03  0.9746E-05  0.1104E-02  0.3563E-01  0.9094E+11
   -0.944980    0.65422  0.0000E+00  0.2871E-03  0.9192E-05  0.1072E-02  0.3414E-01  0.1084E+12
   -0.979979    0.71068  0.0000E+00  0.2758E-03  0.8812E-05  0.1025E-02  0.3262E-01  0.1924E+12
   -1.014979    0.76733  0.0000E+00  0.2641E-03  0.8563E-05  0.9853E-03  0.3098E-01  0.2845E+12
   -1.049978    0.83256  0.0000E+00  0.2523E-03  0.8499E-05  0.9539E-03  0.2924E-01  0.1263E+12
   -1.084977    0.90410  0.0000E+00  0.2405E-03  0.8718E-05  0.9061E-03  0.2759E-01  0.2868E+12
   -1.119976    1.01316  0.0000E+00  0.2285E-03  0.9565E-05  0.7984E-03  0.2597E-01  0.7798E+12
   -1.154975    1.14644  0.0000E+00  0.2150E-03  0.1082E-04  0.7588E-03  0.2324E-01 -0.4704E+12
   -1.189974    1.28207  0.0000E+00  0.2019E-03  0.1279E-04  0.7065E-03  0.2105E-01 -0.3359E+13
   -1.224972    1.43866  0.0000E+00  0.1871E-03  0.1689E-04  0.6344E-03  0.1836E-01 -0.2442E+13
   -1.259970    1.61708  0.0000E+00  0.1702E-03  0.2318E-04  0.6039E-03  0.1589E-01 -0.3595E+13
   -1.294968    1.81029  0.0000E+00  0.1477E-03  0.3824E-04  0.4862E-03  0.1340E-01 -0.1915E+14
   -1.329965    2.07554  0.0000E+00  0.1191E-03  0.7750E-04  0.3274E-03  0.1216E-01 -0.4735E+14
   -1.364962    2.31041  0.0000E+00  0.8179E-04  0.1570E-03  0.1402E-03  0.9758E-02 -0.5640E+15
   -1.399959    2.61578  0.0000E+00  0.0000E+00  0.0000E+00  0.0000E+00  0.1156E-01  0.0000E+00
