 1 - depth, m
 2 - temperature, C
 3 - salinity, kg/kg
 4 - turbulent kinetic energy, m**2/s**2
 5 - dissipation rate, m**2/s**3
 6 - kinematic heat conductance, m**2/s
 7 - modulus of horizontal velocity, m/s
 8 - Richardson number, n/d
   -0.000000   17.33914  0.0000E+00  0.8419E-03  0.8194E-02  0.1273E-03  0.3878E+00  0.5186E-01
   -0.034998   17.59120  0.0000E+00  0.4561E-03  0.5505E-02  0.1649E-03  0.1214E+00 -0.1060E+00
   -0.069997   17.70136  0.0000E+00  0.2831E-03  0.1823E-02  0.2469E-03  0.6608E-01  0.8589E+00
   -0.104996   17.73780  0.0000E+00  0.2256E-03  0.1169E-02  0.2903E-03  0.4881E-01  0.5088E+00
   -0.139996   17.75746  0.0000E+00  0.1902E-03  0.7870E-03  0.3044E-03  0.3926E-01  0.2344E+01
   -0.174995   17.77078  0.0000E+00  0.1618E-03  0.5578E-03  0.3319E-03  0.3249E-01  0.3251E+02
   -0.209995   17.77924  0.0000E+00  0.1410E-03  0.3788E-03  0.3566E-03  0.2823E-01  0.4623E+02
   -0.244995   17.78619  0.0000E+00  0.1256E-03  0.2645E-03  0.3902E-03  0.2476E-01  0.1317E+03
   -0.279995   17.79276  0.0000E+00  0.1132E-03  0.1845E-03  0.4172E-03  0.2162E-01  0.6233E+03
   -0.314996   17.79995  0.0000E+00  0.1030E-03  0.1283E-03  0.4828E-03  0.1839E-01  0.1950E+03
   -0.349997   17.80488  0.0000E+00  0.9455E-04  0.8849E-04  0.5339E-03  0.1618E-01  0.9803E+02
   -0.384998   17.80881  0.0000E+00  0.8769E-04  0.5990E-04  0.6025E-03  0.1445E-01  0.1248E+04
   -0.419999   17.81191  0.0000E+00  0.8206E-04  0.3933E-04  0.6699E-03  0.1299E-01  0.6077E+02
   -0.455000   17.81547  0.0000E+00  0.7747E-04  0.2688E-04  0.7365E-03  0.1151E-01  0.1289E+03
   -0.490001   17.81825  0.0000E+00  0.7365E-04  0.1880E-04  0.7998E-03  0.1002E-01  0.7143E+03
   -0.525003   17.82187  0.0000E+00  0.7001E-04  0.1387E-04  0.8726E-03  0.8599E-02  0.1349E+04
   -0.560004   17.82447  0.0000E+00  0.6617E-04  0.1017E-04  0.9403E-03  0.7503E-02 -0.1945E+04
   -0.595006   17.82820  0.0000E+00  0.6165E-04  0.6776E-05  0.1012E-02  0.6641E-02 -0.2449E+03
   -0.630008   17.83115  0.0000E+00  0.5750E-04  0.4665E-05  0.1056E-02  0.6222E-02  0.3725E+04
   -0.665009   17.83509  0.0000E+00  0.5394E-04  0.3136E-05  0.1071E-02  0.5694E-02 -0.9098E+03
   -0.700011   17.83812  0.0000E+00  0.5084E-04  0.2121E-05  0.1107E-02  0.5168E-02  0.9703E+04
   -0.735013   17.84245  0.0000E+00  0.4807E-04  0.1488E-05  0.1129E-02  0.4641E-02  0.4812E+03
   -0.770015   17.84595  0.0000E+00  0.4562E-04  0.1099E-05  0.1163E-02  0.4156E-02  0.3435E+03
   -0.805016   17.84950  0.0000E+00  0.4351E-04  0.8749E-06  0.1169E-02  0.3764E-02  0.5043E+02
   -0.840018   17.85329  0.0000E+00  0.4146E-04  0.7026E-06  0.1147E-02  0.3390E-02  0.9060E+02
   -0.875019   17.85717  0.0000E+00  0.3955E-04  0.5611E-06  0.1135E-02  0.3027E-02  0.3617E+03
   -0.910021   17.86105  0.0000E+00  0.3779E-04  0.4898E-06  0.1104E-02  0.2714E-02  0.6420E+03
   -0.945022   17.86515  0.0000E+00  0.3604E-04  0.4355E-06  0.1055E-02  0.2419E-02  0.1066E+03
   -0.980023   17.86949  0.0000E+00  0.3429E-04  0.3897E-06  0.9981E-03  0.2123E-02  0.1220E+04
   -1.015025   17.87385  0.0000E+00  0.3256E-04  0.3674E-06  0.9489E-03  0.1850E-02 -0.4532E+03
   -1.050025   17.87890  0.0000E+00  0.3081E-04  0.3743E-06  0.8904E-03  0.1611E-02  0.9106E+03
   -1.085026   17.88456  0.0000E+00  0.2892E-04  0.4113E-06  0.8152E-03  0.1390E-02  0.1446E+05
   -1.120027   17.89267  0.0000E+00  0.2692E-04  0.4903E-06  0.7497E-03  0.1183E-02  0.1572E+05
   -1.155027   17.90140  0.0000E+00  0.2485E-04  0.6661E-06  0.6938E-03  0.9890E-03  0.1849E+07
   -1.190027   17.91501  0.0000E+00  0.2277E-04  0.1002E-05  0.6374E-03  0.7891E-03  0.7205E+07
   -1.225027   17.92943  0.0000E+00  0.2098E-04  0.1581E-05  0.5595E-03  0.5972E-03 -0.1205E+07
   -1.260027   17.94849  0.0000E+00  0.1904E-04  0.3519E-05  0.4755E-03  0.4237E-03 -0.1587E+09
   -1.295026   18.05839  0.0000E+00  0.1714E-04  0.6767E-05  0.4754E-03  0.2844E-03  0.1069E+10
   -1.330025   17.98497  0.0000E+00  0.1450E-04  0.2017E-04  0.2865E-03  0.2483E-03 -0.1818E+10
   -1.365024   18.29593  0.0000E+00  0.1143E-04  0.2914E-04  0.3553E-03  0.1483E-03  0.3977E+05
   -1.400022   18.14829  0.0000E+00  0.0000E+00  0.0000E+00  0.0000E+00  0.3016E-03  0.0000E+00
