 1 - depth, m
 2 - temperature, C
 3 - salinity, kg/kg
 4 - turbulent kinetic energy, m**2/s**2
 5 - dissipation rate, m**2/s**3
 6 - kinematic heat conductance, m**2/s
 7 - modulus of horizontal velocity, m/s
 8 - Richardson number, n/d
   -0.000000   16.40769  0.0000E+00  0.1496E-04  0.1445E-05  0.2306E-04  0.1717E-01 -0.1093E+00
   -0.034998   16.47633  0.0000E+00  0.1314E-04  0.4774E-06  0.9067E-04  0.8795E-02  0.3387E+03
   -0.069996   16.49428  0.0000E+00  0.1290E-04  0.2694E-06  0.2171E-03  0.6652E-02  0.4358E+02
   -0.104994   16.50170  0.0000E+00  0.1314E-04  0.1903E-06  0.2824E-03  0.5623E-02  0.3875E+02
   -0.139993   16.50704  0.0000E+00  0.1371E-04  0.1487E-06  0.3580E-03  0.4798E-02  0.1358E+03
   -0.174992   16.51109  0.0000E+00  0.1443E-04  0.1241E-06  0.4108E-03  0.4129E-02  0.2546E+02
   -0.209991   16.51448  0.0000E+00  0.1523E-04  0.1082E-06  0.4694E-03  0.3548E-02  0.1929E+03
   -0.244990   16.51741  0.0000E+00  0.1606E-04  0.9725E-07  0.5369E-03  0.3025E-02  0.6808E+01
   -0.279990   16.51997  0.0000E+00  0.1689E-04  0.8957E-07  0.6198E-03  0.2545E-02  0.4525E+01
   -0.314990   16.52219  0.0000E+00  0.1769E-04  0.8427E-07  0.7160E-03  0.2099E-02  0.2709E+01
   -0.349990   16.52416  0.0000E+00  0.1845E-04  0.8100E-07  0.8035E-03  0.1724E-02  0.2134E+01
   -0.384990   16.52596  0.0000E+00  0.1918E-04  0.7949E-07  0.8783E-03  0.1413E-02  0.1785E+01
   -0.419991   16.52767  0.0000E+00  0.1987E-04  0.7952E-07  0.9424E-03  0.1158E-02  0.1601E+01
   -0.454991   16.52928  0.0000E+00  0.2052E-04  0.8091E-07  0.1001E-02  0.9400E-03  0.1449E+01
   -0.489992   16.53083  0.0000E+00  0.2114E-04  0.8357E-07  0.1053E-02  0.7525E-03  0.1343E+01
   -0.524993   16.53232  0.0000E+00  0.2181E-04  0.8771E-07  0.1132E-02  0.5923E-03  0.1212E+01
   -0.559994   16.53391  0.0000E+00  0.2249E-04  0.9315E-07  0.1281E-02  0.4767E-03  0.1228E+01
   -0.594995   16.53560  0.0000E+00  0.2311E-04  0.9934E-07  0.1483E-02  0.4089E-03  0.1188E+01
   -0.629996   16.53773  0.0000E+00  0.2349E-04  0.1045E-06  0.1538E-02  0.3646E-03  0.1407E+01
   -0.664997   16.53986  0.0000E+00  0.2375E-04  0.1094E-06  0.1522E-02  0.3369E-03  0.1413E+01
   -0.699998   16.54206  0.0000E+00  0.2393E-04  0.1145E-06  0.1500E-02  0.3123E-03  0.1389E+01
   -0.734999   16.54431  0.0000E+00  0.2403E-04  0.1203E-06  0.1464E-02  0.2912E-03  0.1428E+01
   -0.770000   16.54672  0.0000E+00  0.2406E-04  0.1269E-06  0.1443E-02  0.2725E-03  0.1557E+01
   -0.805001   16.54923  0.0000E+00  0.2402E-04  0.1349E-06  0.1410E-02  0.2561E-03  0.4642E+01
   -0.840002   16.55205  0.0000E+00  0.2392E-04  0.1446E-06  0.1358E-02  0.2412E-03  0.3368E+01
   -0.875003   16.55508  0.0000E+00  0.2374E-04  0.1567E-06  0.1262E-02  0.2264E-03  0.2660E+02
   -0.910003   16.55869  0.0000E+00  0.2348E-04  0.1725E-06  0.1286E-02  0.2115E-03  0.2483E+04
   -0.945004   16.56238  0.0000E+00  0.2315E-04  0.1940E-06  0.1181E-02  0.1974E-03  0.2443E+03
   -0.980005   16.56709  0.0000E+00  0.2272E-04  0.2220E-06  0.1137E-02  0.1825E-03  0.8104E+03
   -1.015005   16.57199  0.0000E+00  0.2221E-04  0.2591E-06  0.1090E-02  0.1671E-03  0.2436E+04
   -1.050005   16.57838  0.0000E+00  0.2158E-04  0.3242E-06  0.1026E-02  0.1508E-03  0.1607E+06
   -1.085005   16.58582  0.0000E+00  0.2083E-04  0.4250E-06  0.9567E-03  0.1336E-03  0.3425E+05
   -1.120005   16.59759  0.0000E+00  0.1993E-04  0.5540E-06  0.8599E-03  0.1174E-03  0.9990E+06
   -1.155005   16.60460  0.0000E+00  0.1900E-04  0.8769E-06  0.8092E-03  0.1012E-03  0.1085E+07
   -1.190004   16.62863  0.0000E+00  0.1801E-04  0.1215E-05  0.7263E-03  0.8238E-04  0.1358E+07
   -1.225004   16.63730  0.0000E+00  0.1715E-04  0.1761E-05  0.6442E-03  0.6423E-04 -0.1284E+08
   -1.260003   16.68942  0.0000E+00  0.1604E-04  0.4172E-05  0.6158E-03  0.4795E-04  0.1949E+10
   -1.295001   16.79710  0.0000E+00  0.1495E-04  0.6266E-05  0.5603E-03  0.3414E-04  0.1140E+09
   -1.330000   16.70779  0.0000E+00  0.1307E-04  0.2027E-04  0.3065E-03  0.2995E-04 -0.1443E+11
   -1.364998   17.11311  0.0000E+00  0.1051E-04  0.2785E-04  0.3896E-03  0.1815E-04 -0.2519E+06
   -1.399995   16.92495  0.0000E+00  0.0000E+00  0.0000E+00  0.0000E+00  0.3889E-04  0.0000E+00
