 1 - depth, m
 2 - temperature, C
 3 - salinity, kg/kg
 4 - turbulent kinetic energy, m**2/s**2
 5 - dissipation rate, m**2/s**3
 6 - kinematic heat conductance, m**2/s
 7 - modulus of horizontal velocity, m/s
 8 - Richardson number, n/d
   -0.000000    0.04735  0.0000E+00  0.7760E-03  0.1894E-02  0.1068E-03  0.4200E+00  0.3925E-01
   -0.035010    0.16579  0.0000E+00  0.5619E-03  0.8391E-03  0.2759E-03  0.1460E+00 -0.2814E+00
   -0.070019    0.24595  0.0000E+00  0.4287E-03  0.4141E-03  0.3427E-03  0.8901E-01 -0.2489E+00
   -0.105030    0.28196  0.0000E+00  0.3596E-03  0.2627E-03  0.3807E-03  0.7049E-01  0.2316E+00
   -0.140040    0.30291  0.0000E+00  0.3167E-03  0.1790E-03  0.4079E-03  0.6094E-01  0.2326E+00
   -0.175051    0.31847  0.0000E+00  0.2858E-03  0.1239E-03  0.4293E-03  0.5454E-01  0.2399E+00
   -0.210062    0.33115  0.0000E+00  0.2625E-03  0.8649E-04  0.4484E-03  0.4966E-01  0.5645E-01
   -0.245073    0.34259  0.0000E+00  0.2443E-03  0.6187E-04  0.4661E-03  0.4539E-01  0.1444E-01
   -0.280085    0.35358  0.0000E+00  0.2306E-03  0.4434E-04  0.4550E-03  0.4142E-01  0.4413E-01
   -0.315096    0.37229  0.0000E+00  0.2116E-03  0.3178E-04  0.4919E-03  0.3469E-01 -0.2206E-02
   -0.350108    0.38269  0.0000E+00  0.1969E-03  0.2366E-04  0.5013E-03  0.3153E-01  0.3431E+00
   -0.385120    0.39288  0.0000E+00  0.1839E-03  0.1792E-04  0.5066E-03  0.2885E-01  0.4666E+03
   -0.420133    0.40370  0.0000E+00  0.1724E-03  0.1382E-04  0.5027E-03  0.2648E-01  0.2405E+01
   -0.455145    0.41514  0.0000E+00  0.1619E-03  0.1089E-04  0.4930E-03  0.2409E-01  0.6036E+01
   -0.490157    0.42731  0.0000E+00  0.1518E-03  0.8849E-05  0.4820E-03  0.2161E-01  0.3538E+03
   -0.525170    0.44218  0.0000E+00  0.1414E-03  0.7335E-05  0.4893E-03  0.1925E-01  0.2278E+06
   -0.560183    0.46361  0.0000E+00  0.1309E-03  0.6111E-05  0.4886E-03  0.1749E-01  0.5753E+08
   -0.595196    0.49646  0.0000E+00  0.1192E-03  0.4952E-05  0.4613E-03  0.1625E-01  0.1602E+07
   -0.630208    0.53712  0.0000E+00  0.1084E-03  0.4018E-05  0.4272E-03  0.1560E-01  0.2272E+08
   -0.665221    0.58495  0.0000E+00  0.9862E-04  0.3302E-05  0.3942E-03  0.1473E-01  0.8870E+07
   -0.700234    0.65464  0.0000E+00  0.8981E-04  0.2746E-05  0.3626E-03  0.1377E-01  0.1062E+09
   -0.735247    0.75011  0.0000E+00  0.8182E-04  0.2308E-05  0.3353E-03  0.1278E-01  0.7487E+09
   -0.770260    0.85650  0.0000E+00  0.7451E-04  0.1957E-05  0.3124E-03  0.1183E-01  0.5591E+11
   -0.805273    1.00328  0.0000E+00  0.6783E-04  0.1673E-05  0.2929E-03  0.1088E-01  0.2621E+11
   -0.840285    1.15498  0.0000E+00  0.6167E-04  0.1441E-05  0.2742E-03  0.9961E-02  0.5180E+10
   -0.875298    1.35216  0.0000E+00  0.5605E-04  0.1250E-05  0.2582E-03  0.9012E-02  0.2538E+12
   -0.910311    1.61208  0.0000E+00  0.5102E-04  0.1093E-05  0.2490E-03  0.8105E-02 -0.4026E+11
   -0.945323    1.85732  0.0000E+00  0.4658E-04  0.9665E-06  0.2437E-03  0.7258E-02  0.1654E+11
   -0.980336    2.07890  0.0000E+00  0.4263E-04  0.8635E-06  0.2392E-03  0.6428E-02  0.2161E+12
   -1.015348    2.31452  0.0000E+00  0.3907E-04  0.7810E-06  0.2368E-03  0.5626E-02  0.7658E+11
   -1.050360    2.55070  0.0000E+00  0.3577E-04  0.7143E-06  0.2360E-03  0.4889E-02  0.1341E+12
   -1.085372    2.81511  0.0000E+00  0.3290E-04  0.6660E-06  0.2385E-03  0.4186E-02  0.3517E+12
   -1.120383    3.08756  0.0000E+00  0.3042E-04  0.6392E-06  0.2401E-03  0.3670E-02  0.3121E+12
   -1.155395    3.34277  0.0000E+00  0.2826E-04  0.6356E-06  0.2396E-03  0.3171E-02  0.7937E+12
   -1.190406    3.57168  0.0000E+00  0.2648E-04  0.6621E-06  0.2361E-03  0.2715E-02  0.2819E+12
   -1.225417    3.75996  0.0000E+00  0.2482E-04  0.7316E-06  0.2276E-03  0.2316E-02  0.1198E+13
   -1.260428    3.92937  0.0000E+00  0.2304E-04  0.8926E-06  0.2092E-03  0.1970E-02  0.3155E+13
   -1.295439    4.08445  0.0000E+00  0.2048E-04  0.1353E-05  0.1743E-03  0.1685E-02  0.4244E+13
   -1.330449    4.27721  0.0000E+00  0.1703E-04  0.2404E-05  0.1129E-03  0.1509E-02  0.1610E+14
   -1.365459    4.49767  0.0000E+00  0.1128E-04  0.6251E-05  0.3435E-04  0.1219E-02 -0.2992E+15
   -1.400468    4.93576  0.0000E+00  0.0000E+00  0.0000E+00  0.0000E+00  0.1478E-02  0.0000E+00
