 1 - depth, m
 2 - temperature, C
 3 - salinity, kg/kg
 4 - turbulent kinetic energy, m**2/s**2
 5 - dissipation rate, m**2/s**3
 6 - kinematic heat conductance, m**2/s
 7 - modulus of horizontal velocity, m/s
 8 - Richardson number, n/d
   -0.000000   14.78764  0.0000E+00  0.8545E-03  0.5969E-02  0.1041E-03  0.3764E+00  0.3882E-01
   -0.034998   15.14242  0.0000E+00  0.4436E-03  0.3235E-02  0.1609E-03  0.1179E+00  0.1278E+00
   -0.069995   15.30577  0.0000E+00  0.2761E-03  0.1220E-02  0.2539E-03  0.6313E-01  0.3696E+01
   -0.104994   15.36593  0.0000E+00  0.2175E-03  0.7912E-03  0.3123E-03  0.4532E-01  0.8061E+02
   -0.139992   15.38973  0.0000E+00  0.1841E-03  0.5509E-03  0.3363E-03  0.3656E-01  0.3811E+02
   -0.174991   15.40625  0.0000E+00  0.1579E-03  0.3832E-03  0.3719E-03  0.3000E-01  0.1418E+02
   -0.209990   15.41764  0.0000E+00  0.1378E-03  0.2647E-03  0.4106E-03  0.2573E-01  0.6997E+02
   -0.244989   15.42567  0.0000E+00  0.1226E-03  0.1817E-03  0.4409E-03  0.2266E-01  0.2090E+03
   -0.279988   15.43361  0.0000E+00  0.1102E-03  0.1248E-03  0.4740E-03  0.1994E-01  0.1636E+03
   -0.314988   15.44386  0.0000E+00  0.1000E-03  0.8616E-04  0.5429E-03  0.1688E-01  0.7394E+02
   -0.349988   15.45218  0.0000E+00  0.9146E-04  0.5888E-04  0.5979E-03  0.1474E-01  0.1277E+03
   -0.384988   15.45697  0.0000E+00  0.8463E-04  0.4027E-04  0.6703E-03  0.1316E-01  0.1318E+03
   -0.419988   15.46070  0.0000E+00  0.7918E-04  0.2772E-04  0.7521E-03  0.1185E-01  0.1452E+03
   -0.454989   15.46529  0.0000E+00  0.7476E-04  0.2010E-04  0.8128E-03  0.1051E-01  0.1734E+03
   -0.489989   15.46892  0.0000E+00  0.7106E-04  0.1502E-04  0.8892E-03  0.9113E-02  0.9270E+02
   -0.524990   15.47399  0.0000E+00  0.6754E-04  0.1185E-04  0.9441E-03  0.7769E-02 -0.2055E+05
   -0.559990   15.47857  0.0000E+00  0.6403E-04  0.9373E-05  0.1021E-02  0.6768E-02 -0.2145E+04
   -0.594991   15.48196  0.0000E+00  0.6009E-04  0.6536E-05  0.1124E-02  0.6076E-02 -0.1661E+03
   -0.629992   15.48613  0.0000E+00  0.5649E-04  0.4391E-05  0.1168E-02  0.5741E-02  0.3068E+03
   -0.664993   15.49052  0.0000E+00  0.5328E-04  0.2940E-05  0.1195E-02  0.5250E-02  0.2929E+03
   -0.699994   15.49539  0.0000E+00  0.5052E-04  0.1906E-05  0.1193E-02  0.4779E-02 -0.2664E+03
   -0.734994   15.50057  0.0000E+00  0.4802E-04  0.1302E-05  0.1212E-02  0.4290E-02  0.2183E+04
   -0.769995   15.50519  0.0000E+00  0.4590E-04  0.9349E-06  0.1212E-02  0.3863E-02 -0.3744E+02
   -0.804996   15.51157  0.0000E+00  0.4393E-04  0.6911E-06  0.1192E-02  0.3452E-02  0.1022E+03
   -0.839997   15.51605  0.0000E+00  0.4207E-04  0.5657E-06  0.1227E-02  0.3074E-02  0.2229E+03
   -0.874997   15.52125  0.0000E+00  0.4039E-04  0.4912E-06  0.1168E-02  0.2768E-02  0.1454E+02
   -0.909998   15.52644  0.0000E+00  0.3872E-04  0.4316E-06  0.1122E-02  0.2487E-02  0.1329E+03
   -0.944999   15.53193  0.0000E+00  0.3703E-04  0.3967E-06  0.1084E-02  0.2198E-02 -0.4189E+02
   -0.979999   15.53748  0.0000E+00  0.3535E-04  0.3870E-06  0.1041E-02  0.1934E-02  0.1756E+02
   -1.014999   15.54398  0.0000E+00  0.3366E-04  0.3894E-06  0.9860E-03  0.1667E-02  0.1100E+03
   -1.049999   15.54984  0.0000E+00  0.3195E-04  0.4194E-06  0.9315E-03  0.1454E-02  0.2333E+02
   -1.084999   15.55902  0.0000E+00  0.3008E-04  0.4796E-06  0.8556E-03  0.1231E-02  0.4829E+04
   -1.119999   15.56802  0.0000E+00  0.2820E-04  0.5730E-06  0.7875E-03  0.1057E-02  0.2008E+05
   -1.154998   15.57937  0.0000E+00  0.2631E-04  0.7795E-06  0.7505E-03  0.8865E-03  0.1011E+06
   -1.189997   15.59804  0.0000E+00  0.2435E-04  0.1144E-05  0.6664E-03  0.7225E-03  0.5317E+05
   -1.224996   15.61617  0.0000E+00  0.2268E-04  0.1853E-05  0.6000E-03  0.5450E-03 -0.1995E+06
   -1.259995   15.64916  0.0000E+00  0.2084E-04  0.4351E-05  0.5330E-03  0.3961E-03 -0.3679E+08
   -1.294994   15.78230  0.0000E+00  0.1887E-04  0.8389E-05  0.4988E-03  0.2723E-03  0.1231E+08
   -1.329992   15.69023  0.0000E+00  0.1603E-04  0.2425E-04  0.3064E-03  0.2332E-03 -0.1082E+10
   -1.364990   16.10088  0.0000E+00  0.1269E-04  0.3409E-04  0.3734E-03  0.1455E-03  0.2577E+08
   -1.399987   15.92684  0.0000E+00  0.0000E+00  0.0000E+00  0.0000E+00  0.2928E-03  0.0000E+00
