 1 - depth, m
 2 - temperature, C
 3 - salinity, kg/kg
 4 - turbulent kinetic energy, m**2/s**2
 5 - dissipation rate, m**2/s**3
 6 - kinematic heat conductance, m**2/s
 7 - modulus of horizontal velocity, m/s
 8 - Richardson number, n/d
   -0.000000   10.13795  0.0000E+00  0.3488E-03  0.5569E-02  0.5732E-04  0.1339E+00  0.1095E+05
   -0.034998   10.29294  0.0000E+00  0.1758E-03  0.3297E-02  0.1290E-03  0.4083E-01  0.3178E+05
   -0.069996   10.34697  0.0000E+00  0.1108E-03  0.8643E-03  0.2249E-03  0.2247E-01  0.6719E+03
   -0.104994   10.36775  0.0000E+00  0.8517E-04  0.5445E-03  0.2753E-03  0.1679E-01  0.2802E+03
   -0.139993   10.38061  0.0000E+00  0.7134E-04  0.3983E-03  0.3450E-03  0.1356E-01  0.4545E+03
   -0.174992   10.38866  0.0000E+00  0.6196E-04  0.2974E-03  0.3993E-03  0.1148E-01  0.8744E+02
   -0.209991   10.39521  0.0000E+00  0.5575E-04  0.2197E-03  0.4585E-03  0.9931E-02  0.1026E+03
   -0.244991   10.40072  0.0000E+00  0.5047E-04  0.1594E-03  0.5089E-03  0.8515E-02  0.6084E+02
   -0.279991   10.40549  0.0000E+00  0.4638E-04  0.1136E-03  0.5597E-03  0.7457E-02  0.8532E+02
   -0.314991   10.40998  0.0000E+00  0.4272E-04  0.7943E-04  0.6171E-03  0.6319E-02  0.5862E+02
   -0.349991   10.41386  0.0000E+00  0.3994E-04  0.5438E-04  0.6709E-03  0.5558E-02  0.6611E+02
   -0.384991   10.41747  0.0000E+00  0.3766E-04  0.3655E-04  0.7251E-03  0.4932E-02  0.6556E+02
   -0.419992   10.42087  0.0000E+00  0.3591E-04  0.2440E-04  0.7736E-03  0.4412E-02  0.1670E+03
   -0.454992   10.42417  0.0000E+00  0.3451E-04  0.1644E-04  0.8200E-03  0.3893E-02  0.5977E+02
   -0.489993   10.42715  0.0000E+00  0.3344E-04  0.1132E-04  0.8712E-03  0.3386E-02  0.7366E+02
   -0.524994   10.43037  0.0000E+00  0.3255E-04  0.8052E-05  0.9136E-03  0.2909E-02  0.2813E+03
   -0.559995   10.43338  0.0000E+00  0.3173E-04  0.5495E-05  0.9685E-03  0.2548E-02  0.7286E+02
   -0.594996   10.43815  0.0000E+00  0.3073E-04  0.3712E-05  0.1022E-02  0.2270E-02  0.1348E+03
   -0.629997   10.44285  0.0000E+00  0.2974E-04  0.2464E-05  0.1065E-02  0.2127E-02  0.2024E+03
   -0.664998   10.44891  0.0000E+00  0.2897E-04  0.1474E-05  0.1089E-02  0.1945E-02  0.5944E+03
   -0.699999   10.45340  0.0000E+00  0.2836E-04  0.8364E-06  0.1107E-02  0.1779E-02  0.2513E+03
   -0.735000   10.45918  0.0000E+00  0.2785E-04  0.6220E-06  0.1108E-02  0.1615E-02  0.3601E+03
   -0.770002   10.46416  0.0000E+00  0.2734E-04  0.5081E-06  0.1131E-02  0.1464E-02  0.4671E+03
   -0.805003   10.46960  0.0000E+00  0.2681E-04  0.4110E-06  0.1079E-02  0.1321E-02  0.5636E+03
   -0.840004   10.47528  0.0000E+00  0.2623E-04  0.3361E-06  0.1073E-02  0.1176E-02  0.6726E+03
   -0.875005   10.48140  0.0000E+00  0.2564E-04  0.3075E-06  0.1065E-02  0.1044E-02  0.7800E+03
   -0.910006   10.48720  0.0000E+00  0.2505E-04  0.2886E-06  0.1029E-02  0.9273E-03  0.5909E+05
   -0.945006   10.49354  0.0000E+00  0.2443E-04  0.2466E-06  0.9908E-03  0.8186E-03  0.5131E+04
   -0.980007   10.50132  0.0000E+00  0.2381E-04  0.2334E-06  0.9507E-03  0.7166E-03  0.5558E+05
   -1.015007   10.50841  0.0000E+00  0.2315E-04  0.2362E-06  0.8941E-03  0.6254E-03  0.8882E+05
   -1.050008   10.51848  0.0000E+00  0.2241E-04  0.2582E-06  0.8615E-03  0.5410E-03  0.4863E+07
   -1.085008   10.52889  0.0000E+00  0.2160E-04  0.2998E-06  0.8237E-03  0.4672E-03  0.1361E+08
   -1.120008   10.54495  0.0000E+00  0.2069E-04  0.3698E-06  0.7186E-03  0.4040E-03  0.3574E+07
   -1.155008   10.56069  0.0000E+00  0.1973E-04  0.4861E-06  0.6628E-03  0.3439E-03  0.1050E+10
   -1.190007   10.58492  0.0000E+00  0.1867E-04  0.6946E-06  0.6149E-03  0.2823E-03  0.5390E+07
   -1.225006   10.61284  0.0000E+00  0.1775E-04  0.1024E-05  0.5304E-03  0.2223E-03  0.3586E+09
   -1.260006   10.64250  0.0000E+00  0.1665E-04  0.2484E-05  0.4467E-03  0.1683E-03 -0.5315E+11
   -1.295004   10.86449  0.0000E+00  0.1532E-04  0.4173E-05  0.4582E-03  0.1185E-03  0.5052E+11
   -1.330003   10.73175  0.0000E+00  0.1318E-04  0.1020E-04  0.2520E-03  0.1000E-03 -0.1033E+12
   -1.365001   11.29213  0.0000E+00  0.1029E-04  0.1618E-04  0.2707E-03  0.6201E-04 -0.2479E+09
   -1.399999   11.11618  0.0000E+00  0.0000E+00  0.0000E+00  0.0000E+00  0.1156E-03  0.0000E+00
