 1 - depth, m
 2 - temperature, C
 3 - salinity, kg/kg
 4 - turbulent kinetic energy, m**2/s**2
 5 - dissipation rate, m**2/s**3
 6 - kinematic heat conductance, m**2/s
 7 - modulus of horizontal velocity, m/s
 8 - Richardson number, n/d
   -0.000000    1.90578  0.0000E+00  0.2521E-02  0.1449E-01  0.1447E-03  0.9502E+00  0.7265E-02
   -0.034998    2.09123  0.0000E+00  0.1579E-02  0.6945E-02  0.5159E-03  0.2704E+00 -0.5939E+01
   -0.069996    2.18304  0.0000E+00  0.1069E-02  0.2084E-02  0.6219E-03  0.1464E+00 -0.7246E-02
   -0.104994    2.21570  0.0000E+00  0.8643E-03  0.1206E-02  0.7207E-03  0.1095E+00  0.2059E+00
   -0.139993    2.23254  0.0000E+00  0.7460E-03  0.8321E-03  0.7339E-03  0.9209E-01  0.5071E+00
   -0.174992    2.24438  0.0000E+00  0.6547E-03  0.6020E-03  0.7265E-03  0.7975E-01 -0.9285E-01
   -0.209991    2.25360  0.0000E+00  0.5812E-03  0.4369E-03  0.7385E-03  0.7030E-01  0.7015E-01
   -0.244990    2.26141  0.0000E+00  0.5211E-03  0.3135E-03  0.7397E-03  0.6305E-01  0.3716E-02
   -0.279990    2.26757  0.0000E+00  0.4757E-03  0.2292E-03  0.7079E-03  0.5698E-01  0.8853E-01
   -0.314990    2.27617  0.0000E+00  0.4306E-03  0.1687E-03  0.7450E-03  0.4890E-01 -0.9186E-01
   -0.349990    2.28234  0.0000E+00  0.3949E-03  0.1263E-03  0.7479E-03  0.4413E-01  0.6132E+00
   -0.384990    2.28846  0.0000E+00  0.3648E-03  0.9563E-04  0.7404E-03  0.4047E-01  0.1810E+02
   -0.419990    2.29507  0.0000E+00  0.3393E-03  0.7322E-04  0.7323E-03  0.3753E-01  0.6964E+00
   -0.454991    2.30147  0.0000E+00  0.3153E-03  0.5579E-04  0.7175E-03  0.3438E-01  0.3617E+01
   -0.489992    2.30877  0.0000E+00  0.2943E-03  0.4442E-04  0.7045E-03  0.3071E-01  0.2231E+02
   -0.524992    2.31602  0.0000E+00  0.2743E-03  0.3610E-04  0.7218E-03  0.2742E-01  0.9215E+04
   -0.559993    2.32701  0.0000E+00  0.2550E-03  0.2942E-04  0.7384E-03  0.2519E-01  0.2569E+06
   -0.594994    2.34240  0.0000E+00  0.2346E-03  0.2316E-04  0.7314E-03  0.2376E-01  0.1427E+03
   -0.629995    2.36201  0.0000E+00  0.2154E-03  0.1816E-04  0.7240E-03  0.2331E-01 -0.3005E+03
   -0.664996    2.37918  0.0000E+00  0.1984E-03  0.1441E-04  0.7061E-03  0.2240E-01  0.4040E+05
   -0.699997    2.39887  0.0000E+00  0.1828E-03  0.1154E-04  0.6803E-03  0.2112E-01  0.4077E+04
   -0.734998    2.41850  0.0000E+00  0.1691E-03  0.9368E-05  0.6695E-03  0.1990E-01  0.1145E+05
   -0.769999    2.44117  0.0000E+00  0.1562E-03  0.7692E-05  0.6468E-03  0.1871E-01  0.4931E+05
   -0.805000    2.46639  0.0000E+00  0.1451E-03  0.6390E-05  0.6264E-03  0.1759E-01  0.1197E+05
   -0.840001    2.49580  0.0000E+00  0.1348E-03  0.5368E-05  0.6080E-03  0.1648E-01  0.2789E+05
   -0.875002    2.52937  0.0000E+00  0.1253E-03  0.4548E-05  0.5929E-03  0.1541E-01  0.2901E+07
   -0.910003    2.57034  0.0000E+00  0.1164E-03  0.3909E-05  0.5668E-03  0.1440E-01  0.2864E+06
   -0.945003    2.61922  0.0000E+00  0.1085E-03  0.3416E-05  0.5434E-03  0.1338E-01  0.2641E+06
   -0.980004    2.67613  0.0000E+00  0.1009E-03  0.3041E-05  0.5150E-03  0.1234E-01  0.9963E+06
   -1.015004    2.74808  0.0000E+00  0.9375E-04  0.2774E-05  0.4940E-03  0.1127E-01  0.5118E+08
   -1.050005    2.85959  0.0000E+00  0.8704E-04  0.2598E-05  0.4708E-03  0.1021E-01  0.8017E+09
   -1.085005    2.99070  0.0000E+00  0.8076E-04  0.2522E-05  0.4470E-03  0.9281E-02  0.1754E+11
   -1.120004    3.14144  0.0000E+00  0.7475E-04  0.2566E-05  0.4132E-03  0.8441E-02  0.2504E+12
   -1.155004    3.27902  0.0000E+00  0.6911E-04  0.2902E-05  0.3893E-03  0.7561E-02  0.3382E+11
   -1.190004    3.42457  0.0000E+00  0.6338E-04  0.3477E-05  0.3580E-03  0.6504E-02  0.2907E+12
   -1.225003    3.57457  0.0000E+00  0.5787E-04  0.4363E-05  0.3437E-03  0.5412E-02  0.1024E+13
   -1.260002    3.74254  0.0000E+00  0.5262E-04  0.6182E-05  0.3109E-03  0.4491E-02  0.3510E+13
   -1.295000    3.95183  0.0000E+00  0.4607E-04  0.1116E-04  0.2764E-03  0.3768E-02  0.2206E+13
   -1.329999    4.16993  0.0000E+00  0.3800E-04  0.2177E-04  0.1868E-03  0.3475E-02  0.1447E+14
   -1.364997    4.47447  0.0000E+00  0.2662E-04  0.4554E-04  0.1163E-03  0.2753E-02 -0.2579E+15
   -1.399994    4.82334  0.0000E+00  0.0000E+00  0.0000E+00  0.0000E+00  0.3930E-02  0.0000E+00
