 1 - depth, m
 2 - temperature, C
 3 - salinity, kg/kg
 4 - turbulent kinetic energy, m**2/s**2
 5 - dissipation rate, m**2/s**3
 6 - kinematic heat conductance, m**2/s
 7 - modulus of horizontal velocity, m/s
 8 - Richardson number, n/d
   -0.000000    8.54521  0.0000E+00  0.7935E-03  0.2689E-02  0.1068E-03  0.3711E+00  0.5560E-02
   -0.034998    8.96327  0.0000E+00  0.4284E-03  0.1371E-02  0.1804E-03  0.1107E+00  0.2886E+00
   -0.069996    9.10487  0.0000E+00  0.2765E-03  0.2637E-03  0.2504E-03  0.6442E-01  0.1229E+01
   -0.104994    9.16529  0.0000E+00  0.2171E-03  0.1210E-03  0.2767E-03  0.4908E-01 -0.2840E-01
   -0.139992    9.19839  0.0000E+00  0.1829E-03  0.7297E-04  0.2928E-03  0.4024E-01  0.5321E+01
   -0.174991    9.22007  0.0000E+00  0.1571E-03  0.4704E-04  0.3017E-03  0.3354E-01  0.3237E-01
   -0.209990    9.23952  0.0000E+00  0.1376E-03  0.3099E-04  0.3251E-03  0.2887E-01  0.9148E+01
   -0.244990    9.25200  0.0000E+00  0.1225E-03  0.2051E-04  0.3455E-03  0.2527E-01  0.2125E+01
   -0.279989    9.26347  0.0000E+00  0.1104E-03  0.1366E-04  0.3625E-03  0.2206E-01  0.3704E+01
   -0.314989    9.27427  0.0000E+00  0.9999E-04  0.9403E-05  0.4095E-03  0.1886E-01  0.2800E+02
   -0.349989    9.28345  0.0000E+00  0.9149E-04  0.6640E-05  0.4590E-03  0.1657E-01  0.1347E+03
   -0.384989    9.29089  0.0000E+00  0.8443E-04  0.4791E-05  0.5151E-03  0.1470E-01  0.3894E+03
   -0.419989    9.29807  0.0000E+00  0.7865E-04  0.3562E-05  0.5800E-03  0.1311E-01  0.1055E+03
   -0.454990    9.30431  0.0000E+00  0.7391E-04  0.2722E-05  0.6512E-03  0.1160E-01  0.5144E+03
   -0.489990    9.31067  0.0000E+00  0.6998E-04  0.2168E-05  0.7446E-03  0.1012E-01  0.3032E+03
   -0.524991    9.31589  0.0000E+00  0.6627E-04  0.1780E-05  0.8527E-03  0.8753E-02 -0.2697E+01
   -0.559992    9.32146  0.0000E+00  0.6243E-04  0.1472E-05  0.9302E-03  0.7650E-02 -0.2624E+04
   -0.594993    9.32724  0.0000E+00  0.5782E-04  0.1172E-05  0.9724E-03  0.6797E-02  0.3925E+02
   -0.629994    9.33474  0.0000E+00  0.5362E-04  0.9397E-06  0.9808E-03  0.6237E-02 -0.2560E+03
   -0.664994    9.34186  0.0000E+00  0.5008E-04  0.7702E-06  0.9989E-03  0.5672E-02  0.4358E+02
   -0.699995    9.34889  0.0000E+00  0.4710E-04  0.6482E-06  0.1013E-02  0.5123E-02  0.3688E+01
   -0.734996    9.35620  0.0000E+00  0.4438E-04  0.5527E-06  0.1023E-02  0.4585E-02 -0.1407E+03
   -0.769997    9.36337  0.0000E+00  0.4194E-04  0.4782E-06  0.1030E-02  0.4066E-02 -0.4215E+04
   -0.804998    9.37024  0.0000E+00  0.3974E-04  0.4196E-06  0.1049E-02  0.3610E-02  0.3811E+02
   -0.839999    9.37716  0.0000E+00  0.3779E-04  0.3747E-06  0.1044E-02  0.3207E-02  0.1410E+02
   -0.875000    9.38451  0.0000E+00  0.3585E-04  0.3372E-06  0.1016E-02  0.2821E-02  0.7072E+03
   -0.910000    9.39166  0.0000E+00  0.3400E-04  0.3081E-06  0.9979E-03  0.2478E-02  0.8982E+01
   -0.945001    9.39962  0.0000E+00  0.3225E-04  0.2877E-06  0.9687E-03  0.2151E-02  0.1533E+02
   -0.980001    9.40697  0.0000E+00  0.3066E-04  0.2759E-06  0.9272E-03  0.1877E-02  0.1355E+02
   -1.015002    9.41524  0.0000E+00  0.2910E-04  0.2725E-06  0.8838E-03  0.1607E-02  0.1697E+02
   -1.050002    9.42403  0.0000E+00  0.2759E-04  0.2812E-06  0.8081E-03  0.1387E-02  0.2992E+04
   -1.085002    9.43486  0.0000E+00  0.2601E-04  0.3089E-06  0.7663E-03  0.1179E-02  0.5690E+04
   -1.120002    9.44819  0.0000E+00  0.2437E-04  0.3752E-06  0.7115E-03  0.1007E-02  0.2646E+04
   -1.155001    9.46725  0.0000E+00  0.2271E-04  0.5154E-06  0.6585E-03  0.8435E-03  0.7444E+05
   -1.190000    9.48849  0.0000E+00  0.2093E-04  0.7698E-06  0.5918E-03  0.6848E-03  0.3814E+06
   -1.225000    9.52453  0.0000E+00  0.1937E-04  0.1265E-05  0.5386E-03  0.5128E-03  0.4101E+06
   -1.259998    9.54862  0.0000E+00  0.1773E-04  0.2745E-05  0.4609E-03  0.3741E-03 -0.3788E+08
   -1.294997    9.77791  0.0000E+00  0.1602E-04  0.5024E-05  0.4500E-03  0.2560E-03  0.2795E+08
   -1.329995    9.62686  0.0000E+00  0.1357E-04  0.1364E-04  0.2755E-03  0.2193E-03 -0.8226E+08
   -1.364993   10.25360  0.0000E+00  0.1067E-04  0.2108E-04  0.3054E-03  0.1317E-03 -0.1493E+07
   -1.399991    9.99364  0.0000E+00  0.0000E+00  0.0000E+00  0.0000E+00  0.2655E-03  0.0000E+00
