 1 - depth, m
 2 - temperature, C
 3 - salinity, kg/kg
 4 - turbulent kinetic energy, m**2/s**2
 5 - dissipation rate, m**2/s**3
 6 - kinematic heat conductance, m**2/s
 7 - modulus of horizontal velocity, m/s
 8 - Richardson number, n/d
   -0.000000    9.84135  0.0000E+00  0.5940E-03  0.2974E-02  0.9979E-04  0.3227E+00 -0.1253E-01
   -0.034998   10.09870  0.0000E+00  0.3214E-03  0.1482E-02  0.1452E-03  0.9999E-01  0.1201E+02
   -0.069996   10.20117  0.0000E+00  0.2108E-03  0.6942E-03  0.2211E-03  0.5504E-01 -0.1372E+00
   -0.104994   10.24475  0.0000E+00  0.1679E-03  0.4525E-03  0.2439E-03  0.4087E-01  0.1581E+01
   -0.139993   10.26734  0.0000E+00  0.1402E-03  0.3059E-03  0.2430E-03  0.3249E-01  0.3117E+00
   -0.174992   10.28325  0.0000E+00  0.1204E-03  0.2045E-03  0.2576E-03  0.2718E-01  0.1067E+02
   -0.209991   10.29614  0.0000E+00  0.1056E-03  0.1349E-03  0.2805E-03  0.2342E-01  0.3873E+03
   -0.244990   10.30579  0.0000E+00  0.9425E-04  0.8846E-04  0.3129E-03  0.2047E-01  0.2386E+02
   -0.279990   10.31430  0.0000E+00  0.8500E-04  0.5772E-04  0.3397E-03  0.1787E-01  0.1252E+03
   -0.314990   10.32545  0.0000E+00  0.7691E-04  0.3787E-04  0.4167E-03  0.1495E-01  0.2606E+03
   -0.349990   10.33177  0.0000E+00  0.7068E-04  0.2484E-04  0.4669E-03  0.1313E-01  0.9834E+02
   -0.384990   10.33717  0.0000E+00  0.6556E-04  0.1634E-04  0.5237E-03  0.1165E-01  0.7895E+02
   -0.419990   10.34234  0.0000E+00  0.6139E-04  0.1088E-04  0.5758E-03  0.1038E-01  0.8066E+02
   -0.454991   10.34690  0.0000E+00  0.5802E-04  0.7439E-05  0.6292E-03  0.9134E-02  0.1061E+04
   -0.489991   10.35147  0.0000E+00  0.5530E-04  0.5261E-05  0.6983E-03  0.7895E-02  0.1956E+03
   -0.524992   10.35511  0.0000E+00  0.5278E-04  0.3755E-05  0.7880E-03  0.6733E-02  0.8927E+02
   -0.559993   10.35999  0.0000E+00  0.5017E-04  0.2798E-05  0.8551E-03  0.5817E-02 -0.7543E+02
   -0.594994   10.36469  0.0000E+00  0.4719E-04  0.2036E-05  0.9510E-03  0.5122E-02  0.5949E+02
   -0.629995   10.37218  0.0000E+00  0.4461E-04  0.1501E-05  0.1004E-02  0.4778E-02  0.3034E+03
   -0.664996   10.37728  0.0000E+00  0.4235E-04  0.1166E-05  0.9949E-03  0.4388E-02  0.6997E+03
   -0.699997   10.38400  0.0000E+00  0.4023E-04  0.9071E-06  0.9812E-03  0.3953E-02 -0.9002E+03
   -0.734998   10.38973  0.0000E+00  0.3829E-04  0.6797E-06  0.9976E-03  0.3523E-02  0.3461E+03
   -0.769999   10.39543  0.0000E+00  0.3659E-04  0.5275E-06  0.1023E-02  0.3131E-02  0.2952E+02
   -0.805000   10.40201  0.0000E+00  0.3502E-04  0.4186E-06  0.1030E-02  0.2780E-02  0.8283E+03
   -0.840001   10.40758  0.0000E+00  0.3354E-04  0.3493E-06  0.1031E-02  0.2453E-02  0.6772E+03
   -0.875001   10.41399  0.0000E+00  0.3217E-04  0.3073E-06  0.1039E-02  0.2162E-02  0.1090E+03
   -0.910002   10.42043  0.0000E+00  0.3087E-04  0.2800E-06  0.1017E-02  0.1907E-02 -0.2401E+02
   -0.945003   10.42673  0.0000E+00  0.2970E-04  0.2657E-06  0.9924E-03  0.1679E-02  0.1414E+03
   -0.980003   10.43345  0.0000E+00  0.2858E-04  0.2611E-06  0.9340E-03  0.1489E-02  0.6219E+02
   -1.015004   10.44043  0.0000E+00  0.2741E-04  0.2651E-06  0.8867E-03  0.1298E-02 -0.2154E+03
   -1.050004   10.44911  0.0000E+00  0.2619E-04  0.2823E-06  0.8435E-03  0.1114E-02  0.1187E+04
   -1.085004   10.45884  0.0000E+00  0.2492E-04  0.3200E-06  0.7973E-03  0.9686E-03  0.1455E+06
   -1.120004   10.47234  0.0000E+00  0.2353E-04  0.3914E-06  0.7297E-03  0.8324E-03 -0.1103E+03
   -1.155003   10.48900  0.0000E+00  0.2210E-04  0.5383E-06  0.6790E-03  0.7049E-03 -0.1167E+06
   -1.190003   10.51138  0.0000E+00  0.2057E-04  0.7819E-06  0.6301E-03  0.5762E-03  0.5908E+05
   -1.225002   10.53908  0.0000E+00  0.1922E-04  0.1264E-05  0.5460E-03  0.4376E-03  0.1730E+06
   -1.260001   10.57175  0.0000E+00  0.1776E-04  0.2857E-05  0.4815E-03  0.3202E-03 -0.2085E+08
   -1.294999   10.76625  0.0000E+00  0.1625E-04  0.4757E-05  0.4650E-03  0.2217E-03  0.1630E+07
   -1.329998   10.64508  0.0000E+00  0.1378E-04  0.1220E-04  0.2696E-03  0.1892E-03 -0.5224E+09
   -1.364996   11.21283  0.0000E+00  0.1091E-04  0.1902E-04  0.3042E-03  0.1198E-03 -0.1116E+07
   -1.399993   10.96770  0.0000E+00  0.0000E+00  0.0000E+00  0.0000E+00  0.2294E-03  0.0000E+00
