 1 - depth, m
 2 - temperature, C
 3 - salinity, kg/kg
 4 - turbulent kinetic energy, m**2/s**2
 5 - dissipation rate, m**2/s**3
 6 - kinematic heat conductance, m**2/s
 7 - modulus of horizontal velocity, m/s
 8 - Richardson number, n/d
   -0.000000    0.00295  0.0000E+00  0.4790E-03  0.1104E-02  0.1036E-03  0.3333E+00  0.4209E-01
   -0.035001    0.13801  0.0000E+00  0.3137E-03  0.5298E-03  0.1719E-03  0.1124E+00  0.1648E-01
   -0.070003    0.23736  0.0000E+00  0.2263E-03  0.1784E-03  0.2230E-03  0.6555E-01  0.5285E-01
   -0.105004    0.28152  0.0000E+00  0.1863E-03  0.1034E-03  0.2325E-03  0.5025E-01  0.7998E-01
   -0.140006    0.31138  0.0000E+00  0.1609E-03  0.6706E-04  0.2422E-03  0.4182E-01  0.7762E-01
   -0.175009    0.33346  0.0000E+00  0.1424E-03  0.4489E-04  0.2517E-03  0.3617E-01  0.3186E+00
   -0.210011    0.35242  0.0000E+00  0.1282E-03  0.3013E-04  0.2607E-03  0.3189E-01  0.7730E-01
   -0.245014    0.37030  0.0000E+00  0.1167E-03  0.2036E-04  0.2665E-03  0.2824E-01  0.9472E-01
   -0.280017    0.38764  0.0000E+00  0.1069E-03  0.1392E-04  0.2664E-03  0.2488E-01  0.7358E-01
   -0.315021    0.40497  0.0000E+00  0.9767E-04  0.9628E-05  0.2729E-03  0.2136E-01  0.6142E+00
   -0.350024    0.42381  0.0000E+00  0.8956E-04  0.6761E-05  0.2740E-03  0.1878E-01  0.1089E+02
   -0.385028    0.44376  0.0000E+00  0.8245E-04  0.4839E-05  0.2720E-03  0.1666E-01  0.7276E+03
   -0.420032    0.46448  0.0000E+00  0.7616E-04  0.3551E-05  0.2636E-03  0.1485E-01  0.1904E+04
   -0.455036    0.48633  0.0000E+00  0.7030E-04  0.2675E-05  0.2504E-03  0.1306E-01  0.2475E+05
   -0.490040    0.51029  0.0000E+00  0.6452E-04  0.2072E-05  0.2366E-03  0.1122E-01  0.1065E+07
   -0.525044    0.54144  0.0000E+00  0.5840E-04  0.1647E-05  0.2293E-03  0.9487E-02  0.4872E+09
   -0.560048    0.60663  0.0000E+00  0.5220E-04  0.1329E-05  0.2144E-03  0.8194E-02  0.7581E+11
   -0.595053    0.75101  0.0000E+00  0.4528E-04  0.1049E-05  0.1965E-03  0.7313E-02  0.1486E+12
   -0.630057    0.99003  0.0000E+00  0.3891E-04  0.8305E-06  0.1860E-03  0.6831E-02  0.1745E+14
   -0.665061    1.24037  0.0000E+00  0.3336E-04  0.6677E-06  0.1786E-03  0.6227E-02  0.5314E+12
   -0.700066    1.46561  0.0000E+00  0.2852E-04  0.5398E-06  0.1766E-03  0.5571E-02 -0.7862E+12
   -0.735070    1.78827  0.0000E+00  0.2445E-04  0.4386E-06  0.1868E-03  0.4863E-02  0.3639E+12
   -0.770075    2.18669  0.0000E+00  0.2101E-04  0.3572E-06  0.2111E-03  0.4178E-02 -0.4890E+12
   -0.805079    2.56300  0.0000E+00  0.1817E-04  0.2916E-06  0.2339E-03  0.3521E-02  0.1791E+12
   -0.840083    2.87430  0.0000E+00  0.1591E-04  0.2407E-06  0.2582E-03  0.2948E-02 -0.5734E+12
   -0.875088    3.16696  0.0000E+00  0.1406E-04  0.2009E-06  0.2822E-03  0.2478E-02  0.1250E+12
   -0.910092    3.38999  0.0000E+00  0.1257E-04  0.1699E-06  0.2985E-03  0.2081E-02  0.2349E+12
   -0.945096    3.53706  0.0000E+00  0.1136E-04  0.1460E-06  0.3098E-03  0.1750E-02  0.7704E+11
   -0.980100    3.66090  0.0000E+00  0.1034E-04  0.1276E-06  0.3145E-03  0.1453E-02  0.6139E+11
   -1.015104    3.79128  0.0000E+00  0.9349E-05  0.1079E-06  0.3273E-03  0.1084E-02  0.4211E+12
   -1.050107    3.91427  0.0000E+00  0.8602E-05  0.9439E-07  0.3311E-03  0.8602E-03  0.8444E+11
   -1.085111    4.04635  0.0000E+00  0.8001E-05  0.8462E-07  0.3319E-03  0.6613E-03  0.5261E+11
   -1.120114    4.17493  0.0000E+00  0.7561E-05  0.7897E-07  0.3289E-03  0.5040E-03  0.7016E+12
   -1.155117    4.27997  0.0000E+00  0.7276E-05  0.7831E-07  0.3225E-03  0.3915E-03  0.8773E+12
   -1.190120    4.36419  0.0000E+00  0.7081E-05  0.8278E-07  0.3045E-03  0.3059E-03  0.9954E+11
   -1.225123    4.43264  0.0000E+00  0.6930E-05  0.9447E-07  0.2832E-03  0.2338E-03  0.2270E+13
   -1.260125    4.49918  0.0000E+00  0.6801E-05  0.1233E-06  0.2326E-03  0.1791E-03  0.1151E+13
   -1.295127    4.57348  0.0000E+00  0.6561E-05  0.2026E-06  0.1975E-03  0.1407E-03  0.4645E+12
   -1.330129    4.69090  0.0000E+00  0.5957E-05  0.3769E-06  0.1126E-03  0.1165E-03 -0.8729E+13
   -1.365130    4.88312  0.0000E+00  0.4171E-05  0.8230E-06  0.3847E-04  0.8953E-04 -0.1343E+15
   -1.400132    5.27028  0.0000E+00  0.0000E+00  0.0000E+00  0.0000E+00  0.1127E-03  0.0000E+00
