 1 - depth, m
 2 - temperature, C
 3 - salinity, kg/kg
 4 - turbulent kinetic energy, m**2/s**2
 5 - dissipation rate, m**2/s**3
 6 - kinematic heat conductance, m**2/s
 7 - modulus of horizontal velocity, m/s
 8 - Richardson number, n/d
   -0.000000   16.27822  0.0000E+00  0.4002E-03  0.9000E-03  0.7597E-04  0.2225E+00 -0.1055E+00
   -0.034998   16.45672  0.0000E+00  0.2091E-03  0.2971E-03  0.1346E-03  0.6652E-01 -0.6745E-01
   -0.069996   16.51059  0.0000E+00  0.1419E-03  0.1203E-03  0.1809E-03  0.3945E-01  0.9164E+00
   -0.104995   16.53702  0.0000E+00  0.1121E-03  0.7362E-04  0.1882E-03  0.3027E-01  0.1508E+02
   -0.139994   16.55088  0.0000E+00  0.9246E-04  0.4603E-04  0.1987E-03  0.2503E-01  0.4126E+00
   -0.174993   16.56075  0.0000E+00  0.7826E-04  0.2942E-04  0.2156E-03  0.2117E-01  0.5265E+01
   -0.209993   16.56842  0.0000E+00  0.6760E-04  0.1881E-04  0.2454E-03  0.1812E-01  0.1517E+02
   -0.244993   16.57466  0.0000E+00  0.5961E-04  0.1195E-04  0.2841E-03  0.1565E-01  0.5847E+03
   -0.279993   16.57999  0.0000E+00  0.5331E-04  0.7590E-05  0.3294E-03  0.1344E-01  0.4184E+03
   -0.314993   16.58556  0.0000E+00  0.4817E-04  0.4887E-05  0.3979E-03  0.1120E-01  0.3293E+03
   -0.349993   16.58972  0.0000E+00  0.4414E-04  0.3172E-05  0.4615E-03  0.9627E-02  0.2377E+03
   -0.384994   16.59332  0.0000E+00  0.4097E-04  0.2129E-05  0.5214E-03  0.8323E-02  0.1252E+03
   -0.419995   16.59637  0.0000E+00  0.3855E-04  0.1468E-05  0.5685E-03  0.7218E-02  0.1434E+03
   -0.454995   16.59949  0.0000E+00  0.3671E-04  0.1047E-05  0.6125E-03  0.6156E-02  0.2365E+03
   -0.489996   16.60194  0.0000E+00  0.3529E-04  0.7854E-06  0.6473E-03  0.5137E-02  0.9164E+02
   -0.524998   16.60463  0.0000E+00  0.3407E-04  0.6114E-06  0.6891E-03  0.4179E-02 -0.4795E+03
   -0.559999   16.60725  0.0000E+00  0.3291E-04  0.4877E-06  0.7359E-03  0.3413E-02 -0.4219E+02
   -0.595000   16.61064  0.0000E+00  0.3162E-04  0.3880E-06  0.8118E-03  0.2846E-02  0.5347E+01
   -0.630001   16.61462  0.0000E+00  0.3044E-04  0.3192E-06  0.8789E-03  0.2520E-02 -0.5749E+02
   -0.665003   16.61833  0.0000E+00  0.2947E-04  0.2738E-06  0.9034E-03  0.2225E-02  0.8008E+02
   -0.700004   16.62192  0.0000E+00  0.2866E-04  0.2420E-06  0.9461E-03  0.1952E-02  0.1558E+02
   -0.735005   16.62531  0.0000E+00  0.2793E-04  0.2191E-06  0.9653E-03  0.1709E-02  0.1974E+02
   -0.770007   16.62865  0.0000E+00  0.2723E-04  0.2019E-06  0.9843E-03  0.1484E-02 -0.1537E+03
   -0.805008   16.63195  0.0000E+00  0.2654E-04  0.1897E-06  0.9953E-03  0.1286E-02 -0.1002E+03
   -0.840009   16.63530  0.0000E+00  0.2588E-04  0.1819E-06  0.9926E-03  0.1113E-02 -0.2056E+04
   -0.875010   16.63869  0.0000E+00  0.2522E-04  0.1782E-06  0.9858E-03  0.9649E-03 -0.1356E+01
   -0.910012   16.64228  0.0000E+00  0.2456E-04  0.1786E-06  0.9556E-03  0.8385E-03  0.1401E+02
   -0.945013   16.64602  0.0000E+00  0.2389E-04  0.1838E-06  0.9129E-03  0.7298E-03  0.4675E+02
   -0.980013   16.65016  0.0000E+00  0.2323E-04  0.1952E-06  0.8882E-03  0.6338E-03  0.1621E+02
   -1.015014   16.65442  0.0000E+00  0.2254E-04  0.2146E-06  0.8558E-03  0.5511E-03 -0.2240E+03
   -1.050015   16.65975  0.0000E+00  0.2180E-04  0.2466E-06  0.8153E-03  0.4797E-03 -0.2031E+05
   -1.085015   16.66536  0.0000E+00  0.2093E-04  0.3013E-06  0.7733E-03  0.4185E-03  0.1032E+05
   -1.120015   16.67568  0.0000E+00  0.1994E-04  0.3904E-06  0.7216E-03  0.3593E-03  0.3416E+05
   -1.155015   16.68367  0.0000E+00  0.1889E-04  0.5482E-06  0.6566E-03  0.3064E-03  0.1715E+05
   -1.190015   16.70138  0.0000E+00  0.1777E-04  0.8414E-06  0.6154E-03  0.2458E-03  0.2006E+06
   -1.225015   16.71469  0.0000E+00  0.1684E-04  0.1298E-05  0.5158E-03  0.1895E-03 -0.1127E+06
   -1.260014   16.74213  0.0000E+00  0.1568E-04  0.3054E-05  0.4817E-03  0.1410E-03  0.5654E+08
   -1.295013   16.86079  0.0000E+00  0.1455E-04  0.4892E-05  0.4537E-03  0.9882E-04  0.7071E+07
   -1.330012   16.78131  0.0000E+00  0.1255E-04  0.1354E-04  0.2639E-03  0.8678E-04 -0.6413E+09
   -1.365010   17.14099  0.0000E+00  0.1003E-04  0.2041E-04  0.3192E-03  0.5067E-04 -0.6287E+06
   -1.400008   16.98847  0.0000E+00  0.0000E+00  0.0000E+00  0.0000E+00  0.1111E-03  0.0000E+00
