 1 - depth, m
 2 - temperature, C
 3 - salinity, kg/kg
 4 - turbulent kinetic energy, m**2/s**2
 5 - dissipation rate, m**2/s**3
 6 - kinematic heat conductance, m**2/s
 7 - modulus of horizontal velocity, m/s
 8 - Richardson number, n/d
   -0.000000    0.01361  0.0000E+00  0.3238E-03  0.5518E-03  0.7143E-04  0.2514E+00  0.2911E-01
   -0.034998    0.15421  0.0000E+00  0.1995E-03  0.2244E-03  0.1179E-03  0.8517E-01  0.7084E-01
   -0.069997    0.23978  0.0000E+00  0.1381E-03  0.5963E-04  0.1514E-03  0.5198E-01  0.8260E-01
   -0.104996    0.28917  0.0000E+00  0.1102E-03  0.3095E-04  0.1541E-03  0.4002E-01  0.1717E+00
   -0.139995    0.32580  0.0000E+00  0.9323E-04  0.1816E-04  0.1571E-03  0.3304E-01  0.1746E+00
   -0.174994    0.35557  0.0000E+00  0.7995E-04  0.1066E-04  0.1605E-03  0.2802E-01  0.1033E+01
   -0.209994    0.38218  0.0000E+00  0.7030E-04  0.6625E-05  0.1622E-03  0.2410E-01  0.8017E-01
   -0.244994    0.40699  0.0000E+00  0.6260E-04  0.4273E-05  0.1612E-03  0.2079E-01  0.1061E+00
   -0.279994    0.43063  0.0000E+00  0.5588E-04  0.2849E-05  0.1559E-03  0.1777E-01  0.1017E+00
   -0.314994    0.45421  0.0000E+00  0.4935E-04  0.2022E-05  0.1546E-03  0.1473E-01  0.6280E+00
   -0.349995    0.48020  0.0000E+00  0.4364E-04  0.1530E-05  0.1482E-03  0.1243E-01  0.8338E+01
   -0.384996    0.51064  0.0000E+00  0.3851E-04  0.1130E-05  0.1398E-03  0.1056E-01  0.1999E+03
   -0.419997    0.54929  0.0000E+00  0.3409E-04  0.8823E-06  0.1276E-03  0.8977E-02  0.4621E+03
   -0.454998    0.60988  0.0000E+00  0.3013E-04  0.7062E-06  0.1141E-03  0.7430E-02  0.1002E+04
   -0.489999    0.77105  0.0000E+00  0.2649E-04  0.5723E-06  0.1022E-03  0.5810E-02  0.2503E+05
   -0.525000    1.03144  0.0000E+00  0.2283E-04  0.4618E-06  0.1084E-03  0.4379E-02  0.1073E+08
   -0.560002    1.21938  0.0000E+00  0.1935E-04  0.3691E-06  0.1109E-03  0.3415E-02  0.2170E+10
   -0.595003    1.57863  0.0000E+00  0.1573E-04  0.2814E-06  0.1273E-03  0.2776E-02  0.2273E+12
   -0.630004    2.02459  0.0000E+00  0.1246E-04  0.2071E-06  0.1632E-03  0.2466E-02  0.1677E+12
   -0.665006    2.49684  0.0000E+00  0.1001E-04  0.1508E-06  0.1982E-03  0.2041E-02 -0.2458E+10
   -0.700007    2.86937  0.0000E+00  0.8162E-05  0.1094E-06  0.2356E-03  0.1646E-02  0.4334E+12
   -0.735009    3.27757  0.0000E+00  0.6784E-05  0.7747E-07  0.2825E-03  0.1217E-02  0.5170E+11
   -0.770011    3.67881  0.0000E+00  0.5920E-05  0.5246E-07  0.3305E-03  0.8519E-03  0.2115E+12
   -0.805012    4.00957  0.0000E+00  0.5462E-05  0.3862E-07  0.3693E-03  0.5515E-03  0.2669E+11
   -0.840013    4.20415  0.0000E+00  0.5251E-05  0.3068E-07  0.3988E-03  0.3796E-03  0.5208E+11
   -0.875015    4.31766  0.0000E+00  0.5167E-05  0.2608E-07  0.4207E-03  0.2676E-03  0.2056E+12
   -0.910016    4.37897  0.0000E+00  0.5151E-05  0.2332E-07  0.4365E-03  0.1979E-03  0.6000E+11
   -0.945017    4.41936  0.0000E+00  0.5174E-05  0.2176E-07  0.4450E-03  0.1489E-03  0.8264E+11
   -0.980018    4.44985  0.0000E+00  0.5219E-05  0.2096E-07  0.4536E-03  0.1137E-03  0.7359E+11
   -1.015019    4.47517  0.0000E+00  0.5277E-05  0.2074E-07  0.4512E-03  0.8807E-04  0.9739E+11
   -1.050020    4.49905  0.0000E+00  0.5343E-05  0.2095E-07  0.4476E-03  0.6971E-04  0.6782E+12
   -1.085021    4.52244  0.0000E+00  0.5413E-05  0.2158E-07  0.4378E-03  0.5509E-04  0.1622E+12
   -1.120021    4.54664  0.0000E+00  0.5482E-05  0.2264E-07  0.4219E-03  0.4370E-04  0.3645E+12
   -1.155021    4.57133  0.0000E+00  0.5547E-05  0.2422E-07  0.4419E-03  0.3448E-04  0.1020E+13
   -1.190021    4.59532  0.0000E+00  0.5615E-05  0.2668E-07  0.3634E-03  0.2703E-04 -0.1530E+13
   -1.225021    4.62238  0.0000E+00  0.5683E-05  0.3041E-07  0.3286E-03  0.2066E-04  0.9550E+12
   -1.260020    4.65361  0.0000E+00  0.5747E-05  0.3750E-07  0.2670E-03  0.1557E-04  0.2091E+13
   -1.295019    4.69406  0.0000E+00  0.5731E-05  0.5492E-07  0.2269E-03  0.1140E-04  0.3706E+12
   -1.330018    4.78032  0.0000E+00  0.5363E-05  0.9670E-07  0.1211E-03  0.8697E-05 -0.1785E+14
   -1.365017    4.95563  0.0000E+00  0.3802E-05  0.2365E-06  0.4005E-04  0.5880E-05 -0.7513E+14
   -1.400015    5.30616  0.0000E+00  0.0000E+00  0.0000E+00  0.0000E+00  0.6669E-05  0.0000E+00
