 1 - depth, m
 2 - temperature, C
 3 - salinity, kg/kg
 4 - turbulent kinetic energy, m**2/s**2
 5 - dissipation rate, m**2/s**3
 6 - kinematic heat conductance, m**2/s
 7 - modulus of horizontal velocity, m/s
 8 - Richardson number, n/d
   -0.000000   16.71785  0.0000E+00  0.7861E-03  0.1285E+00  0.1170E-03  0.3031E+00  0.3873E+00
   -0.034998   16.98638  0.0000E+00  0.4925E-03  0.1010E+00  0.1367E-03  0.9483E-01  0.1257E+00
   -0.069996   17.07727  0.0000E+00  0.3118E-03  0.8205E-01  0.2011E-03  0.5366E-01 -0.2900E+01
   -0.104994   17.12925  0.0000E+00  0.2411E-03  0.5216E-01  0.2275E-03  0.3930E-01  0.1760E+01
   -0.139993   17.15147  0.0000E+00  0.1781E-03  0.2280E-01  0.2370E-03  0.3182E-01  0.1626E+01
   -0.174991   17.16581  0.0000E+00  0.1120E-03  0.2075E-02  0.2488E-03  0.2667E-01  0.1432E+02
   -0.209991   17.17693  0.0000E+00  0.8908E-04  0.4354E-04  0.2863E-03  0.2264E-01  0.1214E+02
   -0.244990   17.18588  0.0000E+00  0.7898E-04  0.2393E-04  0.3172E-03  0.1942E-01  0.8330E+02
   -0.279990   17.19384  0.0000E+00  0.7115E-04  0.1504E-04  0.3553E-03  0.1672E-01  0.2185E+03
   -0.314989   17.20364  0.0000E+00  0.6433E-04  0.9515E-05  0.4519E-03  0.1379E-01  0.1042E+03
   -0.349989   17.20847  0.0000E+00  0.5909E-04  0.6168E-05  0.5091E-03  0.1200E-01  0.1599E+03
   -0.384990   17.21287  0.0000E+00  0.5490E-04  0.4037E-05  0.5838E-03  0.1052E-01  0.3499E+03
   -0.419990   17.21622  0.0000E+00  0.5158E-04  0.2675E-05  0.6511E-03  0.9266E-02  0.6227E+03
   -0.454991   17.21963  0.0000E+00  0.4897E-04  0.1849E-05  0.7040E-03  0.8026E-02  0.1870E+03
   -0.489991   17.22254  0.0000E+00  0.4688E-04  0.1372E-05  0.7752E-03  0.6803E-02  0.1553E+03
   -0.524992   17.22552  0.0000E+00  0.4494E-04  0.1065E-05  0.8205E-03  0.5704E-02  0.3975E+03
   -0.559993   17.22856  0.0000E+00  0.4289E-04  0.8338E-06  0.8587E-03  0.4801E-02 -0.2757E+04
   -0.594994   17.23226  0.0000E+00  0.4048E-04  0.6527E-06  0.9365E-03  0.4117E-02  0.9962E+02
   -0.629995   17.23585  0.0000E+00  0.3840E-04  0.5278E-06  0.9391E-03  0.3725E-02  0.6885E+02
   -0.664996   17.23992  0.0000E+00  0.3671E-04  0.4374E-06  0.9928E-03  0.3334E-02  0.2536E+04
   -0.699996   17.24363  0.0000E+00  0.3523E-04  0.3672E-06  0.9849E-03  0.2979E-02 -0.2326E+03
   -0.734997   17.24748  0.0000E+00  0.3388E-04  0.3174E-06  0.9986E-03  0.2609E-02  0.9157E+02
   -0.769998   17.25107  0.0000E+00  0.3267E-04  0.2817E-06  0.1007E-02  0.2296E-02  0.1195E+04
   -0.804999   17.25471  0.0000E+00  0.3156E-04  0.2564E-06  0.1025E-02  0.2007E-02  0.6021E+03
   -0.840000   17.25853  0.0000E+00  0.3050E-04  0.2379E-06  0.1023E-02  0.1750E-02 -0.8109E+03
   -0.875001   17.26208  0.0000E+00  0.2951E-04  0.2257E-06  0.1035E-02  0.1533E-02  0.4332E+02
   -0.910002   17.26571  0.0000E+00  0.2854E-04  0.2186E-06  0.1027E-02  0.1327E-02 -0.3085E+03
   -0.945002   17.26933  0.0000E+00  0.2763E-04  0.2177E-06  0.9570E-03  0.1170E-02  0.2478E+02
   -0.980003   17.27325  0.0000E+00  0.2664E-04  0.2230E-06  0.9080E-03  0.1015E-02  0.3333E+02
   -1.015003   17.27758  0.0000E+00  0.2560E-04  0.2377E-06  0.8483E-03  0.8652E-03  0.1009E+03
   -1.050003   17.28231  0.0000E+00  0.2455E-04  0.2720E-06  0.8062E-03  0.7382E-03  0.1613E+04
   -1.085004   17.28846  0.0000E+00  0.2341E-04  0.3279E-06  0.7769E-03  0.6256E-03  0.3357E+03
   -1.120003   17.29627  0.0000E+00  0.2219E-04  0.4245E-06  0.7404E-03  0.5318E-03  0.1397E+06
   -1.155003   17.30575  0.0000E+00  0.2094E-04  0.5944E-06  0.6629E-03  0.4475E-03  0.1503E+06
   -1.190002   17.32050  0.0000E+00  0.1969E-04  0.8969E-06  0.6101E-03  0.3590E-03  0.1076E+05
   -1.225002   17.33466  0.0000E+00  0.1862E-04  0.1416E-05  0.5465E-03  0.2792E-03  0.8230E+06
   -1.260000   17.35881  0.0000E+00  0.1729E-04  0.2980E-05  0.4971E-03  0.2103E-03 -0.6139E+08
   -1.294999   17.46013  0.0000E+00  0.1591E-04  0.4962E-05  0.4725E-03  0.1503E-03  0.6699E+10
   -1.329997   17.40200  0.0000E+00  0.1361E-04  0.1408E-04  0.2610E-03  0.1291E-03 -0.2004E+10
   -1.364995   17.70940  0.0000E+00  0.1074E-04  0.2118E-04  0.3102E-03  0.7832E-04  0.2016E+08
   -1.399993   17.58350  0.0000E+00  0.0000E+00  0.0000E+00  0.0000E+00  0.1625E-03  0.0000E+00
