 1 - depth, m
 2 - temperature, C
 3 - salinity, kg/kg
 4 - turbulent kinetic energy, m**2/s**2
 5 - dissipation rate, m**2/s**3
 6 - kinematic heat conductance, m**2/s
 7 - modulus of horizontal velocity, m/s
 8 - Richardson number, n/d
   -0.000000   18.55562  0.0000E+00  0.2663E-03  0.6523E-03  0.6635E-04  0.1657E+00 -0.4866E+00
   -0.034998   18.75702  0.0000E+00  0.1455E-03  0.2983E-03  0.1173E-03  0.5261E-01  0.2139E+02
   -0.069996   18.84120  0.0000E+00  0.9681E-04  0.7102E-04  0.1778E-03  0.3074E-01  0.1950E+01
   -0.104994   18.87309  0.0000E+00  0.7794E-04  0.3574E-04  0.2231E-03  0.2327E-01  0.7345E+01
   -0.139993   18.88833  0.0000E+00  0.6565E-04  0.2118E-04  0.2607E-03  0.1879E-01  0.6508E+01
   -0.174992   18.89844  0.0000E+00  0.5669E-04  0.1297E-04  0.3041E-03  0.1575E-01  0.5750E+02
   -0.209991   18.90632  0.0000E+00  0.5016E-04  0.8212E-05  0.3662E-03  0.1347E-01  0.3477E+02
   -0.244991   18.91169  0.0000E+00  0.4552E-04  0.5277E-05  0.4305E-03  0.1166E-01  0.1478E+03
   -0.279990   18.91609  0.0000E+00  0.4203E-04  0.3467E-05  0.4900E-03  0.1009E-01  0.2517E+03
   -0.314990   18.92075  0.0000E+00  0.3903E-04  0.2297E-05  0.5678E-03  0.8463E-02  0.2878E+03
   -0.349990   18.92416  0.0000E+00  0.3673E-04  0.1605E-05  0.6319E-03  0.7309E-02  0.2219E+03
   -0.384991   18.92681  0.0000E+00  0.3487E-04  0.1142E-05  0.7216E-03  0.6325E-02  0.1655E+03
   -0.419991   18.92958  0.0000E+00  0.3337E-04  0.8276E-06  0.8323E-03  0.5499E-02  0.1055E+04
   -0.454992   18.93172  0.0000E+00  0.3222E-04  0.6322E-06  0.7459E-03  0.4711E-02  0.1066E+03
   -0.489992   18.93423  0.0000E+00  0.3138E-04  0.5143E-06  0.8024E-03  0.3926E-02  0.1741E+03
   -0.524993   18.93667  0.0000E+00  0.3063E-04  0.4340E-06  0.8335E-03  0.3212E-02  0.8298E+01
   -0.559994   18.93907  0.0000E+00  0.2988E-04  0.3737E-06  0.8967E-03  0.2621E-02  0.4037E+01
   -0.594995   18.94162  0.0000E+00  0.2898E-04  0.3160E-06  0.9584E-03  0.2195E-02  0.1671E+03
   -0.629996   18.94465  0.0000E+00  0.2813E-04  0.2640E-06  0.1013E-02  0.1942E-02  0.1884E+02
   -0.664997   18.94757  0.0000E+00  0.2742E-04  0.2309E-06  0.1033E-02  0.1712E-02  0.1841E+01
   -0.699998   18.95055  0.0000E+00  0.2677E-04  0.2062E-06  0.1043E-02  0.1493E-02 -0.2622E+03
   -0.734999   18.95335  0.0000E+00  0.2622E-04  0.1885E-06  0.1069E-02  0.1294E-02  0.2122E+04
   -0.770000   18.95616  0.0000E+00  0.2574E-04  0.1759E-06  0.1130E-02  0.1131E-02  0.2919E+03
   -0.805001   18.95886  0.0000E+00  0.2530E-04  0.1692E-06  0.1152E-02  0.1000E-02  0.1754E+02
   -0.840002   18.96152  0.0000E+00  0.2486E-04  0.1661E-06  0.1054E-02  0.8860E-03  0.4570E+02
   -0.875003   18.96442  0.0000E+00  0.2437E-04  0.1663E-06  0.1037E-02  0.7855E-03 -0.2839E+04
   -0.910004   18.96736  0.0000E+00  0.2381E-04  0.1696E-06  0.9854E-03  0.6906E-03  0.9544E+02
   -0.945004   18.97064  0.0000E+00  0.2320E-04  0.1774E-06  0.9767E-03  0.6006E-03  0.1210E+03
   -0.980005   18.97403  0.0000E+00  0.2259E-04  0.1916E-06  0.9280E-03  0.5246E-03  0.4264E+04
   -1.015005   18.97790  0.0000E+00  0.2195E-04  0.2146E-06  0.8883E-03  0.4588E-03  0.7727E+03
   -1.050006   18.98235  0.0000E+00  0.2123E-04  0.2519E-06  0.8275E-03  0.3991E-03  0.2024E+06
   -1.085006   18.98761  0.0000E+00  0.2039E-04  0.3166E-06  0.8046E-03  0.3461E-03  0.1253E+05
   -1.120006   18.99597  0.0000E+00  0.1942E-04  0.4147E-06  0.7504E-03  0.2981E-03  0.2927E+05
   -1.155005   19.00178  0.0000E+00  0.1841E-04  0.5819E-06  0.6750E-03  0.2544E-03  0.1352E+07
   -1.190005   19.01826  0.0000E+00  0.1734E-04  0.8520E-06  0.6457E-03  0.2020E-03  0.6857E+06
   -1.225004   19.02666  0.0000E+00  0.1644E-04  0.1316E-05  0.5435E-03  0.1572E-03  0.3141E+07
   -1.260003   19.05453  0.0000E+00  0.1524E-04  0.3002E-05  0.4725E-03  0.1157E-03  0.2508E+09
   -1.295002   19.14695  0.0000E+00  0.1409E-04  0.4704E-05  0.4738E-03  0.8069E-04  0.2729E+08
   -1.330000   19.07541  0.0000E+00  0.1206E-04  0.1239E-04  0.2605E-03  0.7232E-04 -0.7596E+10
   -1.364998   19.35942  0.0000E+00  0.9520E-05  0.1879E-04  0.3176E-03  0.4253E-04 -0.7350E+06
   -1.399996   19.24123  0.0000E+00  0.0000E+00  0.0000E+00  0.0000E+00  0.9547E-04  0.0000E+00
