 1 - depth, m
 2 - temperature, C
 3 - salinity, kg/kg
 4 - turbulent kinetic energy, m**2/s**2
 5 - dissipation rate, m**2/s**3
 6 - kinematic heat conductance, m**2/s
 7 - modulus of horizontal velocity, m/s
 8 - Richardson number, n/d
   -0.000000    9.16763  0.0000E+00  0.3493E-05  0.2249E-06  0.3645E-04  0.7713E-03  0.1535E+05
   -0.034998    9.25285  0.0000E+00  0.5649E-05  0.1055E-06  0.1234E-03  0.3735E-03  0.1799E+05
   -0.069996    9.28514  0.0000E+00  0.6873E-05  0.7477E-07  0.2381E-03  0.2715E-03  0.8699E+03
   -0.104994    9.29529  0.0000E+00  0.7726E-05  0.6345E-07  0.2895E-03  0.2307E-03  0.8385E+02
   -0.139993    9.30358  0.0000E+00  0.8435E-05  0.5726E-07  0.3860E-03  0.1998E-03  0.5525E+02
   -0.174992    9.30956  0.0000E+00  0.9043E-05  0.5366E-07  0.4566E-03  0.1769E-03  0.5581E+02
   -0.209991    9.31456  0.0000E+00  0.9585E-05  0.5145E-07  0.5360E-03  0.1579E-03  0.3767E+02
   -0.244990    9.31877  0.0000E+00  0.1008E-04  0.5014E-07  0.6050E-03  0.1415E-03  0.3344E+02
   -0.279990    9.32247  0.0000E+00  0.1054E-04  0.4945E-07  0.6714E-03  0.1271E-03  0.3101E+02
   -0.314990    9.32576  0.0000E+00  0.1097E-04  0.4925E-07  0.7311E-03  0.1141E-03  0.3011E+02
   -0.349990    9.32885  0.0000E+00  0.1140E-04  0.4944E-07  0.7859E-03  0.1028E-03  0.3096E+02
   -0.384990    9.33181  0.0000E+00  0.1182E-04  0.4997E-07  0.8352E-03  0.9287E-04  0.3268E+02
   -0.419991    9.33469  0.0000E+00  0.1224E-04  0.5079E-07  0.8796E-03  0.8424E-04  0.3424E+02
   -0.454991    9.33749  0.0000E+00  0.1264E-04  0.5190E-07  0.9185E-03  0.7689E-04  0.3658E+02
   -0.489992    9.34022  0.0000E+00  0.1305E-04  0.5330E-07  0.9502E-03  0.7169E-04  0.4067E+02
   -0.524993    9.34291  0.0000E+00  0.1350E-04  0.5518E-07  0.9725E-03  0.7060E-04  0.5040E+02
   -0.559994    9.34604  0.0000E+00  0.1403E-04  0.5773E-07  0.9873E-03  0.6352E-04  0.7785E+02
   -0.594995    9.34997  0.0000E+00  0.1470E-04  0.6130E-07  0.1006E-02  0.5644E-04  0.1295E+03
   -0.629996    9.35551  0.0000E+00  0.1533E-04  0.6498E-07  0.1038E-02  0.4933E-04  0.2501E+03
   -0.664997    9.36105  0.0000E+00  0.1588E-04  0.6863E-07  0.1060E-02  0.4614E-04  0.2809E+03
   -0.699998    9.36651  0.0000E+00  0.1636E-04  0.7233E-07  0.1072E-02  0.4323E-04  0.3161E+03
   -0.734999    9.37197  0.0000E+00  0.1679E-04  0.7621E-07  0.1077E-02  0.4044E-04  0.3729E+03
   -0.770000    9.37750  0.0000E+00  0.1715E-04  0.8038E-07  0.1072E-02  0.3787E-04  0.4434E+03
   -0.805001    9.38320  0.0000E+00  0.1746E-04  0.8495E-07  0.1062E-02  0.3540E-04  0.5516E+03
   -0.840002    9.38909  0.0000E+00  0.1772E-04  0.9008E-07  0.1043E-02  0.3310E-04  0.6942E+03
   -0.875003    9.39525  0.0000E+00  0.1791E-04  0.9601E-07  0.1019E-02  0.3086E-04  0.9107E+03
   -0.910003    9.40176  0.0000E+00  0.1803E-04  0.1030E-06  0.9872E-03  0.2875E-04  0.1231E+04
   -0.945004    9.40872  0.0000E+00  0.1808E-04  0.1116E-06  0.9526E-03  0.2666E-04  0.2622E+04
   -0.980005    9.41623  0.0000E+00  0.1805E-04  0.1225E-06  0.9214E-03  0.2464E-04  0.3669E+04
   -1.015005    9.42455  0.0000E+00  0.1794E-04  0.1369E-06  0.8609E-03  0.2256E-04  0.2626E+05
   -1.050005    9.43418  0.0000E+00  0.1774E-04  0.1571E-06  0.8491E-03  0.2049E-04  0.2869E+06
   -1.085005    9.44582  0.0000E+00  0.1743E-04  0.1876E-06  0.7356E-03  0.1829E-04  0.1844E+07
   -1.120005    9.46102  0.0000E+00  0.1698E-04  0.2334E-06  0.7054E-03  0.1618E-04  0.8386E+07
   -1.155005    9.48019  0.0000E+00  0.1646E-04  0.3114E-06  0.6318E-03  0.1397E-04  0.7602E+09
   -1.190004    9.50239  0.0000E+00  0.1582E-04  0.4475E-06  0.5670E-03  0.1173E-04  0.5439E+09
   -1.225004    9.53678  0.0000E+00  0.1525E-04  0.6495E-06  0.5017E-03  0.9255E-05  0.2200E+09
   -1.260002    9.55921  0.0000E+00  0.1450E-04  0.1482E-05  0.4229E-03  0.7221E-05 -0.7097E+11
   -1.295001    9.78415  0.0000E+00  0.1353E-04  0.2488E-05  0.4270E-03  0.5109E-05  0.3015E+10
   -1.329999    9.66051  0.0000E+00  0.1172E-04  0.6377E-05  0.2316E-03  0.4266E-05 -0.6553E+13
   -1.364998   10.23854  0.0000E+00  0.9125E-05  0.1050E-04  0.2296E-03  0.2693E-05 -0.2511E+09
   -1.399995   10.07331  0.0000E+00  0.0000E+00  0.0000E+00  0.0000E+00  0.4672E-05  0.0000E+00
