 1 - depth, m
 2 - temperature, C
 3 - salinity, kg/kg
 4 - turbulent kinetic energy, m**2/s**2
 5 - dissipation rate, m**2/s**3
 6 - kinematic heat conductance, m**2/s
 7 - modulus of horizontal velocity, m/s
 8 - Richardson number, n/d
   -0.000000   17.69528  0.0000E+00  0.6927E-03  0.3572E-02  0.1153E-03  0.3661E+00  0.4480E-01
   -0.034998   17.94308  0.0000E+00  0.3707E-03  0.1855E-02  0.1401E-03  0.1182E+00  0.2433E-01
   -0.069996   18.07403  0.0000E+00  0.2419E-03  0.6193E-03  0.2299E-03  0.6422E-01  0.2895E+01
   -0.104994   18.12728  0.0000E+00  0.1933E-03  0.3847E-03  0.2473E-03  0.4641E-01  0.4479E+00
   -0.139992   18.14882  0.0000E+00  0.1609E-03  0.2544E-03  0.2633E-03  0.3660E-01  0.1271E+01
   -0.174991   18.16336  0.0000E+00  0.1367E-03  0.1677E-03  0.3001E-03  0.3050E-01  0.2389E+02
   -0.209990   18.17214  0.0000E+00  0.1196E-03  0.1067E-03  0.3388E-03  0.2662E-01  0.9581E+01
   -0.244990   18.17930  0.0000E+00  0.1063E-03  0.6702E-04  0.3740E-03  0.2342E-01  0.3942E+02
   -0.279989   18.18457  0.0000E+00  0.9584E-04  0.4291E-04  0.3998E-03  0.2062E-01  0.1371E+04
   -0.314989   18.19263  0.0000E+00  0.8703E-04  0.2655E-04  0.4786E-03  0.1735E-01  0.2345E+03
   -0.349989   18.19731  0.0000E+00  0.8013E-04  0.1647E-04  0.5444E-03  0.1525E-01  0.1470E+03
   -0.384989   18.20109  0.0000E+00  0.7449E-04  0.1046E-04  0.6150E-03  0.1356E-01  0.1387E+03
   -0.419989   18.20463  0.0000E+00  0.6991E-04  0.6679E-05  0.7052E-03  0.1213E-01  0.1702E+03
   -0.454990   18.20790  0.0000E+00  0.6625E-04  0.4480E-05  0.7885E-03  0.1070E-01  0.3786E+03
   -0.489990   18.21112  0.0000E+00  0.6322E-04  0.3324E-05  0.8392E-03  0.9271E-02  0.3673E+03
   -0.524991   18.21405  0.0000E+00  0.6023E-04  0.2534E-05  0.8760E-03  0.7926E-02 -0.4296E+03
   -0.559992   18.21708  0.0000E+00  0.5695E-04  0.1855E-05  0.9413E-03  0.6855E-02 -0.1941E+04
   -0.594992   18.22021  0.0000E+00  0.5312E-04  0.1298E-05  0.1001E-02  0.6014E-02 -0.3066E+02
   -0.629993   18.22390  0.0000E+00  0.4973E-04  0.9590E-06  0.1051E-02  0.5531E-02  0.1017E+02
   -0.664994   18.22725  0.0000E+00  0.4682E-04  0.7463E-06  0.1069E-02  0.5024E-02  0.6333E+03
   -0.699995   18.23107  0.0000E+00  0.4429E-04  0.5962E-06  0.1166E-02  0.4478E-02  0.7682E+03
   -0.734996   18.23446  0.0000E+00  0.4225E-04  0.5024E-06  0.1136E-02  0.4046E-02 -0.7808E+02
   -0.769997   18.23778  0.0000E+00  0.4037E-04  0.4357E-06  0.1082E-02  0.3647E-02 -0.3916E+03
   -0.804998   18.24170  0.0000E+00  0.3855E-04  0.3843E-06  0.1095E-02  0.3224E-02  0.4666E+03
   -0.839999   18.24522  0.0000E+00  0.3685E-04  0.3453E-06  0.1075E-02  0.2871E-02  0.4145E+02
   -0.874999   18.24887  0.0000E+00  0.3513E-04  0.3137E-06  0.1061E-02  0.2515E-02  0.1468E+05
   -0.910000   18.25248  0.0000E+00  0.3357E-04  0.2918E-06  0.1050E-02  0.2204E-02  0.3854E+02
   -0.945001   18.25600  0.0000E+00  0.3209E-04  0.2779E-06  0.1019E-02  0.1940E-02  0.1891E+02
   -0.980001   18.25972  0.0000E+00  0.3066E-04  0.2721E-06  0.9642E-03  0.1699E-02  0.3921E+02
   -1.015001   18.26369  0.0000E+00  0.2918E-04  0.2763E-06  0.8890E-03  0.1461E-02  0.2405E+04
   -1.050001   18.26805  0.0000E+00  0.2771E-04  0.2939E-06  0.8299E-03  0.1255E-02  0.1360E+03
   -1.085001   18.27350  0.0000E+00  0.2615E-04  0.3371E-06  0.7753E-03  0.1070E-02  0.5394E+03
   -1.120001   18.28063  0.0000E+00  0.2451E-04  0.4139E-06  0.7378E-03  0.9045E-03  0.6970E+03
   -1.155001   18.28825  0.0000E+00  0.2281E-04  0.5717E-06  0.6706E-03  0.7597E-03  0.6401E+04
   -1.190000   18.30125  0.0000E+00  0.2104E-04  0.8652E-06  0.6223E-03  0.6085E-03  0.2049E+05
   -1.224999   18.31449  0.0000E+00  0.1951E-04  0.1446E-05  0.5523E-03  0.4515E-03  0.5540E+06
   -1.259998   18.33453  0.0000E+00  0.1786E-04  0.3471E-05  0.4603E-03  0.3275E-03 -0.1129E+08
   -1.294996   18.43993  0.0000E+00  0.1623E-04  0.6310E-05  0.4627E-03  0.2179E-03 -0.1185E+09
   -1.329995   18.36123  0.0000E+00  0.1387E-04  0.1715E-04  0.2901E-03  0.1931E-03 -0.1561E+09
   -1.364993   18.65773  0.0000E+00  0.1087E-04  0.2528E-04  0.3360E-03  0.1140E-03 -0.8109E+06
   -1.399990   18.52935  0.0000E+00  0.0000E+00  0.0000E+00  0.0000E+00  0.2431E-03  0.0000E+00
