 1 - depth, m
 2 - temperature, C
 3 - salinity, kg/kg
 4 - turbulent kinetic energy, m**2/s**2
 5 - dissipation rate, m**2/s**3
 6 - kinematic heat conductance, m**2/s
 7 - modulus of horizontal velocity, m/s
 8 - Richardson number, n/d
   -0.000000    0.00000  0.0000E+00  0.8807E-03  0.6618E-03  0.1178E-03  0.3147E+00  0.8859E-02
   -0.035000    0.04526  0.0000E+00  0.7730E-03  0.2050E-03  0.2499E-03  0.1804E+00  0.5250E-02
   -0.070001    0.06172  0.0000E+00  0.7110E-03  0.1096E-03  0.4156E-03  0.1467E+00  0.9971E-03
   -0.105001    0.07142  0.0000E+00  0.6710E-03  0.7368E-04  0.5770E-03  0.1294E+00  0.1528E-02
   -0.140002    0.07837  0.0000E+00  0.6444E-03  0.5528E-04  0.7180E-03  0.1180E+00  0.1939E-02
   -0.175004    0.08396  0.0000E+00  0.6233E-03  0.4406E-04  0.8450E-03  0.1091E+00  0.2312E-02
   -0.210005    0.08874  0.0000E+00  0.6052E-03  0.3657E-04  0.9580E-03  0.1018E+00  0.2677E-02
   -0.245007    0.09296  0.0000E+00  0.5890E-03  0.3126E-04  0.1056E-02  0.9545E-01  0.2994E-02
   -0.280009    0.09679  0.0000E+00  0.5738E-03  0.2729E-04  0.1138E-02  0.8977E-01  0.3229E-02
   -0.315011    0.10032  0.0000E+00  0.5585E-03  0.2417E-04  0.1222E-02  0.8454E-01  0.3734E-02
   -0.350014    0.10366  0.0000E+00  0.5435E-03  0.2166E-04  0.1295E-02  0.7982E-01  0.4328E-02
   -0.385016    0.10691  0.0000E+00  0.5289E-03  0.1961E-04  0.1356E-02  0.7551E-01  0.4965E-02
   -0.420019    0.11011  0.0000E+00  0.5147E-03  0.1790E-04  0.1397E-02  0.7152E-01  0.5399E-02
   -0.455022    0.11329  0.0000E+00  0.5004E-03  0.1646E-04  0.1424E-02  0.6771E-01  0.5751E-02
   -0.490025    0.11648  0.0000E+00  0.4858E-03  0.1523E-04  0.1449E-02  0.6404E-01  0.6065E-02
   -0.525028    0.11960  0.0000E+00  0.4696E-03  0.1408E-04  0.1514E-02  0.6052E-01  0.8658E-02
   -0.560031    0.12299  0.0000E+00  0.4519E-03  0.1295E-04  0.1587E-02  0.5745E-01  0.1486E-01
   -0.595035    0.12684  0.0000E+00  0.4312E-03  0.1172E-04  0.1637E-02  0.5489E-01  0.3740E-01
   -0.630038    0.13241  0.0000E+00  0.4118E-03  0.1063E-04  0.1631E-02  0.5279E-01  0.3962E-01
   -0.665042    0.13828  0.0000E+00  0.3943E-03  0.9686E-05  0.1626E-02  0.5074E-01  0.4037E-01
   -0.700045    0.14418  0.0000E+00  0.3783E-03  0.8877E-05  0.1622E-02  0.4873E-01  0.4165E-01
   -0.735048    0.15011  0.0000E+00  0.3636E-03  0.8173E-05  0.1618E-02  0.4677E-01  0.4410E-01
   -0.770052    0.15612  0.0000E+00  0.3498E-03  0.7557E-05  0.1612E-02  0.4486E-01  0.4712E-01
   -0.805055    0.16224  0.0000E+00  0.3370E-03  0.7017E-05  0.1603E-02  0.4302E-01  0.5037E-01
   -0.840058    0.16848  0.0000E+00  0.3249E-03  0.6547E-05  0.1590E-02  0.4124E-01  0.5341E-01
   -0.875062    0.17481  0.0000E+00  0.3135E-03  0.6137E-05  0.1574E-02  0.3950E-01  0.5731E-01
   -0.910065    0.18130  0.0000E+00  0.3026E-03  0.5783E-05  0.1550E-02  0.3781E-01  0.6019E-01
   -0.945068    0.18795  0.0000E+00  0.2924E-03  0.5486E-05  0.1520E-02  0.3615E-01  0.6142E-01
   -0.980071    0.19467  0.0000E+00  0.2827E-03  0.5244E-05  0.1484E-02  0.3452E-01  0.6159E-01
   -1.015074    0.20139  0.0000E+00  0.2732E-03  0.5056E-05  0.1445E-02  0.3289E-01  0.6380E-01
   -1.050076    0.20820  0.0000E+00  0.2638E-03  0.4926E-05  0.1396E-02  0.3128E-01  0.6772E-01
   -1.085079    0.21525  0.0000E+00  0.2543E-03  0.4868E-05  0.1334E-02  0.2969E-01  0.7524E-01
   -1.120081    0.22291  0.0000E+00  0.2447E-03  0.4908E-05  0.1256E-02  0.2812E-01  0.7807E-01
   -1.155083    0.23112  0.0000E+00  0.2350E-03  0.5086E-05  0.1170E-02  0.2649E-01 -0.2800E+00
   -1.190085    0.23976  0.0000E+00  0.2248E-03  0.5472E-05  0.1078E-02  0.2476E-01  0.5764E-01
   -1.225086    0.24807  0.0000E+00  0.2128E-03  0.6217E-05  0.9927E-03  0.2276E-01  0.3642E-01
   -1.260088    0.25572  0.0000E+00  0.1975E-03  0.7794E-05  0.9811E-03  0.2061E-01  0.1303E-01
   -1.295089    0.25698  0.0000E+00  0.1733E-03  0.1197E-04  0.7046E-03  0.1834E-01 -0.7401E+01
   -1.330089    0.30167  0.0000E+00  0.1387E-03  0.2221E-04  0.3480E-03  0.1670E-01 -0.9975E+02
   -1.365090    0.43257  0.0000E+00  0.8773E-04  0.5461E-04  0.9842E-04  0.1348E-01 -0.7950E+03
   -1.400090    0.70559  0.0000E+00  0.0000E+00  0.0000E+00  0.0000E+00  0.1551E-01  0.0000E+00
