 1 - depth, m
 2 - temperature, C
 3 - salinity, kg/kg
 4 - turbulent kinetic energy, m**2/s**2
 5 - dissipation rate, m**2/s**3
 6 - kinematic heat conductance, m**2/s
 7 - modulus of horizontal velocity, m/s
 8 - Richardson number, n/d
   -0.000000   20.39145  0.0000E+00  0.9748E-04  0.5866E-04  0.4239E-04  0.8115E-01 -0.9905E-01
   -0.034998   20.49258  0.0000E+00  0.5940E-04  0.1939E-04  0.6873E-04  0.3035E-01 -0.3840E-01
   -0.069996   20.52071  0.0000E+00  0.4480E-04  0.6283E-05  0.9880E-04  0.2080E-01 -0.6142E-01
   -0.104994   20.53542  0.0000E+00  0.3754E-04  0.3270E-05  0.1321E-03  0.1654E-01  0.1675E+01
   -0.139993   20.54491  0.0000E+00  0.3297E-04  0.1904E-05  0.2080E-03  0.1373E-01  0.2080E+03
   -0.174992   20.55164  0.0000E+00  0.2990E-04  0.1190E-05  0.2820E-03  0.1168E-01  0.1309E+03
   -0.209991   20.55703  0.0000E+00  0.2779E-04  0.7865E-06  0.3464E-03  0.1003E-01  0.3584E+03
   -0.244991   20.56094  0.0000E+00  0.2635E-04  0.5586E-06  0.4073E-03  0.8664E-02  0.7252E+03
   -0.279990   20.56410  0.0000E+00  0.2532E-04  0.4254E-06  0.4548E-03  0.7462E-02  0.5119E+03
   -0.314990   20.56679  0.0000E+00  0.2448E-04  0.3366E-06  0.5037E-03  0.6341E-02  0.3454E+03
   -0.349990   20.56909  0.0000E+00  0.2382E-04  0.2750E-06  0.5417E-03  0.5383E-02  0.1445E+03
   -0.384991   20.57118  0.0000E+00  0.2333E-04  0.2310E-06  0.5837E-03  0.4544E-02  0.5103E+02
   -0.419991   20.57316  0.0000E+00  0.2298E-04  0.1992E-06  0.6238E-03  0.3806E-02  0.6399E+02
   -0.454992   20.57501  0.0000E+00  0.2276E-04  0.1761E-06  0.6683E-03  0.3124E-02  0.1090E+02
   -0.489992   20.57677  0.0000E+00  0.2262E-04  0.1593E-06  0.7120E-03  0.2493E-02  0.1222E+02
   -0.524993   20.57846  0.0000E+00  0.2253E-04  0.1459E-06  0.7532E-03  0.1911E-02  0.2212E+01
   -0.559994   20.58023  0.0000E+00  0.2249E-04  0.1349E-06  0.8045E-03  0.1460E-02  0.1548E+01
   -0.594995   20.58214  0.0000E+00  0.2244E-04  0.1254E-06  0.9344E-03  0.1156E-02  0.1235E+01
   -0.629996   20.58425  0.0000E+00  0.2235E-04  0.1190E-06  0.1077E-02  0.9935E-03  0.1815E+01
   -0.664997   20.58614  0.0000E+00  0.2223E-04  0.1150E-06  0.1112E-02  0.8686E-03  0.1351E+01
   -0.699998   20.58799  0.0000E+00  0.2209E-04  0.1128E-06  0.1146E-02  0.7576E-03  0.1299E+01
   -0.734999   20.58980  0.0000E+00  0.2192E-04  0.1123E-06  0.1164E-02  0.6629E-03  0.1275E+01
   -0.770000   20.59160  0.0000E+00  0.2174E-04  0.1131E-06  0.1164E-02  0.5835E-03  0.1265E+01
   -0.805001   20.59343  0.0000E+00  0.2153E-04  0.1151E-06  0.1151E-02  0.5177E-03  0.1280E+01
   -0.840002   20.59532  0.0000E+00  0.2129E-04  0.1185E-06  0.1128E-02  0.4631E-03  0.1378E+01
   -0.875003   20.59731  0.0000E+00  0.2102E-04  0.1235E-06  0.1096E-02  0.4175E-03  0.1606E+01
   -0.910004   20.59942  0.0000E+00  0.2071E-04  0.1306E-06  0.1059E-02  0.3790E-03 -0.9276E+02
   -0.945005   20.60177  0.0000E+00  0.2035E-04  0.1408E-06  0.1024E-02  0.3449E-03  0.1840E+01
   -0.980005   20.60431  0.0000E+00  0.1993E-04  0.1554E-06  0.9705E-03  0.3139E-03  0.9388E+04
   -1.015006   20.60726  0.0000E+00  0.1941E-04  0.1774E-06  0.9300E-03  0.2845E-03  0.2345E+04
   -1.050006   20.61106  0.0000E+00  0.1880E-04  0.2096E-06  0.8831E-03  0.2547E-03  0.6552E+04
   -1.085006   20.61518  0.0000E+00  0.1807E-04  0.2608E-06  0.8195E-03  0.2265E-03  0.2314E+05
   -1.120006   20.62288  0.0000E+00  0.1724E-04  0.3309E-06  0.7685E-03  0.1968E-03  0.1101E+06
   -1.155006   20.62677  0.0000E+00  0.1632E-04  0.4576E-06  0.6725E-03  0.1716E-03  0.4160E+05
   -1.190005   20.64074  0.0000E+00  0.1534E-04  0.6477E-06  0.6379E-03  0.1361E-03  0.4006E+06
   -1.225004   20.64617  0.0000E+00  0.1450E-04  0.9489E-06  0.5370E-03  0.1075E-03  0.4701E+06
   -1.260003   20.67393  0.0000E+00  0.1336E-04  0.2363E-05  0.4870E-03  0.7861E-04  0.6124E+08
   -1.295002   20.73656  0.0000E+00  0.1234E-04  0.3690E-05  0.4579E-03  0.5511E-04  0.5194E+07
   -1.330000   20.68593  0.0000E+00  0.1056E-04  0.1169E-04  0.2726E-03  0.4939E-04 -0.1439E+10
   -1.364998   20.90737  0.0000E+00  0.8355E-05  0.1714E-04  0.3241E-03  0.2915E-04  0.1704E+06
   -1.399996   20.81142  0.0000E+00  0.0000E+00  0.0000E+00  0.0000E+00  0.6287E-04  0.0000E+00
