 1 - depth, m
 2 - temperature, C
 3 - salinity, kg/kg
 4 - turbulent kinetic energy, m**2/s**2
 5 - dissipation rate, m**2/s**3
 6 - kinematic heat conductance, m**2/s
 7 - modulus of horizontal velocity, m/s
 8 - Richardson number, n/d
   -0.000000   12.72683  0.0000E+00  0.3374E-04  0.5642E-05  0.2747E-04  0.3613E-01 -0.9580E-01
   -0.034998   12.86854  0.0000E+00  0.2361E-04  0.1669E-05  0.5511E-04  0.1595E-01 -0.5371E-01
   -0.069996   12.90771  0.0000E+00  0.2030E-04  0.7937E-06  0.1079E-03  0.1153E-01  0.4263E+02
   -0.104994   12.92906  0.0000E+00  0.1882E-04  0.4754E-06  0.2295E-03  0.9225E-02  0.2422E+03
   -0.139993   12.94072  0.0000E+00  0.1822E-04  0.3288E-06  0.3169E-03  0.7787E-02  0.9324E+03
   -0.174991   12.94833  0.0000E+00  0.1808E-04  0.2486E-06  0.3782E-03  0.6657E-02  0.4551E+04
   -0.209991   12.95406  0.0000E+00  0.1822E-04  0.1986E-06  0.4108E-03  0.5700E-02  0.2822E+03
   -0.244990   12.95911  0.0000E+00  0.1839E-04  0.1659E-06  0.5357E-03  0.4788E-02  0.1667E+03
   -0.279990   12.96310  0.0000E+00  0.1861E-04  0.1460E-06  0.6504E-03  0.4111E-02  0.5578E+01
   -0.314989   12.96631  0.0000E+00  0.1893E-04  0.1334E-06  0.6981E-03  0.3589E-02  0.3134E+01
   -0.349989   12.96929  0.0000E+00  0.1933E-04  0.1239E-06  0.7401E-03  0.3151E-02  0.2903E+01
   -0.384990   12.97235  0.0000E+00  0.1987E-04  0.1152E-06  0.6576E-03  0.2685E-02  0.2753E+01
   -0.419990   12.97576  0.0000E+00  0.2056E-04  0.1086E-06  0.7499E-03  0.2169E-02  0.2468E+01
   -0.454990   12.97877  0.0000E+00  0.2126E-04  0.1051E-06  0.8193E-03  0.1735E-02  0.2112E+01
   -0.489991   12.98156  0.0000E+00  0.2199E-04  0.1043E-06  0.8818E-03  0.1348E-02  0.1849E+01
   -0.524992   12.98420  0.0000E+00  0.2280E-04  0.1062E-06  0.9313E-03  0.1013E-02  0.1488E+01
   -0.559992   12.98707  0.0000E+00  0.2367E-04  0.1105E-06  0.1016E-02  0.7709E-03  0.1363E+01
   -0.594993   12.99029  0.0000E+00  0.2447E-04  0.1163E-06  0.1227E-02  0.6213E-03  0.1242E+01
   -0.629994   12.99397  0.0000E+00  0.2495E-04  0.1213E-06  0.1404E-02  0.5452E-03  0.1419E+01
   -0.664995   12.99733  0.0000E+00  0.2525E-04  0.1261E-06  0.1425E-02  0.4922E-03  0.1367E+01
   -0.699996   13.00067  0.0000E+00  0.2544E-04  0.1312E-06  0.1430E-02  0.4468E-03  0.1331E+01
   -0.734997   13.00407  0.0000E+00  0.2554E-04  0.1370E-06  0.1412E-02  0.4084E-03  0.1358E+01
   -0.769998   13.00760  0.0000E+00  0.2557E-04  0.1437E-06  0.1376E-02  0.3759E-03  0.1608E+02
   -0.804999   13.01139  0.0000E+00  0.2551E-04  0.1514E-06  0.1397E-02  0.3479E-03  0.3796E+01
   -0.840000   13.01530  0.0000E+00  0.2538E-04  0.1611E-06  0.1280E-02  0.3248E-03  0.3872E+02
   -0.875001   13.01981  0.0000E+00  0.2517E-04  0.1742E-06  0.1259E-02  0.3026E-03  0.3174E+02
   -0.910001   13.02482  0.0000E+00  0.2488E-04  0.1910E-06  0.1207E-02  0.2820E-03  0.1223E+02
   -0.945002   13.03020  0.0000E+00  0.2450E-04  0.2136E-06  0.1202E-02  0.2622E-03  0.1126E+03
   -0.980002   13.03649  0.0000E+00  0.2402E-04  0.2502E-06  0.1096E-02  0.2422E-03  0.7685E+03
   -1.015003   13.04415  0.0000E+00  0.2346E-04  0.2918E-06  0.1083E-02  0.2212E-03 -0.9135E+03
   -1.050003   13.05202  0.0000E+00  0.2278E-04  0.3734E-06  0.9926E-03  0.2004E-03  0.5335E+04
   -1.085003   13.06446  0.0000E+00  0.2199E-04  0.4798E-06  0.9343E-03  0.1773E-03  0.3559E+05
   -1.120003   13.07866  0.0000E+00  0.2108E-04  0.6122E-06  0.8820E-03  0.1565E-03  0.1623E+07
   -1.155002   13.09130  0.0000E+00  0.2010E-04  0.9115E-06  0.8103E-03  0.1347E-03  0.2670E+06
   -1.190002   13.12370  0.0000E+00  0.1909E-04  0.1251E-05  0.7668E-03  0.1097E-03  0.1966E+07
   -1.225001   13.13416  0.0000E+00  0.1815E-04  0.1862E-05  0.6384E-03  0.8666E-04  0.5634E+07
   -1.260000   13.21252  0.0000E+00  0.1692E-04  0.4370E-05  0.6037E-03  0.6332E-04  0.7462E+09
   -1.294998   13.35269  0.0000E+00  0.1579E-04  0.6541E-05  0.5445E-03  0.4543E-04  0.6090E+08
   -1.329997   13.24838  0.0000E+00  0.1379E-04  0.2187E-04  0.3114E-03  0.3988E-04 -0.1339E+10
   -1.364995   13.79665  0.0000E+00  0.1112E-04  0.3014E-04  0.3912E-03  0.2419E-04 -0.2653E+06
   -1.399992   13.53487  0.0000E+00  0.0000E+00  0.0000E+00  0.0000E+00  0.5217E-04  0.0000E+00
