 1 - depth, m
 2 - temperature, C
 3 - salinity, kg/kg
 4 - turbulent kinetic energy, m**2/s**2
 5 - dissipation rate, m**2/s**3
 6 - kinematic heat conductance, m**2/s
 7 - modulus of horizontal velocity, m/s
 8 - Richardson number, n/d
   -0.000000   15.25898  0.0000E+00  0.6405E-03  0.2394E-02  0.1025E-03  0.3507E+00  0.3091E-01
   -0.034998   15.54531  0.0000E+00  0.3578E-03  0.1153E-02  0.1605E-03  0.1086E+00 -0.1026E+00
   -0.069996   15.66147  0.0000E+00  0.2342E-03  0.3258E-03  0.2313E-03  0.6147E-01  0.5281E+01
   -0.104994   15.71363  0.0000E+00  0.1856E-03  0.1811E-03  0.2585E-03  0.4544E-01  0.3039E+01
   -0.139993   15.73668  0.0000E+00  0.1559E-03  0.1162E-03  0.2708E-03  0.3661E-01  0.5992E+01
   -0.174991   15.75147  0.0000E+00  0.1341E-03  0.7602E-04  0.2906E-03  0.3076E-01  0.1010E+01
   -0.209991   15.76246  0.0000E+00  0.1177E-03  0.4940E-04  0.3200E-03  0.2666E-01  0.5631E+00
   -0.244990   15.76949  0.0000E+00  0.1051E-03  0.3196E-04  0.3470E-03  0.2346E-01  0.9944E+00
   -0.279990   15.77560  0.0000E+00  0.9515E-04  0.2072E-04  0.3757E-03  0.2062E-01  0.1113E+02
   -0.314989   15.78315  0.0000E+00  0.8662E-04  0.1345E-04  0.4567E-03  0.1751E-01  0.7389E+02
   -0.349989   15.78879  0.0000E+00  0.7979E-04  0.8920E-05  0.5410E-03  0.1544E-01  0.1184E+03
   -0.384990   15.79273  0.0000E+00  0.7418E-04  0.5944E-05  0.6374E-03  0.1376E-01  0.1121E+03
   -0.419990   15.79696  0.0000E+00  0.6966E-04  0.4151E-05  0.7244E-03  0.1229E-01  0.2181E+03
   -0.454990   15.80021  0.0000E+00  0.6600E-04  0.3021E-05  0.7861E-03  0.1085E-01  0.2373E+03
   -0.489991   15.80395  0.0000E+00  0.6295E-04  0.2300E-05  0.8496E-03  0.9388E-02  0.3593E+03
   -0.524992   15.80714  0.0000E+00  0.5991E-04  0.1835E-05  0.8893E-03  0.7993E-02  0.4497E+02
   -0.559993   15.81078  0.0000E+00  0.5662E-04  0.1449E-05  0.9553E-03  0.6841E-02 -0.2013E+03
   -0.594993   15.81438  0.0000E+00  0.5295E-04  0.1096E-05  0.1058E-02  0.5994E-02  0.3849E+03
   -0.629994   15.81898  0.0000E+00  0.4978E-04  0.8491E-06  0.1083E-02  0.5517E-02  0.6091E+01
   -0.664995   15.82328  0.0000E+00  0.4696E-04  0.6731E-06  0.1078E-02  0.4982E-02  0.1947E+03
   -0.699996   15.82791  0.0000E+00  0.4455E-04  0.5520E-06  0.1114E-02  0.4466E-02  0.6716E+02
   -0.734997   15.83213  0.0000E+00  0.4259E-04  0.4713E-06  0.1162E-02  0.3997E-02 -0.1824E+03
   -0.769998   15.83627  0.0000E+00  0.4085E-04  0.4143E-06  0.1133E-02  0.3602E-02  0.2681E+02
   -0.804999   15.84061  0.0000E+00  0.3904E-04  0.3668E-06  0.1078E-02  0.3196E-02  0.1409E+03
   -0.840000   15.84510  0.0000E+00  0.3729E-04  0.3303E-06  0.1102E-02  0.2776E-02 -0.1100E+02
   -0.875001   15.84925  0.0000E+00  0.3573E-04  0.3047E-06  0.1087E-02  0.2443E-02  0.3370E+02
   -0.910002   15.85360  0.0000E+00  0.3421E-04  0.2859E-06  0.1035E-02  0.2151E-02  0.1517E+02
   -0.945002   15.85812  0.0000E+00  0.3257E-04  0.2738E-06  0.9649E-03  0.1853E-02  0.1152E+02
   -0.980003   15.86301  0.0000E+00  0.3097E-04  0.2707E-06  0.9057E-03  0.1582E-02  0.6529E+02
   -1.015003   15.86795  0.0000E+00  0.2943E-04  0.2780E-06  0.8491E-03  0.1332E-02  0.3423E+02
   -1.050003   15.87390  0.0000E+00  0.2794E-04  0.3005E-06  0.8164E-03  0.1123E-02  0.3954E+03
   -1.085003   15.88008  0.0000E+00  0.2641E-04  0.3549E-06  0.7617E-03  0.9512E-03  0.1413E+04
   -1.120003   15.89024  0.0000E+00  0.2481E-04  0.4590E-06  0.7509E-03  0.8012E-03  0.3355E+05
   -1.155003   15.89975  0.0000E+00  0.2317E-04  0.6686E-06  0.6758E-03  0.6698E-03  0.4712E+05
   -1.190002   15.91822  0.0000E+00  0.2156E-04  0.1043E-05  0.6360E-03  0.5296E-03  0.1317E+05
   -1.225001   15.93482  0.0000E+00  0.2021E-04  0.1696E-05  0.5543E-03  0.4020E-03 -0.9692E+05
   -1.260000   15.95935  0.0000E+00  0.1871E-04  0.3857E-05  0.5070E-03  0.2943E-03 -0.6581E+07
   -1.294999   16.09221  0.0000E+00  0.1718E-04  0.6664E-05  0.4898E-03  0.2090E-03  0.6415E+07
   -1.329997   16.00221  0.0000E+00  0.1475E-04  0.1869E-04  0.2932E-03  0.1812E-03 -0.2767E+09
   -1.364995   16.37618  0.0000E+00  0.1168E-04  0.2740E-04  0.3445E-03  0.1088E-03 -0.9854E+06
   -1.399993   16.21107  0.0000E+00  0.0000E+00  0.0000E+00  0.0000E+00  0.2331E-03  0.0000E+00
