 1 - depth, m
 2 - temperature, C
 3 - salinity, kg/kg
 4 - turbulent kinetic energy, m**2/s**2
 5 - dissipation rate, m**2/s**3
 6 - kinematic heat conductance, m**2/s
 7 - modulus of horizontal velocity, m/s
 8 - Richardson number, n/d
   -0.000000   -0.00004  0.0000E+00  0.7573E-03  0.1543E-02  0.1078E-03  0.4253E+00  0.1861E-01
   -0.035002    0.10087  0.0000E+00  0.5305E-03  0.7877E-03  0.2427E-03  0.1452E+00  0.1532E-01
   -0.070005    0.17169  0.0000E+00  0.4007E-03  0.2599E-03  0.3259E-03  0.8794E-01  0.7621E+02
   -0.105007    0.20108  0.0000E+00  0.3372E-03  0.1628E-03  0.3698E-03  0.6896E-01  0.9384E+00
   -0.140010    0.22009  0.0000E+00  0.2991E-03  0.1119E-03  0.3983E-03  0.5933E-01  0.5277E+00
   -0.175014    0.23343  0.0000E+00  0.2709E-03  0.7901E-04  0.4253E-03  0.5290E-01  0.5443E-01
   -0.210017    0.24382  0.0000E+00  0.2489E-03  0.5633E-04  0.4468E-03  0.4792E-01  0.1782E-01
   -0.245021    0.25293  0.0000E+00  0.2310E-03  0.4031E-04  0.4666E-03  0.4362E-01  0.6147E-01
   -0.280025    0.26144  0.0000E+00  0.2153E-03  0.2900E-04  0.4770E-03  0.3957E-01  0.2003E-01
   -0.315029    0.26992  0.0000E+00  0.2007E-03  0.2145E-04  0.5005E-03  0.3527E-01  0.5196E-02
   -0.350034    0.27846  0.0000E+00  0.1881E-03  0.1622E-04  0.5151E-03  0.3201E-01  0.6211E+00
   -0.385038    0.28725  0.0000E+00  0.1768E-03  0.1241E-04  0.5240E-03  0.2922E-01  0.8672E+03
   -0.420043    0.29616  0.0000E+00  0.1665E-03  0.9561E-05  0.5239E-03  0.2678E-01  0.5782E+01
   -0.455048    0.30529  0.0000E+00  0.1569E-03  0.7386E-05  0.5158E-03  0.2437E-01  0.1351E+02
   -0.490053    0.31532  0.0000E+00  0.1475E-03  0.5794E-05  0.5068E-03  0.2191E-01  0.6972E+03
   -0.525058    0.32826  0.0000E+00  0.1375E-03  0.4668E-05  0.5179E-03  0.1955E-01  0.3700E+06
   -0.560064    0.34599  0.0000E+00  0.1273E-03  0.3831E-05  0.5211E-03  0.1775E-01  0.9911E+09
   -0.595069    0.37187  0.0000E+00  0.1158E-03  0.3102E-05  0.4963E-03  0.1647E-01  0.4192E+08
   -0.630074    0.39757  0.0000E+00  0.1051E-03  0.2564E-05  0.4622E-03  0.1569E-01  0.2771E+09
   -0.665080    0.42436  0.0000E+00  0.9546E-04  0.2161E-05  0.4289E-03  0.1477E-01  0.2543E+08
   -0.700085    0.45462  0.0000E+00  0.8672E-04  0.1837E-05  0.3962E-03  0.1381E-01  0.2914E+08
   -0.735090    0.48953  0.0000E+00  0.7867E-04  0.1570E-05  0.3636E-03  0.1284E-01  0.1127E+09
   -0.770096    0.52996  0.0000E+00  0.7119E-04  0.1346E-05  0.3309E-03  0.1189E-01  0.1767E+10
   -0.805101    0.58304  0.0000E+00  0.6418E-04  0.1156E-05  0.2980E-03  0.1095E-01  0.1310E+11
   -0.840106    0.65771  0.0000E+00  0.5765E-04  0.9924E-06  0.2682E-03  0.1001E-01  0.9843E+11
   -0.875112    0.75179  0.0000E+00  0.5159E-04  0.8521E-06  0.2401E-03  0.9094E-02  0.3608E+13
   -0.910117    0.87451  0.0000E+00  0.4603E-04  0.7321E-06  0.2151E-03  0.8193E-02  0.9372E+13
   -0.945122    1.01453  0.0000E+00  0.4094E-04  0.6284E-06  0.1930E-03  0.7286E-02  0.1965E+13
   -0.980127    1.20879  0.0000E+00  0.3634E-04  0.5399E-06  0.1785E-03  0.6349E-02 -0.1491E+13
   -1.015132    1.42456  0.0000E+00  0.3210E-04  0.4622E-06  0.1660E-03  0.5418E-02 -0.3813E+12
   -1.050136    1.69602  0.0000E+00  0.2828E-04  0.3947E-06  0.1577E-03  0.4529E-02 -0.9062E+12
   -1.085141    1.97804  0.0000E+00  0.2494E-04  0.3380E-06  0.1512E-03  0.3756E-02  0.3594E+13
   -1.120145    2.27811  0.0000E+00  0.2203E-04  0.2908E-06  0.1518E-03  0.3093E-02  0.2672E+12
   -1.155149    2.57528  0.0000E+00  0.1961E-04  0.2542E-06  0.1525E-03  0.2511E-02 -0.3340E+13
   -1.190153    2.86894  0.0000E+00  0.1766E-04  0.2275E-06  0.1546E-03  0.1955E-02 -0.3031E+13
   -1.225156    3.14990  0.0000E+00  0.1619E-04  0.2130E-06  0.1567E-03  0.1501E-02 -0.3340E+13
   -1.260160    3.43940  0.0000E+00  0.1488E-04  0.2123E-06  0.1512E-03  0.1164E-02 -0.9165E+13
   -1.295163    3.72319  0.0000E+00  0.1299E-04  0.2431E-06  0.1241E-03  0.9049E-03 -0.2246E+14
   -1.330165    4.05827  0.0000E+00  0.1060E-04  0.3557E-06  0.9400E-04  0.7155E-03 -0.2535E+14
   -1.365168    4.30550  0.0000E+00  0.6539E-05  0.8519E-06  0.2837E-04  0.5694E-03 -0.4733E+15
   -1.400170    4.81547  0.0000E+00  0.0000E+00  0.0000E+00  0.0000E+00  0.6110E-03  0.0000E+00
