 1 - depth, m
 2 - temperature, C
 3 - salinity, kg/kg
 4 - turbulent kinetic energy, m**2/s**2
 5 - dissipation rate, m**2/s**3
 6 - kinematic heat conductance, m**2/s
 7 - modulus of horizontal velocity, m/s
 8 - Richardson number, n/d
   -0.000000   21.67275  0.0000E+00  0.3022E-04  0.6408E-05  0.2721E-04  0.3136E-01  0.6942E-01
   -0.034998   21.74294  0.0000E+00  0.2159E-04  0.1836E-05  0.6115E-04  0.1397E-01 -0.1490E+00
   -0.069995   21.76250  0.0000E+00  0.1863E-04  0.8791E-06  0.1527E-03  0.1014E-01  0.6250E+03
   -0.104994   21.77139  0.0000E+00  0.1731E-04  0.5131E-06  0.2510E-03  0.8339E-02  0.9171E+02
   -0.139992   21.77674  0.0000E+00  0.1671E-04  0.3370E-06  0.3195E-03  0.7102E-02  0.7315E+02
   -0.174991   21.78062  0.0000E+00  0.1654E-04  0.2429E-06  0.3697E-03  0.6107E-02  0.2949E+03
   -0.209990   21.78371  0.0000E+00  0.1662E-04  0.1885E-06  0.4124E-03  0.5257E-02  0.2192E+03
   -0.244989   21.78632  0.0000E+00  0.1684E-04  0.1544E-06  0.4598E-03  0.4501E-02  0.6220E+02
   -0.279989   21.78857  0.0000E+00  0.1713E-04  0.1315E-06  0.5133E-03  0.3812E-02  0.8960E+02
   -0.314989   21.79056  0.0000E+00  0.1741E-04  0.1147E-06  0.5824E-03  0.3165E-02  0.2614E+02
   -0.349989   21.79231  0.0000E+00  0.1769E-04  0.1023E-06  0.6518E-03  0.2615E-02  0.6820E+01
   -0.384989   21.79390  0.0000E+00  0.1796E-04  0.9300E-07  0.7178E-03  0.2149E-02  0.2752E+01
   -0.419989   21.79536  0.0000E+00  0.1824E-04  0.8637E-07  0.7762E-03  0.1756E-02  0.2336E+01
   -0.454989   21.79672  0.0000E+00  0.1851E-04  0.8186E-07  0.8285E-03  0.1409E-02  0.2098E+01
   -0.489990   21.79800  0.0000E+00  0.1877E-04  0.7915E-07  0.8738E-03  0.1102E-02  0.1854E+01
   -0.524991   21.79922  0.0000E+00  0.1903E-04  0.7787E-07  0.9296E-03  0.8337E-03  0.1456E+01
   -0.559991   21.80045  0.0000E+00  0.1929E-04  0.7779E-07  0.1035E-02  0.6397E-03  0.1285E+01
   -0.594992   21.80169  0.0000E+00  0.1952E-04  0.7856E-07  0.1255E-02  0.5182E-03  0.1158E+01
   -0.629993   21.80296  0.0000E+00  0.1964E-04  0.7960E-07  0.1369E-02  0.4550E-03  0.1302E+01
   -0.664994   21.80415  0.0000E+00  0.1969E-04  0.8096E-07  0.1370E-02  0.4097E-03  0.1263E+01
   -0.699995   21.80534  0.0000E+00  0.1970E-04  0.8272E-07  0.1360E-02  0.3704E-03  0.1233E+01
   -0.734996   21.80654  0.0000E+00  0.1967E-04  0.8489E-07  0.1338E-02  0.3369E-03  0.1230E+01
   -0.769997   21.80778  0.0000E+00  0.1961E-04  0.8754E-07  0.1311E-02  0.3085E-03  0.1271E+01
   -0.804998   21.80907  0.0000E+00  0.1951E-04  0.9081E-07  0.1276E-02  0.2843E-03  0.1258E+01
   -0.839998   21.81043  0.0000E+00  0.1937E-04  0.9487E-07  0.1235E-02  0.2634E-03  0.1437E+01
   -0.874999   21.81188  0.0000E+00  0.1919E-04  0.1000E-06  0.1191E-02  0.2447E-03 -0.1512E+02
   -0.910000   21.81346  0.0000E+00  0.1895E-04  0.1068E-06  0.1151E-02  0.2276E-03 -0.1054E+04
   -0.945000   21.81519  0.0000E+00  0.1866E-04  0.1157E-06  0.1092E-02  0.2114E-03  0.1363E+03
   -0.980001   21.81717  0.0000E+00  0.1830E-04  0.1275E-06  0.1048E-02  0.1954E-03  0.5738E+03
   -1.015001   21.81939  0.0000E+00  0.1787E-04  0.1445E-06  0.9864E-03  0.1795E-03  0.9166E+03
   -1.050001   21.82218  0.0000E+00  0.1733E-04  0.1700E-06  0.9153E-03  0.1623E-03  0.2490E+05
   -1.085001   21.82555  0.0000E+00  0.1668E-04  0.2151E-06  0.8630E-03  0.1451E-03  0.1925E+04
   -1.120001   21.83064  0.0000E+00  0.1592E-04  0.2687E-06  0.7952E-03  0.1272E-03  0.5127E+05
   -1.155000   21.83393  0.0000E+00  0.1508E-04  0.3796E-06  0.6870E-03  0.1107E-03  0.1533E+05
   -1.190000   21.84483  0.0000E+00  0.1418E-04  0.5271E-06  0.6722E-03  0.8869E-04  0.2197E+06
   -1.224999   21.84886  0.0000E+00  0.1336E-04  0.7665E-06  0.5388E-03  0.7058E-04  0.4306E+06
   -1.259997   21.86911  0.0000E+00  0.1227E-04  0.1750E-05  0.5050E-03  0.5224E-04  0.3698E+09
   -1.294996   21.91750  0.0000E+00  0.1123E-04  0.2780E-05  0.4648E-03  0.3702E-04  0.1828E+08
   -1.329994   21.87931  0.0000E+00  0.9476E-05  0.8086E-05  0.2527E-03  0.3259E-04 -0.9834E+10
   -1.364992   22.04065  0.0000E+00  0.7491E-05  0.1220E-04  0.3022E-03  0.1965E-04 -0.2431E+05
   -1.399990   21.98107  0.0000E+00  0.0000E+00  0.0000E+00  0.0000E+00  0.4079E-04  0.0000E+00
