 1 - depth, m
 2 - temperature, C
 3 - salinity, kg/kg
 4 - turbulent kinetic energy, m**2/s**2
 5 - dissipation rate, m**2/s**3
 6 - kinematic heat conductance, m**2/s
 7 - modulus of horizontal velocity, m/s
 8 - Richardson number, n/d
   -0.000000   18.09350  0.0000E+00  0.1074E-02  0.7986E-02  0.1085E-03  0.4739E+00 -0.2373E-01
   -0.034998   18.33878  0.0000E+00  0.5491E-03  0.4711E-02  0.2033E-03  0.1456E+00 -0.7484E-01
   -0.069996   18.45387  0.0000E+00  0.3531E-03  0.1959E-02  0.3008E-03  0.7705E-01  0.4029E+00
   -0.104994   18.49401  0.0000E+00  0.2751E-03  0.1263E-02  0.3161E-03  0.5541E-01  0.6160E+00
   -0.139993   18.51264  0.0000E+00  0.2265E-03  0.8416E-03  0.3173E-03  0.4387E-01  0.1297E+01
   -0.174992   18.52407  0.0000E+00  0.1902E-03  0.5736E-03  0.3291E-03  0.3634E-01  0.1824E+01
   -0.209991   18.53242  0.0000E+00  0.1648E-03  0.3922E-03  0.3553E-03  0.3121E-01 -0.1727E+00
   -0.244991   18.53790  0.0000E+00  0.1452E-03  0.2646E-03  0.3738E-03  0.2741E-01  0.4664E+01
   -0.279990   18.54265  0.0000E+00  0.1292E-03  0.1770E-03  0.3769E-03  0.2395E-01  0.9369E+01
   -0.314990   18.54905  0.0000E+00  0.1156E-03  0.1183E-03  0.4392E-03  0.2012E-01  0.2663E+02
   -0.349990   18.55311  0.0000E+00  0.1050E-03  0.7893E-04  0.4759E-03  0.1773E-01  0.1242E+02
   -0.384991   18.55671  0.0000E+00  0.9639E-04  0.5180E-04  0.5417E-03  0.1585E-01  0.4634E+02
   -0.419991   18.55998  0.0000E+00  0.8947E-04  0.3378E-04  0.6110E-03  0.1428E-01  0.1966E+03
   -0.454992   18.56271  0.0000E+00  0.8385E-04  0.2195E-04  0.6831E-03  0.1272E-01  0.4692E+03
   -0.489992   18.56657  0.0000E+00  0.7919E-04  0.1529E-04  0.7766E-03  0.1110E-01  0.2394E+03
   -0.524993   18.56887  0.0000E+00  0.7481E-04  0.1098E-04  0.8443E-03  0.9595E-02 -0.2258E+03
   -0.559994   18.57256  0.0000E+00  0.7025E-04  0.7644E-05  0.9314E-03  0.8433E-02  0.2032E+03
   -0.594995   18.57474  0.0000E+00  0.6490E-04  0.4730E-05  0.9972E-03  0.7550E-02  0.5796E+01
   -0.629996   18.57877  0.0000E+00  0.6027E-04  0.3210E-05  0.1047E-02  0.7083E-02 -0.2491E+03
   -0.664997   18.58135  0.0000E+00  0.5649E-04  0.2424E-05  0.1068E-02  0.6545E-02  0.4732E+02
   -0.699998   18.58454  0.0000E+00  0.5313E-04  0.1767E-05  0.1050E-02  0.5994E-02  0.3515E+03
   -0.734999   18.58799  0.0000E+00  0.5005E-04  0.1183E-05  0.1067E-02  0.5413E-02  0.1684E+03
   -0.770000   18.59137  0.0000E+00  0.4734E-04  0.8613E-06  0.1063E-02  0.4887E-02 -0.7857E+02
   -0.805001   18.59487  0.0000E+00  0.4477E-04  0.6623E-06  0.1044E-02  0.4389E-02  0.1066E+03
   -0.840002   18.59807  0.0000E+00  0.4236E-04  0.5375E-06  0.1055E-02  0.3898E-02  0.1122E+03
   -0.875003   18.60162  0.0000E+00  0.4013E-04  0.4562E-06  0.1037E-02  0.3462E-02  0.5180E+02
   -0.910004   18.60518  0.0000E+00  0.3799E-04  0.4005E-06  0.1007E-02  0.3051E-02  0.2344E+02
   -0.945005   18.60890  0.0000E+00  0.3594E-04  0.3623E-06  0.9672E-03  0.2677E-02  0.1247E+03
   -0.980005   18.61252  0.0000E+00  0.3399E-04  0.3372E-06  0.9386E-03  0.2326E-02  0.2634E+02
   -1.015006   18.61617  0.0000E+00  0.3215E-04  0.3244E-06  0.8670E-03  0.2012E-02  0.5664E+02
   -1.050006   18.62024  0.0000E+00  0.3029E-04  0.3233E-06  0.8066E-03  0.1725E-02  0.3370E+02
   -1.085006   18.62465  0.0000E+00  0.2836E-04  0.3418E-06  0.7504E-03  0.1464E-02  0.2752E+04
   -1.120006   18.63041  0.0000E+00  0.2641E-04  0.3951E-06  0.7014E-03  0.1245E-02  0.1760E+05
   -1.155006   18.63766  0.0000E+00  0.2443E-04  0.5148E-06  0.6710E-03  0.1040E-02  0.1063E+05
   -1.190005   18.64734  0.0000E+00  0.2244E-04  0.7710E-06  0.5877E-03  0.8487E-03  0.1193E+05
   -1.225004   18.66246  0.0000E+00  0.2064E-04  0.1238E-05  0.5374E-03  0.6440E-03 -0.3115E+05
   -1.260003   18.67322  0.0000E+00  0.1876E-04  0.2770E-05  0.4443E-03  0.4645E-03 -0.3602E+07
   -1.295002   18.77131  0.0000E+00  0.1679E-04  0.5510E-05  0.4490E-03  0.3108E-03  0.7688E+07
   -1.330001   18.70623  0.0000E+00  0.1419E-04  0.1440E-04  0.2726E-03  0.2703E-03 -0.1965E+09
   -1.364999   18.96204  0.0000E+00  0.1100E-04  0.2213E-04  0.2970E-03  0.1672E-03 -0.1535E+06
   -1.399996   18.86034  0.0000E+00  0.0000E+00  0.0000E+00  0.0000E+00  0.3324E-03  0.0000E+00
