 1 - depth, m
 2 - temperature, C
 3 - salinity, kg/kg
 4 - turbulent kinetic energy, m**2/s**2
 5 - dissipation rate, m**2/s**3
 6 - kinematic heat conductance, m**2/s
 7 - modulus of horizontal velocity, m/s
 8 - Richardson number, n/d
   -0.000000   13.68160  0.0000E+00  0.4710E-04  0.2441E-04  0.2797E-04  0.4280E-01 -0.8174E-01
   -0.034998   13.80437  0.0000E+00  0.3042E-04  0.1129E-04  0.6757E-04  0.1708E-01  0.3466E+00
   -0.069996   13.83320  0.0000E+00  0.2487E-04  0.6356E-05  0.1339E-03  0.1240E-01  0.1847E+03
   -0.104994   13.84819  0.0000E+00  0.2161E-04  0.1755E-05  0.2018E-03  0.1013E-01  0.1445E+03
   -0.139993   13.85828  0.0000E+00  0.1998E-04  0.7140E-06  0.2793E-03  0.8486E-02  0.6656E+02
   -0.174992   13.86567  0.0000E+00  0.1917E-04  0.4156E-06  0.3400E-03  0.7215E-02  0.6529E+02
   -0.209991   13.87151  0.0000E+00  0.1882E-04  0.2847E-06  0.4005E-03  0.6190E-02  0.2590E+03
   -0.244990   13.87612  0.0000E+00  0.1878E-04  0.2170E-06  0.4552E-03  0.5310E-02  0.7597E+03
   -0.279990   13.87989  0.0000E+00  0.1893E-04  0.1770E-06  0.5152E-03  0.4520E-02  0.1819E+03
   -0.314990   13.88320  0.0000E+00  0.1917E-04  0.1508E-06  0.5851E-03  0.3785E-02  0.8671E+02
   -0.349990   13.88608  0.0000E+00  0.1949E-04  0.1328E-06  0.6516E-03  0.3157E-02  0.1452E+02
   -0.384990   13.88877  0.0000E+00  0.1989E-04  0.1201E-06  0.7170E-03  0.2618E-02  0.4604E+01
   -0.419991   13.89128  0.0000E+00  0.2035E-04  0.1118E-06  0.7781E-03  0.2157E-02  0.2643E+01
   -0.454991   13.89365  0.0000E+00  0.2086E-04  0.1068E-06  0.8361E-03  0.1745E-02  0.2142E+01
   -0.489992   13.89590  0.0000E+00  0.2143E-04  0.1047E-06  0.8888E-03  0.1377E-02  0.1866E+01
   -0.524993   13.89806  0.0000E+00  0.2211E-04  0.1051E-06  0.9445E-03  0.1049E-02  0.1484E+01
   -0.559993   13.90046  0.0000E+00  0.2287E-04  0.1079E-06  0.1042E-02  0.8022E-03  0.1365E+01
   -0.594994   13.90319  0.0000E+00  0.2361E-04  0.1121E-06  0.1232E-02  0.6445E-03  0.1241E+01
   -0.629995   13.90648  0.0000E+00  0.2407E-04  0.1160E-06  0.1353E-02  0.5591E-03  0.1425E+01
   -0.664996   13.90954  0.0000E+00  0.2437E-04  0.1200E-06  0.1367E-02  0.4989E-03  0.1356E+01
   -0.699997   13.91261  0.0000E+00  0.2454E-04  0.1240E-06  0.1475E-02  0.4460E-03  0.1385E+01
   -0.734998   13.91544  0.0000E+00  0.2462E-04  0.1285E-06  0.1411E-02  0.4179E-03  0.1804E+01
   -0.769999   13.91852  0.0000E+00  0.2464E-04  0.1340E-06  0.1352E-02  0.3933E-03  0.1574E+01
   -0.805000   13.92183  0.0000E+00  0.2461E-04  0.1413E-06  0.1322E-02  0.3605E-03  0.3590E+01
   -0.840001   13.92536  0.0000E+00  0.2450E-04  0.1502E-06  0.1318E-02  0.3327E-03  0.3891E+04
   -0.875002   13.92905  0.0000E+00  0.2431E-04  0.1620E-06  0.1217E-02  0.3086E-03  0.2303E+02
   -0.910003   13.93349  0.0000E+00  0.2405E-04  0.1768E-06  0.1203E-02  0.2857E-03  0.9569E+02
   -0.945004   13.93801  0.0000E+00  0.2368E-04  0.1976E-06  0.1144E-02  0.2652E-03  0.3052E+03
   -0.980004   13.94391  0.0000E+00  0.2324E-04  0.2256E-06  0.1130E-02  0.2435E-03  0.7150E+04
   -1.015005   13.94913  0.0000E+00  0.2269E-04  0.2634E-06  0.1028E-02  0.2237E-03 -0.6602E+03
   -1.050005   13.95822  0.0000E+00  0.2202E-04  0.3252E-06  0.9919E-03  0.2001E-03  0.1529E+05
   -1.085005   13.96599  0.0000E+00  0.2124E-04  0.4223E-06  0.9238E-03  0.1790E-03  0.1748E+05
   -1.120005   13.98295  0.0000E+00  0.2035E-04  0.5406E-06  0.8800E-03  0.1552E-03  0.2223E+06
   -1.155004   13.99034  0.0000E+00  0.1941E-04  0.8359E-06  0.7748E-03  0.1354E-03  0.1572E+07
   -1.190004   14.02355  0.0000E+00  0.1842E-04  0.1146E-05  0.7640E-03  0.1078E-03  0.7959E+07
   -1.225003   14.03078  0.0000E+00  0.1754E-04  0.1818E-05  0.6206E-03  0.8518E-04  0.2472E+07
   -1.260002   14.08979  0.0000E+00  0.1638E-04  0.4661E-05  0.5696E-03  0.6285E-04  0.2185E+09
   -1.295001   14.24893  0.0000E+00  0.1527E-04  0.6809E-05  0.5504E-03  0.4460E-04  0.3862E+08
   -1.329999   14.12995  0.0000E+00  0.1341E-04  0.2228E-04  0.3253E-03  0.3933E-04 -0.9840E+09
   -1.364997   14.64166  0.0000E+00  0.1079E-04  0.3029E-04  0.3968E-03  0.2351E-04  0.3326E+06
   -1.399995   14.38712  0.0000E+00  0.0000E+00  0.0000E+00  0.0000E+00  0.5183E-04  0.0000E+00
