 1 - depth, m
 2 - temperature, C
 3 - salinity, kg/kg
 4 - turbulent kinetic energy, m**2/s**2
 5 - dissipation rate, m**2/s**3
 6 - kinematic heat conductance, m**2/s
 7 - modulus of horizontal velocity, m/s
 8 - Richardson number, n/d
   -0.000000    8.40682  0.0000E+00  0.3647E-04  0.9242E-05  0.2616E-04  0.3670E-01 -0.1552E+00
   -0.034998    8.56739  0.0000E+00  0.2421E-04  0.2602E-05  0.8101E-04  0.1498E-01  0.3354E+02
   -0.069996    8.60583  0.0000E+00  0.1990E-04  0.1162E-05  0.1320E-03  0.1073E-01  0.1457E+02
   -0.104994    8.62864  0.0000E+00  0.1768E-04  0.6419E-06  0.1820E-03  0.8600E-02  0.1937E+01
   -0.139993    8.64495  0.0000E+00  0.1638E-04  0.3954E-06  0.2454E-03  0.7106E-02  0.4969E+03
   -0.174992    8.65722  0.0000E+00  0.1565E-04  0.2684E-06  0.3264E-03  0.5983E-02  0.1105E+03
   -0.209991    8.66638  0.0000E+00  0.1529E-04  0.1984E-06  0.4125E-03  0.5105E-02  0.3856E+03
   -0.244990    8.67309  0.0000E+00  0.1520E-04  0.1573E-06  0.4707E-03  0.4375E-02  0.4635E+03
   -0.279990    8.67849  0.0000E+00  0.1525E-04  0.1312E-06  0.5202E-03  0.3725E-02  0.3598E+03
   -0.314990    8.68313  0.0000E+00  0.1538E-04  0.1130E-06  0.5777E-03  0.3125E-02  0.1712E+02
   -0.349990    8.68734  0.0000E+00  0.1558E-04  0.9987E-07  0.6349E-03  0.2614E-02  0.3551E+01
   -0.384990    8.69131  0.0000E+00  0.1583E-04  0.9042E-07  0.6934E-03  0.2175E-02  0.2536E+01
   -0.419990    8.69510  0.0000E+00  0.1614E-04  0.8383E-07  0.7485E-03  0.1797E-02  0.2230E+01
   -0.454991    8.69869  0.0000E+00  0.1651E-04  0.7959E-07  0.8041E-03  0.1458E-02  0.2006E+01
   -0.489991    8.70211  0.0000E+00  0.1693E-04  0.7738E-07  0.8553E-03  0.1152E-02  0.1813E+01
   -0.524992    8.70539  0.0000E+00  0.1744E-04  0.7692E-07  0.9178E-03  0.8773E-03  0.1469E+01
   -0.559993    8.70902  0.0000E+00  0.1804E-04  0.7806E-07  0.9969E-03  0.6705E-03  0.1366E+01
   -0.594994    8.71319  0.0000E+00  0.1864E-04  0.8039E-07  0.1120E-02  0.5368E-03  0.1299E+01
   -0.629995    8.71839  0.0000E+00  0.1904E-04  0.8277E-07  0.1217E-02  0.4640E-03  0.1700E+01
   -0.664996    8.72326  0.0000E+00  0.1932E-04  0.8533E-07  0.1236E-02  0.4149E-03  0.1748E+01
   -0.699997    8.72809  0.0000E+00  0.1953E-04  0.8824E-07  0.1250E-02  0.3729E-03  0.1831E+01
   -0.734998    8.73293  0.0000E+00  0.1967E-04  0.9154E-07  0.1244E-02  0.3376E-03  0.2004E+01
   -0.769999    8.73791  0.0000E+00  0.1976E-04  0.9527E-07  0.1224E-02  0.3080E-03  0.2271E+01
   -0.805000    8.74311  0.0000E+00  0.1980E-04  0.9961E-07  0.1194E-02  0.2830E-03  0.2771E+01
   -0.840000    8.74862  0.0000E+00  0.1979E-04  0.1048E-06  0.1154E-02  0.2613E-03  0.4839E+01
   -0.875001    8.75450  0.0000E+00  0.1972E-04  0.1112E-06  0.1114E-02  0.2421E-03  0.4567E+01
   -0.910002    8.76092  0.0000E+00  0.1958E-04  0.1195E-06  0.1077E-02  0.2246E-03  0.9390E+02
   -0.945003    8.76797  0.0000E+00  0.1938E-04  0.1305E-06  0.1029E-02  0.2081E-03  0.9281E+02
   -0.980003    8.77591  0.0000E+00  0.1910E-04  0.1448E-06  0.9662E-03  0.1919E-03  0.1148E+04
   -1.015004    8.78496  0.0000E+00  0.1874E-04  0.1649E-06  0.9302E-03  0.1754E-03  0.9491E+03
   -1.050004    8.79600  0.0000E+00  0.1828E-04  0.1938E-06  0.8953E-03  0.1584E-03  0.1573E+04
   -1.085004    8.80982  0.0000E+00  0.1770E-04  0.2388E-06  0.7956E-03  0.1407E-03  0.3269E+05
   -1.120004    8.82992  0.0000E+00  0.1700E-04  0.3027E-06  0.7511E-03  0.1232E-03  0.8011E+05
   -1.155003    8.84821  0.0000E+00  0.1625E-04  0.4191E-06  0.6508E-03  0.1062E-03  0.2947E+06
   -1.190003    8.88463  0.0000E+00  0.1541E-04  0.5923E-06  0.6235E-03  0.8637E-04  0.9424E+06
   -1.225002    8.90857  0.0000E+00  0.1474E-04  0.8776E-06  0.5357E-03  0.6741E-04 -0.2384E+07
   -1.260001    8.97127  0.0000E+00  0.1387E-04  0.2475E-05  0.4691E-03  0.5066E-04 -0.4187E+09
   -1.294999    9.21898  0.0000E+00  0.1292E-04  0.3785E-05  0.4699E-03  0.3559E-04  0.3984E+09
   -1.329998    9.04772  0.0000E+00  0.1119E-04  0.1046E-04  0.2509E-03  0.3100E-04 -0.2201E+11
   -1.364996    9.78312  0.0000E+00  0.8909E-05  0.1565E-04  0.2997E-03  0.1854E-04 -0.1530E+08
   -1.399993    9.43980  0.0000E+00  0.0000E+00  0.0000E+00  0.0000E+00  0.3786E-04  0.0000E+00
