 1 - depth, m
 2 - temperature, C
 3 - salinity, kg/kg
 4 - turbulent kinetic energy, m**2/s**2
 5 - dissipation rate, m**2/s**3
 6 - kinematic heat conductance, m**2/s
 7 - modulus of horizontal velocity, m/s
 8 - Richardson number, n/d
   -0.000000   10.23816  0.0000E+00  0.4591E-04  0.1008E-04  0.3076E-04  0.4616E-01 -0.6430E-01
   -0.034998   10.41296  0.0000E+00  0.3005E-04  0.2922E-05  0.5645E-04  0.1903E-01 -0.7326E-01
   -0.069996   10.45855  0.0000E+00  0.2453E-04  0.1344E-05  0.9060E-04  0.1370E-01  0.3449E+00
   -0.104994   10.48512  0.0000E+00  0.2168E-04  0.7584E-06  0.1680E-03  0.1098E-01  0.1315E+03
   -0.139993   10.50209  0.0000E+00  0.2006E-04  0.4832E-06  0.2700E-03  0.9194E-02  0.1424E+03
   -0.174992   10.51338  0.0000E+00  0.1917E-04  0.3389E-06  0.3357E-03  0.7871E-02  0.2599E+03
   -0.209991   10.52178  0.0000E+00  0.1875E-04  0.2564E-06  0.3899E-03  0.6773E-02  0.3053E+03
   -0.244990   10.52834  0.0000E+00  0.1863E-04  0.2061E-06  0.4338E-03  0.5820E-02  0.1872E+03
   -0.279990   10.53386  0.0000E+00  0.1869E-04  0.1728E-06  0.4744E-03  0.4958E-02  0.2841E+03
   -0.314990   10.53872  0.0000E+00  0.1882E-04  0.1488E-06  0.5291E-03  0.4150E-02  0.8525E+02
   -0.349990   10.54312  0.0000E+00  0.1905E-04  0.1311E-06  0.5862E-03  0.3457E-02  0.4197E+01
   -0.384990   10.54721  0.0000E+00  0.1936E-04  0.1181E-06  0.6488E-03  0.2858E-02  0.3673E+01
   -0.419991   10.55103  0.0000E+00  0.1975E-04  0.1091E-06  0.7117E-03  0.2344E-02  0.2511E+01
   -0.454991   10.55459  0.0000E+00  0.2021E-04  0.1034E-06  0.7728E-03  0.1884E-02  0.2207E+01
   -0.489992   10.55793  0.0000E+00  0.2075E-04  0.1006E-06  0.8279E-03  0.1472E-02  0.1942E+01
   -0.524993   10.56110  0.0000E+00  0.2141E-04  0.1006E-06  0.8739E-03  0.1106E-02  0.1538E+01
   -0.559993   10.56462  0.0000E+00  0.2216E-04  0.1029E-06  0.9482E-03  0.8364E-03  0.1387E+01
   -0.594994   10.56865  0.0000E+00  0.2287E-04  0.1068E-06  0.1144E-02  0.6664E-03  0.1246E+01
   -0.629995   10.57332  0.0000E+00  0.2331E-04  0.1105E-06  0.1322E-02  0.5798E-03  0.1420E+01
   -0.664996   10.57748  0.0000E+00  0.2359E-04  0.1142E-06  0.1353E-02  0.5193E-03  0.1359E+01
   -0.699997   10.58159  0.0000E+00  0.2376E-04  0.1183E-06  0.1369E-02  0.4676E-03  0.1313E+01
   -0.734998   10.58570  0.0000E+00  0.2385E-04  0.1229E-06  0.1362E-02  0.4243E-03  0.1303E+01
   -0.769999   10.58995  0.0000E+00  0.2387E-04  0.1284E-06  0.1334E-02  0.3879E-03  0.1303E+01
   -0.805000   10.59444  0.0000E+00  0.2382E-04  0.1349E-06  0.1302E-02  0.3570E-03  0.1047E+01
   -0.840001   10.59922  0.0000E+00  0.2370E-04  0.1430E-06  0.1261E-02  0.3303E-03  0.2928E+03
   -0.875002   10.60444  0.0000E+00  0.2351E-04  0.1534E-06  0.1241E-02  0.3068E-03  0.4586E+03
   -0.910003   10.61001  0.0000E+00  0.2325E-04  0.1677E-06  0.1166E-02  0.2860E-03  0.2825E+03
   -0.945004   10.61672  0.0000E+00  0.2290E-04  0.1869E-06  0.1137E-02  0.2650E-03  0.2949E+03
   -0.980004   10.62367  0.0000E+00  0.2247E-04  0.2157E-06  0.1089E-02  0.2449E-03  0.3975E+04
   -1.015004   10.63287  0.0000E+00  0.2195E-04  0.2522E-06  0.1037E-02  0.2231E-03  0.5482E+03
   -1.050005   10.64229  0.0000E+00  0.2132E-04  0.3070E-06  0.9415E-03  0.2018E-03  0.1853E+05
   -1.085005   10.65486  0.0000E+00  0.2058E-04  0.3980E-06  0.9032E-03  0.1793E-03  0.8335E+03
   -1.120005   10.67403  0.0000E+00  0.1973E-04  0.5112E-06  0.8385E-03  0.1573E-03  0.2225E+06
   -1.155004   10.68696  0.0000E+00  0.1883E-04  0.8457E-06  0.7639E-03  0.1361E-03  0.5322E+06
   -1.190004   10.72643  0.0000E+00  0.1785E-04  0.1139E-05  0.7423E-03  0.1103E-03  0.6813E+07
   -1.225003   10.73768  0.0000E+00  0.1702E-04  0.1662E-05  0.6093E-03  0.8676E-04 -0.3165E+07
   -1.260002   10.81926  0.0000E+00  0.1599E-04  0.3956E-05  0.5786E-03  0.6423E-04  0.7083E+09
   -1.295001   11.00071  0.0000E+00  0.1491E-04  0.5876E-05  0.5394E-03  0.4591E-04 -0.6079E+08
   -1.329999   10.86348  0.0000E+00  0.1293E-04  0.1705E-04  0.3135E-03  0.4065E-04 -0.3071E+10
   -1.364997   11.50256  0.0000E+00  0.1031E-04  0.2429E-04  0.3578E-03  0.2447E-04 -0.3927E+06
   -1.399995   11.21693  0.0000E+00  0.0000E+00  0.0000E+00  0.0000E+00  0.5170E-04  0.0000E+00
