 1 - depth, m
 2 - temperature, C
 3 - salinity, kg/kg
 4 - turbulent kinetic energy, m**2/s**2
 5 - dissipation rate, m**2/s**3
 6 - kinematic heat conductance, m**2/s
 7 - modulus of horizontal velocity, m/s
 8 - Richardson number, n/d
   -0.000000    0.00404  0.0000E+00  0.4596E-03  0.1396E-02  0.9974E-04  0.3508E+00  0.6433E-01
   -0.034998    0.18887  0.0000E+00  0.2822E-03  0.6570E-03  0.1359E-03  0.1202E+00 -0.4201E-02
   -0.069997    0.34391  0.0000E+00  0.1936E-03  0.1923E-03  0.1960E-03  0.6596E-01  0.2187E-01
   -0.104996    0.41441  0.0000E+00  0.1531E-03  0.1002E-03  0.1988E-03  0.4732E-01  0.8511E-01
   -0.139995    0.45571  0.0000E+00  0.1287E-03  0.6102E-04  0.1975E-03  0.3765E-01  0.1593E+00
   -0.174995    0.48522  0.0000E+00  0.1112E-03  0.3917E-04  0.1982E-03  0.3149E-01  0.3121E-02
   -0.209995    0.50905  0.0000E+00  0.9750E-04  0.2474E-04  0.1992E-03  0.2727E-01  0.6648E-01
   -0.244995    0.53038  0.0000E+00  0.8633E-04  0.1561E-04  0.1986E-03  0.2387E-01  0.6137E-01
   -0.279995    0.55111  0.0000E+00  0.7716E-04  0.9994E-05  0.1936E-03  0.2066E-01  0.8390E-01
   -0.314995    0.57286  0.0000E+00  0.6864E-04  0.6513E-05  0.1945E-03  0.1704E-01  0.2599E+00
   -0.349996    0.59691  0.0000E+00  0.6156E-04  0.4388E-05  0.1914E-03  0.1455E-01  0.2242E+01
   -0.384997    0.62385  0.0000E+00  0.5553E-04  0.3059E-05  0.1863E-03  0.1260E-01  0.3417E+03
   -0.419998    0.65315  0.0000E+00  0.5035E-04  0.2215E-05  0.1766E-03  0.1103E-01  0.4605E+03
   -0.454999    0.69913  0.0000E+00  0.4570E-04  0.1666E-05  0.1644E-03  0.9453E-02  0.5004E+04
   -0.490000    0.77336  0.0000E+00  0.4126E-04  0.1292E-05  0.1554E-03  0.7853E-02  0.5215E+05
   -0.525002    0.88752  0.0000E+00  0.3661E-04  0.1010E-05  0.1605E-03  0.6357E-02  0.1641E+08
   -0.560003    1.00771  0.0000E+00  0.3195E-04  0.7932E-06  0.1644E-03  0.5329E-02  0.1115E+11
   -0.595005    1.16416  0.0000E+00  0.2694E-04  0.6054E-06  0.1526E-03  0.4645E-02  0.1101E+12
   -0.630006    1.35102  0.0000E+00  0.2244E-04  0.4582E-06  0.1557E-03  0.4334E-02  0.2005E+12
   -0.665008    1.62627  0.0000E+00  0.1862E-04  0.3464E-06  0.1644E-03  0.3911E-02  0.8004E+12
   -0.700010    1.97450  0.0000E+00  0.1545E-04  0.2617E-06  0.1825E-03  0.3402E-02  0.9091E+12
   -0.735011    2.30246  0.0000E+00  0.1286E-04  0.1964E-06  0.2031E-03  0.2863E-02  0.1140E+12
   -0.770013    2.65632  0.0000E+00  0.1082E-04  0.1481E-06  0.2353E-03  0.2349E-02  0.4908E+11
   -0.805014    3.00970  0.0000E+00  0.9145E-05  0.1111E-06  0.2676E-03  0.1906E-02  0.6867E+10
   -0.840016    3.36626  0.0000E+00  0.7881E-05  0.8320E-07  0.3004E-03  0.1449E-02  0.2586E+11
   -0.875017    3.65932  0.0000E+00  0.6976E-05  0.6344E-07  0.3264E-03  0.1093E-02  0.7157E+10
   -0.910019    3.90557  0.0000E+00  0.6350E-05  0.4948E-07  0.3503E-03  0.8167E-03  0.4084E+11
   -0.945020    4.08958  0.0000E+00  0.5948E-05  0.4011E-07  0.3677E-03  0.6001E-03  0.2919E+11
   -0.980021    4.22479  0.0000E+00  0.5703E-05  0.3386E-07  0.3808E-03  0.4265E-03  0.2987E+11
   -1.015022    4.31028  0.0000E+00  0.5571E-05  0.2996E-07  0.3877E-03  0.3017E-03  0.3578E+11
   -1.050023    4.37434  0.0000E+00  0.5507E-05  0.2766E-07  0.3920E-03  0.2172E-03  0.3670E+11
   -1.085024    4.42501  0.0000E+00  0.5492E-05  0.2662E-07  0.3879E-03  0.1577E-03  0.4837E+11
   -1.120024    4.46881  0.0000E+00  0.5505E-05  0.2661E-07  0.3792E-03  0.1171E-03  0.6199E+11
   -1.155024    4.50774  0.0000E+00  0.5533E-05  0.2753E-07  0.3665E-03  0.8578E-04  0.8423E+11
   -1.190025    4.54414  0.0000E+00  0.5573E-05  0.2961E-07  0.3409E-03  0.6142E-04  0.1112E+12
   -1.225024    4.58006  0.0000E+00  0.5625E-05  0.3353E-07  0.3155E-03  0.4270E-04  0.1801E+12
   -1.260024    4.61929  0.0000E+00  0.5679E-05  0.4153E-07  0.2518E-03  0.2893E-04  0.3674E+12
   -1.295023    4.67107  0.0000E+00  0.5656E-05  0.6211E-07  0.2151E-03  0.1918E-04  0.1551E+13
   -1.330022    4.76966  0.0000E+00  0.5288E-05  0.1136E-06  0.1161E-03  0.1402E-04  0.2744E+13
   -1.365021    4.97136  0.0000E+00  0.3785E-05  0.2734E-06  0.4035E-04  0.9117E-05 -0.8981E+14
   -1.400019    5.33658  0.0000E+00  0.0000E+00  0.0000E+00  0.0000E+00  0.1152E-04  0.0000E+00
