 1 - depth, m
 2 - temperature, C
 3 - salinity, kg/kg
 4 - turbulent kinetic energy, m**2/s**2
 5 - dissipation rate, m**2/s**3
 6 - kinematic heat conductance, m**2/s
 7 - modulus of horizontal velocity, m/s
 8 - Richardson number, n/d
   -0.000000   14.90271  0.0000E+00  0.3015E-03  0.1033E-02  0.7294E-04  0.1839E+00  0.6405E-01
   -0.034998   15.16051  0.0000E+00  0.1601E-03  0.4798E-03  0.9196E-04  0.6051E-01 -0.9359E-01
   -0.069995   15.25337  0.0000E+00  0.1071E-03  0.1351E-03  0.1476E-03  0.3586E-01  0.1482E+01
   -0.104994   15.29485  0.0000E+00  0.8597E-04  0.7483E-04  0.1775E-03  0.2717E-01  0.1866E+01
   -0.139992   15.31894  0.0000E+00  0.7124E-04  0.4692E-04  0.2217E-03  0.2149E-01  0.6761E+02
   -0.174991   15.33459  0.0000E+00  0.6145E-04  0.3092E-04  0.2899E-03  0.1795E-01  0.4632E+03
   -0.209990   15.34494  0.0000E+00  0.5466E-04  0.2058E-04  0.3483E-03  0.1546E-01  0.1942E+03
   -0.244989   15.35287  0.0000E+00  0.4993E-04  0.1402E-04  0.3956E-03  0.1341E-01  0.7294E+03
   -0.279989   15.35959  0.0000E+00  0.4632E-04  0.9584E-05  0.4375E-03  0.1161E-01  0.1058E+04
   -0.314989   15.36730  0.0000E+00  0.4329E-04  0.6615E-05  0.4943E-03  0.9729E-02  0.1503E+04
   -0.349989   15.37234  0.0000E+00  0.4091E-04  0.4623E-05  0.5515E-03  0.8373E-02  0.1414E+03
   -0.384989   15.37671  0.0000E+00  0.3905E-04  0.3272E-05  0.6028E-03  0.7234E-02  0.7583E+02
   -0.419989   15.38056  0.0000E+00  0.3763E-04  0.2359E-05  0.6613E-03  0.6257E-02  0.2375E+03
   -0.454989   15.38410  0.0000E+00  0.3656E-04  0.1747E-05  0.7345E-03  0.5310E-02  0.9885E+02
   -0.489990   15.38770  0.0000E+00  0.3573E-04  0.1353E-05  0.8249E-03  0.4378E-02  0.1680E+03
   -0.524991   15.39072  0.0000E+00  0.3503E-04  0.1073E-05  0.8971E-03  0.3595E-02  0.6807E+01
   -0.559991   15.39430  0.0000E+00  0.3434E-04  0.8385E-06  0.9065E-03  0.2992E-02 -0.2767E+00
   -0.594992   15.39781  0.0000E+00  0.3363E-04  0.6419E-06  0.1082E-02  0.2534E-02  0.3727E+02
   -0.629993   15.40186  0.0000E+00  0.3300E-04  0.4968E-06  0.1066E-02  0.2346E-02  0.2800E+01
   -0.664994   15.40581  0.0000E+00  0.3239E-04  0.3848E-06  0.1056E-02  0.2121E-02  0.5194E+02
   -0.699995   15.41013  0.0000E+00  0.3165E-04  0.3081E-06  0.1100E-02  0.1843E-02  0.4688E+01
   -0.734996   15.41415  0.0000E+00  0.3100E-04  0.2624E-06  0.1132E-02  0.1613E-02  0.4594E+03
   -0.769996   15.41825  0.0000E+00  0.3041E-04  0.2402E-06  0.1153E-02  0.1412E-02 -0.3499E+03
   -0.804997   15.42255  0.0000E+00  0.2985E-04  0.2288E-06  0.1176E-02  0.1234E-02  0.3077E+02
   -0.839998   15.42664  0.0000E+00  0.2929E-04  0.2218E-06  0.1160E-02  0.1094E-02  0.2861E+03
   -0.874999   15.43095  0.0000E+00  0.2870E-04  0.2193E-06  0.1134E-02  0.9706E-03  0.1307E+02
   -0.909999   15.43523  0.0000E+00  0.2806E-04  0.2222E-06  0.1155E-02  0.8561E-03  0.5965E+01
   -0.945000   15.43993  0.0000E+00  0.2744E-04  0.2325E-06  0.1085E-02  0.7643E-03  0.3203E+03
   -0.980000   15.44485  0.0000E+00  0.2677E-04  0.2519E-06  0.1040E-02  0.6937E-03  0.5062E+02
   -1.015001   15.45094  0.0000E+00  0.2595E-04  0.2814E-06  0.9738E-03  0.6086E-03  0.6198E+03
   -1.050001   15.45722  0.0000E+00  0.2504E-04  0.3319E-06  0.9136E-03  0.5299E-03  0.5252E+03
   -1.085001   15.46649  0.0000E+00  0.2403E-04  0.4190E-06  0.8751E-03  0.4578E-03  0.3669E+04
   -1.120000   15.47792  0.0000E+00  0.2291E-04  0.5384E-06  0.8238E-03  0.3945E-03  0.1541E+05
   -1.155000   15.48932  0.0000E+00  0.2169E-04  0.8497E-06  0.7434E-03  0.3358E-03  0.2064E+07
   -1.189999   15.51160  0.0000E+00  0.2045E-04  0.1197E-05  0.7153E-03  0.2674E-03  0.3981E+06
   -1.224998   15.52507  0.0000E+00  0.1938E-04  0.1830E-05  0.6140E-03  0.2060E-03  0.7926E+06
   -1.259997   15.57182  0.0000E+00  0.1804E-04  0.4294E-05  0.5506E-03  0.1499E-03 -0.2536E+08
   -1.294996   15.69959  0.0000E+00  0.1680E-04  0.6763E-05  0.5389E-03  0.1047E-03  0.6778E+09
   -1.329994   15.60699  0.0000E+00  0.1448E-04  0.2131E-04  0.3241E-03  0.9266E-04 -0.2302E+09
   -1.364992   16.03954  0.0000E+00  0.1155E-04  0.2975E-04  0.3709E-03  0.5599E-04 -0.4073E+06
   -1.399989   15.83507  0.0000E+00  0.0000E+00  0.0000E+00  0.0000E+00  0.1201E-03  0.0000E+00
