 1 - depth, m
 2 - temperature, C
 3 - salinity, kg/kg
 4 - turbulent kinetic energy, m**2/s**2
 5 - dissipation rate, m**2/s**3
 6 - kinematic heat conductance, m**2/s
 7 - modulus of horizontal velocity, m/s
 8 - Richardson number, n/d
   -0.000000   -0.00038  0.0000E+00  0.9491E-03  0.1700E-02  0.1218E-03  0.4451E+00  0.3747E-01
   -0.034997    0.07372  0.0000E+00  0.7654E-03  0.7213E-03  0.2693E-03  0.1859E+00  0.4410E-01
   -0.069994    0.11448  0.0000E+00  0.6223E-03  0.2551E-03  0.3930E-03  0.1255E+00  0.1698E-01
   -0.104992    0.13792  0.0000E+00  0.5512E-03  0.1360E-03  0.4886E-03  0.1029E+00  0.1843E-01
   -0.139990    0.15218  0.0000E+00  0.5063E-03  0.8485E-04  0.5698E-03  0.8989E-01 -0.1512E+01
   -0.174988    0.16197  0.0000E+00  0.4734E-03  0.5964E-04  0.6398E-03  0.8153E-01  0.2494E-01
   -0.209986    0.16985  0.0000E+00  0.4477E-03  0.4437E-04  0.7018E-03  0.7493E-01  0.1608E-01
   -0.244985    0.17645  0.0000E+00  0.4263E-03  0.3422E-04  0.7535E-03  0.6941E-01  0.1275E-01
   -0.279984    0.18235  0.0000E+00  0.4070E-03  0.2714E-04  0.7908E-03  0.6444E-01 -0.4232E-01
   -0.314983    0.18811  0.0000E+00  0.3889E-03  0.2212E-04  0.8408E-03  0.5946E-01  0.1316E-01
   -0.349982    0.19370  0.0000E+00  0.3727E-03  0.1851E-04  0.8804E-03  0.5537E-01  0.8880E-01
   -0.384982    0.19938  0.0000E+00  0.3578E-03  0.1582E-04  0.9122E-03  0.5176E-01  0.6812E+02
   -0.419981    0.20522  0.0000E+00  0.3440E-03  0.1375E-04  0.9274E-03  0.4851E-01  0.7651E+00
   -0.454981    0.21147  0.0000E+00  0.3304E-03  0.1211E-04  0.9329E-03  0.4530E-01  0.1020E+01
   -0.489981    0.21795  0.0000E+00  0.3172E-03  0.1083E-04  0.9389E-03  0.4212E-01  0.2814E+02
   -0.524981    0.22561  0.0000E+00  0.3030E-03  0.9736E-05  0.9778E-03  0.3908E-01  0.1597E+05
   -0.559981    0.23633  0.0000E+00  0.2882E-03  0.8750E-05  0.1016E-02  0.3663E-01  0.5871E+08
   -0.594981    0.25202  0.0000E+00  0.2716E-03  0.7735E-05  0.1023E-02  0.3473E-01  0.4295E+04
   -0.629981    0.27053  0.0000E+00  0.2559E-03  0.6849E-05  0.1009E-02  0.3334E-01  0.1123E+07
   -0.664982    0.28872  0.0000E+00  0.2419E-03  0.6110E-05  0.9867E-03  0.3188E-01  0.3113E+05
   -0.699982    0.30709  0.0000E+00  0.2291E-03  0.5488E-05  0.9676E-03  0.3041E-01  0.3235E+05
   -0.734982    0.32663  0.0000E+00  0.2173E-03  0.4957E-05  0.9496E-03  0.2894E-01  0.2404E+06
   -0.769983    0.34718  0.0000E+00  0.2064E-03  0.4500E-05  0.9316E-03  0.2751E-01  0.4841E+07
   -0.804983    0.37068  0.0000E+00  0.1961E-03  0.4103E-05  0.9103E-03  0.2613E-01  0.5856E+08
   -0.839983    0.39658  0.0000E+00  0.1865E-03  0.3759E-05  0.8884E-03  0.2478E-01  0.6902E+09
   -0.874983    0.42538  0.0000E+00  0.1775E-03  0.3460E-05  0.8656E-03  0.2346E-01  0.4290E+12
   -0.909983    0.45811  0.0000E+00  0.1691E-03  0.3201E-05  0.8390E-03  0.2219E-01  0.7145E+11
   -0.944983    0.49480  0.0000E+00  0.1612E-03  0.2981E-05  0.8099E-03  0.2093E-01  0.3168E+12
   -0.979983    0.54590  0.0000E+00  0.1537E-03  0.2796E-05  0.7819E-03  0.1964E-01  0.3546E+13
   -1.014982    0.60144  0.0000E+00  0.1466E-03  0.2644E-05  0.7513E-03  0.1839E-01  0.1396E+13
   -1.049982    0.66964  0.0000E+00  0.1397E-03  0.2521E-05  0.7174E-03  0.1715E-01  0.1739E+12
   -1.084981    0.76252  0.0000E+00  0.1328E-03  0.2435E-05  0.6796E-03  0.1595E-01  0.7420E+14
   -1.119980    0.92462  0.0000E+00  0.1263E-03  0.2397E-05  0.6427E-03  0.1477E-01  0.3124E+14
   -1.154979    1.08993  0.0000E+00  0.1201E-03  0.2424E-05  0.6032E-03  0.1363E-01 -0.6872E+13
   -1.189978    1.27163  0.0000E+00  0.1140E-03  0.2546E-05  0.5676E-03  0.1248E-01 -0.1435E+14
   -1.224976    1.45962  0.0000E+00  0.1075E-03  0.2825E-05  0.5281E-03  0.1129E-01 -0.2129E+14
   -1.259974    1.64837  0.0000E+00  0.9969E-04  0.3465E-05  0.5241E-03  0.1009E-01 -0.4208E+14
   -1.294972    1.82677  0.0000E+00  0.8721E-04  0.5264E-05  0.3659E-03  0.8888E-02 -0.8184E+14
   -1.329970    2.07263  0.0000E+00  0.6963E-04  0.9646E-05  0.1944E-03  0.7983E-02 -0.1418E+15
   -1.364967    2.30101  0.0000E+00  0.4349E-04  0.2364E-04  0.4818E-04  0.6464E-02 -0.8237E+15
   -1.399964    2.75359  0.0000E+00  0.0000E+00  0.0000E+00  0.0000E+00  0.7444E-02  0.0000E+00
