 1 - depth, m
 2 - temperature, C
 3 - salinity, kg/kg
 4 - turbulent kinetic energy, m**2/s**2
 5 - dissipation rate, m**2/s**3
 6 - kinematic heat conductance, m**2/s
 7 - modulus of horizontal velocity, m/s
 8 - Richardson number, n/d
   -0.000000   13.40386  0.0000E+00  0.6484E-03  0.2613E-02  0.1139E-03  0.3563E+00  0.1130E+00
   -0.034998   13.74610  0.0000E+00  0.3528E-03  0.1380E-02  0.1674E-03  0.1093E+00  0.5525E+00
   -0.069995   13.88955  0.0000E+00  0.2405E-03  0.5539E-03  0.2573E-03  0.6064E-01  0.3219E+01
   -0.104994   13.93528  0.0000E+00  0.1934E-03  0.3527E-03  0.2708E-03  0.4594E-01  0.2182E+01
   -0.139992   13.95905  0.0000E+00  0.1626E-03  0.2373E-03  0.2865E-03  0.3757E-01  0.5000E+01
   -0.174991   13.97548  0.0000E+00  0.1403E-03  0.1612E-03  0.3080E-03  0.3191E-01  0.1809E+00
   -0.209990   13.98730  0.0000E+00  0.1236E-03  0.1092E-03  0.3357E-03  0.2776E-01 -0.6165E+00
   -0.244989   13.99564  0.0000E+00  0.1108E-03  0.7395E-04  0.3656E-03  0.2444E-01  0.2774E+02
   -0.279989   14.00348  0.0000E+00  0.1006E-03  0.5035E-04  0.3932E-03  0.2142E-01  0.9847E+01
   -0.314989   14.01245  0.0000E+00  0.9173E-04  0.3456E-04  0.4835E-03  0.1816E-01  0.6909E+02
   -0.349989   14.01859  0.0000E+00  0.8460E-04  0.2328E-04  0.5717E-03  0.1602E-01  0.2800E+03
   -0.384989   14.02383  0.0000E+00  0.7876E-04  0.1542E-04  0.6719E-03  0.1427E-01  0.1353E+03
   -0.419989   14.02827  0.0000E+00  0.7399E-04  0.1023E-04  0.7462E-03  0.1277E-01  0.3162E+03
   -0.454989   14.03270  0.0000E+00  0.7010E-04  0.7033E-05  0.8137E-03  0.1125E-01  0.2824E+03
   -0.489990   14.03647  0.0000E+00  0.6681E-04  0.5247E-05  0.8753E-03  0.9758E-02  0.3898E+03
   -0.524990   14.04094  0.0000E+00  0.6352E-04  0.3943E-05  0.8982E-03  0.8336E-02  0.4036E+03
   -0.559991   14.04513  0.0000E+00  0.6003E-04  0.2901E-05  0.1005E-02  0.7156E-02  0.5356E+02
   -0.594992   14.04951  0.0000E+00  0.5620E-04  0.1968E-05  0.1116E-02  0.6334E-02  0.4260E+03
   -0.629993   14.05509  0.0000E+00  0.5283E-04  0.1337E-05  0.1091E-02  0.5860E-02  0.1243E+02
   -0.664994   14.05967  0.0000E+00  0.4983E-04  0.9557E-06  0.1143E-02  0.5319E-02 -0.4284E+03
   -0.699995   14.06476  0.0000E+00  0.4726E-04  0.7157E-06  0.1096E-02  0.4820E-02 -0.1032E+04
   -0.734996   14.06995  0.0000E+00  0.4483E-04  0.5654E-06  0.1117E-02  0.4276E-02  0.5163E+03
   -0.769996   14.07501  0.0000E+00  0.4274E-04  0.4704E-06  0.1141E-02  0.3810E-02 -0.4372E+02
   -0.804997   14.07995  0.0000E+00  0.4083E-04  0.4071E-06  0.1127E-02  0.3388E-02  0.2820E+03
   -0.839998   14.08534  0.0000E+00  0.3894E-04  0.3614E-06  0.1106E-02  0.2969E-02  0.2907E+03
   -0.874999   14.09053  0.0000E+00  0.3706E-04  0.3274E-06  0.1055E-02  0.2586E-02  0.2171E+02
   -0.909999   14.09617  0.0000E+00  0.3529E-04  0.3048E-06  0.1071E-02  0.2227E-02 -0.9979E+01
   -0.945000   14.10149  0.0000E+00  0.3358E-04  0.2918E-06  0.9928E-03  0.1926E-02  0.1670E+02
   -0.980000   14.10701  0.0000E+00  0.3201E-04  0.2893E-06  0.9625E-03  0.1654E-02  0.3177E+03
   -1.015001   14.11298  0.0000E+00  0.3051E-04  0.3003E-06  0.8937E-03  0.1414E-02  0.3649E+03
   -1.050001   14.11954  0.0000E+00  0.2900E-04  0.3292E-06  0.8056E-03  0.1227E-02 -0.3409E+02
   -1.085001   14.12771  0.0000E+00  0.2730E-04  0.4066E-06  0.7641E-03  0.1028E-02  0.1191E+03
   -1.120000   14.13924  0.0000E+00  0.2562E-04  0.5255E-06  0.7465E-03  0.8672E-03  0.1150E+04
   -1.155000   14.15149  0.0000E+00  0.2389E-04  0.7532E-06  0.6713E-03  0.7265E-03  0.2689E+05
   -1.189999   14.17217  0.0000E+00  0.2215E-04  0.1175E-05  0.6144E-03  0.5756E-03  0.1120E+07
   -1.224998   14.19306  0.0000E+00  0.2066E-04  0.1909E-05  0.5705E-03  0.4333E-03 -0.3140E+06
   -1.259997   14.22609  0.0000E+00  0.1901E-04  0.4239E-05  0.5032E-03  0.3130E-03 -0.4562E+08
   -1.294996   14.38037  0.0000E+00  0.1741E-04  0.7305E-05  0.4942E-03  0.2159E-03  0.3708E+07
   -1.329994   14.28137  0.0000E+00  0.1499E-04  0.2266E-04  0.2897E-03  0.1878E-03 -0.5229E+09
   -1.364992   14.73762  0.0000E+00  0.1199E-04  0.3230E-04  0.3684E-03  0.1113E-03  0.6901E+06
   -1.399989   14.51886  0.0000E+00  0.0000E+00  0.0000E+00  0.0000E+00  0.2461E-03  0.0000E+00
