 1 - depth, m
 2 - temperature, C
 3 - salinity, kg/kg
 4 - turbulent kinetic energy, m**2/s**2
 5 - dissipation rate, m**2/s**3
 6 - kinematic heat conductance, m**2/s
 7 - modulus of horizontal velocity, m/s
 8 - Richardson number, n/d
   -0.000000   19.34535  0.0000E+00  0.5142E-05  0.2494E-06  0.2649E-04  0.2860E-02  0.3329E+03
   -0.034998   19.39606  0.0000E+00  0.7450E-05  0.1170E-06  0.1779E-03  0.1341E-02  0.3465E+03
   -0.069996   19.40379  0.0000E+00  0.8458E-05  0.9185E-07  0.2354E-03  0.1135E-02  0.2024E+03
   -0.104994   19.40893  0.0000E+00  0.9323E-05  0.7933E-07  0.3221E-03  0.9789E-03  0.6322E+03
   -0.139993   19.41266  0.0000E+00  0.1011E-04  0.7171E-07  0.4132E-03  0.8544E-03  0.5817E+01
   -0.174992   19.41550  0.0000E+00  0.1084E-04  0.6671E-07  0.5018E-03  0.7476E-03  0.4792E+01
   -0.209991   19.41780  0.0000E+00  0.1153E-04  0.6331E-07  0.5849E-03  0.6536E-03  0.4178E+01
   -0.244990   19.41976  0.0000E+00  0.1217E-04  0.6104E-07  0.6631E-03  0.5697E-03  0.3809E+01
   -0.279990   19.42147  0.0000E+00  0.1278E-04  0.5963E-07  0.7401E-03  0.4939E-03  0.3605E+01
   -0.314990   19.42298  0.0000E+00  0.1336E-04  0.5893E-07  0.8191E-03  0.4252E-03  0.3454E+01
   -0.349990   19.42436  0.0000E+00  0.1390E-04  0.5881E-07  0.8965E-03  0.3673E-03  0.3493E+01
   -0.384990   19.42565  0.0000E+00  0.1440E-04  0.5918E-07  0.9679E-03  0.3193E-03  0.3572E+01
   -0.419991   19.42687  0.0000E+00  0.1487E-04  0.5995E-07  0.1031E-02  0.2793E-03  0.3693E+01
   -0.454991   19.42803  0.0000E+00  0.1531E-04  0.6108E-07  0.1088E-02  0.2455E-03  0.3826E+01
   -0.489992   19.42914  0.0000E+00  0.1572E-04  0.6257E-07  0.1135E-02  0.2178E-03  0.4128E+01
   -0.524993   19.43022  0.0000E+00  0.1617E-04  0.6457E-07  0.1183E-02  0.2020E-03  0.4761E+01
   -0.559993   19.43138  0.0000E+00  0.1665E-04  0.6714E-07  0.1218E-02  0.1827E-03  0.6944E+01
   -0.594994   19.43274  0.0000E+00  0.1718E-04  0.7040E-07  0.1225E-02  0.1654E-03  0.1055E+02
   -0.629995   19.43459  0.0000E+00  0.1764E-04  0.7356E-07  0.1233E-02  0.1425E-03  0.1980E+02
   -0.664996   19.43648  0.0000E+00  0.1802E-04  0.7671E-07  0.1239E-02  0.1343E-03  0.2211E+02
   -0.699997   19.43837  0.0000E+00  0.1835E-04  0.8002E-07  0.1237E-02  0.1267E-03  0.2520E+02
   -0.734998   19.44027  0.0000E+00  0.1863E-04  0.8361E-07  0.1231E-02  0.1195E-03  0.2960E+02
   -0.769999   19.44222  0.0000E+00  0.1886E-04  0.8762E-07  0.1213E-02  0.1126E-03  0.4207E+02
   -0.805000   19.44425  0.0000E+00  0.1903E-04  0.9217E-07  0.1202E-02  0.1060E-03  0.4393E+02
   -0.840001   19.44636  0.0000E+00  0.1916E-04  0.9754E-07  0.1157E-02  0.9963E-04  0.9261E+02
   -0.875002   19.44862  0.0000E+00  0.1922E-04  0.1039E-06  0.1128E-02  0.9336E-04  0.1359E+03
   -0.910003   19.45103  0.0000E+00  0.1922E-04  0.1117E-06  0.1090E-02  0.8727E-04  0.9915E+02
   -0.945004   19.45366  0.0000E+00  0.1915E-04  0.1215E-06  0.1048E-02  0.8127E-04  0.5209E+03
   -0.980004   19.45649  0.0000E+00  0.1900E-04  0.1341E-06  0.1004E-02  0.7528E-04  0.5789E+03
   -1.015005   19.45975  0.0000E+00  0.1877E-04  0.1512E-06  0.9430E-03  0.6906E-04  0.3004E+04
   -1.050005   19.46353  0.0000E+00  0.1845E-04  0.1745E-06  0.9186E-03  0.6255E-04  0.6402E+04
   -1.085005   19.46780  0.0000E+00  0.1800E-04  0.2100E-06  0.8175E-03  0.5603E-04  0.3274E+07
   -1.120005   19.47459  0.0000E+00  0.1743E-04  0.2627E-06  0.7654E-03  0.4913E-04  0.5163E+06
   -1.155005   19.48108  0.0000E+00  0.1679E-04  0.3645E-06  0.6988E-03  0.4266E-04  0.4305E+07
   -1.190004   19.49210  0.0000E+00  0.1605E-04  0.5091E-06  0.6379E-03  0.3517E-04  0.6956E+07
   -1.225003   19.50237  0.0000E+00  0.1537E-04  0.7350E-06  0.5460E-03  0.2774E-04 -0.4925E+06
   -1.260002   19.51734  0.0000E+00  0.1448E-04  0.1640E-05  0.4734E-03  0.2122E-04 -0.1201E+10
   -1.295001   19.59505  0.0000E+00  0.1343E-04  0.2685E-05  0.4693E-03  0.1510E-04  0.4315E+08
   -1.329999   19.55455  0.0000E+00  0.1154E-04  0.7676E-05  0.2586E-03  0.1289E-04 -0.2061E+11
   -1.364997   19.77232  0.0000E+00  0.8987E-05  0.1200E-04  0.2519E-03  0.8069E-05  0.9785E+07
   -1.399995   19.70774  0.0000E+00  0.0000E+00  0.0000E+00  0.0000E+00  0.1519E-04  0.0000E+00
