 1 - depth, m
 2 - temperature, C
 3 - salinity, kg/kg
 4 - turbulent kinetic energy, m**2/s**2
 5 - dissipation rate, m**2/s**3
 6 - kinematic heat conductance, m**2/s
 7 - modulus of horizontal velocity, m/s
 8 - Richardson number, n/d
   -0.000000    3.30812  0.0000E+00  0.7595E-03  0.1172E-01  0.9755E-04  0.2821E+00  0.2094E-02
   -0.034998    3.66475  0.0000E+00  0.4379E-03  0.4478E-02  0.1327E-03  0.8956E-01 -0.4984E-02
   -0.069996    3.77902  0.0000E+00  0.2669E-03  0.1641E-02  0.1896E-03  0.5241E-01  0.2762E-01
   -0.104994    3.84149  0.0000E+00  0.1846E-03  0.6801E-03  0.2104E-03  0.4015E-01  0.5267E+01
   -0.139993    3.88456  0.0000E+00  0.1456E-03  0.4016E-03  0.2201E-03  0.3350E-01  0.1894E+00
   -0.174992    3.93170  0.0000E+00  0.1235E-03  0.2763E-03  0.2344E-03  0.2818E-01  0.1425E+01
   -0.209991    3.99191  0.0000E+00  0.1084E-03  0.1929E-03  0.2451E-03  0.2411E-01  0.4069E+00
   -0.244990    4.09294  0.0000E+00  0.9658E-04  0.1342E-03  0.2563E-03  0.2070E-01  0.1195E+02
   -0.279990    4.22569  0.0000E+00  0.8708E-04  0.9291E-04  0.2607E-03  0.1768E-01  0.1637E+02
   -0.314990    4.33198  0.0000E+00  0.7795E-04  0.6399E-04  0.2812E-03  0.1455E-01  0.1422E+01
   -0.349990    4.41720  0.0000E+00  0.7076E-04  0.4370E-04  0.3013E-03  0.1253E-01  0.1303E+02
   -0.384990    4.45135  0.0000E+00  0.6471E-04  0.2955E-04  0.3236E-03  0.1098E-01  0.9274E+02
   -0.419991    4.47603  0.0000E+00  0.5961E-04  0.1986E-04  0.3457E-03  0.9720E-02  0.8457E+02
   -0.454991    4.49706  0.0000E+00  0.5526E-04  0.1339E-04  0.3638E-03  0.8504E-02  0.7332E+02
   -0.489992    4.51675  0.0000E+00  0.5144E-04  0.9283E-05  0.3817E-03  0.7289E-02  0.3966E+03
   -0.524993    4.53601  0.0000E+00  0.4787E-04  0.6607E-05  0.4169E-03  0.6180E-02  0.2574E+03
   -0.559994    4.55846  0.0000E+00  0.4449E-04  0.4772E-05  0.4570E-03  0.5412E-02  0.1480E+04
   -0.594995    4.58053  0.0000E+00  0.4085E-04  0.3277E-05  0.5019E-03  0.4892E-02 -0.3998E+03
   -0.629996    4.60759  0.0000E+00  0.3758E-04  0.2254E-05  0.5317E-03  0.4653E-02  0.9156E+04
   -0.664997    4.62948  0.0000E+00  0.3478E-04  0.1604E-05  0.5478E-03  0.4319E-02  0.1352E+05
   -0.699998    4.64956  0.0000E+00  0.3240E-04  0.1163E-05  0.5901E-03  0.3969E-02  0.1723E+04
   -0.734999    4.67113  0.0000E+00  0.3034E-04  0.8573E-06  0.6175E-03  0.3651E-02  0.9793E+03
   -0.770000    4.68794  0.0000E+00  0.2850E-04  0.6547E-06  0.6134E-03  0.3365E-02  0.6377E+03
   -0.805001    4.70727  0.0000E+00  0.2684E-04  0.5186E-06  0.6386E-03  0.3082E-02  0.8635E+03
   -0.840002    4.72295  0.0000E+00  0.2534E-04  0.4296E-06  0.6498E-03  0.2822E-02  0.9207E+03
   -0.875002    4.73972  0.0000E+00  0.2398E-04  0.3643E-06  0.6966E-03  0.2574E-02  0.1559E+04
   -0.910003    4.75475  0.0000E+00  0.2276E-04  0.3128E-06  0.6626E-03  0.2356E-02  0.6881E+03
   -0.945004    4.77032  0.0000E+00  0.2164E-04  0.2766E-06  0.6643E-03  0.2149E-02  0.1359E+04
   -0.980004    4.78583  0.0000E+00  0.2058E-04  0.2519E-06  0.6522E-03  0.1940E-02  0.6343E+03
   -1.015005    4.80110  0.0000E+00  0.1959E-04  0.2367E-06  0.6431E-03  0.1739E-02  0.8953E+03
   -1.050005    4.81743  0.0000E+00  0.1864E-04  0.2310E-06  0.6294E-03  0.1553E-02  0.3460E+04
   -1.085005    4.83460  0.0000E+00  0.1770E-04  0.2358E-06  0.5981E-03  0.1382E-02  0.3626E+03
   -1.120005    4.85394  0.0000E+00  0.1677E-04  0.2560E-06  0.5548E-03  0.1226E-02  0.8621E+04
   -1.155005    4.87689  0.0000E+00  0.1585E-04  0.2952E-06  0.5176E-03  0.1074E-02  0.7652E+05
   -1.190004    4.89995  0.0000E+00  0.1491E-04  0.3708E-06  0.4537E-03  0.9213E-03  0.1284E+05
   -1.225003    4.93518  0.0000E+00  0.1394E-04  0.5060E-06  0.4246E-03  0.7558E-03  0.2324E+07
   -1.260002    4.96419  0.0000E+00  0.1287E-04  0.8116E-06  0.3323E-03  0.6002E-03 -0.4330E+08
   -1.295001    5.09769  0.0000E+00  0.1156E-04  0.1570E-05  0.3146E-03  0.4573E-03  0.3069E+07
   -1.329999    5.09047  0.0000E+00  0.9765E-05  0.3401E-05  0.1693E-03  0.4129E-03 -0.5259E+09
   -1.364997    5.53689  0.0000E+00  0.7103E-05  0.6606E-05  0.1236E-03  0.2942E-03 -0.2081E+10
   -1.399995    5.60472  0.0000E+00  0.0000E+00  0.0000E+00  0.0000E+00  0.5024E-03  0.0000E+00
