 1 - depth, m
 2 - temperature, C
 3 - salinity, kg/kg
 4 - turbulent kinetic energy, m**2/s**2
 5 - dissipation rate, m**2/s**3
 6 - kinematic heat conductance, m**2/s
 7 - modulus of horizontal velocity, m/s
 8 - Richardson number, n/d
   -0.000000   19.45446  0.0000E+00  0.2100E-04  0.2185E-05  0.2337E-04  0.2400E-01 -0.6535E-01
   -0.034998   19.50713  0.0000E+00  0.1694E-04  0.7280E-06  0.5468E-04  0.1250E-01 -0.1197E+00
   -0.069996   19.52511  0.0000E+00  0.1547E-04  0.3846E-06  0.1185E-03  0.9077E-02  0.8470E+02
   -0.104994   19.53460  0.0000E+00  0.1491E-04  0.2546E-06  0.2556E-03  0.7257E-02  0.3922E+03
   -0.139993   19.53922  0.0000E+00  0.1487E-04  0.1932E-06  0.3448E-03  0.6162E-02  0.5631E+02
   -0.174991   19.54224  0.0000E+00  0.1510E-04  0.1561E-06  0.3783E-03  0.5277E-02  0.8776E+02
   -0.209991   19.54490  0.0000E+00  0.1544E-04  0.1307E-06  0.4309E-03  0.4469E-02  0.4905E+02
   -0.244990   19.54723  0.0000E+00  0.1584E-04  0.1108E-06  0.4671E-03  0.3766E-02  0.6434E+02
   -0.279990   19.54942  0.0000E+00  0.1602E-04  0.9876E-07  0.7853E-03  0.2999E-02  0.3258E+01
   -0.314989   19.55072  0.0000E+00  0.1620E-04  0.9201E-07  0.8549E-03  0.2676E-02  0.3387E+01
   -0.349989   19.55194  0.0000E+00  0.1643E-04  0.8696E-07  0.8093E-03  0.2378E-02  0.1797E+01
   -0.384990   19.55326  0.0000E+00  0.1669E-04  0.8358E-07  0.1048E-02  0.2112E-02  0.2127E+01
   -0.419990   19.55431  0.0000E+00  0.1707E-04  0.8116E-07  0.6393E-03  0.1928E-02  0.2347E+01
   -0.454991   19.55608  0.0000E+00  0.1771E-04  0.7884E-07  0.7472E-03  0.1494E-02  0.2350E+01
   -0.489991   19.55764  0.0000E+00  0.1831E-04  0.7840E-07  0.7974E-03  0.1159E-02  0.1960E+01
   -0.524992   19.55912  0.0000E+00  0.1894E-04  0.7967E-07  0.8586E-03  0.8621E-03  0.1535E+01
   -0.559993   19.56067  0.0000E+00  0.1958E-04  0.8247E-07  0.9612E-03  0.6541E-03  0.1359E+01
   -0.594994   19.56228  0.0000E+00  0.2016E-04  0.8626E-07  0.1187E-02  0.5277E-03  0.1219E+01
   -0.629995   19.56402  0.0000E+00  0.2052E-04  0.8957E-07  0.1338E-02  0.4637E-03  0.1387E+01
   -0.664995   19.56563  0.0000E+00  0.2075E-04  0.9280E-07  0.1346E-02  0.4192E-03  0.1342E+01
   -0.699996   19.56725  0.0000E+00  0.2091E-04  0.9627E-07  0.1336E-02  0.3809E-03  0.1315E+01
   -0.734997   19.56891  0.0000E+00  0.2100E-04  0.1001E-06  0.1312E-02  0.3485E-03  0.1422E+01
   -0.769998   19.57064  0.0000E+00  0.2103E-04  0.1045E-06  0.1273E-02  0.3209E-03  0.1316E+01
   -0.804999   19.57251  0.0000E+00  0.2100E-04  0.1094E-06  0.1311E-02  0.2972E-03 -0.9734E+00
   -0.840000   19.57439  0.0000E+00  0.2092E-04  0.1157E-06  0.1163E-02  0.2778E-03  0.3306E+02
   -0.875001   19.57666  0.0000E+00  0.2078E-04  0.1235E-06  0.1144E-02  0.2583E-03  0.1711E+02
   -0.910002   19.57906  0.0000E+00  0.2058E-04  0.1335E-06  0.1105E-02  0.2406E-03  0.1010E+02
   -0.945002   19.58173  0.0000E+00  0.2030E-04  0.1465E-06  0.1076E-02  0.2236E-03  0.3476E+04
   -0.980003   19.58451  0.0000E+00  0.1996E-04  0.1654E-06  0.1024E-02  0.2068E-03  0.8391E+02
   -1.015003   19.58820  0.0000E+00  0.1952E-04  0.1923E-06  0.9758E-03  0.1889E-03  0.1590E+04
   -1.050003   19.59232  0.0000E+00  0.1898E-04  0.2260E-06  0.9354E-03  0.1704E-03  0.1061E+05
   -1.085003   19.59597  0.0000E+00  0.1831E-04  0.2893E-06  0.8582E-03  0.1530E-03  0.4972E+05
   -1.120003   19.60661  0.0000E+00  0.1751E-04  0.3746E-06  0.7890E-03  0.1321E-03  0.1351E+05
   -1.155003   19.61012  0.0000E+00  0.1664E-04  0.5276E-06  0.7038E-03  0.1153E-03  0.9896E+05
   -1.190002   19.62724  0.0000E+00  0.1568E-04  0.7287E-06  0.6805E-03  0.9218E-04  0.6856E+07
   -1.225001   19.63177  0.0000E+00  0.1486E-04  0.1081E-05  0.5561E-03  0.7224E-04 -0.8019E+06
   -1.260000   19.66806  0.0000E+00  0.1381E-04  0.2757E-05  0.4984E-03  0.5248E-04  0.1194E+10
   -1.294999   19.74332  0.0000E+00  0.1279E-04  0.4153E-05  0.4846E-03  0.3672E-04  0.2450E+08
   -1.329997   19.68045  0.0000E+00  0.1098E-04  0.1259E-04  0.2928E-03  0.3253E-04 -0.2271E+10
   -1.364995   19.94812  0.0000E+00  0.8745E-05  0.1825E-04  0.3357E-03  0.1932E-04  0.1508E+07
   -1.399993   19.83971  0.0000E+00  0.0000E+00  0.0000E+00  0.0000E+00  0.4134E-04  0.0000E+00
