 1 - depth, m
 2 - temperature, C
 3 - salinity, kg/kg
 4 - turbulent kinetic energy, m**2/s**2
 5 - dissipation rate, m**2/s**3
 6 - kinematic heat conductance, m**2/s
 7 - modulus of horizontal velocity, m/s
 8 - Richardson number, n/d
   -0.000000    9.88884  0.0000E+00  0.5110E-03  0.2241E-02  0.6694E-04  0.2388E+00  0.8774E+01
   -0.034998   10.20456  0.0000E+00  0.2657E-03  0.1149E-02  0.1399E-03  0.7280E-01  0.4890E+01
   -0.069995   10.30377  0.0000E+00  0.1742E-03  0.3452E-03  0.2191E-03  0.4105E-01  0.4546E+00
   -0.104994   10.35097  0.0000E+00  0.1374E-03  0.2062E-03  0.2552E-03  0.3125E-01  0.1264E+02
   -0.139992   10.37766  0.0000E+00  0.1143E-03  0.1366E-03  0.2913E-03  0.2540E-01  0.1099E+02
   -0.174991   10.39160  0.0000E+00  0.9826E-04  0.9579E-04  0.3251E-03  0.2149E-01  0.3163E+02
   -0.209990   10.40535  0.0000E+00  0.8626E-04  0.6719E-04  0.3702E-03  0.1849E-01  0.5336E+02
   -0.244989   10.41614  0.0000E+00  0.7712E-04  0.4724E-04  0.4099E-03  0.1612E-01  0.2481E+02
   -0.279989   10.42454  0.0000E+00  0.6980E-04  0.3308E-04  0.4537E-03  0.1408E-01  0.9914E+02
   -0.314989   10.43419  0.0000E+00  0.6350E-04  0.2308E-04  0.5268E-03  0.1188E-01  0.7079E+02
   -0.349989   10.44046  0.0000E+00  0.5857E-04  0.1605E-04  0.5838E-03  0.1039E-01  0.4679E+03
   -0.384989   10.44620  0.0000E+00  0.5461E-04  0.1104E-04  0.6438E-03  0.9155E-02  0.1607E+03
   -0.419989   10.45150  0.0000E+00  0.5148E-04  0.7609E-05  0.7056E-03  0.8110E-02  0.6055E+03
   -0.454989   10.45620  0.0000E+00  0.4897E-04  0.5221E-05  0.7652E-03  0.7108E-02  0.1353E+03
   -0.489990   10.46072  0.0000E+00  0.4696E-04  0.3576E-05  0.8285E-03  0.6125E-02  0.7756E+02
   -0.524991   10.46498  0.0000E+00  0.4515E-04  0.2710E-05  0.9116E-03  0.5214E-02 -0.1077E+04
   -0.559991   10.46919  0.0000E+00  0.4330E-04  0.2049E-05  0.9841E-03  0.4500E-02 -0.4223E+03
   -0.594992   10.47444  0.0000E+00  0.4120E-04  0.1436E-05  0.1070E-02  0.3958E-02  0.1946E+04
   -0.629993   10.48020  0.0000E+00  0.3933E-04  0.1019E-05  0.1119E-02  0.3651E-02  0.2002E+03
   -0.664994   10.48625  0.0000E+00  0.3759E-04  0.7257E-06  0.1125E-02  0.3326E-02 -0.1527E+03
   -0.699995   10.49177  0.0000E+00  0.3605E-04  0.5360E-06  0.1141E-02  0.2980E-02 -0.7250E+03
   -0.734996   10.49795  0.0000E+00  0.3472E-04  0.4201E-06  0.1156E-02  0.2672E-02  0.3298E+02
   -0.769996   10.50305  0.0000E+00  0.3348E-04  0.3473E-06  0.1141E-02  0.2389E-02 -0.1170E+04
   -0.804997   10.50901  0.0000E+00  0.3227E-04  0.3015E-06  0.1131E-02  0.2113E-02  0.7721E+03
   -0.839998   10.51482  0.0000E+00  0.3115E-04  0.2722E-06  0.1121E-02  0.1861E-02  0.4092E+02
   -0.874999   10.52081  0.0000E+00  0.3006E-04  0.2531E-06  0.1094E-02  0.1643E-02 -0.1453E+02
   -0.909999   10.52744  0.0000E+00  0.2900E-04  0.2427E-06  0.1062E-02  0.1437E-02  0.4348E+02
   -0.945000   10.53412  0.0000E+00  0.2800E-04  0.2397E-06  0.1026E-02  0.1258E-02  0.4168E+03
   -0.980000   10.54147  0.0000E+00  0.2701E-04  0.2444E-06  0.9721E-03  0.1104E-02  0.3500E+03
   -1.015001   10.54909  0.0000E+00  0.2593E-04  0.2579E-06  0.9225E-03  0.9444E-03  0.2200E+03
   -1.050001   10.55911  0.0000E+00  0.2485E-04  0.2864E-06  0.8871E-03  0.7949E-03  0.2403E+04
   -1.085001   10.56984  0.0000E+00  0.2373E-04  0.3453E-06  0.8268E-03  0.6830E-03  0.7337E+03
   -1.120000   10.58583  0.0000E+00  0.2253E-04  0.4295E-06  0.7769E-03  0.5824E-03  0.3761E+06
   -1.155000   10.59986  0.0000E+00  0.2129E-04  0.5923E-06  0.7266E-03  0.4897E-03  0.2723E+06
   -1.189999   10.62849  0.0000E+00  0.2002E-04  0.8739E-06  0.6455E-03  0.3976E-03  0.1642E+06
   -1.224998   10.65048  0.0000E+00  0.1889E-04  0.1378E-05  0.5628E-03  0.3041E-03 -0.6942E+07
   -1.259997   10.69945  0.0000E+00  0.1760E-04  0.3072E-05  0.5089E-03  0.2233E-03  0.5078E+09
   -1.294996   10.88138  0.0000E+00  0.1621E-04  0.5173E-05  0.4905E-03  0.1559E-03  0.2956E+08
   -1.329994   10.75959  0.0000E+00  0.1400E-04  0.1489E-04  0.2885E-03  0.1336E-03 -0.4368E+10
   -1.364992   11.33379  0.0000E+00  0.1102E-04  0.2219E-04  0.3110E-03  0.8205E-04  0.5562E+07
   -1.399989   11.09974  0.0000E+00  0.0000E+00  0.0000E+00  0.0000E+00  0.1630E-03  0.0000E+00
