 1 - depth, m
 2 - temperature, C
 3 - salinity, kg/kg
 4 - turbulent kinetic energy, m**2/s**2
 5 - dissipation rate, m**2/s**3
 6 - kinematic heat conductance, m**2/s
 7 - modulus of horizontal velocity, m/s
 8 - Richardson number, n/d
   -0.000000    6.53954  0.0000E+00  0.7810E-04  0.2251E-04  0.4086E-04  0.6731E-01 -0.4839E-01
   -0.034998    6.83858  0.0000E+00  0.4813E-04  0.6458E-05  0.7196E-04  0.2402E-01 -0.6671E-01
   -0.069996    6.89481  0.0000E+00  0.3723E-04  0.3023E-05  0.1040E-03  0.1729E-01  0.5075E+01
   -0.104994    6.93084  0.0000E+00  0.3118E-04  0.1683E-05  0.1397E-03  0.1406E-01  0.1015E+03
   -0.139993    6.95723  0.0000E+00  0.2713E-04  0.1029E-05  0.1805E-03  0.1174E-01  0.1700E+02
   -0.174992    6.97815  0.0000E+00  0.2432E-04  0.6778E-06  0.2187E-03  0.9921E-02  0.1425E+03
   -0.209991    6.99550  0.0000E+00  0.2233E-04  0.4760E-06  0.2609E-03  0.8435E-02  0.3807E+02
   -0.244990    7.01020  0.0000E+00  0.2090E-04  0.3532E-06  0.3177E-03  0.7183E-02  0.1796E+03
   -0.279990    7.02242  0.0000E+00  0.1983E-04  0.2739E-06  0.3906E-03  0.6105E-02  0.1331E+04
   -0.314990    7.03213  0.0000E+00  0.1899E-04  0.2195E-06  0.4619E-03  0.5147E-02  0.5487E+03
   -0.349990    7.03980  0.0000E+00  0.1836E-04  0.1812E-06  0.5100E-03  0.4344E-02  0.7524E+02
   -0.384990    7.04643  0.0000E+00  0.1792E-04  0.1534E-06  0.5511E-03  0.3649E-02  0.1759E+02
   -0.419990    7.05253  0.0000E+00  0.1764E-04  0.1332E-06  0.5848E-03  0.3045E-02  0.4907E+01
   -0.454991    7.05833  0.0000E+00  0.1749E-04  0.1186E-06  0.6178E-03  0.2493E-02  0.3574E+01
   -0.489992    7.06391  0.0000E+00  0.1746E-04  0.1082E-06  0.6437E-03  0.1987E-02  0.2979E+01
   -0.524992    7.06945  0.0000E+00  0.1753E-04  0.1003E-06  0.6859E-03  0.1520E-02  0.1832E+01
   -0.559993    7.07562  0.0000E+00  0.1770E-04  0.9412E-07  0.7600E-03  0.1154E-02  0.1440E+01
   -0.594994    7.08270  0.0000E+00  0.1792E-04  0.8915E-07  0.9156E-03  0.9068E-03  0.1197E+01
   -0.629995    7.09069  0.0000E+00  0.1805E-04  0.8603E-07  0.1032E-02  0.7746E-03  0.1376E+01
   -0.664996    7.09783  0.0000E+00  0.1813E-04  0.8437E-07  0.1058E-02  0.6756E-03  0.1325E+01
   -0.699997    7.10479  0.0000E+00  0.1818E-04  0.8382E-07  0.1091E-02  0.5890E-03  0.1296E+01
   -0.734998    7.11149  0.0000E+00  0.1820E-04  0.8420E-07  0.1114E-02  0.5162E-03  0.1274E+01
   -0.769999    7.11813  0.0000E+00  0.1819E-04  0.8538E-07  0.1134E-02  0.4558E-03  0.1397E+01
   -0.805000    7.12474  0.0000E+00  0.1814E-04  0.8738E-07  0.1103E-02  0.4064E-03  0.1972E+01
   -0.840001    7.13174  0.0000E+00  0.1806E-04  0.9003E-07  0.1084E-02  0.3653E-03  0.1402E+01
   -0.875002    7.13886  0.0000E+00  0.1795E-04  0.9356E-07  0.1053E-02  0.3312E-03  0.1559E+01
   -0.910002    7.14659  0.0000E+00  0.1780E-04  0.9819E-07  0.1012E-02  0.3021E-03  0.2845E+01
   -0.945003    7.15465  0.0000E+00  0.1760E-04  0.1044E-06  0.9719E-03  0.2766E-03  0.2620E+01
   -0.980004    7.16358  0.0000E+00  0.1736E-04  0.1129E-06  0.9279E-03  0.2529E-03  0.4193E+03
   -1.015004    7.17306  0.0000E+00  0.1705E-04  0.1250E-06  0.8913E-03  0.2308E-03  0.8630E+02
   -1.050004    7.18481  0.0000E+00  0.1666E-04  0.1429E-06  0.8450E-03  0.2087E-03  0.8211E+03
   -1.085004    7.19831  0.0000E+00  0.1617E-04  0.1709E-06  0.7718E-03  0.1869E-03  0.1707E+04
   -1.120004    7.21879  0.0000E+00  0.1555E-04  0.2103E-06  0.7427E-03  0.1640E-03  0.7365E+04
   -1.155004    7.23911  0.0000E+00  0.1488E-04  0.2733E-06  0.6333E-03  0.1418E-03  0.5019E+06
   -1.190003    7.27212  0.0000E+00  0.1411E-04  0.3908E-06  0.5868E-03  0.1164E-03  0.1719E+06
   -1.225002    7.30667  0.0000E+00  0.1345E-04  0.5662E-06  0.5072E-03  0.9064E-04 -0.4016E+06
   -1.260001    7.34574  0.0000E+00  0.1263E-04  0.1436E-05  0.4182E-03  0.6940E-04  0.6758E+08
   -1.295000    7.63240  0.0000E+00  0.1171E-04  0.2340E-05  0.4253E-03  0.4840E-04  0.1269E+08
   -1.329998    7.45267  0.0000E+00  0.1009E-04  0.5965E-05  0.2288E-03  0.4193E-04 -0.1411E+12
   -1.364996    8.19177  0.0000E+00  0.7895E-05  0.9742E-05  0.2459E-03  0.2550E-04 -0.3848E+06
   -1.399994    7.92319  0.0000E+00  0.0000E+00  0.0000E+00  0.0000E+00  0.4767E-04  0.0000E+00
