 1 - depth, m
 2 - temperature, C
 3 - salinity, kg/kg
 4 - turbulent kinetic energy, m**2/s**2
 5 - dissipation rate, m**2/s**3
 6 - kinematic heat conductance, m**2/s
 7 - modulus of horizontal velocity, m/s
 8 - Richardson number, n/d
   -0.000000   -0.00036  0.0000E+00  0.7605E-04  0.2795E-04  0.3415E-04  0.7844E-01  0.2150E+00
   -0.035004    0.52358  0.0000E+00  0.4857E-04  0.8406E-05  0.6044E-04  0.3375E-01  0.3496E+02
   -0.070008    0.73137  0.0000E+00  0.3682E-04  0.3573E-05  0.9636E-04  0.2559E-01  0.1541E+01
   -0.105012    0.89700  0.0000E+00  0.2968E-04  0.1896E-05  0.1290E-03  0.2114E-01  0.9012E+00
   -0.140016    1.05072  0.0000E+00  0.2443E-04  0.1112E-05  0.1596E-03  0.1782E-01  0.4591E+00
   -0.175021    1.20077  0.0000E+00  0.2039E-04  0.6969E-06  0.1901E-03  0.1509E-01  0.5395E+00
   -0.210026    1.35081  0.0000E+00  0.1724E-04  0.4652E-06  0.2167E-03  0.1276E-01  0.2086E+01
   -0.245032    1.50443  0.0000E+00  0.1471E-04  0.3299E-06  0.2419E-03  0.1068E-01  0.8715E+01
   -0.280037    1.66452  0.0000E+00  0.1248E-04  0.2431E-06  0.2625E-03  0.8733E-02  0.2636E+01
   -0.315043    1.82215  0.0000E+00  0.9805E-05  0.1665E-06  0.2840E-03  0.6741E-02  0.8667E+01
   -0.350049    2.00674  0.0000E+00  0.7322E-05  0.1079E-06  0.2967E-03  0.5136E-02  0.5435E+01
   -0.385055    2.29469  0.0000E+00  0.5180E-05  0.6304E-07  0.3115E-03  0.3666E-02  0.2356E+02
   -0.420061    2.90535  0.0000E+00  0.3899E-05  0.3173E-07  0.3328E-03  0.2162E-02  0.1219E+04
   -0.455068    3.89009  0.0000E+00  0.3599E-05  0.1533E-07  0.3824E-03  0.7186E-03  0.4478E+02
   -0.490074    4.31744  0.0000E+00  0.3669E-05  0.1170E-07  0.4354E-03  0.2000E-03  0.2321E+04
   -0.525081    4.35884  0.0000E+00  0.3797E-05  0.1084E-07  0.4710E-03  0.1160E-03  0.1309E+04
   -0.560088    4.38249  0.0000E+00  0.3956E-05  0.1066E-07  0.5025E-03  0.8066E-04  0.9488E+03
   -0.595094    4.40163  0.0000E+00  0.4163E-05  0.1074E-07  0.5310E-03  0.6353E-04  0.1150E+05
   -0.630101    4.42215  0.0000E+00  0.4366E-05  0.1094E-07  0.5583E-03  0.5329E-04  0.1332E+05
   -0.665108    4.44072  0.0000E+00  0.4556E-05  0.1121E-07  0.5827E-03  0.4655E-04  0.7402E+03
   -0.700115    4.45785  0.0000E+00  0.4734E-05  0.1155E-07  0.6031E-03  0.4124E-04  0.3195E+03
   -0.735122    4.47392  0.0000E+00  0.4902E-05  0.1193E-07  0.6199E-03  0.3679E-04  0.2520E+03
   -0.770129    4.48938  0.0000E+00  0.5061E-05  0.1237E-07  0.6330E-03  0.3297E-04  0.2577E+03
   -0.805136    4.50440  0.0000E+00  0.5212E-05  0.1286E-07  0.6424E-03  0.2965E-04  0.3010E+03
   -0.840143    4.51918  0.0000E+00  0.5354E-05  0.1340E-07  0.6474E-03  0.2669E-04  0.3608E+03
   -0.875149    4.53377  0.0000E+00  0.5487E-05  0.1401E-07  0.6488E-03  0.2405E-04  0.4273E+03
   -0.910156    4.54840  0.0000E+00  0.5612E-05  0.1469E-07  0.6461E-03  0.2166E-04  0.5296E+03
   -0.945163    4.56298  0.0000E+00  0.5726E-05  0.1544E-07  0.6395E-03  0.1949E-04  0.6249E+03
   -0.980169    4.57755  0.0000E+00  0.5831E-05  0.1630E-07  0.6280E-03  0.1745E-04  0.7543E+03
   -1.015175    4.59213  0.0000E+00  0.5927E-05  0.1730E-07  0.6188E-03  0.1557E-04  0.9207E+03
   -1.050181    4.60714  0.0000E+00  0.6016E-05  0.1853E-07  0.6170E-03  0.1382E-04  0.1320E+04
   -1.085187    4.62280  0.0000E+00  0.6098E-05  0.2008E-07  0.5524E-03  0.1225E-04  0.1905E+04
   -1.120193    4.64038  0.0000E+00  0.6167E-05  0.2212E-07  0.5211E-03  0.1072E-04  0.2877E+04
   -1.155199    4.65955  0.0000E+00  0.6220E-05  0.2464E-07  0.5580E-03  0.9270E-05  0.3997E+04
   -1.190204    4.67658  0.0000E+00  0.6270E-05  0.2835E-07  0.4212E-03  0.8078E-05  0.7565E+05
   -1.225209    4.70086  0.0000E+00  0.6305E-05  0.3398E-07  0.4037E-03  0.6805E-05  0.2440E+05
   -1.260214    4.72476  0.0000E+00  0.6326E-05  0.4526E-07  0.3065E-03  0.5638E-05 -0.3624E+07
   -1.295219    4.76949  0.0000E+00  0.6232E-05  0.7317E-07  0.2678E-03  0.4412E-05  0.2491E+07
   -1.330223    4.83314  0.0000E+00  0.5760E-05  0.1420E-06  0.1303E-03  0.3406E-05  0.1088E+10
   -1.365227    5.04236  0.0000E+00  0.4053E-05  0.3396E-06  0.4971E-04  0.2320E-05 -0.1273E+10
   -1.400230    5.32920  0.0000E+00  0.0000E+00  0.0000E+00  0.0000E+00  0.2540E-05  0.0000E+00
