 1 - depth, m
 2 - temperature, C
 3 - salinity, kg/kg
 4 - turbulent kinetic energy, m**2/s**2
 5 - dissipation rate, m**2/s**3
 6 - kinematic heat conductance, m**2/s
 7 - modulus of horizontal velocity, m/s
 8 - Richardson number, n/d
   -0.000000   14.30415  0.0000E+00  0.1121E-04  0.7491E-06  0.2306E-04  0.1268E-01 -0.1538E+00
   -0.034998   14.38294  0.0000E+00  0.1103E-04  0.2867E-06  0.1205E-03  0.6729E-02  0.1299E+03
   -0.069996   14.40042  0.0000E+00  0.1139E-04  0.1845E-06  0.2119E-03  0.5249E-02  0.1412E+02
   -0.104994   14.40918  0.0000E+00  0.1202E-04  0.1423E-06  0.3044E-03  0.4453E-02  0.2886E+02
   -0.139993   14.41480  0.0000E+00  0.1285E-04  0.1185E-06  0.3814E-03  0.3837E-02  0.3472E+01
   -0.174992   14.41921  0.0000E+00  0.1377E-04  0.1029E-06  0.4348E-03  0.3303E-02  0.3234E+01
   -0.209991   14.42305  0.0000E+00  0.1471E-04  0.9224E-07  0.4964E-03  0.2831E-02  0.2972E+01
   -0.244991   14.42639  0.0000E+00  0.1565E-04  0.8490E-07  0.5688E-03  0.2407E-02  0.2793E+01
   -0.279990   14.42929  0.0000E+00  0.1657E-04  0.7997E-07  0.6540E-03  0.2021E-02  0.2667E+01
   -0.314990   14.43177  0.0000E+00  0.1745E-04  0.7695E-07  0.7518E-03  0.1665E-02  0.2136E+01
   -0.349990   14.43398  0.0000E+00  0.1828E-04  0.7558E-07  0.8445E-03  0.1368E-02  0.1793E+01
   -0.384991   14.43599  0.0000E+00  0.1905E-04  0.7562E-07  0.9283E-03  0.1125E-02  0.1547E+01
   -0.419991   14.43788  0.0000E+00  0.1978E-04  0.7690E-07  0.1002E-02  0.9267E-03  0.1402E+01
   -0.454992   14.43965  0.0000E+00  0.2046E-04  0.7929E-07  0.1071E-02  0.7596E-03  0.1279E+01
   -0.489992   14.44134  0.0000E+00  0.2111E-04  0.8272E-07  0.1131E-02  0.6175E-03  0.1213E+01
   -0.524993   14.44295  0.0000E+00  0.2181E-04  0.8749E-07  0.1227E-02  0.4973E-03  0.1150E+01
   -0.559994   14.44468  0.0000E+00  0.2251E-04  0.9342E-07  0.1379E-02  0.4141E-03  0.1219E+01
   -0.594995   14.44656  0.0000E+00  0.2316E-04  0.1000E-06  0.1518E-02  0.3649E-03  0.1201E+01
   -0.629996   14.44911  0.0000E+00  0.2357E-04  0.1055E-06  0.1541E-02  0.3233E-03  0.1478E+01
   -0.664997   14.45174  0.0000E+00  0.2386E-04  0.1106E-06  0.1526E-02  0.3013E-03  0.1518E+01
   -0.699998   14.45442  0.0000E+00  0.2406E-04  0.1159E-06  0.1497E-02  0.2818E-03  0.1616E+01
   -0.734999   14.45721  0.0000E+00  0.2419E-04  0.1218E-06  0.1466E-02  0.2646E-03  0.1808E+01
   -0.770000   14.46012  0.0000E+00  0.2425E-04  0.1286E-06  0.1428E-02  0.2489E-03  0.1846E+01
   -0.805002   14.46324  0.0000E+00  0.2424E-04  0.1370E-06  0.1384E-02  0.2345E-03  0.2845E+01
   -0.840002   14.46662  0.0000E+00  0.2415E-04  0.1466E-06  0.1343E-02  0.2207E-03  0.3005E+01
   -0.875003   14.47030  0.0000E+00  0.2399E-04  0.1587E-06  0.1304E-02  0.2074E-03 -0.3053E+02
   -0.910004   14.47440  0.0000E+00  0.2374E-04  0.1758E-06  0.1244E-02  0.1944E-03  0.1153E+05
   -0.945005   14.47918  0.0000E+00  0.2339E-04  0.1968E-06  0.1188E-02  0.1810E-03  0.8238E+04
   -0.980006   14.48453  0.0000E+00  0.2294E-04  0.2315E-06  0.1137E-02  0.1674E-03  0.5493E+05
   -1.015006   14.49120  0.0000E+00  0.2240E-04  0.2701E-06  0.1111E-02  0.1523E-03  0.2603E+05
   -1.050006   14.49835  0.0000E+00  0.2174E-04  0.3338E-06  0.1018E-02  0.1376E-03  0.2944E+05
   -1.085006   14.50904  0.0000E+00  0.2097E-04  0.4778E-06  0.9268E-03  0.1211E-03  0.6243E+04
   -1.120006   14.52312  0.0000E+00  0.2008E-04  0.6081E-06  0.8659E-03  0.1063E-03  0.2192E+06
   -1.155006   14.53420  0.0000E+00  0.1917E-04  0.1012E-05  0.7967E-03  0.9108E-04  0.3009E+07
   -1.190005   14.56182  0.0000E+00  0.1818E-04  0.1380E-05  0.7255E-03  0.7400E-04  0.8064E+06
   -1.225005   14.57166  0.0000E+00  0.1730E-04  0.1975E-05  0.6527E-03  0.5756E-04 -0.1403E+08
   -1.260004   14.63855  0.0000E+00  0.1621E-04  0.4718E-05  0.6108E-03  0.4244E-04  0.9357E+09
   -1.295002   14.77048  0.0000E+00  0.1514E-04  0.6927E-05  0.5712E-03  0.2993E-04 -0.6164E+06
   -1.330001   14.67087  0.0000E+00  0.1320E-04  0.2180E-04  0.3151E-03  0.2643E-04 -0.8973E+10
   -1.364999   15.16377  0.0000E+00  0.1071E-04  0.2997E-04  0.4034E-03  0.1585E-04  0.4680E+07
   -1.399997   14.91678  0.0000E+00  0.0000E+00  0.0000E+00  0.0000E+00  0.3494E-04  0.0000E+00
