 1 - depth, m
 2 - temperature, C
 3 - salinity, kg/kg
 4 - turbulent kinetic energy, m**2/s**2
 5 - dissipation rate, m**2/s**3
 6 - kinematic heat conductance, m**2/s
 7 - modulus of horizontal velocity, m/s
 8 - Richardson number, n/d
   -0.000000    6.46974  0.0000E+00  0.3591E-03  0.1200E-02  0.7392E-04  0.2034E+00  0.9764E-01
   -0.034998    6.83806  0.0000E+00  0.1949E-03  0.5322E-03  0.1227E-03  0.6397E-01 -0.7930E-01
   -0.069996    6.95262  0.0000E+00  0.1348E-03  0.2343E-03  0.1611E-03  0.3848E-01  0.1120E+00
   -0.104994    7.00178  0.0000E+00  0.1056E-03  0.1445E-03  0.1772E-03  0.2999E-01  0.2090E+01
   -0.139993    7.03092  0.0000E+00  0.8798E-04  0.9036E-04  0.1976E-03  0.2488E-01  0.1349E+01
   -0.174992    7.05129  0.0000E+00  0.7505E-04  0.5735E-04  0.2183E-03  0.2108E-01  0.6497E+01
   -0.209991    7.06852  0.0000E+00  0.6537E-04  0.3549E-04  0.2438E-03  0.1801E-01  0.5913E+02
   -0.244991    7.08279  0.0000E+00  0.5822E-04  0.2226E-04  0.2680E-03  0.1546E-01  0.3048E+03
   -0.279991    7.09532  0.0000E+00  0.5261E-04  0.1406E-04  0.2907E-03  0.1328E-01  0.1792E+03
   -0.314991    7.10933  0.0000E+00  0.4778E-04  0.8941E-05  0.3414E-03  0.1112E-01  0.1890E+02
   -0.349991    7.11934  0.0000E+00  0.4389E-04  0.5756E-05  0.3838E-03  0.9576E-02  0.3532E+02
   -0.384991    7.12811  0.0000E+00  0.4074E-04  0.3732E-05  0.4450E-03  0.8318E-02  0.6255E+02
   -0.419992    7.13655  0.0000E+00  0.3824E-04  0.2427E-05  0.4999E-03  0.7256E-02  0.1000E+03
   -0.454992    7.14342  0.0000E+00  0.3624E-04  0.1682E-05  0.5480E-03  0.6266E-02  0.2011E+03
   -0.489993    7.15011  0.0000E+00  0.3462E-04  0.1221E-05  0.6133E-03  0.5319E-02  0.1048E+03
   -0.524994    7.15673  0.0000E+00  0.3314E-04  0.9089E-06  0.6787E-03  0.4444E-02  0.6470E+02
   -0.559995    7.16240  0.0000E+00  0.3163E-04  0.6677E-06  0.7375E-03  0.3747E-02  0.1918E+03
   -0.594996    7.17094  0.0000E+00  0.2990E-04  0.5091E-06  0.8343E-03  0.3214E-02  0.2138E+02
   -0.629997    7.17900  0.0000E+00  0.2837E-04  0.4156E-06  0.8911E-03  0.2912E-02  0.8614E+02
   -0.664998    7.18695  0.0000E+00  0.2704E-04  0.3373E-06  0.8823E-03  0.2620E-02 -0.6629E+03
   -0.699999    7.19615  0.0000E+00  0.2585E-04  0.2625E-06  0.8978E-03  0.2319E-02  0.1166E+03
   -0.735000    7.20371  0.0000E+00  0.2481E-04  0.2167E-06  0.9015E-03  0.2045E-02  0.7369E+03
   -0.770001    7.21243  0.0000E+00  0.2387E-04  0.1864E-06  0.9089E-03  0.1790E-02  0.7110E+01
   -0.805002    7.22035  0.0000E+00  0.2300E-04  0.1658E-06  0.9104E-03  0.1564E-02  0.4033E+01
   -0.840003    7.22871  0.0000E+00  0.2220E-04  0.1518E-06  0.9054E-03  0.1361E-02  0.1215E+02
   -0.875004    7.23717  0.0000E+00  0.2144E-04  0.1421E-06  0.8959E-03  0.1178E-02  0.4759E+01
   -0.910005    7.24574  0.0000E+00  0.2070E-04  0.1362E-06  0.8758E-03  0.1019E-02  0.3521E+01
   -0.945006    7.25490  0.0000E+00  0.2000E-04  0.1340E-06  0.8560E-03  0.8768E-03  0.5195E+01
   -0.980006    7.26409  0.0000E+00  0.1934E-04  0.1353E-06  0.8125E-03  0.7536E-03  0.1618E+02
   -1.015007    7.27435  0.0000E+00  0.1868E-04  0.1418E-06  0.7729E-03  0.6440E-03  0.4979E+02
   -1.050007    7.28559  0.0000E+00  0.1802E-04  0.1541E-06  0.7409E-03  0.5499E-03  0.3123E+02
   -1.085007    7.29950  0.0000E+00  0.1731E-04  0.1770E-06  0.6939E-03  0.4700E-03  0.7906E+03
   -1.120007    7.31694  0.0000E+00  0.1651E-04  0.2163E-06  0.6436E-03  0.4036E-03  0.6031E+04
   -1.155007    7.33893  0.0000E+00  0.1564E-04  0.2941E-06  0.5921E-03  0.3379E-03  0.3805E+05
   -1.190007    7.36839  0.0000E+00  0.1470E-04  0.4413E-06  0.5258E-03  0.2738E-03  0.2175E+05
   -1.225006    7.40669  0.0000E+00  0.1389E-04  0.6465E-06  0.4756E-03  0.2092E-03  0.5654E+08
   -1.260005    7.43646  0.0000E+00  0.1292E-04  0.1388E-05  0.3886E-03  0.1571E-03 -0.1165E+09
   -1.295004    7.72593  0.0000E+00  0.1184E-04  0.2464E-05  0.3872E-03  0.1075E-03  0.1080E+08
   -1.330002    7.54292  0.0000E+00  0.1011E-04  0.5837E-05  0.2227E-03  0.9323E-04 -0.2140E+10
   -1.365000    8.27326  0.0000E+00  0.7909E-05  0.9874E-05  0.2386E-03  0.5511E-04 -0.1988E+07
   -1.399998    7.99318  0.0000E+00  0.0000E+00  0.0000E+00  0.0000E+00  0.1101E-03  0.0000E+00
