 1 - depth, m
 2 - temperature, C
 3 - salinity, kg/kg
 4 - turbulent kinetic energy, m**2/s**2
 5 - dissipation rate, m**2/s**3
 6 - kinematic heat conductance, m**2/s
 7 - modulus of horizontal velocity, m/s
 8 - Richardson number, n/d
   -0.000000   20.79209  0.0000E+00  0.2781E-04  0.3309E-05  0.2392E-04  0.3113E-01 -0.8130E-01
   -0.034998   20.85467  0.0000E+00  0.2141E-04  0.1071E-05  0.5185E-04  0.1618E-01 -0.8649E-01
   -0.069996   20.87536  0.0000E+00  0.1888E-04  0.5490E-06  0.8846E-04  0.1185E-01 -0.1551E+00
   -0.104994   20.88754  0.0000E+00  0.1772E-04  0.3516E-06  0.2008E-03  0.9460E-02  0.2788E+03
   -0.139993   20.89393  0.0000E+00  0.1728E-04  0.2611E-06  0.3606E-03  0.8028E-02  0.4166E+03
   -0.174991   20.89700  0.0000E+00  0.1727E-04  0.2102E-06  0.3768E-03  0.7014E-02  0.1684E+03
   -0.209991   20.89984  0.0000E+00  0.1748E-04  0.1753E-06  0.4180E-03  0.6056E-02  0.2397E+02
   -0.244990   20.90239  0.0000E+00  0.1778E-04  0.1506E-06  0.4519E-03  0.5212E-02  0.8101E+01
   -0.279990   20.90474  0.0000E+00  0.1812E-04  0.1321E-06  0.4936E-03  0.4433E-02  0.7937E+01
   -0.314989   20.90688  0.0000E+00  0.1844E-04  0.1174E-06  0.5523E-03  0.3696E-02  0.5018E+01
   -0.349990   20.90882  0.0000E+00  0.1878E-04  0.1058E-06  0.6199E-03  0.3059E-02  0.3596E+01
   -0.384990   20.91056  0.0000E+00  0.1913E-04  0.9702E-07  0.6964E-03  0.2510E-02  0.2794E+01
   -0.419990   20.91215  0.0000E+00  0.1951E-04  0.9068E-07  0.7768E-03  0.2042E-02  0.2449E+01
   -0.454991   20.91358  0.0000E+00  0.1989E-04  0.8651E-07  0.8520E-03  0.1626E-02  0.2184E+01
   -0.489991   20.91491  0.0000E+00  0.2028E-04  0.8431E-07  0.9127E-03  0.1256E-02  0.1920E+01
   -0.524992   20.91617  0.0000E+00  0.2070E-04  0.8387E-07  0.9433E-03  0.9353E-03  0.1520E+01
   -0.559993   20.91749  0.0000E+00  0.2115E-04  0.8501E-07  0.1003E-02  0.7034E-03  0.1311E+01
   -0.594994   20.91892  0.0000E+00  0.2138E-04  0.8634E-07  0.1603E-02  0.5539E-03  0.1069E+01
   -0.629995   20.92004  0.0000E+00  0.2146E-04  0.8736E-07  0.1589E-02  0.5201E-03  0.1598E+01
   -0.664996   20.92123  0.0000E+00  0.2153E-04  0.8887E-07  0.1344E-02  0.4989E-03  0.1380E+01
   -0.699997   20.92262  0.0000E+00  0.2160E-04  0.9188E-07  0.1412E-02  0.4441E-03  0.1281E+01
   -0.734998   20.92397  0.0000E+00  0.2161E-04  0.9505E-07  0.1414E-02  0.4011E-03  0.1228E+01
   -0.769999   20.92534  0.0000E+00  0.2157E-04  0.9855E-07  0.1381E-02  0.3650E-03  0.1201E+01
   -0.804999   20.92679  0.0000E+00  0.2148E-04  0.1025E-06  0.1336E-02  0.3349E-03  0.1152E+01
   -0.840000   20.92832  0.0000E+00  0.2135E-04  0.1071E-06  0.1284E-02  0.3094E-03 -0.3853E+02
   -0.875001   20.92996  0.0000E+00  0.2118E-04  0.1128E-06  0.1238E-02  0.2871E-03  0.3006E+01
   -0.910002   20.93170  0.0000E+00  0.2095E-04  0.1201E-06  0.1186E-02  0.2676E-03  0.1039E+01
   -0.945003   20.93365  0.0000E+00  0.2066E-04  0.1294E-06  0.1144E-02  0.2494E-03  0.3455E+03
   -0.980003   20.93570  0.0000E+00  0.2030E-04  0.1423E-06  0.1110E-02  0.2323E-03  0.1133E+03
   -1.015003   20.93824  0.0000E+00  0.1986E-04  0.1627E-06  0.1034E-02  0.2141E-03  0.1238E+05
   -1.050004   20.94112  0.0000E+00  0.1930E-04  0.1892E-06  0.9953E-03  0.1950E-03  0.8954E+04
   -1.085004   20.94502  0.0000E+00  0.1861E-04  0.2360E-06  0.8790E-03  0.1745E-03  0.1105E+04
   -1.120003   20.95013  0.0000E+00  0.1780E-04  0.2883E-06  0.8485E-03  0.1539E-03  0.5512E+05
   -1.155003   20.95501  0.0000E+00  0.1692E-04  0.3790E-06  0.7487E-03  0.1342E-03  0.1197E+06
   -1.190002   20.96491  0.0000E+00  0.1594E-04  0.5294E-06  0.7131E-03  0.1103E-03  0.1455E+07
   -1.225002   20.97221  0.0000E+00  0.1504E-04  0.7753E-06  0.5918E-03  0.8708E-04  0.9370E+06
   -1.260000   20.98956  0.0000E+00  0.1389E-04  0.1930E-05  0.5174E-03  0.6511E-04  0.9410E+08
   -1.294999   21.04843  0.0000E+00  0.1276E-04  0.3061E-05  0.5152E-03  0.4615E-04 -0.1557E+07
   -1.329997   21.01121  0.0000E+00  0.1072E-04  0.9068E-05  0.2771E-03  0.4054E-04 -0.2609E+09
   -1.364995   21.19784  0.0000E+00  0.8499E-05  0.1372E-04  0.3072E-03  0.2442E-04 -0.2058E+06
   -1.399993   21.12303  0.0000E+00  0.0000E+00  0.0000E+00  0.0000E+00  0.4941E-04  0.0000E+00
