 1 - depth, m
 2 - temperature, C
 3 - salinity, kg/kg
 4 - turbulent kinetic energy, m**2/s**2
 5 - dissipation rate, m**2/s**3
 6 - kinematic heat conductance, m**2/s
 7 - modulus of horizontal velocity, m/s
 8 - Richardson number, n/d
   -0.000000   21.08204  0.0000E+00  0.1771E-04  0.1643E-05  0.2291E-04  0.2064E-01 -0.7293E-01
   -0.034998   21.15322  0.0000E+00  0.1490E-04  0.5461E-06  0.7380E-04  0.1053E-01  0.5827E+01
   -0.069996   21.17295  0.0000E+00  0.1439E-04  0.3102E-06  0.1973E-03  0.7871E-02  0.8248E+03
   -0.104994   21.18084  0.0000E+00  0.1453E-04  0.2232E-06  0.2942E-03  0.6631E-02  0.9343E+02
   -0.139993   21.18539  0.0000E+00  0.1502E-04  0.1772E-06  0.3503E-03  0.5729E-02  0.2306E+02
   -0.174992   21.18905  0.0000E+00  0.1569E-04  0.1479E-06  0.3969E-03  0.4943E-02  0.8198E+01
   -0.209991   21.19223  0.0000E+00  0.1644E-04  0.1279E-06  0.4452E-03  0.4253E-02  0.4422E+01
   -0.244990   21.19505  0.0000E+00  0.1720E-04  0.1134E-06  0.5054E-03  0.3627E-02  0.4190E+01
   -0.279990   21.19751  0.0000E+00  0.1794E-04  0.1025E-06  0.5829E-03  0.3050E-02  0.4121E+01
   -0.314990   21.19964  0.0000E+00  0.1862E-04  0.9413E-07  0.6818E-03  0.2506E-02  0.3110E+01
   -0.349990   21.20146  0.0000E+00  0.1925E-04  0.8795E-07  0.7797E-03  0.2046E-02  0.2477E+01
   -0.384990   21.20306  0.0000E+00  0.1981E-04  0.8371E-07  0.8655E-03  0.1663E-02  0.2070E+01
   -0.419990   21.20452  0.0000E+00  0.2032E-04  0.8117E-07  0.9368E-03  0.1347E-02  0.1862E+01
   -0.454991   21.20587  0.0000E+00  0.2077E-04  0.8011E-07  0.9897E-03  0.1077E-02  0.1706E+01
   -0.489991   21.20716  0.0000E+00  0.2117E-04  0.8040E-07  0.1028E-02  0.8430E-03  0.1539E+01
   -0.524992   21.20840  0.0000E+00  0.2156E-04  0.8197E-07  0.1074E-02  0.6439E-03  0.1297E+01
   -0.559993   21.20967  0.0000E+00  0.2179E-04  0.8372E-07  0.1715E-02  0.4982E-03  0.1018E+01
   -0.594994   21.21049  0.0000E+00  0.2191E-04  0.8528E-07  0.1674E-02  0.4522E-03  0.6546E+02
   -0.629995   21.21163  0.0000E+00  0.2199E-04  0.8721E-07  0.1494E-02  0.4347E-03  0.1436E+01
   -0.664996   21.21292  0.0000E+00  0.2209E-04  0.9065E-07  0.1534E-02  0.3921E-03  0.1296E+01
   -0.699997   21.21419  0.0000E+00  0.2212E-04  0.9409E-07  0.1514E-02  0.3582E-03  0.1250E+01
   -0.734998   21.21550  0.0000E+00  0.2210E-04  0.9775E-07  0.1508E-02  0.3293E-03  0.1284E+01
   -0.769999   21.21685  0.0000E+00  0.2203E-04  0.1018E-06  0.1432E-02  0.3054E-03  0.2561E+01
   -0.805000   21.21831  0.0000E+00  0.2191E-04  0.1065E-06  0.1361E-02  0.2847E-03  0.1725E+01
   -0.840001   21.21990  0.0000E+00  0.2174E-04  0.1123E-06  0.1330E-02  0.2657E-03  0.1040E+01
   -0.875002   21.22156  0.0000E+00  0.2152E-04  0.1198E-06  0.1293E-02  0.2488E-03  0.8105E+00
   -0.910002   21.22340  0.0000E+00  0.2123E-04  0.1297E-06  0.1240E-02  0.2330E-03  0.3026E+02
   -0.945003   21.22546  0.0000E+00  0.2086E-04  0.1420E-06  0.1184E-02  0.2177E-03  0.7728E+03
   -0.980004   21.22778  0.0000E+00  0.2042E-04  0.1591E-06  0.1132E-02  0.2019E-03  0.6605E+03
   -1.015004   21.23056  0.0000E+00  0.1989E-04  0.1826E-06  0.1095E-02  0.1854E-03  0.1566E+06
   -1.050004   21.23375  0.0000E+00  0.1926E-04  0.2182E-06  0.1012E-02  0.1679E-03  0.4762E+04
   -1.085004   21.23814  0.0000E+00  0.1848E-04  0.2896E-06  0.9641E-03  0.1496E-03  0.1964E+05
   -1.120004   21.24418  0.0000E+00  0.1759E-04  0.3634E-06  0.8377E-03  0.1313E-03  0.9768E+05
   -1.155004   21.24793  0.0000E+00  0.1661E-04  0.5583E-06  0.7658E-03  0.1142E-03  0.9103E+05
   -1.190003   21.26139  0.0000E+00  0.1561E-04  0.7586E-06  0.7363E-03  0.9121E-04  0.1208E+07
   -1.225002   21.26496  0.0000E+00  0.1469E-04  0.1101E-05  0.6309E-03  0.7260E-04 -0.1471E+07
   -1.260001   21.29526  0.0000E+00  0.1350E-04  0.2592E-05  0.6112E-03  0.5227E-04  0.2078E+09
   -1.295000   21.34463  0.0000E+00  0.1243E-04  0.3943E-05  0.5180E-03  0.3715E-04  0.1144E+08
   -1.329998   21.30221  0.0000E+00  0.1050E-04  0.1289E-04  0.2845E-03  0.3313E-04 -0.9169E+09
   -1.364996   21.50057  0.0000E+00  0.8416E-05  0.1833E-04  0.3599E-03  0.1940E-04 -0.3054E+06
   -1.399994   21.42252  0.0000E+00  0.0000E+00  0.0000E+00  0.0000E+00  0.4347E-04  0.0000E+00
