 1 - depth, m
 2 - temperature, C
 3 - salinity, kg/kg
 4 - turbulent kinetic energy, m**2/s**2
 5 - dissipation rate, m**2/s**3
 6 - kinematic heat conductance, m**2/s
 7 - modulus of horizontal velocity, m/s
 8 - Richardson number, n/d
   -0.000000   18.67417  0.0000E+00  0.1022E-04  0.9766E-06  0.2451E-04  0.9632E-02 -0.5551E+00
   -0.034998   18.73791  0.0000E+00  0.1037E-04  0.3311E-06  0.1571E-03  0.4549E-02  0.3811E+01
   -0.069996   18.74870  0.0000E+00  0.1068E-04  0.1954E-06  0.2079E-03  0.3576E-02  0.3858E+02
   -0.104995   18.75582  0.0000E+00  0.1124E-04  0.1420E-06  0.2953E-03  0.3009E-02  0.1384E+02
   -0.139994   18.76061  0.0000E+00  0.1196E-04  0.1149E-06  0.3893E-03  0.2591E-02  0.2168E+02
   -0.174993   18.76411  0.0000E+00  0.1274E-04  0.9866E-07  0.4864E-03  0.2241E-02  0.7417E+02
   -0.209992   18.76686  0.0000E+00  0.1355E-04  0.8828E-07  0.5753E-03  0.1936E-02  0.1479E+02
   -0.244992   18.76916  0.0000E+00  0.1435E-04  0.8128E-07  0.6539E-03  0.1662E-02  0.3890E+01
   -0.279992   18.77116  0.0000E+00  0.1512E-04  0.7649E-07  0.7312E-03  0.1413E-02  0.2699E+01
   -0.314992   18.77293  0.0000E+00  0.1585E-04  0.7333E-07  0.8241E-03  0.1182E-02  0.1912E+01
   -0.349992   18.77450  0.0000E+00  0.1653E-04  0.7150E-07  0.9242E-03  0.9882E-03  0.1629E+01
   -0.384992   18.77593  0.0000E+00  0.1716E-04  0.7077E-07  0.1022E-02  0.8265E-03  0.1458E+01
   -0.419993   18.77723  0.0000E+00  0.1773E-04  0.7098E-07  0.1109E-02  0.6920E-03  0.1365E+01
   -0.454994   18.77845  0.0000E+00  0.1826E-04  0.7202E-07  0.1186E-02  0.5760E-03  0.1280E+01
   -0.489995   18.77959  0.0000E+00  0.1876E-04  0.7383E-07  0.1245E-02  0.4755E-03  0.1237E+01
   -0.524995   18.78069  0.0000E+00  0.1929E-04  0.7656E-07  0.1306E-02  0.3989E-03  0.1181E+01
   -0.559997   18.78185  0.0000E+00  0.1982E-04  0.8014E-07  0.1359E-02  0.3400E-03  0.1253E+01
   -0.594998   18.78318  0.0000E+00  0.2032E-04  0.8438E-07  0.1404E-02  0.2989E-03  0.1259E+01
   -0.629999   18.78498  0.0000E+00  0.2067E-04  0.8814E-07  0.1418E-02  0.2603E-03  0.1832E+01
   -0.665000   18.78682  0.0000E+00  0.2093E-04  0.9185E-07  0.1406E-02  0.2430E-03  0.2000E+01
   -0.700001   18.78869  0.0000E+00  0.2113E-04  0.9582E-07  0.1389E-02  0.2273E-03  0.2275E+01
   -0.735002   18.79061  0.0000E+00  0.2127E-04  0.1002E-06  0.1363E-02  0.2131E-03  0.2752E+01
   -0.770004   18.79260  0.0000E+00  0.2136E-04  0.1053E-06  0.1330E-02  0.2000E-03  0.3305E+01
   -0.805005   18.79473  0.0000E+00  0.2139E-04  0.1112E-06  0.1294E-02  0.1879E-03  0.2359E+01
   -0.840006   18.79699  0.0000E+00  0.2136E-04  0.1183E-06  0.1259E-02  0.1763E-03  0.5535E+01
   -0.875007   18.79942  0.0000E+00  0.2127E-04  0.1272E-06  0.1229E-02  0.1653E-03  0.8297E+02
   -0.910008   18.80207  0.0000E+00  0.2109E-04  0.1388E-06  0.1158E-02  0.1546E-03  0.2586E+03
   -0.945009   18.80510  0.0000E+00  0.2083E-04  0.1539E-06  0.1128E-02  0.1439E-03  0.1008E+04
   -0.980010   18.80856  0.0000E+00  0.2048E-04  0.1753E-06  0.1037E-02  0.1330E-03  0.4457E+07
   -1.015010   18.81260  0.0000E+00  0.2004E-04  0.2060E-06  0.1012E-02  0.1212E-03  0.1511E+05
   -1.050011   18.81761  0.0000E+00  0.1949E-04  0.2463E-06  0.9307E-03  0.1092E-03 -0.5478E+05
   -1.085011   18.82360  0.0000E+00  0.1882E-04  0.3172E-06  0.8892E-03  0.9676E-04  0.5081E+06
   -1.120011   18.83301  0.0000E+00  0.1802E-04  0.4038E-06  0.8009E-03  0.8461E-04  0.1067E+07
   -1.155011   18.83909  0.0000E+00  0.1717E-04  0.5702E-06  0.7003E-03  0.7275E-04  0.3519E+06
   -1.190010   18.85693  0.0000E+00  0.1625E-04  0.7853E-06  0.6937E-03  0.5874E-04  0.4685E+07
   -1.225010   18.86508  0.0000E+00  0.1543E-04  0.1152E-05  0.5810E-03  0.4586E-04 -0.6882E+07
   -1.260009   18.89595  0.0000E+00  0.1438E-04  0.3002E-05  0.5301E-03  0.3350E-04  0.1346E+10
   -1.295008   18.99366  0.0000E+00  0.1332E-04  0.4567E-05  0.4878E-03  0.2339E-04  0.1031E+09
   -1.330006   18.92602  0.0000E+00  0.1149E-04  0.1414E-04  0.2841E-03  0.2059E-04 -0.1138E+11
   -1.365005   19.22307  0.0000E+00  0.9174E-05  0.2014E-04  0.3420E-03  0.1233E-04 -0.2603E+06
   -1.400002   19.08869  0.0000E+00  0.0000E+00  0.0000E+00  0.0000E+00  0.2681E-04  0.0000E+00
