 1 - depth, m
 2 - temperature, C
 3 - salinity, kg/kg
 4 - turbulent kinetic energy, m**2/s**2
 5 - dissipation rate, m**2/s**3
 6 - kinematic heat conductance, m**2/s
 7 - modulus of horizontal velocity, m/s
 8 - Richardson number, n/d
   -0.000000   14.96427  0.0000E+00  0.3168E-03  0.4826E-03  0.7956E-04  0.2034E+00  0.1545E-01
   -0.034998   15.27046  0.0000E+00  0.1739E-03  0.1631E-03  0.1062E-03  0.6368E-01 -0.1288E+00
   -0.069996   15.37480  0.0000E+00  0.1154E-03  0.4846E-04  0.1519E-03  0.3848E-01 -0.1129E+00
   -0.104994   15.42845  0.0000E+00  0.9070E-04  0.2466E-04  0.1774E-03  0.2949E-01  0.8900E+00
   -0.139992   15.45436  0.0000E+00  0.7501E-04  0.1349E-04  0.1961E-03  0.2409E-01  0.4033E+01
   -0.174991   15.47294  0.0000E+00  0.6413E-04  0.7777E-05  0.2282E-03  0.2009E-01  0.1682E+02
   -0.209990   15.48789  0.0000E+00  0.5636E-04  0.4596E-05  0.2848E-03  0.1704E-01  0.4419E+02
   -0.244990   15.50045  0.0000E+00  0.5071E-04  0.2849E-05  0.3602E-03  0.1458E-01  0.3003E+03
   -0.279989   15.50889  0.0000E+00  0.4654E-04  0.1899E-05  0.4268E-03  0.1254E-01  0.3944E+03
   -0.314989   15.51675  0.0000E+00  0.4317E-04  0.1335E-05  0.5124E-03  0.1058E-01  0.3881E+03
   -0.349989   15.52215  0.0000E+00  0.4052E-04  0.9813E-06  0.5628E-03  0.9112E-02  0.7334E+03
   -0.384989   15.52669  0.0000E+00  0.3843E-04  0.7484E-06  0.6154E-03  0.7833E-02  0.3445E+03
   -0.419990   15.53082  0.0000E+00  0.3683E-04  0.5987E-06  0.6599E-03  0.6717E-02  0.3423E+03
   -0.454990   15.53464  0.0000E+00  0.3562E-04  0.5004E-06  0.7054E-03  0.5681E-02  0.5664E+03
   -0.489991   15.53835  0.0000E+00  0.3464E-04  0.4329E-06  0.7496E-03  0.4719E-02  0.2595E+03
   -0.524991   15.54173  0.0000E+00  0.3374E-04  0.3806E-06  0.7977E-03  0.3824E-02  0.1387E+02
   -0.559992   15.54527  0.0000E+00  0.3291E-04  0.3356E-06  0.8884E-03  0.3100E-02 -0.3134E+02
   -0.594993   15.54896  0.0000E+00  0.3212E-04  0.2959E-06  0.9740E-03  0.2599E-02 -0.2285E+02
   -0.629994   15.55326  0.0000E+00  0.3144E-04  0.2654E-06  0.1004E-02  0.2324E-02  0.2365E+02
   -0.664995   15.55736  0.0000E+00  0.3079E-04  0.2397E-06  0.9138E-03  0.2067E-02  0.2815E+03
   -0.699996   15.56175  0.0000E+00  0.3012E-04  0.2182E-06  0.9500E-03  0.1775E-02  0.7169E+01
   -0.734997   15.56599  0.0000E+00  0.2952E-04  0.2036E-06  0.9710E-03  0.1520E-02  0.2118E+01
   -0.769997   15.57019  0.0000E+00  0.2894E-04  0.1942E-06  0.9876E-03  0.1299E-02  0.2205E+01
   -0.804998   15.57440  0.0000E+00  0.2836E-04  0.1895E-06  0.9993E-03  0.1112E-02  0.2393E+01
   -0.839999   15.57863  0.0000E+00  0.2778E-04  0.1888E-06  0.1005E-02  0.9551E-03  0.2747E+01
   -0.875000   15.58294  0.0000E+00  0.2720E-04  0.1919E-06  0.1006E-02  0.8259E-03  0.2960E+01
   -0.910001   15.58736  0.0000E+00  0.2662E-04  0.1989E-06  0.9991E-03  0.7214E-03  0.1586E+02
   -0.945001   15.59202  0.0000E+00  0.2603E-04  0.2114E-06  0.9704E-03  0.6347E-03  0.4366E+03
   -0.980002   15.59712  0.0000E+00  0.2541E-04  0.2311E-06  0.9707E-03  0.5596E-03  0.1479E+02
   -1.015002   15.60272  0.0000E+00  0.2475E-04  0.2628E-06  0.9234E-03  0.4953E-03  0.2988E+03
   -1.050002   15.60945  0.0000E+00  0.2400E-04  0.3143E-06  0.8709E-03  0.4391E-03 -0.1290E+03
   -1.085002   15.61796  0.0000E+00  0.2311E-04  0.3955E-06  0.8354E-03  0.3864E-03 -0.3016E+03
   -1.120002   15.62947  0.0000E+00  0.2209E-04  0.5239E-06  0.7856E-03  0.3364E-03  0.2444E+06
   -1.155002   15.64174  0.0000E+00  0.2102E-04  0.7576E-06  0.7249E-03  0.2889E-03  0.1047E+06
   -1.190001   15.66190  0.0000E+00  0.1991E-04  0.1088E-05  0.6893E-03  0.2358E-03  0.3381E+05
   -1.225000   15.67850  0.0000E+00  0.1890E-04  0.1647E-05  0.5842E-03  0.1867E-03 -0.1369E+06
   -1.259999   15.71719  0.0000E+00  0.1767E-04  0.3856E-05  0.5309E-03  0.1381E-03 -0.1507E+09
   -1.294997   15.85210  0.0000E+00  0.1643E-04  0.5981E-05  0.5015E-03  0.9887E-04  0.1155E+09
   -1.329996   15.75436  0.0000E+00  0.1416E-04  0.1903E-04  0.2849E-03  0.8617E-04 -0.1262E+10
   -1.364994   16.17258  0.0000E+00  0.1137E-04  0.2694E-04  0.3478E-03  0.5184E-04 -0.1104E+06
   -1.399991   15.99724  0.0000E+00  0.0000E+00  0.0000E+00  0.0000E+00  0.1098E-03  0.0000E+00
