 1 - depth, m
 2 - temperature, C
 3 - salinity, kg/kg
 4 - turbulent kinetic energy, m**2/s**2
 5 - dissipation rate, m**2/s**3
 6 - kinematic heat conductance, m**2/s
 7 - modulus of horizontal velocity, m/s
 8 - Richardson number, n/d
   -0.000000   20.08319  0.0000E+00  0.4493E-04  0.1143E-04  0.2830E-04  0.4388E-01 -0.5628E-01
   -0.034998   20.16540  0.0000E+00  0.3037E-04  0.3340E-05  0.5929E-04  0.1879E-01 -0.1235E+00
   -0.069996   20.18753  0.0000E+00  0.2503E-04  0.1498E-05  0.9767E-04  0.1350E-01 -0.1085E+00
   -0.104994   20.20013  0.0000E+00  0.2236E-04  0.8368E-06  0.2046E-03  0.1087E-01  0.2912E+04
   -0.139993   20.20746  0.0000E+00  0.2087E-04  0.5294E-06  0.2984E-03  0.9194E-02  0.5569E+02
   -0.174992   20.21232  0.0000E+00  0.2008E-04  0.3693E-06  0.3562E-03  0.7908E-02  0.1062E+03
   -0.209991   20.21615  0.0000E+00  0.1972E-04  0.2779E-06  0.4026E-03  0.6816E-02  0.2442E+03
   -0.244991   20.21932  0.0000E+00  0.1963E-04  0.2219E-06  0.4455E-03  0.5851E-02  0.1955E+03
   -0.279990   20.22203  0.0000E+00  0.1969E-04  0.1847E-06  0.4895E-03  0.4973E-02  0.2000E+03
   -0.314990   20.22441  0.0000E+00  0.1979E-04  0.1580E-06  0.5485E-03  0.4145E-02  0.1253E+03
   -0.349990   20.22653  0.0000E+00  0.1993E-04  0.1380E-06  0.6126E-03  0.3428E-02  0.1661E+02
   -0.384991   20.22846  0.0000E+00  0.2011E-04  0.1227E-06  0.6861E-03  0.2793E-02  0.4735E+01
   -0.419991   20.23022  0.0000E+00  0.2033E-04  0.1104E-06  0.8512E-03  0.2245E-02  0.6569E+01
   -0.454992   20.23174  0.0000E+00  0.2041E-04  0.1040E-06  0.1121E-02  0.1686E-02  0.1927E+01
   -0.489992   20.23285  0.0000E+00  0.2052E-04  0.1012E-06  0.1254E-02  0.1478E-02  0.2029E+01
   -0.524993   20.23384  0.0000E+00  0.2075E-04  0.9938E-07  0.8360E-03  0.1303E-02  0.1589E+01
   -0.559994   20.23554  0.0000E+00  0.2122E-04  0.9827E-07  0.9071E-03  0.9386E-03  0.1515E+01
   -0.594995   20.23733  0.0000E+00  0.2164E-04  0.9878E-07  0.1047E-02  0.7383E-03  0.1243E+01
   -0.629996   20.23931  0.0000E+00  0.2189E-04  0.9980E-07  0.1215E-02  0.6278E-03  0.1339E+01
   -0.664997   20.24108  0.0000E+00  0.2197E-04  0.1008E-06  0.1517E-02  0.5458E-03  0.1271E+01
   -0.699998   20.24247  0.0000E+00  0.2198E-04  0.1021E-06  0.1384E-02  0.5179E-03  0.2581E+01
   -0.734999   20.24403  0.0000E+00  0.2197E-04  0.1043E-06  0.1308E-02  0.4927E-03  0.1293E+01
   -0.770000   20.24570  0.0000E+00  0.2192E-04  0.1081E-06  0.1285E-02  0.4405E-03  0.1230E+01
   -0.805001   20.24745  0.0000E+00  0.2183E-04  0.1125E-06  0.1254E-02  0.3996E-03  0.7989E+02
   -0.840002   20.24928  0.0000E+00  0.2168E-04  0.1178E-06  0.1238E-02  0.3652E-03  0.1269E+01
   -0.875003   20.25122  0.0000E+00  0.2149E-04  0.1246E-06  0.1162E-02  0.3364E-03  0.5002E+01
   -0.910004   20.25335  0.0000E+00  0.2123E-04  0.1334E-06  0.1118E-02  0.3108E-03  0.1843E+02
   -0.945005   20.25570  0.0000E+00  0.2090E-04  0.1452E-06  0.1093E-02  0.2872E-03  0.2130E+03
   -0.980005   20.25825  0.0000E+00  0.2049E-04  0.1617E-06  0.1036E-02  0.2649E-03  0.8152E+01
   -1.015006   20.26141  0.0000E+00  0.1999E-04  0.1842E-06  0.1004E-02  0.2421E-03  0.5405E+03
   -1.050006   20.26488  0.0000E+00  0.1937E-04  0.2185E-06  0.9139E-03  0.2190E-03  0.1781E+05
   -1.085006   20.26964  0.0000E+00  0.1865E-04  0.2837E-06  0.8665E-03  0.1948E-03  0.1626E+05
   -1.120006   20.27623  0.0000E+00  0.1779E-04  0.3571E-06  0.7990E-03  0.1712E-03  0.2019E+05
   -1.155006   20.28244  0.0000E+00  0.1687E-04  0.4845E-06  0.7250E-03  0.1471E-03  0.2188E+05
   -1.190005   20.29391  0.0000E+00  0.1587E-04  0.6769E-06  0.6756E-03  0.1207E-03  0.8715E+05
   -1.225005   20.30474  0.0000E+00  0.1498E-04  0.1002E-05  0.5592E-03  0.9258E-04  0.1500E+06
   -1.260004   20.32438  0.0000E+00  0.1384E-04  0.2328E-05  0.5144E-03  0.6880E-04  0.1001E+09
   -1.295002   20.40406  0.0000E+00  0.1279E-04  0.3725E-05  0.4882E-03  0.4761E-04  0.1625E+08
   -1.330001   20.34849  0.0000E+00  0.1100E-04  0.1211E-04  0.2784E-03  0.4203E-04 -0.4850E+09
   -1.364999   20.57713  0.0000E+00  0.8771E-05  0.1766E-04  0.3291E-03  0.2511E-04 -0.3017E+06
   -1.399997   20.49232  0.0000E+00  0.0000E+00  0.0000E+00  0.0000E+00  0.5406E-04  0.0000E+00
