 1 - depth, m
 2 - temperature, C
 3 - salinity, kg/kg
 4 - turbulent kinetic energy, m**2/s**2
 5 - dissipation rate, m**2/s**3
 6 - kinematic heat conductance, m**2/s
 7 - modulus of horizontal velocity, m/s
 8 - Richardson number, n/d
   -0.000000    7.60170  0.0000E+00  0.1496E-02  0.1193E-01  0.1641E-03  0.6483E+00 -0.1418E-01
   -0.034998    8.02207  0.0000E+00  0.8587E-03  0.7252E-02  0.2320E-03  0.2022E+00  0.1472E+01
   -0.069996    8.20943  0.0000E+00  0.5424E-03  0.1733E-02  0.3880E-03  0.1099E+00 -0.1341E+01
   -0.104994    8.28980  0.0000E+00  0.4212E-03  0.1115E-02  0.4184E-03  0.7674E-01  0.5346E+01
   -0.139992    8.32108  0.0000E+00  0.3514E-03  0.7089E-03  0.4253E-03  0.6188E-01 -0.1933E+00
   -0.174991    8.34095  0.0000E+00  0.3055E-03  0.5111E-03  0.4372E-03  0.5253E-01 -0.2786E+00
   -0.209990    8.35539  0.0000E+00  0.2705E-03  0.3788E-03  0.4553E-03  0.4565E-01  0.1390E+00
   -0.244990    8.36673  0.0000E+00  0.2432E-03  0.2858E-03  0.4646E-03  0.4036E-01  0.6171E+00
   -0.279989    8.37652  0.0000E+00  0.2190E-03  0.2165E-03  0.4625E-03  0.3540E-01  0.8735E+00
   -0.314989    8.38628  0.0000E+00  0.1971E-03  0.1662E-03  0.4971E-03  0.3004E-01  0.2838E+02
   -0.349989    8.39393  0.0000E+00  0.1804E-03  0.1282E-03  0.5226E-03  0.2688E-01  0.8890E+01
   -0.384989    8.40098  0.0000E+00  0.1665E-03  0.9922E-04  0.5462E-03  0.2439E-01  0.5423E+02
   -0.419989    8.40696  0.0000E+00  0.1548E-03  0.7717E-04  0.5618E-03  0.2238E-01  0.1169E+02
   -0.454990    8.41387  0.0000E+00  0.1449E-03  0.6071E-04  0.5934E-03  0.2021E-01  0.6502E+01
   -0.489990    8.42068  0.0000E+00  0.1365E-03  0.4899E-04  0.6512E-03  0.1790E-01  0.1791E+02
   -0.524991    8.42724  0.0000E+00  0.1286E-03  0.4009E-04  0.7865E-03  0.1574E-01 -0.7498E+02
   -0.559992    8.43525  0.0000E+00  0.1209E-03  0.3287E-04  0.9920E-03  0.1428E-01 -0.1478E+04
   -0.594992    8.44168  0.0000E+00  0.1119E-03  0.2491E-04  0.1120E-02  0.1326E-01  0.1418E+03
   -0.629993    8.45160  0.0000E+00  0.1033E-03  0.1794E-04  0.1161E-02  0.1285E-01  0.7167E+03
   -0.664994    8.45890  0.0000E+00  0.9608E-04  0.1319E-04  0.1177E-02  0.1209E-01  0.6460E+03
   -0.699995    8.46618  0.0000E+00  0.8993E-04  0.9870E-05  0.1200E-02  0.1128E-01  0.2340E+05
   -0.734996    8.47382  0.0000E+00  0.8416E-04  0.7126E-05  0.1202E-02  0.1047E-01  0.2105E+03
   -0.769997    8.48186  0.0000E+00  0.7876E-04  0.5154E-05  0.1196E-02  0.9612E-02 -0.5246E+03
   -0.804998    8.48941  0.0000E+00  0.7400E-04  0.3733E-05  0.1204E-02  0.8827E-02  0.6711E+04
   -0.839999    8.49758  0.0000E+00  0.6973E-04  0.2839E-05  0.1207E-02  0.8087E-02 -0.2034E+03
   -0.874999    8.50535  0.0000E+00  0.6562E-04  0.2277E-05  0.1180E-02  0.7389E-02  0.8574E+03
   -0.910000    8.51422  0.0000E+00  0.6163E-04  0.1755E-05  0.1168E-02  0.6635E-02  0.2869E+02
   -0.945001    8.52208  0.0000E+00  0.5792E-04  0.1387E-05  0.1130E-02  0.5981E-02  0.6099E+02
   -0.980001    8.52978  0.0000E+00  0.5435E-04  0.1132E-05  0.1087E-02  0.5357E-02  0.2378E+02
   -1.015001    8.53883  0.0000E+00  0.5076E-04  0.9484E-06  0.1011E-02  0.4713E-02  0.3239E+02
   -1.050001    8.54771  0.0000E+00  0.4721E-04  0.8684E-06  0.9457E-03  0.4096E-02  0.4441E+02
   -1.085001    8.55756  0.0000E+00  0.4369E-04  0.8431E-06  0.8818E-03  0.3548E-02 -0.9763E+02
   -1.120001    8.56979  0.0000E+00  0.4024E-04  0.8802E-06  0.8173E-03  0.3085E-02  0.8725E+03
   -1.155001    8.58522  0.0000E+00  0.3686E-04  0.1046E-05  0.7541E-03  0.2640E-02  0.1566E+04
   -1.190000    8.60532  0.0000E+00  0.3359E-04  0.1408E-05  0.6670E-03  0.2205E-02  0.4620E+04
   -1.224999    8.63417  0.0000E+00  0.3043E-04  0.2082E-05  0.6036E-03  0.1741E-02  0.5390E+05
   -1.259998    8.65738  0.0000E+00  0.2718E-04  0.4330E-05  0.4670E-03  0.1315E-02 -0.1654E+07
   -1.294997    8.85224  0.0000E+00  0.2340E-04  0.9657E-05  0.4748E-03  0.9214E-03  0.4829E+08
   -1.329995    8.75061  0.0000E+00  0.1926E-04  0.2270E-04  0.2889E-03  0.7885E-03 -0.7603E+07
   -1.364993    9.28130  0.0000E+00  0.1448E-04  0.3469E-04  0.2991E-03  0.5205E-03  0.1657E+08
   -1.399990    9.11196  0.0000E+00  0.0000E+00  0.0000E+00  0.0000E+00  0.9232E-03  0.0000E+00
