 1 - depth, m
 2 - temperature, C
 3 - salinity, kg/kg
 4 - turbulent kinetic energy, m**2/s**2
 5 - dissipation rate, m**2/s**3
 6 - kinematic heat conductance, m**2/s
 7 - modulus of horizontal velocity, m/s
 8 - Richardson number, n/d
   -0.000000    4.15576  0.0000E+00  0.3905E-04  0.1721E-04  0.2309E-04  0.3929E-01 -0.1877E-01
   -0.034998    4.40978  0.0000E+00  0.2527E-04  0.5357E-05  0.4916E-04  0.1748E-01  0.1011E+02
   -0.069996    4.49210  0.0000E+00  0.1970E-04  0.2335E-05  0.7289E-04  0.1262E-01  0.1212E+02
   -0.104994    4.54725  0.0000E+00  0.1643E-04  0.1135E-05  0.9594E-04  0.9934E-02  0.5769E+02
   -0.139993    4.58920  0.0000E+00  0.1420E-04  0.5750E-06  0.1226E-03  0.8019E-02  0.4269E+01
   -0.174992    4.62293  0.0000E+00  0.1261E-04  0.3199E-06  0.1528E-03  0.6548E-02  0.3273E+01
   -0.209991    4.65085  0.0000E+00  0.1147E-04  0.2013E-06  0.1826E-03  0.5377E-02  0.2122E+01
   -0.244990    4.67450  0.0000E+00  0.1061E-04  0.1400E-06  0.2143E-03  0.4419E-02  0.1899E+01
   -0.279990    4.69440  0.0000E+00  0.9946E-05  0.1042E-06  0.2818E-03  0.3617E-02  0.2132E+03
   -0.314990    4.70997  0.0000E+00  0.9387E-05  0.8083E-07  0.3303E-03  0.2937E-02  0.4167E+02
   -0.349990    4.72317  0.0000E+00  0.8957E-05  0.6506E-07  0.3799E-03  0.2401E-02  0.4478E+02
   -0.384990    4.73456  0.0000E+00  0.8647E-05  0.5408E-07  0.4269E-03  0.1970E-02  0.3659E+03
   -0.419991    4.74451  0.0000E+00  0.8443E-05  0.4638E-07  0.4743E-03  0.1616E-02  0.4543E+02
   -0.454991    4.75326  0.0000E+00  0.8324E-05  0.4093E-07  0.5091E-03  0.1307E-02  0.1491E+02
   -0.489992    4.76131  0.0000E+00  0.8277E-05  0.3707E-07  0.5375E-03  0.1030E-02  0.2129E+02
   -0.524993    4.76898  0.0000E+00  0.8292E-05  0.3415E-07  0.5849E-03  0.7810E-03  0.1463E+01
   -0.559993    4.77721  0.0000E+00  0.8368E-05  0.3186E-07  0.6556E-03  0.5924E-03  0.1063E+01
   -0.594994    4.78647  0.0000E+00  0.8484E-05  0.2991E-07  0.7777E-03  0.4671E-03  0.1022E+01
   -0.629995    4.79676  0.0000E+00  0.8583E-05  0.2862E-07  0.8293E-03  0.4002E-03  0.1317E+01
   -0.664996    4.80650  0.0000E+00  0.8673E-05  0.2779E-07  0.8499E-03  0.3503E-03  0.1312E+01
   -0.699997    4.81601  0.0000E+00  0.8761E-05  0.2728E-07  0.8741E-03  0.3064E-03  0.1353E+01
   -0.734998    4.82527  0.0000E+00  0.8845E-05  0.2704E-07  0.8915E-03  0.2691E-03  0.1380E+01
   -0.769999    4.83445  0.0000E+00  0.8922E-05  0.2701E-07  0.9022E-03  0.2376E-03  0.1487E+01
   -0.805000    4.84364  0.0000E+00  0.8991E-05  0.2717E-07  0.9057E-03  0.2113E-03  0.1569E+01
   -0.840001    4.85291  0.0000E+00  0.9052E-05  0.2749E-07  0.9030E-03  0.1892E-03  0.1783E+01
   -0.875002    4.86232  0.0000E+00  0.9104E-05  0.2797E-07  0.8946E-03  0.1704E-03  0.1950E+01
   -0.910003    4.87198  0.0000E+00  0.9146E-05  0.2860E-07  0.8815E-03  0.1544E-03  0.2369E+01
   -0.945004    4.88185  0.0000E+00  0.9180E-05  0.2939E-07  0.8642E-03  0.1403E-03  0.2687E+01
   -0.980004    4.89189  0.0000E+00  0.9205E-05  0.3039E-07  0.8412E-03  0.1275E-03  0.3307E+01
   -1.015005    4.90211  0.0000E+00  0.9221E-05  0.3165E-07  0.8129E-03  0.1157E-03  0.3960E+01
   -1.050005    4.91279  0.0000E+00  0.9228E-05  0.3331E-07  0.7756E-03  0.1048E-03  0.5521E+01
   -1.085005    4.92429  0.0000E+00  0.9220E-05  0.3553E-07  0.7355E-03  0.9461E-04  0.8058E+01
   -1.120005    4.93700  0.0000E+00  0.9195E-05  0.3859E-07  0.6818E-03  0.8477E-04  0.1531E+02
   -1.155004    4.95123  0.0000E+00  0.9148E-05  0.4284E-07  0.6336E-03  0.7574E-04  0.2338E+01
   -1.190004    4.96664  0.0000E+00  0.9075E-05  0.4921E-07  0.5813E-03  0.6703E-04 -0.1828E+05
   -1.225003    4.98519  0.0000E+00  0.8975E-05  0.6006E-07  0.5032E-03  0.5933E-04  0.3157E+05
   -1.260002    5.00643  0.0000E+00  0.8811E-05  0.8497E-07  0.3768E-03  0.4889E-04 -0.4656E+05
   -1.295001    5.05979  0.0000E+00  0.8413E-05  0.1416E-06  0.3569E-03  0.3881E-04  0.2223E+06
   -1.329999    5.10483  0.0000E+00  0.7417E-05  0.2890E-06  0.1548E-03  0.3059E-04  0.4242E+06
   -1.364997    5.41127  0.0000E+00  0.5198E-05  0.6901E-06  0.7535E-04  0.2101E-04 -0.2246E+07
   -1.399995    5.56170  0.0000E+00  0.0000E+00  0.0000E+00  0.0000E+00  0.2423E-04  0.0000E+00
