 1 - depth, m
 2 - temperature, C
 3 - salinity, kg/kg
 4 - turbulent kinetic energy, m**2/s**2
 5 - dissipation rate, m**2/s**3
 6 - kinematic heat conductance, m**2/s
 7 - modulus of horizontal velocity, m/s
 8 - Richardson number, n/d
   -0.000000    0.00822  0.0000E+00  0.5820E-03  0.1127E-02  0.8828E-04  0.3620E+00  0.2467E+00
   -0.035007    0.12709  0.0000E+00  0.3888E-03  0.4602E-03  0.2087E-03  0.1190E+00  0.7750E-01
   -0.070015    0.20580  0.0000E+00  0.2942E-03  0.2127E-03  0.2832E-03  0.7125E-01 -0.6307E-01
   -0.105022    0.24138  0.0000E+00  0.2476E-03  0.1435E-03  0.3080E-03  0.5619E-01  0.6719E-01
   -0.140031    0.26428  0.0000E+00  0.2163E-03  0.8305E-04  0.3221E-03  0.4809E-01  0.1380E+00
   -0.175039    0.28114  0.0000E+00  0.1937E-03  0.5443E-04  0.3368E-03  0.4237E-01  0.2835E-01
   -0.210048    0.29484  0.0000E+00  0.1759E-03  0.3632E-04  0.3487E-03  0.3791E-01  0.3658E+00
   -0.245056    0.30697  0.0000E+00  0.1614E-03  0.2511E-04  0.3600E-03  0.3408E-01  0.2088E+00
   -0.280066    0.31800  0.0000E+00  0.1487E-03  0.1776E-04  0.3600E-03  0.3055E-01  0.4343E-01
   -0.315075    0.32860  0.0000E+00  0.1368E-03  0.1277E-04  0.3745E-03  0.2676E-01  0.1035E+00
   -0.350084    0.33925  0.0000E+00  0.1265E-03  0.9364E-05  0.3779E-03  0.2393E-01  0.4492E+00
   -0.385094    0.35029  0.0000E+00  0.1172E-03  0.6994E-05  0.3797E-03  0.2154E-01  0.7728E+03
   -0.420104    0.36169  0.0000E+00  0.1088E-03  0.5273E-05  0.3719E-03  0.1946E-01  0.1342E+02
   -0.455114    0.37349  0.0000E+00  0.1010E-03  0.3987E-05  0.3606E-03  0.1735E-01  0.1820E+02
   -0.490124    0.38613  0.0000E+00  0.9335E-04  0.3104E-05  0.3470E-03  0.1519E-01  0.4351E+03
   -0.525134    0.40115  0.0000E+00  0.8540E-04  0.2511E-05  0.3450E-03  0.1313E-01  0.2384E+06
   -0.560145    0.42208  0.0000E+00  0.7732E-04  0.2042E-05  0.3349E-03  0.1161E-01  0.9427E+09
   -0.595155    0.45472  0.0000E+00  0.6841E-04  0.1645E-05  0.3001E-03  0.1056E-01  0.1409E+05
   -0.630165    0.49613  0.0000E+00  0.6018E-04  0.1332E-05  0.2639E-03  0.9990E-02  0.2411E+06
   -0.665176    0.54190  0.0000E+00  0.5280E-04  0.1090E-05  0.2297E-03  0.9307E-02  0.2844E+06
   -0.700186    0.59883  0.0000E+00  0.4617E-04  0.8992E-06  0.1966E-03  0.8557E-02  0.1350E+06
   -0.735197    0.67602  0.0000E+00  0.4011E-04  0.7444E-06  0.1659E-03  0.7768E-02  0.1065E+07
   -0.770207    0.79694  0.0000E+00  0.3456E-04  0.6149E-06  0.1378E-03  0.6949E-02  0.3275E+08
   -0.805218    1.04250  0.0000E+00  0.2956E-04  0.5044E-06  0.1228E-03  0.6049E-02  0.1707E+09
   -0.840228    1.44944  0.0000E+00  0.2531E-04  0.4129E-06  0.1300E-03  0.5106E-02  0.3450E+11
   -0.875238    1.91802  0.0000E+00  0.2186E-04  0.3389E-06  0.1500E-03  0.4229E-02 -0.6558E+07
   -0.910249    2.40432  0.0000E+00  0.1918E-04  0.2821E-06  0.1789E-03  0.3504E-02  0.6722E+09
   -0.945259    2.84892  0.0000E+00  0.1710E-04  0.2382E-06  0.2042E-03  0.2882E-02  0.4244E+09
   -0.980269    3.19820  0.0000E+00  0.1558E-04  0.2056E-06  0.2245E-03  0.2338E-02  0.1260E+10
   -1.015279    3.44710  0.0000E+00  0.1442E-04  0.1811E-06  0.2432E-03  0.1918E-02  0.7219E+09
   -1.050288    3.60736  0.0000E+00  0.1350E-04  0.1627E-06  0.2557E-03  0.1615E-02  0.8786E+10
   -1.085298    3.71158  0.0000E+00  0.1271E-04  0.1483E-06  0.2618E-03  0.1380E-02  0.1108E+12
   -1.120307    3.81251  0.0000E+00  0.1201E-04  0.1373E-06  0.2658E-03  0.1172E-02  0.2046E+12
   -1.155316    3.91116  0.0000E+00  0.1147E-04  0.1314E-06  0.2653E-03  0.9995E-03  0.2674E+12
   -1.190325    3.99133  0.0000E+00  0.1102E-04  0.1301E-06  0.2569E-03  0.8502E-03  0.1948E+12
   -1.225334    4.06641  0.0000E+00  0.1061E-04  0.1359E-06  0.2423E-03  0.7141E-03  0.8867E+12
   -1.260342    4.14685  0.0000E+00  0.1015E-04  0.1603E-06  0.2097E-03  0.5909E-03  0.2677E+13
   -1.295350    4.24078  0.0000E+00  0.9264E-05  0.3106E-06  0.1648E-03  0.4792E-03 -0.3416E+13
   -1.330358    4.42019  0.0000E+00  0.7968E-05  0.4797E-06  0.1050E-03  0.3834E-03 -0.1467E+14
   -1.365366    4.62528  0.0000E+00  0.5204E-05  0.9290E-06  0.3245E-04  0.3133E-03 -0.1513E+15
   -1.400373    5.05350  0.0000E+00  0.0000E+00  0.0000E+00  0.0000E+00  0.3600E-03  0.0000E+00
