 1 - depth, m
 2 - temperature, C
 3 - salinity, kg/kg
 4 - turbulent kinetic energy, m**2/s**2
 5 - dissipation rate, m**2/s**3
 6 - kinematic heat conductance, m**2/s
 7 - modulus of horizontal velocity, m/s
 8 - Richardson number, n/d
   -0.000000   -0.00055  0.0000E+00  0.2257E-03  0.2513E-03  0.6456E-04  0.1866E+00  0.3224E+00
   -0.035006    0.12076  0.0000E+00  0.1405E-03  0.1072E-03  0.1138E-03  0.6483E-01  0.5179E-01
   -0.070012    0.18816  0.0000E+00  0.1025E-03  0.4101E-04  0.1263E-03  0.4301E-01 -0.2635E+00
   -0.105019    0.23352  0.0000E+00  0.8269E-04  0.2293E-04  0.1286E-03  0.3467E-01  0.2727E+00
   -0.140026    0.26946  0.0000E+00  0.6946E-04  0.1403E-04  0.1312E-03  0.2922E-01  0.4029E+00
   -0.175033    0.30125  0.0000E+00  0.5963E-04  0.8784E-05  0.1333E-03  0.2505E-01  0.8589E-01
   -0.210041    0.33108  0.0000E+00  0.5196E-04  0.5563E-05  0.1336E-03  0.2164E-01  0.1060E+00
   -0.245049    0.36035  0.0000E+00  0.4579E-04  0.3598E-05  0.1314E-03  0.1865E-01  0.1562E+00
   -0.280057    0.39000  0.0000E+00  0.4040E-04  0.2368E-05  0.1234E-03  0.1592E-01  0.1278E+00
   -0.315065    0.42207  0.0000E+00  0.3486E-04  0.1562E-05  0.1183E-03  0.1317E-01  0.5293E+00
   -0.350073    0.46006  0.0000E+00  0.2981E-04  0.1041E-05  0.1083E-03  0.1101E-01  0.8169E+01
   -0.385082    0.52121  0.0000E+00  0.2534E-04  0.7113E-06  0.9668E-04  0.9148E-02  0.3565E+03
   -0.420091    0.72337  0.0000E+00  0.2173E-04  0.5068E-06  0.8450E-04  0.7416E-02  0.2099E+04
   -0.455100    1.04486  0.0000E+00  0.1871E-04  0.3785E-06  0.9605E-04  0.5753E-02  0.2688E+05
   -0.490109    1.36687  0.0000E+00  0.1604E-04  0.2918E-06  0.1049E-03  0.4190E-02  0.1186E+07
   -0.525118    1.63989  0.0000E+00  0.1340E-04  0.2232E-06  0.1138E-03  0.2908E-02  0.4832E+09
   -0.560127    1.85834  0.0000E+00  0.1095E-04  0.1654E-06  0.1243E-03  0.2037E-02  0.1909E+12
   -0.595136    2.38410  0.0000E+00  0.8510E-05  0.1114E-06  0.1743E-03  0.1437E-02  0.1575E+13
   -0.630146    3.11738  0.0000E+00  0.6661E-05  0.7192E-07  0.2457E-03  0.1095E-02  0.2747E+12
   -0.665155    3.59348  0.0000E+00  0.5549E-05  0.4588E-07  0.2941E-03  0.7770E-03  0.1107E+11
   -0.700164    3.97630  0.0000E+00  0.5054E-05  0.3223E-07  0.3446E-03  0.5018E-03  0.6237E+12
   -0.735174    4.19441  0.0000E+00  0.4833E-05  0.2462E-07  0.3844E-03  0.3283E-03  0.1396E+13
   -0.770183    4.32713  0.0000E+00  0.4781E-05  0.2067E-07  0.4157E-03  0.2144E-03  0.1348E+12
   -0.805192    4.38750  0.0000E+00  0.4819E-05  0.1876E-07  0.4401E-03  0.1508E-03  0.2142E+12
   -0.840202    4.42105  0.0000E+00  0.4891E-05  0.1785E-07  0.4582E-03  0.1144E-03 -0.4725E+10
   -0.875211    4.44643  0.0000E+00  0.4977E-05  0.1744E-07  0.4726E-03  0.8923E-04 -0.9407E+11
   -0.910220    4.46870  0.0000E+00  0.5070E-05  0.1736E-07  0.4823E-03  0.7127E-04 -0.1131E+12
   -0.945229    4.48947  0.0000E+00  0.5164E-05  0.1751E-07  0.4877E-03  0.5789E-04 -0.2707E+11
   -0.980238    4.50927  0.0000E+00  0.5257E-05  0.1786E-07  0.4893E-03  0.4763E-04  0.1962E+12
   -1.015247    4.52857  0.0000E+00  0.5349E-05  0.1843E-07  0.4862E-03  0.3944E-04 -0.7574E+12
   -1.050255    4.54803  0.0000E+00  0.5440E-05  0.1922E-07  0.4776E-03  0.3303E-04 -0.7712E+12
   -1.085264    4.56815  0.0000E+00  0.5527E-05  0.2032E-07  0.4655E-03  0.2779E-04 -0.3685E+12
   -1.120272    4.58955  0.0000E+00  0.5607E-05  0.2178E-07  0.4467E-03  0.2342E-04 -0.1287E+13
   -1.155280    4.61180  0.0000E+00  0.5678E-05  0.2373E-07  0.4250E-03  0.1954E-04 -0.2150E+13
   -1.190288    4.63509  0.0000E+00  0.5741E-05  0.2646E-07  0.3915E-03  0.1607E-04 -0.6495E+13
   -1.225295    4.65960  0.0000E+00  0.5803E-05  0.3078E-07  0.3572E-03  0.1311E-04 -0.3317E+13
   -1.260302    4.68719  0.0000E+00  0.5860E-05  0.4200E-07  0.2801E-03  0.1037E-04 -0.6239E+14
   -1.295309    4.72970  0.0000E+00  0.5828E-05  0.6315E-07  0.2368E-03  0.7938E-05  0.2020E+14
   -1.330316    4.80374  0.0000E+00  0.5447E-05  0.1140E-06  0.1229E-03  0.6004E-05 -0.2558E+15
   -1.365323    4.98901  0.0000E+00  0.3853E-05  0.2699E-06  0.4291E-04  0.4174E-05  0.1055E+14
   -1.400329    5.31760  0.0000E+00  0.0000E+00  0.0000E+00  0.0000E+00  0.4317E-05  0.0000E+00
