 1 - depth, m
 2 - temperature, C
 3 - salinity, kg/kg
 4 - turbulent kinetic energy, m**2/s**2
 5 - dissipation rate, m**2/s**3
 6 - kinematic heat conductance, m**2/s
 7 - modulus of horizontal velocity, m/s
 8 - Richardson number, n/d
   -0.000000    8.51884  0.0000E+00  0.3525E-03  0.1396E-02  0.6202E-04  0.1983E+00  0.5194E-01
   -0.034998    8.85210  0.0000E+00  0.1807E-03  0.6843E-03  0.1095E-03  0.6313E-01  0.3043E+00
   -0.069996    8.96324  0.0000E+00  0.1215E-03  0.2955E-03  0.1586E-03  0.3620E-01  0.2218E+01
   -0.104994    9.01118  0.0000E+00  0.9603E-04  0.1931E-03  0.1739E-03  0.2766E-01  0.1733E+01
   -0.139993    9.03931  0.0000E+00  0.7946E-04  0.1276E-03  0.1951E-03  0.2247E-01  0.5013E+01
   -0.174992    9.05897  0.0000E+00  0.6789E-04  0.8277E-04  0.2299E-03  0.1902E-01  0.2569E+02
   -0.209991    9.07442  0.0000E+00  0.5956E-04  0.5225E-04  0.2714E-03  0.1630E-01  0.8765E+02
   -0.244990    9.08708  0.0000E+00  0.5327E-04  0.3196E-04  0.3155E-03  0.1405E-01  0.1444E+04
   -0.279990    9.09709  0.0000E+00  0.4834E-04  0.1915E-04  0.3556E-03  0.1211E-01  0.6561E+03
   -0.314990    9.10729  0.0000E+00  0.4424E-04  0.1145E-04  0.4169E-03  0.1019E-01  0.4592E+03
   -0.349990    9.11468  0.0000E+00  0.4108E-04  0.6842E-05  0.4695E-03  0.8809E-02  0.3013E+03
   -0.384990    9.12128  0.0000E+00  0.3860E-04  0.4205E-05  0.5224E-03  0.7655E-02  0.1075E+03
   -0.419990    9.12736  0.0000E+00  0.3665E-04  0.2636E-05  0.5776E-03  0.6658E-02  0.9219E+02
   -0.454991    9.13270  0.0000E+00  0.3517E-04  0.1719E-05  0.6275E-03  0.5712E-02  0.8017E+02
   -0.489992    9.13811  0.0000E+00  0.3403E-04  0.1236E-05  0.6641E-03  0.4800E-02  0.5036E+02
   -0.524992    9.14243  0.0000E+00  0.3302E-04  0.9252E-06  0.7082E-03  0.3942E-02  0.1968E+03
   -0.559993    9.14854  0.0000E+00  0.3202E-04  0.6711E-06  0.7563E-03  0.3260E-02  0.2867E+03
   -0.594994    9.15418  0.0000E+00  0.3089E-04  0.4876E-06  0.8717E-03  0.2748E-02  0.1614E+02
   -0.629995    9.16233  0.0000E+00  0.2984E-04  0.3721E-06  0.9569E-03  0.2475E-02 -0.4306E+02
   -0.664996    9.16837  0.0000E+00  0.2895E-04  0.2993E-06  0.9723E-03  0.2214E-02 -0.8710E+02
   -0.699997    9.17555  0.0000E+00  0.2814E-04  0.2519E-06  0.1015E-02  0.1966E-02 -0.1551E+03
   -0.734998    9.18152  0.0000E+00  0.2743E-04  0.2235E-06  0.1014E-02  0.1748E-02  0.5647E+03
   -0.769999    9.18817  0.0000E+00  0.2670E-04  0.2027E-06  0.1033E-02  0.1529E-02  0.9474E+01
   -0.805000    9.19465  0.0000E+00  0.2602E-04  0.1896E-06  0.1027E-02  0.1344E-02  0.4552E+01
   -0.840001    9.20132  0.0000E+00  0.2532E-04  0.1804E-06  0.1012E-02  0.1170E-02 -0.1045E+01
   -0.875002    9.20818  0.0000E+00  0.2461E-04  0.1752E-06  0.9890E-03  0.1015E-02  0.9441E+01
   -0.910003    9.21546  0.0000E+00  0.2402E-04  0.1750E-06  0.1076E-02  0.8766E-03  0.2443E+02
   -0.945003    9.22244  0.0000E+00  0.2349E-04  0.1801E-06  0.9766E-03  0.7926E-03  0.4853E+02
   -0.980004    9.23042  0.0000E+00  0.2288E-04  0.1918E-06  0.9012E-03  0.7140E-03  0.3450E+02
   -1.015004    9.23966  0.0000E+00  0.2213E-04  0.2098E-06  0.8656E-03  0.6117E-03 -0.1115E+04
   -1.050004    9.25007  0.0000E+00  0.2135E-04  0.2416E-06  0.8136E-03  0.5276E-03  0.1942E+05
   -1.085004    9.26211  0.0000E+00  0.2048E-04  0.2937E-06  0.7724E-03  0.4556E-03  0.1780E+03
   -1.120004    9.28267  0.0000E+00  0.1952E-04  0.3709E-06  0.7271E-03  0.3910E-03  0.4351E+05
   -1.155004    9.29717  0.0000E+00  0.1850E-04  0.5135E-06  0.6591E-03  0.3332E-03  0.1574E+06
   -1.190003    9.33369  0.0000E+00  0.1739E-04  0.7429E-06  0.5929E-03  0.2694E-03  0.7249E+05
   -1.225002    9.35381  0.0000E+00  0.1644E-04  0.1145E-05  0.5279E-03  0.2068E-03 -0.2512E+07
   -1.260001    9.41842  0.0000E+00  0.1532E-04  0.2926E-05  0.4662E-03  0.1536E-03  0.2082E+09
   -1.295000    9.62732  0.0000E+00  0.1418E-04  0.4569E-05  0.4563E-03  0.1077E-03  0.3961E+08
   -1.329998    9.47836  0.0000E+00  0.1217E-04  0.1234E-04  0.2581E-03  0.9235E-04 -0.2391E+10
   -1.364996   10.16336  0.0000E+00  0.9686E-05  0.1862E-04  0.3106E-03  0.5515E-04  0.3939E+06
   -1.399994    9.86780  0.0000E+00  0.0000E+00  0.0000E+00  0.0000E+00  0.1138E-03  0.0000E+00
