 1 - depth, m
 2 - temperature, C
 3 - salinity, kg/kg
 4 - turbulent kinetic energy, m**2/s**2
 5 - dissipation rate, m**2/s**3
 6 - kinematic heat conductance, m**2/s
 7 - modulus of horizontal velocity, m/s
 8 - Richardson number, n/d
   -0.000000    0.00497  0.0000E+00  0.5113E-03  0.1331E-02  0.8565E-04  0.3640E+00  0.7773E+00
   -0.035015    0.16608  0.0000E+00  0.3266E-03  0.6384E-03  0.1823E-03  0.1207E+00  0.4956E-01
   -0.070031    0.28694  0.0000E+00  0.2324E-03  0.1894E-03  0.2335E-03  0.6809E-01  0.5391E-01
   -0.105047    0.33676  0.0000E+00  0.1881E-03  0.1052E-03  0.2402E-03  0.5067E-01  0.3331E-01
   -0.140063    0.36824  0.0000E+00  0.1604E-03  0.6676E-04  0.2468E-03  0.4128E-01  0.8713E-01
   -0.175079    0.39099  0.0000E+00  0.1406E-03  0.4363E-04  0.2521E-03  0.3534E-01  0.6001E-01
   -0.210096    0.40975  0.0000E+00  0.1253E-03  0.2874E-04  0.2571E-03  0.3109E-01 -0.1190E+00
   -0.245113    0.42690  0.0000E+00  0.1130E-03  0.1906E-04  0.2587E-03  0.2752E-01  0.5519E-01
   -0.280130    0.44359  0.0000E+00  0.1024E-03  0.1282E-04  0.2551E-03  0.2421E-01  0.4278E-01
   -0.315147    0.46127  0.0000E+00  0.9260E-04  0.8765E-05  0.2601E-03  0.2058E-01  0.4670E+00
   -0.350165    0.47907  0.0000E+00  0.8414E-04  0.6105E-05  0.2589E-03  0.1801E-01  0.6859E+01
   -0.385182    0.49737  0.0000E+00  0.7667E-04  0.4339E-05  0.2555E-03  0.1590E-01  0.7189E+03
   -0.420200    0.51563  0.0000E+00  0.7017E-04  0.3163E-05  0.2459E-03  0.1410E-01  0.1234E+04
   -0.455218    0.53574  0.0000E+00  0.6413E-04  0.2369E-05  0.2318E-03  0.1231E-01  0.2594E+05
   -0.490236    0.56008  0.0000E+00  0.5833E-04  0.1832E-05  0.2167E-03  0.1045E-01  0.1939E+07
   -0.525255    0.59589  0.0000E+00  0.5219E-04  0.1432E-05  0.2085E-03  0.8693E-02  0.7357E+09
   -0.560273    0.64439  0.0000E+00  0.4599E-04  0.1134E-05  0.1913E-03  0.7432E-02  0.1651E+13
   -0.595291    0.72408  0.0000E+00  0.3925E-04  0.8797E-06  0.1576E-03  0.6583E-02  0.9038E+12
   -0.630310    0.82626  0.0000E+00  0.3302E-04  0.6787E-06  0.1330E-03  0.6160E-02  0.2779E+14
   -0.665328    0.98971  0.0000E+00  0.2759E-04  0.5291E-06  0.1190E-03  0.5601E-02  0.2797E+11
   -0.700347    1.20227  0.0000E+00  0.2287E-04  0.4133E-06  0.1137E-03  0.5000E-02  0.3212E+12
   -0.735365    1.47165  0.0000E+00  0.1870E-04  0.3189E-06  0.1211E-03  0.4341E-02 -0.1954E+11
   -0.770384    1.82485  0.0000E+00  0.1514E-04  0.2417E-06  0.1323E-03  0.3632E-02  0.2622E+11
   -0.805402    2.26224  0.0000E+00  0.1224E-04  0.1796E-06  0.1593E-03  0.2920E-02  0.1028E+12
   -0.840421    2.74821  0.0000E+00  0.1004E-04  0.1322E-06  0.1928E-03  0.2250E-02 -0.1098E+12
   -0.875439    3.17960  0.0000E+00  0.8496E-05  0.9862E-07  0.2268E-03  0.1689E-02  0.5573E+11
   -0.910457    3.54142  0.0000E+00  0.7398E-05  0.7499E-07  0.2576E-03  0.1294E-02  0.5003E+11
   -0.945475    3.81569  0.0000E+00  0.6652E-05  0.5867E-07  0.2824E-03  0.9614E-03  0.1769E+12
   -0.980493    4.00906  0.0000E+00  0.6150E-05  0.4775E-07  0.3029E-03  0.7007E-03  0.2249E+11
   -1.015511    4.14974  0.0000E+00  0.5787E-05  0.3971E-07  0.3158E-03  0.4864E-03  0.8270E+11
   -1.050529    4.26063  0.0000E+00  0.5614E-05  0.3522E-07  0.3269E-03  0.3385E-03  0.1500E+11
   -1.085547    4.32784  0.0000E+00  0.5534E-05  0.3284E-07  0.3312E-03  0.2508E-03  0.3951E+11
   -1.120564    4.38190  0.0000E+00  0.5496E-05  0.3184E-07  0.3287E-03  0.1920E-03  0.6984E+12
   -1.155581    4.42853  0.0000E+00  0.5483E-05  0.3201E-07  0.3214E-03  0.1457E-03  0.5026E+11
   -1.190598    4.47253  0.0000E+00  0.5491E-05  0.3364E-07  0.3020E-03  0.1083E-03  0.1043E+12
   -1.225615    4.51679  0.0000E+00  0.5516E-05  0.3767E-07  0.2815E-03  0.7780E-04  0.1059E+13
   -1.260631    4.56555  0.0000E+00  0.5551E-05  0.4696E-07  0.2293E-03  0.5412E-04  0.1062E+12
   -1.295647    4.62784  0.0000E+00  0.5509E-05  0.6953E-07  0.1958E-03  0.3684E-04  0.1808E+13
   -1.330663    4.73736  0.0000E+00  0.5127E-05  0.1279E-06  0.1108E-03  0.2679E-04  0.7393E+13
   -1.365679    4.94881  0.0000E+00  0.3687E-05  0.2956E-06  0.3898E-04  0.1646E-04 -0.9701E+14
   -1.400694    5.32631  0.0000E+00  0.0000E+00  0.0000E+00  0.0000E+00  0.2157E-04  0.0000E+00
