 1 - depth, m
 2 - temperature, C
 3 - salinity, kg/kg
 4 - turbulent kinetic energy, m**2/s**2
 5 - dissipation rate, m**2/s**3
 6 - kinematic heat conductance, m**2/s
 7 - modulus of horizontal velocity, m/s
 8 - Richardson number, n/d
   -0.000000   16.29414  0.0000E+00  0.4139E-03  0.7562E-03  0.8399E-04  0.2530E+00  0.4446E+00
   -0.034998   16.51036  0.0000E+00  0.2325E-03  0.2863E-03  0.1296E-03  0.7957E-01  0.2006E+00
   -0.069996   16.58975  0.0000E+00  0.1605E-03  0.1037E-03  0.1866E-03  0.4714E-01  0.1994E+01
   -0.104994   16.62088  0.0000E+00  0.1299E-03  0.6126E-04  0.2095E-03  0.3669E-01  0.6163E+00
   -0.139993   16.63724  0.0000E+00  0.1093E-03  0.3287E-04  0.2249E-03  0.3031E-01  0.9258E+01
   -0.174992   16.64852  0.0000E+00  0.9437E-04  0.1925E-04  0.2501E-03  0.2564E-01  0.5516E+02
   -0.209991   16.65774  0.0000E+00  0.8343E-04  0.1212E-04  0.2788E-03  0.2209E-01  0.7214E+01
   -0.244991   16.66462  0.0000E+00  0.7504E-04  0.7730E-05  0.3148E-03  0.1926E-01  0.2312E+02
   -0.279991   16.67019  0.0000E+00  0.6858E-04  0.5031E-05  0.3622E-03  0.1681E-01  0.2559E+02
   -0.314991   16.67665  0.0000E+00  0.6308E-04  0.3410E-05  0.4390E-03  0.1440E-01  0.1080E+03
   -0.349991   16.68110  0.0000E+00  0.5862E-04  0.2377E-05  0.5214E-03  0.1261E-01  0.2663E+03
   -0.384991   16.68496  0.0000E+00  0.5500E-04  0.1688E-05  0.6259E-03  0.1111E-01  0.4571E+03
   -0.419992   16.68829  0.0000E+00  0.5211E-04  0.1278E-05  0.7137E-03  0.9785E-02  0.4113E+03
   -0.454992   16.69120  0.0000E+00  0.4978E-04  0.1016E-05  0.7638E-03  0.8515E-02  0.4621E+03
   -0.489993   16.69391  0.0000E+00  0.4781E-04  0.8413E-06  0.8036E-03  0.7298E-02  0.5316E+03
   -0.524994   16.69642  0.0000E+00  0.4582E-04  0.7127E-06  0.8214E-03  0.6139E-02  0.1485E+03
   -0.559995   16.69933  0.0000E+00  0.4366E-04  0.6033E-06  0.8808E-03  0.5131E-02 -0.1791E+03
   -0.594996   16.70253  0.0000E+00  0.4130E-04  0.5024E-06  0.9715E-03  0.4377E-02  0.1116E+02
   -0.629997   16.70630  0.0000E+00  0.3924E-04  0.4263E-06  0.9807E-03  0.3946E-02  0.2900E+03
   -0.664998   16.70987  0.0000E+00  0.3746E-04  0.3682E-06  0.1034E-02  0.3513E-02 -0.7258E+01
   -0.699999   16.71338  0.0000E+00  0.3599E-04  0.3251E-06  0.1033E-02  0.3140E-02  0.2847E+01
   -0.735001   16.71677  0.0000E+00  0.3460E-04  0.2895E-06  0.9968E-03  0.2770E-02  0.3295E+01
   -0.770002   16.72038  0.0000E+00  0.3318E-04  0.2586E-06  0.1010E-02  0.2389E-02  0.3553E+01
   -0.805003   16.72386  0.0000E+00  0.3194E-04  0.2369E-06  0.1088E-02  0.2056E-02  0.3116E+01
   -0.840004   16.72728  0.0000E+00  0.3083E-04  0.2219E-06  0.1073E-02  0.1789E-02  0.4908E+01
   -0.875005   16.73066  0.0000E+00  0.2973E-04  0.2121E-06  0.9686E-03  0.1565E-02 -0.7918E+01
   -0.910006   16.73451  0.0000E+00  0.2850E-04  0.2069E-06  0.9291E-03  0.1327E-02  0.4981E+01
   -0.945006   16.73848  0.0000E+00  0.2736E-04  0.2077E-06  0.9006E-03  0.1128E-02  0.3157E+01
   -0.980007   16.74270  0.0000E+00  0.2629E-04  0.2154E-06  0.8685E-03  0.9572E-03  0.2105E+02
   -1.015008   16.74720  0.0000E+00  0.2527E-04  0.2323E-06  0.8445E-03  0.8140E-03  0.9057E+01
   -1.050008   16.75238  0.0000E+00  0.2425E-04  0.2647E-06  0.8185E-03  0.6970E-03  0.4802E+03
   -1.085008   16.75864  0.0000E+00  0.2314E-04  0.3281E-06  0.7774E-03  0.5990E-03  0.7421E+03
   -1.120008   16.76782  0.0000E+00  0.2191E-04  0.4365E-06  0.7488E-03  0.5121E-03  0.4342E+03
   -1.155008   16.77805  0.0000E+00  0.2065E-04  0.6179E-06  0.6771E-03  0.4328E-03  0.2394E+06
   -1.190007   16.79351  0.0000E+00  0.1937E-04  0.9233E-06  0.6359E-03  0.3477E-03  0.9723E+05
   -1.225007   16.80883  0.0000E+00  0.1830E-04  0.1453E-05  0.5468E-03  0.2695E-03  0.1188E+06
   -1.260006   16.83564  0.0000E+00  0.1698E-04  0.3373E-05  0.4949E-03  0.2011E-03  0.1527E+08
   -1.295004   16.95222  0.0000E+00  0.1567E-04  0.5421E-05  0.4748E-03  0.1431E-03  0.5291E+07
   -1.330003   16.87121  0.0000E+00  0.1344E-04  0.1459E-04  0.2794E-03  0.1243E-03 -0.3151E+09
   -1.365001   17.22508  0.0000E+00  0.1070E-04  0.2212E-04  0.3351E-03  0.7399E-04  0.3992E+07
   -1.399999   17.06183  0.0000E+00  0.0000E+00  0.0000E+00  0.0000E+00  0.1597E-03  0.0000E+00
