 1 - depth, m
 2 - temperature, C
 3 - salinity, kg/kg
 4 - turbulent kinetic energy, m**2/s**2
 5 - dissipation rate, m**2/s**3
 6 - kinematic heat conductance, m**2/s
 7 - modulus of horizontal velocity, m/s
 8 - Richardson number, n/d
   -0.000000   14.46547  0.0000E+00  0.1163E-02  0.2066E-01  0.1181E-03  0.4628E+00 -0.1782E-01
   -0.034998   14.84563  0.0000E+00  0.7498E-03  0.5151E-02  0.2064E-03  0.1419E+00 -0.2956E-01
   -0.069996   15.01004  0.0000E+00  0.5111E-03  0.1541E-02  0.3432E-03  0.7834E-01 -0.8164E+00
   -0.104994   15.07506  0.0000E+00  0.3603E-03  0.9787E-03  0.3340E-03  0.5748E-01  0.8776E+00
   -0.139992   15.10639  0.0000E+00  0.3003E-03  0.6753E-03  0.3474E-03  0.4500E-01  0.2480E+01
   -0.174991   15.12417  0.0000E+00  0.2565E-03  0.4811E-03  0.3589E-03  0.3746E-01  0.3870E+01
   -0.209990   15.13866  0.0000E+00  0.2232E-03  0.3424E-03  0.3945E-03  0.3229E-01  0.6737E+01
   -0.244989   15.14803  0.0000E+00  0.1945E-03  0.2443E-03  0.4163E-03  0.2832E-01  0.1563E+02
   -0.279989   15.15523  0.0000E+00  0.1715E-03  0.1731E-03  0.4332E-03  0.2479E-01  0.2860E+02
   -0.314989   15.16532  0.0000E+00  0.1551E-03  0.1221E-03  0.5150E-03  0.2092E-01  0.7881E+02
   -0.349989   15.17117  0.0000E+00  0.1399E-03  0.8522E-04  0.5669E-03  0.1849E-01  0.3917E+03
   -0.384989   15.17618  0.0000E+00  0.1274E-03  0.5842E-04  0.6345E-03  0.1660E-01  0.1492E+03
   -0.419989   15.18141  0.0000E+00  0.1165E-03  0.4034E-04  0.7202E-03  0.1500E-01  0.2465E+03
   -0.454990   15.18510  0.0000E+00  0.1073E-03  0.2821E-04  0.7895E-03  0.1336E-01  0.2257E+03
   -0.489990   15.19101  0.0000E+00  0.9957E-04  0.2089E-04  0.8608E-03  0.1164E-01  0.1925E+03
   -0.524991   15.19480  0.0000E+00  0.9342E-04  0.1609E-04  0.9137E-03  0.1004E-01  0.1199E+03
   -0.559991   15.19978  0.0000E+00  0.8758E-04  0.1241E-04  0.1016E-02  0.8820E-02  0.9287E+02
   -0.594992   15.20415  0.0000E+00  0.8075E-04  0.9191E-05  0.1075E-02  0.7906E-02  0.5114E+02
   -0.629993   15.20833  0.0000E+00  0.7431E-04  0.6720E-05  0.1108E-02  0.7440E-02  0.6691E+02
   -0.664994   15.21345  0.0000E+00  0.6878E-04  0.4913E-05  0.1120E-02  0.6820E-02  0.3639E+03
   -0.699995   15.21891  0.0000E+00  0.6394E-04  0.3632E-05  0.1146E-02  0.6221E-02  0.5461E+02
   -0.734996   15.22331  0.0000E+00  0.5950E-04  0.2821E-05  0.1133E-02  0.5650E-02  0.8476E+03
   -0.769997   15.22910  0.0000E+00  0.5596E-04  0.2216E-05  0.1157E-02  0.5089E-02  0.5224E+02
   -0.804998   15.23426  0.0000E+00  0.5289E-04  0.1760E-05  0.1163E-02  0.4575E-02  0.1534E+02
   -0.839998   15.23995  0.0000E+00  0.4984E-04  0.1391E-05  0.1128E-02  0.4103E-02  0.5766E+03
   -0.874999   15.24538  0.0000E+00  0.4693E-04  0.1088E-05  0.1120E-02  0.3624E-02  0.4608E+02
   -0.910000   15.25062  0.0000E+00  0.4413E-04  0.8833E-06  0.1080E-02  0.3220E-02  0.1943E+03
   -0.945000   15.25654  0.0000E+00  0.4164E-04  0.7518E-06  0.1039E-02  0.2830E-02  0.1240E+02
   -0.980001   15.26219  0.0000E+00  0.3933E-04  0.6565E-06  0.9912E-03  0.2478E-02  0.6864E+02
   -1.015001   15.26827  0.0000E+00  0.3713E-04  0.5870E-06  0.9525E-03  0.2154E-02  0.2391E+03
   -1.050001   15.27502  0.0000E+00  0.3491E-04  0.5473E-06  0.8906E-03  0.1859E-02  0.9154E+04
   -1.085001   15.28290  0.0000E+00  0.3269E-04  0.5573E-06  0.8225E-03  0.1596E-02  0.5317E+02
   -1.120001   15.29301  0.0000E+00  0.3044E-04  0.6338E-06  0.7639E-03  0.1367E-02  0.5121E+04
   -1.155000   15.30525  0.0000E+00  0.2817E-04  0.8196E-06  0.7164E-03  0.1154E-02  0.1958E+05
   -1.190000   15.32192  0.0000E+00  0.2588E-04  0.1184E-05  0.6351E-03  0.9346E-03  0.2482E+06
   -1.224999   15.34419  0.0000E+00  0.2377E-04  0.1894E-05  0.5810E-03  0.7108E-03  0.1393E+07
   -1.259998   15.36866  0.0000E+00  0.2163E-04  0.4075E-05  0.4977E-03  0.5107E-03 -0.9475E+08
   -1.294996   15.51579  0.0000E+00  0.1937E-04  0.7710E-05  0.4823E-03  0.3514E-03  0.1546E+08
   -1.329994   15.42638  0.0000E+00  0.1633E-04  0.2195E-04  0.2733E-03  0.2927E-03 -0.1839E+09
   -1.364992   15.84308  0.0000E+00  0.1305E-04  0.3238E-04  0.3506E-03  0.1835E-03 -0.9495E+07
   -1.399990   15.65078  0.0000E+00  0.0000E+00  0.0000E+00  0.0000E+00  0.3816E-03  0.0000E+00
