 1 - depth, m
 2 - temperature, C
 3 - salinity, kg/kg
 4 - turbulent kinetic energy, m**2/s**2
 5 - dissipation rate, m**2/s**3
 6 - kinematic heat conductance, m**2/s
 7 - modulus of horizontal velocity, m/s
 8 - Richardson number, n/d
   -0.000000   -0.00043  0.0000E+00  0.8699E-03  0.1905E-02  0.1062E-03  0.4651E+00  0.2470E-01
   -0.035006    0.10024  0.0000E+00  0.6263E-03  0.8357E-03  0.3123E-03  0.1590E+00  0.7322E-01
   -0.070012    0.17216  0.0000E+00  0.4879E-03  0.3129E-03  0.4040E-03  0.9508E-01  0.2323E-01
   -0.105018    0.20226  0.0000E+00  0.4146E-03  0.1956E-03  0.4551E-03  0.7445E-01  0.1228E+00
   -0.140025    0.22021  0.0000E+00  0.3658E-03  0.1315E-03  0.4861E-03  0.6384E-01  0.6295E-01
   -0.175032    0.23258  0.0000E+00  0.3312E-03  0.9078E-04  0.5024E-03  0.5708E-01  0.1588E+00
   -0.210039    0.24307  0.0000E+00  0.3027E-03  0.6340E-04  0.5283E-03  0.5139E-01 -0.1552E-01
   -0.245046    0.25138  0.0000E+00  0.2794E-03  0.4495E-04  0.5408E-03  0.4697E-01  0.4293E-01
   -0.280054    0.25924  0.0000E+00  0.2598E-03  0.3241E-04  0.5467E-03  0.4293E-01  0.1946E-01
   -0.315062    0.26717  0.0000E+00  0.2411E-03  0.2360E-04  0.5679E-03  0.3831E-01  0.5626E-01
   -0.350070    0.27476  0.0000E+00  0.2254E-03  0.1760E-04  0.5800E-03  0.3503E-01  0.1746E+00
   -0.385078    0.28247  0.0000E+00  0.2116E-03  0.1342E-04  0.5894E-03  0.3221E-01  0.6307E+02
   -0.420087    0.29029  0.0000E+00  0.1992E-03  0.1050E-04  0.5860E-03  0.2974E-01  0.8385E+00
   -0.455095    0.29872  0.0000E+00  0.1876E-03  0.8448E-05  0.5772E-03  0.2723E-01  0.1736E+01
   -0.490104    0.30806  0.0000E+00  0.1767E-03  0.7012E-05  0.5700E-03  0.2462E-01  0.7877E+02
   -0.525113    0.32043  0.0000E+00  0.1653E-03  0.5918E-05  0.5810E-03  0.2210E-01  0.2872E+05
   -0.560122    0.33791  0.0000E+00  0.1538E-03  0.5023E-05  0.5866E-03  0.2023E-01  0.6979E+08
   -0.595131    0.36249  0.0000E+00  0.1410E-03  0.4179E-05  0.5674E-03  0.1887E-01  0.1406E+07
   -0.630140    0.38503  0.0000E+00  0.1292E-03  0.3494E-05  0.5366E-03  0.1811E-01  0.6198E+09
   -0.665149    0.41016  0.0000E+00  0.1186E-03  0.2956E-05  0.5071E-03  0.1715E-01  0.3491E+07
   -0.700158    0.43812  0.0000E+00  0.1090E-03  0.2528E-05  0.4780E-03  0.1611E-01  0.5534E+07
   -0.735167    0.46951  0.0000E+00  0.1003E-03  0.2183E-05  0.4488E-03  0.1507E-01  0.2954E+08
   -0.770176    0.50542  0.0000E+00  0.9226E-04  0.1898E-05  0.4195E-03  0.1405E-01  0.8091E+09
   -0.805185    0.55187  0.0000E+00  0.8477E-04  0.1659E-05  0.3904E-03  0.1305E-01  0.2582E+11
   -0.840194    0.61719  0.0000E+00  0.7783E-04  0.1457E-05  0.3635E-03  0.1206E-01  0.2620E+12
   -0.875203    0.69609  0.0000E+00  0.7137E-04  0.1284E-05  0.3382E-03  0.1110E-01  0.5387E+12
   -0.910211    0.80295  0.0000E+00  0.6540E-04  0.1135E-05  0.3143E-03  0.1016E-01 -0.6863E+12
   -0.945220    0.93650  0.0000E+00  0.5997E-04  0.1008E-05  0.2937E-03  0.9221E-02 -0.5526E+12
   -0.980229    1.09866  0.0000E+00  0.5502E-04  0.8993E-06  0.2774E-03  0.8293E-02  0.8246E+12
   -1.015237    1.27095  0.0000E+00  0.5046E-04  0.8064E-06  0.2635E-03  0.7360E-02  0.9140E+12
   -1.050245    1.47740  0.0000E+00  0.4622E-04  0.7263E-06  0.2498E-03  0.6478E-02  0.5116E+12
   -1.085253    1.73848  0.0000E+00  0.4237E-04  0.6585E-06  0.2447E-03  0.5590E-02  0.1352E+13
   -1.120261    2.03727  0.0000E+00  0.3905E-04  0.6081E-06  0.2396E-03  0.4904E-02  0.5509E+13
   -1.155269    2.29607  0.0000E+00  0.3611E-04  0.5739E-06  0.2344E-03  0.4260E-02  0.4568E+13
   -1.190276    2.53714  0.0000E+00  0.3355E-04  0.5606E-06  0.2304E-03  0.3651E-02 -0.1886E+13
   -1.225284    2.78198  0.0000E+00  0.3126E-04  0.5795E-06  0.2247E-03  0.3099E-02 -0.7052E+13
   -1.260290    3.05866  0.0000E+00  0.2897E-04  0.6551E-06  0.2231E-03  0.2621E-02 -0.1296E+14
   -1.295297    3.33832  0.0000E+00  0.2543E-04  0.8982E-06  0.1700E-03  0.2227E-02 -0.4829E+14
   -1.330304    3.64733  0.0000E+00  0.2053E-04  0.1564E-05  0.1103E-03  0.1928E-02 -0.8529E+14
   -1.365310    3.91221  0.0000E+00  0.1272E-04  0.4053E-05  0.3275E-04  0.1569E-02 -0.6540E+15
   -1.400315    4.41417  0.0000E+00  0.0000E+00  0.0000E+00  0.0000E+00  0.1746E-02  0.0000E+00
