 1 - depth, m
 2 - temperature, C
 3 - salinity, kg/kg
 4 - turbulent kinetic energy, m**2/s**2
 5 - dissipation rate, m**2/s**3
 6 - kinematic heat conductance, m**2/s
 7 - modulus of horizontal velocity, m/s
 8 - Richardson number, n/d
   -0.000000    1.26576  0.0000E+00  0.4323E-04  0.3453E-04  0.2203E-04  0.4294E-01  0.3700E+02
   -0.034998    2.52885  0.0000E+00  0.2775E-04  0.1099E-04  0.1265E-03  0.1724E-01  0.1578E+03
   -0.069996    2.67441  0.0000E+00  0.2113E-04  0.4026E-05  0.1722E-03  0.1220E-01  0.6300E+02
   -0.104994    2.79304  0.0000E+00  0.1740E-04  0.2139E-05  0.2358E-03  0.9767E-02  0.4421E+02
   -0.139993    2.90799  0.0000E+00  0.1475E-04  0.1179E-05  0.2977E-03  0.8043E-02  0.4504E+02
   -0.174992    3.02275  0.0000E+00  0.1283E-04  0.7176E-06  0.3569E-03  0.6674E-02  0.3371E+02
   -0.209991    3.14043  0.0000E+00  0.1141E-04  0.4586E-06  0.4060E-03  0.5537E-02  0.5963E+02
   -0.244990    3.26062  0.0000E+00  0.1034E-04  0.2935E-06  0.4534E-03  0.4549E-02  0.3635E+02
   -0.279990    3.38316  0.0000E+00  0.9456E-05  0.1889E-06  0.4976E-03  0.3655E-02  0.3713E+05
   -0.314990    3.49998  0.0000E+00  0.8493E-05  0.1244E-06  0.5393E-03  0.2783E-02 -0.2588E+03
   -0.349990    3.62641  0.0000E+00  0.7690E-05  0.8668E-07  0.5739E-03  0.2128E-02  0.2722E+02
   -0.384990    3.78013  0.0000E+00  0.7088E-05  0.6354E-07  0.6066E-03  0.1603E-02  0.3219E+02
   -0.419991    3.92564  0.0000E+00  0.6655E-05  0.4903E-07  0.6392E-03  0.1235E-02  0.4288E+02
   -0.454991    4.03462  0.0000E+00  0.6314E-05  0.3886E-07  0.6697E-03  0.9262E-03  0.1632E+03
   -0.489992    4.17447  0.0000E+00  0.6094E-05  0.3086E-07  0.6922E-03  0.5785E-03  0.3105E+05
   -0.524993    4.33064  0.0000E+00  0.5925E-05  0.2329E-07  0.7172E-03  0.2968E-03  0.7354E+06
   -0.559994    4.57156  0.0000E+00  0.5978E-05  0.1918E-07  0.7471E-03  0.1162E-03  0.6537E+08
   -0.594995    4.69652  0.0000E+00  0.6126E-05  0.1685E-07  0.7824E-03  0.6858E-04  0.6160E+10
   -0.629996    4.80053  0.0000E+00  0.6311E-05  0.1605E-07  0.8156E-03  0.4477E-04 -0.7397E+08
   -0.664997    4.83702  0.0000E+00  0.6516E-05  0.1619E-07  0.8378E-03  0.3080E-04  0.5916E+08
   -0.699998    4.85081  0.0000E+00  0.6715E-05  0.1662E-07  0.8526E-03  0.2498E-04  0.7276E+08
   -0.734999    4.86223  0.0000E+00  0.6904E-05  0.1718E-07  0.8637E-03  0.2118E-04  0.5311E+08
   -0.770000    4.87295  0.0000E+00  0.7083E-05  0.1781E-07  0.8703E-03  0.1840E-04  0.9862E+08
   -0.805001    4.88320  0.0000E+00  0.7252E-05  0.1852E-07  0.8729E-03  0.1623E-04  0.3864E+09
   -0.840002    4.89345  0.0000E+00  0.7409E-05  0.1930E-07  0.8705E-03  0.1451E-04  0.2695E+11
   -0.875002    4.90374  0.0000E+00  0.7555E-05  0.2015E-07  0.8638E-03  0.1305E-04  0.2542E+09
   -0.910003    4.91415  0.0000E+00  0.7690E-05  0.2110E-07  0.8527E-03  0.1181E-04  0.1299E+09
   -0.945004    4.92472  0.0000E+00  0.7811E-05  0.2215E-07  0.8372E-03  0.1066E-04  0.1089E+09
   -0.980004    4.93535  0.0000E+00  0.7920E-05  0.2333E-07  0.8165E-03  0.9631E-05  0.1118E+09
   -1.015005    4.94612  0.0000E+00  0.8017E-05  0.2469E-07  0.7896E-03  0.8657E-05  0.1201E+09
   -1.050005    4.95730  0.0000E+00  0.8105E-05  0.2634E-07  0.7555E-03  0.7761E-05  0.1454E+09
   -1.085005    4.96923  0.0000E+00  0.8180E-05  0.2838E-07  0.7160E-03  0.6913E-05  0.1954E+09
   -1.120005    4.98234  0.0000E+00  0.8239E-05  0.3095E-07  0.6668E-03  0.6121E-05  0.2568E+09
   -1.155005    4.99642  0.0000E+00  0.8281E-05  0.3425E-07  0.6215E-03  0.5404E-05  0.3973E+09
   -1.190004    5.01156  0.0000E+00  0.8305E-05  0.3874E-07  0.5482E-03  0.4727E-05  0.5510E+09
   -1.225003    5.02763  0.0000E+00  0.8310E-05  0.4575E-07  0.5062E-03  0.4164E-05  0.6751E+09
   -1.260002    5.04589  0.0000E+00  0.8272E-05  0.6038E-07  0.3645E-03  0.3428E-05  0.2686E+10
   -1.295001    5.07400  0.0000E+00  0.8043E-05  0.9422E-07  0.3548E-03  0.2705E-05 -0.2567E+13
   -1.329999    5.13020  0.0000E+00  0.7225E-05  0.1900E-06  0.1429E-03  0.2080E-05 -0.1156E+13
   -1.364997    5.35954  0.0000E+00  0.5017E-05  0.4590E-06  0.6506E-04  0.1424E-05 -0.7994E+13
   -1.399995    5.57079  0.0000E+00  0.0000E+00  0.0000E+00  0.0000E+00  0.1559E-05  0.0000E+00
