 1 - depth, m
 2 - temperature, C
 3 - salinity, kg/kg
 4 - turbulent kinetic energy, m**2/s**2
 5 - dissipation rate, m**2/s**3
 6 - kinematic heat conductance, m**2/s
 7 - modulus of horizontal velocity, m/s
 8 - Richardson number, n/d
   -0.000000    8.29300  0.0000E+00  0.1785E-04  0.3897E-05  0.2473E-04  0.1779E-01  0.5203E+02
   -0.034998    8.44023  0.0000E+00  0.1398E-04  0.1021E-05  0.8739E-04  0.8317E-02  0.1472E+03
   -0.069996    8.48117  0.0000E+00  0.1293E-04  0.4888E-06  0.1927E-03  0.6076E-02  0.9880E+03
   -0.104994    8.49897  0.0000E+00  0.1265E-04  0.2981E-06  0.2704E-03  0.5036E-02  0.1000E+04
   -0.139993    8.51066  0.0000E+00  0.1273E-04  0.2020E-06  0.3400E-03  0.4281E-02  0.1986E+02
   -0.174992    8.51961  0.0000E+00  0.1301E-04  0.1490E-06  0.3961E-03  0.3659E-02  0.7837E+02
   -0.209991    8.52710  0.0000E+00  0.1341E-04  0.1184E-06  0.4536E-03  0.3132E-02  0.1400E+02
   -0.244990    8.53350  0.0000E+00  0.1388E-04  0.9922E-07  0.5166E-03  0.2667E-02  0.3766E+02
   -0.279990    8.53899  0.0000E+00  0.1439E-04  0.8684E-07  0.5850E-03  0.2250E-02  0.1561E+03
   -0.314990    8.54370  0.0000E+00  0.1490E-04  0.7862E-07  0.6643E-03  0.1865E-02  0.6469E+02
   -0.349990    8.54791  0.0000E+00  0.1542E-04  0.7317E-07  0.7410E-03  0.1542E-02  0.1181E+02
   -0.384990    8.55174  0.0000E+00  0.1594E-04  0.6980E-07  0.8127E-03  0.1272E-02  0.1204E+02
   -0.419990    8.55532  0.0000E+00  0.1644E-04  0.6806E-07  0.8757E-03  0.1048E-02  0.8405E+01
   -0.454991    8.55869  0.0000E+00  0.1694E-04  0.6765E-07  0.9337E-03  0.8542E-03  0.7962E+01
   -0.489992    8.56191  0.0000E+00  0.1744E-04  0.6840E-07  0.9839E-03  0.6857E-03  0.8348E+01
   -0.524992    8.56500  0.0000E+00  0.1799E-04  0.7032E-07  0.1057E-02  0.5402E-03  0.9764E+01
   -0.559993    8.56837  0.0000E+00  0.1858E-04  0.7326E-07  0.1179E-02  0.4319E-03  0.1458E+02
   -0.594994    8.57210  0.0000E+00  0.1915E-04  0.7691E-07  0.1334E-02  0.3635E-03  0.2397E+02
   -0.629995    8.57689  0.0000E+00  0.1954E-04  0.8008E-07  0.1387E-02  0.3202E-03  0.4762E+02
   -0.664996    8.58163  0.0000E+00  0.1983E-04  0.8318E-07  0.1381E-02  0.2923E-03  0.5543E+02
   -0.699997    8.58641  0.0000E+00  0.2005E-04  0.8647E-07  0.1368E-02  0.2680E-03  0.6604E+02
   -0.734998    8.59124  0.0000E+00  0.2021E-04  0.9013E-07  0.1345E-02  0.2471E-03  0.8436E+02
   -0.769999    8.59628  0.0000E+00  0.2032E-04  0.9425E-07  0.1319E-02  0.2289E-03  0.1098E+03
   -0.805000    8.60148  0.0000E+00  0.2037E-04  0.9910E-07  0.1285E-02  0.2131E-03  0.1589E+03
   -0.840001    8.60709  0.0000E+00  0.2037E-04  0.1048E-06  0.1245E-02  0.1987E-03  0.2398E+03
   -0.875002    8.61291  0.0000E+00  0.2032E-04  0.1119E-06  0.1233E-02  0.1856E-03  0.5141E+03
   -0.910003    8.61942  0.0000E+00  0.2020E-04  0.1209E-06  0.1140E-02  0.1740E-03 -0.9816E+02
   -0.945003    8.62621  0.0000E+00  0.2001E-04  0.1323E-06  0.1104E-02  0.1625E-03 -0.5650E+04
   -0.980004    8.63469  0.0000E+00  0.1976E-04  0.1478E-06  0.1080E-02  0.1501E-03  0.5534E+03
   -1.015004    8.64272  0.0000E+00  0.1942E-04  0.1690E-06  0.1003E-02  0.1385E-03 -0.9677E+04
   -1.050004    8.65468  0.0000E+00  0.1898E-04  0.2004E-06  0.9293E-03  0.1252E-03  0.2338E+06
   -1.085005    8.66635  0.0000E+00  0.1843E-04  0.2624E-06  0.8949E-03  0.1125E-03 -0.9779E+05
   -1.120004    8.68879  0.0000E+00  0.1776E-04  0.3328E-06  0.7867E-03  0.9843E-04  0.1707E+07
   -1.155004    8.70345  0.0000E+00  0.1704E-04  0.4401E-06  0.6987E-03  0.8585E-04  0.5498E+07
   -1.190003    8.73950  0.0000E+00  0.1625E-04  0.6241E-06  0.6795E-03  0.7088E-04  0.3307E+08
   -1.225003    8.76273  0.0000E+00  0.1555E-04  0.8945E-06  0.5643E-03  0.5659E-04  0.1906E+09
   -1.260002    8.81631  0.0000E+00  0.1463E-04  0.2216E-05  0.4997E-03  0.4343E-04 -0.3583E+12
   -1.295000    9.03688  0.0000E+00  0.1358E-04  0.3436E-05  0.4950E-03  0.3133E-04  0.8982E+10
   -1.329999    8.91121  0.0000E+00  0.1171E-04  0.1009E-04  0.2490E-03  0.2675E-04 -0.3028E+11
   -1.364997    9.58251  0.0000E+00  0.9291E-05  0.1491E-04  0.2947E-03  0.1669E-04  0.4626E+06
   -1.399994    9.30617  0.0000E+00  0.0000E+00  0.0000E+00  0.0000E+00  0.3105E-04  0.0000E+00
