 1 - depth, m
 2 - temperature, C
 3 - salinity, kg/kg
 4 - turbulent kinetic energy, m**2/s**2
 5 - dissipation rate, m**2/s**3
 6 - kinematic heat conductance, m**2/s
 7 - modulus of horizontal velocity, m/s
 8 - Richardson number, n/d
   -0.000000    0.00105  0.0000E+00  0.4347E-03  0.9567E-03  0.7843E-04  0.3147E+00  0.1060E-01
   -0.035009    0.13124  0.0000E+00  0.2813E-03  0.4395E-03  0.1659E-03  0.1039E+00  0.1358E+00
   -0.070018    0.22501  0.0000E+00  0.2070E-03  0.1739E-03  0.2135E-03  0.6125E-01  0.6076E-01
   -0.105027    0.26682  0.0000E+00  0.1701E-03  0.1059E-03  0.2285E-03  0.4745E-01 -0.3465E+00
   -0.140037    0.29459  0.0000E+00  0.1464E-03  0.6679E-04  0.2330E-03  0.4011E-01  0.6472E-01
   -0.175047    0.31595  0.0000E+00  0.1289E-03  0.4311E-04  0.2395E-03  0.3489E-01  0.5191E-01
   -0.210057    0.33419  0.0000E+00  0.1151E-03  0.2810E-04  0.2466E-03  0.3081E-01  0.4516E-01
   -0.245068    0.35130  0.0000E+00  0.1041E-03  0.1863E-04  0.2512E-03  0.2727E-01  0.6750E-01
   -0.280079    0.36767  0.0000E+00  0.9443E-04  0.1242E-04  0.2493E-03  0.2397E-01  0.4636E-01
   -0.315089    0.38391  0.0000E+00  0.8540E-04  0.8466E-05  0.2548E-03  0.2042E-01  0.2084E+00
   -0.350101    0.40123  0.0000E+00  0.7757E-04  0.5875E-05  0.2546E-03  0.1781E-01  0.2077E+01
   -0.385112    0.41883  0.0000E+00  0.7060E-04  0.4072E-05  0.2518E-03  0.1567E-01  0.1459E+04
   -0.420123    0.43734  0.0000E+00  0.6442E-04  0.2824E-05  0.2414E-03  0.1382E-01  0.1162E+03
   -0.455135    0.45778  0.0000E+00  0.5869E-04  0.2042E-05  0.2274E-03  0.1199E-01  0.2187E+03
   -0.490147    0.48175  0.0000E+00  0.5317E-04  0.1552E-05  0.2124E-03  0.1011E-01  0.3959E+04
   -0.525159    0.51456  0.0000E+00  0.4738E-04  0.1214E-05  0.2029E-03  0.8350E-02  0.2663E+07
   -0.560171    0.57829  0.0000E+00  0.4149E-04  0.9599E-06  0.1872E-03  0.7070E-02  0.7417E+10
   -0.595183    0.67471  0.0000E+00  0.3489E-04  0.7327E-06  0.1577E-03  0.6213E-02 -0.4676E+10
   -0.630195    0.80619  0.0000E+00  0.2882E-04  0.5538E-06  0.1341E-03  0.5776E-02  0.4842E+12
   -0.665207    0.96599  0.0000E+00  0.2347E-04  0.4173E-06  0.1138E-03  0.5238E-02  0.1956E+12
   -0.700219    1.18459  0.0000E+00  0.1875E-04  0.3115E-06  0.1022E-03  0.4608E-02  0.1114E+11
   -0.735231    1.50302  0.0000E+00  0.1465E-04  0.2275E-06  0.9767E-04  0.3882E-02  0.4524E+10
   -0.770243    1.94838  0.0000E+00  0.1132E-04  0.1615E-06  0.1099E-03  0.3079E-02  0.1526E+11
   -0.805255    2.52306  0.0000E+00  0.8695E-05  0.1111E-06  0.1494E-03  0.2318E-02  0.2066E+11
   -0.840267    3.13208  0.0000E+00  0.6862E-05  0.7414E-07  0.1913E-03  0.1592E-02  0.1815E+11
   -0.875279    3.63646  0.0000E+00  0.5770E-05  0.5096E-07  0.2305E-03  0.1040E-02  0.6946E+10
   -0.910291    3.99468  0.0000E+00  0.5212E-05  0.3762E-07  0.2679E-03  0.6684E-03  0.1194E+12
   -0.945302    4.18132  0.0000E+00  0.4968E-05  0.3056E-07  0.2936E-03  0.4551E-03  0.5815E+10
   -0.980314    4.27400  0.0000E+00  0.4865E-05  0.2671E-07  0.3138E-03  0.3251E-03  0.1028E+11
   -1.015326    4.33126  0.0000E+00  0.4834E-05  0.2458E-07  0.3270E-03  0.2348E-03  0.2471E+11
   -1.050337    4.37426  0.0000E+00  0.4844E-05  0.2353E-07  0.3355E-03  0.1729E-03  0.3251E+10
   -1.085348    4.41058  0.0000E+00  0.4878E-05  0.2323E-07  0.3385E-03  0.1289E-03  0.9953E+10
   -1.120359    4.44462  0.0000E+00  0.4925E-05  0.2355E-07  0.3341E-03  0.9726E-04  0.5299E+10
   -1.155370    4.47756  0.0000E+00  0.4980E-05  0.2453E-07  0.3254E-03  0.7310E-04  0.1063E+11
   -1.190380    4.51030  0.0000E+00  0.5043E-05  0.2635E-07  0.3077E-03  0.5432E-04  0.2652E+11
   -1.225390    4.54380  0.0000E+00  0.5118E-05  0.2961E-07  0.2838E-03  0.3951E-04  0.1309E+12
   -1.260400    4.58211  0.0000E+00  0.5201E-05  0.3602E-07  0.2337E-03  0.2827E-04  0.1835E+11
   -1.295410    4.63324  0.0000E+00  0.5222E-05  0.5221E-07  0.1932E-03  0.1982E-04  0.1642E+12
   -1.330420    4.73630  0.0000E+00  0.4924E-05  0.9109E-07  0.1114E-03  0.1477E-04  0.5346E+13
   -1.365429    4.92435  0.0000E+00  0.3542E-05  0.2190E-06  0.3587E-04  0.9810E-05 -0.2409E+14
   -1.400438    5.30771  0.0000E+00  0.0000E+00  0.0000E+00  0.0000E+00  0.1115E-04  0.0000E+00
