 1 - depth, m
 2 - temperature, C
 3 - salinity, kg/kg
 4 - turbulent kinetic energy, m**2/s**2
 5 - dissipation rate, m**2/s**3
 6 - kinematic heat conductance, m**2/s
 7 - modulus of horizontal velocity, m/s
 8 - Richardson number, n/d
   -0.000000   14.45853  0.0000E+00  0.1128E-02  0.1081E-01  0.1177E-03  0.4947E+00  0.3926E-04
   -0.034998   14.79332  0.0000E+00  0.5752E-03  0.6817E-02  0.1884E-03  0.1584E+00 -0.1927E+01
   -0.069996   14.94621  0.0000E+00  0.3624E-03  0.1786E-02  0.2806E-03  0.8487E-01 -0.3106E+01
   -0.104995   15.00313  0.0000E+00  0.2882E-03  0.1184E-02  0.3217E-03  0.6082E-01  0.4071E+00
   -0.139994   15.03051  0.0000E+00  0.2371E-03  0.8387E-03  0.3202E-03  0.4662E-01  0.5771E+02
   -0.174994   15.05132  0.0000E+00  0.1992E-03  0.6005E-03  0.3525E-03  0.3727E-01  0.6520E+01
   -0.209993   15.06430  0.0000E+00  0.1721E-03  0.4322E-03  0.3916E-03  0.3165E-01  0.1272E+03
   -0.244993   15.07351  0.0000E+00  0.1522E-03  0.3082E-03  0.3950E-03  0.2775E-01  0.6998E+02
   -0.279993   15.08253  0.0000E+00  0.1349E-03  0.2149E-03  0.4236E-03  0.2395E-01  0.9363E+02
   -0.314993   15.09252  0.0000E+00  0.1199E-03  0.1509E-03  0.4978E-03  0.1969E-01  0.1030E+03
   -0.349994   15.09795  0.0000E+00  0.1090E-03  0.1075E-03  0.5362E-03  0.1740E-01  0.7988E+02
   -0.384994   15.10299  0.0000E+00  0.1000E-03  0.7546E-04  0.5849E-03  0.1560E-01  0.3093E+03
   -0.419995   15.10733  0.0000E+00  0.9274E-04  0.5182E-04  0.6521E-03  0.1414E-01  0.6959E+03
   -0.454996   15.11246  0.0000E+00  0.8703E-04  0.3760E-04  0.7269E-03  0.1260E-01  0.1328E+03
   -0.489997   15.11622  0.0000E+00  0.8235E-04  0.2761E-04  0.8027E-03  0.1099E-01  0.6326E+02
   -0.524998   15.12184  0.0000E+00  0.7801E-04  0.1977E-04  0.9122E-03  0.9472E-02  0.5912E+02
   -0.559999   15.12522  0.0000E+00  0.7358E-04  0.1417E-04  0.9651E-03  0.8369E-02 -0.8037E+02
   -0.595001   15.13100  0.0000E+00  0.6840E-04  0.9613E-05  0.1038E-02  0.7489E-02  0.6872E+02
   -0.630002   15.13389  0.0000E+00  0.6370E-04  0.6395E-05  0.1060E-02  0.7128E-02  0.9593E+02
   -0.665003   15.13979  0.0000E+00  0.5958E-04  0.4222E-05  0.1072E-02  0.6546E-02  0.4631E+03
   -0.700005   15.14456  0.0000E+00  0.5604E-04  0.2867E-05  0.1096E-02  0.5928E-02 -0.4130E+03
   -0.735006   15.15008  0.0000E+00  0.5299E-04  0.1914E-05  0.1213E-02  0.5340E-02 -0.3630E+03
   -0.770008   15.15443  0.0000E+00  0.5035E-04  0.1421E-05  0.1186E-02  0.4854E-02 -0.1277E+04
   -0.805009   15.15986  0.0000E+00  0.4780E-04  0.1046E-05  0.1124E-02  0.4376E-02  0.8233E+02
   -0.840010   15.16607  0.0000E+00  0.4541E-04  0.8170E-06  0.1131E-02  0.3876E-02  0.3272E+02
   -0.875011   15.17109  0.0000E+00  0.4327E-04  0.6813E-06  0.1128E-02  0.3464E-02  0.5017E+03
   -0.910013   15.17667  0.0000E+00  0.4127E-04  0.5909E-06  0.1098E-02  0.3115E-02  0.9437E+03
   -0.945014   15.18221  0.0000E+00  0.3925E-04  0.5218E-06  0.1054E-02  0.2750E-02  0.1188E+02
   -0.980015   15.18810  0.0000E+00  0.3734E-04  0.4717E-06  0.1008E-02  0.2445E-02  0.2302E+02
   -1.015015   15.19474  0.0000E+00  0.3542E-04  0.4460E-06  0.9561E-03  0.2111E-02  0.8900E+01
   -1.050016   15.20153  0.0000E+00  0.3347E-04  0.4467E-06  0.8771E-03  0.1825E-02  0.4723E+04
   -1.085016   15.20956  0.0000E+00  0.3147E-04  0.4861E-06  0.8187E-03  0.1582E-02  0.3520E+05
   -1.120017   15.22044  0.0000E+00  0.2935E-04  0.5717E-06  0.7593E-03  0.1358E-02  0.9800E+04
   -1.155017   15.23266  0.0000E+00  0.2718E-04  0.7483E-06  0.6984E-03  0.1140E-02  0.3784E+04
   -1.190016   15.25055  0.0000E+00  0.2500E-04  0.1087E-05  0.6206E-03  0.9173E-03  0.2364E+06
   -1.225016   15.27301  0.0000E+00  0.2301E-04  0.1752E-05  0.5627E-03  0.6995E-03 -0.9802E+06
   -1.260015   15.30206  0.0000E+00  0.2089E-04  0.3968E-05  0.4920E-03  0.5102E-03  0.1285E+09
   -1.295014   15.44557  0.0000E+00  0.1872E-04  0.7461E-05  0.4553E-03  0.3412E-03  0.1461E+07
   -1.330013   15.35531  0.0000E+00  0.1591E-04  0.2148E-04  0.2722E-03  0.2889E-03 -0.1985E+10
   -1.365012   15.77383  0.0000E+00  0.1265E-04  0.3134E-04  0.3535E-03  0.1805E-03  0.1308E+07
   -1.400010   15.57399  0.0000E+00  0.0000E+00  0.0000E+00  0.0000E+00  0.3673E-03  0.0000E+00
