 1 - depth, m
 2 - temperature, C
 3 - salinity, kg/kg
 4 - turbulent kinetic energy, m**2/s**2
 5 - dissipation rate, m**2/s**3
 6 - kinematic heat conductance, m**2/s
 7 - modulus of horizontal velocity, m/s
 8 - Richardson number, n/d
   -0.000000   18.43127  0.0000E+00  0.1893E-03  0.3840E-03  0.5566E-04  0.1256E+00 -0.5667E+00
   -0.034998   18.59986  0.0000E+00  0.1034E-03  0.1566E-03  0.1111E-03  0.4143E-01  0.5673E+01
   -0.069996   18.66204  0.0000E+00  0.7088E-04  0.6128E-04  0.1606E-03  0.2481E-01  0.9237E+01
   -0.104994   18.68894  0.0000E+00  0.5728E-04  0.3697E-04  0.2089E-03  0.1906E-01  0.1783E+03
   -0.139993   18.70263  0.0000E+00  0.4872E-04  0.2329E-04  0.2608E-03  0.1569E-01  0.1212E+02
   -0.174991   18.71365  0.0000E+00  0.4277E-04  0.1424E-04  0.3198E-03  0.1314E-01  0.7334E+02
   -0.209991   18.72236  0.0000E+00  0.3846E-04  0.8519E-05  0.3825E-03  0.1115E-01  0.2947E+03
   -0.244990   18.72808  0.0000E+00  0.3552E-04  0.5228E-05  0.4400E-03  0.9638E-02  0.2402E+03
   -0.279990   18.73268  0.0000E+00  0.3337E-04  0.3194E-05  0.4968E-03  0.8306E-02  0.5673E+03
   -0.314989   18.73669  0.0000E+00  0.3164E-04  0.1889E-05  0.5600E-03  0.7038E-02  0.1202E+03
   -0.349990   18.74008  0.0000E+00  0.3032E-04  0.1186E-05  0.6182E-03  0.6022E-02  0.1346E+03
   -0.384990   18.74293  0.0000E+00  0.2934E-04  0.8768E-06  0.6781E-03  0.5157E-02  0.3034E+02
   -0.419990   18.74542  0.0000E+00  0.2863E-04  0.6709E-06  0.7270E-03  0.4404E-02  0.1336E+03
   -0.454991   18.74796  0.0000E+00  0.2809E-04  0.4747E-06  0.7784E-03  0.3685E-02  0.1691E+03
   -0.489991   18.75015  0.0000E+00  0.2769E-04  0.3727E-06  0.8336E-03  0.3019E-02  0.2842E+03
   -0.524992   18.75234  0.0000E+00  0.2735E-04  0.2979E-06  0.9501E-03  0.2389E-02  0.1745E+02
   -0.559993   18.75469  0.0000E+00  0.2708E-04  0.2500E-06  0.1097E-02  0.1974E-02 -0.2452E+04
   -0.594994   18.75688  0.0000E+00  0.2680E-04  0.2210E-06  0.9774E-03  0.1688E-02 -0.3224E+01
   -0.629995   18.75982  0.0000E+00  0.2657E-04  0.1995E-06  0.1119E-02  0.1486E-02  0.1915E+02
   -0.664996   18.76247  0.0000E+00  0.2633E-04  0.1837E-06  0.1097E-02  0.1334E-02  0.8630E+01
   -0.699997   18.76515  0.0000E+00  0.2600E-04  0.1707E-06  0.1122E-02  0.1164E-02  0.5933E+01
   -0.734997   18.76789  0.0000E+00  0.2567E-04  0.1618E-06  0.1144E-02  0.1009E-02  0.3576E+01
   -0.769998   18.77052  0.0000E+00  0.2532E-04  0.1563E-06  0.1140E-02  0.8766E-03  0.3814E+01
   -0.804999   18.77312  0.0000E+00  0.2498E-04  0.1538E-06  0.1271E-02  0.7619E-03  0.4866E+01
   -0.840000   18.77566  0.0000E+00  0.2462E-04  0.1542E-06  0.1100E-02  0.6752E-03  0.5357E+02
   -0.875001   18.77844  0.0000E+00  0.2424E-04  0.1570E-06  0.1090E-02  0.6022E-03  0.3594E+01
   -0.910002   18.78136  0.0000E+00  0.2379E-04  0.1630E-06  0.1070E-02  0.5317E-03  0.8278E+02
   -0.945002   18.78443  0.0000E+00  0.2330E-04  0.1727E-06  0.1031E-02  0.4702E-03 -0.6273E+00
   -0.980003   18.78784  0.0000E+00  0.2278E-04  0.1881E-06  0.1004E-02  0.4166E-03  0.2745E+04
   -1.015003   18.79150  0.0000E+00  0.2219E-04  0.2117E-06  0.9447E-03  0.3692E-03  0.5040E+02
   -1.050004   18.79618  0.0000E+00  0.2151E-04  0.2498E-06  0.9087E-03  0.3273E-03 -0.1321E+05
   -1.085004   18.80183  0.0000E+00  0.2071E-04  0.3055E-06  0.8453E-03  0.2862E-03  0.1921E+05
   -1.120003   18.80986  0.0000E+00  0.1978E-04  0.3894E-06  0.8028E-03  0.2498E-03  0.1905E+05
   -1.155003   18.81687  0.0000E+00  0.1877E-04  0.5397E-06  0.7088E-03  0.2137E-03  0.2100E+06
   -1.190002   18.83245  0.0000E+00  0.1772E-04  0.7813E-06  0.6725E-03  0.1700E-03  0.1730E+06
   -1.225002   18.84131  0.0000E+00  0.1680E-04  0.1186E-05  0.5644E-03  0.1329E-03 -0.7335E+07
   -1.260000   18.86869  0.0000E+00  0.1566E-04  0.3148E-05  0.5120E-03  0.9687E-04  0.9363E+09
   -1.294999   18.95493  0.0000E+00  0.1450E-04  0.4911E-05  0.4926E-03  0.6881E-04  0.9921E+08
   -1.329997   18.89758  0.0000E+00  0.1247E-04  0.1447E-04  0.2742E-03  0.5998E-04 -0.2649E+10
   -1.364995   19.16977  0.0000E+00  0.9888E-05  0.2082E-04  0.3315E-03  0.3580E-04 -0.3854E+07
   -1.399993   19.05516  0.0000E+00  0.0000E+00  0.0000E+00  0.0000E+00  0.7918E-04  0.0000E+00
