 1 - depth, m
 2 - temperature, C
 3 - salinity, kg/kg
 4 - turbulent kinetic energy, m**2/s**2
 5 - dissipation rate, m**2/s**3
 6 - kinematic heat conductance, m**2/s
 7 - modulus of horizontal velocity, m/s
 8 - Richardson number, n/d
   -0.000000   -0.00110  0.0000E+00  0.4803E-03  0.9047E-03  0.1031E-03  0.3215E+00  0.9487E-01
   -0.035005    0.11626  0.0000E+00  0.3155E-03  0.3668E-03  0.1700E-03  0.1089E+00  0.2213E+01
   -0.070011    0.20021  0.0000E+00  0.2325E-03  0.1384E-03  0.2310E-03  0.6591E-01  0.2999E+00
   -0.105016    0.23957  0.0000E+00  0.1924E-03  0.8378E-04  0.2487E-03  0.5150E-01  0.1137E+00
   -0.140022    0.26452  0.0000E+00  0.1673E-03  0.5463E-04  0.2618E-03  0.4353E-01  0.7073E-01
   -0.175029    0.28391  0.0000E+00  0.1488E-03  0.3637E-04  0.2741E-03  0.3789E-01  0.6523E-01
   -0.210035    0.30021  0.0000E+00  0.1341E-03  0.2415E-04  0.2853E-03  0.3357E-01  0.6853E-01
   -0.245042    0.31491  0.0000E+00  0.1222E-03  0.1637E-04  0.2930E-03  0.2987E-01  0.5350E-01
   -0.280049    0.32888  0.0000E+00  0.1120E-03  0.1132E-04  0.2935E-03  0.2647E-01  0.4364E-01
   -0.315056    0.34280  0.0000E+00  0.1024E-03  0.7967E-05  0.3051E-03  0.2295E-01 -0.2185E+00
   -0.350064    0.35678  0.0000E+00  0.9393E-04  0.5712E-05  0.3051E-03  0.2026E-01  0.1560E+01
   -0.385071    0.37127  0.0000E+00  0.8632E-04  0.4163E-05  0.3043E-03  0.1797E-01  0.9471E+03
   -0.420079    0.38631  0.0000E+00  0.7949E-04  0.3115E-05  0.2967E-03  0.1599E-01  0.8576E+02
   -0.455087    0.40294  0.0000E+00  0.7321E-04  0.2414E-05  0.2829E-03  0.1404E-01  0.1880E+03
   -0.490095    0.42261  0.0000E+00  0.6707E-04  0.1934E-05  0.2676E-03  0.1207E-01  0.6871E+04
   -0.525103    0.44857  0.0000E+00  0.6055E-04  0.1574E-05  0.2604E-03  0.1021E-01  0.2044E+07
   -0.560111    0.48184  0.0000E+00  0.5382E-04  0.1283E-05  0.2430E-03  0.8834E-02  0.3198E+09
   -0.595120    0.53233  0.0000E+00  0.4627E-04  0.1012E-05  0.2033E-03  0.7891E-02  0.6137E+11
   -0.630128    0.61280  0.0000E+00  0.3926E-04  0.7923E-06  0.1676E-03  0.7395E-02  0.1843E+11
   -0.665137    0.73039  0.0000E+00  0.3299E-04  0.6206E-06  0.1405E-03  0.6796E-02 -0.2636E+11
   -0.700145    0.88077  0.0000E+00  0.2734E-04  0.4834E-06  0.1171E-03  0.6117E-02  0.9069E+12
   -0.735153    1.11947  0.0000E+00  0.2226E-04  0.3707E-06  0.1033E-03  0.5339E-02  0.8383E+12
   -0.770162    1.47876  0.0000E+00  0.1797E-04  0.2810E-06  0.1010E-03  0.4498E-02 -0.7586E+10
   -0.805170    1.86226  0.0000E+00  0.1437E-04  0.2111E-06  0.1127E-03  0.3736E-02  0.1881E+11
   -0.840178    2.22786  0.0000E+00  0.1125E-04  0.1550E-06  0.1273E-03  0.3039E-02  0.5339E+10
   -0.875187    2.66708  0.0000E+00  0.8611E-05  0.1066E-06  0.1438E-03  0.2247E-02  0.8204E+11
   -0.910195    3.18548  0.0000E+00  0.6856E-05  0.7275E-07  0.1751E-03  0.1526E-02  0.4815E+10
   -0.945203    3.61895  0.0000E+00  0.5837E-05  0.5202E-07  0.2121E-03  0.1027E-02  0.9442E+10
   -0.980211    3.95135  0.0000E+00  0.5261E-05  0.3941E-07  0.2415E-03  0.6739E-03  0.6728E+12
   -1.015219    4.14763  0.0000E+00  0.4971E-05  0.3221E-07  0.2627E-03  0.4401E-03  0.1656E+11
   -1.050226    4.26256  0.0000E+00  0.4844E-05  0.2831E-07  0.2769E-03  0.2971E-03  0.2214E+11
   -1.085234    4.33560  0.0000E+00  0.4807E-05  0.2647E-07  0.2859E-03  0.2089E-03  0.6099E+11
   -1.120241    4.39005  0.0000E+00  0.4817E-05  0.2597E-07  0.2986E-03  0.1512E-03  0.8741E+11
   -1.155248    4.43363  0.0000E+00  0.4853E-05  0.2652E-07  0.2846E-03  0.1093E-03  0.1336E+12
   -1.190255    4.47398  0.0000E+00  0.4906E-05  0.2817E-07  0.2793E-03  0.7790E-04  0.5551E+11
   -1.225261    4.51347  0.0000E+00  0.4980E-05  0.3145E-07  0.2558E-03  0.5405E-04  0.1048E+13
   -1.260268    4.55814  0.0000E+00  0.5069E-05  0.3824E-07  0.2156E-03  0.3674E-04  0.9960E+11
   -1.295274    4.61689  0.0000E+00  0.5104E-05  0.5533E-07  0.1808E-03  0.2455E-04  0.1312E+13
   -1.330279    4.72805  0.0000E+00  0.4822E-05  0.9488E-07  0.1076E-03  0.1789E-04  0.1523E+13
   -1.365285    4.92327  0.0000E+00  0.3490E-05  0.2266E-06  0.3457E-04  0.1172E-04 -0.5305E+14
   -1.400290    5.32341  0.0000E+00  0.0000E+00  0.0000E+00  0.0000E+00  0.1382E-04  0.0000E+00
