 1 - depth, m
 2 - temperature, C
 3 - salinity, kg/kg
 4 - turbulent kinetic energy, m**2/s**2
 5 - dissipation rate, m**2/s**3
 6 - kinematic heat conductance, m**2/s
 7 - modulus of horizontal velocity, m/s
 8 - Richardson number, n/d
   -0.000000    9.02600  0.0000E+00  0.3856E-03  0.7713E-03  0.7150E-04  0.2252E+00 -0.3159E-01
   -0.034998    9.45625  0.0000E+00  0.1999E-03  0.2992E-03  0.9782E-04  0.7156E-01 -0.1968E+00
   -0.069996    9.61654  0.0000E+00  0.1287E-03  0.6873E-04  0.1566E-03  0.4275E-01  0.1818E+00
   -0.104994    9.70002  0.0000E+00  0.1012E-03  0.3481E-04  0.1767E-03  0.3258E-01  0.3358E+00
   -0.139992    9.74264  0.0000E+00  0.8357E-04  0.1984E-04  0.1887E-03  0.2619E-01  0.1459E+01
   -0.174991    9.77245  0.0000E+00  0.7088E-04  0.1188E-04  0.2065E-03  0.2170E-01  0.1277E+01
   -0.209990    9.79577  0.0000E+00  0.6183E-04  0.7377E-05  0.2456E-03  0.1829E-01  0.1342E+02
   -0.244990    9.81149  0.0000E+00  0.5510E-04  0.4658E-05  0.2874E-03  0.1566E-01  0.9199E+02
   -0.279989    9.82421  0.0000E+00  0.4998E-04  0.2984E-05  0.3484E-03  0.1342E-01  0.1498E+03
   -0.314989    9.83836  0.0000E+00  0.4575E-04  0.2003E-05  0.4499E-03  0.1124E-01  0.2520E+03
   -0.349989    9.84687  0.0000E+00  0.4244E-04  0.1400E-05  0.5133E-03  0.9711E-02  0.4251E+03
   -0.384989    9.85450  0.0000E+00  0.3985E-04  0.1014E-05  0.5752E-03  0.8414E-02  0.2945E+03
   -0.419990    9.86095  0.0000E+00  0.3786E-04  0.7760E-06  0.6173E-03  0.7273E-02  0.8760E+03
   -0.454990    9.86703  0.0000E+00  0.3630E-04  0.6195E-06  0.6437E-03  0.6191E-02  0.2899E+03
   -0.489991    9.87264  0.0000E+00  0.3505E-04  0.5165E-06  0.6883E-03  0.5151E-02  0.2906E+03
   -0.524991    9.87799  0.0000E+00  0.3390E-04  0.4419E-06  0.7341E-03  0.4203E-02  0.2066E+02
   -0.559992    9.88356  0.0000E+00  0.3275E-04  0.3799E-06  0.7603E-03  0.3432E-02 -0.2780E+01
   -0.594993    9.89000  0.0000E+00  0.3142E-04  0.3203E-06  0.8249E-03  0.2837E-02  0.1815E+01
   -0.629994    9.89765  0.0000E+00  0.3023E-04  0.2743E-06  0.8588E-03  0.2492E-02  0.3507E+02
   -0.664995    9.90498  0.0000E+00  0.2927E-04  0.2411E-06  0.9054E-03  0.2176E-02 -0.3346E+02
   -0.699996    9.91204  0.0000E+00  0.2848E-04  0.2171E-06  0.9391E-03  0.1901E-02  0.8650E+01
   -0.734997    9.91884  0.0000E+00  0.2781E-04  0.2002E-06  0.9422E-03  0.1653E-02  0.1954E+02
   -0.769998    9.92567  0.0000E+00  0.2715E-04  0.1880E-06  0.9629E-03  0.1430E-02  0.1893E+02
   -0.804999    9.93238  0.0000E+00  0.2652E-04  0.1802E-06  0.9498E-03  0.1244E-02  0.4799E+02
   -0.840000    9.93928  0.0000E+00  0.2585E-04  0.1756E-06  0.9496E-03  0.1069E-02  0.1653E+03
   -0.875000    9.94630  0.0000E+00  0.2521E-04  0.1749E-06  0.9443E-03  0.9229E-03  0.3162E+03
   -0.910001    9.95352  0.0000E+00  0.2456E-04  0.1782E-06  0.9301E-03  0.8022E-03  0.1037E+03
   -0.945002    9.96115  0.0000E+00  0.2392E-04  0.1863E-06  0.9204E-03  0.6992E-03  0.5976E+04
   -0.980002    9.96921  0.0000E+00  0.2326E-04  0.2012E-06  0.8775E-03  0.6116E-03  0.3091E+02
   -1.015002    9.97834  0.0000E+00  0.2257E-04  0.2267E-06  0.8655E-03  0.5330E-03 -0.8560E+03
   -1.050003    9.98880  0.0000E+00  0.2180E-04  0.2719E-06  0.8112E-03  0.4667E-03  0.1975E+03
   -1.085003   10.00216  0.0000E+00  0.2090E-04  0.3553E-06  0.7844E-03  0.4078E-03  0.1549E+04
   -1.120002   10.02281  0.0000E+00  0.1990E-04  0.4780E-06  0.7101E-03  0.3503E-03  0.8711E+05
   -1.155002   10.03959  0.0000E+00  0.1883E-04  0.6810E-06  0.6506E-03  0.2997E-03  0.7140E+05
   -1.190001   10.07783  0.0000E+00  0.1775E-04  0.1034E-05  0.6157E-03  0.2382E-03  0.3471E+06
   -1.225000   10.10294  0.0000E+00  0.1686E-04  0.1611E-05  0.5309E-03  0.1862E-03  0.1026E+06
   -1.259999   10.16379  0.0000E+00  0.1573E-04  0.3757E-05  0.4929E-03  0.1364E-03  0.9574E+07
   -1.294998   10.40173  0.0000E+00  0.1465E-04  0.5842E-05  0.4627E-03  0.9703E-04  0.4261E+07
   -1.329996   10.21693  0.0000E+00  0.1281E-04  0.1667E-04  0.2703E-03  0.8533E-04 -0.1854E+11
   -1.364994   10.89443  0.0000E+00  0.1023E-04  0.2441E-04  0.3402E-03  0.5025E-04  0.3113E+06
   -1.399992   10.63544  0.0000E+00  0.0000E+00  0.0000E+00  0.0000E+00  0.1118E-03  0.0000E+00
