 1 - depth, m
 2 - temperature, C
 3 - salinity, kg/kg
 4 - turbulent kinetic energy, m**2/s**2
 5 - dissipation rate, m**2/s**3
 6 - kinematic heat conductance, m**2/s
 7 - modulus of horizontal velocity, m/s
 8 - Richardson number, n/d
   -0.000000    0.00130  0.0000E+00  0.2465E-03  0.3223E-03  0.6460E-04  0.2033E+00  0.5300E-01
   -0.035010    0.15068  0.0000E+00  0.1522E-03  0.1365E-03  0.1153E-03  0.7077E-01 -0.2881E-01
   -0.070020    0.23862  0.0000E+00  0.1086E-03  0.4094E-04  0.1248E-03  0.4616E-01  0.5170E+00
   -0.105030    0.29378  0.0000E+00  0.8662E-04  0.1904E-04  0.1291E-03  0.3646E-01  0.1202E+01
   -0.140040    0.33566  0.0000E+00  0.7256E-04  0.1101E-04  0.1321E-03  0.3037E-01  0.8738E-01
   -0.175051    0.37105  0.0000E+00  0.6230E-04  0.6760E-05  0.1343E-03  0.2584E-01  0.2102E+00
   -0.210062    0.40383  0.0000E+00  0.5434E-04  0.4242E-05  0.1348E-03  0.2224E-01  0.1071E+00
   -0.245074    0.43556  0.0000E+00  0.4795E-04  0.2715E-05  0.1329E-03  0.1917E-01  0.1645E+00
   -0.280085    0.46727  0.0000E+00  0.4240E-04  0.1815E-05  0.1254E-03  0.1637E-01  0.2193E+00
   -0.315097    0.50181  0.0000E+00  0.3673E-04  0.1251E-05  0.1203E-03  0.1352E-01  0.9106E+00
   -0.350109    0.54166  0.0000E+00  0.3158E-04  0.8951E-06  0.1107E-03  0.1130E-01  0.1384E+02
   -0.385121    0.59385  0.0000E+00  0.2698E-04  0.6634E-06  0.9881E-04  0.9449E-02  0.5613E+03
   -0.420134    0.69568  0.0000E+00  0.2308E-04  0.5095E-06  0.8565E-04  0.7809E-02  0.4408E+04
   -0.455146    1.02758  0.0000E+00  0.1992E-04  0.4007E-06  0.7668E-04  0.5997E-02  0.1209E+06
   -0.490159    1.53017  0.0000E+00  0.1729E-04  0.3217E-06  0.8731E-04  0.4306E-02  0.5971E+07
   -0.525171    1.69169  0.0000E+00  0.1455E-04  0.2513E-06  0.1015E-03  0.3102E-02  0.4115E+09
   -0.560184    1.96356  0.0000E+00  0.1201E-04  0.1894E-06  0.1269E-03  0.2206E-02  0.2604E+12
   -0.595197    2.47414  0.0000E+00  0.9644E-05  0.1346E-06  0.1801E-03  0.1621E-02  0.9168E+12
   -0.630210    2.96232  0.0000E+00  0.7711E-05  0.9301E-07  0.2411E-03  0.1370E-02 -0.2193E+12
   -0.665223    3.34406  0.0000E+00  0.6264E-05  0.6188E-07  0.2855E-03  0.1076E-02 -0.4973E+12
   -0.700236    3.72798  0.0000E+00  0.5345E-05  0.4083E-07  0.3310E-03  0.7326E-03 -0.4072E+11
   -0.735249    4.06285  0.0000E+00  0.4903E-05  0.2832E-07  0.3729E-03  0.4462E-03  0.1454E+12
   -0.770262    4.26065  0.0000E+00  0.4803E-05  0.2259E-07  0.4062E-03  0.2703E-03 -0.1154E+11
   -0.805275    4.33392  0.0000E+00  0.4818E-05  0.1984E-07  0.4325E-03  0.1924E-03  0.1724E+12
   -0.840287    4.37396  0.0000E+00  0.4876E-05  0.1841E-07  0.4537E-03  0.1447E-03  0.3097E+12
   -0.875300    4.40370  0.0000E+00  0.4955E-05  0.1773E-07  0.4711E-03  0.1118E-03  0.3242E+12
   -0.910313    4.42864  0.0000E+00  0.5044E-05  0.1748E-07  0.4837E-03  0.8784E-04  0.4232E+12
   -0.945325    4.45106  0.0000E+00  0.5136E-05  0.1752E-07  0.4903E-03  0.6965E-04  0.7527E+11
   -0.980338    4.47213  0.0000E+00  0.5229E-05  0.1779E-07  0.4919E-03  0.5596E-04 -0.4180E+11
   -1.015350    4.49268  0.0000E+00  0.5322E-05  0.1828E-07  0.4888E-03  0.4550E-04 -0.3167E+12
   -1.050362    4.51336  0.0000E+00  0.5415E-05  0.1900E-07  0.4809E-03  0.3764E-04 -0.4343E+12
   -1.085374    4.53470  0.0000E+00  0.5506E-05  0.2001E-07  0.4683E-03  0.3135E-04 -0.4002E+12
   -1.120386    4.55721  0.0000E+00  0.5592E-05  0.2135E-07  0.4501E-03  0.2614E-04 -0.4155E+12
   -1.155398    4.58050  0.0000E+00  0.5670E-05  0.2313E-07  0.4278E-03  0.2162E-04 -0.3528E+12
   -1.190409    4.60473  0.0000E+00  0.5741E-05  0.2559E-07  0.3949E-03  0.1758E-04 -0.6401E+12
   -1.225420    4.63004  0.0000E+00  0.5811E-05  0.2944E-07  0.3594E-03  0.1406E-04 -0.6798E+12
   -1.260431    4.65929  0.0000E+00  0.5874E-05  0.3662E-07  0.2840E-03  0.1099E-04 -0.2599E+13
   -1.295442    4.69719  0.0000E+00  0.5849E-05  0.5423E-07  0.2369E-03  0.8306E-05 -0.1285E+13
   -1.330452    4.77915  0.0000E+00  0.5483E-05  0.9620E-07  0.1253E-03  0.6315E-05 -0.2725E+14
   -1.365462    4.95506  0.0000E+00  0.3887E-05  0.2371E-06  0.4091E-04  0.4371E-05 -0.7859E+14
   -1.400472    5.30604  0.0000E+00  0.0000E+00  0.0000E+00  0.0000E+00  0.4622E-05  0.0000E+00
