 1 - depth, m
 2 - temperature, C
 3 - salinity, kg/kg
 4 - turbulent kinetic energy, m**2/s**2
 5 - dissipation rate, m**2/s**3
 6 - kinematic heat conductance, m**2/s
 7 - modulus of horizontal velocity, m/s
 8 - Richardson number, n/d
   -0.000000    2.52081  0.0000E+00  0.6408E-03  0.2252E-02  0.7919E-04  0.3420E+00  0.7921E-02
   -0.035003    2.91842  0.0000E+00  0.4016E-03  0.1215E-02  0.2329E-03  0.1026E+00  0.7743E+00
   -0.070007    3.04461  0.0000E+00  0.2766E-03  0.3105E-03  0.2645E-03  0.6123E-01  0.5313E+00
   -0.105011    3.11417  0.0000E+00  0.2237E-03  0.1690E-03  0.3029E-03  0.4683E-01  0.3865E+00
   -0.140015    3.15623  0.0000E+00  0.1926E-03  0.1095E-03  0.3156E-03  0.3902E-01  0.4526E+00
   -0.175020    3.18574  0.0000E+00  0.1672E-03  0.7396E-04  0.3365E-03  0.3319E-01  0.1499E+01
   -0.210025    3.20746  0.0000E+00  0.1489E-03  0.5187E-04  0.3512E-03  0.2908E-01  0.1264E+02
   -0.245030    3.22508  0.0000E+00  0.1341E-03  0.3683E-04  0.3640E-03  0.2575E-01  0.4765E+01
   -0.280035    3.24051  0.0000E+00  0.1217E-03  0.2656E-04  0.3700E-03  0.2281E-01  0.1911E+02
   -0.315041    3.25666  0.0000E+00  0.1103E-03  0.1950E-04  0.3972E-03  0.1959E-01  0.6165E+01
   -0.350046    3.27066  0.0000E+00  0.1010E-03  0.1461E-04  0.4164E-03  0.1735E-01  0.1481E+02
   -0.385052    3.28434  0.0000E+00  0.9301E-04  0.1115E-04  0.4353E-03  0.1548E-01  0.2557E+02
   -0.420058    3.29757  0.0000E+00  0.8612E-04  0.8683E-05  0.4459E-03  0.1388E-01  0.1334E+02
   -0.455064    3.31100  0.0000E+00  0.8003E-04  0.6929E-05  0.4524E-03  0.1228E-01  0.4037E+02
   -0.490071    3.32482  0.0000E+00  0.7436E-04  0.5689E-05  0.4643E-03  0.1069E-01  0.2014E+03
   -0.525077    3.34163  0.0000E+00  0.6868E-04  0.4744E-05  0.4960E-03  0.9183E-02  0.6246E+05
   -0.560084    3.36099  0.0000E+00  0.6303E-04  0.3953E-05  0.5407E-03  0.8070E-02  0.2388E+07
   -0.595090    3.38509  0.0000E+00  0.5673E-04  0.3148E-05  0.5778E-03  0.7305E-02  0.6958E+04
   -0.630097    3.41218  0.0000E+00  0.5085E-04  0.2458E-05  0.5790E-03  0.6896E-02  0.3617E+05
   -0.665103    3.44758  0.0000E+00  0.4564E-04  0.1930E-05  0.5606E-03  0.6405E-02  0.2699E+06
   -0.700110    3.49453  0.0000E+00  0.4097E-04  0.1515E-05  0.5559E-03  0.5881E-02  0.2655E+05
   -0.735117    3.56434  0.0000E+00  0.3670E-04  0.1197E-05  0.5518E-03  0.5323E-02  0.1290E+06
   -0.770123    3.65972  0.0000E+00  0.3281E-04  0.9389E-06  0.5401E-03  0.4754E-02  0.1911E+07
   -0.805130    3.78603  0.0000E+00  0.2939E-04  0.7557E-06  0.6160E-03  0.4187E-02  0.5885E+07
   -0.840137    3.95048  0.0000E+00  0.2641E-04  0.6104E-06  0.5589E-03  0.3649E-02  0.2368E+09
   -0.875143    4.16603  0.0000E+00  0.2392E-04  0.4957E-06  0.5251E-03  0.3119E-02 -0.1283E+07
   -0.910150    4.39313  0.0000E+00  0.2165E-04  0.4138E-06  0.5262E-03  0.2668E-02  0.3326E+08
   -0.945156    4.63673  0.0000E+00  0.1969E-04  0.3601E-06  0.5310E-03  0.2191E-02  0.6592E+08
   -0.980162    4.87155  0.0000E+00  0.1802E-04  0.3358E-06  0.5195E-03  0.1735E-02  0.8538E+07
   -1.015168    5.03962  0.0000E+00  0.1670E-04  0.3397E-06  0.5101E-03  0.1354E-02  0.6004E+08
   -1.050174    5.15842  0.0000E+00  0.1561E-04  0.3752E-06  0.4966E-03  0.1089E-02  0.8769E+07
   -1.085180    5.25187  0.0000E+00  0.1468E-04  0.4489E-06  0.4816E-03  0.8953E-03  0.2819E+08
   -1.120185    5.31627  0.0000E+00  0.1383E-04  0.5729E-06  0.4602E-03  0.7555E-03  0.2724E+08
   -1.155190    5.36633  0.0000E+00  0.1305E-04  0.7764E-06  0.4395E-03  0.6354E-03  0.1999E+08
   -1.190196    5.40864  0.0000E+00  0.1229E-04  0.1060E-05  0.3819E-03  0.5092E-03  0.3711E+08
   -1.225200    5.45764  0.0000E+00  0.1157E-04  0.1529E-05  0.3560E-03  0.3916E-03  0.5451E+08
   -1.260205    5.50539  0.0000E+00  0.1082E-04  0.2649E-05  0.2849E-03  0.2941E-03 -0.7812E+08
   -1.295209    5.68463  0.0000E+00  0.9989E-05  0.4774E-05  0.2720E-03  0.2115E-03  0.5825E+09
   -1.330213    5.65815  0.0000E+00  0.8692E-05  0.8847E-05  0.1572E-03  0.1951E-03  0.7590E+11
   -1.365217    6.13841  0.0000E+00  0.6631E-05  0.1389E-04  0.1335E-03  0.1391E-03 -0.6969E+12
   -1.400220    6.20637  0.0000E+00  0.0000E+00  0.0000E+00  0.0000E+00  0.2778E-03  0.0000E+00
