 1 - depth, m
 2 - temperature, C
 3 - salinity, kg/kg
 4 - turbulent kinetic energy, m**2/s**2
 5 - dissipation rate, m**2/s**3
 6 - kinematic heat conductance, m**2/s
 7 - modulus of horizontal velocity, m/s
 8 - Richardson number, n/d
   -0.000000   16.01129  0.0000E+00  0.2499E-04  0.3960E-05  0.2891E-04  0.2619E-01  0.2653E-01
   -0.034998   16.11748  0.0000E+00  0.1863E-04  0.1178E-05  0.8342E-04  0.1151E-01  0.4968E+02
   -0.069996   16.14294  0.0000E+00  0.1697E-04  0.5939E-06  0.2014E-03  0.8611E-02  0.3906E+03
   -0.104994   16.15400  0.0000E+00  0.1649E-04  0.3693E-06  0.2784E-03  0.7246E-02  0.1935E+03
   -0.139993   16.16148  0.0000E+00  0.1659E-04  0.2595E-06  0.3451E-03  0.6200E-02  0.4696E+02
   -0.174991   16.16722  0.0000E+00  0.1699E-04  0.1994E-06  0.3968E-03  0.5334E-02  0.9432E+03
   -0.209991   16.17185  0.0000E+00  0.1758E-04  0.1635E-06  0.4530E-03  0.4588E-02  0.4815E+02
   -0.244990   16.17574  0.0000E+00  0.1827E-04  0.1405E-06  0.5198E-03  0.3918E-02  0.4170E+02
   -0.279990   16.17905  0.0000E+00  0.1900E-04  0.1247E-06  0.6020E-03  0.3306E-02  0.2020E+02
   -0.314989   16.18189  0.0000E+00  0.1971E-04  0.1133E-06  0.6991E-03  0.2733E-02  0.4029E+01
   -0.349989   16.18439  0.0000E+00  0.2039E-04  0.1054E-06  0.7886E-03  0.2248E-02  0.2533E+01
   -0.384990   16.18665  0.0000E+00  0.2106E-04  0.1003E-06  0.8641E-03  0.1842E-02  0.2028E+01
   -0.419990   16.18876  0.0000E+00  0.2170E-04  0.9763E-07  0.9274E-03  0.1505E-02  0.1794E+01
   -0.454990   16.19073  0.0000E+00  0.2232E-04  0.9711E-07  0.9806E-03  0.1213E-02  0.1608E+01
   -0.489991   16.19261  0.0000E+00  0.2293E-04  0.9854E-07  0.1026E-02  0.9606E-03  0.1466E+01
   -0.524992   16.19441  0.0000E+00  0.2358E-04  0.1020E-06  0.1085E-02  0.7434E-03  0.1279E+01
   -0.559993   16.19635  0.0000E+00  0.2426E-04  0.1072E-06  0.1205E-02  0.5866E-03  0.1256E+01
   -0.594993   16.19845  0.0000E+00  0.2487E-04  0.1135E-06  0.1432E-02  0.4911E-03  0.1116E+01
   -0.629994   16.20094  0.0000E+00  0.2523E-04  0.1189E-06  0.1537E-02  0.4367E-03  0.1852E+00
   -0.664995   16.20336  0.0000E+00  0.2544E-04  0.1242E-06  0.1532E-02  0.4002E-03  0.2363E+01
   -0.699996   16.20580  0.0000E+00  0.2557E-04  0.1300E-06  0.1511E-02  0.3683E-03  0.1210E+01
   -0.734997   16.20834  0.0000E+00  0.2562E-04  0.1366E-06  0.1479E-02  0.3408E-03  0.2630E+01
   -0.769998   16.21095  0.0000E+00  0.2560E-04  0.1447E-06  0.1467E-02  0.3171E-03  0.1121E+01
   -0.804999   16.21383  0.0000E+00  0.2550E-04  0.1561E-06  0.1399E-02  0.2961E-03 -0.1016E+01
   -0.840000   16.21685  0.0000E+00  0.2533E-04  0.1687E-06  0.1350E-02  0.2769E-03  0.3103E+01
   -0.875001   16.22030  0.0000E+00  0.2507E-04  0.1860E-06  0.1317E-02  0.2591E-03  0.3201E+01
   -0.910002   16.22406  0.0000E+00  0.2473E-04  0.2084E-06  0.1285E-02  0.2418E-03  0.7918E+02
   -0.945002   16.22846  0.0000E+00  0.2429E-04  0.2375E-06  0.1199E-02  0.2247E-03  0.4904E+04
   -0.980003   16.23345  0.0000E+00  0.2378E-04  0.2827E-06  0.1151E-02  0.2072E-03  0.3641E+04
   -1.015003   16.23914  0.0000E+00  0.2317E-04  0.3399E-06  0.1104E-02  0.1899E-03  0.1566E+05
   -1.050003   16.24640  0.0000E+00  0.2246E-04  0.4217E-06  0.1051E-02  0.1706E-03  0.5572E+06
   -1.085003   16.25482  0.0000E+00  0.2161E-04  0.6243E-06  0.1010E-02  0.1523E-03  0.5804E+04
   -1.120003   16.26765  0.0000E+00  0.2063E-04  0.8129E-06  0.8982E-03  0.1327E-03  0.3981E+06
   -1.155003   16.27624  0.0000E+00  0.1959E-04  0.1323E-05  0.8205E-03  0.1153E-03  0.3930E+06
   -1.190002   16.30511  0.0000E+00  0.1850E-04  0.1720E-05  0.7888E-03  0.9178E-04  0.1529E+08
   -1.225001   16.30644  0.0000E+00  0.1754E-04  0.2487E-05  0.6573E-03  0.7312E-04 -0.1381E+08
   -1.260000   16.37522  0.0000E+00  0.1635E-04  0.6136E-05  0.6030E-03  0.5236E-04  0.2825E+10
   -1.294999   16.48922  0.0000E+00  0.1523E-04  0.8613E-05  0.5754E-03  0.3747E-04  0.4119E+08
   -1.329997   16.38735  0.0000E+00  0.1326E-04  0.2461E-04  0.3354E-03  0.3347E-04 -0.1590E+11
   -1.364995   16.82141  0.0000E+00  0.1069E-04  0.3389E-04  0.4279E-03  0.1973E-04 -0.2078E+06
   -1.399993   16.61578  0.0000E+00  0.0000E+00  0.0000E+00  0.0000E+00  0.4529E-04  0.0000E+00
