 1 - depth, m
 2 - temperature, C
 3 - salinity, kg/kg
 4 - turbulent kinetic energy, m**2/s**2
 5 - dissipation rate, m**2/s**3
 6 - kinematic heat conductance, m**2/s
 7 - modulus of horizontal velocity, m/s
 8 - Richardson number, n/d
   -0.000000    7.68668  0.0000E+00  0.6390E-03  0.1158E-01  0.9252E-04  0.3203E+00 -0.1844E+00
   -0.034998    8.21578  0.0000E+00  0.3681E-03  0.5938E-02  0.1488E-03  0.1017E+00 -0.4655E-01
   -0.069995    8.46740  0.0000E+00  0.2346E-03  0.2866E-02  0.2090E-03  0.5577E-01  0.6260E+00
   -0.104994    8.56895  0.0000E+00  0.1685E-03  0.7965E-03  0.2271E-03  0.4046E-01  0.5815E-01
   -0.139992    8.61173  0.0000E+00  0.1298E-03  0.1850E-03  0.2416E-03  0.3254E-01  0.2679E+01
   -0.174991    8.64210  0.0000E+00  0.1086E-03  0.1023E-03  0.2516E-03  0.2703E-01  0.2516E+01
   -0.209990    8.66763  0.0000E+00  0.9453E-04  0.6520E-04  0.2889E-03  0.2286E-01  0.2643E+00
   -0.244989    8.68371  0.0000E+00  0.8400E-04  0.4189E-04  0.3140E-03  0.1983E-01  0.1358E+02
   -0.279989    8.69796  0.0000E+00  0.7581E-04  0.2744E-04  0.3438E-03  0.1725E-01  0.9865E+02
   -0.314989    8.71666  0.0000E+00  0.6885E-04  0.1844E-04  0.4327E-03  0.1450E-01  0.7119E+02
   -0.349989    8.72696  0.0000E+00  0.6334E-04  0.1265E-04  0.5084E-03  0.1271E-01  0.1319E+03
   -0.384989    8.73540  0.0000E+00  0.5885E-04  0.8778E-05  0.5839E-03  0.1122E-01  0.2638E+03
   -0.419989    8.74385  0.0000E+00  0.5524E-04  0.6332E-05  0.6499E-03  0.9935E-02  0.2098E+04
   -0.454989    8.75006  0.0000E+00  0.5232E-04  0.4633E-05  0.7118E-03  0.8683E-02  0.3025E+03
   -0.489990    8.75744  0.0000E+00  0.4992E-04  0.3425E-05  0.7578E-03  0.7437E-02  0.1362E+03
   -0.524991    8.76332  0.0000E+00  0.4762E-04  0.2674E-05  0.8204E-03  0.6273E-02  0.1915E+03
   -0.559991    8.77046  0.0000E+00  0.4520E-04  0.2107E-05  0.8793E-03  0.5353E-02  0.1682E+03
   -0.594992    8.77675  0.0000E+00  0.4240E-04  0.1541E-05  0.9274E-03  0.4657E-02  0.4488E+02
   -0.629993    8.78471  0.0000E+00  0.3988E-04  0.1095E-05  0.9415E-03  0.4269E-02  0.5287E+02
   -0.664994    8.79366  0.0000E+00  0.3775E-04  0.7355E-06  0.9333E-03  0.3835E-02  0.1457E+03
   -0.699995    8.80132  0.0000E+00  0.3588E-04  0.5188E-06  0.9531E-03  0.3404E-02  0.5333E+02
   -0.734996    8.81068  0.0000E+00  0.3424E-04  0.3982E-06  0.9637E-03  0.2986E-02 -0.4123E+03
   -0.769997    8.81888  0.0000E+00  0.3279E-04  0.3259E-06  0.1009E-02  0.2607E-02  0.9941E+01
   -0.804997    8.82649  0.0000E+00  0.3146E-04  0.2772E-06  0.9916E-03  0.2295E-02  0.1395E+02
   -0.839998    8.83528  0.0000E+00  0.3027E-04  0.2475E-06  0.1104E-02  0.1981E-02  0.2058E+02
   -0.874999    8.84284  0.0000E+00  0.2921E-04  0.2276E-06  0.1045E-02  0.1733E-02  0.3191E+02
   -0.910000    8.85092  0.0000E+00  0.2820E-04  0.2154E-06  0.9520E-03  0.1537E-02  0.4758E+01
   -0.945000    8.85928  0.0000E+00  0.2706E-04  0.2090E-06  0.9149E-03  0.1327E-02  0.5911E+01
   -0.980000    8.86802  0.0000E+00  0.2601E-04  0.2088E-06  0.8833E-03  0.1142E-02  0.6003E+01
   -1.015001    8.87717  0.0000E+00  0.2496E-04  0.2160E-06  0.8363E-03  0.9784E-03  0.1482E+02
   -1.050001    8.88718  0.0000E+00  0.2388E-04  0.2341E-06  0.8024E-03  0.8287E-03 -0.2892E+02
   -1.085001    8.89901  0.0000E+00  0.2275E-04  0.2714E-06  0.7612E-03  0.7037E-03 -0.1026E+04
   -1.120001    8.91505  0.0000E+00  0.2156E-04  0.3420E-06  0.7343E-03  0.5970E-03 -0.5472E+04
   -1.155000    8.93320  0.0000E+00  0.2032E-04  0.4815E-06  0.6757E-03  0.5032E-03  0.2965E+04
   -1.189999    8.96323  0.0000E+00  0.1905E-04  0.7069E-06  0.6048E-03  0.4058E-03  0.5236E+06
   -1.224998    8.99198  0.0000E+00  0.1795E-04  0.1079E-05  0.5273E-03  0.3123E-03  0.4479E+05
   -1.259997    9.03576  0.0000E+00  0.1666E-04  0.2390E-05  0.4712E-03  0.2315E-03 -0.3394E+07
   -1.294996    9.24016  0.0000E+00  0.1530E-04  0.4160E-05  0.4501E-03  0.1635E-03  0.3370E+07
   -1.329994    9.12908  0.0000E+00  0.1310E-04  0.1169E-04  0.2695E-03  0.1399E-03 -0.5103E+08
   -1.364992    9.75615  0.0000E+00  0.1033E-04  0.1789E-04  0.2865E-03  0.8529E-04  0.6897E+04
   -1.399989    9.50131  0.0000E+00  0.0000E+00  0.0000E+00  0.0000E+00  0.1721E-03  0.0000E+00
