 1 - depth, m
 2 - temperature, C
 3 - salinity, kg/kg
 4 - turbulent kinetic energy, m**2/s**2
 5 - dissipation rate, m**2/s**3
 6 - kinematic heat conductance, m**2/s
 7 - modulus of horizontal velocity, m/s
 8 - Richardson number, n/d
   -0.000000   -0.00057  0.0000E+00  0.3081E-03  0.6987E-03  0.8083E-04  0.2357E+00  0.2272E+00
   -0.034996    0.12587  0.0000E+00  0.1941E-03  0.3606E-03  0.1278E-03  0.8050E-01  0.8828E-01
   -0.069991    0.21194  0.0000E+00  0.1403E-03  0.2093E-03  0.1550E-03  0.5041E-01  0.2601E+00
   -0.104988    0.25755  0.0000E+00  0.1143E-03  0.1451E-03  0.1565E-03  0.3973E-01  0.2064E+00
   -0.139984    0.28966  0.0000E+00  0.9696E-04  0.1005E-03  0.1627E-03  0.3335E-01  0.2477E+00
   -0.174981    0.31687  0.0000E+00  0.8424E-04  0.6868E-04  0.1685E-03  0.2862E-01  0.1239E+00
   -0.209978    0.34209  0.0000E+00  0.7428E-04  0.4574E-04  0.1732E-03  0.2485E-01  0.2445E+00
   -0.244975    0.36612  0.0000E+00  0.6617E-04  0.2958E-04  0.1748E-03  0.2159E-01  0.9947E-01
   -0.279973    0.38922  0.0000E+00  0.5913E-04  0.1858E-04  0.1710E-03  0.1860E-01  0.3145E+00
   -0.314971    0.41265  0.0000E+00  0.5225E-04  0.1142E-04  0.1711E-03  0.1557E-01  0.1310E+01
   -0.349969    0.43843  0.0000E+00  0.4621E-04  0.6914E-05  0.1664E-03  0.1325E-01  0.3678E+02
   -0.384967    0.46737  0.0000E+00  0.4092E-04  0.4168E-05  0.1585E-03  0.1133E-01  0.9940E+03
   -0.419965    0.49941  0.0000E+00  0.3637E-04  0.2546E-05  0.1460E-03  0.9699E-02  0.5271E+04
   -0.454963    0.53412  0.0000E+00  0.3226E-04  0.1612E-05  0.1304E-03  0.8120E-02  0.2577E+05
   -0.489962    0.57569  0.0000E+00  0.2830E-04  0.1081E-05  0.1137E-03  0.6521E-02  0.8823E+06
   -0.524961    0.65286  0.0000E+00  0.2414E-04  0.7524E-06  0.9873E-04  0.4972E-02  0.3571E+09
   -0.559959    0.79875  0.0000E+00  0.2000E-04  0.5339E-06  0.8759E-04  0.3835E-02  0.3953E+12
   -0.594958    1.12234  0.0000E+00  0.1542E-04  0.3445E-06  0.8643E-04  0.3031E-02  0.2757E+13
   -0.629957    1.78714  0.0000E+00  0.1153E-04  0.1916E-06  0.1246E-03  0.2552E-02 -0.1227E+13
   -0.664956    2.49784  0.0000E+00  0.8750E-05  0.1152E-06  0.1785E-03  0.1981E-02  0.5377E+12
   -0.699955    3.17610  0.0000E+00  0.6897E-05  0.7480E-07  0.2364E-03  0.1397E-02 -0.7042E+12
   -0.734954    3.67155  0.0000E+00  0.5725E-05  0.4888E-07  0.2803E-03  0.9119E-03 -0.1102E+12
   -0.769953    4.02514  0.0000E+00  0.5179E-05  0.3479E-07  0.3231E-03  0.5514E-03  0.3128E+12
   -0.804951    4.20994  0.0000E+00  0.4925E-05  0.2694E-07  0.3599E-03  0.3715E-03  0.6322E+12
   -0.839950    4.30653  0.0000E+00  0.4852E-05  0.2296E-07  0.3848E-03  0.2583E-03  0.7984E+12
   -0.874949    4.35427  0.0000E+00  0.4853E-05  0.2085E-07  0.4035E-03  0.1937E-03  0.1776E+12
   -0.909948    4.38766  0.0000E+00  0.4889E-05  0.1973E-07  0.4189E-03  0.1499E-03  0.7194E+12
   -0.944946    4.41497  0.0000E+00  0.4943E-05  0.1917E-07  0.4305E-03  0.1174E-03  0.1797E+12
   -0.979944    4.43883  0.0000E+00  0.5007E-05  0.1900E-07  0.4357E-03  0.9276E-04  0.7874E+11
   -1.014943    4.46156  0.0000E+00  0.5079E-05  0.1914E-07  0.4357E-03  0.7393E-04  0.3905E+12
   -1.049941    4.48407  0.0000E+00  0.5156E-05  0.1958E-07  0.4313E-03  0.6001E-04  0.1380E+12
   -1.084939    4.50717  0.0000E+00  0.5236E-05  0.2033E-07  0.4228E-03  0.4911E-04  0.9533E+11
   -1.119937    4.53136  0.0000E+00  0.5315E-05  0.2144E-07  0.4090E-03  0.4054E-04  0.1521E+12
   -1.154934    4.55625  0.0000E+00  0.5389E-05  0.2300E-07  0.3915E-03  0.3331E-04  0.2499E+12
   -1.189931    4.58183  0.0000E+00  0.5461E-05  0.2521E-07  0.3637E-03  0.2698E-04  0.1044E+13
   -1.224928    4.60835  0.0000E+00  0.5536E-05  0.2872E-07  0.3336E-03  0.2151E-04  0.4944E+12
   -1.259925    4.63855  0.0000E+00  0.5608E-05  0.3516E-07  0.2665E-03  0.1677E-04 -0.5724E+13
   -1.294922    4.67824  0.0000E+00  0.5605E-05  0.5097E-07  0.2223E-03  0.1273E-04 -0.5160E+13
   -1.329918    4.76431  0.0000E+00  0.5263E-05  0.8818E-07  0.1203E-03  0.9683E-05 -0.7117E+14
   -1.364914    4.93587  0.0000E+00  0.3744E-05  0.2155E-06  0.3877E-04  0.6663E-05 -0.5322E+14
   -1.399909    5.29879  0.0000E+00  0.0000E+00  0.0000E+00  0.0000E+00  0.6926E-05  0.0000E+00
