 1 - depth, m
 2 - temperature, C
 3 - salinity, kg/kg
 4 - turbulent kinetic energy, m**2/s**2
 5 - dissipation rate, m**2/s**3
 6 - kinematic heat conductance, m**2/s
 7 - modulus of horizontal velocity, m/s
 8 - Richardson number, n/d
   -0.000000   16.30300  0.0000E+00  0.3798E-03  0.6844E-03  0.7736E-04  0.2181E+00  0.5397E-01
   -0.034998   16.52919  0.0000E+00  0.2008E-03  0.2418E-03  0.1232E-03  0.6786E-01 -0.1745E-01
   -0.069996   16.59867  0.0000E+00  0.1353E-03  0.8791E-04  0.1656E-03  0.4084E-01  0.1018E+00
   -0.104994   16.63250  0.0000E+00  0.1065E-03  0.4561E-04  0.1829E-03  0.3169E-01 -0.8323E-01
   -0.139993   16.64991  0.0000E+00  0.8781E-04  0.2177E-04  0.2002E-03  0.2622E-01  0.2623E+01
   -0.174992   16.66177  0.0000E+00  0.7463E-04  0.1259E-04  0.2184E-03  0.2208E-01  0.1617E+02
   -0.209991   16.67234  0.0000E+00  0.6517E-04  0.7662E-05  0.2517E-03  0.1881E-01  0.7754E+01
   -0.244990   16.68041  0.0000E+00  0.5812E-04  0.4830E-05  0.2999E-03  0.1617E-01  0.3188E+02
   -0.279990   16.68712  0.0000E+00  0.5278E-04  0.3141E-05  0.3704E-03  0.1391E-01  0.4794E+03
   -0.314990   16.69404  0.0000E+00  0.4835E-04  0.2107E-05  0.4677E-03  0.1171E-01  0.3288E+03
   -0.349990   16.69874  0.0000E+00  0.4484E-04  0.1465E-05  0.5358E-03  0.1012E-01  0.5308E+04
   -0.384990   16.70260  0.0000E+00  0.4210E-04  0.1077E-05  0.5941E-03  0.8767E-02  0.1878E+03
   -0.419990   16.70608  0.0000E+00  0.4001E-04  0.8271E-06  0.6439E-03  0.7599E-02  0.3296E+03
   -0.454991   16.70924  0.0000E+00  0.3838E-04  0.6622E-06  0.6721E-03  0.6489E-02  0.1328E+04
   -0.489991   16.71214  0.0000E+00  0.3707E-04  0.5530E-06  0.7032E-03  0.5427E-02  0.1708E+03
   -0.524992   16.71501  0.0000E+00  0.3585E-04  0.4722E-06  0.7381E-03  0.4419E-02  0.2436E+03
   -0.559993   16.71796  0.0000E+00  0.3461E-04  0.4051E-06  0.7823E-03  0.3588E-02  0.3375E+02
   -0.594994   16.72138  0.0000E+00  0.3324E-04  0.3420E-06  0.8403E-03  0.2971E-02 -0.3299E+02
   -0.629995   16.72544  0.0000E+00  0.3200E-04  0.2932E-06  0.8913E-03  0.2603E-02  0.1165E+02
   -0.664996   16.72931  0.0000E+00  0.3096E-04  0.2569E-06  0.9075E-03  0.2278E-02  0.3367E+02
   -0.699997   16.73310  0.0000E+00  0.3006E-04  0.2298E-06  0.9362E-03  0.1969E-02  0.1056E+02
   -0.734998   16.73677  0.0000E+00  0.2925E-04  0.2099E-06  0.9595E-03  0.1686E-02  0.3255E+01
   -0.769999   16.74040  0.0000E+00  0.2845E-04  0.1953E-06  0.9632E-03  0.1437E-02  0.4988E+01
   -0.805000   16.74409  0.0000E+00  0.2785E-04  0.1874E-06  0.1195E-02  0.1210E-02  0.7910E+01
   -0.840001   16.74714  0.0000E+00  0.2735E-04  0.1840E-06  0.1118E-02  0.1083E-02  0.6412E+01
   -0.875002   16.75049  0.0000E+00  0.2680E-04  0.1835E-06  0.9832E-03  0.9794E-03  0.2398E+01
   -0.910002   16.75420  0.0000E+00  0.2605E-04  0.1869E-06  0.9625E-03  0.8435E-03  0.7913E+02
   -0.945003   16.75818  0.0000E+00  0.2535E-04  0.1950E-06  0.9430E-03  0.7331E-03  0.2991E+01
   -0.980003   16.76233  0.0000E+00  0.2465E-04  0.2094E-06  0.9245E-03  0.6397E-03  0.3745E+01
   -1.015004   16.76695  0.0000E+00  0.2392E-04  0.2333E-06  0.9001E-03  0.5599E-03  0.1326E+04
   -1.050004   16.77224  0.0000E+00  0.2311E-04  0.2748E-06  0.8608E-03  0.4919E-03  0.3636E+03
   -1.085004   16.77903  0.0000E+00  0.2218E-04  0.3466E-06  0.8206E-03  0.4297E-03 -0.1321E+04
   -1.120004   16.78867  0.0000E+00  0.2112E-04  0.4612E-06  0.7566E-03  0.3720E-03  0.2999E+05
   -1.155004   16.79828  0.0000E+00  0.2001E-04  0.6817E-06  0.6957E-03  0.3174E-03  0.2785E+06
   -1.190003   16.81605  0.0000E+00  0.1887E-04  0.1009E-05  0.6513E-03  0.2561E-03  0.1185E+06
   -1.225002   16.82946  0.0000E+00  0.1790E-04  0.1579E-05  0.5601E-03  0.2001E-03  0.1224E+07
   -1.260001   16.86192  0.0000E+00  0.1665E-04  0.3399E-05  0.5215E-03  0.1489E-03 -0.1635E+08
   -1.295000   16.97217  0.0000E+00  0.1545E-04  0.5379E-05  0.4890E-03  0.1058E-03  0.3210E+07
   -1.329998   16.89388  0.0000E+00  0.1338E-04  0.1650E-04  0.2720E-03  0.9261E-04 -0.1094E+11
   -1.364996   17.24961  0.0000E+00  0.1071E-04  0.2390E-04  0.3439E-03  0.5475E-04 -0.9317E+06
   -1.399994   17.08844  0.0000E+00  0.0000E+00  0.0000E+00  0.0000E+00  0.1210E-03  0.0000E+00
