 1 - depth, m
 2 - temperature, C
 3 - salinity, kg/kg
 4 - turbulent kinetic energy, m**2/s**2
 5 - dissipation rate, m**2/s**3
 6 - kinematic heat conductance, m**2/s
 7 - modulus of horizontal velocity, m/s
 8 - Richardson number, n/d
   -0.000000    9.04809  0.0000E+00  0.4591E-02  0.6239E+01  0.2324E-03  0.9629E+00 -0.1049E-01
   -0.034998    9.44869  0.0000E+00  0.3404E-02  0.5263E+01  0.4413E-03  0.2839E+00 -0.2984E+01
   -0.069996    9.62260  0.0000E+00  0.2120E-02  0.4457E+01  0.5568E-03  0.1475E+00 -0.1229E+01
   -0.104994    9.69382  0.0000E+00  0.1416E-02  0.1802E+01  0.6362E-03  0.1042E+00  0.2338E+01
   -0.139992    9.72795  0.0000E+00  0.8271E-03  0.3158E+00  0.6720E-03  0.8246E-01  0.5023E+01
   -0.174991    9.74580  0.0000E+00  0.5936E-03  0.4711E-01  0.6781E-03  0.6943E-01 -0.4977E+01
   -0.209990    9.75856  0.0000E+00  0.4926E-03  0.7433E-02  0.6950E-03  0.6101E-01  0.8953E+00
   -0.244990    9.76825  0.0000E+00  0.4338E-03  0.2143E-02  0.6864E-03  0.5386E-01  0.4632E+01
   -0.279989    9.77793  0.0000E+00  0.3878E-03  0.1239E-02  0.6736E-03  0.4743E-01 -0.1762E+02
   -0.314989    9.78752  0.0000E+00  0.3500E-03  0.8930E-03  0.7158E-03  0.4048E-01 -0.2138E+02
   -0.349989    9.79509  0.0000E+00  0.3194E-03  0.6636E-03  0.7207E-03  0.3649E-01  0.2707E+01
   -0.384989    9.80253  0.0000E+00  0.2932E-03  0.4997E-03  0.7402E-03  0.3322E-01 -0.2668E+02
   -0.419989    9.80968  0.0000E+00  0.2704E-03  0.3789E-03  0.7504E-03  0.3049E-01  0.1651E+02
   -0.454990    9.81633  0.0000E+00  0.2514E-03  0.2928E-03  0.7651E-03  0.2778E-01  0.7039E+01
   -0.489991    9.82103  0.0000E+00  0.2352E-03  0.2344E-03  0.8174E-03  0.2495E-01  0.8473E+01
   -0.524991    9.82888  0.0000E+00  0.2208E-03  0.1909E-03  0.9316E-03  0.2218E-01  0.2735E+04
   -0.559992    9.83553  0.0000E+00  0.2073E-03  0.1549E-03  0.1113E-02  0.2047E-01  0.8573E+01
   -0.594993    9.84150  0.0000E+00  0.1919E-03  0.1154E-03  0.1300E-02  0.1930E-01  0.8393E+01
   -0.629994    9.85127  0.0000E+00  0.1774E-03  0.8401E-04  0.1344E-02  0.1906E-01  0.6651E+03
   -0.664995    9.85433  0.0000E+00  0.1650E-03  0.6312E-04  0.1370E-02  0.1820E-01  0.7725E+03
   -0.699996    9.86511  0.0000E+00  0.1541E-03  0.4747E-04  0.1455E-02  0.1708E-01  0.3390E+03
   -0.734996    9.87022  0.0000E+00  0.1439E-03  0.3523E-04  0.1438E-02  0.1606E-01  0.4113E+03
   -0.769997    9.87683  0.0000E+00  0.1343E-03  0.2465E-04  0.1431E-02  0.1499E-01  0.1077E+04
   -0.804998    9.88449  0.0000E+00  0.1257E-03  0.1772E-04  0.1444E-02  0.1392E-01 -0.1827E+03
   -0.839999    9.89190  0.0000E+00  0.1183E-03  0.1258E-04  0.1486E-02  0.1299E-01 -0.7622E+03
   -0.875000    9.89909  0.0000E+00  0.1112E-03  0.9737E-05  0.1441E-02  0.1210E-01  0.3912E+03
   -0.910001    9.90896  0.0000E+00  0.1044E-03  0.8048E-05  0.1422E-02  0.1112E-01  0.8378E+02
   -0.945001    9.91659  0.0000E+00  0.9845E-04  0.6538E-05  0.1382E-02  0.1028E-01  0.8048E+02
   -0.980002    9.92548  0.0000E+00  0.9283E-04  0.5003E-05  0.1336E-02  0.9441E-02  0.5202E+02
   -1.015002    9.93407  0.0000E+00  0.8715E-04  0.3854E-05  0.1263E-02  0.8547E-02  0.3775E+02
   -1.050002    9.94545  0.0000E+00  0.8159E-04  0.3218E-05  0.1221E-02  0.7717E-02 -0.1008E+04
   -1.085002    9.95392  0.0000E+00  0.7598E-04  0.2857E-05  0.1098E-02  0.6963E-02  0.2128E+03
   -1.120002    9.96704  0.0000E+00  0.7032E-04  0.2427E-05  0.1028E-02  0.6198E-02  0.4569E+04
   -1.155001    9.98257  0.0000E+00  0.6481E-04  0.2581E-05  0.9324E-03  0.5475E-02  0.5637E+04
   -1.190001   10.00145  0.0000E+00  0.5956E-04  0.3270E-05  0.8382E-03  0.4666E-02  0.1804E+04
   -1.225000   10.03134  0.0000E+00  0.5410E-04  0.4648E-05  0.7456E-03  0.3810E-02  0.9387E+04
   -1.259999   10.05836  0.0000E+00  0.4809E-04  0.7804E-05  0.6049E-03  0.2978E-02  0.4830E+07
   -1.294997   10.19075  0.0000E+00  0.4123E-04  0.1594E-04  0.5519E-03  0.2270E-02  0.4653E+08
   -1.329996   10.16764  0.0000E+00  0.3362E-04  0.3557E-04  0.3636E-03  0.1987E-02 -0.9971E+08
   -1.364993   10.56273  0.0000E+00  0.2462E-04  0.5831E-04  0.3212E-03  0.1409E-02 -0.6816E+06
   -1.399991   10.48834  0.0000E+00  0.0000E+00  0.0000E+00  0.0000E+00  0.2394E-02  0.0000E+00
