 1 - depth, m
 2 - temperature, C
 3 - salinity, kg/kg
 4 - turbulent kinetic energy, m**2/s**2
 5 - dissipation rate, m**2/s**3
 6 - kinematic heat conductance, m**2/s
 7 - modulus of horizontal velocity, m/s
 8 - Richardson number, n/d
   -0.000000    8.84538  0.0000E+00  0.7609E-03  0.3893E-02  0.9120E-04  0.3405E+00 -0.4237E-01
   -0.034998    9.14165  0.0000E+00  0.4182E-03  0.1794E-02  0.1612E-03  0.1080E+00 -0.1030E+00
   -0.069996    9.22088  0.0000E+00  0.2745E-03  0.7329E-03  0.2252E-03  0.6342E-01 -0.4946E+00
   -0.104994    9.26759  0.0000E+00  0.2169E-03  0.4755E-03  0.2635E-03  0.4780E-01  0.5347E+00
   -0.139993    9.29437  0.0000E+00  0.1833E-03  0.3342E-03  0.2877E-03  0.3867E-01  0.8053E+01
   -0.174992    9.31355  0.0000E+00  0.1567E-03  0.2325E-03  0.3189E-03  0.3216E-01  0.2749E+02
   -0.209991    9.32589  0.0000E+00  0.1376E-03  0.1596E-03  0.3462E-03  0.2766E-01  0.1459E+02
   -0.244991    9.33743  0.0000E+00  0.1222E-03  0.1063E-03  0.3737E-03  0.2394E-01  0.5677E+02
   -0.279990    9.34610  0.0000E+00  0.1083E-03  0.6447E-04  0.3952E-03  0.2090E-01  0.1997E+03
   -0.314990    9.35775  0.0000E+00  0.9666E-04  0.4033E-04  0.4349E-03  0.1759E-01  0.1010E+03
   -0.349990    9.36539  0.0000E+00  0.8800E-04  0.2556E-04  0.4790E-03  0.1545E-01  0.2358E+02
   -0.384991    9.37189  0.0000E+00  0.8092E-04  0.1640E-04  0.5162E-03  0.1364E-01  0.1215E+02
   -0.419991    9.37768  0.0000E+00  0.7531E-04  0.1083E-04  0.5613E-03  0.1219E-01  0.1119E+02
   -0.454992    9.38329  0.0000E+00  0.7077E-04  0.7408E-05  0.6163E-03  0.1079E-01  0.8119E+02
   -0.489992    9.38857  0.0000E+00  0.6708E-04  0.5252E-05  0.6830E-03  0.9409E-02  0.5025E+02
   -0.524993    9.39386  0.0000E+00  0.6374E-04  0.3972E-05  0.7703E-03  0.8146E-02  0.8570E+02
   -0.559994    9.39913  0.0000E+00  0.6044E-04  0.3043E-05  0.8934E-03  0.7187E-02  0.4465E+03
   -0.594995    9.40513  0.0000E+00  0.5650E-04  0.2220E-05  0.9824E-03  0.6450E-02  0.3525E+02
   -0.629996    9.41158  0.0000E+00  0.5285E-04  0.1629E-05  0.1060E-02  0.6005E-02  0.6867E+03
   -0.664997    9.41865  0.0000E+00  0.4973E-04  0.1173E-05  0.1079E-02  0.5527E-02  0.7861E+03
   -0.699998    9.42489  0.0000E+00  0.4702E-04  0.8808E-06  0.1182E-02  0.5024E-02  0.2273E+05
   -0.734999    9.43125  0.0000E+00  0.4459E-04  0.6895E-06  0.1206E-02  0.4560E-02  0.2383E+04
   -0.770000    9.43700  0.0000E+00  0.4248E-04  0.5628E-06  0.1212E-02  0.4160E-02 -0.6764E+04
   -0.805001    9.44389  0.0000E+00  0.4052E-04  0.4810E-06  0.1161E-02  0.3753E-02 -0.4109E+02
   -0.840002    9.45035  0.0000E+00  0.3873E-04  0.4225E-06  0.1110E-02  0.3385E-02  0.3758E+02
   -0.875003    9.45721  0.0000E+00  0.3696E-04  0.3804E-06  0.1090E-02  0.3039E-02 -0.1102E+02
   -0.910004    9.46461  0.0000E+00  0.3525E-04  0.3484E-06  0.1045E-02  0.2702E-02  0.2258E+02
   -0.945005    9.47212  0.0000E+00  0.3355E-04  0.3252E-06  0.1008E-02  0.2383E-02  0.1365E+02
   -0.980005    9.47964  0.0000E+00  0.3190E-04  0.3120E-06  0.9526E-03  0.2103E-02  0.1590E+03
   -1.015006    9.48900  0.0000E+00  0.3026E-04  0.3107E-06  0.9060E-03  0.1803E-02  0.3699E+02
   -1.050006    9.49887  0.0000E+00  0.2866E-04  0.3206E-06  0.8608E-03  0.1565E-02  0.6562E+04
   -1.085006    9.50965  0.0000E+00  0.2696E-04  0.3521E-06  0.7926E-03  0.1336E-02  0.1154E+05
   -1.120006    9.52568  0.0000E+00  0.2519E-04  0.4203E-06  0.7401E-03  0.1144E-02  0.1166E+05
   -1.155006    9.54363  0.0000E+00  0.2342E-04  0.5737E-06  0.6812E-03  0.9562E-03  0.7709E+05
   -1.190005    9.56988  0.0000E+00  0.2160E-04  0.8391E-06  0.6167E-03  0.7794E-03  0.3820E+06
   -1.225004    9.59914  0.0000E+00  0.2003E-04  0.1298E-05  0.5605E-03  0.5849E-03 -0.2715E+06
   -1.260003    9.63225  0.0000E+00  0.1833E-04  0.2841E-05  0.4642E-03  0.4376E-03 -0.6755E+06
   -1.295002    9.87549  0.0000E+00  0.1647E-04  0.5369E-05  0.4682E-03  0.2981E-03  0.2928E+08
   -1.330001    9.70207  0.0000E+00  0.1402E-04  0.1427E-04  0.2689E-03  0.2589E-03 -0.4984E+09
   -1.364999   10.35214  0.0000E+00  0.1093E-04  0.2222E-04  0.3171E-03  0.1567E-03 -0.9611E+04
   -1.399996   10.07794  0.0000E+00  0.0000E+00  0.0000E+00  0.0000E+00  0.3043E-03  0.0000E+00
