 1 - depth, m
 2 - temperature, C
 3 - salinity, kg/kg
 4 - turbulent kinetic energy, m**2/s**2
 5 - dissipation rate, m**2/s**3
 6 - kinematic heat conductance, m**2/s
 7 - modulus of horizontal velocity, m/s
 8 - Richardson number, n/d
   -0.000000    9.79861  0.0000E+00  0.1177E-02  0.9045E-02  0.1055E-03  0.5055E+00  0.8627E-02
   -0.034998   10.18148  0.0000E+00  0.6031E-03  0.5313E-02  0.1894E-03  0.1525E+00 -0.8720E-01
   -0.069996   10.34662  0.0000E+00  0.3709E-03  0.9997E-03  0.2873E-03  0.8184E-01  0.7741E-01
   -0.104994   10.42350  0.0000E+00  0.2938E-03  0.5386E-03  0.3244E-03  0.5892E-01  0.7787E-01
   -0.139993   10.45458  0.0000E+00  0.2458E-03  0.3720E-03  0.3303E-03  0.4679E-01  0.2046E+01
   -0.174992   10.47419  0.0000E+00  0.2113E-03  0.2714E-03  0.3474E-03  0.3903E-01 -0.7116E+00
   -0.209991   10.48860  0.0000E+00  0.1844E-03  0.1983E-03  0.3670E-03  0.3386E-01  0.2600E+03
   -0.244991   10.49998  0.0000E+00  0.1643E-03  0.1449E-03  0.3836E-03  0.2991E-01  0.4261E+01
   -0.279990   10.50950  0.0000E+00  0.1473E-03  0.1016E-03  0.4035E-03  0.2626E-01  0.1439E+02
   -0.314990   10.52190  0.0000E+00  0.1325E-03  0.7276E-04  0.4571E-03  0.2224E-01  0.3368E+02
   -0.349990   10.52952  0.0000E+00  0.1206E-03  0.5227E-04  0.4948E-03  0.1964E-01  0.6161E+02
   -0.384991   10.53573  0.0000E+00  0.1108E-03  0.3719E-04  0.5357E-03  0.1756E-01  0.8576E+02
   -0.419991   10.54212  0.0000E+00  0.1028E-03  0.2662E-04  0.6023E-03  0.1587E-01  0.1273E+03
   -0.454992   10.54733  0.0000E+00  0.9625E-04  0.1910E-04  0.6760E-03  0.1418E-01  0.1821E+03
   -0.489992   10.55359  0.0000E+00  0.9081E-04  0.1417E-04  0.7658E-03  0.1243E-01  0.1436E+03
   -0.524993   10.55892  0.0000E+00  0.8577E-04  0.1064E-04  0.8670E-03  0.1080E-01  0.7416E+02
   -0.559994   10.56481  0.0000E+00  0.8059E-04  0.7813E-05  0.9620E-03  0.9571E-02 -0.2969E+04
   -0.594995   10.57050  0.0000E+00  0.7463E-04  0.5424E-05  0.1050E-02  0.8653E-02  0.1826E+03
   -0.629996   10.57715  0.0000E+00  0.6913E-04  0.3805E-05  0.1057E-02  0.8203E-02  0.3223E+03
   -0.664997   10.58393  0.0000E+00  0.6435E-04  0.2735E-05  0.1092E-02  0.7555E-02  0.7853E+03
   -0.699998   10.59086  0.0000E+00  0.6036E-04  0.2028E-05  0.1131E-02  0.6903E-02 -0.3486E+03
   -0.734999   10.59712  0.0000E+00  0.5684E-04  0.1490E-05  0.1113E-02  0.6306E-02  0.3313E+03
   -0.770000   10.60355  0.0000E+00  0.5355E-04  0.1131E-05  0.1094E-02  0.5721E-02  0.5215E+03
   -0.805001   10.61097  0.0000E+00  0.5041E-04  0.8783E-06  0.1115E-02  0.5098E-02  0.6279E+01
   -0.840002   10.61764  0.0000E+00  0.4759E-04  0.7169E-06  0.1112E-02  0.4588E-02 -0.1244E+04
   -0.875003   10.62492  0.0000E+00  0.4509E-04  0.6165E-06  0.1149E-02  0.4062E-02  0.8396E+02
   -0.910004   10.63123  0.0000E+00  0.4282E-04  0.5436E-06  0.1127E-02  0.3651E-02  0.2929E+02
   -0.945005   10.63925  0.0000E+00  0.4067E-04  0.4878E-06  0.1062E-02  0.3247E-02  0.4749E+02
   -0.980005   10.64624  0.0000E+00  0.3849E-04  0.4435E-06  0.9874E-03  0.2855E-02  0.1521E+03
   -1.015006   10.65477  0.0000E+00  0.3641E-04  0.4184E-06  0.9347E-03  0.2472E-02  0.6333E+02
   -1.050006   10.66329  0.0000E+00  0.3428E-04  0.4150E-06  0.8814E-03  0.2133E-02  0.3402E+04
   -1.085006   10.67322  0.0000E+00  0.3209E-04  0.4401E-06  0.8039E-03  0.1838E-02  0.1681E+04
   -1.120006   10.68618  0.0000E+00  0.2984E-04  0.5124E-06  0.7447E-03  0.1559E-02  0.1507E+04
   -1.155006   10.70134  0.0000E+00  0.2763E-04  0.6689E-06  0.6936E-03  0.1310E-02  0.6462E+04
   -1.190005   10.72211  0.0000E+00  0.2541E-04  0.1010E-05  0.6128E-03  0.1075E-02  0.4732E+04
   -1.225005   10.75172  0.0000E+00  0.2337E-04  0.1751E-05  0.5562E-03  0.8160E-03  0.6476E+06
   -1.260004   10.77789  0.0000E+00  0.2116E-04  0.3431E-05  0.4759E-03  0.5970E-03 -0.3543E+08
   -1.295002   10.96934  0.0000E+00  0.1881E-04  0.6462E-05  0.4610E-03  0.4086E-03  0.2142E+07
   -1.330001   10.85782  0.0000E+00  0.1586E-04  0.1696E-04  0.2748E-03  0.3452E-03 -0.1723E+09
   -1.364999   11.40652  0.0000E+00  0.1242E-04  0.2609E-04  0.3184E-03  0.2150E-03 -0.6024E+06
   -1.399997   11.18271  0.0000E+00  0.0000E+00  0.0000E+00  0.0000E+00  0.4123E-03  0.0000E+00
