 1 - depth, m
 2 - temperature, C
 3 - salinity, kg/kg
 4 - turbulent kinetic energy, m**2/s**2
 5 - dissipation rate, m**2/s**3
 6 - kinematic heat conductance, m**2/s
 7 - modulus of horizontal velocity, m/s
 8 - Richardson number, n/d
   -0.000000    0.00197  0.0000E+00  0.8669E-03  0.1525E-02  0.1015E-03  0.4215E+00  0.1755E+00
   -0.035013    0.09656  0.0000E+00  0.6896E-03  0.6664E-03  0.2662E-03  0.1689E+00 -0.2650E+00
   -0.070026    0.15703  0.0000E+00  0.5603E-03  0.2746E-03  0.3770E-03  0.1141E+00 -0.2517E+00
   -0.105040    0.18559  0.0000E+00  0.4968E-03  0.1739E-03  0.4698E-03  0.9407E-01  0.8928E-01
   -0.140054    0.20307  0.0000E+00  0.4571E-03  0.1188E-03  0.5398E-03  0.8326E-01  0.4942E-01
   -0.175068    0.21556  0.0000E+00  0.4277E-03  0.8360E-04  0.6016E-03  0.7555E-01  0.1079E+00
   -0.210083    0.22548  0.0000E+00  0.4042E-03  0.6021E-04  0.6547E-03  0.6945E-01  0.5746E-01
   -0.245098    0.23414  0.0000E+00  0.3842E-03  0.4439E-04  0.7022E-03  0.6415E-01  0.1969E-01
   -0.280113    0.24206  0.0000E+00  0.3667E-03  0.3357E-04  0.7353E-03  0.5940E-01  0.2392E-01
   -0.315128    0.24981  0.0000E+00  0.3500E-03  0.2603E-04  0.7788E-03  0.5464E-01  0.2651E-01
   -0.350143    0.25734  0.0000E+00  0.3347E-03  0.2067E-04  0.8123E-03  0.5076E-01  0.1923E+00
   -0.385159    0.26507  0.0000E+00  0.3207E-03  0.1678E-04  0.8398E-03  0.4734E-01  0.2884E+01
   -0.420175    0.27293  0.0000E+00  0.3077E-03  0.1395E-04  0.8525E-03  0.4427E-01  0.4328E+00
   -0.455191    0.28111  0.0000E+00  0.2954E-03  0.1187E-04  0.8576E-03  0.4125E-01  0.5395E+00
   -0.490207    0.28990  0.0000E+00  0.2831E-03  0.1032E-04  0.8588E-03  0.3824E-01  0.9458E+01
   -0.525223    0.30047  0.0000E+00  0.2699E-03  0.9066E-05  0.8913E-03  0.3533E-01  0.3176E+04
   -0.560239    0.31416  0.0000E+00  0.2563E-03  0.7986E-05  0.9226E-03  0.3300E-01  0.5126E+07
   -0.595255    0.33428  0.0000E+00  0.2409E-03  0.6937E-05  0.9258E-03  0.3122E-01  0.4275E+04
   -0.630271    0.36269  0.0000E+00  0.2265E-03  0.6059E-05  0.9033E-03  0.2998E-01  0.8957E+07
   -0.665288    0.39875  0.0000E+00  0.2135E-03  0.5347E-05  0.8832E-03  0.2863E-01  0.1429E+05
   -0.700304    0.44297  0.0000E+00  0.2017E-03  0.4759E-05  0.8664E-03  0.2724E-01 -0.2609E+05
   -0.735321    0.49986  0.0000E+00  0.1908E-03  0.4266E-05  0.8500E-03  0.2585E-01  0.8228E+04
   -0.770337    0.56241  0.0000E+00  0.1808E-03  0.3849E-05  0.8355E-03  0.2450E-01  0.2265E+06
   -0.805353    0.60865  0.0000E+00  0.1714E-03  0.3496E-05  0.8171E-03  0.2319E-01  0.2163E+07
   -0.840369    0.65774  0.0000E+00  0.1628E-03  0.3197E-05  0.7985E-03  0.2191E-01  0.1500E+08
   -0.875386    0.71814  0.0000E+00  0.1548E-03  0.2941E-05  0.7796E-03  0.2066E-01  0.4183E+10
   -0.910402    0.80855  0.0000E+00  0.1474E-03  0.2722E-05  0.7601E-03  0.1945E-01  0.7745E+08
   -0.945418    0.93008  0.0000E+00  0.1407E-03  0.2537E-05  0.7446E-03  0.1827E-01  0.1057E+09
   -0.980434    1.05884  0.0000E+00  0.1344E-03  0.2382E-05  0.7275E-03  0.1711E-01 -0.4655E+07
   -1.015449    1.19246  0.0000E+00  0.1285E-03  0.2255E-05  0.7106E-03  0.1597E-01  0.5223E+08
   -1.050465    1.33159  0.0000E+00  0.1228E-03  0.2156E-05  0.6900E-03  0.1489E-01  0.1698E+10
   -1.085480    1.46220  0.0000E+00  0.1174E-03  0.2088E-05  0.6639E-03  0.1388E-01  0.4828E+11
   -1.120496    1.60095  0.0000E+00  0.1122E-03  0.2059E-05  0.6333E-03  0.1293E-01  0.1016E+13
   -1.155511    1.71946  0.0000E+00  0.1072E-03  0.2082E-05  0.6003E-03  0.1199E-01  0.9487E+12
   -1.190525    1.82993  0.0000E+00  0.1022E-03  0.2180E-05  0.5651E-03  0.1105E-01 -0.1512E+13
   -1.225540    1.93881  0.0000E+00  0.9677E-04  0.2406E-05  0.5298E-03  0.1006E-01 -0.4516E+13
   -1.260554    2.05450  0.0000E+00  0.8992E-04  0.2924E-05  0.5209E-03  0.9030E-02 -0.4355E+13
   -1.295568    2.16669  0.0000E+00  0.7892E-04  0.4376E-05  0.3646E-03  0.7984E-02 -0.1517E+14
   -1.330582    2.32443  0.0000E+00  0.6330E-04  0.7898E-05  0.1936E-03  0.7195E-02 -0.4705E+14
   -1.365595    2.52595  0.0000E+00  0.3942E-04  0.2035E-04  0.4607E-04  0.5809E-02 -0.3642E+15
   -1.400608    2.93307  0.0000E+00  0.0000E+00  0.0000E+00  0.0000E+00  0.6707E-02  0.0000E+00
