 1 - depth, m
 2 - temperature, C
 3 - salinity, kg/kg
 4 - turbulent kinetic energy, m**2/s**2
 5 - dissipation rate, m**2/s**3
 6 - kinematic heat conductance, m**2/s
 7 - modulus of horizontal velocity, m/s
 8 - Richardson number, n/d
   -0.000000   -0.00127  0.0000E+00  0.3295E-03  0.5811E-03  0.7551E-04  0.2587E+00  0.1065E+00
   -0.034992    0.14449  0.0000E+00  0.2030E-03  0.2614E-03  0.1333E-03  0.8428E-01  0.9156E-01
   -0.069984    0.23639  0.0000E+00  0.1434E-03  0.9529E-04  0.1600E-03  0.5186E-01  0.5449E-01
   -0.104977    0.28855  0.0000E+00  0.1147E-03  0.5538E-04  0.1619E-03  0.4048E-01  0.1256E+00
   -0.139970    0.32449  0.0000E+00  0.9628E-04  0.3501E-04  0.1640E-03  0.3364E-01  0.8520E-01
   -0.174963    0.35435  0.0000E+00  0.8285E-04  0.2271E-04  0.1673E-03  0.2864E-01  0.1304E+00
   -0.209957    0.38105  0.0000E+00  0.7260E-04  0.1493E-04  0.1696E-03  0.2476E-01  0.7781E-01
   -0.244951    0.40616  0.0000E+00  0.6448E-04  0.9918E-05  0.1700E-03  0.2145E-01  0.1091E+00
   -0.279945    0.43018  0.0000E+00  0.5754E-04  0.6635E-05  0.1643E-03  0.1846E-01  0.9786E-01
   -0.314939    0.45433  0.0000E+00  0.5068E-04  0.4459E-05  0.1629E-03  0.1540E-01  0.5543E+00
   -0.349933    0.48024  0.0000E+00  0.4465E-04  0.3014E-05  0.1570E-03  0.1308E-01  0.3873E+01
   -0.384928    0.50895  0.0000E+00  0.3937E-04  0.2039E-05  0.1483E-03  0.1115E-01  0.8977E+03
   -0.419923    0.54087  0.0000E+00  0.3478E-04  0.1374E-05  0.1354E-03  0.9512E-02  0.4597E+03
   -0.454918    0.57800  0.0000E+00  0.3066E-04  0.9233E-06  0.1199E-03  0.7906E-02  0.5673E+04
   -0.489913    0.62270  0.0000E+00  0.2668E-04  0.6360E-06  0.1036E-03  0.6274E-02  0.3959E+06
   -0.524908    0.68422  0.0000E+00  0.2248E-04  0.4565E-06  0.8763E-04  0.4717E-02  0.1463E+09
   -0.559903    0.81373  0.0000E+00  0.1834E-04  0.3343E-06  0.6513E-04  0.3575E-02  0.6368E+12
   -0.594898    1.15221  0.0000E+00  0.1397E-04  0.2318E-06  0.5270E-04  0.2768E-02  0.1178E+13
   -0.629894    1.91229  0.0000E+00  0.1042E-04  0.1559E-06  0.1025E-03  0.2313E-02  0.1112E+12
   -0.664889    2.55418  0.0000E+00  0.7949E-05  0.1035E-06  0.1559E-03  0.1801E-02  0.3625E+11
   -0.699884    3.17831  0.0000E+00  0.6232E-05  0.6644E-07  0.2188E-03  0.1300E-02  0.5888E+12
   -0.734880    3.73548  0.0000E+00  0.5240E-05  0.4318E-07  0.2731E-03  0.8204E-03  0.3404E+10
   -0.769875    4.08309  0.0000E+00  0.4832E-05  0.3106E-07  0.3157E-03  0.4913E-03  0.1367E+12
   -0.804870    4.23819  0.0000E+00  0.4695E-05  0.2509E-07  0.3484E-03  0.3319E-03  0.8883E+11
   -0.839866    4.30253  0.0000E+00  0.4666E-05  0.2191E-07  0.3756E-03  0.2445E-03  0.1079E+11
   -0.874861    4.34240  0.0000E+00  0.4685E-05  0.2013E-07  0.3973E-03  0.1872E-03  0.3229E+10
   -0.909856    4.37353  0.0000E+00  0.4731E-05  0.1912E-07  0.4138E-03  0.1458E-03  0.4065E+11
   -0.944851    4.39997  0.0000E+00  0.4792E-05  0.1861E-07  0.4231E-03  0.1142E-03  0.2637E+11
   -0.979846    4.42442  0.0000E+00  0.4864E-05  0.1846E-07  0.4285E-03  0.9010E-04  0.1524E+10
   -1.014841    4.44763  0.0000E+00  0.4943E-05  0.1861E-07  0.4292E-03  0.7199E-04  0.1935E+11
   -1.049835    4.47069  0.0000E+00  0.5027E-05  0.1903E-07  0.4254E-03  0.5838E-04  0.3347E+10
   -1.084830    4.49432  0.0000E+00  0.5113E-05  0.1976E-07  0.4174E-03  0.4774E-04  0.1877E+10
   -1.119824    4.51902  0.0000E+00  0.5197E-05  0.2082E-07  0.4045E-03  0.3930E-04  0.1910E+11
   -1.154818    4.54434  0.0000E+00  0.5278E-05  0.2229E-07  0.3874E-03  0.3216E-04  0.2043E+10
   -1.189812    4.57034  0.0000E+00  0.5357E-05  0.2438E-07  0.3609E-03  0.2597E-04  0.4621E+10
   -1.224805    4.59711  0.0000E+00  0.5439E-05  0.2763E-07  0.3300E-03  0.2064E-04  0.4029E+10
   -1.259798    4.62762  0.0000E+00  0.5521E-05  0.3357E-07  0.2654E-03  0.1603E-04  0.8192E+10
   -1.294791    4.66638  0.0000E+00  0.5531E-05  0.4817E-07  0.2186E-03  0.1210E-04 -0.5714E+12
   -1.329784    4.75420  0.0000E+00  0.5211E-05  0.8239E-07  0.1195E-03  0.9140E-05  0.1675E+13
   -1.364777    4.91949  0.0000E+00  0.3716E-05  0.2022E-06  0.3731E-04  0.6333E-05 -0.2926E+14
   -1.399769    5.29358  0.0000E+00  0.0000E+00  0.0000E+00  0.0000E+00  0.6577E-05  0.0000E+00
