 1 - depth, m
 2 - temperature, C
 3 - salinity, kg/kg
 4 - turbulent kinetic energy, m**2/s**2
 5 - dissipation rate, m**2/s**3
 6 - kinematic heat conductance, m**2/s
 7 - modulus of horizontal velocity, m/s
 8 - Richardson number, n/d
   -0.000000   -0.00053  0.0000E+00  0.8819E-03  0.2187E-02  0.1170E-03  0.4720E+00  0.8388E-01
   -0.035009    0.09160  0.0000E+00  0.6581E-03  0.1128E-02  0.2905E-03  0.1652E+00  0.1304E+00
   -0.070019    0.15330  0.0000E+00  0.5052E-03  0.4710E-03  0.3681E-03  0.1013E+00 -0.3779E+00
   -0.105029    0.18002  0.0000E+00  0.4286E-03  0.3028E-03  0.4286E-03  0.8016E-01 -0.2258E+00
   -0.140039    0.19694  0.0000E+00  0.3814E-03  0.2064E-03  0.4690E-03  0.6918E-01  0.7412E-02
   -0.175049    0.20887  0.0000E+00  0.3459E-03  0.1417E-03  0.5020E-03  0.6148E-01 -0.3741E-01
   -0.210060    0.21830  0.0000E+00  0.3190E-03  0.9801E-04  0.5310E-03  0.5594E-01 -0.1641E+00
   -0.245071    0.22646  0.0000E+00  0.2970E-03  0.6793E-04  0.5644E-03  0.5120E-01  0.3647E-01
   -0.280082    0.23391  0.0000E+00  0.2775E-03  0.4761E-04  0.5668E-03  0.4684E-01  0.1020E+00
   -0.315093    0.24135  0.0000E+00  0.2601E-03  0.3399E-04  0.5958E-03  0.4226E-01  0.8382E-02
   -0.350105    0.24859  0.0000E+00  0.2446E-03  0.2469E-04  0.6133E-03  0.3874E-01  0.1898E+00
   -0.385117    0.25601  0.0000E+00  0.2309E-03  0.1830E-04  0.6299E-03  0.3570E-01  0.9274E+01
   -0.420128    0.26353  0.0000E+00  0.2184E-03  0.1390E-04  0.6284E-03  0.3300E-01  0.7118E+00
   -0.455140    0.27147  0.0000E+00  0.2067E-03  0.1086E-04  0.6241E-03  0.3028E-01  0.1340E+01
   -0.490153    0.28026  0.0000E+00  0.1953E-03  0.8767E-05  0.6203E-03  0.2751E-01  0.2503E+02
   -0.525165    0.29152  0.0000E+00  0.1834E-03  0.7247E-05  0.6363E-03  0.2485E-01  0.7820E+04
   -0.560177    0.30639  0.0000E+00  0.1711E-03  0.6050E-05  0.6498E-03  0.2281E-01  0.3397E+07
   -0.595190    0.32781  0.0000E+00  0.1576E-03  0.4967E-05  0.6349E-03  0.2131E-01  0.1756E+05
   -0.630202    0.34777  0.0000E+00  0.1451E-03  0.4106E-05  0.6045E-03  0.2039E-01  0.6382E+05
   -0.665215    0.36904  0.0000E+00  0.1339E-03  0.3444E-05  0.5769E-03  0.1931E-01  0.3709E+06
   -0.700227    0.39237  0.0000E+00  0.1238E-03  0.2931E-05  0.5494E-03  0.1818E-01  0.4382E+06
   -0.735240    0.41822  0.0000E+00  0.1145E-03  0.2521E-05  0.5205E-03  0.1704E-01  0.5078E+07
   -0.770252    0.44720  0.0000E+00  0.1060E-03  0.2189E-05  0.4917E-03  0.1594E-01  0.1016E+09
   -0.805265    0.48160  0.0000E+00  0.9800E-04  0.1914E-05  0.4626E-03  0.1487E-01  0.9564E+09
   -0.840277    0.52137  0.0000E+00  0.9059E-04  0.1684E-05  0.4341E-03  0.1382E-01  0.7130E+10
   -0.875289    0.56880  0.0000E+00  0.8368E-04  0.1489E-05  0.4056E-03  0.1279E-01  0.3336E+12
   -0.910302    0.62745  0.0000E+00  0.7725E-04  0.1322E-05  0.3771E-03  0.1180E-01  0.5301E+12
   -0.945314    0.70177  0.0000E+00  0.7129E-04  0.1179E-05  0.3499E-03  0.1080E-01  0.9325E+11
   -0.980326    0.80075  0.0000E+00  0.6576E-04  0.1056E-05  0.3249E-03  0.9781E-02 -0.1090E+12
   -1.015338    0.93148  0.0000E+00  0.6059E-04  0.9488E-06  0.3043E-03  0.8742E-02  0.3479E+11
   -1.050349    1.08817  0.0000E+00  0.5577E-04  0.8564E-06  0.2868E-03  0.7791E-02  0.2742E+12
   -1.085361    1.26086  0.0000E+00  0.5121E-04  0.7774E-06  0.2661E-03  0.6916E-02  0.3749E+11
   -1.120372    1.48527  0.0000E+00  0.4689E-04  0.7113E-06  0.2491E-03  0.6066E-02  0.5551E+13
   -1.155383    1.72800  0.0000E+00  0.4303E-04  0.6626E-06  0.2382E-03  0.5222E-02  0.1923E+13
   -1.190394    1.99097  0.0000E+00  0.3973E-04  0.6382E-06  0.2323E-03  0.4458E-02 -0.3078E+13
   -1.225405    2.27989  0.0000E+00  0.3678E-04  0.6460E-06  0.2259E-03  0.3747E-02 -0.8001E+13
   -1.260415    2.58269  0.0000E+00  0.3374E-04  0.7092E-06  0.2231E-03  0.3147E-02 -0.8173E+13
   -1.295426    2.89118  0.0000E+00  0.2912E-04  0.9501E-06  0.1570E-03  0.2635E-02 -0.3806E+14
   -1.330435    3.29222  0.0000E+00  0.2312E-04  0.1590E-05  0.1077E-03  0.2230E-02 -0.6412E+14
   -1.365445    3.57830  0.0000E+00  0.1402E-04  0.3948E-05  0.3086E-04  0.1804E-02 -0.6484E+15
   -1.400454    4.12374  0.0000E+00  0.0000E+00  0.0000E+00  0.0000E+00  0.2004E-02  0.0000E+00
