 1 - depth, m
 2 - temperature, C
 3 - salinity, kg/kg
 4 - turbulent kinetic energy, m**2/s**2
 5 - dissipation rate, m**2/s**3
 6 - kinematic heat conductance, m**2/s
 7 - modulus of horizontal velocity, m/s
 8 - Richardson number, n/d
   -0.000000   -0.00069  0.0000E+00  0.2586E-03  0.3663E-03  0.6975E-04  0.2141E+00  0.1830E+00
   -0.034996    0.12154  0.0000E+00  0.1628E-03  0.1536E-03  0.1217E-03  0.7233E-01  0.4645E+00
   -0.069993    0.19853  0.0000E+00  0.1189E-03  0.6492E-04  0.1418E-03  0.4573E-01  0.7373E+00
   -0.104989    0.24276  0.0000E+00  0.9655E-04  0.3928E-04  0.1442E-03  0.3667E-01  0.8687E-01
   -0.139986    0.27465  0.0000E+00  0.8148E-04  0.2374E-04  0.1474E-03  0.3105E-01  0.9116E+00
   -0.174984    0.30293  0.0000E+00  0.7046E-04  0.1487E-04  0.1511E-03  0.2668E-01  0.1416E+02
   -0.209981    0.32940  0.0000E+00  0.6210E-04  0.9604E-05  0.1529E-03  0.2310E-01  0.1103E+00
   -0.244979    0.35404  0.0000E+00  0.5531E-04  0.6301E-05  0.1521E-03  0.2001E-01  0.1197E+00
   -0.279977    0.37795  0.0000E+00  0.4931E-04  0.4173E-05  0.1460E-03  0.1718E-01  0.1662E+00
   -0.314976    0.40332  0.0000E+00  0.4327E-04  0.2768E-05  0.1435E-03  0.1424E-01  0.7588E+00
   -0.349974    0.43240  0.0000E+00  0.3784E-04  0.1844E-05  0.1364E-03  0.1201E-01  0.1183E+02
   -0.384973    0.47587  0.0000E+00  0.3306E-04  0.1245E-05  0.1268E-03  0.1013E-01  0.7541E+03
   -0.419972    0.61072  0.0000E+00  0.2908E-04  0.8645E-06  0.1170E-03  0.8449E-02  0.5030E+03
   -0.454971    0.92084  0.0000E+00  0.2567E-04  0.6236E-06  0.1198E-03  0.6787E-02  0.2780E+04
   -0.489970    1.11909  0.0000E+00  0.2252E-04  0.4689E-06  0.1194E-03  0.5245E-02  0.4937E+05
   -0.524969    1.37033  0.0000E+00  0.1940E-04  0.3606E-06  0.1295E-03  0.3878E-02  0.1333E+08
   -0.559968    1.55090  0.0000E+00  0.1626E-04  0.2783E-06  0.1388E-03  0.3001E-02  0.1161E+11
   -0.594968    1.70056  0.0000E+00  0.1260E-04  0.1972E-06  0.1327E-03  0.2412E-02  0.1841E+11
   -0.629967    2.18892  0.0000E+00  0.9547E-05  0.1317E-06  0.1587E-03  0.2003E-02  0.2431E+12
   -0.664967    2.77205  0.0000E+00  0.7499E-05  0.8767E-07  0.2097E-03  0.1570E-02  0.1207E+10
   -0.699966    3.28559  0.0000E+00  0.6138E-05  0.5783E-07  0.2627E-03  0.1159E-02 -0.4473E+10
   -0.734966    3.74368  0.0000E+00  0.5377E-05  0.3962E-07  0.3091E-03  0.7451E-03  0.8998E+09
   -0.769965    4.02201  0.0000E+00  0.4904E-05  0.2780E-07  0.3503E-03  0.5004E-03  0.7798E+09
   -0.804964    4.26181  0.0000E+00  0.4809E-05  0.2273E-07  0.3879E-03  0.2627E-03  0.9606E+09
   -0.839964    4.33441  0.0000E+00  0.4825E-05  0.2046E-07  0.4138E-03  0.1952E-03  0.9148E+09
   -0.874963    4.38425  0.0000E+00  0.4869E-05  0.1922E-07  0.4358E-03  0.1505E-03  0.1005E+10
   -0.909962    4.41314  0.0000E+00  0.4929E-05  0.1856E-07  0.4504E-03  0.1185E-03  0.1194E+10
   -0.944961    4.43667  0.0000E+00  0.4997E-05  0.1827E-07  0.4600E-03  0.9370E-04  0.1379E+10
   -0.979960    4.45839  0.0000E+00  0.5072E-05  0.1826E-07  0.4632E-03  0.7464E-04  0.1610E+10
   -1.014959    4.47934  0.0000E+00  0.5151E-05  0.1852E-07  0.4620E-03  0.5980E-04  0.1867E+10
   -1.049958    4.50033  0.0000E+00  0.5234E-05  0.1904E-07  0.4559E-03  0.4854E-04  0.2331E+10
   -1.084956    4.52190  0.0000E+00  0.5317E-05  0.1984E-07  0.4456E-03  0.3976E-04  0.3220E+10
   -1.119955    4.54465  0.0000E+00  0.5398E-05  0.2098E-07  0.4300E-03  0.3276E-04  0.4222E+10
   -1.154953    4.56804  0.0000E+00  0.5473E-05  0.2252E-07  0.4103E-03  0.2692E-04  0.5734E+10
   -1.189951    4.59220  0.0000E+00  0.5546E-05  0.2468E-07  0.3806E-03  0.2186E-04  0.7404E+10
   -1.224948    4.61708  0.0000E+00  0.5620E-05  0.2803E-07  0.3471E-03  0.1751E-04  0.1143E+11
   -1.259946    4.64542  0.0000E+00  0.5692E-05  0.3413E-07  0.2764E-03  0.1369E-04  0.2199E+11
   -1.294943    4.68149  0.0000E+00  0.5685E-05  0.4912E-07  0.2299E-03  0.1039E-04  0.1012E+12
   -1.329940    4.76386  0.0000E+00  0.5339E-05  0.8461E-07  0.1228E-03  0.7900E-05 -0.5738E+12
   -1.364936    4.92702  0.0000E+00  0.3783E-05  0.2101E-06  0.3875E-04  0.5437E-05 -0.3149E+14
   -1.399932    5.28600  0.0000E+00  0.0000E+00  0.0000E+00  0.0000E+00  0.5665E-05  0.0000E+00
