 1 - depth, m
 2 - temperature, C
 3 - salinity, kg/kg
 4 - turbulent kinetic energy, m**2/s**2
 5 - dissipation rate, m**2/s**3
 6 - kinematic heat conductance, m**2/s
 7 - modulus of horizontal velocity, m/s
 8 - Richardson number, n/d
   -0.000000    9.04481  0.0000E+00  0.8006E-03  0.4713E-02  0.1168E-03  0.3618E+00 -0.3520E+00
   -0.034998    9.48086  0.0000E+00  0.4230E-03  0.1861E-02  0.1506E-03  0.1115E+00  0.2843E+00
   -0.069996    9.63687  0.0000E+00  0.2558E-03  0.4964E-03  0.2305E-03  0.6246E-01  0.2930E+00
   -0.104994    9.70678  0.0000E+00  0.1941E-03  0.2752E-03  0.2547E-03  0.4580E-01  0.7902E+00
   -0.139993    9.73924  0.0000E+00  0.1587E-03  0.1849E-03  0.2568E-03  0.3640E-01 -0.1054E+00
   -0.174991    9.76354  0.0000E+00  0.1339E-03  0.1292E-03  0.2682E-03  0.2987E-01  0.1510E+01
   -0.209991    9.77924  0.0000E+00  0.1155E-03  0.9133E-04  0.2879E-03  0.2540E-01  0.9756E+02
   -0.244990    9.79158  0.0000E+00  0.1014E-03  0.6495E-04  0.3042E-03  0.2197E-01  0.2931E+00
   -0.279990    9.80165  0.0000E+00  0.9034E-04  0.4530E-04  0.3200E-03  0.1904E-01  0.3492E+01
   -0.314989    9.81604  0.0000E+00  0.8086E-04  0.3164E-04  0.3900E-03  0.1582E-01  0.3665E+02
   -0.349989    9.82389  0.0000E+00  0.7328E-04  0.2274E-04  0.4561E-03  0.1381E-01  0.1632E+03
   -0.384990    9.83053  0.0000E+00  0.6722E-04  0.1651E-04  0.5147E-03  0.1221E-01  0.3197E+03
   -0.419990    9.83660  0.0000E+00  0.6245E-04  0.1223E-04  0.5769E-03  0.1087E-01  0.2801E+03
   -0.454991    9.84274  0.0000E+00  0.5867E-04  0.9258E-05  0.6374E-03  0.9528E-02  0.2848E+03
   -0.489991    9.84816  0.0000E+00  0.5561E-04  0.7223E-05  0.7047E-03  0.8180E-02 -0.4672E+03
   -0.524992    9.85344  0.0000E+00  0.5279E-04  0.5725E-05  0.7773E-03  0.6911E-02  0.1494E+04
   -0.559993    9.85930  0.0000E+00  0.4990E-04  0.4488E-05  0.8498E-03  0.5927E-02  0.9503E+02
   -0.594994    9.86510  0.0000E+00  0.4661E-04  0.3233E-05  0.9270E-03  0.5206E-02  0.3022E+02
   -0.629994    9.87320  0.0000E+00  0.4365E-04  0.2351E-05  0.9177E-03  0.4832E-02  0.3744E+03
   -0.664995    9.88025  0.0000E+00  0.4105E-04  0.1703E-05  0.9225E-03  0.4370E-02  0.2507E+03
   -0.699996    9.88793  0.0000E+00  0.3887E-04  0.1319E-05  0.9367E-03  0.3902E-02 -0.3132E+02
   -0.734997    9.89523  0.0000E+00  0.3699E-04  0.1047E-05  0.9657E-03  0.3468E-02 -0.6676E+01
   -0.769998    9.90256  0.0000E+00  0.3529E-04  0.8232E-06  0.9729E-03  0.3070E-02 -0.5312E+03
   -0.804999    9.90944  0.0000E+00  0.3368E-04  0.6584E-06  0.9674E-03  0.2698E-02 -0.2912E+03
   -0.840000    9.91659  0.0000E+00  0.3221E-04  0.5088E-06  0.9696E-03  0.2364E-02 -0.1001E+03
   -0.875001    9.92369  0.0000E+00  0.3080E-04  0.3940E-06  0.9542E-03  0.2060E-02  0.9552E+01
   -0.910002    9.93100  0.0000E+00  0.2949E-04  0.3187E-06  0.9551E-03  0.1790E-02  0.3790E+02
   -0.945002    9.93817  0.0000E+00  0.2828E-04  0.2669E-06  0.9232E-03  0.1551E-02  0.6650E+01
   -0.980003    9.94592  0.0000E+00  0.2713E-04  0.2545E-06  0.8958E-03  0.1346E-02  0.1525E+02
   -1.015003    9.95365  0.0000E+00  0.2598E-04  0.2569E-06  0.8442E-03  0.1147E-02  0.2506E+02
   -1.050003    9.96257  0.0000E+00  0.2484E-04  0.2718E-06  0.8028E-03  0.9857E-03  0.3776E+03
   -1.085003    9.97332  0.0000E+00  0.2364E-04  0.3117E-06  0.7592E-03  0.8377E-03  0.4878E+04
   -1.120003    9.98802  0.0000E+00  0.2235E-04  0.3857E-06  0.7056E-03  0.7151E-03  0.4203E+04
   -1.155003   10.00554  0.0000E+00  0.2104E-04  0.5468E-06  0.6498E-03  0.5968E-03  0.2856E+05
   -1.190002   10.02936  0.0000E+00  0.1972E-04  0.8010E-06  0.6011E-03  0.4808E-03  0.2154E+06
   -1.225001   10.05894  0.0000E+00  0.1857E-04  0.1286E-05  0.5394E-03  0.3645E-03  0.1705E+06
   -1.260000   10.09306  0.0000E+00  0.1728E-04  0.2819E-05  0.4654E-03  0.2674E-03 -0.3963E+08
   -1.294999   10.29271  0.0000E+00  0.1592E-04  0.4873E-05  0.4522E-03  0.1869E-03  0.2419E+07
   -1.329997   10.16694  0.0000E+00  0.1372E-04  0.1334E-04  0.2777E-03  0.1610E-03 -0.3257E+09
   -1.364995   10.73074  0.0000E+00  0.1067E-04  0.2034E-04  0.2864E-03  0.9933E-04 -0.4299E+06
   -1.399993   10.51314  0.0000E+00  0.0000E+00  0.0000E+00  0.0000E+00  0.1941E-03  0.0000E+00
