 1 - depth, m
 2 - temperature, C
 3 - salinity, kg/kg
 4 - turbulent kinetic energy, m**2/s**2
 5 - dissipation rate, m**2/s**3
 6 - kinematic heat conductance, m**2/s
 7 - modulus of horizontal velocity, m/s
 8 - Richardson number, n/d
   -0.000000    5.77160  0.0000E+00  0.5051E-03  0.1449E-02  0.8362E-04  0.2893E+00 -0.4471E-01
   -0.034998    6.12384  0.0000E+00  0.2797E-03  0.6336E-03  0.1459E-03  0.8957E-01 -0.8657E+00
   -0.069996    6.26726  0.0000E+00  0.1879E-03  0.2280E-03  0.2099E-03  0.5180E-01  0.9475E-01
   -0.104994    6.32281  0.0000E+00  0.1496E-03  0.1319E-03  0.2188E-03  0.3945E-01 -0.6489E-01
   -0.139993    6.35246  0.0000E+00  0.1252E-03  0.8586E-04  0.2267E-03  0.3229E-01 -0.4689E-01
   -0.174992    6.37269  0.0000E+00  0.1076E-03  0.5639E-04  0.2367E-03  0.2740E-01 -0.2749E-01
   -0.209991    6.38941  0.0000E+00  0.9406E-04  0.3672E-04  0.2481E-03  0.2363E-01  0.5353E-02
   -0.244990    6.40336  0.0000E+00  0.8371E-04  0.2384E-04  0.2589E-03  0.2053E-01 -0.3964E-01
   -0.279990    6.41557  0.0000E+00  0.7539E-04  0.1535E-04  0.2665E-03  0.1780E-01  0.2741E+00
   -0.314990    6.43063  0.0000E+00  0.6807E-04  0.9915E-05  0.3058E-03  0.1495E-01  0.8701E+01
   -0.349990    6.44127  0.0000E+00  0.6207E-04  0.6502E-05  0.3354E-03  0.1297E-01  0.8472E+01
   -0.384990    6.45149  0.0000E+00  0.5711E-04  0.4318E-05  0.3710E-03  0.1136E-01  0.1317E+02
   -0.419990    6.46070  0.0000E+00  0.5301E-04  0.2929E-05  0.4158E-03  0.1001E-01  0.5901E+02
   -0.454991    6.46973  0.0000E+00  0.4961E-04  0.2064E-05  0.4575E-03  0.8723E-02  0.4751E+02
   -0.489991    6.47781  0.0000E+00  0.4676E-04  0.1536E-05  0.5152E-03  0.7481E-02  0.5926E+02
   -0.524992    6.48585  0.0000E+00  0.4410E-04  0.1183E-05  0.6026E-03  0.6349E-02  0.1540E+03
   -0.559993    6.49350  0.0000E+00  0.4141E-04  0.9186E-06  0.7077E-03  0.5486E-02 -0.6436E+03
   -0.594994    6.50254  0.0000E+00  0.3828E-04  0.6986E-06  0.7788E-03  0.4825E-02  0.3166E+03
   -0.629995    6.51290  0.0000E+00  0.3536E-04  0.5389E-06  0.7923E-03  0.4424E-02  0.2129E+03
   -0.664996    6.52266  0.0000E+00  0.3300E-04  0.4316E-06  0.8365E-03  0.3985E-02  0.2373E+03
   -0.699997    6.53151  0.0000E+00  0.3112E-04  0.3591E-06  0.8612E-03  0.3602E-02  0.2468E+03
   -0.734998    6.54107  0.0000E+00  0.2942E-04  0.3040E-06  0.7996E-03  0.3256E-02  0.4488E+03
   -0.769999    6.55037  0.0000E+00  0.2772E-04  0.2598E-06  0.8048E-03  0.2868E-02  0.5288E+03
   -0.805000    6.55999  0.0000E+00  0.2622E-04  0.2262E-06  0.8087E-03  0.2525E-02  0.7534E+02
   -0.840001    6.56939  0.0000E+00  0.2483E-04  0.1998E-06  0.7981E-03  0.2212E-02  0.1202E+02
   -0.875002    6.57895  0.0000E+00  0.2351E-04  0.1788E-06  0.7922E-03  0.1920E-02  0.8281E+01
   -0.910002    6.58869  0.0000E+00  0.2228E-04  0.1629E-06  0.7796E-03  0.1662E-02  0.1443E+02
   -0.945003    6.59865  0.0000E+00  0.2113E-04  0.1517E-06  0.7601E-03  0.1426E-02  0.6954E+01
   -0.980003    6.60897  0.0000E+00  0.2005E-04  0.1450E-06  0.7299E-03  0.1212E-02  0.9420E+01
   -1.015004    6.61971  0.0000E+00  0.1906E-04  0.1432E-06  0.7142E-03  0.1017E-02  0.2512E+02
   -1.050004    6.63141  0.0000E+00  0.1815E-04  0.1472E-06  0.6731E-03  0.8583E-03  0.2023E+03
   -1.085004    6.64487  0.0000E+00  0.1723E-04  0.1602E-06  0.6341E-03  0.7275E-03  0.4509E+02
   -1.120004    6.66265  0.0000E+00  0.1626E-04  0.1893E-06  0.6012E-03  0.6117E-03  0.2227E+05
   -1.155004    6.68509  0.0000E+00  0.1525E-04  0.2450E-06  0.5544E-03  0.5103E-03  0.1479E+05
   -1.190003    6.71210  0.0000E+00  0.1418E-04  0.3674E-06  0.4863E-03  0.4131E-03  0.1481E+06
   -1.225002    6.75776  0.0000E+00  0.1323E-04  0.5631E-06  0.4402E-03  0.3060E-03  0.4458E+05
   -1.260001    6.77847  0.0000E+00  0.1222E-04  0.1197E-05  0.3404E-03  0.2263E-03 -0.1295E+08
   -1.295000    7.08828  0.0000E+00  0.1113E-04  0.2239E-05  0.3556E-03  0.1513E-03  0.1415E+10
   -1.329998    6.88875  0.0000E+00  0.9471E-05  0.5289E-05  0.2068E-03  0.1325E-03 -0.6572E+09
   -1.364996    7.62921  0.0000E+00  0.7339E-05  0.9108E-05  0.2230E-03  0.7782E-04 -0.2576E+06
   -1.399994    7.37128  0.0000E+00  0.0000E+00  0.0000E+00  0.0000E+00  0.1582E-03  0.0000E+00
