 1 - depth, m
 2 - temperature, C
 3 - salinity, kg/kg
 4 - turbulent kinetic energy, m**2/s**2
 5 - dissipation rate, m**2/s**3
 6 - kinematic heat conductance, m**2/s
 7 - modulus of horizontal velocity, m/s
 8 - Richardson number, n/d
   -0.000000   10.05504  0.0000E+00  0.5584E-03  0.1526E-02  0.8853E-04  0.3121E+00  0.6292E+00
   -0.034998   10.42345  0.0000E+00  0.3115E-03  0.6395E-03  0.1600E-03  0.9581E-01  0.2296E+00
   -0.069996   10.57375  0.0000E+00  0.2097E-03  0.1747E-03  0.2224E-03  0.5503E-01  0.6775E+02
   -0.104994   10.64066  0.0000E+00  0.1669E-03  0.9588E-04  0.2418E-03  0.4118E-01  0.5189E-01
   -0.139992   10.66983  0.0000E+00  0.1401E-03  0.5791E-04  0.2506E-03  0.3363E-01  0.1690E+01
   -0.174991   10.68978  0.0000E+00  0.1201E-03  0.3652E-04  0.2733E-03  0.2836E-01 -0.5393E+01
   -0.209990   10.70354  0.0000E+00  0.1048E-03  0.2336E-04  0.3017E-03  0.2455E-01  0.4192E+00
   -0.244990   10.71465  0.0000E+00  0.9331E-04  0.1510E-04  0.3233E-03  0.2152E-01  0.7762E+02
   -0.279989   10.72457  0.0000E+00  0.8444E-04  0.9896E-05  0.3428E-03  0.1881E-01  0.1673E+03
   -0.314989   10.73921  0.0000E+00  0.7697E-04  0.6585E-05  0.4388E-03  0.1590E-01  0.6388E+02
   -0.349989   10.74691  0.0000E+00  0.7091E-04  0.4476E-05  0.5019E-03  0.1398E-01  0.9219E+02
   -0.384989   10.75372  0.0000E+00  0.6599E-04  0.3122E-05  0.5835E-03  0.1239E-01  0.4977E+03
   -0.419990   10.75993  0.0000E+00  0.6204E-04  0.2246E-05  0.6826E-03  0.1102E-01  0.4202E+03
   -0.454990   10.76523  0.0000E+00  0.5888E-04  0.1707E-05  0.7506E-03  0.9687E-02  0.3857E+03
   -0.489991   10.77038  0.0000E+00  0.5629E-04  0.1374E-05  0.7999E-03  0.8376E-02  0.4488E+03
   -0.524992   10.77497  0.0000E+00  0.5375E-04  0.1133E-05  0.8512E-03  0.7128E-02  0.2674E+03
   -0.559992   10.77999  0.0000E+00  0.5101E-04  0.9274E-06  0.9185E-03  0.6093E-02 -0.3768E+02
   -0.594993   10.78572  0.0000E+00  0.4775E-04  0.7399E-06  0.9772E-03  0.5295E-02  0.1169E+03
   -0.629994   10.79237  0.0000E+00  0.4487E-04  0.6048E-06  0.1023E-02  0.4795E-02 -0.1524E+02
   -0.664995   10.79905  0.0000E+00  0.4245E-04  0.5084E-06  0.1032E-02  0.4333E-02  0.1392E+02
   -0.699996   10.80546  0.0000E+00  0.4036E-04  0.4375E-06  0.1034E-02  0.3868E-02  0.9952E+02
   -0.734997   10.81167  0.0000E+00  0.3854E-04  0.3830E-06  0.1083E-02  0.3437E-02  0.1670E+02
   -0.769998   10.81770  0.0000E+00  0.3688E-04  0.3395E-06  0.1046E-02  0.3064E-02  0.6589E+02
   -0.804999   10.82408  0.0000E+00  0.3519E-04  0.3015E-06  0.1062E-02  0.2667E-02  0.2998E+02
   -0.840000   10.83049  0.0000E+00  0.3377E-04  0.2757E-06  0.1109E-02  0.2318E-02  0.1211E+02
   -0.875000   10.83637  0.0000E+00  0.3248E-04  0.2579E-06  0.1105E-02  0.2044E-02  0.1302E+02
   -0.910001   10.84229  0.0000E+00  0.3121E-04  0.2458E-06  0.1010E-02  0.1812E-02  0.5324E+01
   -0.945002   10.84882  0.0000E+00  0.2982E-04  0.2383E-06  0.9345E-03  0.1559E-02  0.6045E+01
   -0.980002   10.85588  0.0000E+00  0.2850E-04  0.2379E-06  0.9183E-03  0.1321E-02  0.2213E+03
   -1.015003   10.86319  0.0000E+00  0.2726E-04  0.2480E-06  0.8538E-03  0.1125E-02  0.3289E+02
   -1.050003   10.87179  0.0000E+00  0.2602E-04  0.2706E-06  0.8096E-03  0.9534E-03  0.7565E+04
   -1.085003   10.88130  0.0000E+00  0.2470E-04  0.3197E-06  0.7736E-03  0.8077E-03  0.1414E+04
   -1.120003   10.89532  0.0000E+00  0.2331E-04  0.4112E-06  0.7392E-03  0.6802E-03  0.4608E+05
   -1.155002   10.91104  0.0000E+00  0.2193E-04  0.5846E-06  0.6798E-03  0.5696E-03  0.6142E+06
   -1.190001   10.93538  0.0000E+00  0.2052E-04  0.8930E-06  0.6211E-03  0.4581E-03  0.3762E+06
   -1.225001   10.96221  0.0000E+00  0.1935E-04  0.1452E-05  0.5513E-03  0.3505E-03  0.1058E+07
   -1.259999   10.99804  0.0000E+00  0.1793E-04  0.3169E-05  0.4909E-03  0.2636E-03 -0.3024E+08
   -1.294998   11.18442  0.0000E+00  0.1654E-04  0.5353E-05  0.4802E-03  0.1873E-03  0.1803E+08
   -1.329996   11.07273  0.0000E+00  0.1418E-04  0.1442E-04  0.2867E-03  0.1617E-03 -0.4345E+09
   -1.364994   11.63158  0.0000E+00  0.1121E-04  0.2195E-04  0.3137E-03  0.9825E-04  0.1943E+07
   -1.399992   11.37853  0.0000E+00  0.0000E+00  0.0000E+00  0.0000E+00  0.1979E-03  0.0000E+00
