 1 - depth, m
 2 - temperature, C
 3 - salinity, kg/kg
 4 - turbulent kinetic energy, m**2/s**2
 5 - dissipation rate, m**2/s**3
 6 - kinematic heat conductance, m**2/s
 7 - modulus of horizontal velocity, m/s
 8 - Richardson number, n/d
   -0.000000   20.21218  0.0000E+00  0.3143E-03  0.6346E-03  0.9408E-04  0.2165E+00 -0.2828E+00
   -0.034998   20.44979  0.0000E+00  0.1725E-03  0.2561E-03  0.1062E-03  0.7015E-01  0.2704E+00
   -0.069996   20.56916  0.0000E+00  0.1145E-03  0.8484E-04  0.1550E-03  0.3978E-01  0.2921E+01
   -0.104994   20.61577  0.0000E+00  0.9062E-04  0.4798E-04  0.1808E-03  0.2980E-01  0.1653E+02
   -0.139993   20.63660  0.0000E+00  0.7522E-04  0.2636E-04  0.2006E-03  0.2415E-01  0.4687E+01
   -0.174992   20.65184  0.0000E+00  0.6427E-04  0.1478E-04  0.2387E-03  0.1993E-01  0.6086E+02
   -0.209991   20.66324  0.0000E+00  0.5646E-04  0.8573E-05  0.2962E-03  0.1686E-01  0.5270E+02
   -0.244991   20.67078  0.0000E+00  0.5080E-04  0.5111E-05  0.3486E-03  0.1450E-01  0.1136E+03
   -0.279991   20.67721  0.0000E+00  0.4655E-04  0.3164E-05  0.4169E-03  0.1247E-01  0.2685E+03
   -0.314991   20.68273  0.0000E+00  0.4310E-04  0.2042E-05  0.4976E-03  0.1054E-01  0.2753E+03
   -0.349991   20.68693  0.0000E+00  0.4034E-04  0.1365E-05  0.5522E-03  0.9073E-02  0.5528E+03
   -0.384991   20.69006  0.0000E+00  0.3811E-04  0.9508E-06  0.6012E-03  0.7822E-02  0.1586E+04
   -0.419991   20.69319  0.0000E+00  0.3632E-04  0.7084E-06  0.6367E-03  0.6704E-02  0.2345E+03
   -0.454992   20.69579  0.0000E+00  0.3486E-04  0.5596E-06  0.6842E-03  0.5655E-02  0.7264E+03
   -0.489993   20.69862  0.0000E+00  0.3366E-04  0.4646E-06  0.7306E-03  0.4691E-02  0.9193E+02
   -0.524994   20.70101  0.0000E+00  0.3252E-04  0.3972E-06  0.7686E-03  0.3819E-02  0.3953E+03
   -0.559995   20.70364  0.0000E+00  0.3141E-04  0.3432E-06  0.8244E-03  0.3115E-02  0.1796E+03
   -0.594996   20.70615  0.0000E+00  0.3020E-04  0.2932E-06  0.8839E-03  0.2627E-02  0.1637E+03
   -0.629997   20.70897  0.0000E+00  0.2914E-04  0.2551E-06  0.9413E-03  0.2315E-02  0.3409E+02
   -0.664998   20.71155  0.0000E+00  0.2826E-04  0.2265E-06  0.9492E-03  0.2063E-02 -0.4135E+01
   -0.699999   20.71405  0.0000E+00  0.2745E-04  0.2036E-06  0.9361E-03  0.1818E-02  0.1154E+03
   -0.735000   20.71664  0.0000E+00  0.2670E-04  0.1854E-06  0.9608E-03  0.1575E-02  0.2534E+02
   -0.770001   20.71908  0.0000E+00  0.2602E-04  0.1724E-06  0.9784E-03  0.1360E-02  0.5322E+01
   -0.805002   20.72162  0.0000E+00  0.2533E-04  0.1629E-06  0.9881E-03  0.1169E-02  0.8378E+01
   -0.840003   20.72403  0.0000E+00  0.2474E-04  0.1578E-06  0.1020E-02  0.1009E-02  0.1142E+02
   -0.875004   20.72639  0.0000E+00  0.2417E-04  0.1557E-06  0.9949E-03  0.8804E-03  0.1144E+02
   -0.910005   20.72884  0.0000E+00  0.2359E-04  0.1561E-06  0.9404E-03  0.7773E-03  0.8443E+01
   -0.945006   20.73144  0.0000E+00  0.2293E-04  0.1596E-06  0.9197E-03  0.6720E-03  0.8322E+01
   -0.980006   20.73413  0.0000E+00  0.2232E-04  0.1672E-06  0.8957E-03  0.5847E-03  0.1674E+02
   -1.015007   20.73699  0.0000E+00  0.2170E-04  0.1806E-06  0.8733E-03  0.5104E-03 -0.9865E+03
   -1.050007   20.74017  0.0000E+00  0.2101E-04  0.2051E-06  0.8443E-03  0.4483E-03  0.2266E+03
   -1.085007   20.74425  0.0000E+00  0.2021E-04  0.2464E-06  0.8046E-03  0.3925E-03 -0.2873E+04
   -1.120007   20.74954  0.0000E+00  0.1928E-04  0.3151E-06  0.7579E-03  0.3430E-03  0.5329E+05
   -1.155007   20.75596  0.0000E+00  0.1828E-04  0.4496E-06  0.6665E-03  0.2930E-03  0.1044E+06
   -1.190006   20.76484  0.0000E+00  0.1725E-04  0.6448E-06  0.6306E-03  0.2404E-03  0.1051E+05
   -1.225006   20.77475  0.0000E+00  0.1632E-04  0.9822E-06  0.5648E-03  0.1898E-03  0.8023E+05
   -1.260005   20.78813  0.0000E+00  0.1515E-04  0.2266E-05  0.4749E-03  0.1428E-03 -0.3238E+08
   -1.295003   20.84981  0.0000E+00  0.1396E-04  0.3577E-05  0.4486E-03  0.1034E-03  0.3338E+07
   -1.330002   20.81137  0.0000E+00  0.1187E-04  0.9143E-05  0.2638E-03  0.8939E-04 -0.1038E+11
   -1.365000   20.98928  0.0000E+00  0.9206E-05  0.1437E-04  0.2667E-03  0.5494E-04 -0.4845E+08
   -1.399998   20.93874  0.0000E+00  0.0000E+00  0.0000E+00  0.0000E+00  0.1101E-03  0.0000E+00
