 1 - depth, m
 2 - temperature, C
 3 - salinity, kg/kg
 4 - turbulent kinetic energy, m**2/s**2
 5 - dissipation rate, m**2/s**3
 6 - kinematic heat conductance, m**2/s
 7 - modulus of horizontal velocity, m/s
 8 - Richardson number, n/d
   -0.000000    0.00222  0.0000E+00  0.9907E-03  0.2050E-02  0.1072E-03  0.4699E+00  0.5282E-01
   -0.035000    0.09197  0.0000E+00  0.7931E-03  0.9041E-03  0.3244E-03  0.1834E+00  0.1174E+01
   -0.070000    0.14241  0.0000E+00  0.6339E-03  0.4111E-03  0.4358E-03  0.1182E+00 -0.8467E-01
   -0.105000    0.16649  0.0000E+00  0.5539E-03  0.2721E-03  0.5188E-03  0.9563E-01  0.7609E-01
   -0.140001    0.18031  0.0000E+00  0.5032E-03  0.1899E-03  0.5823E-03  0.8401E-01  0.2345E-01
   -0.175002    0.19021  0.0000E+00  0.4661E-03  0.1361E-03  0.6359E-03  0.7622E-01  0.8270E-01
   -0.210003    0.19800  0.0000E+00  0.4368E-03  0.9906E-04  0.6822E-03  0.7017E-01  0.2872E-01
   -0.245005    0.20478  0.0000E+00  0.4128E-03  0.7355E-04  0.7227E-03  0.6502E-01  0.1105E-01
   -0.280007    0.21105  0.0000E+00  0.3913E-03  0.5583E-04  0.7525E-03  0.6027E-01  0.1122E-01
   -0.315008    0.21725  0.0000E+00  0.3714E-03  0.4327E-04  0.7937E-03  0.5536E-01 -0.7654E-01
   -0.350011    0.22336  0.0000E+00  0.3539E-03  0.3417E-04  0.8255E-03  0.5148E-01  0.1349E+00
   -0.385013    0.22948  0.0000E+00  0.3383E-03  0.2746E-04  0.8508E-03  0.4809E-01  0.1511E+01
   -0.420015    0.23564  0.0000E+00  0.3236E-03  0.2246E-04  0.8554E-03  0.4505E-01  0.7934E+00
   -0.455018    0.24210  0.0000E+00  0.3097E-03  0.1874E-04  0.8621E-03  0.4201E-01  0.3235E+01
   -0.490021    0.24909  0.0000E+00  0.2961E-03  0.1599E-04  0.8597E-03  0.3891E-01  0.1086E+03
   -0.525024    0.25779  0.0000E+00  0.2815E-03  0.1378E-04  0.8934E-03  0.3591E-01  0.4743E+05
   -0.560026    0.26963  0.0000E+00  0.2668E-03  0.1189E-04  0.9284E-03  0.3356E-01  0.1273E+10
   -0.595029    0.28636  0.0000E+00  0.2504E-03  0.1002E-04  0.9282E-03  0.3175E-01  0.2040E+05
   -0.630033    0.30358  0.0000E+00  0.2350E-03  0.8440E-05  0.9061E-03  0.3056E-01  0.1172E+06
   -0.665036    0.32164  0.0000E+00  0.2212E-03  0.7183E-05  0.8865E-03  0.2920E-01  0.1217E+06
   -0.700039    0.34174  0.0000E+00  0.2087E-03  0.6178E-05  0.8655E-03  0.2778E-01  0.8285E+05
   -0.735042    0.36355  0.0000E+00  0.1972E-03  0.5365E-05  0.8456E-03  0.2638E-01  0.2896E+06
   -0.770045    0.38686  0.0000E+00  0.1865E-03  0.4703E-05  0.8240E-03  0.2503E-01  0.2655E+07
   -0.805048    0.41409  0.0000E+00  0.1765E-03  0.4158E-05  0.8003E-03  0.2371E-01  0.1120E+08
   -0.840051    0.44571  0.0000E+00  0.1671E-03  0.3711E-05  0.7764E-03  0.2242E-01  0.4770E+08
   -0.875054    0.48380  0.0000E+00  0.1584E-03  0.3341E-05  0.7520E-03  0.2115E-01  0.1206E+11
   -0.910057    0.53244  0.0000E+00  0.1502E-03  0.3034E-05  0.7244E-03  0.1992E-01  0.5475E+10
   -0.945059    0.59547  0.0000E+00  0.1425E-03  0.2780E-05  0.6969E-03  0.1869E-01  0.1431E+12
   -0.980062    0.68339  0.0000E+00  0.1354E-03  0.2574E-05  0.6715E-03  0.1745E-01  0.2445E+12
   -1.015064    0.77771  0.0000E+00  0.1287E-03  0.2408E-05  0.6464E-03  0.1623E-01 -0.2859E+12
   -1.050067    0.90066  0.0000E+00  0.1223E-03  0.2278E-05  0.6207E-03  0.1506E-01  0.9749E+12
   -1.085069    1.02926  0.0000E+00  0.1161E-03  0.2185E-05  0.5895E-03  0.1396E-01  0.1666E+13
   -1.120071    1.18419  0.0000E+00  0.1102E-03  0.2135E-05  0.5560E-03  0.1291E-01  0.2164E+14
   -1.155073    1.37031  0.0000E+00  0.1045E-03  0.2141E-05  0.5261E-03  0.1181E-01  0.4705E+13
   -1.190074    1.59198  0.0000E+00  0.9920E-04  0.2228E-05  0.4983E-03  0.1076E-01 -0.2104E+13
   -1.225075    1.80136  0.0000E+00  0.9369E-04  0.2447E-05  0.4712E-03  0.9706E-02 -0.4681E+13
   -1.260076    2.00669  0.0000E+00  0.8715E-04  0.2962E-05  0.4672E-03  0.8674E-02 -0.8466E+13
   -1.295077    2.20070  0.0000E+00  0.7671E-04  0.4426E-05  0.3300E-03  0.7680E-02 -0.2388E+14
   -1.330078    2.43210  0.0000E+00  0.6186E-04  0.7946E-05  0.1870E-03  0.6942E-02 -0.6622E+14
   -1.365078    2.65562  0.0000E+00  0.3882E-04  0.2008E-04  0.4866E-04  0.5684E-02 -0.5431E+15
   -1.400077    3.11321  0.0000E+00  0.0000E+00  0.0000E+00  0.0000E+00  0.6408E-02  0.0000E+00
