 1 - depth, m
 2 - temperature, C
 3 - salinity, kg/kg
 4 - turbulent kinetic energy, m**2/s**2
 5 - dissipation rate, m**2/s**3
 6 - kinematic heat conductance, m**2/s
 7 - modulus of horizontal velocity, m/s
 8 - Richardson number, n/d
   -0.000000   18.60480  0.0000E+00  0.4010E-04  0.9393E-05  0.2981E-04  0.3804E-01 -0.6430E-01
   -0.034998   18.67814  0.0000E+00  0.2681E-04  0.2764E-05  0.8303E-04  0.1548E-01  0.1233E+02
   -0.069996   18.69393  0.0000E+00  0.2218E-04  0.1302E-05  0.1353E-03  0.1128E-01  0.3746E+01
   -0.104994   18.70336  0.0000E+00  0.1984E-04  0.7410E-06  0.2010E-03  0.9164E-02  0.6255E+03
   -0.139993   18.70988  0.0000E+00  0.1854E-04  0.4740E-06  0.2856E-03  0.7688E-02  0.5702E+02
   -0.174992   18.71457  0.0000E+00  0.1785E-04  0.3308E-06  0.3513E-03  0.6566E-02  0.1251E+03
   -0.209991   18.71823  0.0000E+00  0.1755E-04  0.2474E-06  0.4138E-03  0.5643E-02  0.2354E+03
   -0.244990   18.72115  0.0000E+00  0.1750E-04  0.1959E-06  0.4721E-03  0.4851E-02  0.1680E+04
   -0.279990   18.72355  0.0000E+00  0.1760E-04  0.1621E-06  0.5260E-03  0.4142E-02  0.2389E+03
   -0.314990   18.72563  0.0000E+00  0.1776E-04  0.1386E-06  0.5909E-03  0.3480E-02  0.9234E+02
   -0.349990   18.72749  0.0000E+00  0.1799E-04  0.1217E-06  0.6535E-03  0.2914E-02  0.3205E+02
   -0.384990   18.72923  0.0000E+00  0.1827E-04  0.1094E-06  0.7183E-03  0.2425E-02  0.3863E+01
   -0.419991   18.73086  0.0000E+00  0.1861E-04  0.1009E-06  0.7795E-03  0.2006E-02  0.2665E+01
   -0.454991   18.73239  0.0000E+00  0.1898E-04  0.9524E-07  0.8410E-03  0.1628E-02  0.2247E+01
   -0.489992   18.73386  0.0000E+00  0.1940E-04  0.9208E-07  0.8972E-03  0.1288E-02  0.1959E+01
   -0.524993   18.73525  0.0000E+00  0.1989E-04  0.9091E-07  0.9693E-03  0.9814E-03  0.1518E+01
   -0.559994   18.73675  0.0000E+00  0.2044E-04  0.9148E-07  0.1075E-02  0.7531E-03  0.1370E+01
   -0.594995   18.73841  0.0000E+00  0.2098E-04  0.9328E-07  0.1232E-02  0.6061E-03  0.1232E+01
   -0.629996   18.74038  0.0000E+00  0.2133E-04  0.9526E-07  0.1328E-02  0.5239E-03  0.1412E+01
   -0.664997   18.74222  0.0000E+00  0.2156E-04  0.9758E-07  0.1341E-02  0.4682E-03  0.1384E+01
   -0.699998   18.74405  0.0000E+00  0.2171E-04  0.1004E-06  0.1347E-02  0.4204E-03  0.1359E+01
   -0.734999   18.74588  0.0000E+00  0.2181E-04  0.1037E-06  0.1341E-02  0.3802E-03  0.1393E+01
   -0.770000   18.74774  0.0000E+00  0.2184E-04  0.1076E-06  0.1317E-02  0.3465E-03  0.1471E+01
   -0.805001   18.74969  0.0000E+00  0.2183E-04  0.1122E-06  0.1290E-02  0.3180E-03  0.6158E+01
   -0.840002   18.75175  0.0000E+00  0.2176E-04  0.1178E-06  0.1269E-02  0.2935E-03  0.1845E+01
   -0.875003   18.75393  0.0000E+00  0.2164E-04  0.1250E-06  0.1197E-02  0.2719E-03 -0.9578E+02
   -0.910004   18.75633  0.0000E+00  0.2145E-04  0.1341E-06  0.1156E-02  0.2523E-03  0.1110E+02
   -0.945004   18.75899  0.0000E+00  0.2119E-04  0.1461E-06  0.1117E-02  0.2338E-03  0.5297E+03
   -0.980005   18.76186  0.0000E+00  0.2086E-04  0.1626E-06  0.1067E-02  0.2162E-03  0.4264E+03
   -1.015005   18.76535  0.0000E+00  0.2043E-04  0.1852E-06  0.1026E-02  0.1977E-03  0.3904E+03
   -1.050006   18.76924  0.0000E+00  0.1988E-04  0.2189E-06  0.9551E-03  0.1790E-03  0.1984E+04
   -1.085006   18.77446  0.0000E+00  0.1923E-04  0.2870E-06  0.8693E-03  0.1592E-03  0.2003E+05
   -1.120006   18.78228  0.0000E+00  0.1844E-04  0.3607E-06  0.8177E-03  0.1396E-03 -0.3828E+05
   -1.155005   18.78821  0.0000E+00  0.1760E-04  0.5061E-06  0.7552E-03  0.1207E-03  0.3630E+05
   -1.190005   18.80241  0.0000E+00  0.1665E-04  0.7055E-06  0.6969E-03  0.9845E-04  0.1037E+07
   -1.225004   18.81117  0.0000E+00  0.1585E-04  0.1042E-05  0.5836E-03  0.7692E-04 -0.6671E+06
   -1.260003   18.83792  0.0000E+00  0.1482E-04  0.2701E-05  0.5083E-03  0.5772E-04  0.1746E+09
   -1.295002   18.92594  0.0000E+00  0.1373E-04  0.4114E-05  0.4921E-03  0.4075E-04  0.1238E+08
   -1.330000   18.86469  0.0000E+00  0.1173E-04  0.1138E-04  0.2715E-03  0.3585E-04 -0.3122E+11
   -1.364998   19.14108  0.0000E+00  0.9336E-05  0.1694E-04  0.3217E-03  0.2147E-04  0.5797E+04
   -1.399996   19.02999  0.0000E+00  0.0000E+00  0.0000E+00  0.0000E+00  0.4456E-04  0.0000E+00
