 1 - depth, m
 2 - temperature, C
 3 - salinity, kg/kg
 4 - turbulent kinetic energy, m**2/s**2
 5 - dissipation rate, m**2/s**3
 6 - kinematic heat conductance, m**2/s
 7 - modulus of horizontal velocity, m/s
 8 - Richardson number, n/d
   -0.000000   -0.00056  0.0000E+00  0.1320E-03  0.7611E-04  0.4983E-04  0.1210E+00  0.1560E+00
   -0.034997    0.13991  0.0000E+00  0.8327E-04  0.2416E-04  0.7743E-04  0.4961E-01  0.9435E-01
   -0.069995    0.22019  0.0000E+00  0.6199E-04  0.1021E-04  0.8176E-04  0.3641E-01  0.1017E+00
   -0.104993    0.28935  0.0000E+00  0.4967E-04  0.5504E-05  0.8169E-04  0.3022E-01  0.1437E+00
   -0.139992    0.36003  0.0000E+00  0.4067E-04  0.3185E-05  0.8002E-04  0.2564E-01  0.2187E+00
   -0.174991    0.45424  0.0000E+00  0.3374E-04  0.1950E-05  0.7707E-04  0.2174E-01  0.2308E+00
   -0.209990    0.64551  0.0000E+00  0.2839E-04  0.1239E-05  0.7383E-04  0.1805E-01  0.2803E+00
   -0.244989    1.04317  0.0000E+00  0.2435E-04  0.8178E-06  0.7075E-04  0.1443E-01  0.2750E+00
   -0.279988    1.40593  0.0000E+00  0.2100E-04  0.5733E-06  0.7390E-04  0.1136E-01  0.8020E+01
   -0.314988    1.69478  0.0000E+00  0.1746E-04  0.4090E-06  0.9061E-04  0.8739E-02  0.5931E+00
   -0.349988    1.83653  0.0000E+00  0.1427E-04  0.2972E-06  0.1039E-03  0.6975E-02  0.1013E+03
   -0.384988    1.99324  0.0000E+00  0.1153E-04  0.2167E-06  0.1130E-03  0.5547E-02  0.6776E+03
   -0.419988    2.18338  0.0000E+00  0.9291E-05  0.1604E-06  0.1280E-03  0.4378E-02  0.4107E+02
   -0.454988    2.36196  0.0000E+00  0.7443E-05  0.1191E-06  0.1344E-03  0.3250E-02  0.5321E+03
   -0.489989    2.61751  0.0000E+00  0.5952E-05  0.8460E-07  0.1427E-03  0.2061E-02  0.1604E+04
   -0.524989    3.07905  0.0000E+00  0.4829E-05  0.5596E-07  0.1742E-03  0.1038E-02  0.2993E+06
   -0.559990    3.51126  0.0000E+00  0.4140E-05  0.3732E-07  0.2221E-03  0.5426E-03  0.6572E+09
   -0.594991    3.75572  0.0000E+00  0.3624E-05  0.2237E-07  0.2711E-03  0.3139E-03  0.1958E+07
   -0.629992    4.09567  0.0000E+00  0.3492E-05  0.1514E-07  0.3295E-03  0.1746E-03  0.1029E+08
   -0.664992    4.26341  0.0000E+00  0.3584E-05  0.1308E-07  0.3727E-03  0.1004E-03  0.9920E+06
   -0.699993    4.30192  0.0000E+00  0.3716E-05  0.1229E-07  0.4004E-03  0.7514E-04  0.1849E+08
   -0.734994    4.32713  0.0000E+00  0.3858E-05  0.1198E-07  0.4265E-03  0.6004E-04  0.2567E+08
   -0.769995    4.34876  0.0000E+00  0.4003E-05  0.1191E-07  0.4486E-03  0.4923E-04  0.2342E+07
   -0.804996    4.36869  0.0000E+00  0.4146E-05  0.1201E-07  0.4669E-03  0.4112E-04  0.1611E+07
   -0.839996    4.38781  0.0000E+00  0.4286E-05  0.1221E-07  0.4818E-03  0.3480E-04  0.1470E+07
   -0.874997    4.40638  0.0000E+00  0.4422E-05  0.1252E-07  0.4932E-03  0.3003E-04  0.1457E+07
   -0.909998    4.42474  0.0000E+00  0.4552E-05  0.1291E-07  0.5015E-03  0.2627E-04  0.1521E+07
   -0.944998    4.44275  0.0000E+00  0.4676E-05  0.1339E-07  0.5060E-03  0.2306E-04  0.1630E+07
   -0.979998    4.46050  0.0000E+00  0.4792E-05  0.1396E-07  0.5065E-03  0.2018E-04  0.1818E+07
   -1.014998    4.47799  0.0000E+00  0.4903E-05  0.1465E-07  0.5022E-03  0.1760E-04  0.2013E+07
   -1.049999    4.49584  0.0000E+00  0.5011E-05  0.1549E-07  0.4930E-03  0.1528E-04  0.2382E+07
   -1.084998    4.51439  0.0000E+00  0.5114E-05  0.1653E-07  0.4788E-03  0.1324E-04  0.3099E+07
   -1.119998    4.53422  0.0000E+00  0.5209E-05  0.1782E-07  0.4599E-03  0.1141E-04  0.4008E+07
   -1.154998    4.55483  0.0000E+00  0.5295E-05  0.1944E-07  0.4355E-03  0.9738E-05  0.5295E+07
   -1.189997    4.57633  0.0000E+00  0.5375E-05  0.2155E-07  0.4032E-03  0.8191E-05  0.6727E+07
   -1.224996    4.59845  0.0000E+00  0.5454E-05  0.2471E-07  0.3633E-03  0.6904E-05  0.1053E+08
   -1.259994    4.62368  0.0000E+00  0.5528E-05  0.3031E-07  0.2875E-03  0.5593E-05  0.2145E+08
   -1.294993    4.65540  0.0000E+00  0.5531E-05  0.4411E-07  0.2332E-03  0.4371E-05  0.1071E+09
   -1.329991    4.73222  0.0000E+00  0.5225E-05  0.7631E-07  0.1245E-03  0.3312E-05  0.1281E+12
   -1.364989    4.88336  0.0000E+00  0.3697E-05  0.1916E-06  0.3797E-04  0.2314E-05 -0.2749E+12
   -1.399986    5.23867  0.0000E+00  0.0000E+00  0.0000E+00  0.0000E+00  0.2389E-05  0.0000E+00
