 1 - depth, m
 2 - temperature, C
 3 - salinity, kg/kg
 4 - turbulent kinetic energy, m**2/s**2
 5 - dissipation rate, m**2/s**3
 6 - kinematic heat conductance, m**2/s
 7 - modulus of horizontal velocity, m/s
 8 - Richardson number, n/d
   -0.000000    8.83325  0.0000E+00  0.1744E-04  0.2030E-05  0.2270E-04  0.1948E-01 -0.1368E+00
   -0.034998    8.97875  0.0000E+00  0.1430E-04  0.6511E-06  0.9430E-04  0.9591E-02  0.3541E+02
   -0.069996    9.01523  0.0000E+00  0.1335E-04  0.3431E-06  0.1628E-03  0.7169E-02  0.2258E+03
   -0.104994    9.03511  0.0000E+00  0.1311E-04  0.2235E-06  0.2474E-03  0.5859E-02  0.9737E+02
   -0.139993    9.04762  0.0000E+00  0.1326E-04  0.1655E-06  0.3402E-03  0.4960E-02  0.8032E+02
   -0.174992    9.05618  0.0000E+00  0.1363E-04  0.1330E-06  0.4087E-03  0.4267E-02  0.7300E+02
   -0.209991    9.06296  0.0000E+00  0.1413E-04  0.1125E-06  0.4645E-03  0.3674E-02  0.3835E+05
   -0.244990    9.06873  0.0000E+00  0.1468E-04  0.9875E-07  0.5197E-03  0.3146E-02  0.2575E+02
   -0.279990    9.07383  0.0000E+00  0.1526E-04  0.8902E-07  0.5806E-03  0.2664E-02  0.5824E+01
   -0.314990    9.07834  0.0000E+00  0.1583E-04  0.8197E-07  0.6572E-03  0.2215E-02  0.3167E+01
   -0.349990    9.08241  0.0000E+00  0.1639E-04  0.7703E-07  0.7368E-03  0.1833E-02  0.2373E+01
   -0.384990    9.08614  0.0000E+00  0.1694E-04  0.7389E-07  0.8163E-03  0.1511E-02  0.1933E+01
   -0.419990    9.08961  0.0000E+00  0.1749E-04  0.7232E-07  0.8898E-03  0.1241E-02  0.1725E+01
   -0.454991    9.09284  0.0000E+00  0.1803E-04  0.7216E-07  0.9589E-03  0.1004E-02  0.1557E+01
   -0.489991    9.09589  0.0000E+00  0.1857E-04  0.7331E-07  0.1018E-02  0.7982E-03  0.1432E+01
   -0.524992    9.09879  0.0000E+00  0.1916E-04  0.7585E-07  0.1090E-02  0.6201E-03  0.1269E+01
   -0.559993    9.10195  0.0000E+00  0.1979E-04  0.7963E-07  0.1192E-02  0.4920E-03  0.1253E+01
   -0.594994    9.10550  0.0000E+00  0.2038E-04  0.8421E-07  0.1330E-02  0.4121E-03  0.1211E+01
   -0.629995    9.11002  0.0000E+00  0.2076E-04  0.8807E-07  0.1403E-02  0.3629E-03  0.1489E+01
   -0.664996    9.11444  0.0000E+00  0.2102E-04  0.9175E-07  0.1402E-02  0.3324E-03  0.1525E+01
   -0.699997    9.11891  0.0000E+00  0.2120E-04  0.9565E-07  0.1388E-02  0.3059E-03  0.1573E+01
   -0.734998    9.12348  0.0000E+00  0.2132E-04  0.9991E-07  0.1363E-02  0.2829E-03  0.1768E+01
   -0.769999    9.12824  0.0000E+00  0.2138E-04  0.1048E-06  0.1329E-02  0.2630E-03  0.1887E+01
   -0.805000    9.13330  0.0000E+00  0.2139E-04  0.1104E-06  0.1327E-02  0.2452E-03  0.4588E+01
   -0.840001    9.13856  0.0000E+00  0.2133E-04  0.1174E-06  0.1251E-02  0.2293E-03  0.9893E+01
   -0.875002    9.14454  0.0000E+00  0.2121E-04  0.1260E-06  0.1181E-02  0.2143E-03  0.3073E+04
   -0.910002    9.15107  0.0000E+00  0.2101E-04  0.1371E-06  0.1156E-02  0.2000E-03  0.1568E+03
   -0.945003    9.15847  0.0000E+00  0.2074E-04  0.1514E-06  0.1112E-02  0.1858E-03  0.1318E+05
   -0.980004    9.16643  0.0000E+00  0.2038E-04  0.1724E-06  0.1036E-02  0.1720E-03  0.1449E+05
   -1.015004    9.17668  0.0000E+00  0.1995E-04  0.1985E-06  0.1000E-02  0.1566E-03  0.6078E+04
   -1.050004    9.18717  0.0000E+00  0.1940E-04  0.2370E-06  0.9375E-03  0.1417E-03  0.2049E+05
   -1.085004    9.20102  0.0000E+00  0.1877E-04  0.3375E-06  0.8939E-03  0.1257E-03  0.5523E+05
   -1.120004    9.22352  0.0000E+00  0.1800E-04  0.4280E-06  0.7914E-03  0.1103E-03  0.6807E+08
   -1.155004    9.23867  0.0000E+00  0.1718E-04  0.6182E-06  0.7298E-03  0.9543E-04  0.7042E+06
   -1.190003    9.27989  0.0000E+00  0.1627E-04  0.8585E-06  0.6733E-03  0.7762E-04  0.4964E+08
   -1.225002    9.30003  0.0000E+00  0.1551E-04  0.1244E-05  0.5774E-03  0.6059E-04 -0.4455E+07
   -1.260001    9.37601  0.0000E+00  0.1451E-04  0.3022E-05  0.5343E-03  0.4547E-04  0.2543E+09
   -1.295000    9.60204  0.0000E+00  0.1351E-04  0.4603E-05  0.5065E-03  0.3198E-04  0.3055E+09
   -1.329998    9.44204  0.0000E+00  0.1183E-04  0.1432E-04  0.2974E-03  0.2797E-04 -0.9496E+10
   -1.364996   10.16631  0.0000E+00  0.9399E-05  0.2058E-04  0.3353E-03  0.1691E-04 -0.1049E+07
   -1.399994    9.85680  0.0000E+00  0.0000E+00  0.0000E+00  0.0000E+00  0.3513E-04  0.0000E+00
