 1 - depth, m
 2 - temperature, C
 3 - salinity, kg/kg
 4 - turbulent kinetic energy, m**2/s**2
 5 - dissipation rate, m**2/s**3
 6 - kinematic heat conductance, m**2/s
 7 - modulus of horizontal velocity, m/s
 8 - Richardson number, n/d
   -0.000000   16.44943  0.0000E+00  0.2441E-03  0.9474E-03  0.7742E-04  0.1400E+00 -0.1951E+00
   -0.034998   16.63252  0.0000E+00  0.1234E-03  0.3487E-03  0.9847E-04  0.4744E-01  0.5482E+01
   -0.069997   16.73635  0.0000E+00  0.7859E-04  0.1217E-03  0.1825E-03  0.2636E-01  0.1911E+02
   -0.104996   16.78702  0.0000E+00  0.6228E-04  0.7423E-04  0.2423E-03  0.1893E-01  0.2243E+02
   -0.139995   16.80973  0.0000E+00  0.5291E-04  0.4753E-04  0.2999E-03  0.1492E-01  0.8405E+03
   -0.174994   16.82311  0.0000E+00  0.4645E-04  0.3073E-04  0.3540E-03  0.1216E-01  0.7129E+02
   -0.209994   16.83159  0.0000E+00  0.4144E-04  0.1981E-04  0.4093E-03  0.1013E-01  0.2730E+03
   -0.244994   16.83807  0.0000E+00  0.3799E-04  0.1271E-04  0.4635E-03  0.8742E-02  0.9849E+03
   -0.279994   16.84349  0.0000E+00  0.3569E-04  0.7971E-05  0.5182E-03  0.7532E-02  0.1824E+03
   -0.314995   16.85434  0.0000E+00  0.3328E-04  0.5055E-05  0.6120E-03  0.6020E-02  0.5474E+03
   -0.349995   16.85769  0.0000E+00  0.3159E-04  0.3299E-05  0.7453E-03  0.5134E-02  0.3707E+02
   -0.384996   16.86064  0.0000E+00  0.3032E-04  0.2178E-05  0.8249E-03  0.4472E-02  0.1917E+03
   -0.419997   16.86330  0.0000E+00  0.2940E-04  0.1499E-05  0.7534E-03  0.3908E-02  0.6838E+02
   -0.454998   16.86596  0.0000E+00  0.2884E-04  0.1041E-05  0.8244E-03  0.3310E-02  0.3524E+02
   -0.490000   16.86868  0.0000E+00  0.2850E-04  0.7600E-06  0.8827E-03  0.2746E-02  0.4154E+02
   -0.525001   16.87123  0.0000E+00  0.2827E-04  0.5864E-06  0.9498E-03  0.2233E-02  0.9970E+01
   -0.560002   16.87389  0.0000E+00  0.2802E-04  0.4567E-06  0.1030E-02  0.1843E-02  0.2340E+03
   -0.595004   16.87669  0.0000E+00  0.2770E-04  0.3476E-06  0.1165E-02  0.1567E-02  0.2795E+03
   -0.630005   16.88028  0.0000E+00  0.2738E-04  0.2803E-06  0.1198E-02  0.1432E-02  0.8965E+04
   -0.665007   16.88336  0.0000E+00  0.2710E-04  0.2350E-06  0.1215E-02  0.1289E-02 -0.5536E+03
   -0.700008   16.88656  0.0000E+00  0.2681E-04  0.2088E-06  0.1218E-02  0.1155E-02  0.3008E+02
   -0.735010   16.88960  0.0000E+00  0.2651E-04  0.1926E-06  0.1200E-02  0.1035E-02  0.3867E+02
   -0.770012   16.89281  0.0000E+00  0.2615E-04  0.1826E-06  0.1215E-02  0.9108E-03  0.6567E+03
   -0.805013   16.89605  0.0000E+00  0.2578E-04  0.1771E-06  0.1163E-02  0.8029E-03  0.5272E+03
   -0.840015   16.89960  0.0000E+00  0.2540E-04  0.1758E-06  0.1206E-02  0.6994E-03  0.6055E+04
   -0.875016   16.90285  0.0000E+00  0.2506E-04  0.1793E-06  0.1164E-02  0.6250E-03  0.1770E+02
   -0.910017   16.90645  0.0000E+00  0.2468E-04  0.1878E-06  0.1082E-02  0.5723E-03  0.8922E+03
   -0.945019   16.91042  0.0000E+00  0.2421E-04  0.2002E-06  0.1072E-02  0.5129E-03  0.4966E+03
   -0.980020   16.91482  0.0000E+00  0.2366E-04  0.2213E-06  0.1013E-02  0.4523E-03  0.3340E+04
   -1.015021   16.91991  0.0000E+00  0.2306E-04  0.2506E-06  0.9603E-03  0.4046E-03  0.4921E+04
   -1.050021   16.92569  0.0000E+00  0.2233E-04  0.2949E-06  0.9147E-03  0.3540E-03  0.2654E+06
   -1.085022   16.93220  0.0000E+00  0.2147E-04  0.3888E-06  0.8448E-03  0.3067E-03  0.5292E+04
   -1.120022   16.94409  0.0000E+00  0.2050E-04  0.5053E-06  0.8095E-03  0.2625E-03  0.1136E+06
   -1.155023   16.95172  0.0000E+00  0.1947E-04  0.7288E-06  0.7299E-03  0.2218E-03  0.1224E+06
   -1.190023   16.97226  0.0000E+00  0.1838E-04  0.1037E-05  0.6632E-03  0.1779E-03  0.1892E+07
   -1.225022   16.98427  0.0000E+00  0.1741E-04  0.1572E-05  0.5737E-03  0.1345E-03 -0.1077E+09
   -1.260022   17.02528  0.0000E+00  0.1619E-04  0.3388E-05  0.5409E-03  0.9870E-04  0.1393E+11
   -1.295021   17.13721  0.0000E+00  0.1497E-04  0.5491E-05  0.4791E-03  0.6839E-04  0.8180E+08
   -1.330020   17.05044  0.0000E+00  0.1296E-04  0.1674E-04  0.2788E-03  0.6035E-04 -0.5442E+10
   -1.365019   17.43236  0.0000E+00  0.1039E-04  0.2418E-04  0.3455E-03  0.3571E-04 -0.1353E+08
   -1.400017   17.26971  0.0000E+00  0.0000E+00  0.0000E+00  0.0000E+00  0.7833E-04  0.0000E+00
