 1 - depth, m
 2 - temperature, C
 3 - salinity, kg/kg
 4 - turbulent kinetic energy, m**2/s**2
 5 - dissipation rate, m**2/s**3
 6 - kinematic heat conductance, m**2/s
 7 - modulus of horizontal velocity, m/s
 8 - Richardson number, n/d
   -0.000000    4.22241  0.0000E+00  0.2402E-02  0.5771E+00  0.1666E-03  0.7631E+00  0.6068E-03
   -0.034998    4.62780  0.0000E+00  0.1519E-02  0.4756E+00  0.3062E-03  0.2293E+00 -0.6062E-01
   -0.069996    4.80771  0.0000E+00  0.9500E-03  0.4015E+00  0.3947E-03  0.1207E+00 -0.9710E-01
   -0.104994    4.88333  0.0000E+00  0.7096E-03  0.1965E+00  0.4761E-03  0.8612E-01  0.9880E+00
   -0.139993    4.91621  0.0000E+00  0.5525E-03  0.9304E-01  0.4802E-03  0.6804E-01 -0.1481E-01
   -0.174991    4.93321  0.0000E+00  0.4444E-03  0.4041E-01  0.4961E-03  0.5769E-01  0.3647E-01
   -0.209991    4.94430  0.0000E+00  0.3696E-03  0.1591E-01  0.4965E-03  0.5087E-01 -0.4492E+00
   -0.244990    4.95346  0.0000E+00  0.3163E-03  0.5700E-02  0.4974E-03  0.4537E-01 -0.8470E-02
   -0.279990    4.96239  0.0000E+00  0.2770E-03  0.1931E-02  0.4987E-03  0.4021E-01  0.1552E-01
   -0.314990    4.97095  0.0000E+00  0.2449E-03  0.6977E-03  0.5227E-03  0.3423E-01  0.8416E-01
   -0.349990    4.97935  0.0000E+00  0.2218E-03  0.3136E-03  0.5296E-03  0.3066E-01  0.2680E+01
   -0.384990    4.98665  0.0000E+00  0.2028E-03  0.1835E-03  0.5403E-03  0.2764E-01 -0.3801E+01
   -0.419990    4.99460  0.0000E+00  0.1872E-03  0.1266E-03  0.5443E-03  0.2522E-01  0.3578E+01
   -0.454991    5.00247  0.0000E+00  0.1742E-03  0.9445E-04  0.5476E-03  0.2277E-01  0.8872E+00
   -0.489991    5.01029  0.0000E+00  0.1631E-03  0.7388E-04  0.5500E-03  0.2022E-01  0.1633E+02
   -0.524992    5.01977  0.0000E+00  0.1519E-03  0.5918E-04  0.5808E-03  0.1746E-01 -0.1315E+03
   -0.559993    5.02929  0.0000E+00  0.1416E-03  0.4751E-04  0.6174E-03  0.1587E-01 -0.1690E+01
   -0.594994    5.04468  0.0000E+00  0.1305E-03  0.3657E-04  0.6622E-03  0.1480E-01 -0.4722E+02
   -0.629995    5.05919  0.0000E+00  0.1202E-03  0.2798E-04  0.6783E-03  0.1449E-01 -0.1528E+04
   -0.664996    5.07446  0.0000E+00  0.1113E-03  0.2153E-04  0.6981E-03  0.1374E-01  0.1424E+04
   -0.699997    5.08771  0.0000E+00  0.1035E-03  0.1672E-04  0.7332E-03  0.1290E-01  0.6216E+04
   -0.734998    5.10062  0.0000E+00  0.9656E-04  0.1307E-04  0.7780E-03  0.1208E-01 -0.7090E+04
   -0.769999    5.11490  0.0000E+00  0.9028E-04  0.1021E-04  0.8246E-03  0.1129E-01 -0.2420E+04
   -0.805000    5.12692  0.0000E+00  0.8453E-04  0.7988E-05  0.8499E-03  0.1056E-01  0.4893E+04
   -0.840000    5.13982  0.0000E+00  0.7925E-04  0.6341E-05  0.8771E-03  0.9839E-02  0.7387E+03
   -0.875001    5.15264  0.0000E+00  0.7438E-04  0.5009E-05  0.9105E-03  0.9151E-02  0.1288E+04
   -0.910002    5.16590  0.0000E+00  0.6979E-04  0.3988E-05  0.9292E-03  0.8504E-02  0.2387E+03
   -0.945003    5.17771  0.0000E+00  0.6565E-04  0.3194E-05  0.9052E-03  0.7864E-02  0.5923E+02
   -0.980003    5.19165  0.0000E+00  0.6190E-04  0.2620E-05  0.8518E-03  0.7248E-02  0.8773E+02
   -1.015003    5.20505  0.0000E+00  0.5831E-04  0.2243E-05  0.8690E-03  0.6638E-02  0.2377E+04
   -1.050004    5.21884  0.0000E+00  0.5469E-04  0.1964E-05  0.8351E-03  0.6035E-02  0.3843E+03
   -1.085004    5.23348  0.0000E+00  0.5111E-04  0.1720E-05  0.7980E-03  0.5468E-02  0.4272E+03
   -1.120004    5.25144  0.0000E+00  0.4760E-04  0.1654E-05  0.7356E-03  0.4944E-02  0.6951E+03
   -1.155003    5.27006  0.0000E+00  0.4413E-04  0.1704E-05  0.6797E-03  0.4409E-02  0.2994E+04
   -1.190003    5.29384  0.0000E+00  0.4068E-04  0.1882E-05  0.6081E-03  0.3827E-02  0.2307E+04
   -1.225002    5.32178  0.0000E+00  0.3712E-04  0.2356E-05  0.5536E-03  0.3172E-02  0.1624E+06
   -1.260001    5.35650  0.0000E+00  0.3323E-04  0.3522E-05  0.4567E-03  0.2547E-02  0.1339E+07
   -1.294999    5.45680  0.0000E+00  0.2853E-04  0.6679E-05  0.4379E-03  0.2010E-02 -0.1960E+06
   -1.329998    5.49279  0.0000E+00  0.2325E-04  0.1487E-04  0.2586E-03  0.1810E-02 -0.7963E+06
   -1.364996    5.90454  0.0000E+00  0.1665E-04  0.2678E-04  0.2164E-03  0.1295E-02 -0.1355E+08
   -1.399993    5.93841  0.0000E+00  0.0000E+00  0.0000E+00  0.0000E+00  0.2234E-02  0.0000E+00
