 1 - depth, m
 2 - temperature, C
 3 - salinity, kg/kg
 4 - turbulent kinetic energy, m**2/s**2
 5 - dissipation rate, m**2/s**3
 6 - kinematic heat conductance, m**2/s
 7 - modulus of horizontal velocity, m/s
 8 - Richardson number, n/d
   -0.000000    4.57574  0.0000E+00  0.1158E-02  0.4731E-02  0.1061E-03  0.4954E+00 -0.1676E-03
   -0.034998    5.13487  0.0000E+00  0.6274E-03  0.2020E-02  0.2461E-03  0.1441E+00 -0.3948E-01
   -0.069996    5.32758  0.0000E+00  0.4140E-03  0.6969E-03  0.3373E-03  0.7998E-01  0.3896E+00
   -0.104994    5.40397  0.0000E+00  0.3238E-03  0.4150E-03  0.3596E-03  0.6038E-01 -0.2307E-01
   -0.139993    5.44635  0.0000E+00  0.2692E-03  0.2589E-03  0.3587E-03  0.4962E-01 -0.5734E-01
   -0.174992    5.47595  0.0000E+00  0.2296E-03  0.1732E-03  0.3626E-03  0.4194E-01 -0.6734E-02
   -0.209991    5.49511  0.0000E+00  0.1999E-03  0.1195E-03  0.3626E-03  0.3648E-01 -0.1653E-01
   -0.244990    5.51156  0.0000E+00  0.1758E-03  0.8243E-04  0.3640E-03  0.3197E-01 -0.1654E-01
   -0.279990    5.52542  0.0000E+00  0.1564E-03  0.5733E-04  0.3660E-03  0.2778E-01 -0.1654E-01
   -0.314990    5.54166  0.0000E+00  0.1398E-03  0.3984E-04  0.3894E-03  0.2340E-01  0.3190E+01
   -0.349990    5.55354  0.0000E+00  0.1259E-03  0.2759E-04  0.4029E-03  0.2041E-01  0.1129E+01
   -0.384990    5.56571  0.0000E+00  0.1146E-03  0.1908E-04  0.4196E-03  0.1813E-01 -0.3396E+01
   -0.419990    5.57589  0.0000E+00  0.1053E-03  0.1329E-04  0.4296E-03  0.1629E-01  0.4701E+01
   -0.454991    5.58648  0.0000E+00  0.9741E-04  0.9469E-05  0.4387E-03  0.1442E-01  0.4043E+02
   -0.489992    5.59737  0.0000E+00  0.9069E-04  0.7032E-05  0.4635E-03  0.1248E-01  0.3117E+02
   -0.524992    5.60825  0.0000E+00  0.8446E-04  0.5385E-05  0.5212E-03  0.1072E-01 -0.2727E+03
   -0.559993    5.62012  0.0000E+00  0.7855E-04  0.4240E-05  0.6279E-03  0.9531E-02  0.7016E+03
   -0.594994    5.63268  0.0000E+00  0.7212E-04  0.3214E-05  0.7445E-03  0.8726E-02  0.1777E+02
   -0.629995    5.64587  0.0000E+00  0.6619E-04  0.2398E-05  0.8044E-03  0.8364E-02  0.3793E+03
   -0.664996    5.65801  0.0000E+00  0.6102E-04  0.1830E-05  0.8416E-03  0.7791E-02  0.2990E+03
   -0.699997    5.67022  0.0000E+00  0.5652E-04  0.1424E-05  0.8734E-03  0.7180E-02  0.1738E+04
   -0.734998    5.68145  0.0000E+00  0.5251E-04  0.1137E-05  0.8766E-03  0.6592E-02  0.3016E+04
   -0.769999    5.69151  0.0000E+00  0.4888E-04  0.9268E-06  0.8928E-03  0.6018E-02  0.2076E+04
   -0.805000    5.70295  0.0000E+00  0.4562E-04  0.7696E-06  0.8941E-03  0.5483E-02 -0.2521E+04
   -0.840001    5.71299  0.0000E+00  0.4267E-04  0.6498E-06  0.8872E-03  0.4984E-02  0.1611E+03
   -0.875002    5.72410  0.0000E+00  0.3993E-04  0.5555E-06  0.8814E-03  0.4500E-02  0.2158E+03
   -0.910002    5.73461  0.0000E+00  0.3736E-04  0.4803E-06  0.8637E-03  0.4052E-02  0.4833E+02
   -0.945003    5.74564  0.0000E+00  0.3495E-04  0.4212E-06  0.8488E-03  0.3613E-02  0.2362E+02
   -0.980004    5.75664  0.0000E+00  0.3275E-04  0.3762E-06  0.8183E-03  0.3200E-02  0.1846E+02
   -1.015004    5.76795  0.0000E+00  0.3070E-04  0.3434E-06  0.7872E-03  0.2816E-02  0.2012E+02
   -1.050004    5.77979  0.0000E+00  0.2871E-04  0.3205E-06  0.7412E-03  0.2461E-02  0.1610E+03
   -1.085004    5.79301  0.0000E+00  0.2673E-04  0.3093E-06  0.6958E-03  0.2138E-02  0.3400E+02
   -1.120004    5.80838  0.0000E+00  0.2478E-04  0.3164E-06  0.6464E-03  0.1848E-02  0.6755E+02
   -1.155004    5.82762  0.0000E+00  0.2288E-04  0.3546E-06  0.6042E-03  0.1575E-02  0.7374E+03
   -1.190003    5.85056  0.0000E+00  0.2098E-04  0.4545E-06  0.5296E-03  0.1312E-02  0.1278E+03
   -1.225002    5.88795  0.0000E+00  0.1911E-04  0.6675E-06  0.4958E-03  0.1037E-02  0.2204E+05
   -1.260001    5.91764  0.0000E+00  0.1705E-04  0.1283E-05  0.3670E-03  0.7898E-03  0.1320E+07
   -1.295000    6.13696  0.0000E+00  0.1484E-04  0.2773E-05  0.3687E-03  0.5604E-03  0.1231E+07
   -1.329998    6.03443  0.0000E+00  0.1230E-04  0.7380E-05  0.2098E-03  0.4885E-03 -0.8915E+08
   -1.364996    6.67580  0.0000E+00  0.9107E-05  0.1221E-04  0.2192E-03  0.3196E-03 -0.3376E+08
   -1.399994    6.48331  0.0000E+00  0.0000E+00  0.0000E+00  0.0000E+00  0.5495E-03  0.0000E+00
