 1 - depth, m
 2 - temperature, C
 3 - salinity, kg/kg
 4 - turbulent kinetic energy, m**2/s**2
 5 - dissipation rate, m**2/s**3
 6 - kinematic heat conductance, m**2/s
 7 - modulus of horizontal velocity, m/s
 8 - Richardson number, n/d
   -0.000000   19.61105  0.0000E+00  0.2561E-04  0.3635E-05  0.2543E-04  0.2795E-01 -0.1341E+00
   -0.034998   19.68083  0.0000E+00  0.1938E-04  0.1130E-05  0.6991E-04  0.1319E-01  0.5886E+01
   -0.069996   19.69984  0.0000E+00  0.1738E-04  0.5675E-06  0.1485E-03  0.9729E-02  0.1027E+02
   -0.104994   19.70949  0.0000E+00  0.1659E-04  0.3536E-06  0.2466E-03  0.7954E-02  0.1049E+03
   -0.139993   19.71531  0.0000E+00  0.1643E-04  0.2525E-06  0.3369E-03  0.6764E-02  0.1003E+03
   -0.174992   19.71931  0.0000E+00  0.1663E-04  0.1966E-06  0.3877E-03  0.5832E-02  0.1749E+03
   -0.209991   19.72255  0.0000E+00  0.1703E-04  0.1622E-06  0.4379E-03  0.5022E-02  0.1109E+03
   -0.244990   19.72529  0.0000E+00  0.1755E-04  0.1394E-06  0.4896E-03  0.4299E-02  0.5275E+02
   -0.279990   19.72773  0.0000E+00  0.1810E-04  0.1229E-06  0.5528E-03  0.3629E-02  0.1756E+02
   -0.314990   19.72992  0.0000E+00  0.1863E-04  0.1103E-06  0.6342E-03  0.2995E-02  0.4993E+01
   -0.349990   19.73187  0.0000E+00  0.1914E-04  0.1005E-06  0.7226E-03  0.2441E-02  0.3541E+01
   -0.384990   19.73363  0.0000E+00  0.1964E-04  0.9272E-07  0.9053E-03  0.1966E-02  0.2749E+01
   -0.419990   19.73511  0.0000E+00  0.1987E-04  0.8915E-07  0.1265E-02  0.1511E-02  0.1758E+01
   -0.454991   19.73616  0.0000E+00  0.2004E-04  0.8776E-07  0.1414E-02  0.1359E-02  0.1993E+01
   -0.489992   19.73711  0.0000E+00  0.2032E-04  0.8723E-07  0.8921E-03  0.1233E-02  0.1804E+01
   -0.524992   19.73866  0.0000E+00  0.2084E-04  0.8805E-07  0.9551E-03  0.9001E-03  0.1565E+01
   -0.559993   19.74023  0.0000E+00  0.2135E-04  0.9044E-07  0.1035E-02  0.6893E-03  0.1329E+01
   -0.594994   19.74187  0.0000E+00  0.2181E-04  0.9395E-07  0.1250E-02  0.5557E-03  0.1183E+01
   -0.629995   19.74364  0.0000E+00  0.2208E-04  0.9717E-07  0.1400E-02  0.4878E-03  0.1335E+01
   -0.664996   19.74525  0.0000E+00  0.2224E-04  0.1004E-06  0.1413E-02  0.4404E-03  0.1290E+01
   -0.699997   19.74688  0.0000E+00  0.2233E-04  0.1041E-06  0.1404E-02  0.3993E-03  0.1264E+01
   -0.734998   19.74852  0.0000E+00  0.2236E-04  0.1082E-06  0.1377E-02  0.3645E-03  0.2346E+01
   -0.769999   19.75026  0.0000E+00  0.2233E-04  0.1128E-06  0.1383E-02  0.3351E-03 -0.1051E+01
   -0.805000   19.75205  0.0000E+00  0.2225E-04  0.1192E-06  0.1305E-02  0.3133E-03  0.2616E+01
   -0.840001   19.75404  0.0000E+00  0.2211E-04  0.1263E-06  0.1263E-02  0.2935E-03 -0.4595E+03
   -0.875002   19.75615  0.0000E+00  0.2192E-04  0.1360E-06  0.1223E-02  0.2735E-03 -0.9643E+01
   -0.910003   19.75858  0.0000E+00  0.2164E-04  0.1497E-06  0.1163E-02  0.2547E-03  0.5453E+02
   -0.945003   19.76115  0.0000E+00  0.2130E-04  0.1683E-06  0.1128E-02  0.2367E-03  0.1567E+04
   -0.980004   19.76438  0.0000E+00  0.2087E-04  0.1916E-06  0.1093E-02  0.2181E-03  0.9734E+02
   -1.015004   19.76787  0.0000E+00  0.2035E-04  0.2221E-06  0.1038E-02  0.1996E-03  0.2333E+04
   -1.050004   19.77200  0.0000E+00  0.1972E-04  0.2855E-06  0.9787E-03  0.1801E-03  0.4364E+06
   -1.085004   19.77818  0.0000E+00  0.1898E-04  0.3780E-06  0.8789E-03  0.1595E-03 -0.1625E+05
   -1.120004   19.78593  0.0000E+00  0.1812E-04  0.4805E-06  0.8388E-03  0.1395E-03  0.9623E+05
   -1.155004   19.79174  0.0000E+00  0.1720E-04  0.7016E-06  0.7362E-03  0.1210E-03  0.4560E+05
   -1.190003   19.80885  0.0000E+00  0.1622E-04  0.9614E-06  0.7044E-03  0.9679E-04  0.4680E+06
   -1.225002   19.81345  0.0000E+00  0.1538E-04  0.1378E-05  0.6008E-03  0.7603E-04 -0.1742E+07
   -1.260001   19.85266  0.0000E+00  0.1428E-04  0.3348E-05  0.5686E-03  0.5540E-04  0.4386E+09
   -1.295000   19.92276  0.0000E+00  0.1329E-04  0.5027E-05  0.5002E-03  0.3906E-04  0.5705E+08
   -1.329998   19.86966  0.0000E+00  0.1144E-04  0.1600E-04  0.2909E-03  0.3498E-04 -0.2491E+10
   -1.364996   20.12775  0.0000E+00  0.9114E-05  0.2252E-04  0.3578E-03  0.2073E-04 -0.5030E+06
   -1.399994   20.02152  0.0000E+00  0.0000E+00  0.0000E+00  0.0000E+00  0.4559E-04  0.0000E+00
