 1 - depth, m
 2 - temperature, C
 3 - salinity, kg/kg
 4 - turbulent kinetic energy, m**2/s**2
 5 - dissipation rate, m**2/s**3
 6 - kinematic heat conductance, m**2/s
 7 - modulus of horizontal velocity, m/s
 8 - Richardson number, n/d
   -0.000000   11.73120  0.0000E+00  0.8822E-04  0.3916E-04  0.4928E-04  0.7935E-01 -0.8584E-01
   -0.034998   11.88225  0.0000E+00  0.5286E-04  0.1125E-04  0.6452E-04  0.2914E-01 -0.1502E+00
   -0.069996   11.91847  0.0000E+00  0.3990E-04  0.4470E-05  0.8732E-04  0.2016E-01 -0.2055E-01
   -0.104994   11.94061  0.0000E+00  0.3317E-04  0.2308E-05  0.1109E-03  0.1605E-01 -0.1417E-01
   -0.139993   11.95660  0.0000E+00  0.2885E-04  0.1319E-05  0.1441E-03  0.1320E-01  0.4935E+01
   -0.174992   11.96905  0.0000E+00  0.2598E-04  0.8200E-06  0.2221E-03  0.1106E-01  0.2271E+03
   -0.209991   11.97830  0.0000E+00  0.2407E-04  0.5527E-06  0.3082E-03  0.9407E-02  0.1175E+04
   -0.244990   11.98511  0.0000E+00  0.2280E-04  0.4010E-06  0.3752E-03  0.8062E-02  0.1583E+04
   -0.279990   11.99037  0.0000E+00  0.2195E-04  0.3108E-06  0.4289E-03  0.6892E-02  0.1260E+04
   -0.314990   11.99465  0.0000E+00  0.2133E-04  0.2512E-06  0.4764E-03  0.5829E-02  0.2038E+03
   -0.349990   11.99842  0.0000E+00  0.2091E-04  0.2093E-06  0.5124E-03  0.4926E-02  0.8560E+02
   -0.384990   12.00192  0.0000E+00  0.2069E-04  0.1792E-06  0.5501E-03  0.4138E-02  0.1496E+02
   -0.419990   12.00527  0.0000E+00  0.2065E-04  0.1577E-06  0.5886E-03  0.3448E-02  0.2035E+02
   -0.454991   12.00844  0.0000E+00  0.2076E-04  0.1425E-06  0.6335E-03  0.2817E-02  0.5591E+01
   -0.489992   12.01148  0.0000E+00  0.2101E-04  0.1323E-06  0.6803E-03  0.2236E-02  0.2940E+01
   -0.524992   12.01441  0.0000E+00  0.2143E-04  0.1256E-06  0.7328E-03  0.1696E-02  0.1954E+01
   -0.559993   12.01772  0.0000E+00  0.2202E-04  0.1220E-06  0.7970E-03  0.1276E-02  0.1574E+01
   -0.594994   12.02162  0.0000E+00  0.2265E-04  0.1205E-06  0.9373E-03  0.9951E-03  0.1296E+01
   -0.629995   12.02632  0.0000E+00  0.2305E-04  0.1205E-06  0.1086E-02  0.8490E-03  0.1461E+01
   -0.664996   12.03049  0.0000E+00  0.2330E-04  0.1217E-06  0.1132E-02  0.7430E-03  0.1389E+01
   -0.699997   12.03454  0.0000E+00  0.2345E-04  0.1240E-06  0.1180E-02  0.6524E-03  0.1339E+01
   -0.734998   12.03848  0.0000E+00  0.2353E-04  0.1273E-06  0.1207E-02  0.5772E-03  0.1306E+01
   -0.769999   12.04242  0.0000E+00  0.2353E-04  0.1317E-06  0.1209E-02  0.5154E-03  0.1302E+01
   -0.805000   12.04649  0.0000E+00  0.2347E-04  0.1371E-06  0.1188E-02  0.4645E-03  0.1447E+01
   -0.840001   12.05077  0.0000E+00  0.2335E-04  0.1439E-06  0.1209E-02  0.4221E-03  0.1608E+01
   -0.875002   12.05526  0.0000E+00  0.2316E-04  0.1533E-06  0.1092E-02  0.3876E-03  0.5916E+02
   -0.910003   12.06045  0.0000E+00  0.2290E-04  0.1657E-06  0.1087E-02  0.3559E-03  0.9286E+01
   -0.945003   12.06627  0.0000E+00  0.2256E-04  0.1841E-06  0.1064E-02  0.3265E-03  0.8097E+02
   -0.980004   12.07234  0.0000E+00  0.2215E-04  0.2095E-06  0.9973E-03  0.2997E-03  0.3357E+03
   -1.015004   12.08034  0.0000E+00  0.2164E-04  0.2441E-06  0.9629E-03  0.2717E-03  0.5424E+04
   -1.050004   12.08890  0.0000E+00  0.2102E-04  0.2939E-06  0.9245E-03  0.2444E-03  0.2916E+06
   -1.085004   12.09854  0.0000E+00  0.2030E-04  0.3957E-06  0.8340E-03  0.2175E-03  0.4293E+05
   -1.120004   12.11821  0.0000E+00  0.1947E-04  0.5035E-06  0.8034E-03  0.1887E-03  0.2304E+07
   -1.155004   12.12804  0.0000E+00  0.1859E-04  0.7251E-06  0.7021E-03  0.1638E-03  0.3265E+08
   -1.190003   12.16091  0.0000E+00  0.1762E-04  0.1004E-05  0.6801E-03  0.1323E-03  0.1502E+07
   -1.225003   12.17353  0.0000E+00  0.1680E-04  0.1483E-05  0.5884E-03  0.1038E-03 -0.1263E+07
   -1.260001   12.24789  0.0000E+00  0.1573E-04  0.3346E-05  0.5239E-03  0.7614E-04  0.1052E+09
   -1.295000   12.40195  0.0000E+00  0.1468E-04  0.5156E-05  0.4886E-03  0.5377E-04  0.6195E+08
   -1.329998   12.28373  0.0000E+00  0.1274E-04  0.1593E-04  0.2972E-03  0.4763E-04 -0.2183E+10
   -1.364996   12.85259  0.0000E+00  0.1019E-04  0.2315E-04  0.3366E-03  0.2848E-04 -0.2754E+06
   -1.399994   12.61233  0.0000E+00  0.0000E+00  0.0000E+00  0.0000E+00  0.6067E-04  0.0000E+00
