 1 - depth, m
 2 - temperature, C
 3 - salinity, kg/kg
 4 - turbulent kinetic energy, m**2/s**2
 5 - dissipation rate, m**2/s**3
 6 - kinematic heat conductance, m**2/s
 7 - modulus of horizontal velocity, m/s
 8 - Richardson number, n/d
   -0.000000   -0.00115  0.0000E+00  0.6145E-03  0.1235E-02  0.1041E-03  0.3739E+00  0.3516E-01
   -0.035006    0.11273  0.0000E+00  0.4242E-03  0.5482E-03  0.2412E-03  0.1225E+00  0.3672E-01
   -0.070013    0.18523  0.0000E+00  0.3229E-03  0.2511E-03  0.3063E-03  0.7461E-01  0.7680E-01
   -0.105020    0.22004  0.0000E+00  0.2703E-03  0.1576E-03  0.3285E-03  0.5857E-01  0.2503E+00
   -0.140028    0.24260  0.0000E+00  0.2364E-03  0.1059E-03  0.3466E-03  0.5054E-01  0.1137E+01
   -0.175035    0.25989  0.0000E+00  0.2121E-03  0.7329E-04  0.3631E-03  0.4499E-01  0.8203E-01
   -0.210043    0.27394  0.0000E+00  0.1928E-03  0.5128E-04  0.3756E-03  0.4055E-01 -0.1267E+01
   -0.245051    0.28668  0.0000E+00  0.1768E-03  0.3605E-04  0.3866E-03  0.3659E-01 -0.7594E-01
   -0.280060    0.29870  0.0000E+00  0.1627E-03  0.2549E-04  0.3885E-03  0.3291E-01  0.9689E-01
   -0.315068    0.31085  0.0000E+00  0.1495E-03  0.1825E-04  0.4038E-03  0.2891E-01  0.2079E-01
   -0.350077    0.32257  0.0000E+00  0.1384E-03  0.1322E-04  0.4098E-03  0.2593E-01  0.2804E+00
   -0.385086    0.33437  0.0000E+00  0.1284E-03  0.9677E-05  0.4122E-03  0.2339E-01  0.9781E+02
   -0.420095    0.34599  0.0000E+00  0.1194E-03  0.7196E-05  0.4054E-03  0.2120E-01  0.1842E+01
   -0.455104    0.35813  0.0000E+00  0.1110E-03  0.5469E-05  0.3933E-03  0.1898E-01  0.4019E+01
   -0.490114    0.37189  0.0000E+00  0.1028E-03  0.4284E-05  0.3777E-03  0.1667E-01  0.2230E+03
   -0.525123    0.39021  0.0000E+00  0.9409E-04  0.3420E-05  0.3768E-03  0.1445E-01  0.8582E+05
   -0.560133    0.41241  0.0000E+00  0.8523E-04  0.2750E-05  0.3675E-03  0.1282E-01  0.8878E+07
   -0.595142    0.44225  0.0000E+00  0.7539E-04  0.2148E-05  0.3317E-03  0.1169E-01  0.1549E+04
   -0.630152    0.47518  0.0000E+00  0.6620E-04  0.1676E-05  0.2921E-03  0.1114E-01  0.5622E+05
   -0.665162    0.51898  0.0000E+00  0.5788E-04  0.1319E-05  0.2538E-03  0.1039E-01  0.7088E+05
   -0.700171    0.57560  0.0000E+00  0.5034E-04  0.1046E-05  0.2171E-03  0.9548E-02  0.3909E+05
   -0.735181    0.65325  0.0000E+00  0.4345E-04  0.8331E-06  0.1823E-03  0.8674E-02  0.3011E+06
   -0.770191    0.77892  0.0000E+00  0.3718E-04  0.6645E-06  0.1505E-03  0.7770E-02  0.2815E+07
   -0.805201    0.97992  0.0000E+00  0.3150E-04  0.5299E-06  0.1283E-03  0.6849E-02 -0.1133E+08
   -0.840210    1.25281  0.0000E+00  0.2651E-04  0.4227E-06  0.1156E-03  0.5932E-02  0.3799E+08
   -0.875220    1.59295  0.0000E+00  0.2222E-04  0.3362E-06  0.1146E-03  0.4977E-02  0.1377E+11
   -0.910229    1.96858  0.0000E+00  0.1856E-04  0.2670E-06  0.1218E-03  0.4189E-02  0.1534E+09
   -0.945239    2.35684  0.0000E+00  0.1558E-04  0.2120E-06  0.1330E-03  0.3390E-02  0.4282E+08
   -0.980248    2.71561  0.0000E+00  0.1327E-04  0.1705E-06  0.1504E-03  0.2689E-02  0.1320E+09
   -1.015257    2.99701  0.0000E+00  0.1130E-04  0.1362E-06  0.1636E-03  0.2081E-02  0.3397E+09
   -1.050266    3.28129  0.0000E+00  0.9671E-05  0.1084E-06  0.1790E-03  0.1553E-02  0.8386E+08
   -1.085275    3.52610  0.0000E+00  0.8353E-05  0.8629E-07  0.1918E-03  0.1130E-02  0.3894E+10
   -1.120283    3.77459  0.0000E+00  0.7359E-05  0.7011E-07  0.2013E-03  0.8066E-03  0.3286E+10
   -1.155292    3.98137  0.0000E+00  0.6734E-05  0.6060E-07  0.2079E-03  0.5665E-03  0.1390E+11
   -1.190300    4.13182  0.0000E+00  0.6324E-05  0.5619E-07  0.2076E-03  0.3926E-03  0.9386E+10
   -1.225308    4.25424  0.0000E+00  0.6048E-05  0.5689E-07  0.2012E-03  0.2593E-03  0.1247E+11
   -1.260315    4.37709  0.0000E+00  0.5849E-05  0.6542E-07  0.1767E-03  0.1624E-03  0.1965E+11
   -1.295323    4.50159  0.0000E+00  0.5625E-05  0.9387E-07  0.1538E-03  0.9920E-04  0.1505E+12
   -1.330330    4.66316  0.0000E+00  0.5143E-05  0.1789E-06  0.1008E-03  0.6680E-04  0.6483E+13
   -1.365336    4.88675  0.0000E+00  0.3671E-05  0.3717E-06  0.3494E-04  0.4491E-04 -0.4589E+14
   -1.400343    5.30784  0.0000E+00  0.0000E+00  0.0000E+00  0.0000E+00  0.5457E-04  0.0000E+00
