 1 - depth, m
 2 - temperature, C
 3 - salinity, kg/kg
 4 - turbulent kinetic energy, m**2/s**2
 5 - dissipation rate, m**2/s**3
 6 - kinematic heat conductance, m**2/s
 7 - modulus of horizontal velocity, m/s
 8 - Richardson number, n/d
   -0.000000    4.99394  0.0000E+00  0.3569E-03  0.8046E-03  0.5348E-04  0.1923E+00  0.9768E+01
   -0.034998    5.32207  0.0000E+00  0.1929E-03  0.3793E-03  0.1309E-03  0.5759E-01  0.4602E+01
   -0.069996    5.42112  0.0000E+00  0.1308E-03  0.1042E-03  0.1854E-03  0.3487E-01  0.1690E+01
   -0.104994    5.46710  0.0000E+00  0.1040E-03  0.5852E-04  0.2032E-03  0.2744E-01  0.1335E+01
   -0.139993    5.49259  0.0000E+00  0.8753E-04  0.3817E-04  0.2285E-03  0.2309E-01  0.5801E+00
   -0.174992    5.51313  0.0000E+00  0.7566E-04  0.2511E-04  0.2502E-03  0.1968E-01  0.6444E+00
   -0.209991    5.52943  0.0000E+00  0.6633E-04  0.1640E-04  0.2708E-03  0.1691E-01  0.6662E+00
   -0.244990    5.54328  0.0000E+00  0.5871E-04  0.1062E-04  0.2916E-03  0.1453E-01  0.4844E+01
   -0.279990    5.55567  0.0000E+00  0.5281E-04  0.6850E-05  0.3088E-03  0.1250E-01  0.2423E+02
   -0.314990    5.57017  0.0000E+00  0.4760E-04  0.4433E-05  0.3452E-03  0.1042E-01  0.1920E+01
   -0.349990    5.58130  0.0000E+00  0.4329E-04  0.2912E-05  0.3749E-03  0.8915E-02  0.8598E+01
   -0.384990    5.59181  0.0000E+00  0.3978E-04  0.1965E-05  0.4073E-03  0.7694E-02  0.1078E+03
   -0.419991    5.60161  0.0000E+00  0.3693E-04  0.1380E-05  0.4373E-03  0.6681E-02  0.5399E+01
   -0.454991    5.61118  0.0000E+00  0.3458E-04  0.1017E-05  0.4670E-03  0.5739E-02  0.6611E+01
   -0.489992    5.62038  0.0000E+00  0.3262E-04  0.7957E-06  0.5040E-03  0.4856E-02  0.4293E+02
   -0.524993    5.62929  0.0000E+00  0.3083E-04  0.6500E-06  0.5786E-03  0.4072E-02 -0.1279E+02
   -0.559994    5.63829  0.0000E+00  0.2912E-04  0.5364E-06  0.6831E-03  0.3486E-02 -0.1298E+03
   -0.594995    5.64802  0.0000E+00  0.2719E-04  0.4324E-06  0.7647E-03  0.3066E-02  0.2894E+02
   -0.629996    5.65828  0.0000E+00  0.2542E-04  0.3512E-06  0.8002E-03  0.2798E-02  0.9961E+02
   -0.664997    5.66864  0.0000E+00  0.2390E-04  0.2924E-06  0.8033E-03  0.2534E-02 -0.7484E+03
   -0.699998    5.67814  0.0000E+00  0.2259E-04  0.2485E-06  0.8089E-03  0.2279E-02  0.1716E+01
   -0.734999    5.68802  0.0000E+00  0.2143E-04  0.2143E-06  0.8157E-03  0.2038E-02  0.3345E+03
   -0.770000    5.69756  0.0000E+00  0.2034E-04  0.1859E-06  0.8072E-03  0.1810E-02  0.2414E+02
   -0.805001    5.70746  0.0000E+00  0.1947E-04  0.1650E-06  0.8924E-03  0.1594E-02  0.5134E+03
   -0.840002    5.71675  0.0000E+00  0.1876E-04  0.1499E-06  0.8354E-03  0.1430E-02  0.4750E+02
   -0.875003    5.72667  0.0000E+00  0.1806E-04  0.1372E-06  0.7992E-03  0.1287E-02  0.1570E+02
   -0.910004    5.73703  0.0000E+00  0.1730E-04  0.1256E-06  0.7941E-03  0.1122E-02  0.1153E+02
   -0.945004    5.74762  0.0000E+00  0.1662E-04  0.1176E-06  0.7739E-03  0.9785E-03  0.1565E+02
   -0.980005    5.75851  0.0000E+00  0.1598E-04  0.1125E-06  0.7484E-03  0.8459E-03 -0.4972E+02
   -1.015005    5.77016  0.0000E+00  0.1537E-04  0.1104E-06  0.7146E-03  0.7250E-03  0.1882E+02
   -1.050005    5.78273  0.0000E+00  0.1479E-04  0.1127E-06  0.6863E-03  0.6181E-03  0.6442E+04
   -1.085006    5.79774  0.0000E+00  0.1422E-04  0.1203E-06  0.6399E-03  0.5317E-03 -0.3689E+05
   -1.120005    5.81564  0.0000E+00  0.1362E-04  0.1377E-06  0.5922E-03  0.4588E-03  0.1934E+03
   -1.155005    5.84024  0.0000E+00  0.1296E-04  0.1686E-06  0.5445E-03  0.3865E-03  0.9400E+06
   -1.190005    5.86347  0.0000E+00  0.1227E-04  0.2307E-06  0.4924E-03  0.3161E-03  0.5200E+04
   -1.225004    5.90633  0.0000E+00  0.1164E-04  0.3361E-06  0.4358E-03  0.2453E-03  0.2870E+06
   -1.260003    5.93388  0.0000E+00  0.1090E-04  0.6646E-06  0.3354E-03  0.1864E-03 -0.4852E+09
   -1.295001    6.19501  0.0000E+00  0.9988E-05  0.1295E-05  0.3300E-03  0.1305E-03  0.2929E+08
   -1.330000    6.05432  0.0000E+00  0.8570E-05  0.2971E-05  0.1726E-03  0.1143E-03 -0.5585E+10
   -1.364998    6.72582  0.0000E+00  0.6415E-05  0.5316E-05  0.1660E-03  0.7239E-04 -0.1008E+07
   -1.399996    6.57541  0.0000E+00  0.0000E+00  0.0000E+00  0.0000E+00  0.1305E-03  0.0000E+00
