 1 - depth, m
 2 - temperature, C
 3 - salinity, kg/kg
 4 - turbulent kinetic energy, m**2/s**2
 5 - dissipation rate, m**2/s**3
 6 - kinematic heat conductance, m**2/s
 7 - modulus of horizontal velocity, m/s
 8 - Richardson number, n/d
   -0.000000   14.84645  0.0000E+00  0.2109E-03  0.2185E-03  0.5954E-04  0.1463E+00  0.3892E-01
   -0.034998   15.05698  0.0000E+00  0.1219E-03  0.8187E-04  0.1029E-03  0.4612E-01 -0.3195E+00
   -0.069996   15.11631  0.0000E+00  0.8683E-04  0.2803E-04  0.1384E-03  0.2945E-01 -0.2590E+01
   -0.104995   15.14489  0.0000E+00  0.7037E-04  0.1541E-04  0.1620E-03  0.2354E-01  0.2492E+00
   -0.139993   15.16163  0.0000E+00  0.5985E-04  0.9463E-05  0.1994E-03  0.1979E-01  0.5378E+01
   -0.174992   15.17481  0.0000E+00  0.5230E-04  0.5884E-05  0.2509E-03  0.1692E-01  0.5235E+02
   -0.209992   15.18475  0.0000E+00  0.4690E-04  0.3705E-05  0.3126E-03  0.1459E-01  0.1410E+03
   -0.244991   15.19222  0.0000E+00  0.4300E-04  0.2376E-05  0.3724E-03  0.1269E-01  0.8463E+03
   -0.279991   15.19840  0.0000E+00  0.4007E-04  0.1608E-05  0.4248E-03  0.1100E-01  0.5011E+03
   -0.314991   15.20426  0.0000E+00  0.3770E-04  0.1133E-05  0.5030E-03  0.9376E-02  0.8124E+03
   -0.349991   15.20865  0.0000E+00  0.3585E-04  0.8110E-06  0.5691E-03  0.8097E-02  0.4494E+03
   -0.384992   15.21227  0.0000E+00  0.3442E-04  0.6152E-06  0.6172E-03  0.6985E-02  0.1041E+03
   -0.419992   15.21569  0.0000E+00  0.3335E-04  0.4958E-06  0.6595E-03  0.5973E-02  0.1368E+03
   -0.454993   15.21878  0.0000E+00  0.3259E-04  0.4163E-06  0.7071E-03  0.5048E-02  0.9825E+02
   -0.489994   15.22181  0.0000E+00  0.3200E-04  0.3562E-06  0.7428E-03  0.4174E-02  0.5361E+02
   -0.524995   15.22474  0.0000E+00  0.3148E-04  0.3125E-06  0.7871E-03  0.3324E-02  0.1893E+02
   -0.559996   15.22785  0.0000E+00  0.3104E-04  0.2775E-06  0.8444E-03  0.2646E-02  0.2860E+02
   -0.594997   15.23136  0.0000E+00  0.3054E-04  0.2450E-06  0.9350E-03  0.2165E-02  0.3656E+02
   -0.629998   15.23556  0.0000E+00  0.3000E-04  0.2207E-06  0.1013E-02  0.1885E-02  0.1933E+01
   -0.664999   15.23956  0.0000E+00  0.2954E-04  0.2042E-06  0.1075E-02  0.1627E-02  0.5464E+01
   -0.700000   15.24334  0.0000E+00  0.2915E-04  0.1932E-06  0.1110E-02  0.1428E-02  0.7611E+03
   -0.735001   15.24703  0.0000E+00  0.2881E-04  0.1866E-06  0.1320E-02  0.1244E-02 -0.1112E+02
   -0.770003   15.25023  0.0000E+00  0.2849E-04  0.1832E-06  0.1314E-02  0.1115E-02  0.4785E+01
   -0.805004   15.25346  0.0000E+00  0.2815E-04  0.1822E-06  0.1143E-02  0.1032E-02  0.2430E+01
   -0.840005   15.25727  0.0000E+00  0.2765E-04  0.1839E-06  0.1118E-02  0.9029E-03  0.6291E+01
   -0.875006   15.26120  0.0000E+00  0.2708E-04  0.1897E-06  0.1094E-02  0.7871E-03  0.6289E+01
   -0.910007   15.26549  0.0000E+00  0.2652E-04  0.1995E-06  0.1078E-02  0.6917E-03 -0.1766E+01
   -0.945007   15.26995  0.0000E+00  0.2594E-04  0.2171E-06  0.1046E-02  0.6145E-03  0.4070E+03
   -0.980008   15.27521  0.0000E+00  0.2530E-04  0.2432E-06  0.1012E-02  0.5481E-03  0.6143E+02
   -1.015009   15.28074  0.0000E+00  0.2457E-04  0.2855E-06  0.9474E-03  0.4826E-03  0.7344E+02
   -1.050009   15.28771  0.0000E+00  0.2375E-04  0.3889E-06  0.8982E-03  0.4247E-03  0.1878E+04
   -1.085009   15.29693  0.0000E+00  0.2282E-04  0.4896E-06  0.8749E-03  0.3701E-03  0.1185E+04
   -1.120009   15.30864  0.0000E+00  0.2177E-04  0.6529E-06  0.8188E-03  0.3215E-03  0.7733E+05
   -1.155009   15.32004  0.0000E+00  0.2066E-04  0.9095E-06  0.7287E-03  0.2750E-03  0.8402E+06
   -1.190009   15.34292  0.0000E+00  0.1950E-04  0.1266E-05  0.7057E-03  0.2236E-03  0.2116E+07
   -1.225008   15.35750  0.0000E+00  0.1847E-04  0.1879E-05  0.6165E-03  0.1746E-03 -0.2227E+06
   -1.260007   15.40521  0.0000E+00  0.1718E-04  0.4546E-05  0.5820E-03  0.1281E-03  0.1256E+08
   -1.295006   15.54080  0.0000E+00  0.1600E-04  0.6959E-05  0.5052E-03  0.9103E-04  0.9438E+07
   -1.330004   15.43994  0.0000E+00  0.1390E-04  0.2068E-04  0.3120E-03  0.7998E-04 -0.4418E+09
   -1.365003   15.88774  0.0000E+00  0.1111E-04  0.2951E-04  0.3731E-03  0.4760E-04 -0.2449E+07
   -1.400000   15.68656  0.0000E+00  0.0000E+00  0.0000E+00  0.0000E+00  0.1045E-03  0.0000E+00
