 1 - depth, m
 2 - temperature, C
 3 - salinity, kg/kg
 4 - turbulent kinetic energy, m**2/s**2
 5 - dissipation rate, m**2/s**3
 6 - kinematic heat conductance, m**2/s
 7 - modulus of horizontal velocity, m/s
 8 - Richardson number, n/d
   -0.000000   10.24987  0.0000E+00  0.3686E-03  0.7549E-03  0.8070E-04  0.2272E+00  0.5638E-02
   -0.034998   10.63418  0.0000E+00  0.1972E-03  0.2609E-03  0.1084E-03  0.7220E-01 -0.8100E-01
   -0.069996   10.80504  0.0000E+00  0.1295E-03  0.8590E-04  0.1658E-03  0.4198E-01  0.1511E+01
   -0.104994   10.88364  0.0000E+00  0.1012E-03  0.4602E-04  0.1856E-03  0.3167E-01  0.3801E+00
   -0.139992   10.92323  0.0000E+00  0.8393E-04  0.2734E-04  0.2006E-03  0.2568E-01  0.1279E+02
   -0.174991   10.94778  0.0000E+00  0.7132E-04  0.1640E-04  0.2266E-03  0.2139E-01  0.1466E+02
   -0.209990   10.96791  0.0000E+00  0.6224E-04  0.9923E-05  0.2679E-03  0.1812E-01  0.3751E+02
   -0.244990   10.98217  0.0000E+00  0.5554E-04  0.6070E-05  0.3226E-03  0.1556E-01  0.5238E+02
   -0.279989   10.99454  0.0000E+00  0.5046E-04  0.3783E-05  0.3882E-03  0.1337E-01  0.2790E+03
   -0.314989   11.00749  0.0000E+00  0.4631E-04  0.2425E-05  0.4923E-03  0.1119E-01  0.1121E+04
   -0.349989   11.01562  0.0000E+00  0.4306E-04  0.1632E-05  0.5546E-03  0.9665E-02  0.3756E+03
   -0.384989   11.02209  0.0000E+00  0.4051E-04  0.1147E-05  0.6015E-03  0.8367E-02  0.3705E+03
   -0.419989   11.02807  0.0000E+00  0.3856E-04  0.8347E-06  0.6501E-03  0.7229E-02  0.4260E+03
   -0.454990   11.03369  0.0000E+00  0.3707E-04  0.6455E-06  0.6810E-03  0.6154E-02  0.2664E+03
   -0.489990   11.03917  0.0000E+00  0.3588E-04  0.5284E-06  0.7146E-03  0.5103E-02  0.7861E+02
   -0.524991   11.04457  0.0000E+00  0.3481E-04  0.4480E-06  0.7689E-03  0.4131E-02  0.8474E+02
   -0.559992   11.04998  0.0000E+00  0.3378E-04  0.3838E-06  0.8207E-03  0.3350E-02  0.4689E+02
   -0.594993   11.05607  0.0000E+00  0.3266E-04  0.3253E-06  0.8868E-03  0.2783E-02  0.3519E+02
   -0.629994   11.06287  0.0000E+00  0.3165E-04  0.2817E-06  0.8928E-03  0.2458E-02  0.5728E+02
   -0.664995   11.06957  0.0000E+00  0.3073E-04  0.2478E-06  0.9160E-03  0.2144E-02  0.7722E+01
   -0.699995   11.07604  0.0000E+00  0.2995E-04  0.2231E-06  0.9449E-03  0.1853E-02  0.2001E+01
   -0.734996   11.08231  0.0000E+00  0.2925E-04  0.2055E-06  0.9681E-03  0.1592E-02  0.2027E+01
   -0.769997   11.08851  0.0000E+00  0.2858E-04  0.1935E-06  0.9831E-03  0.1362E-02  0.2045E+01
   -0.804998   11.09468  0.0000E+00  0.2793E-04  0.1863E-06  0.9903E-03  0.1166E-02  0.2462E+01
   -0.839999   11.10093  0.0000E+00  0.2728E-04  0.1834E-06  0.9918E-03  0.1000E-02  0.2494E+01
   -0.875000   11.10727  0.0000E+00  0.2665E-04  0.1845E-06  0.9909E-03  0.8623E-03 -0.2275E+02
   -0.910000   11.11384  0.0000E+00  0.2603E-04  0.1896E-06  0.9812E-03  0.7493E-03 -0.1557E+02
   -0.945001   11.12068  0.0000E+00  0.2541E-04  0.1996E-06  0.9729E-03  0.6552E-03  0.1678E+02
   -0.980001   11.12799  0.0000E+00  0.2478E-04  0.2170E-06  0.9400E-03  0.5762E-03 -0.1525E+03
   -1.015002   11.13582  0.0000E+00  0.2411E-04  0.2464E-06  0.9155E-03  0.5072E-03  0.2653E+03
   -1.050002   11.14526  0.0000E+00  0.2335E-04  0.3057E-06  0.8699E-03  0.4466E-03  0.9699E+04
   -1.085002   11.15679  0.0000E+00  0.2248E-04  0.3964E-06  0.8438E-03  0.3906E-03  0.7548E+03
   -1.120002   11.17393  0.0000E+00  0.2150E-04  0.5319E-06  0.7801E-03  0.3401E-03  0.6514E+03
   -1.155001   11.18809  0.0000E+00  0.2046E-04  0.7864E-06  0.7103E-03  0.2921E-03  0.5172E+05
   -1.190001   11.21891  0.0000E+00  0.1938E-04  0.1129E-05  0.6646E-03  0.2366E-03  0.1792E+06
   -1.225000   11.23947  0.0000E+00  0.1845E-04  0.1715E-05  0.5772E-03  0.1858E-03 -0.3612E+06
   -1.259999   11.30216  0.0000E+00  0.1728E-04  0.3762E-05  0.5232E-03  0.1385E-03  0.7055E+07
   -1.294997   11.46645  0.0000E+00  0.1607E-04  0.5716E-05  0.4950E-03  0.9981E-04  0.1744E+08
   -1.329995   11.35829  0.0000E+00  0.1391E-04  0.1715E-04  0.2862E-03  0.8671E-04 -0.2522E+10
   -1.364993   11.92989  0.0000E+00  0.1108E-04  0.2474E-04  0.3318E-03  0.5240E-04  0.2185E+06
   -1.399991   11.69206  0.0000E+00  0.0000E+00  0.0000E+00  0.0000E+00  0.1115E-03  0.0000E+00
