 1 - depth, m
 2 - temperature, C
 3 - salinity, kg/kg
 4 - turbulent kinetic energy, m**2/s**2
 5 - dissipation rate, m**2/s**3
 6 - kinematic heat conductance, m**2/s
 7 - modulus of horizontal velocity, m/s
 8 - Richardson number, n/d
   -0.000000   16.53849  0.0000E+00  0.1104E-02  0.1289E-01  0.1133E-03  0.4595E+00 -0.4418E-01
   -0.034998   16.76507  0.0000E+00  0.5900E-03  0.8499E-02  0.2066E-03  0.1429E+00 -0.2045E+00
   -0.069997   16.87252  0.0000E+00  0.3725E-03  0.2593E-02  0.2872E-03  0.7657E-01  0.5681E+00
   -0.104996   16.91299  0.0000E+00  0.2943E-03  0.1803E-02  0.3284E-03  0.5541E-01 -0.5899E+00
   -0.139995   16.93216  0.0000E+00  0.2466E-03  0.1331E-02  0.3511E-03  0.4381E-01  0.7564E+02
   -0.174994   16.94278  0.0000E+00  0.2099E-03  0.9676E-03  0.3844E-03  0.3686E-01  0.6810E+02
   -0.209994   16.95034  0.0000E+00  0.1824E-03  0.7095E-03  0.4102E-03  0.3167E-01  0.1837E+04
   -0.244994   16.95656  0.0000E+00  0.1624E-03  0.5279E-03  0.4219E-03  0.2776E-01  0.6828E+02
   -0.279994   16.96274  0.0000E+00  0.1456E-03  0.3969E-03  0.4436E-03  0.2407E-01  0.1757E+03
   -0.314995   16.96956  0.0000E+00  0.1305E-03  0.3027E-03  0.5112E-03  0.2018E-01  0.1920E+03
   -0.349995   16.97382  0.0000E+00  0.1194E-03  0.2194E-03  0.5415E-03  0.1789E-01  0.1043E+03
   -0.384996   16.98216  0.0000E+00  0.1094E-03  0.1581E-03  0.5968E-03  0.1549E-01  0.8191E+02
   -0.419997   16.98543  0.0000E+00  0.1016E-03  0.1198E-03  0.6521E-03  0.1404E-01  0.1841E+04
   -0.454998   16.98871  0.0000E+00  0.9516E-04  0.9073E-04  0.7116E-03  0.1255E-01  0.9792E+02
   -0.489999   16.99180  0.0000E+00  0.8978E-04  0.6983E-04  0.8154E-03  0.1096E-01  0.2049E+02
   -0.525000   16.99530  0.0000E+00  0.8501E-04  0.5558E-04  0.9455E-03  0.9481E-02 -0.1749E+02
   -0.560002   16.99825  0.0000E+00  0.8006E-04  0.4364E-04  0.1078E-02  0.8449E-02 -0.1482E+03
   -0.595003   17.00163  0.0000E+00  0.7441E-04  0.3274E-04  0.1097E-02  0.7679E-02 -0.1455E+04
   -0.630005   17.00543  0.0000E+00  0.6920E-04  0.2552E-04  0.1165E-02  0.7383E-02 -0.7186E+02
   -0.665006   17.00876  0.0000E+00  0.6473E-04  0.1976E-04  0.1065E-02  0.6878E-02 -0.5061E+02
   -0.700008   17.01313  0.0000E+00  0.6067E-04  0.1385E-04  0.1090E-02  0.6273E-02  0.7970E+02
   -0.735009   17.01643  0.0000E+00  0.5701E-04  0.1003E-04  0.1227E-02  0.5689E-02  0.4046E+03
   -0.770011   17.02124  0.0000E+00  0.5382E-04  0.7181E-05  0.1209E-02  0.5171E-02  0.1370E+03
   -0.805012   17.02451  0.0000E+00  0.5094E-04  0.4707E-05  0.1154E-02  0.4680E-02  0.1223E+03
   -0.840014   17.02979  0.0000E+00  0.4830E-04  0.3376E-05  0.1152E-02  0.4212E-02 -0.4153E+02
   -0.875015   17.03328  0.0000E+00  0.4581E-04  0.2440E-05  0.1131E-02  0.3777E-02 -0.1941E+03
   -0.910016   17.03832  0.0000E+00  0.4341E-04  0.1806E-05  0.1105E-02  0.3401E-02  0.4172E+03
   -0.945018   17.04204  0.0000E+00  0.4113E-04  0.1413E-05  0.1068E-02  0.3028E-02  0.7844E+02
   -0.980019   17.04723  0.0000E+00  0.3907E-04  0.1117E-05  0.1042E-02  0.2688E-02  0.4677E+02
   -1.015020   17.05178  0.0000E+00  0.3718E-04  0.8420E-06  0.1002E-02  0.2369E-02  0.9554E+02
   -1.050020   17.05737  0.0000E+00  0.3522E-04  0.6763E-06  0.9303E-03  0.2112E-02  0.1109E+04
   -1.085021   17.06307  0.0000E+00  0.3311E-04  0.6211E-06  0.8482E-03  0.1836E-02  0.9784E+03
   -1.120021   17.07073  0.0000E+00  0.3096E-04  0.6327E-06  0.7795E-03  0.1606E-02  0.2722E+06
   -1.155021   17.07966  0.0000E+00  0.2868E-04  0.7565E-06  0.7201E-03  0.1366E-02  0.1334E+05
   -1.190021   17.09234  0.0000E+00  0.2643E-04  0.1048E-05  0.6432E-03  0.1124E-02  0.1361E+07
   -1.225021   17.10834  0.0000E+00  0.2438E-04  0.1656E-05  0.5898E-03  0.8714E-03  0.3995E+05
   -1.260021   17.12422  0.0000E+00  0.2214E-04  0.3578E-05  0.4806E-03  0.6499E-03 -0.1956E+09
   -1.295020   17.23904  0.0000E+00  0.1967E-04  0.7117E-05  0.4653E-03  0.4503E-03  0.1536E+08
   -1.330019   17.16932  0.0000E+00  0.1655E-04  0.1773E-04  0.2981E-03  0.3857E-03 -0.1760E+10
   -1.365017   17.47387  0.0000E+00  0.1284E-04  0.2705E-04  0.3179E-03  0.2540E-03 -0.6514E+06
   -1.400015   17.35754  0.0000E+00  0.0000E+00  0.0000E+00  0.0000E+00  0.4855E-03  0.0000E+00
