 1 - depth, m
 2 - temperature, C
 3 - salinity, kg/kg
 4 - turbulent kinetic energy, m**2/s**2
 5 - dissipation rate, m**2/s**3
 6 - kinematic heat conductance, m**2/s
 7 - modulus of horizontal velocity, m/s
 8 - Richardson number, n/d
   -0.000000   17.14197  0.0000E+00  0.3552E-03  0.9996E-03  0.6963E-04  0.2050E+00  0.1064E+01
   -0.034998   17.36040  0.0000E+00  0.1870E-03  0.4321E-03  0.1141E-03  0.6400E-01 -0.6180E+00
   -0.069996   17.45516  0.0000E+00  0.1223E-03  0.1289E-03  0.1716E-03  0.3680E-01  0.9021E+00
   -0.104994   17.48935  0.0000E+00  0.9794E-04  0.7541E-04  0.2139E-03  0.2823E-01  0.4693E+02
   -0.139992   17.50468  0.0000E+00  0.8274E-04  0.4670E-04  0.2485E-03  0.2324E-01  0.1174E+02
   -0.174991   17.51583  0.0000E+00  0.7157E-04  0.2922E-04  0.2847E-03  0.1946E-01  0.1591E+03
   -0.209990   17.52507  0.0000E+00  0.6317E-04  0.1829E-04  0.3341E-03  0.1670E-01  0.5922E+02
   -0.244990   17.53093  0.0000E+00  0.5690E-04  0.1126E-04  0.3727E-03  0.1454E-01  0.7403E+02
   -0.279989   17.53636  0.0000E+00  0.5214E-04  0.7179E-05  0.4248E-03  0.1264E-01  0.2413E+03
   -0.314989   17.54188  0.0000E+00  0.4815E-04  0.4649E-05  0.5160E-03  0.1072E-01  0.2788E+03
   -0.349989   17.54623  0.0000E+00  0.4498E-04  0.3061E-05  0.5924E-03  0.9303E-02  0.1795E+04
   -0.384989   17.54899  0.0000E+00  0.4246E-04  0.2039E-05  0.6549E-03  0.8115E-02  0.5163E+03
   -0.419990   17.55253  0.0000E+00  0.4049E-04  0.1394E-05  0.7073E-03  0.7057E-02  0.2233E+03
   -0.454990   17.55480  0.0000E+00  0.3891E-04  0.9988E-06  0.7513E-03  0.6026E-02  0.2214E+03
   -0.489991   17.55778  0.0000E+00  0.3767E-04  0.7507E-06  0.7946E-03  0.5052E-02  0.2466E+03
   -0.524991   17.56004  0.0000E+00  0.3654E-04  0.5900E-06  0.8238E-03  0.4156E-02 -0.2207E+04
   -0.559992   17.56319  0.0000E+00  0.3533E-04  0.4742E-06  0.8797E-03  0.3410E-02 -0.3841E+01
   -0.594993   17.56614  0.0000E+00  0.3391E-04  0.3800E-06  0.9732E-03  0.2854E-02 -0.2698E+02
   -0.629994   17.56970  0.0000E+00  0.3273E-04  0.3179E-06  0.1086E-02  0.2533E-02  0.4714E+03
   -0.664995   17.57309  0.0000E+00  0.3175E-04  0.2774E-06  0.1096E-02  0.2270E-02  0.2685E+03
   -0.699996   17.57628  0.0000E+00  0.3083E-04  0.2470E-06  0.1085E-02  0.2006E-02  0.3438E+03
   -0.734997   17.57955  0.0000E+00  0.3000E-04  0.2251E-06  0.1117E-02  0.1748E-02  0.2581E+04
   -0.769998   17.58275  0.0000E+00  0.2923E-04  0.2096E-06  0.1104E-02  0.1533E-02  0.8343E+01
   -0.804999   17.58594  0.0000E+00  0.2846E-04  0.1987E-06  0.1088E-02  0.1332E-02 -0.1115E+03
   -0.839999   17.58925  0.0000E+00  0.2771E-04  0.1925E-06  0.1105E-02  0.1157E-02  0.4416E+01
   -0.875000   17.59251  0.0000E+00  0.2696E-04  0.1905E-06  0.1033E-02  0.1013E-02  0.6495E+02
   -0.910001   17.59607  0.0000E+00  0.2615E-04  0.1927E-06  0.9955E-03  0.8722E-03  0.5849E+01
   -0.945001   17.59996  0.0000E+00  0.2537E-04  0.2016E-06  0.9753E-03  0.7540E-03  0.3497E+02
   -0.980002   17.60393  0.0000E+00  0.2459E-04  0.2182E-06  0.9526E-03  0.6531E-03  0.4149E+02
   -1.015002   17.60861  0.0000E+00  0.2379E-04  0.2463E-06  0.9079E-03  0.5642E-03  0.2502E+03
   -1.050002   17.61366  0.0000E+00  0.2293E-04  0.2885E-06  0.8732E-03  0.4899E-03  0.1612E+04
   -1.085002   17.61991  0.0000E+00  0.2197E-04  0.3865E-06  0.8211E-03  0.4241E-03  0.9090E+05
   -1.120002   17.63102  0.0000E+00  0.2090E-04  0.5076E-06  0.7718E-03  0.3641E-03  0.6127E+05
   -1.155002   17.63753  0.0000E+00  0.1977E-04  0.7460E-06  0.7146E-03  0.3113E-03  0.2172E+06
   -1.190001   17.65763  0.0000E+00  0.1861E-04  0.1124E-05  0.6710E-03  0.2481E-03  0.2172E+06
   -1.225000   17.66673  0.0000E+00  0.1764E-04  0.1750E-05  0.5761E-03  0.1931E-03  0.9209E+08
   -1.259999   17.70175  0.0000E+00  0.1641E-04  0.3936E-05  0.5491E-03  0.1433E-03 -0.5645E+08
   -1.294998   17.80932  0.0000E+00  0.1520E-04  0.6124E-05  0.4989E-03  0.1023E-03  0.1089E+10
   -1.329996   17.72545  0.0000E+00  0.1303E-04  0.1639E-04  0.2923E-03  0.9041E-04 -0.1298E+11
   -1.364994   18.06442  0.0000E+00  0.1035E-04  0.2410E-04  0.3528E-03  0.5384E-04  0.8742E+07
   -1.399991   17.91596  0.0000E+00  0.0000E+00  0.0000E+00  0.0000E+00  0.1177E-03  0.0000E+00
