 1 - depth, m
 2 - temperature, C
 3 - salinity, kg/kg
 4 - turbulent kinetic energy, m**2/s**2
 5 - dissipation rate, m**2/s**3
 6 - kinematic heat conductance, m**2/s
 7 - modulus of horizontal velocity, m/s
 8 - Richardson number, n/d
   -0.000000   10.02720  0.0000E+00  0.4100E-04  0.9995E-05  0.2906E-04  0.4098E-01 -0.5665E-01
   -0.034998   10.18543  0.0000E+00  0.2716E-04  0.2898E-05  0.5691E-04  0.1736E-01  0.2347E+00
   -0.069996   10.22992  0.0000E+00  0.2242E-04  0.1328E-05  0.1069E-03  0.1248E-01  0.8297E+01
   -0.104994   10.25490  0.0000E+00  0.2005E-04  0.7348E-06  0.2047E-03  0.1003E-01  0.1237E+03
   -0.139993   10.26979  0.0000E+00  0.1875E-04  0.4581E-06  0.2715E-03  0.8438E-02  0.2295E+03
   -0.174992   10.28066  0.0000E+00  0.1809E-04  0.3160E-06  0.3386E-03  0.7190E-02  0.1097E+03
   -0.209991   10.28891  0.0000E+00  0.1783E-04  0.2362E-06  0.3915E-03  0.6170E-02  0.7040E+03
   -0.244990   10.29550  0.0000E+00  0.1783E-04  0.1885E-06  0.4410E-03  0.5285E-02  0.1023E+03
   -0.279990   10.30099  0.0000E+00  0.1798E-04  0.1577E-06  0.4906E-03  0.4490E-02  0.1593E+03
   -0.314990   10.30575  0.0000E+00  0.1820E-04  0.1359E-06  0.5545E-03  0.3749E-02  0.4185E+02
   -0.349990   10.31000  0.0000E+00  0.1849E-04  0.1204E-06  0.6190E-03  0.3116E-02  0.6360E+01
   -0.384990   10.31391  0.0000E+00  0.1885E-04  0.1093E-06  0.6832E-03  0.2573E-02  0.2896E+01
   -0.419991   10.31760  0.0000E+00  0.1927E-04  0.1018E-06  0.7424E-03  0.2110E-02  0.2457E+01
   -0.454991   10.32105  0.0000E+00  0.1975E-04  0.9731E-07  0.7965E-03  0.1698E-02  0.2095E+01
   -0.489992   10.32433  0.0000E+00  0.2028E-04  0.9550E-07  0.8434E-03  0.1332E-02  0.1852E+01
   -0.524993   10.32748  0.0000E+00  0.2091E-04  0.9609E-07  0.8935E-03  0.1007E-02  0.1481E+01
   -0.559993   10.33097  0.0000E+00  0.2161E-04  0.9882E-07  0.9839E-03  0.7677E-03  0.1352E+01
   -0.594994   10.33490  0.0000E+00  0.2228E-04  0.1029E-06  0.1191E-02  0.6163E-03  0.1233E+01
   -0.629995   10.33949  0.0000E+00  0.2269E-04  0.1067E-06  0.1338E-02  0.5383E-03  0.1415E+01
   -0.664996   10.34370  0.0000E+00  0.2295E-04  0.1105E-06  0.1352E-02  0.4835E-03  0.1367E+01
   -0.699997   10.34792  0.0000E+00  0.2312E-04  0.1148E-06  0.1354E-02  0.4363E-03  0.1312E+01
   -0.734998   10.35219  0.0000E+00  0.2319E-04  0.1194E-06  0.1400E-02  0.3967E-03  0.1035E+01
   -0.769999   10.35645  0.0000E+00  0.2320E-04  0.1250E-06  0.1287E-02  0.3667E-03  0.7888E+01
   -0.805000   10.36125  0.0000E+00  0.2315E-04  0.1319E-06  0.1290E-02  0.3394E-03  0.3532E+01
   -0.840001   10.36638  0.0000E+00  0.2303E-04  0.1410E-06  0.1268E-02  0.3140E-03  0.3617E+01
   -0.875002   10.37161  0.0000E+00  0.2284E-04  0.1531E-06  0.1181E-02  0.2917E-03  0.1885E+02
   -0.910003   10.37805  0.0000E+00  0.2258E-04  0.1689E-06  0.1154E-02  0.2706E-03  0.6533E+02
   -0.945004   10.38434  0.0000E+00  0.2224E-04  0.1908E-06  0.1113E-02  0.2512E-03  0.6114E+03
   -0.980004   10.39273  0.0000E+00  0.2182E-04  0.2194E-06  0.1064E-02  0.2311E-03  0.4460E+04
   -1.015005   10.40114  0.0000E+00  0.2130E-04  0.2562E-06  0.1003E-02  0.2107E-03  0.1753E+05
   -1.050005   10.41160  0.0000E+00  0.2068E-04  0.3173E-06  0.9596E-03  0.1897E-03  0.9982E+04
   -1.085005   10.42713  0.0000E+00  0.1997E-04  0.4340E-06  0.8994E-03  0.1669E-03  0.8573E+05
   -1.120005   10.44500  0.0000E+00  0.1916E-04  0.5542E-06  0.8127E-03  0.1471E-03  0.5295E+07
   -1.155004   10.46053  0.0000E+00  0.1832E-04  0.8140E-06  0.7565E-03  0.1264E-03  0.7641E+06
   -1.190004   10.49900  0.0000E+00  0.1741E-04  0.1104E-05  0.7138E-03  0.1030E-03  0.3478E+06
   -1.225003   10.51516  0.0000E+00  0.1656E-04  0.1624E-05  0.6116E-03  0.8046E-04 -0.5744E+07
   -1.260002   10.60013  0.0000E+00  0.1546E-04  0.3746E-05  0.5741E-03  0.5939E-04  0.3939E+10
   -1.295001   10.79734  0.0000E+00  0.1436E-04  0.5643E-05  0.5156E-03  0.4205E-04  0.1541E+08
   -1.329999   10.64823  0.0000E+00  0.1261E-04  0.1848E-04  0.2793E-03  0.3666E-04 -0.8668E+10
   -1.364997   11.33468  0.0000E+00  0.1012E-04  0.2563E-04  0.3690E-03  0.2196E-04 -0.9355E+05
   -1.399995   11.00552  0.0000E+00  0.0000E+00  0.0000E+00  0.0000E+00  0.4737E-04  0.0000E+00
