 1 - depth, m
 2 - temperature, C
 3 - salinity, kg/kg
 4 - turbulent kinetic energy, m**2/s**2
 5 - dissipation rate, m**2/s**3
 6 - kinematic heat conductance, m**2/s
 7 - modulus of horizontal velocity, m/s
 8 - Richardson number, n/d
   -0.000000   16.46096  0.0000E+00  0.3020E-03  0.6890E-03  0.8250E-04  0.2026E+00 -0.7419E-01
   -0.034998   16.71236  0.0000E+00  0.1632E-03  0.2903E-03  0.1042E-03  0.6544E-01  0.7155E-01
   -0.069996   16.85847  0.0000E+00  0.1093E-03  0.1050E-03  0.1710E-03  0.3688E-01  0.1697E+02
   -0.104994   16.91260  0.0000E+00  0.8664E-04  0.6181E-04  0.1971E-03  0.2755E-01  0.7346E+02
   -0.139992   16.93658  0.0000E+00  0.7222E-04  0.3587E-04  0.2246E-03  0.2231E-01  0.3163E+02
   -0.174991   16.95315  0.0000E+00  0.6212E-04  0.2101E-04  0.2767E-03  0.1857E-01  0.2164E+03
   -0.209990   16.96550  0.0000E+00  0.5506E-04  0.1264E-04  0.3361E-03  0.1579E-01  0.1571E+03
   -0.244989   16.97359  0.0000E+00  0.4993E-04  0.7461E-05  0.3960E-03  0.1365E-01  0.4533E+03
   -0.279989   16.98065  0.0000E+00  0.4596E-04  0.4407E-05  0.4391E-03  0.1175E-01  0.1791E+04
   -0.314989   16.98784  0.0000E+00  0.4280E-04  0.2675E-05  0.5207E-03  0.9895E-02  0.2607E+03
   -0.349989   16.99279  0.0000E+00  0.4040E-04  0.1727E-05  0.5813E-03  0.8545E-02  0.3801E+03
   -0.384989   16.99658  0.0000E+00  0.3852E-04  0.1144E-05  0.6330E-03  0.7397E-02  0.2354E+03
   -0.419989   17.00021  0.0000E+00  0.3701E-04  0.8154E-06  0.6769E-03  0.6348E-02  0.1301E+03
   -0.454990   17.00336  0.0000E+00  0.3584E-04  0.6235E-06  0.7330E-03  0.5359E-02  0.1820E+03
   -0.489990   17.00690  0.0000E+00  0.3495E-04  0.5069E-06  0.7887E-03  0.4457E-02  0.1073E+03
   -0.524991   17.01007  0.0000E+00  0.3419E-04  0.4327E-06  0.8418E-03  0.3613E-02  0.3987E+02
   -0.559991   17.01330  0.0000E+00  0.3351E-04  0.3745E-06  0.9053E-03  0.2957E-02 -0.8476E+03
   -0.594992   17.01655  0.0000E+00  0.3272E-04  0.3194E-06  0.9466E-03  0.2497E-02 -0.2301E+02
   -0.629993   17.02075  0.0000E+00  0.3190E-04  0.2781E-06  0.9926E-03  0.2189E-02 -0.8036E+02
   -0.664994   17.02444  0.0000E+00  0.3118E-04  0.2476E-06  0.1013E-02  0.1927E-02  0.1016E+04
   -0.699995   17.02820  0.0000E+00  0.3048E-04  0.2249E-06  0.1046E-02  0.1678E-02 -0.1517E+02
   -0.734996   17.03162  0.0000E+00  0.2989E-04  0.2105E-06  0.1138E-02  0.1435E-02 -0.2594E+02
   -0.769997   17.03499  0.0000E+00  0.2939E-04  0.2020E-06  0.1152E-02  0.1270E-02  0.7567E+01
   -0.804998   17.03821  0.0000E+00  0.2886E-04  0.1964E-06  0.1127E-02  0.1130E-02  0.1101E+03
   -0.839998   17.04164  0.0000E+00  0.2830E-04  0.1944E-06  0.1132E-02  0.9897E-03  0.7392E+01
   -0.874999   17.04503  0.0000E+00  0.2773E-04  0.1960E-06  0.1061E-02  0.8854E-03 -0.8655E+02
   -0.910000   17.04882  0.0000E+00  0.2705E-04  0.2012E-06  0.1018E-02  0.7724E-03  0.1651E+02
   -0.945000   17.05284  0.0000E+00  0.2635E-04  0.2118E-06  0.9924E-03  0.6747E-03  0.5533E+01
   -0.980001   17.05722  0.0000E+00  0.2563E-04  0.2305E-06  0.9726E-03  0.5902E-03 -0.3134E+01
   -1.015001   17.06204  0.0000E+00  0.2488E-04  0.2616E-06  0.9346E-03  0.5171E-03 -0.8840E+02
   -1.050001   17.06781  0.0000E+00  0.2405E-04  0.3181E-06  0.8935E-03  0.4534E-03  0.5685E+04
   -1.085001   17.07493  0.0000E+00  0.2307E-04  0.4060E-06  0.8356E-03  0.3954E-03  0.3981E+05
   -1.120001   17.08518  0.0000E+00  0.2198E-04  0.5346E-06  0.8084E-03  0.3414E-03  0.3268E+06
   -1.155000   17.09491  0.0000E+00  0.2084E-04  0.7913E-06  0.7120E-03  0.2920E-03  0.3482E+05
   -1.190000   17.11395  0.0000E+00  0.1967E-04  0.1149E-05  0.6892E-03  0.2348E-03  0.6417E+05
   -1.224999   17.12542  0.0000E+00  0.1869E-04  0.1777E-05  0.6162E-03  0.1860E-03 -0.1105E+06
   -1.259998   17.16623  0.0000E+00  0.1739E-04  0.4166E-05  0.5397E-03  0.1373E-03 -0.3010E+09
   -1.294996   17.27035  0.0000E+00  0.1612E-04  0.6332E-05  0.5064E-03  0.9906E-04  0.1609E+08
   -1.329994   17.19031  0.0000E+00  0.1398E-04  0.1919E-04  0.2918E-03  0.8703E-04 -0.2486E+11
   -1.364992   17.55058  0.0000E+00  0.1110E-04  0.2745E-04  0.3541E-03  0.5285E-04  0.7950E+06
   -1.399990   17.39809  0.0000E+00  0.0000E+00  0.0000E+00  0.0000E+00  0.1128E-03  0.0000E+00
