 1 - depth, m
 2 - temperature, C
 3 - salinity, kg/kg
 4 - turbulent kinetic energy, m**2/s**2
 5 - dissipation rate, m**2/s**3
 6 - kinematic heat conductance, m**2/s
 7 - modulus of horizontal velocity, m/s
 8 - Richardson number, n/d
   -0.000000    8.54914  0.0000E+00  0.1007E-04  0.7345E-06  0.2127E-04  0.1119E-01 -0.3077E+00
   -0.034998    8.68182  0.0000E+00  0.9899E-05  0.2693E-06  0.1225E-03  0.5811E-02  0.2343E+02
   -0.069996    8.71061  0.0000E+00  0.9983E-05  0.1630E-06  0.1869E-03  0.4405E-02  0.1308E+02
   -0.104994    8.72710  0.0000E+00  0.1034E-04  0.1203E-06  0.2727E-03  0.3642E-02  0.3167E+02
   -0.139993    8.73755  0.0000E+00  0.1087E-04  0.9829E-07  0.3661E-03  0.3111E-02  0.3745E+02
   -0.174992    8.74486  0.0000E+00  0.1150E-04  0.8481E-07  0.4411E-03  0.2686E-02  0.3198E+01
   -0.209991    8.75088  0.0000E+00  0.1217E-04  0.7565E-07  0.5126E-03  0.2310E-02  0.3037E+01
   -0.244990    8.75608  0.0000E+00  0.1285E-04  0.6931E-07  0.5821E-03  0.1973E-02  0.2796E+01
   -0.279990    8.76065  0.0000E+00  0.1352E-04  0.6495E-07  0.6520E-03  0.1667E-02  0.2708E+01
   -0.314990    8.76469  0.0000E+00  0.1417E-04  0.6207E-07  0.7367E-03  0.1384E-02  0.2116E+01
   -0.349990    8.76833  0.0000E+00  0.1479E-04  0.6043E-07  0.8266E-03  0.1146E-02  0.1773E+01
   -0.384990    8.77166  0.0000E+00  0.1538E-04  0.5985E-07  0.9135E-03  0.9475E-03  0.1540E+01
   -0.419990    8.77476  0.0000E+00  0.1594E-04  0.6020E-07  0.9898E-03  0.7838E-03  0.1413E+01
   -0.454991    8.77767  0.0000E+00  0.1647E-04  0.6138E-07  0.1057E-02  0.6434E-03  0.1302E+01
   -0.489992    8.78044  0.0000E+00  0.1699E-04  0.6334E-07  0.1112E-02  0.5226E-03  0.1242E+01
   -0.524992    8.78310  0.0000E+00  0.1755E-04  0.6625E-07  0.1181E-02  0.4249E-03  0.1174E+01
   -0.559993    8.78600  0.0000E+00  0.1812E-04  0.7002E-07  0.1265E-02  0.3534E-03  0.1227E+01
   -0.594994    8.78930  0.0000E+00  0.1867E-04  0.7436E-07  0.1350E-02  0.3073E-03  0.1247E+01
   -0.629995    8.79379  0.0000E+00  0.1904E-04  0.7808E-07  0.1367E-02  0.2700E-03  0.1770E+01
   -0.664996    8.79839  0.0000E+00  0.1932E-04  0.8166E-07  0.1355E-02  0.2510E-03  0.1901E+01
   -0.699997    8.80307  0.0000E+00  0.1954E-04  0.8547E-07  0.1336E-02  0.2338E-03  0.2172E+01
   -0.734998    8.80789  0.0000E+00  0.1971E-04  0.8966E-07  0.1312E-02  0.2185E-03  0.4522E+02
   -0.769999    8.81291  0.0000E+00  0.1982E-04  0.9444E-07  0.1277E-02  0.2047E-03  0.2699E+01
   -0.805000    8.81831  0.0000E+00  0.1988E-04  0.1000E-06  0.1275E-02  0.1919E-03  0.2144E+01
   -0.840001    8.82390  0.0000E+00  0.1988E-04  0.1068E-06  0.1246E-02  0.1800E-03 -0.2161E+04
   -0.875002    8.83012  0.0000E+00  0.1983E-04  0.1154E-06  0.1184E-02  0.1683E-03  0.1004E+04
   -0.910003    8.83681  0.0000E+00  0.1970E-04  0.1262E-06  0.1074E-02  0.1571E-03  0.1723E+04
   -0.945003    8.84501  0.0000E+00  0.1950E-04  0.1403E-06  0.1054E-02  0.1454E-03  0.4586E+04
   -0.980004    8.85312  0.0000E+00  0.1923E-04  0.1595E-06  0.1009E-02  0.1341E-03  0.4943E+03
   -1.015004    8.86344  0.0000E+00  0.1887E-04  0.1864E-06  0.9396E-03  0.1222E-03  0.3238E+05
   -1.050004    8.87473  0.0000E+00  0.1844E-04  0.2238E-06  0.9141E-03  0.1099E-03  0.3724E+06
   -1.085004    8.88789  0.0000E+00  0.1788E-04  0.2831E-06  0.8276E-03  0.9772E-04 -0.2062E+05
   -1.120004    8.91156  0.0000E+00  0.1721E-04  0.3623E-06  0.7870E-03  0.8532E-04  0.1991E+06
   -1.155004    8.92457  0.0000E+00  0.1647E-04  0.4864E-06  0.6858E-03  0.7408E-04  0.6788E+06
   -1.190003    8.96581  0.0000E+00  0.1562E-04  0.6952E-06  0.6395E-03  0.5974E-04  0.4123E+06
   -1.225002    8.98769  0.0000E+00  0.1490E-04  0.1054E-05  0.5518E-03  0.4661E-04 -0.4000E+08
   -1.260001    9.06446  0.0000E+00  0.1398E-04  0.2575E-05  0.4847E-03  0.3449E-04  0.2600E+10
   -1.295000    9.28607  0.0000E+00  0.1299E-04  0.3941E-05  0.4610E-03  0.2421E-04 -0.2635E+07
   -1.329998    9.13550  0.0000E+00  0.1135E-04  0.1202E-04  0.2697E-03  0.2121E-04 -0.2183E+11
   -1.364996    9.85313  0.0000E+00  0.9067E-05  0.1757E-04  0.3099E-03  0.1267E-04 -0.1729E+07
   -1.399994    9.57605  0.0000E+00  0.0000E+00  0.0000E+00  0.0000E+00  0.2638E-04  0.0000E+00
