 1 - depth, m
 2 - temperature, C
 3 - salinity, kg/kg
 4 - turbulent kinetic energy, m**2/s**2
 5 - dissipation rate, m**2/s**3
 6 - kinematic heat conductance, m**2/s
 7 - modulus of horizontal velocity, m/s
 8 - Richardson number, n/d
   -0.000000   20.00206  0.0000E+00  0.4869E-03  0.1039E-02  0.1075E-03  0.2616E+00 -0.1024E+00
   -0.034998   20.16394  0.0000E+00  0.2502E-03  0.3436E-03  0.1264E-03  0.7927E-01  0.2196E-01
   -0.069996   20.22017  0.0000E+00  0.1687E-03  0.1254E-03  0.1934E-03  0.4649E-01  0.6269E-01
   -0.104994   20.24662  0.0000E+00  0.1331E-03  0.7263E-04  0.2040E-03  0.3577E-01  0.6205E+00
   -0.139993   20.25944  0.0000E+00  0.1106E-03  0.4296E-04  0.2147E-03  0.2953E-01 -0.1368E+00
   -0.174992   20.26809  0.0000E+00  0.9420E-04  0.2625E-04  0.2287E-03  0.2498E-01  0.1679E+01
   -0.209991   20.27587  0.0000E+00  0.8163E-04  0.1619E-04  0.2541E-03  0.2134E-01  0.7668E+01
   -0.244990   20.28113  0.0000E+00  0.7217E-04  0.1006E-04  0.2828E-03  0.1848E-01  0.1286E+03
   -0.279990   20.28544  0.0000E+00  0.6481E-04  0.6302E-05  0.3144E-03  0.1599E-01  0.5727E+03
   -0.314990   20.29034  0.0000E+00  0.5862E-04  0.4060E-05  0.3807E-03  0.1344E-01  0.2681E+03
   -0.349990   20.29411  0.0000E+00  0.5367E-04  0.2684E-05  0.4523E-03  0.1163E-01  0.2213E+03
   -0.384990   20.29723  0.0000E+00  0.4969E-04  0.1873E-05  0.5361E-03  0.1017E-01  0.4038E+03
   -0.419990   20.29979  0.0000E+00  0.4654E-04  0.1379E-05  0.5982E-03  0.8922E-02  0.2029E+03
   -0.454991   20.30228  0.0000E+00  0.4399E-04  0.1049E-05  0.6512E-03  0.7703E-02  0.1210E+04
   -0.489992   20.30443  0.0000E+00  0.4188E-04  0.8356E-06  0.6872E-03  0.6521E-02  0.6623E+03
   -0.524992   20.30657  0.0000E+00  0.3985E-04  0.6839E-06  0.7231E-03  0.5400E-02  0.8641E+02
   -0.559993   20.30873  0.0000E+00  0.3771E-04  0.5619E-06  0.7601E-03  0.4506E-02  0.9845E+01
   -0.594994   20.31111  0.0000E+00  0.3526E-04  0.4515E-06  0.8109E-03  0.3817E-02  0.8650E+02
   -0.629995   20.31379  0.0000E+00  0.3314E-04  0.3723E-06  0.8549E-03  0.3398E-02  0.9577E+02
   -0.664996   20.31636  0.0000E+00  0.3146E-04  0.3169E-06  0.9031E-03  0.3020E-02  0.6631E+02
   -0.699997   20.31877  0.0000E+00  0.2998E-04  0.2734E-06  0.9126E-03  0.2676E-02  0.2987E+02
   -0.734998   20.32114  0.0000E+00  0.2870E-04  0.2398E-06  0.9244E-03  0.2334E-02 -0.9768E+01
   -0.769999   20.32350  0.0000E+00  0.2750E-04  0.2128E-06  0.9513E-03  0.2031E-02  0.5108E+02
   -0.805000   20.32583  0.0000E+00  0.2650E-04  0.1937E-06  0.9855E-03  0.1753E-02  0.3600E+01
   -0.840001   20.32810  0.0000E+00  0.2561E-04  0.1800E-06  0.9985E-03  0.1524E-02  0.1611E+02
   -0.875002   20.33031  0.0000E+00  0.2483E-04  0.1712E-06  0.1024E-02  0.1355E-02 -0.1251E+02
   -0.910003   20.33252  0.0000E+00  0.2407E-04  0.1657E-06  0.9384E-03  0.1205E-02  0.6503E+01
   -0.945003   20.33494  0.0000E+00  0.2324E-04  0.1630E-06  0.8408E-03  0.1065E-02 -0.1442E+04
   -0.980004   20.33758  0.0000E+00  0.2230E-04  0.1645E-06  0.8060E-03  0.9006E-03  0.4805E+01
   -1.015004   20.34040  0.0000E+00  0.2144E-04  0.1720E-06  0.7764E-03  0.7638E-03  0.1214E+03
   -1.050004   20.34347  0.0000E+00  0.2059E-04  0.1883E-06  0.7588E-03  0.6514E-03  0.2840E+03
   -1.085004   20.34710  0.0000E+00  0.1968E-04  0.2198E-06  0.7246E-03  0.5588E-03  0.3823E+02
   -1.120004   20.35200  0.0000E+00  0.1866E-04  0.2774E-06  0.6746E-03  0.4783E-03  0.5527E+04
   -1.155004   20.35764  0.0000E+00  0.1756E-04  0.3879E-06  0.6315E-03  0.4022E-03  0.2143E+04
   -1.190003   20.36682  0.0000E+00  0.1638E-04  0.5763E-06  0.5709E-03  0.3212E-03  0.1242E+05
   -1.225003   20.37653  0.0000E+00  0.1542E-04  0.8709E-06  0.5090E-03  0.2446E-03  0.7809E+05
   -1.260001   20.38659  0.0000E+00  0.1420E-04  0.1839E-05  0.4304E-03  0.1850E-03 -0.8830E+06
   -1.295000   20.45633  0.0000E+00  0.1303E-04  0.3206E-05  0.4232E-03  0.1277E-03 -0.6235E+06
   -1.329998   20.41101  0.0000E+00  0.1104E-04  0.8502E-05  0.2462E-03  0.1137E-03 -0.1248E+10
   -1.364996   20.60394  0.0000E+00  0.8603E-05  0.1368E-04  0.2688E-03  0.6664E-04  0.1129E+07
   -1.399994   20.53484  0.0000E+00  0.0000E+00  0.0000E+00  0.0000E+00  0.1422E-03  0.0000E+00
