 1 - depth, m
 2 - temperature, C
 3 - salinity, kg/kg
 4 - turbulent kinetic energy, m**2/s**2
 5 - dissipation rate, m**2/s**3
 6 - kinematic heat conductance, m**2/s
 7 - modulus of horizontal velocity, m/s
 8 - Richardson number, n/d
   -0.000000   15.14069  0.0000E+00  0.6609E-03  0.2152E-02  0.1055E-03  0.3148E+00  0.2520E+01
   -0.034998   15.47654  0.0000E+00  0.3327E-03  0.7418E-03  0.1449E-03  0.9573E-01  0.2546E-01
   -0.069997   15.60272  0.0000E+00  0.2187E-03  0.2237E-03  0.2280E-03  0.5395E-01  0.5005E+01
   -0.104995   15.66059  0.0000E+00  0.1663E-03  0.1126E-03  0.2508E-03  0.4037E-01  0.6040E+00
   -0.139995   15.68712  0.0000E+00  0.1338E-03  0.6303E-04  0.2593E-03  0.3258E-01  0.6949E+01
   -0.174994   15.70492  0.0000E+00  0.1117E-03  0.3809E-04  0.2745E-03  0.2722E-01  0.2307E+02
   -0.209994   15.71829  0.0000E+00  0.9629E-04  0.2381E-04  0.3044E-03  0.2318E-01  0.2632E+02
   -0.244993   15.72836  0.0000E+00  0.8484E-04  0.1514E-04  0.3444E-03  0.1996E-01  0.3753E+02
   -0.279994   15.73673  0.0000E+00  0.7616E-04  0.9842E-05  0.3870E-03  0.1725E-01  0.6071E+02
   -0.314994   15.74733  0.0000E+00  0.6895E-04  0.6596E-05  0.4772E-03  0.1441E-01  0.2859E+03
   -0.349994   15.75310  0.0000E+00  0.6327E-04  0.4482E-05  0.5482E-03  0.1256E-01  0.6297E+03
   -0.384995   15.75831  0.0000E+00  0.5875E-04  0.3176E-05  0.6148E-03  0.1101E-01  0.2714E+03
   -0.419996   15.76261  0.0000E+00  0.5525E-04  0.2337E-05  0.6897E-03  0.9699E-02  0.2221E+03
   -0.454997   15.76689  0.0000E+00  0.5246E-04  0.1755E-05  0.7240E-03  0.8413E-02  0.3614E+03
   -0.489998   15.77079  0.0000E+00  0.5015E-04  0.1373E-05  0.7707E-03  0.7132E-02  0.1469E+04
   -0.524999   15.77450  0.0000E+00  0.4796E-04  0.1104E-05  0.8117E-03  0.5949E-02  0.1137E+03
   -0.560001   15.77842  0.0000E+00  0.4569E-04  0.8894E-06  0.8884E-03  0.4979E-02  0.4069E+02
   -0.595002   15.78270  0.0000E+00  0.4320E-04  0.7064E-06  0.9698E-03  0.4277E-02  0.2186E+03
   -0.630003   15.78738  0.0000E+00  0.4103E-04  0.5792E-06  0.9957E-03  0.3891E-02  0.2387E+02
   -0.665005   15.79205  0.0000E+00  0.3913E-04  0.4810E-06  0.9781E-03  0.3490E-02 -0.1791E+02
   -0.700006   15.79696  0.0000E+00  0.3752E-04  0.4069E-06  0.1051E-02  0.3077E-02  0.8772E+02
   -0.735008   15.80147  0.0000E+00  0.3622E-04  0.3567E-06  0.1112E-02  0.2720E-02 -0.1247E+03
   -0.770009   15.80570  0.0000E+00  0.3507E-04  0.3191E-06  0.1070E-02  0.2430E-02  0.6729E+02
   -0.805011   15.80987  0.0000E+00  0.3390E-04  0.2903E-06  0.1038E-02  0.2129E-02  0.1268E+03
   -0.840012   15.81436  0.0000E+00  0.3282E-04  0.2702E-06  0.1084E-02  0.1858E-02  0.3341E+02
   -0.875014   15.81863  0.0000E+00  0.3177E-04  0.2555E-06  0.1031E-02  0.1638E-02  0.4510E+01
   -0.910015   15.82296  0.0000E+00  0.3064E-04  0.2462E-06  0.9684E-03  0.1427E-02  0.4910E+01
   -0.945016   15.82779  0.0000E+00  0.2948E-04  0.2438E-06  0.9332E-03  0.1225E-02  0.7966E+01
   -0.980017   15.83264  0.0000E+00  0.2838E-04  0.2493E-06  0.9095E-03  0.1049E-02  0.6611E+01
   -1.015018   15.83793  0.0000E+00  0.2729E-04  0.2660E-06  0.8860E-03  0.8949E-03  0.2273E+02
   -1.050018   15.84381  0.0000E+00  0.2617E-04  0.3009E-06  0.8581E-03  0.7650E-03  0.9749E+03
   -1.085019   15.85091  0.0000E+00  0.2500E-04  0.3764E-06  0.7959E-03  0.6552E-03  0.1663E+04
   -1.120019   15.86145  0.0000E+00  0.2376E-04  0.4879E-06  0.7710E-03  0.5606E-03  0.8259E+04
   -1.155019   15.87159  0.0000E+00  0.2248E-04  0.7031E-06  0.7055E-03  0.4734E-03  0.3106E+06
   -1.190019   15.88888  0.0000E+00  0.2118E-04  0.1096E-05  0.6511E-03  0.3809E-03  0.2304E+04
   -1.225019   15.90470  0.0000E+00  0.2010E-04  0.1880E-05  0.5741E-03  0.2940E-03 -0.6123E+06
   -1.260018   15.94019  0.0000E+00  0.1877E-04  0.3859E-05  0.5327E-03  0.2191E-03 -0.1255E+09
   -1.295017   16.04205  0.0000E+00  0.1735E-04  0.6239E-05  0.5001E-03  0.1581E-03  0.1044E+08
   -1.330016   15.97524  0.0000E+00  0.1487E-04  0.1672E-04  0.2952E-03  0.1379E-03 -0.2675E+09
   -1.365015   16.33592  0.0000E+00  0.1172E-04  0.2469E-04  0.3275E-03  0.8439E-04 -0.3126E+06
   -1.400013   16.19821  0.0000E+00  0.0000E+00  0.0000E+00  0.0000E+00  0.1728E-03  0.0000E+00
