 1 - depth, m
 2 - temperature, C
 3 - salinity, kg/kg
 4 - turbulent kinetic energy, m**2/s**2
 5 - dissipation rate, m**2/s**3
 6 - kinematic heat conductance, m**2/s
 7 - modulus of horizontal velocity, m/s
 8 - Richardson number, n/d
   -0.000000   18.76381  0.0000E+00  0.6170E-03  0.2879E-02  0.8773E-04  0.3174E+00  0.6475E-01
   -0.034998   19.01328  0.0000E+00  0.3133E-03  0.1561E-02  0.1183E-03  0.9913E-01  0.1705E+01
   -0.069997   19.12089  0.0000E+00  0.1951E-03  0.3111E-03  0.2047E-03  0.5551E-01  0.7280E+00
   -0.104996   19.16170  0.0000E+00  0.1516E-03  0.1528E-03  0.2220E-03  0.4122E-01  0.1456E+00
   -0.139995   19.18384  0.0000E+00  0.1251E-03  0.9441E-04  0.2319E-03  0.3273E-01  0.1235E+01
   -0.174995   19.19712  0.0000E+00  0.1058E-03  0.6060E-04  0.2512E-03  0.2709E-01  0.3728E+01
   -0.209994   19.20799  0.0000E+00  0.9141E-04  0.3939E-04  0.2883E-03  0.2293E-01  0.8077E+01
   -0.244994   19.21548  0.0000E+00  0.8062E-04  0.2570E-04  0.3200E-03  0.1969E-01  0.2925E+02
   -0.279995   19.22254  0.0000E+00  0.7213E-04  0.1697E-04  0.3657E-03  0.1690E-01  0.2211E+03
   -0.314995   19.22984  0.0000E+00  0.6506E-04  0.1131E-04  0.4613E-03  0.1398E-01  0.1595E+03
   -0.349996   19.23417  0.0000E+00  0.5944E-04  0.7486E-05  0.5275E-03  0.1211E-01  0.1558E+03
   -0.384997   19.23795  0.0000E+00  0.5496E-04  0.5092E-05  0.5815E-03  0.1059E-01  0.2572E+03
   -0.419998   19.24106  0.0000E+00  0.5139E-04  0.3461E-05  0.6407E-03  0.9328E-02  0.2792E+03
   -0.454999   19.24435  0.0000E+00  0.4857E-04  0.2466E-05  0.6662E-03  0.8065E-02  0.2172E+03
   -0.490000   19.24708  0.0000E+00  0.4623E-04  0.1831E-05  0.7274E-03  0.6772E-02  0.2057E+03
   -0.525001   19.25038  0.0000E+00  0.4409E-04  0.1387E-05  0.7987E-03  0.5618E-02  0.4808E+02
   -0.560003   19.25299  0.0000E+00  0.4192E-04  0.1055E-05  0.8253E-03  0.4767E-02  0.4108E+03
   -0.595004   19.25597  0.0000E+00  0.3944E-04  0.7715E-06  0.8913E-03  0.4081E-02 -0.5608E+01
   -0.630006   19.25946  0.0000E+00  0.3724E-04  0.5813E-06  0.9309E-03  0.3717E-02 -0.2567E+03
   -0.665007   19.26263  0.0000E+00  0.3534E-04  0.4577E-06  0.8831E-03  0.3339E-02  0.3165E+03
   -0.700009   19.26608  0.0000E+00  0.3376E-04  0.3763E-06  0.1001E-02  0.2919E-02  0.3154E+03
   -0.735011   19.26920  0.0000E+00  0.3250E-04  0.3250E-06  0.1045E-02  0.2601E-02  0.1588E+04
   -0.770012   19.27221  0.0000E+00  0.3136E-04  0.2873E-06  0.9513E-03  0.2323E-02  0.1626E+03
   -0.805014   19.27540  0.0000E+00  0.3014E-04  0.2549E-06  0.9270E-03  0.2024E-02  0.4012E+01
   -0.840015   19.27875  0.0000E+00  0.2900E-04  0.2328E-06  0.9389E-03  0.1745E-02  0.6851E+02
   -0.875017   19.28194  0.0000E+00  0.2795E-04  0.2180E-06  0.9276E-03  0.1514E-02  0.2263E+03
   -0.910018   19.28525  0.0000E+00  0.2692E-04  0.2090E-06  0.9120E-03  0.1312E-02  0.9888E+01
   -0.945019   19.28866  0.0000E+00  0.2593E-04  0.2055E-06  0.8975E-03  0.1131E-02  0.2665E+03
   -0.980021   19.29205  0.0000E+00  0.2499E-04  0.2084E-06  0.8671E-03  0.9790E-03  0.3381E+02
   -1.015021   19.29567  0.0000E+00  0.2407E-04  0.2191E-06  0.8389E-03  0.8405E-03  0.2591E+03
   -1.050022   19.29964  0.0000E+00  0.2313E-04  0.2431E-06  0.7933E-03  0.7250E-03  0.8563E+02
   -1.085023   19.30459  0.0000E+00  0.2209E-04  0.2863E-06  0.7549E-03  0.6246E-03  0.1428E+04
   -1.120023   19.31088  0.0000E+00  0.2093E-04  0.3625E-06  0.7069E-03  0.5333E-03  0.1069E+05
   -1.155024   19.31826  0.0000E+00  0.1972E-04  0.5007E-06  0.6453E-03  0.4499E-03  0.8497E+05
   -1.190024   19.32960  0.0000E+00  0.1846E-04  0.7439E-06  0.5924E-03  0.3637E-03  0.2196E+05
   -1.225023   19.34165  0.0000E+00  0.1738E-04  0.1141E-05  0.5342E-03  0.2784E-03  0.1669E+07
   -1.260023   19.35576  0.0000E+00  0.1610E-04  0.2687E-05  0.4510E-03  0.2077E-03 -0.9281E+07
   -1.295022   19.44457  0.0000E+00  0.1477E-04  0.4491E-05  0.4580E-03  0.1445E-03  0.1104E+07
   -1.330021   19.38677  0.0000E+00  0.1257E-04  0.1180E-04  0.2685E-03  0.1251E-03 -0.6668E+08
   -1.365020   19.63024  0.0000E+00  0.9835E-05  0.1810E-04  0.2979E-03  0.7496E-04  0.1321E+07
   -1.400018   19.53744  0.0000E+00  0.0000E+00  0.0000E+00  0.0000E+00  0.1565E-03  0.0000E+00
