 1 - depth, m
 2 - temperature, C
 3 - salinity, kg/kg
 4 - turbulent kinetic energy, m**2/s**2
 5 - dissipation rate, m**2/s**3
 6 - kinematic heat conductance, m**2/s
 7 - modulus of horizontal velocity, m/s
 8 - Richardson number, n/d
   -0.000000    0.00147  0.0000E+00  0.5680E-03  0.1508E-02  0.1013E-03  0.3743E+00  0.1292E-01
   -0.034999    0.12544  0.0000E+00  0.3755E-03  0.7728E-03  0.2079E-03  0.1247E+00 -0.1078E+01
   -0.069999    0.21776  0.0000E+00  0.2764E-03  0.2829E-03  0.2674E-03  0.7248E-01  0.6394E-01
   -0.104998    0.25743  0.0000E+00  0.2270E-03  0.1596E-03  0.2797E-03  0.5500E-01  0.1660E+01
   -0.139998    0.28167  0.0000E+00  0.1951E-03  0.1009E-03  0.2899E-03  0.4592E-01  0.1119E+00
   -0.174999    0.29987  0.0000E+00  0.1727E-03  0.6598E-04  0.2992E-03  0.3993E-01  0.1086E+00
   -0.209999    0.31514  0.0000E+00  0.1557E-03  0.4374E-04  0.3092E-03  0.3537E-01  0.1583E-01
   -0.245000    0.32918  0.0000E+00  0.1418E-03  0.2921E-04  0.3146E-03  0.3149E-01  0.1142E+00
   -0.280001    0.34219  0.0000E+00  0.1299E-03  0.1969E-04  0.3136E-03  0.2797E-01  0.1863E+00
   -0.315003    0.35506  0.0000E+00  0.1186E-03  0.1342E-04  0.3236E-03  0.2412E-01  0.9878E+00
   -0.350004    0.36845  0.0000E+00  0.1090E-03  0.9297E-05  0.3260E-03  0.2139E-01  0.1495E+01
   -0.385006    0.38278  0.0000E+00  0.1005E-03  0.6576E-05  0.3249E-03  0.1912E-01  0.3871E+03
   -0.420007    0.39833  0.0000E+00  0.9283E-04  0.4776E-05  0.3173E-03  0.1719E-01  0.5386E+02
   -0.455009    0.41511  0.0000E+00  0.8587E-04  0.3591E-05  0.3053E-03  0.1520E-01  0.1091E+03
   -0.490011    0.43297  0.0000E+00  0.7910E-04  0.2806E-05  0.2912E-03  0.1320E-01  0.3658E+04
   -0.525014    0.45529  0.0000E+00  0.7200E-04  0.2244E-05  0.2872E-03  0.1131E-01  0.1674E+07
   -0.560016    0.48765  0.0000E+00  0.6475E-04  0.1813E-05  0.2744E-03  0.9933E-02  0.1465E+10
   -0.595018    0.54237  0.0000E+00  0.5673E-04  0.1428E-05  0.2409E-03  0.8994E-02  0.2204E+10
   -0.630021    0.61849  0.0000E+00  0.4935E-04  0.1127E-05  0.2105E-03  0.8519E-02  0.8708E+13
   -0.665023    0.71601  0.0000E+00  0.4280E-04  0.8998E-06  0.1875E-03  0.7908E-02  0.2981E+11
   -0.700025    0.82899  0.0000E+00  0.3689E-04  0.7235E-06  0.1665E-03  0.7228E-02  0.2913E+11
   -0.735028    0.95365  0.0000E+00  0.3149E-04  0.5817E-06  0.1444E-03  0.6504E-02 -0.7555E+10
   -0.770030    1.12297  0.0000E+00  0.2660E-04  0.4653E-06  0.1240E-03  0.5733E-02  0.9744E+10
   -0.805033    1.39960  0.0000E+00  0.2232E-04  0.3712E-06  0.1206E-03  0.4946E-02  0.1635E+11
   -0.840035    1.74798  0.0000E+00  0.1865E-04  0.2955E-06  0.1306E-03  0.4175E-02  0.2306E+11
   -0.875037    2.15725  0.0000E+00  0.1551E-04  0.2331E-06  0.1472E-03  0.3435E-02  0.1443E+12
   -0.910039    2.63409  0.0000E+00  0.1313E-04  0.1846E-06  0.1690E-03  0.2694E-02  0.5404E+11
   -0.945042    3.01263  0.0000E+00  0.1137E-04  0.1497E-06  0.1925E-03  0.2155E-02  0.2378E+12
   -0.980043    3.36795  0.0000E+00  0.9993E-05  0.1226E-06  0.2171E-03  0.1659E-02  0.2531E+11
   -1.015045    3.68908  0.0000E+00  0.9034E-05  0.1033E-06  0.2372E-03  0.1216E-02  0.2972E+11
   -1.050047    3.91933  0.0000E+00  0.8356E-05  0.8976E-07  0.2540E-03  0.9134E-03  0.3540E+11
   -1.085048    4.09638  0.0000E+00  0.7934E-05  0.8131E-07  0.2654E-03  0.6957E-03  0.4491E+11
   -1.120050    4.21520  0.0000E+00  0.7665E-05  0.7667E-07  0.2707E-03  0.5628E-03  0.8970E+11
   -1.155051    4.28945  0.0000E+00  0.7475E-05  0.7503E-07  0.2706E-03  0.4643E-03  0.1099E+12
   -1.190052    4.35057  0.0000E+00  0.7335E-05  0.7657E-07  0.2617E-03  0.3838E-03 -0.2107E+12
   -1.225052    4.40831  0.0000E+00  0.7222E-05  0.8266E-07  0.2476E-03  0.3157E-03  0.1438E+13
   -1.260053    4.46999  0.0000E+00  0.7099E-05  0.9840E-07  0.2088E-03  0.2590E-03  0.6706E+12
   -1.295053    4.54660  0.0000E+00  0.6798E-05  0.1444E-06  0.1750E-03  0.2121E-03 -0.2028E+13
   -1.330052    4.67839  0.0000E+00  0.6089E-05  0.2589E-06  0.1067E-03  0.1751E-03 -0.1073E+14
   -1.365052    4.89553  0.0000E+00  0.4221E-05  0.6452E-06  0.3618E-04  0.1335E-03 -0.1897E+15
   -1.400051    5.28549  0.0000E+00  0.0000E+00  0.0000E+00  0.0000E+00  0.1524E-03  0.0000E+00
