 1 - depth, m
 2 - temperature, C
 3 - salinity, kg/kg
 4 - turbulent kinetic energy, m**2/s**2
 5 - dissipation rate, m**2/s**3
 6 - kinematic heat conductance, m**2/s
 7 - modulus of horizontal velocity, m/s
 8 - Richardson number, n/d
   -0.000000    7.59074  0.0000E+00  0.1674E-03  0.1058E-03  0.5136E-04  0.1197E+00 -0.6152E+01
   -0.034998    7.90153  0.0000E+00  0.9610E-04  0.2734E-04  0.9304E-04  0.3867E-01 -0.5239E-01
   -0.069996    7.95931  0.0000E+00  0.7095E-04  0.1129E-04  0.1176E-03  0.2634E-01 -0.1023E+00
   -0.104994    7.99804  0.0000E+00  0.5812E-04  0.6199E-05  0.1360E-03  0.2127E-01 -0.4308E-01
   -0.139993    8.02495  0.0000E+00  0.4946E-04  0.3724E-05  0.1576E-03  0.1781E-01  0.9582E+00
   -0.174992    8.04590  0.0000E+00  0.4317E-04  0.2346E-05  0.1968E-03  0.1514E-01  0.2776E+02
   -0.209991    8.06269  0.0000E+00  0.3859E-04  0.1556E-05  0.2445E-03  0.1299E-01  0.5946E+02
   -0.244991    8.07639  0.0000E+00  0.3518E-04  0.1086E-05  0.2933E-03  0.1119E-01  0.1436E+03
   -0.279990    8.08788  0.0000E+00  0.3252E-04  0.7904E-06  0.3490E-03  0.9618E-02  0.7457E+03
   -0.314990    8.09769  0.0000E+00  0.3030E-04  0.5963E-06  0.4237E-03  0.8192E-02  0.4325E+03
   -0.349990    8.10593  0.0000E+00  0.2855E-04  0.4684E-06  0.4928E-03  0.7027E-02  0.5755E+03
   -0.384991    8.11288  0.0000E+00  0.2717E-04  0.3795E-06  0.5424E-03  0.6025E-02  0.8840E+02
   -0.419991    8.11909  0.0000E+00  0.2613E-04  0.3157E-06  0.5747E-03  0.5131E-02  0.3966E+03
   -0.454992    8.12479  0.0000E+00  0.2534E-04  0.2704E-06  0.6059E-03  0.4298E-02  0.9820E+02
   -0.489993    8.13020  0.0000E+00  0.2476E-04  0.2379E-06  0.6321E-03  0.3520E-02  0.1847E+02
   -0.524993    8.13538  0.0000E+00  0.2429E-04  0.2120E-06  0.6644E-03  0.2788E-02  0.3367E+01
   -0.559994    8.14111  0.0000E+00  0.2388E-04  0.1893E-06  0.7072E-03  0.2193E-02  0.1719E+01
   -0.594995    8.14786  0.0000E+00  0.2345E-04  0.1671E-06  0.8141E-03  0.1763E-02  0.1245E+01
   -0.629996    8.15586  0.0000E+00  0.2306E-04  0.1505E-06  0.9116E-03  0.1522E-02  0.1642E+01
   -0.664997    8.16321  0.0000E+00  0.2271E-04  0.1385E-06  0.9372E-03  0.1323E-02  0.1377E+01
   -0.699998    8.17043  0.0000E+00  0.2241E-04  0.1300E-06  0.9714E-03  0.1141E-02  0.1321E+01
   -0.735000    8.17743  0.0000E+00  0.2213E-04  0.1245E-06  0.9972E-03  0.9820E-03  0.1302E+01
   -0.770001    8.18435  0.0000E+00  0.2184E-04  0.1215E-06  0.1015E-02  0.8458E-03  0.1297E+01
   -0.805002    8.19125  0.0000E+00  0.2156E-04  0.1207E-06  0.1023E-02  0.7318E-03  0.1261E+01
   -0.840003    8.19820  0.0000E+00  0.2126E-04  0.1218E-06  0.1024E-02  0.6371E-03  0.1985E+00
   -0.875004    8.20530  0.0000E+00  0.2096E-04  0.1249E-06  0.1007E-02  0.5591E-03  0.7964E+01
   -0.910004    8.21271  0.0000E+00  0.2064E-04  0.1299E-06  0.9947E-03  0.4954E-03  0.8396E+00
   -0.945005    8.22050  0.0000E+00  0.2029E-04  0.1377E-06  0.9606E-03  0.4420E-03  0.7361E+03
   -0.980006    8.22888  0.0000E+00  0.1990E-04  0.1495E-06  0.9153E-03  0.3953E-03  0.2289E+03
   -1.015006    8.23826  0.0000E+00  0.1947E-04  0.1670E-06  0.8757E-03  0.3534E-03  0.1711E+04
   -1.050006    8.24911  0.0000E+00  0.1894E-04  0.1938E-06  0.8463E-03  0.3153E-03  0.3240E+04
   -1.085007    8.26216  0.0000E+00  0.1831E-04  0.2368E-06  0.7750E-03  0.2798E-03  0.1634E+03
   -1.120006    8.28236  0.0000E+00  0.1755E-04  0.2989E-06  0.7213E-03  0.2448E-03  0.1448E+05
   -1.155006    8.29985  0.0000E+00  0.1673E-04  0.4018E-06  0.6386E-03  0.2112E-03  0.5310E+04
   -1.190006    8.33744  0.0000E+00  0.1584E-04  0.5657E-06  0.6071E-03  0.1728E-03  0.9178E+06
   -1.225005    8.36177  0.0000E+00  0.1507E-04  0.8153E-06  0.5250E-03  0.1361E-03 -0.7914E+06
   -1.260004    8.42639  0.0000E+00  0.1408E-04  0.1926E-05  0.4644E-03  0.1026E-03  0.1883E+09
   -1.295003    8.63727  0.0000E+00  0.1308E-04  0.3102E-05  0.4386E-03  0.7275E-04  0.3017E+07
   -1.330001    8.51051  0.0000E+00  0.1133E-04  0.9226E-05  0.2502E-03  0.6286E-04 -0.8229E+09
   -1.364999    9.20180  0.0000E+00  0.8947E-05  0.1413E-04  0.2792E-03  0.3839E-04 -0.3252E+07
   -1.399997    8.91515  0.0000E+00  0.0000E+00  0.0000E+00  0.0000E+00  0.7483E-04  0.0000E+00
