 1 - depth, m
 2 - temperature, C
 3 - salinity, kg/kg
 4 - turbulent kinetic energy, m**2/s**2
 5 - dissipation rate, m**2/s**3
 6 - kinematic heat conductance, m**2/s
 7 - modulus of horizontal velocity, m/s
 8 - Richardson number, n/d
   -0.000000   10.75050  0.0000E+00  0.2845E-04  0.5712E-05  0.2651E-04  0.2790E-01 -0.1894E+00
   -0.034998   10.86898  0.0000E+00  0.2094E-04  0.1699E-05  0.1008E-03  0.1253E-01  0.8065E+02
   -0.069996   10.89624  0.0000E+00  0.1839E-04  0.8267E-06  0.1609E-03  0.9308E-02  0.1991E+02
   -0.104994   10.91195  0.0000E+00  0.1721E-04  0.4917E-06  0.2333E-03  0.7600E-02  0.3694E+02
   -0.139993   10.92271  0.0000E+00  0.1669E-04  0.3284E-06  0.3120E-03  0.6393E-02  0.9245E+02
   -0.174992   10.93058  0.0000E+00  0.1655E-04  0.2396E-06  0.3869E-03  0.5464E-02  0.2091E+02
   -0.209991   10.93674  0.0000E+00  0.1667E-04  0.1873E-06  0.4596E-03  0.4703E-02  0.8923E+02
   -0.244990   10.94166  0.0000E+00  0.1694E-04  0.1546E-06  0.5321E-03  0.4049E-02  0.4952E+03
   -0.279990   10.94572  0.0000E+00  0.1729E-04  0.1332E-06  0.5979E-03  0.3465E-02  0.1849E+03
   -0.314990   10.94922  0.0000E+00  0.1768E-04  0.1181E-06  0.6719E-03  0.2919E-02  0.1152E+03
   -0.349990   10.95239  0.0000E+00  0.1808E-04  0.1072E-06  0.7446E-03  0.2451E-02  0.6803E+01
   -0.384990   10.95535  0.0000E+00  0.1851E-04  0.9956E-07  0.8153E-03  0.2047E-02  0.2575E+01
   -0.419990   10.95815  0.0000E+00  0.1896E-04  0.9455E-07  0.8794E-03  0.1702E-02  0.2198E+01
   -0.454991   10.96080  0.0000E+00  0.1943E-04  0.9174E-07  0.9406E-03  0.1391E-02  0.1941E+01
   -0.489991   10.96333  0.0000E+00  0.1993E-04  0.9088E-07  0.9943E-03  0.1113E-02  0.1737E+01
   -0.524992   10.96577  0.0000E+00  0.2050E-04  0.9181E-07  0.1064E-02  0.8640E-03  0.1416E+01
   -0.559993   10.96847  0.0000E+00  0.2114E-04  0.9433E-07  0.1159E-02  0.6745E-03  0.1334E+01
   -0.594994   10.97159  0.0000E+00  0.2176E-04  0.9798E-07  0.1285E-02  0.5498E-03  0.1262E+01
   -0.629995   10.97563  0.0000E+00  0.2216E-04  0.1014E-06  0.1351E-02  0.4758E-03  0.1580E+01
   -0.664996   10.97955  0.0000E+00  0.2244E-04  0.1049E-06  0.1353E-02  0.4279E-03  0.1623E+01
   -0.699997   10.98349  0.0000E+00  0.2264E-04  0.1089E-06  0.1350E-02  0.3866E-03  0.1668E+01
   -0.734998   10.98746  0.0000E+00  0.2277E-04  0.1135E-06  0.1339E-02  0.3516E-03  0.1832E+01
   -0.769999   10.99157  0.0000E+00  0.2284E-04  0.1189E-06  0.1318E-02  0.3219E-03  0.2078E+01
   -0.805000   10.99586  0.0000E+00  0.2284E-04  0.1254E-06  0.1293E-02  0.2963E-03  0.2427E+01
   -0.840001   11.00045  0.0000E+00  0.2278E-04  0.1334E-06  0.1255E-02  0.2739E-03  0.4730E+00
   -0.875001   11.00540  0.0000E+00  0.2265E-04  0.1436E-06  0.1216E-02  0.2536E-03  0.1336E+02
   -0.910002   11.01091  0.0000E+00  0.2243E-04  0.1568E-06  0.1164E-02  0.2350E-03  0.1583E+02
   -0.945003   11.01704  0.0000E+00  0.2214E-04  0.1741E-06  0.1144E-02  0.2172E-03 -0.1497E+04
   -0.980003   11.02412  0.0000E+00  0.2176E-04  0.1982E-06  0.1073E-02  0.1998E-03  0.2082E+04
   -1.015004   11.03213  0.0000E+00  0.2129E-04  0.2334E-06  0.1005E-02  0.1822E-03  0.5470E+04
   -1.050004   11.04219  0.0000E+00  0.2071E-04  0.2860E-06  0.9392E-03  0.1641E-03  0.1166E+05
   -1.085004   11.05526  0.0000E+00  0.2003E-04  0.3784E-06  0.8977E-03  0.1452E-03  0.2092E+05
   -1.120004   11.07329  0.0000E+00  0.1923E-04  0.4836E-06  0.8141E-03  0.1272E-03  0.7144E+07
   -1.155004   11.08423  0.0000E+00  0.1838E-04  0.7780E-06  0.7333E-03  0.1108E-03  0.1122E+07
   -1.190003   11.12513  0.0000E+00  0.1746E-04  0.1068E-05  0.7155E-03  0.8890E-04  0.1910E+07
   -1.225002   11.13498  0.0000E+00  0.1670E-04  0.1554E-05  0.6281E-03  0.7060E-04 -0.2116E+07
   -1.260001   11.21205  0.0000E+00  0.1565E-04  0.3774E-05  0.5763E-03  0.5246E-04  0.2679E+08
   -1.295000   11.39444  0.0000E+00  0.1459E-04  0.5671E-05  0.5329E-03  0.3757E-04  0.1577E+09
   -1.329998   11.26195  0.0000E+00  0.1272E-04  0.1833E-04  0.3045E-03  0.3291E-04 -0.1849E+10
   -1.364996   11.89181  0.0000E+00  0.1017E-04  0.2546E-04  0.3655E-03  0.2004E-04 -0.1232E+07
   -1.399994   11.60370  0.0000E+00  0.0000E+00  0.0000E+00  0.0000E+00  0.4217E-04  0.0000E+00
