 1 - depth, m
 2 - temperature, C
 3 - salinity, kg/kg
 4 - turbulent kinetic energy, m**2/s**2
 5 - dissipation rate, m**2/s**3
 6 - kinematic heat conductance, m**2/s
 7 - modulus of horizontal velocity, m/s
 8 - Richardson number, n/d
   -0.000000    5.00877  0.0000E+00  0.9306E-03  0.5514E-02  0.1138E-03  0.4342E+00  0.9339E-03
   -0.034998    5.47906  0.0000E+00  0.5093E-03  0.2597E-02  0.1842E-03  0.1312E+00 -0.2767E-01
   -0.069996    5.66837  0.0000E+00  0.3324E-03  0.8088E-03  0.2833E-03  0.7382E-01 -0.1361E+01
   -0.104994    5.74198  0.0000E+00  0.2650E-03  0.4708E-03  0.3044E-03  0.5547E-01 -0.1845E+00
   -0.139993    5.77784  0.0000E+00  0.2205E-03  0.3062E-03  0.3143E-03  0.4486E-01 -0.4468E-02
   -0.174992    5.80136  0.0000E+00  0.1876E-03  0.2092E-03  0.3227E-03  0.3790E-01 -0.8469E-01
   -0.209991    5.81894  0.0000E+00  0.1622E-03  0.1411E-03  0.3285E-03  0.3282E-01 -0.3843E-01
   -0.244990    5.83251  0.0000E+00  0.1430E-03  0.8810E-04  0.3334E-03  0.2867E-01 -0.2227E+01
   -0.279990    5.84422  0.0000E+00  0.1276E-03  0.5629E-04  0.3342E-03  0.2499E-01  0.6863E+00
   -0.314990    5.85752  0.0000E+00  0.1141E-03  0.3921E-04  0.3594E-03  0.2074E-01  0.6347E+01
   -0.349990    5.86942  0.0000E+00  0.1034E-03  0.2822E-04  0.3743E-03  0.1812E-01  0.1384E+01
   -0.384990    5.87945  0.0000E+00  0.9460E-04  0.2075E-04  0.3903E-03  0.1606E-01 -0.1316E+02
   -0.419991    5.88961  0.0000E+00  0.8733E-04  0.1564E-04  0.4038E-03  0.1438E-01  0.1364E+02
   -0.454991    5.89943  0.0000E+00  0.8124E-04  0.1213E-04  0.4225E-03  0.1270E-01  0.8809E+02
   -0.489992    5.90932  0.0000E+00  0.7606E-04  0.9762E-05  0.4588E-03  0.1099E-01  0.2169E+02
   -0.524993    5.91905  0.0000E+00  0.7124E-04  0.8044E-05  0.5504E-03  0.9435E-02 -0.2340E+04
   -0.559994    5.92941  0.0000E+00  0.6655E-04  0.6611E-05  0.6815E-03  0.8365E-02 -0.1376E+04
   -0.594995    5.94082  0.0000E+00  0.6126E-04  0.5104E-05  0.7815E-03  0.7623E-02  0.9408E+02
   -0.629996    5.95314  0.0000E+00  0.5637E-04  0.3890E-05  0.8401E-03  0.7260E-02 -0.5969E+02
   -0.664997    5.96446  0.0000E+00  0.5208E-04  0.3031E-05  0.8588E-03  0.6732E-02  0.3572E+03
   -0.699998    5.97658  0.0000E+00  0.4832E-04  0.2403E-05  0.8437E-03  0.6164E-02 -0.2694E+03
   -0.734999    5.98639  0.0000E+00  0.4496E-04  0.1867E-05  0.8553E-03  0.5606E-02 -0.2178E+04
   -0.770000    5.99749  0.0000E+00  0.4205E-04  0.1527E-05  0.8859E-03  0.5094E-02  0.6190E+05
   -0.805001    6.00746  0.0000E+00  0.3946E-04  0.1256E-05  0.8962E-03  0.4628E-02  0.3097E+03
   -0.840002    6.01763  0.0000E+00  0.3707E-04  0.1060E-05  0.8722E-03  0.4186E-02  0.3150E+03
   -0.875002    6.02758  0.0000E+00  0.3476E-04  0.9047E-06  0.8459E-03  0.3755E-02  0.9469E+02
   -0.910003    6.03789  0.0000E+00  0.3255E-04  0.7487E-06  0.8410E-03  0.3345E-02  0.7513E+02
   -0.945004    6.04826  0.0000E+00  0.3048E-04  0.6305E-06  0.8133E-03  0.2958E-02  0.4008E+02
   -0.980004    6.05870  0.0000E+00  0.2855E-04  0.5188E-06  0.7912E-03  0.2587E-02  0.6862E+02
   -1.015005    6.06963  0.0000E+00  0.2673E-04  0.4341E-06  0.7511E-03  0.2237E-02  0.8950E+02
   -1.050005    6.08107  0.0000E+00  0.2497E-04  0.3654E-06  0.7130E-03  0.1927E-02  0.1033E+03
   -1.085005    6.09416  0.0000E+00  0.2326E-04  0.3170E-06  0.6606E-03  0.1648E-02  0.4315E+03
   -1.120005    6.11006  0.0000E+00  0.2157E-04  0.3015E-06  0.6157E-03  0.1409E-02  0.1579E+03
   -1.155005    6.12961  0.0000E+00  0.1991E-04  0.3239E-06  0.5793E-03  0.1179E-02  0.4885E+04
   -1.190004    6.15419  0.0000E+00  0.1829E-04  0.4183E-06  0.5141E-03  0.9674E-03  0.8041E+02
   -1.225003    6.19111  0.0000E+00  0.1675E-04  0.6011E-06  0.4615E-03  0.7501E-03  0.1769E+05
   -1.260002    6.22259  0.0000E+00  0.1504E-04  0.1113E-05  0.3572E-03  0.5557E-03  0.7196E+07
   -1.295001    6.45568  0.0000E+00  0.1321E-04  0.2404E-05  0.3586E-03  0.3799E-03  0.7301E+06
   -1.329999    6.33649  0.0000E+00  0.1098E-04  0.6252E-05  0.2004E-03  0.3350E-03 -0.5273E+08
   -1.364997    7.00230  0.0000E+00  0.8255E-05  0.1073E-04  0.2150E-03  0.2049E-03  0.5790E+08
   -1.399995    6.78821  0.0000E+00  0.0000E+00  0.0000E+00  0.0000E+00  0.3896E-03  0.0000E+00
