 1 - depth, m
 2 - temperature, C
 3 - salinity, kg/kg
 4 - turbulent kinetic energy, m**2/s**2
 5 - dissipation rate, m**2/s**3
 6 - kinematic heat conductance, m**2/s
 7 - modulus of horizontal velocity, m/s
 8 - Richardson number, n/d
   -0.000000   17.02388  0.0000E+00  0.1909E-03  0.2026E-03  0.7415E-04  0.1392E+00 -0.5813E+00
   -0.034998   17.20262  0.0000E+00  0.1069E-03  0.5772E-04  0.9559E-04  0.4451E-01 -0.2585E+00
   -0.069996   17.25476  0.0000E+00  0.7607E-04  0.2030E-04  0.1329E-03  0.2811E-01  0.4282E+02
   -0.104994   17.28221  0.0000E+00  0.6166E-04  0.1122E-04  0.1551E-03  0.2205E-01  0.1875E+01
   -0.139993   17.29833  0.0000E+00  0.5170E-04  0.5925E-05  0.1842E-03  0.1817E-01  0.2215E+02
   -0.174992   17.31042  0.0000E+00  0.4494E-04  0.3506E-05  0.2353E-03  0.1531E-01  0.1178E+03
   -0.209991   17.31924  0.0000E+00  0.4013E-04  0.2194E-05  0.2970E-03  0.1308E-01  0.6183E+03
   -0.244991   17.32650  0.0000E+00  0.3661E-04  0.1441E-05  0.3628E-03  0.1122E-01  0.3766E+03
   -0.279991   17.33187  0.0000E+00  0.3403E-04  0.1001E-05  0.4256E-03  0.9640E-02  0.5568E+03
   -0.314991   17.33651  0.0000E+00  0.3197E-04  0.7260E-06  0.4883E-03  0.8170E-02  0.7032E+03
   -0.349991   17.34000  0.0000E+00  0.3036E-04  0.5511E-06  0.5357E-03  0.6990E-02  0.5239E+03
   -0.384991   17.34309  0.0000E+00  0.2916E-04  0.4355E-06  0.5848E-03  0.5968E-02  0.2132E+03
   -0.419991   17.34587  0.0000E+00  0.2831E-04  0.3581E-06  0.6127E-03  0.5094E-02  0.8536E+03
   -0.454992   17.34850  0.0000E+00  0.2772E-04  0.3051E-06  0.6400E-03  0.4261E-02  0.8648E+02
   -0.489993   17.35099  0.0000E+00  0.2730E-04  0.2673E-06  0.6809E-03  0.3461E-02  0.1416E+02
   -0.524994   17.35339  0.0000E+00  0.2699E-04  0.2380E-06  0.7258E-03  0.2714E-02  0.2913E+01
   -0.559995   17.35595  0.0000E+00  0.2678E-04  0.2132E-06  0.7805E-03  0.2112E-02  0.5385E+01
   -0.594996   17.35890  0.0000E+00  0.2658E-04  0.1911E-06  0.8861E-03  0.1686E-02  0.1318E+01
   -0.629997   17.36232  0.0000E+00  0.2637E-04  0.1758E-06  0.9835E-03  0.1458E-02  0.1725E+01
   -0.664998   17.36550  0.0000E+00  0.2615E-04  0.1652E-06  0.9946E-03  0.1276E-02  0.1518E+01
   -0.699999   17.36863  0.0000E+00  0.2592E-04  0.1579E-06  0.1035E-02  0.1104E-02  0.1533E+01
   -0.735000   17.37166  0.0000E+00  0.2567E-04  0.1538E-06  0.1066E-02  0.9567E-03  0.1554E+01
   -0.770001   17.37464  0.0000E+00  0.2540E-04  0.1524E-06  0.1089E-02  0.8313E-03  0.1613E+01
   -0.805002   17.37762  0.0000E+00  0.2511E-04  0.1532E-06  0.1099E-02  0.7271E-03  0.1731E+01
   -0.840003   17.38064  0.0000E+00  0.2478E-04  0.1562E-06  0.1095E-02  0.6404E-03  0.1944E+01
   -0.875004   17.38373  0.0000E+00  0.2443E-04  0.1616E-06  0.1077E-02  0.5688E-03  0.2355E+01
   -0.910005   17.38700  0.0000E+00  0.2404E-04  0.1700E-06  0.1047E-02  0.5092E-03  0.2510E+01
   -0.945006   17.39052  0.0000E+00  0.2360E-04  0.1828E-06  0.1015E-02  0.4580E-03  0.5936E+01
   -0.980006   17.39445  0.0000E+00  0.2310E-04  0.2018E-06  0.9867E-03  0.4122E-03  0.1149E+02
   -1.015007   17.39885  0.0000E+00  0.2251E-04  0.2309E-06  0.9366E-03  0.3702E-03 -0.1088E+04
   -1.050007   17.40403  0.0000E+00  0.2182E-04  0.2760E-06  0.8802E-03  0.3308E-03  0.6494E+03
   -1.085007   17.41115  0.0000E+00  0.2099E-04  0.3471E-06  0.8240E-03  0.2926E-03  0.5611E+02
   -1.120007   17.42089  0.0000E+00  0.2004E-04  0.4431E-06  0.7873E-03  0.2552E-03  0.1885E+07
   -1.155007   17.42911  0.0000E+00  0.1902E-04  0.6097E-06  0.6869E-03  0.2204E-03  0.7111E+06
   -1.190006   17.44770  0.0000E+00  0.1794E-04  0.8682E-06  0.6630E-03  0.1780E-03  0.1334E+06
   -1.225006   17.45870  0.0000E+00  0.1701E-04  0.1296E-05  0.5647E-03  0.1397E-03  0.4588E+07
   -1.260005   17.49256  0.0000E+00  0.1582E-04  0.3280E-05  0.5118E-03  0.1023E-03 -0.1046E+08
   -1.295003   17.60309  0.0000E+00  0.1467E-04  0.5092E-05  0.4818E-03  0.7189E-04 -0.3380E+08
   -1.330002   17.52871  0.0000E+00  0.1265E-04  0.1589E-04  0.2835E-03  0.6324E-04 -0.1599E+10
   -1.365000   17.86851  0.0000E+00  0.1019E-04  0.2310E-04  0.3437E-03  0.3741E-04  0.3915E+06
   -1.399998   17.71265  0.0000E+00  0.0000E+00  0.0000E+00  0.0000E+00  0.8260E-04  0.0000E+00
