 1 - depth, m
 2 - temperature, C
 3 - salinity, kg/kg
 4 - turbulent kinetic energy, m**2/s**2
 5 - dissipation rate, m**2/s**3
 6 - kinematic heat conductance, m**2/s
 7 - modulus of horizontal velocity, m/s
 8 - Richardson number, n/d
   -0.000000   13.04886  0.0000E+00  0.6539E-04  0.2043E-04  0.3600E-04  0.6165E-01 -0.1454E+00
   -0.034998   13.21810  0.0000E+00  0.4004E-04  0.6087E-05  0.6078E-04  0.2296E-01 -0.3913E-01
   -0.069996   13.25664  0.0000E+00  0.3126E-04  0.2506E-05  0.9039E-04  0.1622E-01  0.1172E+01
   -0.104994   13.27898  0.0000E+00  0.2686E-04  0.1352E-05  0.1377E-03  0.1304E-01  0.4538E+02
   -0.139993   13.29510  0.0000E+00  0.2425E-04  0.8281E-06  0.2353E-03  0.1085E-01  0.1627E+03
   -0.174992   13.30611  0.0000E+00  0.2266E-04  0.5556E-06  0.3199E-03  0.9259E-02  0.4811E+03
   -0.209991   13.31370  0.0000E+00  0.2175E-04  0.3989E-06  0.3812E-03  0.7980E-02  0.2750E+04
   -0.244991   13.31936  0.0000E+00  0.2130E-04  0.3055E-06  0.4256E-03  0.6878E-02  0.2096E+03
   -0.279990   13.32410  0.0000E+00  0.2111E-04  0.2474E-06  0.4638E-03  0.5883E-02  0.3030E+03
   -0.314990   13.32824  0.0000E+00  0.2104E-04  0.2070E-06  0.5083E-03  0.4951E-02  0.6682E+02
   -0.349991   13.33203  0.0000E+00  0.2109E-04  0.1780E-06  0.5565E-03  0.4152E-02  0.1769E+02
   -0.384991   13.33555  0.0000E+00  0.2127E-04  0.1568E-06  0.6107E-03  0.3457E-02  0.7348E+01
   -0.419991   13.33887  0.0000E+00  0.2157E-04  0.1416E-06  0.6705E-03  0.2853E-02  0.8318E+01
   -0.454992   13.34195  0.0000E+00  0.2196E-04  0.1313E-06  0.7346E-03  0.2306E-02  0.2794E+01
   -0.489993   13.34483  0.0000E+00  0.2244E-04  0.1253E-06  0.7968E-03  0.1810E-02  0.2299E+01
   -0.524993   13.34755  0.0000E+00  0.2305E-04  0.1226E-06  0.8475E-03  0.1364E-02  0.1684E+01
   -0.559994   13.35053  0.0000E+00  0.2377E-04  0.1229E-06  0.9151E-03  0.1030E-02  0.1449E+01
   -0.594995   13.35395  0.0000E+00  0.2446E-04  0.1251E-06  0.1089E-02  0.8149E-03  0.1261E+01
   -0.629996   13.35793  0.0000E+00  0.2486E-04  0.1277E-06  0.1265E-02  0.7046E-03  0.1428E+01
   -0.664997   13.36149  0.0000E+00  0.2510E-04  0.1308E-06  0.1298E-02  0.6261E-03  0.1362E+01
   -0.699999   13.36499  0.0000E+00  0.2524E-04  0.1346E-06  0.1321E-02  0.5588E-03  0.1314E+01
   -0.735000   13.36848  0.0000E+00  0.2529E-04  0.1392E-06  0.1323E-02  0.5025E-03  0.1293E+01
   -0.770001   13.37205  0.0000E+00  0.2527E-04  0.1449E-06  0.1305E-02  0.4556E-03  0.1313E+01
   -0.805002   13.37577  0.0000E+00  0.2518E-04  0.1519E-06  0.1275E-02  0.4163E-03  0.2119E+01
   -0.840003   13.37974  0.0000E+00  0.2501E-04  0.1608E-06  0.1247E-02  0.3827E-03  0.1718E+01
   -0.875004   13.38400  0.0000E+00  0.2477E-04  0.1726E-06  0.1198E-02  0.3535E-03  0.3054E+04
   -0.910004   13.38887  0.0000E+00  0.2444E-04  0.1881E-06  0.1164E-02  0.3271E-03 -0.6908E+02
   -0.945005   13.39428  0.0000E+00  0.2402E-04  0.2098E-06  0.1118E-02  0.3023E-03  0.5269E+04
   -0.980006   13.40071  0.0000E+00  0.2351E-04  0.2381E-06  0.1065E-02  0.2777E-03  0.1787E+04
   -1.015006   13.40780  0.0000E+00  0.2290E-04  0.2785E-06  0.1015E-02  0.2532E-03  0.7319E+04
   -1.050007   13.41661  0.0000E+00  0.2219E-04  0.3376E-06  0.9524E-03  0.2272E-03  0.1622E+05
   -1.085007   13.42725  0.0000E+00  0.2135E-04  0.4837E-06  0.9018E-03  0.2016E-03  0.8125E+04
   -1.120007   13.44550  0.0000E+00  0.2039E-04  0.6173E-06  0.8192E-03  0.1751E-03  0.1108E+06
   -1.155006   13.45388  0.0000E+00  0.1935E-04  0.9130E-06  0.7436E-03  0.1522E-03  0.1558E+06
   -1.190006   13.49143  0.0000E+00  0.1830E-04  0.1227E-05  0.7611E-03  0.1203E-03  0.5122E+06
   -1.225005   13.49730  0.0000E+00  0.1740E-04  0.1825E-05  0.6395E-03  0.9465E-04 -0.1438E+07
   -1.260004   13.57656  0.0000E+00  0.1622E-04  0.4638E-05  0.5864E-03  0.6815E-04  0.1889E+09
   -1.295003   13.71724  0.0000E+00  0.1514E-04  0.6875E-05  0.5190E-03  0.4840E-04  0.3963E+09
   -1.330001   13.60556  0.0000E+00  0.1330E-04  0.2397E-04  0.3082E-03  0.4261E-04 -0.7016E+10
   -1.364999   14.16003  0.0000E+00  0.1077E-04  0.3245E-04  0.3958E-03  0.2527E-04 -0.1672E+06
   -1.399997   13.87599  0.0000E+00  0.0000E+00  0.0000E+00  0.0000E+00  0.5787E-04  0.0000E+00
