 1 - depth, m
 2 - temperature, C
 3 - salinity, kg/kg
 4 - turbulent kinetic energy, m**2/s**2
 5 - dissipation rate, m**2/s**3
 6 - kinematic heat conductance, m**2/s
 7 - modulus of horizontal velocity, m/s
 8 - Richardson number, n/d
   -0.000000   20.07739  0.0000E+00  0.1893E-04  0.1739E-05  0.2226E-04  0.2255E-01 -0.4639E-01
   -0.034998   20.13073  0.0000E+00  0.1568E-04  0.5987E-06  0.5536E-04  0.1215E-01 -0.1324E+00
   -0.069996   20.14912  0.0000E+00  0.1448E-04  0.3248E-06  0.1248E-03  0.8880E-02  0.3044E+02
   -0.104994   20.15835  0.0000E+00  0.1408E-04  0.2217E-06  0.2553E-03  0.7179E-02  0.4724E+04
   -0.139993   20.16273  0.0000E+00  0.1414E-04  0.1724E-06  0.3439E-03  0.6161E-02  0.8852E+02
   -0.174992   20.16561  0.0000E+00  0.1445E-04  0.1422E-06  0.3773E-03  0.5334E-02  0.6524E+01
   -0.209991   20.16821  0.0000E+00  0.1487E-04  0.1212E-06  0.4178E-03  0.4590E-02  0.5678E+01
   -0.244991   20.17054  0.0000E+00  0.1535E-04  0.1062E-06  0.4615E-03  0.3926E-02  0.5161E+01
   -0.279991   20.17265  0.0000E+00  0.1585E-04  0.9503E-07  0.5140E-03  0.3317E-02  0.5156E+01
   -0.314991   20.17452  0.0000E+00  0.1634E-04  0.8642E-07  0.5848E-03  0.2742E-02  0.3668E+01
   -0.349991   20.17620  0.0000E+00  0.1682E-04  0.8001E-07  0.6604E-03  0.2252E-02  0.2802E+01
   -0.384991   20.17772  0.0000E+00  0.1730E-04  0.7554E-07  0.7355E-03  0.1837E-02  0.2258E+01
   -0.419992   20.17911  0.0000E+00  0.1778E-04  0.7284E-07  0.8031E-03  0.1491E-02  0.1994E+01
   -0.454992   20.18040  0.0000E+00  0.1825E-04  0.7172E-07  0.8597E-03  0.1191E-02  0.1784E+01
   -0.489993   20.18162  0.0000E+00  0.1871E-04  0.7204E-07  0.9037E-03  0.9300E-03  0.1606E+01
   -0.524994   20.18280  0.0000E+00  0.1920E-04  0.7381E-07  0.9541E-03  0.7071E-03  0.1353E+01
   -0.559995   20.18406  0.0000E+00  0.1970E-04  0.7684E-07  0.1061E-02  0.5486E-03  0.1277E+01
   -0.594996   20.18539  0.0000E+00  0.2015E-04  0.8063E-07  0.1303E-02  0.4514E-03  0.1192E+01
   -0.629997   20.18686  0.0000E+00  0.2042E-04  0.8384E-07  0.1441E-02  0.4011E-03  0.1357E+01
   -0.664998   20.18823  0.0000E+00  0.2058E-04  0.8688E-07  0.1432E-02  0.3659E-03  0.1314E+01
   -0.699999   20.18963  0.0000E+00  0.2068E-04  0.9008E-07  0.1402E-02  0.3354E-03  0.1273E+01
   -0.735000   20.19108  0.0000E+00  0.2072E-04  0.9356E-07  0.1366E-02  0.3093E-03  0.1278E+01
   -0.770002   20.19259  0.0000E+00  0.2072E-04  0.9751E-07  0.1323E-02  0.2869E-03  0.1351E+01
   -0.805003   20.19420  0.0000E+00  0.2066E-04  0.1021E-06  0.1286E-02  0.2674E-03  0.1272E+01
   -0.840004   20.19590  0.0000E+00  0.2055E-04  0.1077E-06  0.1240E-02  0.2502E-03 -0.1038E+03
   -0.875005   20.19777  0.0000E+00  0.2039E-04  0.1146E-06  0.1209E-02  0.2341E-03  0.1155E+02
   -0.910005   20.19975  0.0000E+00  0.2015E-04  0.1237E-06  0.1158E-02  0.2192E-03  0.2500E+02
   -0.945006   20.20208  0.0000E+00  0.1985E-04  0.1352E-06  0.1091E-02  0.2040E-03  0.3074E+03
   -0.980007   20.20457  0.0000E+00  0.1947E-04  0.1511E-06  0.1078E-02  0.1889E-03  0.1551E+04
   -1.015007   20.20770  0.0000E+00  0.1901E-04  0.1756E-06  0.9684E-03  0.1725E-03  0.1773E+05
   -1.050008   20.21122  0.0000E+00  0.1844E-04  0.2072E-06  0.9123E-03  0.1559E-03  0.6519E+04
   -1.085008   20.21562  0.0000E+00  0.1775E-04  0.2691E-06  0.8546E-03  0.1385E-03  0.5394E+05
   -1.120008   20.22291  0.0000E+00  0.1694E-04  0.3388E-06  0.7924E-03  0.1211E-03  0.2070E+06
   -1.155008   20.22752  0.0000E+00  0.1605E-04  0.4663E-06  0.7263E-03  0.1047E-03  0.1119E+07
   -1.190007   20.24072  0.0000E+00  0.1509E-04  0.6573E-06  0.6469E-03  0.8459E-04  0.1497E+07
   -1.225006   20.24629  0.0000E+00  0.1424E-04  0.9694E-06  0.5569E-03  0.6564E-04 -0.2398E+07
   -1.260005   20.27649  0.0000E+00  0.1315E-04  0.2591E-05  0.5075E-03  0.4807E-04  0.5256E+09
   -1.295004   20.34331  0.0000E+00  0.1207E-04  0.3901E-05  0.4727E-03  0.3333E-04  0.9611E+07
   -1.330003   20.28902  0.0000E+00  0.1027E-04  0.1136E-04  0.2497E-03  0.2979E-04 -0.6837E+10
   -1.365001   20.53611  0.0000E+00  0.8287E-05  0.1664E-04  0.3411E-03  0.1698E-04 -0.2297E+06
   -1.399999   20.41941  0.0000E+00  0.0000E+00  0.0000E+00  0.0000E+00  0.3846E-04  0.0000E+00
