 1 - depth, m
 2 - temperature, C
 3 - salinity, kg/kg
 4 - turbulent kinetic energy, m**2/s**2
 5 - dissipation rate, m**2/s**3
 6 - kinematic heat conductance, m**2/s
 7 - modulus of horizontal velocity, m/s
 8 - Richardson number, n/d
   -0.000000    0.00000  0.0000E+00  0.1219E-13  0.7604E-17  0.1000E-09  0.0000E+00  0.1344E+17
   -0.068756    0.20741  0.0000E+00  0.1219E-13  0.7604E-17  0.1000E-09  0.0000E+00  0.1236E+17
   -0.137513    0.40936  0.0000E+00  0.1219E-13  0.7604E-17  0.1000E-09  0.0000E+00  0.1133E+17
   -0.206271    0.60587  0.0000E+00  0.1219E-13  0.7604E-17  0.1000E-09  0.0000E+00  0.1037E+17
   -0.275029    0.79691  0.0000E+00  0.1219E-13  0.7604E-17  0.1000E-09  0.0000E+00  0.9499E+16
   -0.343787    0.98315  0.0000E+00  0.1219E-13  0.7604E-17  0.1000E-09  0.0000E+00  0.8683E+16
   -0.412547    1.16469  0.0000E+00  0.1781E-13  0.7604E-17  0.1000E-09  0.0000E+00  0.7914E+16
   -0.481306    1.34153  0.0000E+00  0.7198E-13  0.8200E-17  0.1000E-09  0.0000E+00  0.7185E+16
   -0.550066    1.51355  0.0000E+00  0.1796E-12  0.1442E-16  0.1000E-09  0.0000E+00  0.6484E+16
   -0.618827    1.68024  0.0000E+00  0.3818E-12  0.2766E-16  0.1000E-09  0.0000E+00  0.5829E+16
   -0.687588    1.84156  0.0000E+00  0.7651E-12  0.5313E-16  0.1000E-09  0.0000E+00  0.5283E+16
   -0.756349    1.99949  0.0000E+00  0.1497E-11  0.1011E-15  0.1000E-09  0.0000E+00  0.4804E+16
   -0.825111    2.15530  0.0000E+00  0.2892E-11  0.1910E-15  0.1000E-09  0.0000E+00  0.4344E+16
   -0.893872    2.30902  0.0000E+00  0.5541E-11  0.3582E-15  0.1000E-09  0.0000E+00  0.3903E+16
   -0.962634    2.46068  0.0000E+00  0.1055E-10  0.6674E-15  0.1000E-09  0.0000E+00  0.3479E+16
   -1.031397    2.61026  0.0000E+00  0.1992E-10  0.1235E-14  0.1000E-09  0.0000E+00  0.3074E+16
   -1.100159    2.75785  0.0000E+00  0.3735E-10  0.2268E-14  0.1000E-09  0.0000E+00  0.2684E+16
   -1.168922    2.90343  0.0000E+00  0.6960E-10  0.4140E-14  0.1000E-09  0.0000E+00  0.2310E+16
   -1.237684    3.04692  0.0000E+00  0.1289E-09  0.7515E-14  0.1000E-09  0.0000E+00  0.1950E+16
   -1.306447    3.18822  0.0000E+00  0.2374E-09  0.1357E-13  0.1000E-09  0.0000E+00  0.1605E+16
   -1.375210    3.32720  0.0000E+00  0.4349E-09  0.2436E-13  0.1000E-09  0.0000E+00  0.1286E+16
   -1.443973    3.46497  0.0000E+00  0.7920E-09  0.4349E-13  0.2265E-09  0.0000E+00  0.9772E+15
   -1.512735    3.60170  0.0000E+00  0.1436E-08  0.7734E-13  0.5820E-09  0.0000E+00  0.6763E+15
   -1.581498    3.73727  0.0000E+00  0.2600E-08  0.1374E-12  0.1828E-08  0.0000E+00  0.3824E+15
   -1.650261    3.87079  0.0000E+00  0.4668E-08  0.2420E-12  0.1182E-07  0.0000E+00  0.1041E+15
   -1.719023    3.99455  0.0000E+00  0.5081E-08  0.2646E-12  0.3413E-04  0.0000E+00 -0.6860E+11
   -1.787785    3.99506  0.0000E+00  0.5280E-08  0.2777E-12  0.3519E-04  0.0000E+00 -0.7565E+11
   -1.856547    3.99560  0.0000E+00  0.5461E-08  0.2921E-12  0.3618E-04  0.0000E+00 -0.7928E+11
   -1.925309    3.99613  0.0000E+00  0.5624E-08  0.3081E-12  0.3667E-04  0.0000E+00 -0.8362E+11
   -1.994071    3.99666  0.0000E+00  0.5769E-08  0.3260E-12  0.3666E-04  0.0000E+00 -0.8923E+11
   -2.062832    3.99719  0.0000E+00  0.5895E-08  0.3463E-12  0.3592E-04  0.0000E+00 -0.9628E+11
   -2.131593    3.99774  0.0000E+00  0.6000E-08  0.3697E-12  0.3460E-04  0.0000E+00 -0.1055E+12
   -2.200353    3.99832  0.0000E+00  0.6084E-08  0.3975E-12  0.3271E-04  0.0000E+00 -0.1180E+12
   -2.269114    3.99893  0.0000E+00  0.6143E-08  0.4318E-12  0.3027E-04  0.0000E+00 -0.1356E+12
   -2.337873    3.99960  0.0000E+00  0.6173E-08  0.4774E-12  0.2710E-04  0.0000E+00 -0.1624E+12
   -2.406632    4.00036  0.0000E+00  0.6166E-08  0.5419E-12  0.2311E-04  0.0000E+00 -0.2063E+12
   -2.475391    4.00126  0.0000E+00  0.6101E-08  0.6424E-12  0.1827E-04  0.0000E+00 -0.2885E+12
   -2.544149    4.00245  0.0000E+00  0.5934E-08  0.8286E-12  0.1253E-04  0.0000E+00 -0.4864E+12
   -2.612907    4.00427  0.0000E+00  0.5514E-08  0.1310E-11  0.6105E-05  0.0000E+00 -0.1292E+13
   -2.681664    4.00839  0.0000E+00  0.3991E-08  0.4093E-11  0.8765E-06  0.0000E+00 -0.2076E+14
   -2.750420    4.04233  0.0000E+00  0.0000E+00  0.0000E+00  0.0000E+00  0.0000E+00  0.0000E+00
