 1 - depth, m
 2 - temperature, C
 3 - salinity, kg/kg
 4 - turbulent kinetic energy, m**2/s**2
 5 - dissipation rate, m**2/s**3
 6 - kinematic heat conductance, m**2/s
 7 - modulus of horizontal velocity, m/s
 8 - Richardson number, n/d
   -0.000000    0.00000  0.0000E+00  0.1219E-13  0.7604E-17  0.1000E-09  0.0000E+00  0.1279E+17
   -0.068755    0.19703  0.0000E+00  0.1219E-13  0.7604E-17  0.1000E-09  0.0000E+00  0.1171E+17
   -0.137511    0.38755  0.0000E+00  0.1219E-13  0.7604E-17  0.1000E-09  0.0000E+00  0.1071E+17
   -0.206268    0.57173  0.0000E+00  0.1219E-13  0.7604E-17  0.1000E-09  0.0000E+00  0.9786E+16
   -0.275025    0.74968  0.0000E+00  0.1219E-13  0.7604E-17  0.1000E-09  0.0000E+00  0.8985E+16
   -0.343782    0.92268  0.0000E+00  0.1219E-13  0.7604E-17  0.1000E-09  0.0000E+00  0.8249E+16
   -0.412540    1.09110  0.0000E+00  0.1219E-13  0.7604E-17  0.1000E-09  0.0000E+00  0.7563E+16
   -0.481299    1.25507  0.0000E+00  0.1219E-13  0.7604E-17  0.1000E-09  0.0000E+00  0.6913E+16
   -0.550058    1.41453  0.0000E+00  0.1222E-13  0.7604E-17  0.1000E-09  0.0000E+00  0.6278E+16
   -0.618817    1.56886  0.0000E+00  0.6057E-13  0.8823E-17  0.1000E-09  0.0000E+00  0.5688E+16
   -0.687577    1.71811  0.0000E+00  0.1664E-12  0.1780E-16  0.1000E-09  0.0000E+00  0.5223E+16
   -0.756337    1.86475  0.0000E+00  0.3885E-12  0.3834E-16  0.1000E-09  0.0000E+00  0.4830E+16
   -0.825098    2.01039  0.0000E+00  0.8610E-12  0.8194E-16  0.1000E-09  0.0000E+00  0.4452E+16
   -0.893859    2.15519  0.0000E+00  0.1869E-11  0.1732E-15  0.1000E-09  0.0000E+00  0.4084E+16
   -0.962620    2.29930  0.0000E+00  0.4011E-11  0.3626E-15  0.1000E-09  0.0000E+00  0.3727E+16
   -1.031381    2.44284  0.0000E+00  0.8519E-11  0.7517E-15  0.1000E-09  0.0000E+00  0.3385E+16
   -1.100142    2.58626  0.0000E+00  0.1792E-10  0.1544E-14  0.1000E-09  0.0000E+00  0.3048E+16
   -1.168904    2.72966  0.0000E+00  0.3739E-10  0.3148E-14  0.1000E-09  0.0000E+00  0.2713E+16
   -1.237665    2.87311  0.0000E+00  0.7740E-10  0.6367E-14  0.1000E-09  0.0000E+00  0.2381E+16
   -1.306427    3.01663  0.0000E+00  0.1590E-09  0.1278E-13  0.1000E-09  0.0000E+00  0.2049E+16
   -1.375189    3.16023  0.0000E+00  0.3243E-09  0.2549E-13  0.1000E-09  0.0000E+00  0.1737E+16
   -1.443950    3.30563  0.0000E+00  0.6567E-09  0.5046E-13  0.1811E-09  0.0000E+00  0.1418E+16
   -1.512712    3.45336  0.0000E+00  0.1322E-08  0.9932E-13  0.4658E-09  0.0000E+00  0.1085E+16
   -1.581474    3.60354  0.0000E+00  0.2653E-08  0.1950E-12  0.1351E-08  0.0000E+00  0.7349E+15
   -1.650235    3.75577  0.0000E+00  0.5285E-08  0.3803E-12  0.5260E-08  0.0000E+00  0.3680E+15
   -1.718997    3.90698  0.0000E+00  0.1008E-07  0.7131E-12  0.8030E-07  0.0000E+00  0.4526E+14
   -1.787758    4.00924  0.0000E+00  0.1078E-07  0.7651E-12  0.5809E-04  0.0000E+00 -0.1328E+12
   -1.856519    4.00961  0.0000E+00  0.1109E-07  0.7937E-12  0.5875E-04  0.0000E+00 -0.1432E+12
   -1.925280    4.01000  0.0000E+00  0.1136E-07  0.8247E-12  0.5931E-04  0.0000E+00 -0.1480E+12
   -1.994040    4.01039  0.0000E+00  0.1159E-07  0.8587E-12  0.5911E-04  0.0000E+00 -0.1543E+12
   -2.062800    4.01080  0.0000E+00  0.1178E-07  0.8972E-12  0.5748E-04  0.0000E+00 -0.1626E+12
   -2.131560    4.01122  0.0000E+00  0.1192E-07  0.9416E-12  0.5489E-04  0.0000E+00 -0.1742E+12
   -2.200320    4.01166  0.0000E+00  0.1202E-07  0.9942E-12  0.5168E-04  0.0000E+00 -0.1897E+12
   -2.269079    4.01214  0.0000E+00  0.1208E-07  0.1059E-11  0.4783E-04  0.0000E+00 -0.2112E+12
   -2.337837    4.01265  0.0000E+00  0.1208E-07  0.1146E-11  0.4300E-04  0.0000E+00 -0.2434E+12
   -2.406595    4.01324  0.0000E+00  0.1201E-07  0.1268E-11  0.3702E-04  0.0000E+00 -0.2953E+12
   -2.475353    4.01393  0.0000E+00  0.1184E-07  0.1456E-11  0.2977E-04  0.0000E+00 -0.3889E+12
   -2.544110    4.01481  0.0000E+00  0.1150E-07  0.1799E-11  0.2109E-04  0.0000E+00 -0.5999E+12
   -2.612866    4.01613  0.0000E+00  0.1073E-07  0.2656E-11  0.1094E-04  0.0000E+00 -0.1358E+13
   -2.681622    4.01890  0.0000E+00  0.7487E-08  0.8168E-11  0.1348E-05  0.0000E+00 -0.1964E+14
   -2.750378    4.04607  0.0000E+00  0.0000E+00  0.0000E+00  0.0000E+00  0.0000E+00  0.0000E+00
