 1 - depth, m
 2 - temperature, C
 3 - salinity, kg/kg
 4 - turbulent kinetic energy, m**2/s**2
 5 - dissipation rate, m**2/s**3
 6 - kinematic heat conductance, m**2/s
 7 - modulus of horizontal velocity, m/s
 8 - Richardson number, n/d
   -0.000000    0.00000  0.0000E+00  0.9172E-12  0.2022E-15  0.1000E-09  0.0000E+00  0.1956E+17
   -0.068743    0.30587  0.0000E+00  0.2200E-11  0.2385E-15  0.1000E-09  0.0000E+00  0.1725E+17
   -0.137487    0.60002  0.0000E+00  0.5025E-11  0.4291E-15  0.1000E-09  0.0000E+00  0.1523E+17
   -0.206231    0.88427  0.0000E+00  0.1064E-10  0.8415E-15  0.1000E-09  0.0000E+00  0.1343E+17
   -0.274976    1.15988  0.0000E+00  0.2171E-10  0.1656E-14  0.1000E-09  0.0000E+00  0.1182E+17
   -0.343721    1.42827  0.0000E+00  0.4344E-10  0.3231E-14  0.1000E-09  0.0000E+00  0.1036E+17
   -0.412467    1.69033  0.0000E+00  0.8601E-10  0.6255E-14  0.1000E-09  0.0000E+00  0.9017E+16
   -0.481213    1.94678  0.0000E+00  0.1690E-09  0.1202E-13  0.1000E-09  0.0000E+00  0.7769E+16
   -0.549960    2.19806  0.0000E+00  0.3301E-09  0.2299E-13  0.1000E-09  0.0000E+00  0.6596E+16
   -0.618707    2.44428  0.0000E+00  0.6411E-09  0.4372E-13  0.1000E-09  0.0000E+00  0.5499E+16
   -0.687455    2.68570  0.0000E+00  0.1238E-08  0.8266E-13  0.1000E-09  0.0000E+00  0.4515E+16
   -0.756203    2.92522  0.0000E+00  0.2375E-08  0.1554E-12  0.2209E-09  0.0000E+00  0.3581E+16
   -0.824951    3.16441  0.0000E+00  0.4530E-08  0.2903E-12  0.5564E-09  0.0000E+00  0.2656E+16
   -0.893699    3.40309  0.0000E+00  0.8583E-08  0.5391E-12  0.1578E-08  0.0000E+00  0.1740E+16
   -0.962448    3.64038  0.0000E+00  0.1613E-07  0.9932E-12  0.6047E-08  0.0000E+00  0.8371E+15
   -1.031197    3.87139  0.0000E+00  0.2885E-07  0.1751E-11  0.9458E-07  0.0000E+00  0.9615E+14
   -1.099946    4.01794  0.0000E+00  0.2934E-07  0.1783E-11  0.1710E-03  0.0000E+00 -0.8933E+11
   -1.168695    4.01812  0.0000E+00  0.2958E-07  0.1801E-11  0.1706E-03  0.0000E+00 -0.9881E+11
   -1.237445    4.01832  0.0000E+00  0.2978E-07  0.1820E-11  0.1777E-03  0.0000E+00 -0.9814E+11
   -1.306194    4.01851  0.0000E+00  0.2996E-07  0.1840E-11  0.1777E-03  0.0000E+00 -0.9995E+11
   -1.374944    4.01871  0.0000E+00  0.3012E-07  0.1863E-11  0.1773E-03  0.0000E+00 -0.1011E+12
   -1.443693    4.01891  0.0000E+00  0.3027E-07  0.1887E-11  0.1768E-03  0.0000E+00 -0.1022E+12
   -1.512442    4.01911  0.0000E+00  0.3039E-07  0.1913E-11  0.1758E-03  0.0000E+00 -0.1037E+12
   -1.581192    4.01931  0.0000E+00  0.3049E-07  0.1943E-11  0.1745E-03  0.0000E+00 -0.1054E+12
   -1.649941    4.01951  0.0000E+00  0.3057E-07  0.1976E-11  0.1727E-03  0.0000E+00 -0.1074E+12
   -1.718690    4.01972  0.0000E+00  0.3064E-07  0.2013E-11  0.1706E-03  0.0000E+00 -0.1098E+12
   -1.787439    4.01993  0.0000E+00  0.3068E-07  0.2054E-11  0.1679E-03  0.0000E+00 -0.1126E+12
   -1.856188    4.02014  0.0000E+00  0.3070E-07  0.2101E-11  0.1648E-03  0.0000E+00 -0.1158E+12
   -1.924936    4.02036  0.0000E+00  0.3070E-07  0.2154E-11  0.1612E-03  0.0000E+00 -0.1197E+12
   -1.993685    4.02058  0.0000E+00  0.3068E-07  0.2215E-11  0.1570E-03  0.0000E+00 -0.1243E+12
   -2.062433    4.02082  0.0000E+00  0.3063E-07  0.2284E-11  0.1521E-03  0.0000E+00 -0.1294E+12
   -2.131180    4.02105  0.0000E+00  0.3055E-07  0.2366E-11  0.1467E-03  0.0000E+00 -0.1354E+12
   -2.199927    4.02130  0.0000E+00  0.3044E-07  0.2462E-11  0.1405E-03  0.0000E+00 -0.1426E+12
   -2.268674    4.02156  0.0000E+00  0.3028E-07  0.2587E-11  0.1334E-03  0.0000E+00 -0.1519E+12
   -2.337420    4.02184  0.0000E+00  0.3002E-07  0.2777E-11  0.1090E-03  0.0000E+00 -0.1881E+12
   -2.406166    4.02217  0.0000E+00  0.2964E-07  0.3072E-11  0.8300E-04  0.0000E+00 -0.2511E+12
   -2.474912    4.02262  0.0000E+00  0.2906E-07  0.3540E-11  0.6290E-04  0.0000E+00 -0.3386E+12
   -2.543656    4.02321  0.0000E+00  0.2815E-07  0.4396E-11  0.4305E-04  0.0000E+00 -0.5116E+12
   -2.612401    4.02408  0.0000E+00  0.2637E-07  0.6515E-11  0.2185E-04  0.0000E+00 -0.1071E+13
   -2.681144    4.02585  0.0000E+00  0.1704E-07  0.2364E-10  0.1847E-05  0.0000E+00 -0.1680E+14
   -2.749887    4.04721  0.0000E+00  0.0000E+00  0.0000E+00  0.0000E+00  0.0000E+00  0.0000E+00
