 1 - depth, m
 2 - temperature, C
 3 - salinity, kg/kg
 4 - turbulent kinetic energy, m**2/s**2
 5 - dissipation rate, m**2/s**3
 6 - kinematic heat conductance, m**2/s
 7 - modulus of horizontal velocity, m/s
 8 - Richardson number, n/d
   -0.000000    0.00000  0.0000E+00  0.1219E-13  0.7604E-17  0.1000E-09  0.0000E+00  0.9973E+16
   -0.068783    0.15273  0.0000E+00  0.1219E-13  0.7604E-17  0.1000E-09  0.0000E+00  0.9292E+16
   -0.137567    0.30111  0.0000E+00  0.1219E-13  0.7604E-17  0.1000E-09  0.0000E+00  0.8631E+16
   -0.206352    0.44487  0.0000E+00  0.1219E-13  0.7604E-17  0.1000E-09  0.0000E+00  0.7998E+16
   -0.275137    0.58383  0.0000E+00  0.1219E-13  0.7604E-17  0.1000E-09  0.0000E+00  0.7424E+16
   -0.343923    0.71843  0.0000E+00  0.1219E-13  0.7604E-17  0.1000E-09  0.0000E+00  0.6887E+16
   -0.412709    0.84875  0.0000E+00  0.1219E-13  0.7604E-17  0.1000E-09  0.0000E+00  0.6382E+16
   -0.481496    0.97480  0.0000E+00  0.1219E-13  0.7604E-17  0.1000E-09  0.0000E+00  0.5901E+16
   -0.550283    1.09652  0.0000E+00  0.1219E-13  0.7604E-17  0.1000E-09  0.0000E+00  0.5434E+16
   -0.619070    1.21355  0.0000E+00  0.1219E-13  0.7604E-17  0.1000E-09  0.0000E+00  0.4994E+16
   -0.687858    1.32587  0.0000E+00  0.1219E-13  0.7604E-17  0.1000E-09  0.0000E+00  0.4642E+16
   -0.756647    1.43489  0.0000E+00  0.1219E-13  0.7604E-17  0.1000E-09  0.0000E+00  0.4343E+16
   -0.825435    1.54150  0.0000E+00  0.1219E-13  0.7604E-17  0.1000E-09  0.0000E+00  0.4059E+16
   -0.894224    1.64569  0.0000E+00  0.1219E-13  0.7604E-17  0.1000E-09  0.0000E+00  0.3787E+16
   -0.963013    1.74747  0.0000E+00  0.1219E-13  0.7604E-17  0.1000E-09  0.0000E+00  0.3528E+16
   -1.031803    1.84679  0.0000E+00  0.1219E-13  0.7604E-17  0.1000E-09  0.0000E+00  0.3285E+16
   -1.100592    1.94378  0.0000E+00  0.1219E-13  0.7604E-17  0.1000E-09  0.0000E+00  0.3054E+16
   -1.169382    2.03840  0.0000E+00  0.1219E-13  0.7604E-17  0.1000E-09  0.0000E+00  0.2832E+16
   -1.238171    2.13062  0.0000E+00  0.1219E-13  0.7604E-17  0.1000E-09  0.0000E+00  0.2621E+16
   -1.306961    2.22038  0.0000E+00  0.1219E-13  0.7604E-17  0.1000E-09  0.0000E+00  0.2419E+16
   -1.375751    2.30762  0.0000E+00  0.1219E-13  0.7604E-17  0.1000E-09  0.0000E+00  0.2258E+16
   -1.444541    2.39346  0.0000E+00  0.1219E-13  0.7604E-17  0.1000E-09  0.0000E+00  0.2111E+16
   -1.513331    2.47826  0.0000E+00  0.1219E-13  0.7604E-17  0.1000E-09  0.0000E+00  0.1973E+16
   -1.582120    2.56217  0.0000E+00  0.1219E-13  0.7604E-17  0.1000E-09  0.0000E+00  0.1840E+16
   -1.650910    2.64525  0.0000E+00  0.1219E-13  0.7604E-17  0.1000E-09  0.0000E+00  0.1709E+16
   -1.719700    2.72745  0.0000E+00  0.1219E-13  0.7604E-17  0.1000E-09  0.0000E+00  0.1581E+16
   -1.788489    2.80869  0.0000E+00  0.1219E-13  0.7604E-17  0.1000E-09  0.0000E+00  0.1455E+16
   -1.857278    2.88890  0.0000E+00  0.1219E-13  0.7604E-17  0.1000E-09  0.0000E+00  0.1333E+16
   -1.926067    2.96800  0.0000E+00  0.1219E-13  0.7604E-17  0.1000E-09  0.0000E+00  0.1214E+16
   -1.994855    3.04589  0.0000E+00  0.1219E-13  0.7604E-17  0.1000E-09  0.0000E+00  0.1098E+16
   -2.063644    3.12244  0.0000E+00  0.1219E-13  0.7604E-17  0.1000E-09  0.0000E+00  0.1007E+16
   -2.132432    3.19933  0.0000E+00  0.1219E-13  0.7604E-17  0.1000E-09  0.0000E+00  0.9199E+15
   -2.201219    3.27689  0.0000E+00  0.1219E-13  0.7604E-17  0.1000E-09  0.0000E+00  0.8319E+15
   -2.270006    3.35529  0.0000E+00  0.1219E-13  0.7604E-17  0.1000E-09  0.0000E+00  0.7566E+15
   -2.338793    3.43632  0.0000E+00  0.1555E-13  0.1781E-16  0.1000E-09  0.0000E+00  0.6830E+15
   -2.407579    3.52157  0.0000E+00  0.1371E-12  0.1618E-15  0.1000E-09  0.0000E+00  0.6035E+15
   -2.476365    3.61288  0.0000E+00  0.1361E-11  0.1592E-14  0.1000E-09  0.0000E+00  0.5127E+15
   -2.545150    3.71369  0.0000E+00  0.1389E-10  0.1621E-13  0.1792E-09  0.0000E+00  0.3992E+15
   -2.613935    3.83291  0.0000E+00  0.1476E-09  0.1741E-12  0.3604E-08  0.0000E+00  0.1846E+15
   -2.682719    3.98786  0.0000E+00  0.1606E-08  0.2044E-11  0.4274E-06  0.0000E+00 -0.4383E+14
   -2.751502    4.06117  0.0000E+00  0.0000E+00  0.0000E+00  0.0000E+00  0.0000E+00  0.0000E+00
