 1 - depth, m
 2 - temperature, C
 3 - salinity, kg/kg
 4 - turbulent kinetic energy, m**2/s**2
 5 - dissipation rate, m**2/s**3
 6 - kinematic heat conductance, m**2/s
 7 - modulus of horizontal velocity, m/s
 8 - Richardson number, n/d
   -0.000000    0.00000  0.0000E+00  0.1219E-13  0.7603E-17  0.1000E-09  0.0000E+00  0.1320E+17
   -0.068761    0.20360  0.0000E+00  0.1219E-13  0.7603E-17  0.1000E-09  0.0000E+00  0.1237E+17
   -0.137523    0.40559  0.0000E+00  0.1219E-13  0.7603E-17  0.1000E-09  0.0000E+00  0.1153E+17
   -0.206286    0.60537  0.0000E+00  0.1219E-13  0.7603E-17  0.1000E-09  0.0000E+00  0.1069E+17
   -0.275049    0.80250  0.0000E+00  0.1222E-13  0.7603E-17  0.1000E-09  0.0000E+00  0.9890E+16
   -0.343813    0.99705  0.0000E+00  0.5978E-13  0.7605E-17  0.1000E-09  0.0000E+00  0.9111E+16
   -0.412577    1.18886  0.0000E+00  0.1568E-12  0.1278E-16  0.1000E-09  0.0000E+00  0.8355E+16
   -0.481342    1.37774  0.0000E+00  0.3372E-12  0.2425E-16  0.1000E-09  0.0000E+00  0.7621E+16
   -0.550107    1.56344  0.0000E+00  0.6768E-12  0.4636E-16  0.1000E-09  0.0000E+00  0.6905E+16
   -0.618873    1.74549  0.0000E+00  0.1321E-11  0.8795E-16  0.1000E-09  0.0000E+00  0.6217E+16
   -0.687639    1.92366  0.0000E+00  0.2545E-11  0.1655E-15  0.1000E-09  0.0000E+00  0.5584E+16
   -0.756405    2.09849  0.0000E+00  0.4858E-11  0.3090E-15  0.1000E-09  0.0000E+00  0.4990E+16
   -0.825172    2.27025  0.0000E+00  0.9209E-11  0.5735E-15  0.1000E-09  0.0000E+00  0.4419E+16
   -0.893939    2.43864  0.0000E+00  0.1735E-10  0.1058E-14  0.1000E-09  0.0000E+00  0.3871E+16
   -0.962706    2.60338  0.0000E+00  0.3247E-10  0.1940E-14  0.1000E-09  0.0000E+00  0.3349E+16
   -1.031473    2.76413  0.0000E+00  0.6036E-10  0.3532E-14  0.1000E-09  0.0000E+00  0.2859E+16
   -1.100241    2.92083  0.0000E+00  0.1114E-09  0.6387E-14  0.1000E-09  0.0000E+00  0.2399E+16
   -1.169008    3.07320  0.0000E+00  0.2043E-09  0.1148E-13  0.1000E-09  0.0000E+00  0.1969E+16
   -1.237776    3.22101  0.0000E+00  0.3726E-09  0.2052E-13  0.1000E-09  0.0000E+00  0.1572E+16
   -1.306544    3.36407  0.0000E+00  0.6757E-09  0.3648E-13  0.1538E-09  0.0000E+00  0.1207E+16
   -1.375312    3.50217  0.0000E+00  0.1218E-08  0.6449E-13  0.3714E-09  0.0000E+00  0.8838E+15
   -1.444080    3.63659  0.0000E+00  0.2184E-08  0.1134E-12  0.9852E-09  0.0000E+00  0.5858E+15
   -1.512848    3.76757  0.0000E+00  0.3895E-08  0.1983E-12  0.3271E-08  0.0000E+00  0.3087E+15
   -1.581616    3.89390  0.0000E+00  0.6856E-08  0.3430E-12  0.2675E-07  0.0000E+00  0.6536E+14
   -1.650383    4.00059  0.0000E+00  0.7237E-08  0.3631E-12  0.5694E-04  0.0000E+00 -0.6125E+11
   -1.719151    4.00087  0.0000E+00  0.7408E-08  0.3738E-12  0.5657E-04  0.0000E+00 -0.7046E+11
   -1.787918    4.00117  0.0000E+00  0.7556E-08  0.3851E-12  0.5676E-04  0.0000E+00 -0.7247E+11
   -1.856685    4.00148  0.0000E+00  0.7685E-08  0.3975E-12  0.5638E-04  0.0000E+00 -0.7451E+11
   -1.925452    4.00179  0.0000E+00  0.7794E-08  0.4114E-12  0.5533E-04  0.0000E+00 -0.7730E+11
   -1.994219    4.00211  0.0000E+00  0.7885E-08  0.4272E-12  0.5342E-04  0.0000E+00 -0.8138E+11
   -2.062985    4.00243  0.0000E+00  0.7955E-08  0.4453E-12  0.5106E-04  0.0000E+00 -0.8689E+11
   -2.131751    4.00277  0.0000E+00  0.8002E-08  0.4665E-12  0.4833E-04  0.0000E+00 -0.9382E+11
   -2.200517    4.00313  0.0000E+00  0.8025E-08  0.4920E-12  0.4514E-04  0.0000E+00 -0.1028E+12
   -2.269282    4.00352  0.0000E+00  0.8020E-08  0.5237E-12  0.4137E-04  0.0000E+00 -0.1153E+12
   -2.338047    4.00394  0.0000E+00  0.7981E-08  0.5663E-12  0.3678E-04  0.0000E+00 -0.1339E+12
   -2.406811    4.00442  0.0000E+00  0.7896E-08  0.6269E-12  0.3124E-04  0.0000E+00 -0.1637E+12
   -2.475575    4.00499  0.0000E+00  0.7743E-08  0.7215E-12  0.2469E-04  0.0000E+00 -0.2177E+12
   -2.544338    4.00572  0.0000E+00  0.7466E-08  0.8961E-12  0.1701E-04  0.0000E+00 -0.3403E+12
   -2.613101    4.00680  0.0000E+00  0.6874E-08  0.1341E-11  0.8352E-05  0.0000E+00 -0.7935E+12
   -2.681863    4.00914  0.0000E+00  0.4483E-08  0.4233E-11  0.8642E-06  0.0000E+00 -0.1292E+14
   -2.750624    4.03291  0.0000E+00  0.0000E+00  0.0000E+00  0.0000E+00  0.0000E+00  0.0000E+00
