 1 - depth, m
 2 - temperature, C
 3 - salinity, kg/kg
 4 - turbulent kinetic energy, m**2/s**2
 5 - dissipation rate, m**2/s**3
 6 - kinematic heat conductance, m**2/s
 7 - modulus of horizontal velocity, m/s
 8 - Richardson number, n/d
   -0.000000    0.00000  0.0000E+00  0.1529E-10  0.8684E-14  0.1000E-09  0.0000E+00  0.3603E+17
   -0.068746    0.58678  0.0000E+00  0.7467E-10  0.1932E-13  0.1000E-09  0.0000E+00  0.2193E+17
   -0.137492    1.00435  0.0000E+00  0.2820E-09  0.6609E-13  0.1014E-09  0.0000E+00  0.1475E+17
   -0.206239    1.32364  0.0000E+00  0.1007E-08  0.2284E-12  0.1592E-09  0.0000E+00  0.1087E+17
   -0.274987    1.58692  0.0000E+00  0.3518E-08  0.7771E-12  0.4726E-09  0.0000E+00  0.9229E+16
   -0.343735    1.83664  0.0000E+00  0.1199E-07  0.2583E-11  0.1527E-08  0.0000E+00  0.8441E+16
   -0.412483    2.09579  0.0000E+00  0.3956E-07  0.8313E-11  0.4164E-08  0.0000E+00  0.8464E+16
   -0.481232    2.40752  0.0000E+00  0.1235E-06  0.2532E-10  0.1374E-07  0.0000E+00  0.8501E+16
   -0.549982    2.87932  0.0000E+00  0.2455E-06  0.4877E-10  0.9214E-04  0.0000E+00  0.6073E+16
   -0.618732    3.39228  0.0000E+00  0.3439E-06  0.6704E-10  0.3123E-03  0.0000E+00  0.3577E+16
   -0.687482    3.78132  0.0000E+00  0.4146E-06  0.7965E-10  0.5117E-03  0.0000E+00  0.1619E+16
   -0.756233    4.04155  0.0000E+00  0.4472E-06  0.8527E-10  0.6613E-03  0.0000E+00  0.2724E+15
   -0.824984    4.14451  0.0000E+00  0.4492E-06  0.8586E-10  0.7597E-03  0.0000E+00 -0.9756E+12
   -0.893735    4.14492  0.0000E+00  0.4508E-06  0.8649E-10  0.7575E-03  0.0000E+00 -0.9814E+12
   -0.962487    4.14533  0.0000E+00  0.4523E-06  0.8720E-10  0.7570E-03  0.0000E+00 -0.9900E+12
   -1.031238    4.14575  0.0000E+00  0.4536E-06  0.8799E-10  0.7544E-03  0.0000E+00 -0.1004E+13
   -1.099990    4.14616  0.0000E+00  0.4548E-06  0.8888E-10  0.7507E-03  0.0000E+00 -0.1020E+13
   -1.168742    4.14658  0.0000E+00  0.4559E-06  0.8987E-10  0.7457E-03  0.0000E+00 -0.1040E+13
   -1.237494    4.14700  0.0000E+00  0.4568E-06  0.9096E-10  0.7398E-03  0.0000E+00 -0.1061E+13
   -1.306247    4.14743  0.0000E+00  0.4575E-06  0.9216E-10  0.7325E-03  0.0000E+00 -0.1088E+13
   -1.374999    4.14787  0.0000E+00  0.4581E-06  0.9349E-10  0.7243E-03  0.0000E+00 -0.1113E+13
   -1.443751    4.14831  0.0000E+00  0.4585E-06  0.9495E-10  0.7148E-03  0.0000E+00 -0.1141E+13
   -1.512503    4.14877  0.0000E+00  0.4588E-06  0.9656E-10  0.7041E-03  0.0000E+00 -0.1169E+13
   -1.581255    4.14923  0.0000E+00  0.4588E-06  0.9837E-10  0.6920E-03  0.0000E+00 -0.1202E+13
   -1.650007    4.14971  0.0000E+00  0.4587E-06  0.1004E-09  0.6784E-03  0.0000E+00 -0.1238E+13
   -1.718759    4.15019  0.0000E+00  0.4583E-06  0.1027E-09  0.6633E-03  0.0000E+00 -0.1281E+13
   -1.787511    4.15070  0.0000E+00  0.4577E-06  0.1053E-09  0.6466E-03  0.0000E+00 -0.1328E+13
   -1.856262    4.15122  0.0000E+00  0.4569E-06  0.1082E-09  0.6281E-03  0.0000E+00 -0.1384E+13
   -1.925014    4.15176  0.0000E+00  0.4558E-06  0.1116E-09  0.6079E-03  0.0000E+00 -0.1448E+13
   -1.993765    4.15232  0.0000E+00  0.4545E-06  0.1154E-09  0.5858E-03  0.0000E+00 -0.1523E+13
   -2.062515    4.15291  0.0000E+00  0.4528E-06  0.1199E-09  0.5617E-03  0.0000E+00 -0.1609E+13
   -2.131266    4.15353  0.0000E+00  0.4508E-06  0.1252E-09  0.5357E-03  0.0000E+00 -0.1713E+13
   -2.200016    4.15419  0.0000E+00  0.4484E-06  0.1315E-09  0.5075E-03  0.0000E+00 -0.1834E+13
   -2.268765    4.15489  0.0000E+00  0.4455E-06  0.1392E-09  0.4767E-03  0.0000E+00 -0.1981E+13
   -2.337514    4.15565  0.0000E+00  0.4421E-06  0.1492E-09  0.4418E-03  0.0000E+00 -0.2166E+13
   -2.406263    4.15647  0.0000E+00  0.4377E-06  0.1626E-09  0.4020E-03  0.0000E+00 -0.2415E+13
   -2.475011    4.15738  0.0000E+00  0.4322E-06  0.1817E-09  0.3572E-03  0.0000E+00 -0.2766E+13
   -2.543759    4.15842  0.0000E+00  0.4244E-06  0.2134E-09  0.2992E-03  0.0000E+00 -0.3318E+13
   -2.612506    4.15967  0.0000E+00  0.4077E-06  0.2960E-09  0.1288E-03  0.0000E+00 -0.7827E+13
   -2.681252    4.16257  0.0000E+00  0.2531E-06  0.1356E-08  0.6761E-05  0.0000E+00 -0.1727E+15
   -2.749998    4.21714  0.0000E+00  0.0000E+00  0.0000E+00  0.0000E+00  0.0000E+00  0.0000E+00
