 1 - depth, m
 2 - temperature, C
 3 - salinity, kg/kg
 4 - turbulent kinetic energy, m**2/s**2
 5 - dissipation rate, m**2/s**3
 6 - kinematic heat conductance, m**2/s
 7 - modulus of horizontal velocity, m/s
 8 - Richardson number, n/d
   -0.000000    0.00000  0.0000E+00  0.1219E-13  0.7603E-17  0.1000E-09  0.0000E+00  0.1298E+17
   -0.068749    0.20004  0.0000E+00  0.1219E-13  0.7603E-17  0.1000E-09  0.0000E+00  0.1167E+17
   -0.137499    0.39003  0.0000E+00  0.1219E-13  0.7603E-17  0.1000E-09  0.0000E+00  0.1042E+17
   -0.206249    0.56922  0.0000E+00  0.1219E-13  0.7603E-17  0.1000E-09  0.0000E+00  0.9248E+16
   -0.275000    0.73697  0.0000E+00  0.1219E-13  0.7603E-17  0.1000E-09  0.0000E+00  0.8278E+16
   -0.343751    0.89530  0.0000E+00  0.1219E-13  0.7603E-17  0.1000E-09  0.0000E+00  0.7401E+16
   -0.412503    1.04444  0.0000E+00  0.1219E-13  0.7603E-17  0.1000E-09  0.0000E+00  0.6598E+16
   -0.481255    1.18444  0.0000E+00  0.1219E-13  0.7603E-17  0.1000E-09  0.0000E+00  0.5854E+16
   -0.550008    1.31510  0.0000E+00  0.1219E-13  0.7603E-17  0.1000E-09  0.0000E+00  0.5126E+16
   -0.618761    1.43524  0.0000E+00  0.1219E-13  0.7603E-17  0.1000E-09  0.0000E+00  0.4481E+16
   -0.687515    1.54532  0.0000E+00  0.1219E-13  0.7603E-17  0.1000E-09  0.0000E+00  0.4079E+16
   -0.756269    1.65021  0.0000E+00  0.1219E-13  0.7603E-17  0.1000E-09  0.0000E+00  0.3833E+16
   -0.825023    1.75345  0.0000E+00  0.3302E-13  0.7604E-17  0.1000E-09  0.0000E+00  0.3630E+16
   -0.893778    1.85600  0.0000E+00  0.1042E-12  0.1333E-16  0.1000E-09  0.0000E+00  0.3463E+16
   -0.962533    1.95886  0.0000E+00  0.2649E-12  0.2965E-16  0.1000E-09  0.0000E+00  0.3323E+16
   -1.031287    2.06290  0.0000E+00  0.6231E-12  0.6645E-16  0.1000E-09  0.0000E+00  0.3226E+16
   -1.100043    2.16979  0.0000E+00  0.1420E-11  0.1467E-15  0.1000E-09  0.0000E+00  0.3135E+16
   -1.168798    2.28025  0.0000E+00  0.3182E-11  0.3192E-15  0.1000E-09  0.0000E+00  0.3037E+16
   -1.237553    2.39478  0.0000E+00  0.7034E-11  0.6858E-15  0.1000E-09  0.0000E+00  0.2925E+16
   -1.306309    2.51369  0.0000E+00  0.1536E-10  0.1456E-14  0.1000E-09  0.0000E+00  0.2791E+16
   -1.375064    2.63715  0.0000E+00  0.3313E-10  0.3055E-14  0.1000E-09  0.0000E+00  0.2692E+16
   -1.443820    2.76831  0.0000E+00  0.7067E-10  0.6339E-14  0.1000E-09  0.0000E+00  0.2567E+16
   -1.512575    2.90845  0.0000E+00  0.1493E-09  0.1303E-13  0.1000E-09  0.0000E+00  0.2395E+16
   -1.581331    3.05848  0.0000E+00  0.3136E-09  0.2665E-13  0.1000E-09  0.0000E+00  0.2169E+16
   -1.650086    3.21973  0.0000E+00  0.6532E-09  0.5406E-13  0.1466E-09  0.0000E+00  0.1875E+16
   -1.718841    3.39403  0.0000E+00  0.1348E-08  0.1087E-12  0.3713E-09  0.0000E+00  0.1487E+16
   -1.787596    3.58327  0.0000E+00  0.2759E-08  0.2169E-12  0.1138E-08  0.0000E+00  0.9671E+15
   -1.856351    3.78724  0.0000E+00  0.5581E-08  0.4281E-12  0.6985E-08  0.0000E+00  0.3108E+15
   -1.925105    3.99435  0.0000E+00  0.6350E-08  0.4894E-12  0.2689E-04  0.0000E+00 -0.1474E+12
   -1.993860    3.99546  0.0000E+00  0.6718E-08  0.5265E-12  0.2915E-04  0.0000E+00 -0.1655E+12
   -2.062614    3.99655  0.0000E+00  0.7044E-08  0.5678E-12  0.3039E-04  0.0000E+00 -0.1780E+12
   -2.131367    3.99761  0.0000E+00  0.7330E-08  0.6146E-12  0.3072E-04  0.0000E+00 -0.1940E+12
   -2.200121    3.99866  0.0000E+00  0.7575E-08  0.6688E-12  0.3022E-04  0.0000E+00 -0.2156E+12
   -2.268873    3.99973  0.0000E+00  0.7776E-08  0.7341E-12  0.2894E-04  0.0000E+00 -0.2463E+12
   -2.337626    4.00085  0.0000E+00  0.7934E-08  0.8187E-12  0.2671E-04  0.0000E+00 -0.2928E+12
   -2.406378    4.00209  0.0000E+00  0.8037E-08  0.9357E-12  0.2347E-04  0.0000E+00 -0.3687E+12
   -2.475129    4.00352  0.0000E+00  0.8061E-08  0.1114E-11  0.1915E-04  0.0000E+00 -0.5093E+12
   -2.543880    4.00531  0.0000E+00  0.7955E-08  0.1436E-11  0.1365E-04  0.0000E+00 -0.8406E+12
   -2.612630    4.00796  0.0000E+00  0.7544E-08  0.2245E-11  0.7067E-05  0.0000E+00 -0.2130E+13
   -2.681380    4.01352  0.0000E+00  0.5840E-08  0.6821E-11  0.1196E-05  0.0000E+00 -0.2872E+14
   -2.750129    4.05271  0.0000E+00  0.0000E+00  0.0000E+00  0.0000E+00  0.0000E+00  0.0000E+00
