 1 - depth, m
 2 - temperature, C
 3 - salinity, kg/kg
 4 - turbulent kinetic energy, m**2/s**2
 5 - dissipation rate, m**2/s**3
 6 - kinematic heat conductance, m**2/s
 7 - modulus of horizontal velocity, m/s
 8 - Richardson number, n/d
   -0.000000    1.36099  0.0000E+00  0.5035E-03  0.1630E-02  0.9589E-04  0.2332E+00 -0.1075E-01
   -0.068731    1.40678  0.0000E+00  0.2908E-03  0.7916E-03  0.4164E-03  0.6498E-01  0.6680E-02
   -0.137463    1.41466  0.0000E+00  0.2182E-03  0.4301E-03  0.3775E-03  0.5155E-01  0.9711E-02
   -0.206195    1.42061  0.0000E+00  0.1681E-03  0.2087E-03  0.3558E-03  0.4420E-01  0.2121E-01
   -0.274928    1.42499  0.0000E+00  0.1332E-03  0.8243E-04  0.3403E-03  0.3948E-01  0.1123E-01
   -0.343662    1.42876  0.0000E+00  0.1071E-03  0.2380E-04  0.3379E-03  0.3517E-01  0.1672E-01
   -0.412396    1.43222  0.0000E+00  0.8812E-04  0.6675E-05  0.3409E-03  0.3131E-01  0.1718E-01
   -0.481130    1.43549  0.0000E+00  0.7408E-04  0.3167E-05  0.3444E-03  0.2787E-01  0.1912E-01
   -0.549865    1.43861  0.0000E+00  0.6318E-04  0.1944E-05  0.3502E-03  0.2485E-01  0.2570E-01
   -0.618601    1.44162  0.0000E+00  0.5458E-04  0.1287E-05  0.3535E-03  0.2227E-01  0.3608E-01
   -0.687336    1.44462  0.0000E+00  0.4766E-04  0.8973E-06  0.3545E-03  0.2001E-01  0.5274E-01
   -0.756073    1.44764  0.0000E+00  0.4197E-04  0.6518E-06  0.3534E-03  0.1803E-01  0.7872E-01
   -0.824809    1.45072  0.0000E+00  0.3720E-04  0.4887E-06  0.3501E-03  0.1629E-01  0.1212E+00
   -0.893546    1.45395  0.0000E+00  0.3313E-04  0.3755E-06  0.3451E-03  0.1474E-01  0.2045E+00
   -0.962283    1.45740  0.0000E+00  0.2964E-04  0.2944E-06  0.3390E-03  0.1336E-01  0.6510E+00
   -1.031020    1.46122  0.0000E+00  0.2664E-04  0.2351E-06  0.3277E-03  0.1214E-01  0.6023E+00
   -1.099757    1.46588  0.0000E+00  0.2402E-04  0.1906E-06  0.3150E-03  0.1101E-01  0.9706E+00
   -1.168495    1.47497  0.0000E+00  0.2169E-04  0.1565E-06  0.3016E-03  0.9927E-02  0.3675E+01
   -1.237232    1.49710  0.0000E+00  0.1961E-04  0.1298E-06  0.2872E-03  0.8906E-02  0.3696E+02
   -1.305970    1.51997  0.0000E+00  0.1772E-04  0.1085E-06  0.2713E-03  0.7974E-02  0.5984E+03
   -1.374707    1.53934  0.0000E+00  0.1600E-04  0.9133E-07  0.2535E-03  0.7109E-02  0.2746E+05
   -1.443445    1.55945  0.0000E+00  0.1439E-04  0.7706E-07  0.2330E-03  0.6301E-02  0.1940E+07
   -1.512183    1.58438  0.0000E+00  0.1283E-04  0.6480E-07  0.2145E-03  0.5524E-02  0.1553E+09
   -1.580920    1.61392  0.0000E+00  0.1132E-04  0.5419E-07  0.1951E-03  0.4816E-02  0.1740E+11
   -1.649658    1.65855  0.0000E+00  0.9906E-05  0.4509E-07  0.1740E-03  0.4172E-02  0.2590E+13
   -1.718395    1.72419  0.0000E+00  0.8572E-05  0.3726E-07  0.1516E-03  0.3607E-02  0.3953E+15
   -1.787132    1.82117  0.0000E+00  0.7304E-05  0.3043E-07  0.1286E-03  0.3085E-02  0.1353E+16
   -1.855869    1.99088  0.0000E+00  0.6110E-05  0.2441E-07  0.1064E-03  0.2567E-02  0.2056E+16
   -1.924606    2.30318  0.0000E+00  0.5054E-05  0.1905E-07  0.8533E-04  0.2058E-02  0.2571E+16
   -1.993342    2.74789  0.0000E+00  0.4147E-05  0.1473E-07  0.9686E-04  0.1649E-02  0.6851E+15
   -2.062078    3.00170  0.0000E+00  0.3312E-05  0.1117E-07  0.1175E-03  0.1305E-02 -0.1105E+13
   -2.130814    3.09397  0.0000E+00  0.2539E-05  0.8159E-08  0.1038E-03  0.9858E-03 -0.1320E+13
   -2.199549    3.23286  0.0000E+00  0.1839E-05  0.5599E-08  0.9387E-04  0.6704E-03 -0.1371E+13
   -2.268284    3.39867  0.0000E+00  0.1222E-05  0.3501E-08  0.8627E-04  0.3982E-03 -0.1448E+13
   -2.337019    3.57591  0.0000E+00  0.6456E-06  0.1680E-08  0.8181E-04  0.1833E-03 -0.1562E+13
   -2.405753    3.86738  0.0000E+00  0.2989E-06  0.5916E-09  0.8140E-04  0.3831E-04 -0.1739E+13
   -2.474486    3.99833  0.0000E+00  0.1822E-06  0.2226E-09  0.7787E-04  0.5024E-05 -0.2017E+13
   -2.543219    4.08876  0.0000E+00  0.1594E-06  0.1525E-09  0.6930E-04  0.5262E-06 -0.2597E+13
   -2.611952    4.11147  0.0000E+00  0.1462E-06  0.1567E-09  0.4146E-04  0.1135E-06 -0.5401E+13
   -2.680684    4.12866  0.0000E+00  0.9414E-07  0.3673E-09  0.4683E-05  0.1971E-07 -0.8801E+14
   -2.749415    4.20825  0.0000E+00  0.0000E+00  0.0000E+00  0.0000E+00  0.1910E-07  0.0000E+00
