 1 - depth, m
 2 - temperature, C
 3 - salinity, kg/kg
 4 - turbulent kinetic energy, m**2/s**2
 5 - dissipation rate, m**2/s**3
 6 - kinematic heat conductance, m**2/s
 7 - modulus of horizontal velocity, m/s
 8 - Richardson number, n/d
   -0.000000   12.18391  0.0000E+00  0.1276E-03  0.8009E-04  0.1082E-03  0.1016E+00 -0.6028E-01
   -0.068731   12.25535  0.0000E+00  0.6787E-04  0.2288E-04  0.1321E-03  0.3592E-01 -0.8805E-01
   -0.137462   12.27000  0.0000E+00  0.4824E-04  0.7725E-05  0.1387E-03  0.2684E-01 -0.3521E-01
   -0.206195   12.28030  0.0000E+00  0.3661E-04  0.2268E-05  0.1601E-03  0.2160E-01 -0.5601E-01
   -0.274927   12.28838  0.0000E+00  0.2977E-04  0.8527E-06  0.1862E-03  0.1787E-01 -0.7160E-01
   -0.343661   12.29514  0.0000E+00  0.2541E-04  0.4588E-06  0.2184E-03  0.1489E-01 -0.8972E-01
   -0.412395   12.30061  0.0000E+00  0.2239E-04  0.2887E-06  0.2562E-03  0.1252E-01 -0.7739E-01
   -0.481129   12.30517  0.0000E+00  0.2014E-04  0.1974E-06  0.3046E-03  0.1062E-01  0.1786E+02
   -0.549864   12.30895  0.0000E+00  0.1838E-04  0.1430E-06  0.3924E-03  0.9090E-02  0.9451E+02
   -0.618599   12.31199  0.0000E+00  0.1701E-04  0.1086E-06  0.5382E-03  0.7878E-02  0.1790E+03
   -0.687334   12.31435  0.0000E+00  0.1593E-04  0.8586E-07  0.6909E-03  0.6917E-02  0.1225E+04
   -0.756070   12.31619  0.0000E+00  0.1508E-04  0.7022E-07  0.8716E-03  0.6137E-02  0.2244E+03
   -0.824806   12.31759  0.0000E+00  0.1442E-04  0.5906E-07  0.1032E-02  0.5496E-02  0.6933E+02
   -0.893543   12.31868  0.0000E+00  0.1388E-04  0.5073E-07  0.1147E-02  0.4951E-02  0.1022E+02
   -0.962280   12.31960  0.0000E+00  0.1344E-04  0.4429E-07  0.1238E-02  0.4476E-02  0.9374E+01
   -1.031017   12.32040  0.0000E+00  0.1307E-04  0.3917E-07  0.1287E-02  0.4055E-02  0.3823E+01
   -1.099754   12.32116  0.0000E+00  0.1274E-04  0.3498E-07  0.1325E-02  0.3669E-02  0.5499E+01
   -1.168491   12.32189  0.0000E+00  0.1245E-04  0.3152E-07  0.1359E-02  0.3312E-02  0.3439E+01
   -1.237228   12.32258  0.0000E+00  0.1218E-04  0.2862E-07  0.1391E-02  0.2982E-02  0.3319E+01
   -1.305966   12.32325  0.0000E+00  0.1192E-04  0.2619E-07  0.1421E-02  0.2676E-02  0.3213E+01
   -1.374703   12.32390  0.0000E+00  0.1167E-04  0.2413E-07  0.1449E-02  0.2391E-02  0.3120E+01
   -1.443441   12.32453  0.0000E+00  0.1142E-04  0.2238E-07  0.1475E-02  0.2126E-02  0.3042E+01
   -1.512178   12.32514  0.0000E+00  0.1117E-04  0.2091E-07  0.1514E-02  0.1878E-02  0.2767E+01
   -1.580915   12.32572  0.0000E+00  0.1091E-04  0.1967E-07  0.1559E-02  0.1652E-02  0.2467E+01
   -1.649653   12.32629  0.0000E+00  0.1065E-04  0.1865E-07  0.1610E-02  0.1451E-02  0.2218E+01
   -1.718390   12.32683  0.0000E+00  0.1039E-04  0.1784E-07  0.1664E-02  0.1273E-02  0.2006E+01
   -1.787127   12.32734  0.0000E+00  0.1012E-04  0.1722E-07  0.1722E-02  0.1115E-02  0.1821E+01
   -1.855863   12.32784  0.0000E+00  0.9857E-05  0.1679E-07  0.1738E-02  0.9766E-03  0.1651E+01
   -1.924600   12.32832  0.0000E+00  0.9598E-05  0.1653E-07  0.1713E-02  0.8556E-03  0.1491E+01
   -1.993336   12.32881  0.0000E+00  0.9348E-05  0.1645E-07  0.1634E-02  0.7504E-03  0.1335E+01
   -2.062072   12.32931  0.0000E+00  0.9108E-05  0.1653E-07  0.1542E-02  0.6595E-03  0.1190E+01
   -2.130807   12.32983  0.0000E+00  0.8881E-05  0.1678E-07  0.1443E-02  0.5812E-03  0.1055E+01
   -2.199543   12.33039  0.0000E+00  0.8668E-05  0.1720E-07  0.1346E-02  0.5136E-03  0.9469E+00
   -2.268277   12.33098  0.0000E+00  0.8465E-05  0.1782E-07  0.1255E-02  0.4555E-03  0.9513E+00
   -2.337012   12.33161  0.0000E+00  0.8248E-05  0.1877E-07  0.1148E-02  0.4052E-03  0.1252E+01
   -2.405746   12.33229  0.0000E+00  0.7998E-05  0.2031E-07  0.1028E-02  0.3577E-03  0.1959E+01
   -2.474479   12.33304  0.0000E+00  0.7694E-05  0.2298E-07  0.8583E-03  0.3113E-03  0.3730E+01
   -2.543212   12.33395  0.0000E+00  0.7263E-05  0.2848E-07  0.6915E-03  0.2640E-03  0.3365E+04
   -2.611944   12.33516  0.0000E+00  0.6377E-05  0.4693E-07  0.3784E-03  0.2144E-03  0.9296E+03
   -2.680675   12.33935  0.0000E+00  0.3751E-05  0.1589E-06  0.7048E-04  0.1369E-03 -0.3004E+04
   -2.749406   12.35113  0.0000E+00  0.0000E+00  0.0000E+00  0.0000E+00  0.1641E-03  0.0000E+00
