 1 - depth, m
 2 - temperature, C
 3 - salinity, kg/kg
 4 - turbulent kinetic energy, m**2/s**2
 5 - dissipation rate, m**2/s**3
 6 - kinematic heat conductance, m**2/s
 7 - modulus of horizontal velocity, m/s
 8 - Richardson number, n/d
   -0.000000   13.05465  0.0000E+00  0.6533E-04  0.1763E-04  0.6216E-04  0.6191E-01 -0.2386E-01
   -0.068770   13.10060  0.0000E+00  0.3643E-04  0.3884E-05  0.9398E-04  0.2435E-01 -0.7725E-01
   -0.137540   13.11265  0.0000E+00  0.2706E-04  0.1477E-05  0.1327E-03  0.1781E-01 -0.1161E+00
   -0.206312   13.12080  0.0000E+00  0.2167E-04  0.6767E-06  0.1981E-03  0.1401E-01  0.1335E+02
   -0.275083   13.12681  0.0000E+00  0.1845E-04  0.3585E-06  0.2583E-03  0.1143E-01  0.2491E+02
   -0.343856   13.13147  0.0000E+00  0.1635E-04  0.2147E-06  0.3204E-03  0.9478E-02  0.5059E+01
   -0.412628   13.13516  0.0000E+00  0.1487E-04  0.1419E-06  0.3918E-03  0.7973E-02  0.1200E+02
   -0.481402   13.13811  0.0000E+00  0.1375E-04  0.1009E-06  0.4804E-03  0.6791E-02  0.1853E+02
   -0.550175   13.14045  0.0000E+00  0.1288E-04  0.7593E-07  0.6265E-03  0.5852E-02  0.7299E+02
   -0.618950   13.14220  0.0000E+00  0.1223E-04  0.5998E-07  0.7976E-03  0.5125E-02  0.9320E+02
   -0.687724   13.14350  0.0000E+00  0.1172E-04  0.4921E-07  0.9398E-03  0.4550E-02  0.2559E+03
   -0.756499   13.14453  0.0000E+00  0.1132E-04  0.4149E-07  0.1052E-02  0.4068E-02  0.6981E+01
   -0.825274   13.14538  0.0000E+00  0.1100E-04  0.3573E-07  0.1152E-02  0.3653E-02  0.1446E+02
   -0.894050   13.14611  0.0000E+00  0.1073E-04  0.3130E-07  0.1237E-02  0.3292E-02  0.5608E+02
   -0.962825   13.14675  0.0000E+00  0.1050E-04  0.2779E-07  0.1308E-02  0.2975E-02  0.7672E+01
   -1.031601   13.14734  0.0000E+00  0.1031E-04  0.2495E-07  0.1362E-02  0.2692E-02  0.5485E+01
   -1.100377   13.14789  0.0000E+00  0.1013E-04  0.2261E-07  0.1408E-02  0.2434E-02  0.2824E+01
   -1.169154   13.14841  0.0000E+00  0.9964E-05  0.2066E-07  0.1451E-02  0.2196E-02  0.2717E+01
   -1.237930   13.14891  0.0000E+00  0.9806E-05  0.1902E-07  0.1491E-02  0.1977E-02  0.2617E+01
   -1.306706   13.14939  0.0000E+00  0.9651E-05  0.1763E-07  0.1529E-02  0.1774E-02  0.2526E+01
   -1.375483   13.14984  0.0000E+00  0.9495E-05  0.1645E-07  0.1562E-02  0.1587E-02  0.2440E+01
   -1.444259   13.15028  0.0000E+00  0.9336E-05  0.1546E-07  0.1593E-02  0.1413E-02  0.2366E+01
   -1.513036   13.15070  0.0000E+00  0.9173E-05  0.1462E-07  0.1632E-02  0.1251E-02  0.2177E+01
   -1.581812   13.15110  0.0000E+00  0.9005E-05  0.1392E-07  0.1674E-02  0.1105E-02  0.1978E+01
   -1.650588   13.15149  0.0000E+00  0.8835E-05  0.1335E-07  0.1716E-02  0.9756E-03  0.1807E+01
   -1.719364   13.15186  0.0000E+00  0.8663E-05  0.1290E-07  0.1749E-02  0.8611E-03  0.1664E+01
   -1.788140   13.15221  0.0000E+00  0.8491E-05  0.1256E-07  0.1755E-02  0.7602E-03  0.1539E+01
   -1.856916   13.15256  0.0000E+00  0.8320E-05  0.1233E-07  0.1736E-02  0.6717E-03  0.1435E+01
   -1.925691   13.15290  0.0000E+00  0.8153E-05  0.1221E-07  0.1695E-02  0.5943E-03  0.1347E+01
   -1.994466   13.15325  0.0000E+00  0.7990E-05  0.1218E-07  0.1635E-02  0.5266E-03  0.1285E+01
   -2.063241   13.15360  0.0000E+00  0.7833E-05  0.1226E-07  0.1562E-02  0.4675E-03  0.1244E+01
   -2.132016   13.15396  0.0000E+00  0.7682E-05  0.1244E-07  0.1482E-02  0.4159E-03  0.1243E+01
   -2.200790   13.15433  0.0000E+00  0.7537E-05  0.1273E-07  0.1400E-02  0.3705E-03  0.1309E+01
   -2.269564   13.15472  0.0000E+00  0.7394E-05  0.1317E-07  0.1314E-02  0.3303E-03  0.1525E+01
   -2.338337   13.15513  0.0000E+00  0.7241E-05  0.1382E-07  0.1214E-02  0.2943E-03  0.2024E+01
   -2.407110   13.15556  0.0000E+00  0.7069E-05  0.1483E-07  0.1095E-02  0.2605E-03  0.3033E+01
   -2.475882   13.15604  0.0000E+00  0.6864E-05  0.1648E-07  0.9464E-03  0.2275E-03  0.5155E+01
   -2.544654   13.15658  0.0000E+00  0.6593E-05  0.1960E-07  0.7689E-03  0.1945E-03  0.8962E+02
   -2.613425   13.15726  0.0000E+00  0.6125E-05  0.2810E-07  0.5426E-03  0.1610E-03  0.5609E+03
   -2.682196   13.15876  0.0000E+00  0.3788E-05  0.1006E-06  0.4024E-04  0.1214E-03 -0.4395E+04
   -2.750965   13.17271  0.0000E+00  0.0000E+00  0.0000E+00  0.0000E+00  0.1286E-03  0.0000E+00
