 1 - depth, m
 2 - temperature, C
 3 - salinity, kg/kg
 4 - turbulent kinetic energy, m**2/s**2
 5 - dissipation rate, m**2/s**3
 6 - kinematic heat conductance, m**2/s
 7 - modulus of horizontal velocity, m/s
 8 - Richardson number, n/d
   -0.000000   12.30157  0.0000E+00  0.1542E-03  0.5958E-04  0.9729E-04  0.1068E+00 -0.6037E-03
   -0.068741   12.34630  0.0000E+00  0.8435E-04  0.1478E-04  0.1578E-03  0.3730E-01 -0.4214E-01
   -0.137483   12.35482  0.0000E+00  0.6069E-04  0.6161E-05  0.1624E-03  0.2832E-01 -0.3467E-01
   -0.206225   12.36071  0.0000E+00  0.4618E-04  0.2863E-05  0.1789E-03  0.2320E-01 -0.5213E-01
   -0.274968   12.36511  0.0000E+00  0.3712E-04  0.1456E-05  0.2010E-03  0.1959E-01 -0.7069E-01
   -0.343712   12.36871  0.0000E+00  0.3108E-04  0.8101E-06  0.2286E-03  0.1663E-01 -0.9143E-01
   -0.412456   12.37171  0.0000E+00  0.2683E-04  0.4929E-06  0.2677E-03  0.1419E-01 -0.5529E-01
   -0.481200   12.37425  0.0000E+00  0.2367E-04  0.3242E-06  0.3413E-03  0.1217E-01  0.8054E+01
   -0.549945   12.37638  0.0000E+00  0.2118E-04  0.2265E-06  0.3988E-03  0.1050E-01  0.2853E+01
   -0.618691   12.37822  0.0000E+00  0.1917E-04  0.1658E-06  0.4528E-03  0.9118E-02  0.7984E+03
   -0.687436   12.37984  0.0000E+00  0.1753E-04  0.1259E-06  0.5102E-03  0.7969E-02  0.7222E+02
   -0.756183   12.38128  0.0000E+00  0.1616E-04  0.9834E-07  0.5740E-03  0.7004E-02  0.4431E+02
   -0.824929   12.38255  0.0000E+00  0.1501E-04  0.7871E-07  0.6479E-03  0.6189E-02  0.1506E+02
   -0.893676   12.38367  0.0000E+00  0.1405E-04  0.6434E-07  0.7352E-03  0.5499E-02  0.6749E+02
   -0.962423   12.38464  0.0000E+00  0.1325E-04  0.5364E-07  0.8465E-03  0.4915E-02  0.3386E+02
   -1.031170   12.38548  0.0000E+00  0.1259E-04  0.4560E-07  0.9855E-03  0.4419E-02  0.2169E+03
   -1.099917   12.38617  0.0000E+00  0.1204E-04  0.3942E-07  0.1112E-02  0.3987E-02  0.1921E+02
   -1.168664   12.38676  0.0000E+00  0.1157E-04  0.3458E-07  0.1237E-02  0.3602E-02  0.1485E+02
   -1.237412   12.38725  0.0000E+00  0.1116E-04  0.3073E-07  0.1329E-02  0.3256E-02  0.1072E+03
   -1.306160   12.38769  0.0000E+00  0.1080E-04  0.2757E-07  0.1377E-02  0.2939E-02  0.1996E+03
   -1.374907   12.38811  0.0000E+00  0.1048E-04  0.2493E-07  0.1407E-02  0.2643E-02  0.3142E+04
   -1.443655   12.38851  0.0000E+00  0.1017E-04  0.2271E-07  0.1425E-02  0.2366E-02  0.4778E+01
   -1.512403   12.38891  0.0000E+00  0.9878E-05  0.2081E-07  0.1449E-02  0.2105E-02  0.3173E+01
   -1.581150   12.38931  0.0000E+00  0.9595E-05  0.1920E-07  0.1468E-02  0.1866E-02  0.2633E+01
   -1.649898   12.38969  0.0000E+00  0.9322E-05  0.1782E-07  0.1483E-02  0.1649E-02  0.2338E+01
   -1.718645   12.39008  0.0000E+00  0.9058E-05  0.1667E-07  0.1492E-02  0.1454E-02  0.2099E+01
   -1.787392   12.39046  0.0000E+00  0.8801E-05  0.1573E-07  0.1497E-02  0.1278E-02  0.1900E+01
   -1.856139   12.39085  0.0000E+00  0.8553E-05  0.1497E-07  0.1497E-02  0.1121E-02  0.1724E+01
   -1.924886   12.39123  0.0000E+00  0.8312E-05  0.1440E-07  0.1493E-02  0.9800E-03  0.1575E+01
   -1.993632   12.39161  0.0000E+00  0.8081E-05  0.1400E-07  0.1473E-02  0.8547E-03  0.1462E+01
   -2.062378   12.39201  0.0000E+00  0.7859E-05  0.1377E-07  0.1427E-02  0.7436E-03  0.1384E+01
   -2.131124   12.39241  0.0000E+00  0.7647E-05  0.1373E-07  0.1360E-02  0.6454E-03  0.1342E+01
   -2.199869   12.39285  0.0000E+00  0.7448E-05  0.1387E-07  0.1278E-02  0.5586E-03  0.1376E+01
   -2.268614   12.39331  0.0000E+00  0.7261E-05  0.1422E-07  0.1185E-02  0.4821E-03  0.1468E+01
   -2.337359   12.39381  0.0000E+00  0.7081E-05  0.1481E-07  0.1090E-02  0.4173E-03  0.1782E+01
   -2.406103   12.39436  0.0000E+00  0.6896E-05  0.1576E-07  0.9907E-03  0.3630E-03  0.2597E+01
   -2.474846   12.39497  0.0000E+00  0.6683E-05  0.1738E-07  0.8617E-03  0.3136E-03  0.4557E+01
   -2.543589   12.39569  0.0000E+00  0.6400E-05  0.2056E-07  0.6974E-03  0.2651E-03  0.1640E+03
   -2.612332   12.39661  0.0000E+00  0.5902E-05  0.2960E-07  0.4874E-03  0.2158E-03  0.2110E+03
   -2.681073   12.39867  0.0000E+00  0.3651E-05  0.1012E-06  0.4226E-04  0.1550E-03 -0.3831E+04
   -2.749815   12.41799  0.0000E+00  0.0000E+00  0.0000E+00  0.0000E+00  0.1684E-03  0.0000E+00
