 1 - depth, m
 2 - temperature, C
 3 - salinity, kg/kg
 4 - turbulent kinetic energy, m**2/s**2
 5 - dissipation rate, m**2/s**3
 6 - kinematic heat conductance, m**2/s
 7 - modulus of horizontal velocity, m/s
 8 - Richardson number, n/d
   -0.000000    0.00000  0.0000E+00  0.2176E-11  0.5617E-15  0.1000E-09  0.0000E+00  0.2138E+17
   -0.068727    0.33579  0.0000E+00  0.5736E-11  0.5865E-15  0.1000E-09  0.0000E+00  0.1868E+17
   -0.137454    0.65859  0.0000E+00  0.1309E-10  0.9673E-15  0.1000E-09  0.0000E+00  0.1626E+17
   -0.206182    0.96939  0.0000E+00  0.2675E-10  0.1780E-14  0.1000E-09  0.0000E+00  0.1411E+17
   -0.274911    1.26922  0.0000E+00  0.5194E-10  0.3310E-14  0.1000E-09  0.0000E+00  0.1218E+17
   -0.343640    1.55910  0.0000E+00  0.9846E-10  0.6109E-14  0.1000E-09  0.0000E+00  0.1044E+17
   -0.412370    1.83989  0.0000E+00  0.1844E-09  0.1119E-13  0.1000E-09  0.0000E+00  0.8859E+16
   -0.481100    2.11226  0.0000E+00  0.3425E-09  0.2038E-13  0.1000E-09  0.0000E+00  0.7419E+16
   -0.549831    2.37665  0.0000E+00  0.6334E-09  0.3696E-13  0.1000E-09  0.0000E+00  0.6096E+16
   -0.618562    2.63321  0.0000E+00  0.1166E-08  0.6673E-13  0.1000E-09  0.0000E+00  0.4884E+16
   -0.687293    2.88203  0.0000E+00  0.2135E-08  0.1199E-12  0.1605E-09  0.0000E+00  0.3804E+16
   -0.756025    3.12530  0.0000E+00  0.3889E-08  0.2144E-12  0.3889E-09  0.0000E+00  0.2806E+16
   -0.824757    3.36395  0.0000E+00  0.7049E-08  0.3814E-12  0.1043E-08  0.0000E+00  0.1862E+16
   -0.893490    3.59702  0.0000E+00  0.1269E-07  0.6744E-12  0.3509E-08  0.0000E+00  0.9785E+15
   -0.962222    3.82139  0.0000E+00  0.2247E-07  0.1174E-11  0.2855E-07  0.0000E+00  0.2095E+15
   -1.030955    4.00870  0.0000E+00  0.2284E-07  0.1195E-11  0.1589E-03  0.0000E+00 -0.6480E+11
   -1.099688    4.00888  0.0000E+00  0.2303E-07  0.1207E-11  0.1540E-03  0.0000E+00 -0.7120E+11
   -1.168421    4.00908  0.0000E+00  0.2319E-07  0.1220E-11  0.1585E-03  0.0000E+00 -0.7170E+11
   -1.237155    4.00928  0.0000E+00  0.2334E-07  0.1234E-11  0.1621E-03  0.0000E+00 -0.7184E+11
   -1.305888    4.00948  0.0000E+00  0.2347E-07  0.1249E-11  0.1625E-03  0.0000E+00 -0.7306E+11
   -1.374621    4.00968  0.0000E+00  0.2359E-07  0.1265E-11  0.1621E-03  0.0000E+00 -0.7422E+11
   -1.443355    4.00988  0.0000E+00  0.2370E-07  0.1283E-11  0.1614E-03  0.0000E+00 -0.7539E+11
   -1.512088    4.01009  0.0000E+00  0.2379E-07  0.1302E-11  0.1603E-03  0.0000E+00 -0.7677E+11
   -1.580821    4.01029  0.0000E+00  0.2387E-07  0.1324E-11  0.1589E-03  0.0000E+00 -0.7839E+11
   -1.649554    4.01050  0.0000E+00  0.2393E-07  0.1348E-11  0.1571E-03  0.0000E+00 -0.8024E+11
   -1.718287    4.01071  0.0000E+00  0.2398E-07  0.1375E-11  0.1550E-03  0.0000E+00 -0.8238E+11
   -1.787020    4.01093  0.0000E+00  0.2402E-07  0.1405E-11  0.1524E-03  0.0000E+00 -0.8486E+11
   -1.855753    4.01114  0.0000E+00  0.2404E-07  0.1438E-11  0.1494E-03  0.0000E+00 -0.8772E+11
   -1.924485    4.01137  0.0000E+00  0.2404E-07  0.1477E-11  0.1460E-03  0.0000E+00 -0.9106E+11
   -1.993217    4.01160  0.0000E+00  0.2403E-07  0.1520E-11  0.1420E-03  0.0000E+00 -0.9497E+11
   -2.061949    4.01184  0.0000E+00  0.2399E-07  0.1570E-11  0.1375E-03  0.0000E+00 -0.9933E+11
   -2.130681    4.01209  0.0000E+00  0.2393E-07  0.1628E-11  0.1324E-03  0.0000E+00 -0.1044E+12
   -2.199412    4.01234  0.0000E+00  0.2385E-07  0.1698E-11  0.1266E-03  0.0000E+00 -0.1106E+12
   -2.268142    4.01261  0.0000E+00  0.2372E-07  0.1796E-11  0.1143E-03  0.0000E+00 -0.1243E+12
   -2.336872    4.01291  0.0000E+00  0.2351E-07  0.1943E-11  0.9023E-04  0.0000E+00 -0.1603E+12
   -2.405602    4.01330  0.0000E+00  0.2320E-07  0.2159E-11  0.7129E-04  0.0000E+00 -0.2074E+12
   -2.474331    4.01378  0.0000E+00  0.2275E-07  0.2500E-11  0.5479E-04  0.0000E+00 -0.2778E+12
   -2.543060    4.01442  0.0000E+00  0.2202E-07  0.3122E-11  0.3738E-04  0.0000E+00 -0.4249E+12
   -2.611788    4.01537  0.0000E+00  0.2060E-07  0.4671E-11  0.1877E-04  0.0000E+00 -0.9129E+12
   -2.680516    4.01731  0.0000E+00  0.1347E-07  0.1673E-10  0.1670E-05  0.0000E+00 -0.1463E+14
   -2.749243    4.03951  0.0000E+00  0.0000E+00  0.0000E+00  0.0000E+00  0.0000E+00  0.0000E+00
