 1 - depth, m
 2 - temperature, C
 3 - salinity, kg/kg
 4 - turbulent kinetic energy, m**2/s**2
 5 - dissipation rate, m**2/s**3
 6 - kinematic heat conductance, m**2/s
 7 - modulus of horizontal velocity, m/s
 8 - Richardson number, n/d
   -0.000000    0.00000  0.0000E+00  0.3739E-12  0.7119E-16  0.1000E-09  0.0000E+00  0.1721E+17
   -0.068747    0.26774  0.0000E+00  0.8267E-12  0.9230E-16  0.1000E-09  0.0000E+00  0.1544E+17
   -0.137495    0.52670  0.0000E+00  0.1879E-11  0.1753E-15  0.1000E-09  0.0000E+00  0.1387E+17
   -0.206243    0.77833  0.0000E+00  0.4075E-11  0.3577E-15  0.1000E-09  0.0000E+00  0.1248E+17
   -0.274992    1.02388  0.0000E+00  0.8598E-11  0.7308E-15  0.1000E-09  0.0000E+00  0.1125E+17
   -0.343741    1.26534  0.0000E+00  0.1786E-10  0.1480E-14  0.1000E-09  0.0000E+00  0.1013E+17
   -0.412491    1.50376  0.0000E+00  0.3672E-10  0.2974E-14  0.1000E-09  0.0000E+00  0.9084E+16
   -0.481242    1.73986  0.0000E+00  0.7496E-10  0.5933E-14  0.1000E-09  0.0000E+00  0.8083E+16
   -0.549993    1.97402  0.0000E+00  0.1522E-09  0.1178E-13  0.1000E-09  0.0000E+00  0.7107E+16
   -0.618744    2.20610  0.0000E+00  0.3077E-09  0.2329E-13  0.1000E-09  0.0000E+00  0.6169E+16
   -0.687496    2.43638  0.0000E+00  0.6193E-09  0.4585E-13  0.1000E-09  0.0000E+00  0.5333E+16
   -0.756248    2.66840  0.0000E+00  0.1243E-08  0.9006E-13  0.1035E-09  0.0000E+00  0.4523E+16
   -0.825000    2.90445  0.0000E+00  0.2490E-08  0.1767E-12  0.2448E-09  0.0000E+00  0.3675E+16
   -0.893753    3.14467  0.0000E+00  0.4984E-08  0.3465E-12  0.6326E-09  0.0000E+00  0.2790E+16
   -0.962506    3.38945  0.0000E+00  0.9953E-08  0.6785E-12  0.1851E-08  0.0000E+00  0.1864E+16
   -1.031259    3.63995  0.0000E+00  0.1970E-07  0.1318E-11  0.7828E-08  0.0000E+00  0.8717E+15
   -1.100012    3.89791  0.0000E+00  0.3233E-07  0.2138E-11  0.1742E-04  0.0000E+00  0.6457E+14
   -1.168765    4.01888  0.0000E+00  0.3289E-07  0.2177E-11  0.1769E-03  0.0000E+00 -0.1160E+12
   -1.237519    4.01911  0.0000E+00  0.3316E-07  0.2200E-11  0.1769E-03  0.0000E+00 -0.1245E+12
   -1.306272    4.01936  0.0000E+00  0.3339E-07  0.2225E-11  0.1820E-03  0.0000E+00 -0.1240E+12
   -1.375026    4.01960  0.0000E+00  0.3360E-07  0.2250E-11  0.1826E-03  0.0000E+00 -0.1245E+12
   -1.443779    4.01984  0.0000E+00  0.3377E-07  0.2278E-11  0.1823E-03  0.0000E+00 -0.1250E+12
   -1.512533    4.02009  0.0000E+00  0.3392E-07  0.2309E-11  0.1818E-03  0.0000E+00 -0.1259E+12
   -1.581286    4.02033  0.0000E+00  0.3405E-07  0.2342E-11  0.1806E-03  0.0000E+00 -0.1273E+12
   -1.650040    4.02057  0.0000E+00  0.3415E-07  0.2380E-11  0.1791E-03  0.0000E+00 -0.1289E+12
   -1.718793    4.02081  0.0000E+00  0.3423E-07  0.2421E-11  0.1770E-03  0.0000E+00 -0.1311E+12
   -1.787546    4.02105  0.0000E+00  0.3428E-07  0.2468E-11  0.1749E-03  0.0000E+00 -0.1333E+12
   -1.856299    4.02130  0.0000E+00  0.3430E-07  0.2521E-11  0.1715E-03  0.0000E+00 -0.1367E+12
   -1.925052    4.02155  0.0000E+00  0.3430E-07  0.2581E-11  0.1674E-03  0.0000E+00 -0.1408E+12
   -1.993804    4.02181  0.0000E+00  0.3426E-07  0.2650E-11  0.1629E-03  0.0000E+00 -0.1458E+12
   -2.062556    4.02207  0.0000E+00  0.3420E-07  0.2730E-11  0.1580E-03  0.0000E+00 -0.1507E+12
   -2.131308    4.02234  0.0000E+00  0.3410E-07  0.2823E-11  0.1522E-03  0.0000E+00 -0.1568E+12
   -2.200059    4.02262  0.0000E+00  0.3396E-07  0.2935E-11  0.1447E-03  0.0000E+00 -0.1650E+12
   -2.268810    4.02291  0.0000E+00  0.3377E-07  0.3077E-11  0.1364E-03  0.0000E+00 -0.1758E+12
   -2.337560    4.02322  0.0000E+00  0.3349E-07  0.3286E-11  0.1169E-03  0.0000E+00 -0.2066E+12
   -2.406310    4.02358  0.0000E+00  0.3305E-07  0.3621E-11  0.8853E-04  0.0000E+00 -0.2754E+12
   -2.475060    4.02405  0.0000E+00  0.3241E-07  0.4157E-11  0.6663E-04  0.0000E+00 -0.3718E+12
   -2.543809    4.02467  0.0000E+00  0.3138E-07  0.5142E-11  0.4554E-04  0.0000E+00 -0.5583E+12
   -2.612557    4.02559  0.0000E+00  0.2939E-07  0.7584E-11  0.2319E-04  0.0000E+00 -0.1155E+13
   -2.681305    4.02743  0.0000E+00  0.1890E-07  0.2762E-10  0.1935E-05  0.0000E+00 -0.1815E+14
   -2.750052    4.04964  0.0000E+00  0.0000E+00  0.0000E+00  0.0000E+00  0.0000E+00  0.0000E+00
