 1 - depth, m
 2 - temperature, C
 3 - salinity, kg/kg
 4 - turbulent kinetic energy, m**2/s**2
 5 - dissipation rate, m**2/s**3
 6 - kinematic heat conductance, m**2/s
 7 - modulus of horizontal velocity, m/s
 8 - Richardson number, n/d
   -0.000000    0.00000  0.0000E+00  0.1219E-13  0.7603E-17  0.1000E-09  0.0000E+00  0.1303E+17
   -0.068732    0.20089  0.0000E+00  0.1219E-13  0.7603E-17  0.1000E-09  0.0000E+00  0.1196E+17
   -0.137465    0.39584  0.0000E+00  0.1219E-13  0.7603E-17  0.1000E-09  0.0000E+00  0.1094E+17
   -0.206199    0.58460  0.0000E+00  0.1219E-13  0.7603E-17  0.1000E-09  0.0000E+00  0.9985E+16
   -0.274933    0.76705  0.0000E+00  0.2292E-13  0.7603E-17  0.1000E-09  0.0000E+00  0.9175E+16
   -0.343667    0.94488  0.0000E+00  0.8261E-13  0.9584E-17  0.1000E-09  0.0000E+00  0.8426E+16
   -0.412402    1.11842  0.0000E+00  0.2049E-12  0.1827E-16  0.1000E-09  0.0000E+00  0.7723E+16
   -0.481138    1.28777  0.0000E+00  0.4468E-12  0.3684E-16  0.1000E-09  0.0000E+00  0.7052E+16
   -0.549874    1.45273  0.0000E+00  0.9307E-12  0.7400E-16  0.1000E-09  0.0000E+00  0.6384E+16
   -0.618611    1.61237  0.0000E+00  0.1901E-11  0.1472E-15  0.1000E-09  0.0000E+00  0.5764E+16
   -0.687347    1.76677  0.0000E+00  0.3839E-11  0.2903E-15  0.1000E-09  0.0000E+00  0.5301E+16
   -0.756085    1.91931  0.0000E+00  0.7687E-11  0.5681E-15  0.1000E-09  0.0000E+00  0.4926E+16
   -0.824822    2.07234  0.0000E+00  0.1527E-10  0.1104E-14  0.1000E-09  0.0000E+00  0.4564E+16
   -0.893560    2.22633  0.0000E+00  0.3013E-10  0.2129E-14  0.1000E-09  0.0000E+00  0.4210E+16
   -0.962298    2.38185  0.0000E+00  0.5903E-10  0.4082E-14  0.1000E-09  0.0000E+00  0.3862E+16
   -1.031036    2.53957  0.0000E+00  0.1147E-09  0.7764E-14  0.1000E-09  0.0000E+00  0.3526E+16
   -1.099775    2.70077  0.0000E+00  0.2213E-09  0.1466E-13  0.1000E-09  0.0000E+00  0.3183E+16
   -1.168513    2.86650  0.0000E+00  0.4239E-09  0.2750E-13  0.1000E-09  0.0000E+00  0.2824E+16
   -1.237252    3.03802  0.0000E+00  0.8071E-09  0.5127E-13  0.1071E-09  0.0000E+00  0.2436E+16
   -1.305991    3.21663  0.0000E+00  0.1527E-08  0.9506E-13  0.2423E-09  0.0000E+00  0.1998E+16
   -1.374729    3.40312  0.0000E+00  0.2873E-08  0.1752E-12  0.5950E-09  0.0000E+00  0.1500E+16
   -1.443468    3.59885  0.0000E+00  0.5370E-08  0.3211E-12  0.1791E-08  0.0000E+00  0.9135E+15
   -1.512207    3.80172  0.0000E+00  0.9942E-08  0.5833E-12  0.1117E-07  0.0000E+00  0.2664E+15
   -1.580945    3.99799  0.0000E+00  0.1048E-07  0.6168E-12  0.6283E-04  0.0000E+00 -0.7384E+11
   -1.649684    3.99839  0.0000E+00  0.1074E-07  0.6361E-12  0.6357E-04  0.0000E+00 -0.8964E+11
   -1.718422    3.99885  0.0000E+00  0.1098E-07  0.6574E-12  0.6516E-04  0.0000E+00 -0.9447E+11
   -1.787161    3.99933  0.0000E+00  0.1120E-07  0.6807E-12  0.6630E-04  0.0000E+00 -0.9872E+11
   -1.855899    3.99980  0.0000E+00  0.1140E-07  0.7068E-12  0.6699E-04  0.0000E+00 -0.1035E+12
   -1.924636    4.00028  0.0000E+00  0.1157E-07  0.7359E-12  0.6717E-04  0.0000E+00 -0.1092E+12
   -1.993374    4.00077  0.0000E+00  0.1173E-07  0.7688E-12  0.6668E-04  0.0000E+00 -0.1165E+12
   -2.062111    4.00128  0.0000E+00  0.1186E-07  0.8065E-12  0.6454E-04  0.0000E+00 -0.1253E+12
   -2.130848    4.00180  0.0000E+00  0.1196E-07  0.8509E-12  0.6118E-04  0.0000E+00 -0.1374E+12
   -2.199585    4.00236  0.0000E+00  0.1203E-07  0.9041E-12  0.5672E-04  0.0000E+00 -0.1542E+12
   -2.268321    4.00296  0.0000E+00  0.1207E-07  0.9700E-12  0.5184E-04  0.0000E+00 -0.1763E+12
   -2.337056    4.00362  0.0000E+00  0.1205E-07  0.1057E-11  0.4620E-04  0.0000E+00 -0.2077E+12
   -2.405791    4.00437  0.0000E+00  0.1198E-07  0.1180E-11  0.3947E-04  0.0000E+00 -0.2570E+12
   -2.474526    4.00526  0.0000E+00  0.1181E-07  0.1368E-11  0.3146E-04  0.0000E+00 -0.3449E+12
   -2.543260    4.00639  0.0000E+00  0.1147E-07  0.1709E-11  0.2200E-04  0.0000E+00 -0.5419E+12
   -2.611994    4.00804  0.0000E+00  0.1071E-07  0.2560E-11  0.1119E-04  0.0000E+00 -0.1252E+13
   -2.680726    4.01145  0.0000E+00  0.7473E-08  0.8095E-11  0.1347E-05  0.0000E+00 -0.1917E+14
   -2.749459    4.04181  0.0000E+00  0.0000E+00  0.0000E+00  0.0000E+00  0.0000E+00  0.0000E+00
