 1 - depth, m
 2 - temperature, C
 3 - salinity, kg/kg
 4 - turbulent kinetic energy, m**2/s**2
 5 - dissipation rate, m**2/s**3
 6 - kinematic heat conductance, m**2/s
 7 - modulus of horizontal velocity, m/s
 8 - Richardson number, n/d
   -0.000000    1.50945  0.0000E+00  0.3572E-03  0.1842E-03  0.1203E-03  0.2026E+00 -0.7449E-02
   -0.068746    1.55226  0.0000E+00  0.1990E-03  0.4835E-04  0.3093E-03  0.6143E-01  0.7716E-02
   -0.137493    1.55896  0.0000E+00  0.1439E-03  0.2181E-04  0.2759E-03  0.4787E-01  0.3301E-01
   -0.206241    1.56433  0.0000E+00  0.1077E-03  0.1060E-04  0.2651E-03  0.4044E-01  0.5892E-02
   -0.274989    1.56836  0.0000E+00  0.8440E-04  0.5468E-05  0.2644E-03  0.3532E-01  0.6459E-02
   -0.343738    1.57177  0.0000E+00  0.6850E-04  0.2993E-05  0.2711E-03  0.3087E-01  0.7219E-02
   -0.412487    1.57476  0.0000E+00  0.5724E-04  0.1763E-05  0.2807E-03  0.2705E-01  0.8350E-02
   -0.481237    1.57744  0.0000E+00  0.4885E-04  0.1121E-05  0.2907E-03  0.2375E-01  0.9798E-02
   -0.549987    1.57990  0.0000E+00  0.4222E-04  0.7562E-06  0.3020E-03  0.2090E-01  0.1248E-01
   -0.618738    1.58216  0.0000E+00  0.3686E-04  0.5334E-06  0.3108E-03  0.1850E-01  0.1584E-01
   -0.687489    1.58428  0.0000E+00  0.3243E-04  0.3888E-06  0.3170E-03  0.1644E-01  0.2009E-01
   -0.756241    1.58631  0.0000E+00  0.2867E-04  0.2907E-06  0.3206E-03  0.1465E-01  0.2545E-01
   -0.824992    1.58826  0.0000E+00  0.2543E-04  0.2216E-06  0.3219E-03  0.1307E-01  0.3231E-01
   -0.893744    1.59017  0.0000E+00  0.2262E-04  0.1718E-06  0.3213E-03  0.1168E-01  0.4133E-01
   -0.962496    1.59205  0.0000E+00  0.2017E-04  0.1351E-06  0.3196E-03  0.1044E-01  0.5367E-01
   -1.031249    1.59390  0.0000E+00  0.1807E-04  0.1078E-06  0.3127E-03  0.9360E-02  0.6411E-01
   -1.100001    1.59576  0.0000E+00  0.1621E-04  0.8707E-07  0.3043E-03  0.8369E-02  0.7657E-01
   -1.168754    1.59762  0.0000E+00  0.1457E-04  0.7101E-07  0.2945E-03  0.7460E-02  0.9168E-01
   -1.237507    1.59951  0.0000E+00  0.1309E-04  0.5837E-07  0.2829E-03  0.6626E-02  0.1098E+00
   -1.306260    1.60144  0.0000E+00  0.1175E-04  0.4827E-07  0.2695E-03  0.5856E-02  0.1310E+00
   -1.375013    1.60342  0.0000E+00  0.1053E-04  0.4009E-07  0.2538E-03  0.5142E-02  0.1551E+00
   -1.443766    1.60549  0.0000E+00  0.9390E-05  0.3333E-07  0.2351E-03  0.4474E-02  0.1800E+00
   -1.512518    1.60767  0.0000E+00  0.8311E-05  0.2760E-07  0.2187E-03  0.3838E-02  0.2378E+00
   -1.581271    1.60998  0.0000E+00  0.7295E-05  0.2274E-07  0.2017E-03  0.3263E-02  0.3392E+00
   -1.650024    1.61242  0.0000E+00  0.6352E-05  0.1865E-07  0.1826E-03  0.2757E-02  0.4983E+00
   -1.718777    1.61507  0.0000E+00  0.5483E-05  0.1521E-07  0.1621E-03  0.2309E-02  0.7680E+00
   -1.787529    1.61803  0.0000E+00  0.4686E-05  0.1232E-07  0.1409E-03  0.1913E-02  0.1280E+01
   -1.856281    1.62142  0.0000E+00  0.3961E-05  0.9909E-08  0.1194E-03  0.1564E-02  0.2450E+01
   -1.925033    1.62551  0.0000E+00  0.3303E-05  0.7895E-08  0.9845E-04  0.1258E-02  0.6141E+01
   -1.993785    1.63076  0.0000E+00  0.2717E-05  0.6233E-08  0.7900E-04  0.9901E-03  0.2436E+02
   -2.062536    1.63725  0.0000E+00  0.2192E-05  0.4859E-08  0.5905E-04  0.7639E-03  0.6469E+03
   -2.131287    1.65306  0.0000E+00  0.1726E-05  0.3721E-08  0.4108E-04  0.5659E-03  0.8259E+05
   -2.200038    1.69073  0.0000E+00  0.1318E-05  0.2779E-08  0.2531E-04  0.3998E-03  0.1055E+08
   -2.268788    1.75148  0.0000E+00  0.9541E-06  0.1973E-08  0.1312E-04  0.2518E-03  0.3339E+10
   -2.337538    1.83231  0.0000E+00  0.6076E-06  0.1231E-08  0.3397E-05  0.1420E-03  0.1833E+13
   -2.406287    1.96326  0.0000E+00  0.2487E-06  0.4970E-09  0.1454E-06  0.5343E-04  0.2010E+15
   -2.475036    2.31851  0.0000E+00  0.3593E-07  0.7347E-10  0.2141E-07  0.4100E-05  0.1496E+16
   -2.543784    2.91453  0.0000E+00  0.8965E-08  0.1597E-10  0.1401E-06  0.1221E-06  0.2481E+16
   -2.612532    3.49162  0.0000E+00  0.2284E-07  0.3666E-10  0.5894E-05  0.2234E-08  0.2820E+16
   -2.681279    3.77843  0.0000E+00  0.1880E-07  0.6727E-10  0.1421E-05  0.9479E-10  0.4428E+15
   -2.750025    3.87556  0.0000E+00  0.0000E+00  0.0000E+00  0.0000E+00  0.9357E-10  0.0000E+00
