 1 - depth, m
 2 - temperature, C
 3 - salinity, kg/kg
 4 - turbulent kinetic energy, m**2/s**2
 5 - dissipation rate, m**2/s**3
 6 - kinematic heat conductance, m**2/s
 7 - modulus of horizontal velocity, m/s
 8 - Richardson number, n/d
   -0.000000    0.00000  0.0000E+00  0.1219E-13  0.7604E-17  0.1000E-09  0.0000E+00  0.1389E+17
   -0.068729    0.21447  0.0000E+00  0.1219E-13  0.7604E-17  0.1000E-09  0.0000E+00  0.1268E+17
   -0.137460    0.42232  0.0000E+00  0.1219E-13  0.7604E-17  0.1000E-09  0.0000E+00  0.1157E+17
   -0.206190    0.62384  0.0000E+00  0.3905E-13  0.7604E-17  0.1000E-09  0.0000E+00  0.1054E+17
   -0.274922    0.81926  0.0000E+00  0.1147E-12  0.1194E-16  0.1000E-09  0.0000E+00  0.9648E+16
   -0.343654    1.01002  0.0000E+00  0.2672E-12  0.2371E-16  0.1000E-09  0.0000E+00  0.8830E+16
   -0.412386    1.19662  0.0000E+00  0.5723E-12  0.4812E-16  0.1000E-09  0.0000E+00  0.8067E+16
   -0.481119    1.37932  0.0000E+00  0.1187E-11  0.9691E-16  0.1000E-09  0.0000E+00  0.7348E+16
   -0.549852    1.55823  0.0000E+00  0.2431E-11  0.1937E-15  0.1000E-09  0.0000E+00  0.6650E+16
   -0.618586    1.73287  0.0000E+00  0.4936E-11  0.3846E-15  0.1000E-09  0.0000E+00  0.5999E+16
   -0.687320    1.90346  0.0000E+00  0.9948E-11  0.7582E-15  0.1000E-09  0.0000E+00  0.5482E+16
   -0.756054    2.07309  0.0000E+00  0.1991E-10  0.1485E-14  0.1000E-09  0.0000E+00  0.5034E+16
   -0.824789    2.24383  0.0000E+00  0.3961E-10  0.2892E-14  0.1000E-09  0.0000E+00  0.4587E+16
   -0.893524    2.41598  0.0000E+00  0.7828E-10  0.5596E-14  0.1000E-09  0.0000E+00  0.4136E+16
   -0.962259    2.58982  0.0000E+00  0.1538E-09  0.1076E-13  0.1000E-09  0.0000E+00  0.3678E+16
   -1.030995    2.76554  0.0000E+00  0.2998E-09  0.2056E-13  0.1000E-09  0.0000E+00  0.3210E+16
   -1.099731    2.94336  0.0000E+00  0.5804E-09  0.3900E-13  0.1000E-09  0.0000E+00  0.2727E+16
   -1.168466    3.12328  0.0000E+00  0.1117E-08  0.7352E-13  0.1681E-09  0.0000E+00  0.2227E+16
   -1.237202    3.30514  0.0000E+00  0.2135E-08  0.1378E-12  0.4104E-09  0.0000E+00  0.1709E+16
   -1.305938    3.48850  0.0000E+00  0.4058E-08  0.2568E-12  0.1110E-08  0.0000E+00  0.1177E+16
   -1.374674    3.67248  0.0000E+00  0.7658E-08  0.4752E-12  0.3791E-08  0.0000E+00  0.6384E+15
   -1.443410    3.85482  0.0000E+00  0.1415E-07  0.8627E-12  0.3331E-07  0.0000E+00  0.1321E+15
   -1.512146    4.00748  0.0000E+00  0.1464E-07  0.8948E-12  0.8991E-04  0.0000E+00 -0.7957E+11
   -1.580882    4.00772  0.0000E+00  0.1488E-07  0.9127E-12  0.8805E-04  0.0000E+00 -0.9917E+11
   -1.649618    4.00802  0.0000E+00  0.1509E-07  0.9325E-12  0.8997E-04  0.0000E+00 -0.1020E+12
   -1.718354    4.00832  0.0000E+00  0.1528E-07  0.9546E-12  0.9104E-04  0.0000E+00 -0.1043E+12
   -1.787089    4.00862  0.0000E+00  0.1545E-07  0.9793E-12  0.9224E-04  0.0000E+00 -0.1062E+12
   -1.855824    4.00892  0.0000E+00  0.1560E-07  0.1006E-11  0.9321E-04  0.0000E+00 -0.1082E+12
   -1.924559    4.00922  0.0000E+00  0.1572E-07  0.1035E-11  0.9321E-04  0.0000E+00 -0.1114E+12
   -1.993294    4.00953  0.0000E+00  0.1581E-07  0.1068E-11  0.9203E-04  0.0000E+00 -0.1164E+12
   -2.062029    4.00985  0.0000E+00  0.1588E-07  0.1106E-11  0.8970E-04  0.0000E+00 -0.1218E+12
   -2.130763    4.01018  0.0000E+00  0.1593E-07  0.1153E-11  0.8554E-04  0.0000E+00 -0.1303E+12
   -2.199496    4.01052  0.0000E+00  0.1594E-07  0.1214E-11  0.7712E-04  0.0000E+00 -0.1475E+12
   -2.268230    4.01091  0.0000E+00  0.1591E-07  0.1291E-11  0.6751E-04  0.0000E+00 -0.1726E+12
   -2.336963    4.01135  0.0000E+00  0.1582E-07  0.1396E-11  0.5854E-04  0.0000E+00 -0.2048E+12
   -2.405695    4.01187  0.0000E+00  0.1566E-07  0.1546E-11  0.4939E-04  0.0000E+00 -0.2513E+12
   -2.474427    4.01249  0.0000E+00  0.1539E-07  0.1777E-11  0.3911E-04  0.0000E+00 -0.3317E+12
   -2.543158    4.01329  0.0000E+00  0.1491E-07  0.2198E-11  0.2727E-04  0.0000E+00 -0.5081E+12
   -2.611889    4.01446  0.0000E+00  0.1391E-07  0.3244E-11  0.1394E-04  0.0000E+00 -0.1118E+13
   -2.680619    4.01689  0.0000E+00  0.9495E-08  0.1046E-10  0.1516E-05  0.0000E+00 -0.1644E+14
   -2.749349    4.04140  0.0000E+00  0.0000E+00  0.0000E+00  0.0000E+00  0.0000E+00  0.0000E+00
