 1 - depth, m
 2 - temperature, C
 3 - salinity, kg/kg
 4 - turbulent kinetic energy, m**2/s**2
 5 - dissipation rate, m**2/s**3
 6 - kinematic heat conductance, m**2/s
 7 - modulus of horizontal velocity, m/s
 8 - Richardson number, n/d
   -0.000000   13.00941  0.0000E+00  0.2223E-03  0.1168E-03  0.1046E-03  0.1458E+00 -0.5071E-03
   -0.068753   13.01109  0.0000E+00  0.1211E-03  0.3169E-04  0.1968E-03  0.4854E-01 -0.1168E-01
   -0.137507   13.01138  0.0000E+00  0.8663E-04  0.1339E-04  0.1876E-03  0.3722E-01 -0.1531E-02
   -0.206261   13.01146  0.0000E+00  0.6498E-04  0.6139E-05  0.1909E-03  0.3072E-01 -0.2142E-02
   -0.275016   13.01145  0.0000E+00  0.5130E-04  0.2983E-05  0.2002E-03  0.2619E-01 -0.3433E-02
   -0.343772   13.01141  0.0000E+00  0.4201E-04  0.1550E-05  0.2137E-03  0.2238E-01 -0.5074E-02
   -0.412528   13.01135  0.0000E+00  0.3544E-04  0.8812E-06  0.2283E-03  0.1920E-01 -0.7143E-02
   -0.481284   13.01129  0.0000E+00  0.3055E-04  0.5498E-06  0.2424E-03  0.1653E-01 -0.9825E-02
   -0.550041   13.01123  0.0000E+00  0.2667E-04  0.3690E-06  0.2574E-03  0.1427E-01 -0.1366E-01
   -0.618799   13.01117  0.0000E+00  0.2354E-04  0.2614E-06  0.2711E-03  0.1239E-01 -0.1895E-01
   -0.687556   13.01112  0.0000E+00  0.2094E-04  0.1925E-06  0.2841E-03  0.1081E-01 -0.2625E-01
   -0.756314   13.01108  0.0000E+00  0.1873E-04  0.1457E-06  0.2969E-03  0.9459E-02 -0.3525E-01
   -0.825073   13.01106  0.0000E+00  0.1684E-04  0.1127E-06  0.3120E-03  0.8298E-02 -0.2984E-02
   -0.893831   13.01105  0.0000E+00  0.1520E-04  0.8858E-07  0.3362E-03  0.7293E-02  0.6479E+01
   -0.962590   13.01105  0.0000E+00  0.1380E-04  0.7071E-07  0.3645E-03  0.6426E-02  0.5001E+02
   -1.031349   13.01106  0.0000E+00  0.1261E-04  0.5730E-07  0.4002E-03  0.5677E-02  0.1061E+03
   -1.100109   13.01109  0.0000E+00  0.1158E-04  0.4703E-07  0.4383E-03  0.5012E-02  0.5827E+01
   -1.168868   13.01115  0.0000E+00  0.1069E-04  0.3905E-07  0.4708E-03  0.4420E-02  0.1650E+02
   -1.237628   13.01122  0.0000E+00  0.9910E-05  0.3277E-07  0.5076E-03  0.3892E-02  0.3483E+02
   -1.306387   13.01132  0.0000E+00  0.9228E-05  0.2777E-07  0.5427E-03  0.3420E-02  0.3681E+02
   -1.375147   13.01144  0.0000E+00  0.8626E-05  0.2377E-07  0.5767E-03  0.2996E-02  0.2368E+01
   -1.443907   13.01159  0.0000E+00  0.8091E-05  0.2052E-07  0.6054E-03  0.2615E-02  0.2152E+01
   -1.512666   13.01176  0.0000E+00  0.7613E-05  0.1787E-07  0.6423E-03  0.2270E-02  0.2418E+02
   -1.581426   13.01194  0.0000E+00  0.7186E-05  0.1570E-07  0.7009E-03  0.1968E-02  0.5058E+02
   -1.650185   13.01213  0.0000E+00  0.6809E-05  0.1393E-07  0.7676E-03  0.1707E-02  0.4518E+02
   -1.718944   13.01232  0.0000E+00  0.6476E-05  0.1249E-07  0.8241E-03  0.1482E-02  0.3552E+02
   -1.787704   13.01252  0.0000E+00  0.6184E-05  0.1133E-07  0.8888E-03  0.1286E-02  0.5103E+03
   -1.856462   13.01272  0.0000E+00  0.5930E-05  0.1041E-07  0.9658E-03  0.1116E-02  0.4147E+02
   -1.925221   13.01292  0.0000E+00  0.5711E-05  0.9711E-08  0.1034E-02  0.9698E-03  0.1396E+03
   -1.993980   13.01311  0.0000E+00  0.5520E-05  0.9184E-08  0.1070E-02  0.8432E-03  0.4933E+02
   -2.062738   13.01332  0.0000E+00  0.5350E-05  0.8807E-08  0.1077E-02  0.7318E-03  0.2291E+01
   -2.131495   13.01353  0.0000E+00  0.5196E-05  0.8561E-08  0.1046E-02  0.6325E-03  0.1397E+01
   -2.200253   13.01377  0.0000E+00  0.5055E-05  0.8443E-08  0.9976E-03  0.5424E-03  0.1403E+01
   -2.269010   13.01403  0.0000E+00  0.4926E-05  0.8459E-08  0.9413E-03  0.4608E-03  0.1643E+01
   -2.337766   13.01432  0.0000E+00  0.4803E-05  0.8626E-08  0.8771E-03  0.3904E-03  0.2177E+01
   -2.406522   13.01465  0.0000E+00  0.4682E-05  0.8985E-08  0.8039E-03  0.3302E-03  0.3378E+01
   -2.475278   13.01503  0.0000E+00  0.4555E-05  0.9636E-08  0.7159E-03  0.2776E-03  0.6064E+01
   -2.544033   13.01547  0.0000E+00  0.4403E-05  0.1086E-07  0.6073E-03  0.2295E-03  0.1351E+02
   -2.612787   13.01602  0.0000E+00  0.4169E-05  0.1375E-07  0.4617E-03  0.1852E-03  0.4532E+02
   -2.681541   13.01678  0.0000E+00  0.2628E-05  0.4627E-07  0.2274E-04  0.1400E-03 -0.3440E+04
   -2.750294   13.03310  0.0000E+00  0.0000E+00  0.0000E+00  0.0000E+00  0.1398E-03  0.0000E+00
