 1 - depth, m
 2 - temperature, C
 3 - salinity, kg/kg
 4 - turbulent kinetic energy, m**2/s**2
 5 - dissipation rate, m**2/s**3
 6 - kinematic heat conductance, m**2/s
 7 - modulus of horizontal velocity, m/s
 8 - Richardson number, n/d
   -0.000000    0.00000  0.0000E+00  0.2088E-11  0.5371E-15  0.1000E-09  0.0000E+00  0.2096E+17
   -0.068735    0.32892  0.0000E+00  0.5500E-11  0.5723E-15  0.1000E-09  0.0000E+00  0.1857E+17
   -0.137470    0.64912  0.0000E+00  0.1263E-10  0.9620E-15  0.1000E-09  0.0000E+00  0.1634E+17
   -0.206207    0.96048  0.0000E+00  0.2605E-10  0.1796E-14  0.1000E-09  0.0000E+00  0.1427E+17
   -0.274943    1.26290  0.0000E+00  0.5114E-10  0.3381E-14  0.1000E-09  0.0000E+00  0.1236E+17
   -0.343681    1.55653  0.0000E+00  0.9808E-10  0.6314E-14  0.1000E-09  0.0000E+00  0.1059E+17
   -0.412419    1.84141  0.0000E+00  0.1859E-09  0.1170E-13  0.1000E-09  0.0000E+00  0.8967E+16
   -0.481157    2.11760  0.0000E+00  0.3494E-09  0.2154E-13  0.1000E-09  0.0000E+00  0.7476E+16
   -0.549896    2.38515  0.0000E+00  0.6534E-09  0.3948E-13  0.1000E-09  0.0000E+00  0.6108E+16
   -0.618635    2.64392  0.0000E+00  0.1216E-08  0.7201E-13  0.1000E-09  0.0000E+00  0.4862E+16
   -0.687374    2.89396  0.0000E+00  0.2250E-08  0.1306E-12  0.1768E-09  0.0000E+00  0.3762E+16
   -0.756114    3.13759  0.0000E+00  0.4140E-08  0.2357E-12  0.4352E-09  0.0000E+00  0.2757E+16
   -0.824854    3.37607  0.0000E+00  0.7575E-08  0.4231E-12  0.1187E-08  0.0000E+00  0.1815E+16
   -0.893595    3.60879  0.0000E+00  0.1376E-07  0.7543E-12  0.4105E-08  0.0000E+00  0.9354E+15
   -0.962336    3.83261  0.0000E+00  0.2446E-07  0.1319E-11  0.3724E-07  0.0000E+00  0.1802E+15
   -1.031077    4.01181  0.0000E+00  0.2487E-07  0.1341E-11  0.1679E-03  0.0000E+00 -0.7103E+11
   -1.099818    4.01199  0.0000E+00  0.2505E-07  0.1354E-11  0.1639E-03  0.0000E+00 -0.7681E+11
   -1.168559    4.01218  0.0000E+00  0.2523E-07  0.1368E-11  0.1678E-03  0.0000E+00 -0.7715E+11
   -1.237300    4.01237  0.0000E+00  0.2538E-07  0.1383E-11  0.1705E-03  0.0000E+00 -0.7728E+11
   -1.306042    4.01256  0.0000E+00  0.2551E-07  0.1399E-11  0.1702E-03  0.0000E+00 -0.7836E+11
   -1.374783    4.01275  0.0000E+00  0.2563E-07  0.1416E-11  0.1698E-03  0.0000E+00 -0.7932E+11
   -1.443524    4.01294  0.0000E+00  0.2573E-07  0.1435E-11  0.1690E-03  0.0000E+00 -0.8036E+11
   -1.512266    4.01313  0.0000E+00  0.2582E-07  0.1456E-11  0.1679E-03  0.0000E+00 -0.8163E+11
   -1.581007    4.01333  0.0000E+00  0.2590E-07  0.1479E-11  0.1664E-03  0.0000E+00 -0.8314E+11
   -1.649748    4.01352  0.0000E+00  0.2596E-07  0.1505E-11  0.1645E-03  0.0000E+00 -0.8491E+11
   -1.718490    4.01372  0.0000E+00  0.2600E-07  0.1534E-11  0.1622E-03  0.0000E+00 -0.8695E+11
   -1.787230    4.01392  0.0000E+00  0.2603E-07  0.1566E-11  0.1596E-03  0.0000E+00 -0.8933E+11
   -1.855971    4.01413  0.0000E+00  0.2604E-07  0.1602E-11  0.1564E-03  0.0000E+00 -0.9210E+11
   -1.924712    4.01434  0.0000E+00  0.2603E-07  0.1643E-11  0.1528E-03  0.0000E+00 -0.9536E+11
   -1.993452    4.01455  0.0000E+00  0.2601E-07  0.1690E-11  0.1487E-03  0.0000E+00 -0.9917E+11
   -2.062192    4.01478  0.0000E+00  0.2596E-07  0.1745E-11  0.1440E-03  0.0000E+00 -0.1034E+12
   -2.130931    4.01501  0.0000E+00  0.2589E-07  0.1808E-11  0.1386E-03  0.0000E+00 -0.1085E+12
   -2.199670    4.01525  0.0000E+00  0.2579E-07  0.1882E-11  0.1328E-03  0.0000E+00 -0.1144E+12
   -2.268409    4.01550  0.0000E+00  0.2564E-07  0.1985E-11  0.1217E-03  0.0000E+00 -0.1263E+12
   -2.337148    4.01577  0.0000E+00  0.2541E-07  0.2145E-11  0.9519E-04  0.0000E+00 -0.1638E+12
   -2.405885    4.01613  0.0000E+00  0.2507E-07  0.2381E-11  0.7458E-04  0.0000E+00 -0.2130E+12
   -2.474623    4.01658  0.0000E+00  0.2457E-07  0.2753E-11  0.5718E-04  0.0000E+00 -0.2849E+12
   -2.543359    4.01718  0.0000E+00  0.2379E-07  0.3433E-11  0.3903E-04  0.0000E+00 -0.4334E+12
   -2.612096    4.01806  0.0000E+00  0.2225E-07  0.5124E-11  0.1965E-04  0.0000E+00 -0.9214E+12
   -2.680831    4.01986  0.0000E+00  0.1447E-07  0.1850E-10  0.1711E-05  0.0000E+00 -0.1458E+14
   -2.749566    4.04097  0.0000E+00  0.0000E+00  0.0000E+00  0.0000E+00  0.0000E+00  0.0000E+00
