 1 - depth, m
 2 - temperature, C
 3 - salinity, kg/kg
 4 - turbulent kinetic energy, m**2/s**2
 5 - dissipation rate, m**2/s**3
 6 - kinematic heat conductance, m**2/s
 7 - modulus of horizontal velocity, m/s
 8 - Richardson number, n/d
   -0.000000    0.00000  0.0000E+00  0.8919E-13  0.1197E-16  0.1000E-09  0.0000E+00  0.1528E+17
   -0.068759    0.23664  0.0000E+00  0.1656E-12  0.1461E-16  0.1000E-09  0.0000E+00  0.1405E+17
   -0.137518    0.46930  0.0000E+00  0.3374E-12  0.2502E-16  0.1000E-09  0.0000E+00  0.1289E+17
   -0.206279    0.69816  0.0000E+00  0.6736E-12  0.4675E-16  0.1000E-09  0.0000E+00  0.1179E+17
   -0.275039    0.92317  0.0000E+00  0.1316E-11  0.8826E-16  0.1000E-09  0.0000E+00  0.1075E+17
   -0.343801    1.14473  0.0000E+00  0.2532E-11  0.1657E-15  0.1000E-09  0.0000E+00  0.9754E+16
   -0.412562    1.36275  0.0000E+00  0.4826E-11  0.3087E-15  0.1000E-09  0.0000E+00  0.8797E+16
   -0.481325    1.57703  0.0000E+00  0.9128E-11  0.5716E-15  0.1000E-09  0.0000E+00  0.7875E+16
   -0.550087    1.78727  0.0000E+00  0.1717E-10  0.1053E-14  0.1000E-09  0.0000E+00  0.6983E+16
   -0.618850    1.99286  0.0000E+00  0.3214E-10  0.1930E-14  0.1000E-09  0.0000E+00  0.6135E+16
   -0.687614    2.19355  0.0000E+00  0.5979E-10  0.3517E-14  0.1000E-09  0.0000E+00  0.5378E+16
   -0.756378    2.39077  0.0000E+00  0.1106E-09  0.6373E-14  0.1000E-09  0.0000E+00  0.4678E+16
   -0.825142    2.58538  0.0000E+00  0.2033E-09  0.1148E-13  0.1000E-09  0.0000E+00  0.4004E+16
   -0.893906    2.77723  0.0000E+00  0.3718E-09  0.2058E-13  0.1000E-09  0.0000E+00  0.3358E+16
   -0.962671    2.96617  0.0000E+00  0.6761E-09  0.3669E-13  0.1000E-09  0.0000E+00  0.2740E+16
   -1.031436    3.15207  0.0000E+00  0.1221E-08  0.6497E-13  0.1537E-09  0.0000E+00  0.2152E+16
   -1.100201    3.33480  0.0000E+00  0.2191E-08  0.1143E-12  0.3655E-09  0.0000E+00  0.1592E+16
   -1.168966    3.51403  0.0000E+00  0.3907E-08  0.1999E-12  0.9582E-09  0.0000E+00  0.1062E+16
   -1.237732    3.68917  0.0000E+00  0.6920E-08  0.3475E-12  0.3130E-08  0.0000E+00  0.5650E+15
   -1.306497    3.85821  0.0000E+00  0.1206E-07  0.5952E-12  0.2393E-07  0.0000E+00  0.1266E+15
   -1.375262    4.00273  0.0000E+00  0.1241E-07  0.6130E-12  0.9563E-04  0.0000E+00 -0.5741E+11
   -1.444028    4.00295  0.0000E+00  0.1257E-07  0.6234E-12  0.9322E-04  0.0000E+00 -0.6473E+11
   -1.512793    4.00320  0.0000E+00  0.1274E-07  0.6356E-12  0.9331E-04  0.0000E+00 -0.6697E+11
   -1.581558    4.00345  0.0000E+00  0.1287E-07  0.6481E-12  0.9755E-04  0.0000E+00 -0.6557E+11
   -1.650324    4.00369  0.0000E+00  0.1299E-07  0.6607E-12  0.9865E-04  0.0000E+00 -0.6606E+11
   -1.719089    4.00393  0.0000E+00  0.1308E-07  0.6741E-12  0.9937E-04  0.0000E+00 -0.6679E+11
   -1.787854    4.00417  0.0000E+00  0.1316E-07  0.6888E-12  0.9849E-04  0.0000E+00 -0.6858E+11
   -1.856618    4.00442  0.0000E+00  0.1323E-07  0.7052E-12  0.9722E-04  0.0000E+00 -0.7074E+11
   -1.925383    4.00466  0.0000E+00  0.1328E-07  0.7242E-12  0.9547E-04  0.0000E+00 -0.7342E+11
   -1.994147    4.00492  0.0000E+00  0.1331E-07  0.7470E-12  0.9319E-04  0.0000E+00 -0.7672E+11
   -2.062911    4.00518  0.0000E+00  0.1333E-07  0.7753E-12  0.8887E-04  0.0000E+00 -0.8172E+11
   -2.131674    4.00545  0.0000E+00  0.1333E-07  0.8105E-12  0.7958E-04  0.0000E+00 -0.9273E+11
   -2.200437    4.00576  0.0000E+00  0.1330E-07  0.8540E-12  0.7036E-04  0.0000E+00 -0.1068E+12
   -2.269200    4.00611  0.0000E+00  0.1324E-07  0.9095E-12  0.6232E-04  0.0000E+00 -0.1233E+12
   -2.337962    4.00650  0.0000E+00  0.1313E-07  0.9847E-12  0.5444E-04  0.0000E+00 -0.1449E+12
   -2.406724    4.00695  0.0000E+00  0.1296E-07  0.1092E-11  0.4575E-04  0.0000E+00 -0.1780E+12
   -2.475485    4.00750  0.0000E+00  0.1270E-07  0.1259E-11  0.3588E-04  0.0000E+00 -0.2364E+12
   -2.544246    4.00820  0.0000E+00  0.1227E-07  0.1566E-11  0.2468E-04  0.0000E+00 -0.3656E+12
   -2.613006    4.00924  0.0000E+00  0.1140E-07  0.2338E-11  0.1233E-04  0.0000E+00 -0.8180E+12
   -2.681766    4.01141  0.0000E+00  0.7568E-08  0.7729E-11  0.1250E-05  0.0000E+00 -0.1286E+14
   -2.750525    4.03399  0.0000E+00  0.0000E+00  0.0000E+00  0.0000E+00  0.0000E+00  0.0000E+00
