 1 - depth, m
 2 - temperature, C
 3 - salinity, kg/kg
 4 - turbulent kinetic energy, m**2/s**2
 5 - dissipation rate, m**2/s**3
 6 - kinematic heat conductance, m**2/s
 7 - modulus of horizontal velocity, m/s
 8 - Richardson number, n/d
   -0.000000    8.40610  0.0000E+00  0.2380E-03  0.3676E-02  0.1424E-03  0.1433E+00  0.7064E-02
   -0.068781    8.45258  0.0000E+00  0.1332E-03  0.1708E-02  0.1962E-03  0.4764E-01 -0.1636E-01
   -0.137563    8.45907  0.0000E+00  0.9411E-04  0.7912E-03  0.1849E-03  0.3666E-01 -0.1436E-01
   -0.206346    8.46443  0.0000E+00  0.6774E-04  0.2478E-03  0.1914E-03  0.3047E-01 -0.2148E-01
   -0.275129    8.46868  0.0000E+00  0.5059E-04  0.4217E-04  0.2043E-03  0.2605E-01 -0.1454E-01
   -0.343913    8.47239  0.0000E+00  0.4050E-04  0.3776E-05  0.2216E-03  0.2228E-01 -0.1739E-01
   -0.412698    8.47572  0.0000E+00  0.3440E-04  0.7470E-06  0.2410E-03  0.1905E-01 -0.2095E-01
   -0.481482    8.47860  0.0000E+00  0.3001E-04  0.4416E-06  0.2608E-03  0.1635E-01 -0.2618E-01
   -0.550268    8.48116  0.0000E+00  0.2652E-04  0.3049E-06  0.2825E-03  0.1411E-01 -0.3433E-01
   -0.619053    8.48346  0.0000E+00  0.2367E-04  0.2209E-06  0.3035E-03  0.1225E-01 -0.4438E-01
   -0.687839    8.48557  0.0000E+00  0.2129E-04  0.1657E-06  0.3244E-03  0.1069E-01 -0.5685E-01
   -0.756626    8.48751  0.0000E+00  0.1927E-04  0.1277E-06  0.3462E-03  0.9352E-02  0.1274E-01
   -0.825412    8.48930  0.0000E+00  0.1754E-04  0.1006E-06  0.3688E-03  0.8212E-02 -0.3484E-01
   -0.894199    8.49097  0.0000E+00  0.1606E-04  0.8063E-07  0.3935E-03  0.7234E-02 -0.6812E-01
   -0.962987    8.49252  0.0000E+00  0.1478E-04  0.6571E-07  0.4223E-03  0.6395E-02  0.7050E+00
   -1.031774    8.49396  0.0000E+00  0.1369E-04  0.5440E-07  0.4593E-03  0.5675E-02  0.3372E+02
   -1.100562    8.49530  0.0000E+00  0.1275E-04  0.4567E-07  0.5135E-03  0.5042E-02  0.1430E+01
   -1.169349    8.49652  0.0000E+00  0.1193E-04  0.3883E-07  0.6006E-03  0.4483E-02  0.3449E+02
   -1.238137    8.49759  0.0000E+00  0.1122E-04  0.3344E-07  0.7373E-03  0.3990E-02  0.1538E+03
   -1.306925    8.49851  0.0000E+00  0.1061E-04  0.2916E-07  0.8845E-03  0.3557E-02  0.3657E+03
   -1.375713    8.49928  0.0000E+00  0.1008E-04  0.2570E-07  0.1031E-02  0.3172E-02  0.3374E+03
   -1.444501    8.49992  0.0000E+00  0.9600E-05  0.2288E-07  0.1148E-02  0.2825E-02  0.3678E+02
   -1.513289    8.50047  0.0000E+00  0.9168E-05  0.2053E-07  0.1236E-02  0.2507E-02  0.2813E+02
   -1.582077    8.50096  0.0000E+00  0.8767E-05  0.1853E-07  0.1284E-02  0.2219E-02  0.3130E+02
   -1.650865    8.50142  0.0000E+00  0.8393E-05  0.1683E-07  0.1316E-02  0.1959E-02  0.1692E+02
   -1.719652    8.50186  0.0000E+00  0.8044E-05  0.1538E-07  0.1332E-02  0.1725E-02  0.2019E+01
   -1.788440    8.50229  0.0000E+00  0.7717E-05  0.1415E-07  0.1340E-02  0.1513E-02  0.1805E+01
   -1.857227    8.50272  0.0000E+00  0.7412E-05  0.1312E-07  0.1339E-02  0.1322E-02  0.1635E+01
   -1.926014    8.50315  0.0000E+00  0.7127E-05  0.1228E-07  0.1328E-02  0.1150E-02  0.1483E+01
   -1.994800    8.50358  0.0000E+00  0.6862E-05  0.1162E-07  0.1304E-02  0.9967E-03  0.1342E+01
   -2.063587    8.50403  0.0000E+00  0.6618E-05  0.1113E-07  0.1265E-02  0.8602E-03  0.1209E+01
   -2.132373    8.50448  0.0000E+00  0.6394E-05  0.1080E-07  0.1215E-02  0.7392E-03  0.1085E+01
   -2.201159    8.50496  0.0000E+00  0.6191E-05  0.1063E-07  0.1155E-02  0.6321E-03  0.9698E+00
   -2.269944    8.50546  0.0000E+00  0.6010E-05  0.1063E-07  0.1087E-02  0.5378E-03  0.8195E+00
   -2.338729    8.50599  0.0000E+00  0.5847E-05  0.1079E-07  0.1017E-02  0.4589E-03  0.7387E+00
   -2.407513    8.50655  0.0000E+00  0.5693E-05  0.1117E-07  0.9453E-03  0.3941E-03  0.8823E+00
   -2.476297    8.50716  0.0000E+00  0.5534E-05  0.1186E-07  0.8527E-03  0.3378E-03  0.1364E+01
   -2.545080    8.50784  0.0000E+00  0.5350E-05  0.1318E-07  0.7489E-03  0.2848E-03  0.2676E+01
   -2.613863    8.50862  0.0000E+00  0.5061E-05  0.1658E-07  0.5517E-03  0.2364E-03  0.1779E+02
   -2.682645    8.50967  0.0000E+00  0.3098E-05  0.5749E-07  0.2339E-04  0.1798E-03 -0.1038E+04
   -2.751426    8.53442  0.0000E+00  0.0000E+00  0.0000E+00  0.0000E+00  0.1796E-03  0.0000E+00
