 1 - depth, m
 2 - temperature, C
 3 - salinity, kg/kg
 4 - turbulent kinetic energy, m**2/s**2
 5 - dissipation rate, m**2/s**3
 6 - kinematic heat conductance, m**2/s
 7 - modulus of horizontal velocity, m/s
 8 - Richardson number, n/d
   -0.000000    0.00000  0.0000E+00  0.1435E-11  0.3564E-15  0.1000E-09  0.0000E+00  0.2075E+17
   -0.068750    0.32540  0.0000E+00  0.3691E-11  0.4319E-15  0.1000E-09  0.0000E+00  0.1752E+17
   -0.137500    0.62635  0.0000E+00  0.8722E-11  0.8077E-15  0.1000E-09  0.0000E+00  0.1503E+17
   -0.206251    0.90925  0.0000E+00  0.1896E-10  0.1635E-14  0.1000E-09  0.0000E+00  0.1302E+17
   -0.275003    1.17863  0.0000E+00  0.3970E-10  0.3315E-14  0.1000E-09  0.0000E+00  0.1142E+17
   -0.343755    1.43948  0.0000E+00  0.8166E-10  0.6664E-14  0.1000E-09  0.0000E+00  0.1005E+17
   -0.412507    1.69456  0.0000E+00  0.1664E-09  0.1331E-13  0.1000E-09  0.0000E+00  0.8833E+16
   -0.481261    1.94597  0.0000E+00  0.3368E-09  0.2641E-13  0.1000E-09  0.0000E+00  0.7718E+16
   -0.550014    2.19540  0.0000E+00  0.6791E-09  0.5225E-13  0.1000E-09  0.0000E+00  0.6667E+16
   -0.618768    2.44406  0.0000E+00  0.1363E-08  0.1029E-12  0.1003E-09  0.0000E+00  0.5685E+16
   -0.687522    2.69445  0.0000E+00  0.2724E-08  0.2020E-12  0.2155E-09  0.0000E+00  0.4774E+16
   -0.756277    2.95165  0.0000E+00  0.5416E-08  0.3945E-12  0.5239E-09  0.0000E+00  0.3839E+16
   -0.825032    3.21992  0.0000E+00  0.1072E-07  0.7671E-12  0.1409E-08  0.0000E+00  0.2782E+16
   -0.893787    3.50085  0.0000E+00  0.2108E-07  0.1483E-11  0.4902E-08  0.0000E+00  0.1556E+16
   -0.962543    3.79081  0.0000E+00  0.4023E-07  0.2791E-11  0.5252E-07  0.0000E+00  0.2919E+15
   -1.031299    4.02403  0.0000E+00  0.4085E-07  0.2836E-11  0.2107E-03  0.0000E+00 -0.1167E+12
   -1.100055    4.02423  0.0000E+00  0.4114E-07  0.2863E-11  0.2032E-03  0.0000E+00 -0.1282E+12
   -1.168811    4.02444  0.0000E+00  0.4142E-07  0.2892E-11  0.2083E-03  0.0000E+00 -0.1299E+12
   -1.237567    4.02466  0.0000E+00  0.4166E-07  0.2924E-11  0.2114E-03  0.0000E+00 -0.1311E+12
   -1.306323    4.02488  0.0000E+00  0.4188E-07  0.2959E-11  0.2110E-03  0.0000E+00 -0.1337E+12
   -1.375079    4.02510  0.0000E+00  0.4208E-07  0.2998E-11  0.2103E-03  0.0000E+00 -0.1359E+12
   -1.443835    4.02532  0.0000E+00  0.4225E-07  0.3040E-11  0.2093E-03  0.0000E+00 -0.1383E+12
   -1.512592    4.02555  0.0000E+00  0.4241E-07  0.3086E-11  0.2078E-03  0.0000E+00 -0.1410E+12
   -1.581348    4.02578  0.0000E+00  0.4254E-07  0.3139E-11  0.2058E-03  0.0000E+00 -0.1440E+12
   -1.650104    4.02601  0.0000E+00  0.4264E-07  0.3197E-11  0.2035E-03  0.0000E+00 -0.1475E+12
   -1.718860    4.02625  0.0000E+00  0.4273E-07  0.3262E-11  0.2006E-03  0.0000E+00 -0.1516E+12
   -1.787616    4.02649  0.0000E+00  0.4278E-07  0.3335E-11  0.1972E-03  0.0000E+00 -0.1563E+12
   -1.856371    4.02674  0.0000E+00  0.4281E-07  0.3418E-11  0.1932E-03  0.0000E+00 -0.1617E+12
   -1.925126    4.02699  0.0000E+00  0.4282E-07  0.3512E-11  0.1887E-03  0.0000E+00 -0.1680E+12
   -1.993881    4.02725  0.0000E+00  0.4279E-07  0.3620E-11  0.1835E-03  0.0000E+00 -0.1755E+12
   -2.062636    4.02753  0.0000E+00  0.4272E-07  0.3744E-11  0.1776E-03  0.0000E+00 -0.1839E+12
   -2.131390    4.02781  0.0000E+00  0.4262E-07  0.3889E-11  0.1710E-03  0.0000E+00 -0.1940E+12
   -2.200144    4.02811  0.0000E+00  0.4248E-07  0.4059E-11  0.1635E-03  0.0000E+00 -0.2060E+12
   -2.268898    4.02842  0.0000E+00  0.4229E-07  0.4265E-11  0.1551E-03  0.0000E+00 -0.2207E+12
   -2.337651    4.02876  0.0000E+00  0.4202E-07  0.4536E-11  0.1454E-03  0.0000E+00 -0.2393E+12
   -2.406404    4.02912  0.0000E+00  0.4160E-07  0.4958E-11  0.1183E-03  0.0000E+00 -0.2996E+12
   -2.475156    4.02956  0.0000E+00  0.4089E-07  0.5700E-11  0.8228E-04  0.0000E+00 -0.4406E+12
   -2.543907    4.03021  0.0000E+00  0.3972E-07  0.7080E-11  0.5491E-04  0.0000E+00 -0.6818E+12
   -2.612658    4.03119  0.0000E+00  0.3737E-07  0.1049E-10  0.2789E-04  0.0000E+00 -0.1416E+13
   -2.681409    4.03317  0.0000E+00  0.2399E-07  0.3955E-10  0.2187E-05  0.0000E+00 -0.2350E+14
   -2.750158    4.05841  0.0000E+00  0.0000E+00  0.0000E+00  0.0000E+00  0.0000E+00  0.0000E+00
