 1 - depth, m
 2 - temperature, C
 3 - salinity, kg/kg
 4 - turbulent kinetic energy, m**2/s**2
 5 - dissipation rate, m**2/s**3
 6 - kinematic heat conductance, m**2/s
 7 - modulus of horizontal velocity, m/s
 8 - Richardson number, n/d
   -0.000000   15.75753  0.0000E+00  0.2095E-04  0.1281E-05  0.3610E-04  0.2814E-01 -0.2456E-01
   -0.068764   15.79332  0.0000E+00  0.1686E-04  0.3916E-06  0.8260E-04  0.1518E-01 -0.7718E-01
   -0.137528   15.80719  0.0000E+00  0.1470E-04  0.1965E-06  0.1354E-03  0.1069E-01 -0.1456E+00
   -0.206293   15.81525  0.0000E+00  0.1339E-04  0.1206E-06  0.2041E-03  0.8199E-02 -0.2401E+00
   -0.275058   15.82035  0.0000E+00  0.1261E-04  0.8386E-07  0.3346E-03  0.6675E-02  0.2653E+00
   -0.343824   15.82344  0.0000E+00  0.1217E-04  0.6475E-07  0.6431E-03  0.5662E-02  0.2137E+03
   -0.412591   15.82503  0.0000E+00  0.1195E-04  0.5404E-07  0.8768E-03  0.5028E-02  0.4297E+01
   -0.481358   15.82609  0.0000E+00  0.1186E-04  0.4648E-07  0.9831E-03  0.4530E-02  0.4067E+01
   -0.550125   15.82701  0.0000E+00  0.1182E-04  0.4054E-07  0.1102E-02  0.4060E-02  0.3851E+01
   -0.618893   15.82780  0.0000E+00  0.1183E-04  0.3593E-07  0.1191E-02  0.3649E-02  0.3509E+01
   -0.687661   15.82853  0.0000E+00  0.1186E-04  0.3227E-07  0.1266E-02  0.3284E-02  0.3217E+01
   -0.756430   15.82920  0.0000E+00  0.1190E-04  0.2932E-07  0.1341E-02  0.2959E-02  0.2963E+01
   -0.825199   15.82983  0.0000E+00  0.1196E-04  0.2692E-07  0.1420E-02  0.2669E-02  0.2742E+01
   -0.893968   15.83041  0.0000E+00  0.1202E-04  0.2496E-07  0.1502E-02  0.2410E-02  0.2544E+01
   -0.962737   15.83096  0.0000E+00  0.1207E-04  0.2336E-07  0.1587E-02  0.2177E-02  0.2362E+01
   -1.031507   15.83148  0.0000E+00  0.1212E-04  0.2205E-07  0.1661E-02  0.1970E-02  0.2284E+01
   -1.100277   15.83197  0.0000E+00  0.1216E-04  0.2098E-07  0.1733E-02  0.1780E-02  0.2207E+01
   -1.169047   15.83244  0.0000E+00  0.1219E-04  0.2013E-07  0.1805E-02  0.1606E-02  0.2130E+01
   -1.237817   15.83290  0.0000E+00  0.1220E-04  0.1945E-07  0.1877E-02  0.1446E-02  0.2054E+01
   -1.306587   15.83334  0.0000E+00  0.1220E-04  0.1893E-07  0.1947E-02  0.1300E-02  0.1980E+01
   -1.375357   15.83377  0.0000E+00  0.1217E-04  0.1855E-07  0.2014E-02  0.1166E-02  0.1908E+01
   -1.444127   15.83419  0.0000E+00  0.1212E-04  0.1831E-07  0.2086E-02  0.1043E-02  0.1840E+01
   -1.512897   15.83460  0.0000E+00  0.1206E-04  0.1818E-07  0.2179E-02  0.9310E-03  0.1735E+01
   -1.581667   15.83499  0.0000E+00  0.1198E-04  0.1817E-07  0.2274E-02  0.8313E-03  0.1627E+01
   -1.650437   15.83537  0.0000E+00  0.1188E-04  0.1826E-07  0.2327E-02  0.7441E-03  0.1528E+01
   -1.719207   15.83574  0.0000E+00  0.1177E-04  0.1845E-07  0.2284E-02  0.6683E-03  0.1429E+01
   -1.787977   15.83612  0.0000E+00  0.1166E-04  0.1873E-07  0.2202E-02  0.6024E-03  0.1334E+01
   -1.856746   15.83652  0.0000E+00  0.1153E-04  0.1910E-07  0.2111E-02  0.5453E-03  0.1245E+01
   -1.925515   15.83695  0.0000E+00  0.1141E-04  0.1955E-07  0.2011E-02  0.4956E-03  0.1158E+01
   -1.994284   15.83739  0.0000E+00  0.1128E-04  0.2009E-07  0.1898E-02  0.4522E-03  0.1072E+01
   -2.063053   15.83787  0.0000E+00  0.1115E-04  0.2068E-07  0.2100E-02  0.4151E-03  0.2316E+01
   -2.131821   15.83831  0.0000E+00  0.1102E-04  0.2142E-07  0.1563E-02  0.3881E-03  0.1171E+02
   -2.200589   15.83890  0.0000E+00  0.1087E-04  0.2237E-07  0.1606E-02  0.3551E-03  0.1640E+01
   -2.269356   15.83949  0.0000E+00  0.1069E-04  0.2367E-07  0.1496E-02  0.3238E-03  0.1871E+01
   -2.338123   15.84013  0.0000E+00  0.1047E-04  0.2553E-07  0.1339E-02  0.2929E-03  0.2693E+01
   -2.406890   15.84084  0.0000E+00  0.1019E-04  0.2831E-07  0.1173E-02  0.2621E-03  0.4349E+01
   -2.475656   15.84167  0.0000E+00  0.9829E-05  0.3285E-07  0.9187E-03  0.2310E-03  0.8373E+01
   -2.544421   15.84275  0.0000E+00  0.9329E-05  0.4129E-07  0.8515E-03  0.1975E-03  0.1611E+02
   -2.613186   15.84390  0.0000E+00  0.8300E-05  0.6945E-07  0.3500E-03  0.1685E-03 -0.6168E+02
   -2.681950   15.84935  0.0000E+00  0.4991E-05  0.2300E-06  0.9614E-04  0.1097E-03 -0.8176E+03
   -2.750714   15.85994  0.0000E+00  0.0000E+00  0.0000E+00  0.0000E+00  0.1252E-03  0.0000E+00
