 1 - depth, m
 2 - temperature, C
 3 - salinity, kg/kg
 4 - turbulent kinetic energy, m**2/s**2
 5 - dissipation rate, m**2/s**3
 6 - kinematic heat conductance, m**2/s
 7 - modulus of horizontal velocity, m/s
 8 - Richardson number, n/d
   -0.000000   17.82554  0.0000E+00  0.3257E-04  0.4943E-05  0.4037E-04  0.4012E-01 -0.1348E-01
   -0.068783   17.84624  0.0000E+00  0.2129E-04  0.1108E-05  0.7302E-04  0.1979E-01 -0.3040E-01
   -0.137568   17.85299  0.0000E+00  0.1689E-04  0.4317E-06  0.1030E-03  0.1422E-01 -0.5208E-01
   -0.206352   17.85716  0.0000E+00  0.1422E-04  0.2135E-06  0.1354E-03  0.1087E-01 -0.7943E-01
   -0.275138   17.85998  0.0000E+00  0.1257E-04  0.1263E-06  0.1709E-03  0.8648E-02 -0.1082E+00
   -0.343923   17.86202  0.0000E+00  0.1143E-04  0.8410E-07  0.2147E-03  0.7027E-02 -0.1271E+00
   -0.412710   17.86355  0.0000E+00  0.1059E-04  0.6056E-07  0.3042E-03  0.5806E-02  0.9276E+03
   -0.481497   17.86469  0.0000E+00  0.9970E-05  0.4611E-07  0.3739E-03  0.4879E-02  0.5614E+01
   -0.550284   17.86558  0.0000E+00  0.9512E-05  0.3671E-07  0.4775E-03  0.4162E-02  0.5295E+02
   -0.619072   17.86625  0.0000E+00  0.9199E-05  0.3049E-07  0.6428E-03  0.3613E-02  0.5769E+02
   -0.687860   17.86672  0.0000E+00  0.9004E-05  0.2628E-07  0.8873E-03  0.3191E-02  0.2130E+03
   -0.756648   17.86706  0.0000E+00  0.8896E-05  0.2331E-07  0.1169E-02  0.2861E-02  0.2541E+01
   -0.825437   17.86732  0.0000E+00  0.8848E-05  0.2104E-07  0.1246E-02  0.2592E-02  0.2111E+01
   -0.894226   17.86758  0.0000E+00  0.8846E-05  0.1924E-07  0.1331E-02  0.2340E-02  0.2035E+01
   -0.963015   17.86783  0.0000E+00  0.8883E-05  0.1784E-07  0.1405E-02  0.2117E-02  0.1947E+01
   -1.031805   17.86807  0.0000E+00  0.8953E-05  0.1676E-07  0.1470E-02  0.1917E-02  0.1979E+01
   -1.100594   17.86833  0.0000E+00  0.9046E-05  0.1594E-07  0.1529E-02  0.1733E-02  0.2006E+01
   -1.169384   17.86859  0.0000E+00  0.9156E-05  0.1535E-07  0.1589E-02  0.1562E-02  0.2014E+01
   -1.238174   17.86886  0.0000E+00  0.9275E-05  0.1493E-07  0.1648E-02  0.1405E-02  0.2003E+01
   -1.306964   17.86913  0.0000E+00  0.9397E-05  0.1468E-07  0.1704E-02  0.1260E-02  0.1979E+01
   -1.375754   17.86942  0.0000E+00  0.9514E-05  0.1456E-07  0.1755E-02  0.1126E-02  0.1946E+01
   -1.444544   17.86972  0.0000E+00  0.9621E-05  0.1457E-07  0.1804E-02  0.1003E-02  0.1902E+01
   -1.513334   17.87002  0.0000E+00  0.9713E-05  0.1468E-07  0.1859E-02  0.8909E-03  0.1796E+01
   -1.582124   17.87034  0.0000E+00  0.9788E-05  0.1488E-07  0.1910E-02  0.7915E-03  0.1682E+01
   -1.650914   17.87066  0.0000E+00  0.9846E-05  0.1517E-07  0.1925E-02  0.7054E-03  0.1579E+01
   -1.719703   17.87099  0.0000E+00  0.9887E-05  0.1553E-07  0.1918E-02  0.6311E-03  0.1490E+01
   -1.788493   17.87134  0.0000E+00  0.9912E-05  0.1596E-07  0.1881E-02  0.5672E-03  0.1407E+01
   -1.857282   17.87171  0.0000E+00  0.9922E-05  0.1644E-07  0.1826E-02  0.5123E-03  0.1335E+01
   -1.926071   17.87211  0.0000E+00  0.9919E-05  0.1699E-07  0.1765E-02  0.4652E-03  0.1311E+01
   -1.994860   17.87255  0.0000E+00  0.9903E-05  0.1761E-07  0.1698E-02  0.4242E-03  0.1383E+01
   -2.063648   17.87302  0.0000E+00  0.9874E-05  0.1833E-07  0.1625E-02  0.3879E-03  0.1548E+01
   -2.132436   17.87354  0.0000E+00  0.9831E-05  0.1918E-07  0.1545E-02  0.3548E-03  0.1881E+01
   -2.201224   17.87410  0.0000E+00  0.9769E-05  0.2022E-07  0.1452E-02  0.3236E-03  0.2442E+01
   -2.270011   17.87473  0.0000E+00  0.9680E-05  0.2155E-07  0.1342E-02  0.2928E-03  0.3326E+01
   -2.338798   17.87544  0.0000E+00  0.9551E-05  0.2337E-07  0.1210E-02  0.2626E-03  0.4914E+01
   -2.407584   17.87625  0.0000E+00  0.9368E-05  0.2600E-07  0.1063E-02  0.2328E-03  0.8106E+01
   -2.476370   17.87720  0.0000E+00  0.9106E-05  0.3013E-07  0.8538E-03  0.2031E-03  0.1564E+02
   -2.545156   17.87842  0.0000E+00  0.8711E-05  0.3755E-07  0.7737E-03  0.1719E-03  0.3292E+02
   -2.613940   17.87981  0.0000E+00  0.7865E-05  0.6143E-07  0.3407E-03  0.1446E-03 -0.1094E+03
   -2.682724   17.88541  0.0000E+00  0.4804E-05  0.2030E-06  0.8512E-04  0.9468E-04 -0.2516E+04
   -2.751508   17.89940  0.0000E+00  0.0000E+00  0.0000E+00  0.0000E+00  0.1057E-03  0.0000E+00
