 1 - depth, m
 2 - temperature, C
 3 - salinity, kg/kg
 4 - turbulent kinetic energy, m**2/s**2
 5 - dissipation rate, m**2/s**3
 6 - kinematic heat conductance, m**2/s
 7 - modulus of horizontal velocity, m/s
 8 - Richardson number, n/d
   -0.000000    0.00000  0.0000E+00  0.9761E-12  0.2155E-15  0.1000E-09  0.0000E+00  0.1901E+17
   -0.068740    0.29701  0.0000E+00  0.2341E-11  0.2466E-15  0.1000E-09  0.0000E+00  0.1682E+17
   -0.137481    0.58278  0.0000E+00  0.5300E-11  0.4323E-15  0.1000E-09  0.0000E+00  0.1490E+17
   -0.206223    0.85898  0.0000E+00  0.1107E-10  0.8311E-15  0.1000E-09  0.0000E+00  0.1320E+17
   -0.274965    1.12706  0.0000E+00  0.2220E-10  0.1607E-14  0.1000E-09  0.0000E+00  0.1169E+17
   -0.343707    1.38878  0.0000E+00  0.4368E-10  0.3083E-14  0.1000E-09  0.0000E+00  0.1032E+17
   -0.412450    1.64528  0.0000E+00  0.8499E-10  0.5870E-14  0.1000E-09  0.0000E+00  0.9066E+16
   -0.481194    1.89742  0.0000E+00  0.1642E-09  0.1110E-13  0.1000E-09  0.0000E+00  0.7887E+16
   -0.549938    2.14572  0.0000E+00  0.3155E-09  0.2091E-13  0.1000E-09  0.0000E+00  0.6766E+16
   -0.618683    2.39026  0.0000E+00  0.6031E-09  0.3917E-13  0.1000E-09  0.0000E+00  0.5703E+16
   -0.687427    2.63123  0.0000E+00  0.1147E-08  0.7300E-13  0.1000E-09  0.0000E+00  0.4739E+16
   -0.756173    2.87142  0.0000E+00  0.2168E-08  0.1353E-12  0.1808E-09  0.0000E+00  0.3811E+16
   -0.824918    3.11222  0.0000E+00  0.4077E-08  0.2496E-12  0.4418E-09  0.0000E+00  0.2877E+16
   -0.893664    3.35292  0.0000E+00  0.7623E-08  0.4577E-12  0.1201E-08  0.0000E+00  0.1941E+16
   -0.962410    3.59213  0.0000E+00  0.1415E-07  0.8339E-12  0.4167E-08  0.0000E+00  0.1020E+16
   -1.031156    3.82560  0.0000E+00  0.2565E-07  0.1487E-11  0.3855E-07  0.0000E+00  0.1971E+15
   -1.099903    4.01322  0.0000E+00  0.2611E-07  0.1515E-11  0.1585E-03  0.0000E+00 -0.7606E+11
   -1.168649    4.01340  0.0000E+00  0.2633E-07  0.1531E-11  0.1590E-03  0.0000E+00 -0.8791E+11
   -1.237396    4.01360  0.0000E+00  0.2652E-07  0.1548E-11  0.1650E-03  0.0000E+00 -0.8832E+11
   -1.306143    4.01381  0.0000E+00  0.2670E-07  0.1566E-11  0.1672E-03  0.0000E+00 -0.8942E+11
   -1.374889    4.01402  0.0000E+00  0.2685E-07  0.1586E-11  0.1668E-03  0.0000E+00 -0.9084E+11
   -1.443636    4.01422  0.0000E+00  0.2699E-07  0.1608E-11  0.1663E-03  0.0000E+00 -0.9217E+11
   -1.512383    4.01443  0.0000E+00  0.2710E-07  0.1631E-11  0.1654E-03  0.0000E+00 -0.9373E+11
   -1.581129    4.01465  0.0000E+00  0.2721E-07  0.1658E-11  0.1642E-03  0.0000E+00 -0.9558E+11
   -1.649876    4.01486  0.0000E+00  0.2729E-07  0.1687E-11  0.1625E-03  0.0000E+00 -0.9772E+11
   -1.718622    4.01508  0.0000E+00  0.2736E-07  0.1720E-11  0.1605E-03  0.0000E+00 -0.1002E+12
   -1.787369    4.01530  0.0000E+00  0.2741E-07  0.1757E-11  0.1580E-03  0.0000E+00 -0.1031E+12
   -1.856115    4.01553  0.0000E+00  0.2745E-07  0.1798E-11  0.1551E-03  0.0000E+00 -0.1065E+12
   -1.924860    4.01576  0.0000E+00  0.2746E-07  0.1845E-11  0.1517E-03  0.0000E+00 -0.1104E+12
   -1.993606    4.01600  0.0000E+00  0.2745E-07  0.1899E-11  0.1477E-03  0.0000E+00 -0.1150E+12
   -2.062351    4.01624  0.0000E+00  0.2741E-07  0.1960E-11  0.1431E-03  0.0000E+00 -0.1201E+12
   -2.131096    4.01650  0.0000E+00  0.2735E-07  0.2032E-11  0.1379E-03  0.0000E+00 -0.1262E+12
   -2.199841    4.01676  0.0000E+00  0.2726E-07  0.2116E-11  0.1321E-03  0.0000E+00 -0.1334E+12
   -2.268585    4.01704  0.0000E+00  0.2713E-07  0.2229E-11  0.1252E-03  0.0000E+00 -0.1427E+12
   -2.337328    4.01734  0.0000E+00  0.2690E-07  0.2401E-11  0.1004E-03  0.0000E+00 -0.1809E+12
   -2.406071    4.01771  0.0000E+00  0.2656E-07  0.2660E-11  0.7755E-04  0.0000E+00 -0.2389E+12
   -2.474814    4.01819  0.0000E+00  0.2606E-07  0.3071E-11  0.5917E-04  0.0000E+00 -0.3215E+12
   -2.543556    4.01883  0.0000E+00  0.2524E-07  0.3820E-11  0.4049E-04  0.0000E+00 -0.4885E+12
   -2.612298    4.01977  0.0000E+00  0.2363E-07  0.5678E-11  0.2047E-04  0.0000E+00 -0.1035E+13
   -2.681038    4.02169  0.0000E+00  0.1538E-07  0.2040E-10  0.1778E-05  0.0000E+00 -0.1646E+14
   -2.749779    4.04423  0.0000E+00  0.0000E+00  0.0000E+00  0.0000E+00  0.0000E+00  0.0000E+00
