 1 - depth, m
 2 - temperature, C
 3 - salinity, kg/kg
 4 - turbulent kinetic energy, m**2/s**2
 5 - dissipation rate, m**2/s**3
 6 - kinematic heat conductance, m**2/s
 7 - modulus of horizontal velocity, m/s
 8 - Richardson number, n/d
   -0.000000   14.62518  0.0000E+00  0.1023E-03  0.3110E-04  0.1019E-03  0.9282E-01 -0.7764E-01
   -0.068760   14.64236  0.0000E+00  0.5304E-04  0.6744E-05  0.9798E-04  0.3570E-01 -0.1276E+00
   -0.137520   14.64584  0.0000E+00  0.3737E-04  0.2357E-05  0.1054E-03  0.2655E-01 -0.9466E-02
   -0.206282   14.64830  0.0000E+00  0.2831E-04  0.1001E-05  0.1227E-03  0.2113E-01 -0.1467E-01
   -0.275043   14.65022  0.0000E+00  0.2306E-04  0.5010E-06  0.1418E-03  0.1726E-01 -0.1906E-01
   -0.343806   14.65182  0.0000E+00  0.1969E-04  0.2885E-06  0.1627E-03  0.1421E-01 -0.2481E-01
   -0.412568   14.65315  0.0000E+00  0.1730E-04  0.1853E-06  0.1846E-03  0.1178E-01 -0.3253E-01
   -0.481332   14.65429  0.0000E+00  0.1542E-04  0.1284E-06  0.2069E-03  0.9833E-02 -0.4302E-01
   -0.550095   14.65528  0.0000E+00  0.1385E-04  0.9329E-07  0.2312E-03  0.8244E-02 -0.5881E-01
   -0.618860   14.65616  0.0000E+00  0.1254E-04  0.7026E-07  0.2569E-03  0.6966E-02 -0.8014E-01
   -0.687624   14.65694  0.0000E+00  0.1145E-04  0.5441E-07  0.2857E-03  0.5926E-02 -0.1083E+00
   -0.756389   14.65765  0.0000E+00  0.1055E-04  0.4312E-07  0.3228E-03  0.5074E-02 -0.9573E-01
   -0.825154   14.65830  0.0000E+00  0.9813E-05  0.3494E-07  0.3968E-03  0.4375E-02  0.6119E+02
   -0.893920   14.65887  0.0000E+00  0.9232E-05  0.2900E-07  0.5249E-03  0.3806E-02  0.3780E+02
   -0.962685   14.65934  0.0000E+00  0.8786E-05  0.2468E-07  0.6886E-03  0.3349E-02  0.6331E+02
   -1.031451   14.65973  0.0000E+00  0.8453E-05  0.2152E-07  0.8768E-03  0.2980E-02  0.5480E+02
   -1.100217   14.66004  0.0000E+00  0.8205E-05  0.1917E-07  0.1086E-02  0.2672E-02  0.8467E+02
   -1.168983   14.66030  0.0000E+00  0.8020E-05  0.1736E-07  0.1209E-02  0.2410E-02  0.1146E+02
   -1.237750   14.66054  0.0000E+00  0.7875E-05  0.1590E-07  0.1249E-02  0.2172E-02  0.2306E+01
   -1.306516   14.66079  0.0000E+00  0.7758E-05  0.1470E-07  0.1284E-02  0.1948E-02  0.2408E+01
   -1.375283   14.66105  0.0000E+00  0.7663E-05  0.1372E-07  0.1311E-02  0.1739E-02  0.2480E+01
   -1.444049   14.66132  0.0000E+00  0.7584E-05  0.1293E-07  0.1336E-02  0.1543E-02  0.2530E+01
   -1.512815   14.66160  0.0000E+00  0.7513E-05  0.1230E-07  0.1375E-02  0.1359E-02  0.2380E+01
   -1.581582   14.66189  0.0000E+00  0.7448E-05  0.1182E-07  0.1418E-02  0.1192E-02  0.2174E+01
   -1.650348   14.66218  0.0000E+00  0.7387E-05  0.1147E-07  0.1455E-02  0.1044E-02  0.1993E+01
   -1.719114   14.66248  0.0000E+00  0.7327E-05  0.1124E-07  0.1475E-02  0.9135E-03  0.1833E+01
   -1.787880   14.66279  0.0000E+00  0.7269E-05  0.1113E-07  0.1474E-02  0.7997E-03  0.1690E+01
   -1.856645   14.66311  0.0000E+00  0.7209E-05  0.1111E-07  0.1452E-02  0.7010E-03  0.1562E+01
   -1.925411   14.66345  0.0000E+00  0.7149E-05  0.1120E-07  0.1414E-02  0.6159E-03  0.1445E+01
   -1.994176   14.66381  0.0000E+00  0.7088E-05  0.1137E-07  0.1366E-02  0.5429E-03  0.1341E+01
   -2.062941   14.66420  0.0000E+00  0.7025E-05  0.1162E-07  0.1311E-02  0.4805E-03  0.1251E+01
   -2.131705   14.66463  0.0000E+00  0.6960E-05  0.1195E-07  0.1253E-02  0.4272E-03  0.1229E+01
   -2.200470   14.66509  0.0000E+00  0.6890E-05  0.1237E-07  0.1192E-02  0.3809E-03  0.1402E+01
   -2.269233   14.66560  0.0000E+00  0.6810E-05  0.1295E-07  0.1120E-02  0.3386E-03  0.1827E+01
   -2.337997   14.66617  0.0000E+00  0.6710E-05  0.1376E-07  0.1029E-02  0.2989E-03  0.2668E+01
   -2.406759   14.66680  0.0000E+00  0.6580E-05  0.1497E-07  0.9192E-03  0.2607E-03  0.4339E+01
   -2.475522   14.66753  0.0000E+00  0.6407E-05  0.1688E-07  0.7754E-03  0.2236E-03  0.8066E+01
   -2.544283   14.66842  0.0000E+00  0.6158E-05  0.2030E-07  0.6710E-03  0.1865E-03  0.1779E+02
   -2.613045   14.66948  0.0000E+00  0.5669E-05  0.3048E-07  0.3565E-03  0.1530E-03 -0.2187E+02
   -2.681805   14.67265  0.0000E+00  0.3476E-05  0.1037E-06  0.5655E-04  0.1031E-03 -0.2252E+04
   -2.750565   14.68695  0.0000E+00  0.0000E+00  0.0000E+00  0.0000E+00  0.1113E-03  0.0000E+00
