 1 - depth, m
 2 - temperature, C
 3 - salinity, kg/kg
 4 - turbulent kinetic energy, m**2/s**2
 5 - dissipation rate, m**2/s**3
 6 - kinematic heat conductance, m**2/s
 7 - modulus of horizontal velocity, m/s
 8 - Richardson number, n/d
   -0.000000    0.00000  0.0000E+00  0.1219E-13  0.7603E-17  0.1000E-09  0.0000E+00  0.1409E+17
   -0.068745    0.21767  0.0000E+00  0.1219E-13  0.7603E-17  0.1000E-09  0.0000E+00  0.1254E+17
   -0.137491    0.42336  0.0000E+00  0.1219E-13  0.7603E-17  0.1000E-09  0.0000E+00  0.1104E+17
   -0.206237    0.61551  0.0000E+00  0.1219E-13  0.7603E-17  0.1000E-09  0.0000E+00  0.9626E+16
   -0.274984    0.79300  0.0000E+00  0.1219E-13  0.7603E-17  0.1000E-09  0.0000E+00  0.8459E+16
   -0.343732    0.95805  0.0000E+00  0.1219E-13  0.7603E-17  0.1000E-09  0.0000E+00  0.7419E+16
   -0.412480    1.11100  0.0000E+00  0.1219E-13  0.7603E-17  0.1000E-09  0.0000E+00  0.6488E+16
   -0.481229    1.25211  0.0000E+00  0.1219E-13  0.7603E-17  0.1000E-09  0.0000E+00  0.5648E+16
   -0.549978    1.38146  0.0000E+00  0.1219E-13  0.7603E-17  0.1000E-09  0.0000E+00  0.4849E+16
   -0.618727    1.49812  0.0000E+00  0.1219E-13  0.7603E-17  0.1000E-09  0.0000E+00  0.4166E+16
   -0.687477    1.60309  0.0000E+00  0.1219E-13  0.7603E-17  0.1000E-09  0.0000E+00  0.3784E+16
   -0.756227    1.70282  0.0000E+00  0.4083E-13  0.7910E-17  0.1000E-09  0.0000E+00  0.3600E+16
   -0.824978    1.80207  0.0000E+00  0.1209E-12  0.1745E-16  0.1000E-09  0.0000E+00  0.3477E+16
   -0.893728    1.90258  0.0000E+00  0.3151E-12  0.4232E-16  0.1000E-09  0.0000E+00  0.3401E+16
   -0.962479    2.00600  0.0000E+00  0.7861E-12  0.1019E-15  0.1000E-09  0.0000E+00  0.3355E+16
   -1.031230    2.11379  0.0000E+00  0.1922E-11  0.2421E-15  0.1000E-09  0.0000E+00  0.3347E+16
   -1.099982    2.22813  0.0000E+00  0.4634E-11  0.5677E-15  0.1000E-09  0.0000E+00  0.3329E+16
   -1.168733    2.35000  0.0000E+00  0.1105E-10  0.1317E-14  0.1000E-09  0.0000E+00  0.3281E+16
   -1.237485    2.47999  0.0000E+00  0.2608E-10  0.3026E-14  0.1000E-09  0.0000E+00  0.3187E+16
   -1.306237    2.61837  0.0000E+00  0.6092E-10  0.6884E-14  0.1000E-09  0.0000E+00  0.3037E+16
   -1.374988    2.76505  0.0000E+00  0.1409E-09  0.1551E-13  0.1000E-09  0.0000E+00  0.2878E+16
   -1.443740    2.92297  0.0000E+00  0.3230E-09  0.3464E-13  0.1000E-09  0.0000E+00  0.2646E+16
   -1.512492    3.09291  0.0000E+00  0.7347E-09  0.7678E-13  0.1685E-09  0.0000E+00  0.2320E+16
   -1.581243    3.27514  0.0000E+00  0.1665E-08  0.1696E-12  0.4566E-09  0.0000E+00  0.1891E+16
   -1.649995    3.46992  0.0000E+00  0.3744E-08  0.3720E-12  0.1402E-08  0.0000E+00  0.1351E+16
   -1.718746    3.67758  0.0000E+00  0.8350E-08  0.8097E-12  0.6038E-08  0.0000E+00  0.6846E+15
   -1.787497    3.89677  0.0000E+00  0.1693E-07  0.1618E-11  0.3711E-06  0.0000E+00  0.5713E+14
   -1.856248    4.01823  0.0000E+00  0.1804E-07  0.1730E-11  0.7452E-04  0.0000E+00 -0.2304E+12
   -1.924999    4.01870  0.0000E+00  0.1852E-07  0.1789E-11  0.7489E-04  0.0000E+00 -0.2608E+12
   -1.993749    4.01921  0.0000E+00  0.1890E-07  0.1850E-11  0.7631E-04  0.0000E+00 -0.2694E+12
   -2.062500    4.01973  0.0000E+00  0.1921E-07  0.1917E-11  0.7603E-04  0.0000E+00 -0.2753E+12
   -2.131249    4.02026  0.0000E+00  0.1945E-07  0.1994E-11  0.7447E-04  0.0000E+00 -0.2848E+12
   -2.199999    4.02079  0.0000E+00  0.1964E-07  0.2088E-11  0.7136E-04  0.0000E+00 -0.3015E+12
   -2.268748    4.02135  0.0000E+00  0.1974E-07  0.2208E-11  0.6531E-04  0.0000E+00 -0.3355E+12
   -2.337496    4.02195  0.0000E+00  0.1976E-07  0.2371E-11  0.5763E-04  0.0000E+00 -0.3889E+12
   -2.406245    4.02265  0.0000E+00  0.1966E-07  0.2600E-11  0.4942E-04  0.0000E+00 -0.4672E+12
   -2.474992    4.02346  0.0000E+00  0.1940E-07  0.2954E-11  0.3999E-04  0.0000E+00 -0.6009E+12
   -2.543739    4.02448  0.0000E+00  0.1887E-07  0.3590E-11  0.2871E-04  0.0000E+00 -0.8924E+12
   -2.612486    4.02594  0.0000E+00  0.1767E-07  0.5155E-11  0.1531E-04  0.0000E+00 -0.1887E+13
   -2.681231    4.02888  0.0000E+00  0.1221E-07  0.1583E-10  0.1777E-05  0.0000E+00 -0.2601E+14
   -2.749977    4.05797  0.0000E+00  0.0000E+00  0.0000E+00  0.0000E+00  0.0000E+00  0.0000E+00
