 1 - depth, m
 2 - temperature, C
 3 - salinity, kg/kg
 4 - turbulent kinetic energy, m**2/s**2
 5 - dissipation rate, m**2/s**3
 6 - kinematic heat conductance, m**2/s
 7 - modulus of horizontal velocity, m/s
 8 - Richardson number, n/d
   -0.000000    0.00000  0.0000E+00  0.4341E-12  0.8248E-16  0.1000E-09  0.0000E+00  0.1615E+17
   -0.068733    0.25073  0.0000E+00  0.9579E-12  0.1009E-15  0.1000E-09  0.0000E+00  0.1468E+17
   -0.137467    0.49517  0.0000E+00  0.2135E-11  0.1828E-15  0.1000E-09  0.0000E+00  0.1332E+17
   -0.206201    0.73395  0.0000E+00  0.4501E-11  0.3596E-15  0.1000E-09  0.0000E+00  0.1209E+17
   -0.274936    0.96781  0.0000E+00  0.9197E-11  0.7105E-15  0.1000E-09  0.0000E+00  0.1101E+17
   -0.343671    1.19881  0.0000E+00  0.1847E-10  0.1393E-14  0.1000E-09  0.0000E+00  0.1002E+17
   -0.412407    1.42796  0.0000E+00  0.3674E-10  0.2709E-14  0.1000E-09  0.0000E+00  0.9084E+16
   -0.481143    1.65604  0.0000E+00  0.7251E-10  0.5234E-14  0.1000E-09  0.0000E+00  0.8185E+16
   -0.549880    1.88350  0.0000E+00  0.1424E-09  0.1007E-13  0.1000E-09  0.0000E+00  0.7294E+16
   -0.618617    2.11019  0.0000E+00  0.2781E-09  0.1926E-13  0.1000E-09  0.0000E+00  0.6430E+16
   -0.687355    2.33652  0.0000E+00  0.5401E-09  0.3664E-13  0.1000E-09  0.0000E+00  0.5665E+16
   -0.756093    2.56640  0.0000E+00  0.1043E-08  0.6932E-13  0.1000E-09  0.0000E+00  0.4912E+16
   -0.824831    2.80227  0.0000E+00  0.2002E-08  0.1304E-12  0.1621E-09  0.0000E+00  0.4095E+16
   -0.893569    3.04401  0.0000E+00  0.3821E-08  0.2441E-12  0.3871E-09  0.0000E+00  0.3211E+16
   -0.962308    3.29108  0.0000E+00  0.7252E-08  0.4542E-12  0.1023E-08  0.0000E+00  0.2261E+16
   -1.031047    3.54217  0.0000E+00  0.1365E-07  0.8388E-12  0.3392E-08  0.0000E+00  0.1259E+16
   -1.099786    3.79313  0.0000E+00  0.2521E-07  0.1522E-11  0.2696E-07  0.0000E+00  0.2880E+15
   -1.168525    4.01147  0.0000E+00  0.2571E-07  0.1554E-11  0.1477E-03  0.0000E+00 -0.8145E+11
   -1.237265    4.01168  0.0000E+00  0.2594E-07  0.1572E-11  0.1487E-03  0.0000E+00 -0.9681E+11
   -1.306004    4.01192  0.0000E+00  0.2615E-07  0.1591E-11  0.1554E-03  0.0000E+00 -0.9679E+11
   -1.374744    4.01216  0.0000E+00  0.2633E-07  0.1612E-11  0.1588E-03  0.0000E+00 -0.9679E+11
   -1.443483    4.01240  0.0000E+00  0.2649E-07  0.1634E-11  0.1588E-03  0.0000E+00 -0.9815E+11
   -1.512222    4.01264  0.0000E+00  0.2664E-07  0.1658E-11  0.1582E-03  0.0000E+00 -0.9986E+11
   -1.580962    4.01288  0.0000E+00  0.2676E-07  0.1685E-11  0.1572E-03  0.0000E+00 -0.1019E+12
   -1.649701    4.01312  0.0000E+00  0.2687E-07  0.1715E-11  0.1559E-03  0.0000E+00 -0.1042E+12
   -1.718440    4.01337  0.0000E+00  0.2696E-07  0.1748E-11  0.1542E-03  0.0000E+00 -0.1070E+12
   -1.787179    4.01362  0.0000E+00  0.2703E-07  0.1786E-11  0.1520E-03  0.0000E+00 -0.1102E+12
   -1.855918    4.01388  0.0000E+00  0.2709E-07  0.1828E-11  0.1493E-03  0.0000E+00 -0.1139E+12
   -1.924656    4.01414  0.0000E+00  0.2712E-07  0.1876E-11  0.1462E-03  0.0000E+00 -0.1183E+12
   -1.993395    4.01441  0.0000E+00  0.2713E-07  0.1931E-11  0.1425E-03  0.0000E+00 -0.1234E+12
   -2.062133    4.01469  0.0000E+00  0.2711E-07  0.1994E-11  0.1382E-03  0.0000E+00 -0.1290E+12
   -2.130870    4.01498  0.0000E+00  0.2706E-07  0.2067E-11  0.1333E-03  0.0000E+00 -0.1356E+12
   -2.199607    4.01528  0.0000E+00  0.2699E-07  0.2153E-11  0.1278E-03  0.0000E+00 -0.1435E+12
   -2.268344    4.01559  0.0000E+00  0.2686E-07  0.2267E-11  0.1212E-03  0.0000E+00 -0.1536E+12
   -2.337080    4.01593  0.0000E+00  0.2665E-07  0.2440E-11  0.9848E-04  0.0000E+00 -0.1924E+12
   -2.405816    4.01634  0.0000E+00  0.2633E-07  0.2703E-11  0.7636E-04  0.0000E+00 -0.2537E+12
   -2.474552    4.01687  0.0000E+00  0.2583E-07  0.3117E-11  0.5837E-04  0.0000E+00 -0.3416E+12
   -2.543286    4.01758  0.0000E+00  0.2503E-07  0.3871E-11  0.4005E-04  0.0000E+00 -0.5191E+12
   -2.612021    4.01862  0.0000E+00  0.2344E-07  0.5740E-11  0.2030E-04  0.0000E+00 -0.1102E+13
   -2.680754    4.02073  0.0000E+00  0.1532E-07  0.2043E-10  0.1794E-05  0.0000E+00 -0.1769E+14
   -2.749487    4.04500  0.0000E+00  0.0000E+00  0.0000E+00  0.0000E+00  0.0000E+00  0.0000E+00
