 1 - depth, m
 2 - temperature, C
 3 - salinity, kg/kg
 4 - turbulent kinetic energy, m**2/s**2
 5 - dissipation rate, m**2/s**3
 6 - kinematic heat conductance, m**2/s
 7 - modulus of horizontal velocity, m/s
 8 - Richardson number, n/d
   -0.000000    0.00000  0.0000E+00  0.1219E-13  0.7603E-17  0.1000E-09  0.0000E+00  0.1080E+17
   -0.068731    0.16567  0.0000E+00  0.1219E-13  0.7603E-17  0.1000E-09  0.0000E+00  0.1024E+17
   -0.137464    0.33022  0.0000E+00  0.1219E-13  0.7603E-17  0.1000E-09  0.0000E+00  0.9681E+16
   -0.206196    0.49333  0.0000E+00  0.1219E-13  0.7603E-17  0.1000E-09  0.0000E+00  0.9116E+16
   -0.274930    0.65464  0.0000E+00  0.1219E-13  0.7603E-17  0.1000E-09  0.0000E+00  0.8570E+16
   -0.343664    0.81421  0.0000E+00  0.1219E-13  0.7603E-17  0.1000E-09  0.0000E+00  0.8030E+16
   -0.412398    0.97180  0.0000E+00  0.1219E-13  0.7603E-17  0.1000E-09  0.0000E+00  0.7497E+16
   -0.481133    1.12718  0.0000E+00  0.1219E-13  0.7603E-17  0.1000E-09  0.0000E+00  0.6970E+16
   -0.549868    1.28004  0.0000E+00  0.1219E-13  0.7603E-17  0.1000E-09  0.0000E+00  0.6446E+16
   -0.618604    1.42992  0.0000E+00  0.1219E-13  0.7603E-17  0.1000E-09  0.0000E+00  0.5938E+16
   -0.687340    1.57659  0.0000E+00  0.1219E-13  0.7603E-17  0.1000E-09  0.0000E+00  0.5479E+16
   -0.756077    1.72069  0.0000E+00  0.1219E-13  0.7603E-17  0.1000E-09  0.0000E+00  0.5052E+16
   -0.824814    1.86254  0.0000E+00  0.1219E-13  0.7603E-17  0.1000E-09  0.0000E+00  0.4637E+16
   -0.893551    2.00198  0.0000E+00  0.1219E-13  0.7603E-17  0.1000E-09  0.0000E+00  0.4235E+16
   -0.962288    2.13883  0.0000E+00  0.1219E-13  0.7603E-17  0.1000E-09  0.0000E+00  0.3847E+16
   -1.031025    2.27290  0.0000E+00  0.1219E-13  0.7603E-17  0.1000E-09  0.0000E+00  0.3478E+16
   -1.099763    2.40415  0.0000E+00  0.1219E-13  0.7603E-17  0.1000E-09  0.0000E+00  0.3125E+16
   -1.168501    2.53242  0.0000E+00  0.1219E-13  0.7603E-17  0.1000E-09  0.0000E+00  0.2787E+16
   -1.237239    2.65750  0.0000E+00  0.3610E-13  0.7605E-17  0.1000E-09  0.0000E+00  0.2467E+16
   -1.305977    2.77920  0.0000E+00  0.1093E-12  0.1355E-16  0.1000E-09  0.0000E+00  0.2163E+16
   -1.374715    2.89731  0.0000E+00  0.2708E-12  0.2966E-16  0.1000E-09  0.0000E+00  0.1891E+16
   -1.443453    3.01242  0.0000E+00  0.6262E-12  0.6558E-16  0.1000E-09  0.0000E+00  0.1637E+16
   -1.512191    3.12461  0.0000E+00  0.1412E-11  0.1436E-15  0.1000E-09  0.0000E+00  0.1395E+16
   -1.580929    3.23355  0.0000E+00  0.3158E-11  0.3129E-15  0.1000E-09  0.0000E+00  0.1168E+16
   -1.649667    3.33891  0.0000E+00  0.7003E-11  0.6765E-15  0.1000E-09  0.0000E+00  0.9572E+15
   -1.718404    3.44035  0.0000E+00  0.1540E-10  0.1451E-14  0.1000E-09  0.0000E+00  0.7628E+15
   -1.787142    3.53748  0.0000E+00  0.3361E-10  0.3091E-14  0.1000E-09  0.0000E+00  0.5865E+15
   -1.855879    3.62987  0.0000E+00  0.7280E-10  0.6536E-14  0.1000E-09  0.0000E+00  0.4296E+15
   -1.924616    3.71709  0.0000E+00  0.1566E-09  0.1373E-13  0.2383E-09  0.0000E+00  0.2929E+15
   -1.993353    3.79865  0.0000E+00  0.3344E-09  0.2863E-13  0.8207E-09  0.0000E+00  0.1774E+15
   -2.062089    3.87395  0.0000E+00  0.7082E-09  0.5928E-13  0.3506E-08  0.0000E+00  0.8587E+14
   -2.130826    3.94537  0.0000E+00  0.1456E-08  0.1195E-12  0.4982E-07  0.0000E+00  0.1205E+14
   -2.199561    3.99818  0.0000E+00  0.1989E-08  0.1646E-12  0.9664E-05  0.0000E+00 -0.1947E+12
   -2.268297    3.99918  0.0000E+00  0.2225E-08  0.1914E-12  0.1000E-04  0.0000E+00 -0.2136E+12
   -2.337032    4.00020  0.0000E+00  0.2410E-08  0.2225E-12  0.9754E-05  0.0000E+00 -0.2427E+12
   -2.405766    4.00128  0.0000E+00  0.2548E-08  0.2628E-12  0.8890E-05  0.0000E+00 -0.2974E+12
   -2.474500    4.00249  0.0000E+00  0.2635E-08  0.3223E-12  0.7391E-05  0.0000E+00 -0.4086E+12
   -2.543233    4.00403  0.0000E+00  0.2652E-08  0.4304E-12  0.5257E-05  0.0000E+00 -0.6943E+12
   -2.611966    4.00638  0.0000E+00  0.2532E-08  0.7051E-12  0.2635E-05  0.0000E+00 -0.1913E+13
   -2.680698    4.01174  0.0000E+00  0.2062E-08  0.2016E-11  0.5418E-06  0.0000E+00 -0.2146E+14
   -2.749430    4.04452  0.0000E+00  0.0000E+00  0.0000E+00  0.0000E+00  0.0000E+00  0.0000E+00
