 1 - depth, m
 2 - temperature, C
 3 - salinity, kg/kg
 4 - turbulent kinetic energy, m**2/s**2
 5 - dissipation rate, m**2/s**3
 6 - kinematic heat conductance, m**2/s
 7 - modulus of horizontal velocity, m/s
 8 - Richardson number, n/d
   -0.000000    0.00000  0.0000E+00  0.5526E-12  0.1005E-15  0.1000E-09  0.0000E+00  0.1450E+17
   -0.068738    0.22425  0.0000E+00  0.1183E-11  0.9766E-16  0.1000E-09  0.0000E+00  0.1414E+17
   -0.137477    0.45763  0.0000E+00  0.2424E-11  0.1400E-15  0.1000E-09  0.0000E+00  0.1358E+17
   -0.206217    0.69816  0.0000E+00  0.4530E-11  0.2284E-15  0.1000E-09  0.0000E+00  0.1280E+17
   -0.274957    0.94330  0.0000E+00  0.8027E-11  0.3828E-15  0.1000E-09  0.0000E+00  0.1190E+17
   -0.343698    1.19151  0.0000E+00  0.1384E-10  0.6421E-15  0.1000E-09  0.0000E+00  0.1088E+17
   -0.412439    1.44056  0.0000E+00  0.2355E-10  0.1075E-14  0.1000E-09  0.0000E+00  0.9776E+16
   -0.481180    1.68837  0.0000E+00  0.3988E-10  0.1799E-14  0.1000E-09  0.0000E+00  0.8638E+16
   -0.549923    1.93311  0.0000E+00  0.6754E-10  0.3017E-14  0.1000E-09  0.0000E+00  0.7490E+16
   -0.618665    2.17287  0.0000E+00  0.1146E-09  0.5079E-14  0.1000E-09  0.0000E+00  0.6386E+16
   -0.687408    2.40671  0.0000E+00  0.1952E-09  0.8584E-14  0.1000E-09  0.0000E+00  0.5379E+16
   -0.756151    2.63564  0.0000E+00  0.3335E-09  0.1457E-13  0.1000E-09  0.0000E+00  0.4447E+16
   -0.824895    2.86043  0.0000E+00  0.5725E-09  0.2484E-13  0.1000E-09  0.0000E+00  0.3564E+16
   -0.893639    3.08082  0.0000E+00  0.9866E-09  0.4253E-13  0.1007E-09  0.0000E+00  0.2720E+16
   -0.962383    3.29568  0.0000E+00  0.1707E-08  0.7309E-13  0.1940E-09  0.0000E+00  0.1913E+16
   -1.031127    3.50168  0.0000E+00  0.2957E-08  0.1258E-12  0.5419E-09  0.0000E+00  0.1171E+16
   -1.099872    3.69287  0.0000E+00  0.5124E-08  0.2164E-12  0.1947E-08  0.0000E+00  0.5549E+15
   -1.168616    3.86103  0.0000E+00  0.8824E-08  0.3700E-12  0.1514E-07  0.0000E+00  0.1244E+15
   -1.237361    3.99783  0.0000E+00  0.9103E-08  0.3826E-12  0.8313E-04  0.0000E+00 -0.3901E+11
   -1.306106    3.99805  0.0000E+00  0.9239E-08  0.3897E-12  0.8223E-04  0.0000E+00 -0.4691E+11
   -1.374851    3.99830  0.0000E+00  0.9370E-08  0.3977E-12  0.8432E-04  0.0000E+00 -0.4795E+11
   -1.443595    3.99855  0.0000E+00  0.9499E-08  0.4069E-12  0.8489E-04  0.0000E+00 -0.4951E+11
   -1.512340    3.99881  0.0000E+00  0.9614E-08  0.4165E-12  0.8827E-04  0.0000E+00 -0.4930E+11
   -1.581085    3.99906  0.0000E+00  0.9714E-08  0.4264E-12  0.8894E-04  0.0000E+00 -0.5051E+11
   -1.649829    3.99931  0.0000E+00  0.9805E-08  0.4370E-12  0.8863E-04  0.0000E+00 -0.5227E+11
   -1.718574    3.99957  0.0000E+00  0.9888E-08  0.4486E-12  0.8800E-04  0.0000E+00 -0.5429E+11
   -1.787318    3.99983  0.0000E+00  0.9964E-08  0.4614E-12  0.8702E-04  0.0000E+00 -0.5665E+11
   -1.856062    4.00009  0.0000E+00  0.1003E-07  0.4757E-12  0.8570E-04  0.0000E+00 -0.5939E+11
   -1.924806    4.00037  0.0000E+00  0.1009E-07  0.4918E-12  0.8398E-04  0.0000E+00 -0.6261E+11
   -1.993550    4.00065  0.0000E+00  0.1014E-07  0.5105E-12  0.8181E-04  0.0000E+00 -0.6647E+11
   -2.062293    4.00094  0.0000E+00  0.1018E-07  0.5330E-12  0.7890E-04  0.0000E+00 -0.7112E+11
   -2.131036    4.00125  0.0000E+00  0.1020E-07  0.5613E-12  0.7416E-04  0.0000E+00 -0.7814E+11
   -2.199778    4.00159  0.0000E+00  0.1020E-07  0.5968E-12  0.6562E-04  0.0000E+00 -0.9112E+11
   -2.268521    4.00197  0.0000E+00  0.1019E-07  0.6415E-12  0.5753E-04  0.0000E+00 -0.1076E+12
   -2.337262    4.00240  0.0000E+00  0.1013E-07  0.7016E-12  0.4978E-04  0.0000E+00 -0.1295E+12
   -2.406003    4.00291  0.0000E+00  0.1003E-07  0.7867E-12  0.4154E-04  0.0000E+00 -0.1626E+12
   -2.474744    4.00353  0.0000E+00  0.9859E-08  0.9184E-12  0.3230E-04  0.0000E+00 -0.2214E+12
   -2.543484    4.00433  0.0000E+00  0.9548E-08  0.1159E-11  0.2189E-04  0.0000E+00 -0.3538E+12
   -2.612224    4.00555  0.0000E+00  0.8877E-08  0.1768E-11  0.1062E-04  0.0000E+00 -0.8377E+12
   -2.680963    4.00816  0.0000E+00  0.5937E-08  0.5899E-11  0.1082E-05  0.0000E+00 -0.1418E+14
   -2.749701    4.03415  0.0000E+00  0.0000E+00  0.0000E+00  0.0000E+00  0.0000E+00  0.0000E+00
