 1 - depth, m
 2 - temperature, C
 3 - salinity, kg/kg
 4 - turbulent kinetic energy, m**2/s**2
 5 - dissipation rate, m**2/s**3
 6 - kinematic heat conductance, m**2/s
 7 - modulus of horizontal velocity, m/s
 8 - Richardson number, n/d
   -0.000000    0.00000  0.0000E+00  0.1219E-13  0.7603E-17  0.1000E-09  0.0000E+00  0.1256E+17
   -0.068784    0.19343  0.0000E+00  0.1219E-13  0.7603E-17  0.1000E-09  0.0000E+00  0.1182E+17
   -0.137569    0.38558  0.0000E+00  0.1219E-13  0.7603E-17  0.1000E-09  0.0000E+00  0.1110E+17
   -0.206354    0.57644  0.0000E+00  0.1219E-13  0.7603E-17  0.1000E-09  0.0000E+00  0.1038E+17
   -0.275140    0.76583  0.0000E+00  0.1507E-13  0.7603E-17  0.1000E-09  0.0000E+00  0.9696E+16
   -0.343927    0.95400  0.0000E+00  0.6640E-13  0.7606E-17  0.1000E-09  0.0000E+00  0.9017E+16
   -0.412714    1.14074  0.0000E+00  0.1670E-12  0.1208E-16  0.1000E-09  0.0000E+00  0.8341E+16
   -0.481502    1.32572  0.0000E+00  0.3461E-12  0.2181E-16  0.1000E-09  0.0000E+00  0.7667E+16
   -0.550290    1.50848  0.0000E+00  0.6679E-12  0.3986E-16  0.1000E-09  0.0000E+00  0.6991E+16
   -0.619078    1.68831  0.0000E+00  0.1250E-11  0.7234E-16  0.1000E-09  0.0000E+00  0.6330E+16
   -0.687867    1.86479  0.0000E+00  0.2306E-11  0.1302E-15  0.1000E-09  0.0000E+00  0.5720E+16
   -0.756656    2.03849  0.0000E+00  0.4210E-11  0.2325E-15  0.1000E-09  0.0000E+00  0.5144E+16
   -0.825446    2.20964  0.0000E+00  0.7631E-11  0.4123E-15  0.1000E-09  0.0000E+00  0.4584E+16
   -0.894235    2.37790  0.0000E+00  0.1374E-10  0.7266E-15  0.1000E-09  0.0000E+00  0.4042E+16
   -0.963025    2.54291  0.0000E+00  0.2457E-10  0.1273E-14  0.1000E-09  0.0000E+00  0.3522E+16
   -1.031816    2.70436  0.0000E+00  0.4361E-10  0.2212E-14  0.1000E-09  0.0000E+00  0.3032E+16
   -1.100606    2.86222  0.0000E+00  0.7684E-10  0.3818E-14  0.1000E-09  0.0000E+00  0.2569E+16
   -1.169396    3.01626  0.0000E+00  0.1345E-09  0.6547E-14  0.1000E-09  0.0000E+00  0.2133E+16
   -1.238187    3.16626  0.0000E+00  0.2340E-09  0.1116E-13  0.1000E-09  0.0000E+00  0.1727E+16
   -1.306978    3.31207  0.0000E+00  0.4046E-09  0.1890E-13  0.1000E-09  0.0000E+00  0.1350E+16
   -1.375768    3.45355  0.0000E+00  0.6952E-09  0.3183E-13  0.1597E-09  0.0000E+00  0.1015E+16
   -1.444559    3.59232  0.0000E+00  0.1188E-08  0.5327E-13  0.3875E-09  0.0000E+00  0.7002E+15
   -1.513350    3.72884  0.0000E+00  0.2018E-08  0.8873E-13  0.1128E-08  0.0000E+00  0.4009E+15
   -1.582140    3.86278  0.0000E+00  0.3414E-08  0.1472E-12  0.6291E-08  0.0000E+00  0.1196E+15
   -1.650931    3.99017  0.0000E+00  0.3730E-08  0.1613E-12  0.2586E-04  0.0000E+00 -0.4202E+11
   -1.719721    3.99085  0.0000E+00  0.3890E-08  0.1700E-12  0.2813E-04  0.0000E+00 -0.4892E+11
   -1.788511    3.99151  0.0000E+00  0.4038E-08  0.1794E-12  0.2988E-04  0.0000E+00 -0.5230E+11
   -1.857301    3.99212  0.0000E+00  0.4174E-08  0.1898E-12  0.3099E-04  0.0000E+00 -0.5576E+11
   -1.926091    3.99271  0.0000E+00  0.4299E-08  0.2013E-12  0.3152E-04  0.0000E+00 -0.5976E+11
   -1.994881    3.99329  0.0000E+00  0.4411E-08  0.2142E-12  0.3148E-04  0.0000E+00 -0.6459E+11
   -2.063670    3.99386  0.0000E+00  0.4510E-08  0.2287E-12  0.3099E-04  0.0000E+00 -0.7070E+11
   -2.132459    3.99444  0.0000E+00  0.4595E-08  0.2455E-12  0.2998E-04  0.0000E+00 -0.7853E+11
   -2.201247    3.99503  0.0000E+00  0.4663E-08  0.2652E-12  0.2843E-04  0.0000E+00 -0.8882E+11
   -2.270035    3.99566  0.0000E+00  0.4711E-08  0.2894E-12  0.2636E-04  0.0000E+00 -0.1031E+12
   -2.338823    3.99634  0.0000E+00  0.4737E-08  0.3212E-12  0.2360E-04  0.0000E+00 -0.1246E+12
   -2.407610    3.99711  0.0000E+00  0.4732E-08  0.3660E-12  0.2011E-04  0.0000E+00 -0.1598E+12
   -2.476396    3.99802  0.0000E+00  0.4680E-08  0.4354E-12  0.1583E-04  0.0000E+00 -0.2255E+12
   -2.545182    3.99919  0.0000E+00  0.4541E-08  0.5636E-12  0.1075E-04  0.0000E+00 -0.3842E+12
   -2.613968    4.00097  0.0000E+00  0.4188E-08  0.8949E-12  0.5101E-05  0.0000E+00 -0.1041E+13
   -2.682753    4.00496  0.0000E+00  0.2935E-08  0.2763E-11  0.6826E-06  0.0000E+00 -0.1693E+14
   -2.751537    4.03640  0.0000E+00  0.0000E+00  0.0000E+00  0.0000E+00  0.0000E+00  0.0000E+00
