 1 - depth, m
 2 - temperature, C
 3 - salinity, kg/kg
 4 - turbulent kinetic energy, m**2/s**2
 5 - dissipation rate, m**2/s**3
 6 - kinematic heat conductance, m**2/s
 7 - modulus of horizontal velocity, m/s
 8 - Richardson number, n/d
   -0.000000    0.00000  0.0000E+00  0.1219E-13  0.7603E-17  0.1000E-09  0.0000E+00  0.1383E+17
   -0.068739    0.21359  0.0000E+00  0.1219E-13  0.7603E-17  0.1000E-09  0.0000E+00  0.1265E+17
   -0.137478    0.42087  0.0000E+00  0.5081E-13  0.7605E-17  0.1000E-09  0.0000E+00  0.1155E+17
   -0.206218    0.62192  0.0000E+00  0.1386E-12  0.1345E-16  0.1000E-09  0.0000E+00  0.1052E+17
   -0.274958    0.81685  0.0000E+00  0.3133E-12  0.2714E-16  0.1000E-09  0.0000E+00  0.9645E+16
   -0.343699    1.00739  0.0000E+00  0.6623E-12  0.5495E-16  0.1000E-09  0.0000E+00  0.8843E+16
   -0.412440    1.19408  0.0000E+00  0.1365E-11  0.1102E-15  0.1000E-09  0.0000E+00  0.8096E+16
   -0.481182    1.37727  0.0000E+00  0.2777E-11  0.2192E-15  0.1000E-09  0.0000E+00  0.7389E+16
   -0.549925    1.55706  0.0000E+00  0.5611E-11  0.4333E-15  0.1000E-09  0.0000E+00  0.6697E+16
   -0.618668    1.73291  0.0000E+00  0.1127E-10  0.8517E-15  0.1000E-09  0.0000E+00  0.6055E+16
   -0.687411    1.90514  0.0000E+00  0.2249E-10  0.1664E-14  0.1000E-09  0.0000E+00  0.5562E+16
   -0.756154    2.07752  0.0000E+00  0.4459E-10  0.3232E-14  0.1000E-09  0.0000E+00  0.5146E+16
   -0.824898    2.25271  0.0000E+00  0.8789E-10  0.6239E-14  0.1000E-09  0.0000E+00  0.4726E+16
   -0.893642    2.43143  0.0000E+00  0.1722E-09  0.1198E-13  0.1000E-09  0.0000E+00  0.4294E+16
   -0.962387    2.61440  0.0000E+00  0.3356E-09  0.2287E-13  0.1000E-09  0.0000E+00  0.3839E+16
   -1.031131    2.80228  0.0000E+00  0.6493E-09  0.4337E-13  0.1000E-09  0.0000E+00  0.3352E+16
   -1.099876    2.99569  0.0000E+00  0.1248E-08  0.8171E-13  0.1476E-09  0.0000E+00  0.2819E+16
   -1.168621    3.19481  0.0000E+00  0.2383E-08  0.1531E-12  0.3491E-09  0.0000E+00  0.2232E+16
   -1.237366    3.39929  0.0000E+00  0.4526E-08  0.2851E-12  0.9126E-09  0.0000E+00  0.1591E+16
   -1.306111    3.60810  0.0000E+00  0.8539E-08  0.5277E-12  0.2977E-08  0.0000E+00  0.9030E+15
   -1.374856    3.81815  0.0000E+00  0.1585E-07  0.9627E-12  0.2245E-07  0.0000E+00  0.2189E+15
   -1.443601    4.00605  0.0000E+00  0.1634E-07  0.9941E-12  0.9987E-04  0.0000E+00 -0.8177E+11
   -1.512346    4.00631  0.0000E+00  0.1658E-07  0.1013E-11  0.9813E-04  0.0000E+00 -0.9610E+11
   -1.581091    4.00662  0.0000E+00  0.1682E-07  0.1034E-11  0.9914E-04  0.0000E+00 -0.1001E+12
   -1.649836    4.00693  0.0000E+00  0.1702E-07  0.1057E-11  0.1026E-03  0.0000E+00 -0.1000E+12
   -1.718581    4.00724  0.0000E+00  0.1719E-07  0.1081E-11  0.1047E-03  0.0000E+00 -0.1011E+12
   -1.787325    4.00754  0.0000E+00  0.1733E-07  0.1107E-11  0.1050E-03  0.0000E+00 -0.1037E+12
   -1.856070    4.00785  0.0000E+00  0.1746E-07  0.1135E-11  0.1045E-03  0.0000E+00 -0.1072E+12
   -1.924814    4.00817  0.0000E+00  0.1756E-07  0.1167E-11  0.1034E-03  0.0000E+00 -0.1117E+12
   -1.993557    4.00849  0.0000E+00  0.1764E-07  0.1202E-11  0.1015E-03  0.0000E+00 -0.1174E+12
   -2.062301    4.00883  0.0000E+00  0.1770E-07  0.1242E-11  0.9896E-04  0.0000E+00 -0.1230E+12
   -2.131044    4.00917  0.0000E+00  0.1773E-07  0.1291E-11  0.9574E-04  0.0000E+00 -0.1297E+12
   -2.199787    4.00953  0.0000E+00  0.1773E-07  0.1356E-11  0.8976E-04  0.0000E+00 -0.1413E+12
   -2.268529    4.00992  0.0000E+00  0.1769E-07  0.1442E-11  0.7713E-04  0.0000E+00 -0.1683E+12
   -2.337271    4.01037  0.0000E+00  0.1758E-07  0.1560E-11  0.6529E-04  0.0000E+00 -0.2044E+12
   -2.406013    4.01091  0.0000E+00  0.1740E-07  0.1728E-11  0.5442E-04  0.0000E+00 -0.2536E+12
   -2.474754    4.01156  0.0000E+00  0.1709E-07  0.1989E-11  0.4289E-04  0.0000E+00 -0.3354E+12
   -2.543494    4.01239  0.0000E+00  0.1657E-07  0.2462E-11  0.2979E-04  0.0000E+00 -0.5127E+12
   -2.612234    4.01362  0.0000E+00  0.1547E-07  0.3637E-11  0.1517E-04  0.0000E+00 -0.1118E+13
   -2.680973    4.01612  0.0000E+00  0.1047E-07  0.1197E-10  0.1572E-05  0.0000E+00 -0.1678E+14
   -2.749712    4.04137  0.0000E+00  0.0000E+00  0.0000E+00  0.0000E+00  0.0000E+00  0.0000E+00
