 1 - depth, m
 2 - temperature, C
 3 - salinity, kg/kg
 4 - turbulent kinetic energy, m**2/s**2
 5 - dissipation rate, m**2/s**3
 6 - kinematic heat conductance, m**2/s
 7 - modulus of horizontal velocity, m/s
 8 - Richardson number, n/d
   -0.000000    8.92637  0.0000E+00  0.2547E-03  0.1438E-03  0.1162E-03  0.1572E+00 -0.2959E-02
   -0.068763    8.93562  0.0000E+00  0.1365E-03  0.3546E-04  0.2139E-03  0.5215E-01 -0.3591E-02
   -0.137526    8.93710  0.0000E+00  0.9753E-04  0.1534E-04  0.1985E-03  0.3989E-01 -0.2297E-02
   -0.206290    8.93823  0.0000E+00  0.7227E-04  0.7021E-05  0.1990E-03  0.3297E-01 -0.3056E-02
   -0.275054    8.93913  0.0000E+00  0.5653E-04  0.3481E-05  0.2065E-03  0.2813E-01 -0.3791E-02
   -0.343819    8.93992  0.0000E+00  0.4612E-04  0.1859E-05  0.2192E-03  0.2405E-01 -0.4745E-02
   -0.412584    8.94064  0.0000E+00  0.3888E-04  0.1075E-05  0.2338E-03  0.2062E-01 -0.5997E-02
   -0.481350    8.94128  0.0000E+00  0.3349E-04  0.6679E-06  0.2488E-03  0.1774E-01 -0.7719E-02
   -0.550117    8.94188  0.0000E+00  0.2921E-04  0.4418E-06  0.2653E-03  0.1533E-01 -0.1049E-01
   -0.618883    8.94243  0.0000E+00  0.2577E-04  0.3087E-06  0.2805E-03  0.1333E-01 -0.1415E-01
   -0.687651    8.94295  0.0000E+00  0.2293E-04  0.2251E-06  0.2945E-03  0.1164E-01 -0.1900E-01
   -0.756418    8.94345  0.0000E+00  0.2053E-04  0.1695E-06  0.3078E-03  0.1021E-01 -0.2544E-01
   -0.825186    8.94393  0.0000E+00  0.1849E-04  0.1308E-06  0.3209E-03  0.8975E-02 -0.3405E-01
   -0.893954    8.94440  0.0000E+00  0.1674E-04  0.1029E-06  0.3343E-03  0.7912E-02 -0.4563E-01
   -0.962722    8.94486  0.0000E+00  0.1523E-04  0.8232E-07  0.3485E-03  0.6993E-02 -0.6132E-01
   -1.031491    8.94532  0.0000E+00  0.1394E-04  0.6693E-07  0.3609E-03  0.6201E-02 -0.7775E-01
   -1.100260    8.94576  0.0000E+00  0.1282E-04  0.5515E-07  0.3747E-03  0.5494E-02 -0.9492E-01
   -1.169028    8.94621  0.0000E+00  0.1184E-04  0.4598E-07  0.3929E-03  0.4863E-02  0.3560E+02
   -1.237797    8.94665  0.0000E+00  0.1098E-04  0.3874E-07  0.4213E-03  0.4298E-02  0.1162E+02
   -1.306566    8.94708  0.0000E+00  0.1021E-04  0.3295E-07  0.4631E-03  0.3792E-02  0.4996E+02
   -1.375335    8.94749  0.0000E+00  0.9532E-05  0.2826E-07  0.5069E-03  0.3338E-02  0.2948E+02
   -1.444104    8.94789  0.0000E+00  0.8918E-05  0.2443E-07  0.5543E-03  0.2929E-02  0.1898E+02
   -1.512874    8.94827  0.0000E+00  0.8362E-05  0.2126E-07  0.6179E-03  0.2558E-02  0.1561E+03
   -1.581642    8.94862  0.0000E+00  0.7859E-05  0.1862E-07  0.6901E-03  0.2231E-02  0.9311E+02
   -1.650411    8.94895  0.0000E+00  0.7405E-05  0.1644E-07  0.7567E-03  0.1947E-02  0.5959E+02
   -1.719180    8.94926  0.0000E+00  0.6998E-05  0.1462E-07  0.8114E-03  0.1699E-02  0.9183E+03
   -1.787949    8.94956  0.0000E+00  0.6633E-05  0.1311E-07  0.8607E-03  0.1482E-02  0.3216E+02
   -1.856717    8.94984  0.0000E+00  0.6306E-05  0.1187E-07  0.8914E-03  0.1291E-02  0.6954E+02
   -1.925485    8.95012  0.0000E+00  0.6012E-05  0.1085E-07  0.9090E-03  0.1123E-02  0.1123E+03
   -1.994253    8.95041  0.0000E+00  0.5749E-05  0.1003E-07  0.9244E-03  0.9743E-03  0.7700E+01
   -2.063020    8.95069  0.0000E+00  0.5514E-05  0.9381E-08  0.9315E-03  0.8429E-03  0.1962E+02
   -2.131788    8.95098  0.0000E+00  0.5305E-05  0.8892E-08  0.9269E-03  0.7269E-03  0.2091E+02
   -2.200554    8.95128  0.0000E+00  0.5119E-05  0.8550E-08  0.9077E-03  0.6237E-03  0.1705E+02
   -2.269321    8.95159  0.0000E+00  0.4952E-05  0.8348E-08  0.8787E-03  0.5311E-03  0.6544E+01
   -2.338087    8.95193  0.0000E+00  0.4796E-05  0.8289E-08  0.8356E-03  0.4508E-03  0.2362E+01
   -2.406852    8.95228  0.0000E+00  0.4645E-05  0.8402E-08  0.7784E-03  0.3806E-03  0.2250E+01
   -2.475617    8.95267  0.0000E+00  0.4490E-05  0.8764E-08  0.7029E-03  0.3180E-03  0.1462E+02
   -2.544381    8.95312  0.0000E+00  0.4314E-05  0.9601E-08  0.6115E-03  0.2604E-03  0.7627E+01
   -2.613145    8.95365  0.0000E+00  0.4038E-05  0.1201E-07  0.3592E-03  0.2068E-03  0.9232E+03
   -2.681908    8.95457  0.0000E+00  0.2392E-05  0.3991E-07  0.1989E-04  0.1445E-03 -0.1192E+05
   -2.750671    8.97131  0.0000E+00  0.0000E+00  0.0000E+00  0.0000E+00  0.1444E-03  0.0000E+00
