 1 - depth, m
 2 - temperature, C
 3 - salinity, kg/kg
 4 - turbulent kinetic energy, m**2/s**2
 5 - dissipation rate, m**2/s**3
 6 - kinematic heat conductance, m**2/s
 7 - modulus of horizontal velocity, m/s
 8 - Richardson number, n/d
   -0.000000    0.00000  0.0000E+00  0.1219E-13  0.7603E-17  0.1000E-09  0.0000E+00  0.1249E+17
   -0.068735    0.19238  0.0000E+00  0.1219E-13  0.7603E-17  0.1000E-09  0.0000E+00  0.1185E+17
   -0.137471    0.38500  0.0000E+00  0.1219E-13  0.7603E-17  0.1000E-09  0.0000E+00  0.1114E+17
   -0.206208    0.57658  0.0000E+00  0.1219E-13  0.7603E-17  0.1000E-09  0.0000E+00  0.1039E+17
   -0.274945    0.76624  0.0000E+00  0.1219E-13  0.7603E-17  0.1000E-09  0.0000E+00  0.9662E+16
   -0.343683    0.95377  0.0000E+00  0.1219E-13  0.7603E-17  0.1000E-09  0.0000E+00  0.8939E+16
   -0.412421    1.13883  0.0000E+00  0.4582E-13  0.7603E-17  0.1000E-09  0.0000E+00  0.8231E+16
   -0.481160    1.32114  0.0000E+00  0.1287E-12  0.1073E-16  0.1000E-09  0.0000E+00  0.7540E+16
   -0.549899    1.50041  0.0000E+00  0.2822E-12  0.1927E-16  0.1000E-09  0.0000E+00  0.6863E+16
   -0.618639    1.67618  0.0000E+00  0.5631E-12  0.3585E-16  0.1000E-09  0.0000E+00  0.6212E+16
   -0.687379    1.84821  0.0000E+00  0.1081E-11  0.6642E-16  0.1000E-09  0.0000E+00  0.5612E+16
   -0.756120    2.01699  0.0000E+00  0.2036E-11  0.1220E-15  0.1000E-09  0.0000E+00  0.5049E+16
   -0.824860    2.18275  0.0000E+00  0.3798E-11  0.2225E-15  0.1000E-09  0.0000E+00  0.4507E+16
   -0.893601    2.34524  0.0000E+00  0.7028E-11  0.4030E-15  0.1000E-09  0.0000E+00  0.3987E+16
   -0.962342    2.50422  0.0000E+00  0.1292E-10  0.7253E-15  0.1000E-09  0.0000E+00  0.3492E+16
   -1.031084    2.65942  0.0000E+00  0.2357E-10  0.1296E-14  0.1000E-09  0.0000E+00  0.3027E+16
   -1.099825    2.81082  0.0000E+00  0.4269E-10  0.2299E-14  0.1000E-09  0.0000E+00  0.2589E+16
   -1.168567    2.95821  0.0000E+00  0.7681E-10  0.4052E-14  0.1000E-09  0.0000E+00  0.2178E+16
   -1.237309    3.10137  0.0000E+00  0.1374E-09  0.7100E-14  0.1000E-09  0.0000E+00  0.1795E+16
   -1.306051    3.24009  0.0000E+00  0.2443E-09  0.1237E-13  0.1000E-09  0.0000E+00  0.1442E+16
   -1.374793    3.37418  0.0000E+00  0.4318E-09  0.2143E-13  0.1013E-09  0.0000E+00  0.1130E+16
   -1.443535    3.50504  0.0000E+00  0.7590E-09  0.3691E-13  0.2232E-09  0.0000E+00  0.8425E+15
   -1.512276    3.63309  0.0000E+00  0.1328E-08  0.6329E-13  0.5631E-09  0.0000E+00  0.5728E+15
   -1.581018    3.75832  0.0000E+00  0.2318E-08  0.1083E-12  0.1726E-08  0.0000E+00  0.3201E+15
   -1.649760    3.88039  0.0000E+00  0.4014E-08  0.1840E-12  0.1075E-07  0.0000E+00  0.8757E+14
   -1.718502    3.99367  0.0000E+00  0.4341E-08  0.1997E-12  0.3457E-04  0.0000E+00 -0.5253E+11
   -1.787243    3.99412  0.0000E+00  0.4494E-08  0.2085E-12  0.3515E-04  0.0000E+00 -0.5943E+11
   -1.855984    3.99460  0.0000E+00  0.4630E-08  0.2180E-12  0.3570E-04  0.0000E+00 -0.6189E+11
   -1.924725    3.99506  0.0000E+00  0.4750E-08  0.2283E-12  0.3573E-04  0.0000E+00 -0.6461E+11
   -1.993466    3.99552  0.0000E+00  0.4853E-08  0.2398E-12  0.3523E-04  0.0000E+00 -0.6807E+11
   -2.062206    3.99599  0.0000E+00  0.4940E-08  0.2528E-12  0.3443E-04  0.0000E+00 -0.7284E+11
   -2.130946    3.99646  0.0000E+00  0.5009E-08  0.2678E-12  0.3314E-04  0.0000E+00 -0.7915E+11
   -2.199686    3.99694  0.0000E+00  0.5060E-08  0.2854E-12  0.3132E-04  0.0000E+00 -0.8762E+11
   -2.268425    3.99746  0.0000E+00  0.5089E-08  0.3072E-12  0.2897E-04  0.0000E+00 -0.9952E+11
   -2.337164    3.99801  0.0000E+00  0.5092E-08  0.3360E-12  0.2593E-04  0.0000E+00 -0.1174E+12
   -2.405902    3.99864  0.0000E+00  0.5062E-08  0.3767E-12  0.2210E-04  0.0000E+00 -0.1466E+12
   -2.474640    3.99938  0.0000E+00  0.4981E-08  0.4398E-12  0.1744E-04  0.0000E+00 -0.2005E+12
   -2.543377    4.00032  0.0000E+00  0.4808E-08  0.5566E-12  0.1190E-04  0.0000E+00 -0.3278E+12
   -2.612114    4.00175  0.0000E+00  0.4405E-08  0.8582E-12  0.5660E-05  0.0000E+00 -0.8341E+12
   -2.680850    4.00488  0.0000E+00  0.2932E-08  0.2638E-11  0.6559E-06  0.0000E+00 -0.1386E+14
   -2.749585    4.03229  0.0000E+00  0.0000E+00  0.0000E+00  0.0000E+00  0.0000E+00  0.0000E+00
