 1 - depth, m
 2 - temperature, C
 3 - salinity, kg/kg
 4 - turbulent kinetic energy, m**2/s**2
 5 - dissipation rate, m**2/s**3
 6 - kinematic heat conductance, m**2/s
 7 - modulus of horizontal velocity, m/s
 8 - Richardson number, n/d
   -0.000000    0.00000  0.0000E+00  0.9434E-12  0.2079E-15  0.1000E-09  0.0000E+00  0.1918E+17
   -0.068767    0.29972  0.0000E+00  0.2261E-11  0.2411E-15  0.1000E-09  0.0000E+00  0.1699E+17
   -0.137535    0.58880  0.0000E+00  0.5138E-11  0.4273E-15  0.1000E-09  0.0000E+00  0.1504E+17
   -0.206303    0.86828  0.0000E+00  0.1079E-10  0.8284E-15  0.1000E-09  0.0000E+00  0.1329E+17
   -0.275072    1.13931  0.0000E+00  0.2180E-10  0.1614E-14  0.1000E-09  0.0000E+00  0.1174E+17
   -0.343841    1.40353  0.0000E+00  0.4319E-10  0.3118E-14  0.1000E-09  0.0000E+00  0.1034E+17
   -0.412611    1.66205  0.0000E+00  0.8467E-10  0.5980E-14  0.1000E-09  0.0000E+00  0.9046E+16
   -0.481381    1.91571  0.0000E+00  0.1647E-09  0.1139E-13  0.1000E-09  0.0000E+00  0.7841E+16
   -0.550152    2.16503  0.0000E+00  0.3189E-09  0.2160E-13  0.1000E-09  0.0000E+00  0.6701E+16
   -0.618924    2.41009  0.0000E+00  0.6139E-09  0.4074E-13  0.1000E-09  0.0000E+00  0.5625E+16
   -0.687695    2.65107  0.0000E+00  0.1175E-08  0.7643E-13  0.1000E-09  0.0000E+00  0.4653E+16
   -0.756467    2.89075  0.0000E+00  0.2237E-08  0.1426E-12  0.1950E-09  0.0000E+00  0.3722E+16
   -0.825239    3.13053  0.0000E+00  0.4235E-08  0.2646E-12  0.4825E-09  0.0000E+00  0.2792E+16
   -0.894012    3.36983  0.0000E+00  0.7968E-08  0.4883E-12  0.1332E-08  0.0000E+00  0.1867E+16
   -0.962785    3.60737  0.0000E+00  0.1488E-07  0.8946E-12  0.4754E-08  0.0000E+00  0.9585E+15
   -1.031558    3.83879  0.0000E+00  0.2699E-07  0.1596E-11  0.4966E-07  0.0000E+00  0.1642E+15
   -1.100331    4.01535  0.0000E+00  0.2746E-07  0.1626E-11  0.1639E-03  0.0000E+00 -0.8133E+11
   -1.169104    4.01553  0.0000E+00  0.2768E-07  0.1642E-11  0.1645E-03  0.0000E+00 -0.9189E+11
   -1.237878    4.01573  0.0000E+00  0.2788E-07  0.1661E-11  0.1720E-03  0.0000E+00 -0.9142E+11
   -1.306651    4.01593  0.0000E+00  0.2806E-07  0.1680E-11  0.1717E-03  0.0000E+00 -0.9371E+11
   -1.375425    4.01613  0.0000E+00  0.2821E-07  0.1701E-11  0.1712E-03  0.0000E+00 -0.9514E+11
   -1.444198    4.01633  0.0000E+00  0.2835E-07  0.1723E-11  0.1706E-03  0.0000E+00 -0.9642E+11
   -1.512972    4.01654  0.0000E+00  0.2847E-07  0.1748E-11  0.1697E-03  0.0000E+00 -0.9796E+11
   -1.581745    4.01674  0.0000E+00  0.2857E-07  0.1776E-11  0.1684E-03  0.0000E+00 -0.9978E+11
   -1.650518    4.01695  0.0000E+00  0.2866E-07  0.1807E-11  0.1668E-03  0.0000E+00 -0.1019E+12
   -1.719292    4.01716  0.0000E+00  0.2873E-07  0.1842E-11  0.1647E-03  0.0000E+00 -0.1044E+12
   -1.788065    4.01738  0.0000E+00  0.2878E-07  0.1881E-11  0.1621E-03  0.0000E+00 -0.1073E+12
   -1.856837    4.01760  0.0000E+00  0.2881E-07  0.1925E-11  0.1591E-03  0.0000E+00 -0.1107E+12
   -1.925610    4.01782  0.0000E+00  0.2882E-07  0.1974E-11  0.1556E-03  0.0000E+00 -0.1146E+12
   -1.994382    4.01806  0.0000E+00  0.2880E-07  0.2031E-11  0.1515E-03  0.0000E+00 -0.1193E+12
   -2.063154    4.01829  0.0000E+00  0.2876E-07  0.2096E-11  0.1469E-03  0.0000E+00 -0.1245E+12
   -2.131926    4.01854  0.0000E+00  0.2869E-07  0.2172E-11  0.1415E-03  0.0000E+00 -0.1306E+12
   -2.200697    4.01880  0.0000E+00  0.2860E-07  0.2261E-11  0.1356E-03  0.0000E+00 -0.1379E+12
   -2.269468    4.01907  0.0000E+00  0.2845E-07  0.2380E-11  0.1286E-03  0.0000E+00 -0.1472E+12
   -2.338238    4.01936  0.0000E+00  0.2822E-07  0.2559E-11  0.1043E-03  0.0000E+00 -0.1842E+12
   -2.407008    4.01971  0.0000E+00  0.2786E-07  0.2833E-11  0.8002E-04  0.0000E+00 -0.2446E+12
   -2.475778    4.02017  0.0000E+00  0.2732E-07  0.3269E-11  0.6085E-04  0.0000E+00 -0.3297E+12
   -2.544546    4.02079  0.0000E+00  0.2647E-07  0.4063E-11  0.4164E-04  0.0000E+00 -0.4997E+12
   -2.613315    4.02170  0.0000E+00  0.2479E-07  0.6031E-11  0.2109E-04  0.0000E+00 -0.1053E+13
   -2.682082    4.02356  0.0000E+00  0.1609E-07  0.2176E-10  0.1808E-05  0.0000E+00 -0.1666E+14
   -2.750849    4.04560  0.0000E+00  0.0000E+00  0.0000E+00  0.0000E+00  0.0000E+00  0.0000E+00
