 1 - depth, m
 2 - temperature, C
 3 - salinity, kg/kg
 4 - turbulent kinetic energy, m**2/s**2
 5 - dissipation rate, m**2/s**3
 6 - kinematic heat conductance, m**2/s
 7 - modulus of horizontal velocity, m/s
 8 - Richardson number, n/d
   -0.000000    4.41532  0.0000E+00  0.5263E-03  0.4870E-03  0.1487E-03  0.2560E+00  0.6847E-03
   -0.068782    4.45530  0.0000E+00  0.2883E-03  0.1312E-03  0.3999E-03  0.7363E-01 -0.2152E-02
   -0.137565    4.46132  0.0000E+00  0.2095E-03  0.5808E-04  0.3571E-03  0.5669E-01 -0.1253E-01
   -0.206348    4.46527  0.0000E+00  0.1575E-03  0.2842E-04  0.3446E-03  0.4776E-01 -0.1678E-02
   -0.275131    4.46789  0.0000E+00  0.1241E-03  0.1480E-04  0.3375E-03  0.4184E-01 -0.7401E-03
   -0.343916    4.47000  0.0000E+00  0.1007E-03  0.7836E-05  0.3453E-03  0.3657E-01 -0.5900E-03
   -0.412701    4.47178  0.0000E+00  0.8422E-04  0.4316E-05  0.3574E-03  0.3205E-01 -0.8136E-03
   -0.481486    4.47334  0.0000E+00  0.7196E-04  0.2521E-05  0.3714E-03  0.2820E-01 -0.9465E-03
   -0.550272    4.47477  0.0000E+00  0.6255E-04  0.1586E-05  0.3894E-03  0.2489E-01 -0.1056E-02
   -0.619058    4.47607  0.0000E+00  0.5518E-04  0.1071E-05  0.4071E-03  0.2211E-01 -0.1331E-02
   -0.687845    4.47727  0.0000E+00  0.4926E-04  0.7649E-06  0.4247E-03  0.1974E-01 -0.1705E-02
   -0.756631    4.47841  0.0000E+00  0.4438E-04  0.5702E-06  0.4419E-03  0.1770E-01 -0.2199E-02
   -0.825419    4.47948  0.0000E+00  0.4027E-04  0.4385E-06  0.4587E-03  0.1593E-01 -0.2847E-02
   -0.894206    4.48052  0.0000E+00  0.3676E-04  0.3453E-06  0.4753E-03  0.1437E-01 -0.3701E-02
   -0.962994    4.48152  0.0000E+00  0.3374E-04  0.2773E-06  0.4919E-03  0.1299E-01 -0.4831E-02
   -1.031782    4.48251  0.0000E+00  0.3114E-04  0.2266E-06  0.5038E-03  0.1178E-01 -0.5913E-02
   -1.100570    4.48348  0.0000E+00  0.2886E-04  0.1878E-06  0.5150E-03  0.1067E-01 -0.7207E-02
   -1.169358    4.48446  0.0000E+00  0.2684E-04  0.1576E-06  0.5253E-03  0.9662E-02 -0.8760E-02
   -1.238147    4.48545  0.0000E+00  0.2503E-04  0.1336E-06  0.5344E-03  0.8736E-02 -0.1061E-01
   -1.306935    4.48645  0.0000E+00  0.2339E-04  0.1143E-06  0.5420E-03  0.7885E-02 -0.1280E-01
   -1.375723    4.48746  0.0000E+00  0.2188E-04  0.9857E-07  0.5477E-03  0.7099E-02 -0.1533E-01
   -1.444512    4.48849  0.0000E+00  0.2049E-04  0.8547E-07  0.5512E-03  0.6370E-02 -0.1824E-01
   -1.513300    4.48954  0.0000E+00  0.1918E-04  0.7445E-07  0.5583E-03  0.5689E-02 -0.2308E-01
   -1.582089    4.49061  0.0000E+00  0.1795E-04  0.6508E-07  0.5656E-03  0.5070E-02 -0.3004E-01
   -1.650877    4.49169  0.0000E+00  0.1681E-04  0.5712E-07  0.5712E-03  0.4515E-02 -0.3914E-01
   -1.719665    4.49278  0.0000E+00  0.1575E-04  0.5035E-07  0.5752E-03  0.4016E-02 -0.5110E-01
   -1.788453    4.49390  0.0000E+00  0.1477E-04  0.4459E-07  0.5778E-03  0.3565E-02 -0.6686E-01
   -1.857241    4.49503  0.0000E+00  0.1387E-04  0.3969E-07  0.5789E-03  0.3158E-02 -0.8771E-01
   -1.926028    4.49619  0.0000E+00  0.1303E-04  0.3554E-07  0.5782E-03  0.2790E-02 -0.1153E+00
   -1.994815    4.49738  0.0000E+00  0.1227E-04  0.3203E-07  0.5756E-03  0.2456E-02 -0.1519E+00
   -2.063602    4.49861  0.0000E+00  0.1157E-04  0.2910E-07  0.5702E-03  0.2153E-02 -0.1996E+00
   -2.132389    4.49988  0.0000E+00  0.1093E-04  0.2669E-07  0.5615E-03  0.1875E-02 -0.2615E+00
   -2.201175    4.50120  0.0000E+00  0.1034E-04  0.2476E-07  0.5483E-03  0.1620E-02 -0.3393E+00
   -2.269961    4.50258  0.0000E+00  0.9795E-05  0.2329E-07  0.5316E-03  0.1383E-02 -0.4828E+00
   -2.338746    4.50403  0.0000E+00  0.9273E-05  0.2226E-07  0.5065E-03  0.1169E-02 -0.7178E+00
   -2.407531    4.50558  0.0000E+00  0.8764E-05  0.2178E-07  0.4692E-03  0.9775E-03 -0.1097E+01
   -2.476315    4.50728  0.0000E+00  0.8250E-05  0.2206E-07  0.4153E-03  0.8033E-03 -0.1749E+01
   -2.545099    4.50924  0.0000E+00  0.7685E-05  0.2376E-07  0.3373E-03  0.6425E-03 -0.3192E+01
   -2.613882    4.51171  0.0000E+00  0.6937E-05  0.2945E-07  0.2218E-03  0.4934E-03 -0.7516E+01
   -2.682665    4.51555  0.0000E+00  0.3838E-05  0.8783E-07  0.2221E-04  0.3521E-03 -0.5624E+05
   -2.751447    4.55514  0.0000E+00  0.0000E+00  0.0000E+00  0.0000E+00  0.3514E-03  0.0000E+00
