 1 - depth, m
 2 - temperature, C
 3 - salinity, kg/kg
 4 - turbulent kinetic energy, m**2/s**2
 5 - dissipation rate, m**2/s**3
 6 - kinematic heat conductance, m**2/s
 7 - modulus of horizontal velocity, m/s
 8 - Richardson number, n/d
   -0.000000    0.00000  0.0000E+00  0.3824E-12  0.7247E-16  0.1000E-09  0.0000E+00  0.1664E+17
   -0.068736    0.25852  0.0000E+00  0.8426E-12  0.9241E-16  0.1000E-09  0.0000E+00  0.1505E+17
   -0.137473    0.50994  0.0000E+00  0.1900E-11  0.1729E-15  0.1000E-09  0.0000E+00  0.1362E+17
   -0.206210    0.75540  0.0000E+00  0.4082E-11  0.3488E-15  0.1000E-09  0.0000E+00  0.1232E+17
   -0.274947    0.99579  0.0000E+00  0.8522E-11  0.7049E-15  0.1000E-09  0.0000E+00  0.1118E+17
   -0.343686    1.23299  0.0000E+00  0.1750E-10  0.1412E-14  0.1000E-09  0.0000E+00  0.1012E+17
   -0.412425    1.46786  0.0000E+00  0.3559E-10  0.2807E-14  0.1000E-09  0.0000E+00  0.9119E+16
   -0.481164    1.70101  0.0000E+00  0.7179E-10  0.5538E-14  0.1000E-09  0.0000E+00  0.8156E+16
   -0.549904    1.93278  0.0000E+00  0.1440E-09  0.1087E-13  0.1000E-09  0.0000E+00  0.7209E+16
   -0.618644    2.16292  0.0000E+00  0.2872E-09  0.2121E-13  0.1000E-09  0.0000E+00  0.6295E+16
   -0.687385    2.39171  0.0000E+00  0.5691E-09  0.4114E-13  0.1000E-09  0.0000E+00  0.5480E+16
   -0.756125    2.62271  0.0000E+00  0.1120E-08  0.7929E-13  0.1000E-09  0.0000E+00  0.4687E+16
   -0.824867    2.85815  0.0000E+00  0.2192E-08  0.1519E-12  0.2009E-09  0.0000E+00  0.3849E+16
   -0.893608    3.09796  0.0000E+00  0.4262E-08  0.2893E-12  0.4971E-09  0.0000E+00  0.2963E+16
   -0.962350    3.34176  0.0000E+00  0.8232E-08  0.5475E-12  0.1373E-08  0.0000E+00  0.2031E+16
   -1.031092    3.58839  0.0000E+00  0.1575E-07  0.1027E-11  0.4935E-08  0.0000E+00  0.1060E+16
   -1.099834    3.83268  0.0000E+00  0.2918E-07  0.1871E-11  0.5400E-07  0.0000E+00  0.1774E+15
   -1.168576    4.01824  0.0000E+00  0.2972E-07  0.1908E-11  0.1627E-03  0.0000E+00 -0.9601E+11
   -1.237319    4.01843  0.0000E+00  0.2997E-07  0.1928E-11  0.1635E-03  0.0000E+00 -0.1100E+12
   -1.306061    4.01865  0.0000E+00  0.3020E-07  0.1950E-11  0.1710E-03  0.0000E+00 -0.1091E+12
   -1.374803    4.01887  0.0000E+00  0.3039E-07  0.1974E-11  0.1714E-03  0.0000E+00 -0.1106E+12
   -1.443546    4.01908  0.0000E+00  0.3056E-07  0.2000E-11  0.1709E-03  0.0000E+00 -0.1121E+12
   -1.512288    4.01930  0.0000E+00  0.3072E-07  0.2028E-11  0.1702E-03  0.0000E+00 -0.1137E+12
   -1.581031    4.01952  0.0000E+00  0.3085E-07  0.2060E-11  0.1692E-03  0.0000E+00 -0.1157E+12
   -1.649773    4.01974  0.0000E+00  0.3096E-07  0.2095E-11  0.1677E-03  0.0000E+00 -0.1180E+12
   -1.718515    4.01997  0.0000E+00  0.3105E-07  0.2134E-11  0.1658E-03  0.0000E+00 -0.1208E+12
   -1.787257    4.02019  0.0000E+00  0.3112E-07  0.2178E-11  0.1635E-03  0.0000E+00 -0.1240E+12
   -1.855999    4.02043  0.0000E+00  0.3116E-07  0.2228E-11  0.1606E-03  0.0000E+00 -0.1278E+12
   -1.924740    4.02067  0.0000E+00  0.3118E-07  0.2285E-11  0.1573E-03  0.0000E+00 -0.1323E+12
   -1.993481    4.02091  0.0000E+00  0.3118E-07  0.2350E-11  0.1533E-03  0.0000E+00 -0.1376E+12
   -2.062222    4.02116  0.0000E+00  0.3115E-07  0.2424E-11  0.1487E-03  0.0000E+00 -0.1434E+12
   -2.130963    4.02143  0.0000E+00  0.3108E-07  0.2511E-11  0.1435E-03  0.0000E+00 -0.1502E+12
   -2.199703    4.02170  0.0000E+00  0.3098E-07  0.2613E-11  0.1376E-03  0.0000E+00 -0.1585E+12
   -2.268443    4.02198  0.0000E+00  0.3083E-07  0.2743E-11  0.1307E-03  0.0000E+00 -0.1688E+12
   -2.337182    4.02228  0.0000E+00  0.3060E-07  0.2938E-11  0.1107E-03  0.0000E+00 -0.2022E+12
   -2.405921    4.02264  0.0000E+00  0.3022E-07  0.3245E-11  0.8399E-04  0.0000E+00 -0.2712E+12
   -2.474659    4.02311  0.0000E+00  0.2965E-07  0.3734E-11  0.6344E-04  0.0000E+00 -0.3675E+12
   -2.543397    4.02375  0.0000E+00  0.2874E-07  0.4627E-11  0.4350E-04  0.0000E+00 -0.5550E+12
   -2.612134    4.02468  0.0000E+00  0.2692E-07  0.6834E-11  0.2215E-04  0.0000E+00 -0.1160E+13
   -2.680871    4.02657  0.0000E+00  0.1744E-07  0.2461E-10  0.1884E-05  0.0000E+00 -0.1827E+14
   -2.749607    4.04920  0.0000E+00  0.0000E+00  0.0000E+00  0.0000E+00  0.0000E+00  0.0000E+00
