 1 - depth, m
 2 - temperature, C
 3 - salinity, kg/kg
 4 - turbulent kinetic energy, m**2/s**2
 5 - dissipation rate, m**2/s**3
 6 - kinematic heat conductance, m**2/s
 7 - modulus of horizontal velocity, m/s
 8 - Richardson number, n/d
   -0.000000    0.00000  0.0000E+00  0.1219E-13  0.7604E-17  0.1000E-09  0.0000E+00  0.1122E+17
   -0.068733    0.17231  0.0000E+00  0.1219E-13  0.7604E-17  0.1000E-09  0.0000E+00  0.1051E+17
   -0.137467    0.34157  0.0000E+00  0.1219E-13  0.7604E-17  0.1000E-09  0.0000E+00  0.9843E+16
   -0.206202    0.50804  0.0000E+00  0.1219E-13  0.7604E-17  0.1000E-09  0.0000E+00  0.9212E+16
   -0.274937    0.67187  0.0000E+00  0.1219E-13  0.7604E-17  0.1000E-09  0.0000E+00  0.8626E+16
   -0.343672    0.83344  0.0000E+00  0.1219E-13  0.7604E-17  0.1000E-09  0.0000E+00  0.8063E+16
   -0.412409    0.99279  0.0000E+00  0.1219E-13  0.7604E-17  0.1000E-09  0.0000E+00  0.7517E+16
   -0.481145    1.14982  0.0000E+00  0.1219E-13  0.7604E-17  0.1000E-09  0.0000E+00  0.6984E+16
   -0.549882    1.30434  0.0000E+00  0.1219E-13  0.7604E-17  0.1000E-09  0.0000E+00  0.6455E+16
   -0.618620    1.45594  0.0000E+00  0.1219E-13  0.7604E-17  0.1000E-09  0.0000E+00  0.5943E+16
   -0.687358    1.60441  0.0000E+00  0.1219E-13  0.7604E-17  0.1000E-09  0.0000E+00  0.5481E+16
   -0.756096    1.75044  0.0000E+00  0.1219E-13  0.7604E-17  0.1000E-09  0.0000E+00  0.5051E+16
   -0.824834    1.89435  0.0000E+00  0.1219E-13  0.7604E-17  0.1000E-09  0.0000E+00  0.4631E+16
   -0.893573    2.03596  0.0000E+00  0.1219E-13  0.7604E-17  0.1000E-09  0.0000E+00  0.4224E+16
   -0.962312    2.17507  0.0000E+00  0.1219E-13  0.7604E-17  0.1000E-09  0.0000E+00  0.3829E+16
   -1.031052    2.31146  0.0000E+00  0.1219E-13  0.7604E-17  0.1000E-09  0.0000E+00  0.3453E+16
   -1.099791    2.44505  0.0000E+00  0.3261E-13  0.7604E-17  0.1000E-09  0.0000E+00  0.3092E+16
   -1.168530    2.57566  0.0000E+00  0.1020E-12  0.1206E-16  0.1000E-09  0.0000E+00  0.2747E+16
   -1.237270    2.70307  0.0000E+00  0.2500E-12  0.2510E-16  0.1000E-09  0.0000E+00  0.2419E+16
   -1.306010    2.82707  0.0000E+00  0.5615E-12  0.5345E-16  0.1000E-09  0.0000E+00  0.2109E+16
   -1.374750    2.94744  0.0000E+00  0.1221E-11  0.1128E-15  0.1000E-09  0.0000E+00  0.1829E+16
   -1.443489    3.06474  0.0000E+00  0.2617E-11  0.2355E-15  0.1000E-09  0.0000E+00  0.1569E+16
   -1.512229    3.17901  0.0000E+00  0.5559E-11  0.4881E-15  0.1000E-09  0.0000E+00  0.1322E+16
   -1.580969    3.28992  0.0000E+00  0.1177E-10  0.1009E-14  0.1000E-09  0.0000E+00  0.1090E+16
   -1.649708    3.39712  0.0000E+00  0.2474E-10  0.2071E-14  0.1000E-09  0.0000E+00  0.8760E+15
   -1.718448    3.50025  0.0000E+00  0.5167E-10  0.4226E-14  0.1000E-09  0.0000E+00  0.6799E+15
   -1.787187    3.59895  0.0000E+00  0.1072E-09  0.8566E-14  0.1000E-09  0.0000E+00  0.5035E+15
   -1.855926    3.69287  0.0000E+00  0.2209E-09  0.1725E-13  0.2525E-09  0.0000E+00  0.3475E+15
   -1.924665    3.78159  0.0000E+00  0.4522E-09  0.3454E-13  0.8256E-09  0.0000E+00  0.2128E+15
   -1.993403    3.86458  0.0000E+00  0.9189E-09  0.6865E-13  0.3496E-08  0.0000E+00  0.9978E+14
   -2.062142    3.94052  0.0000E+00  0.1818E-08  0.1332E-12  0.4370E-07  0.0000E+00  0.1536E+14
   -2.130880    3.99804  0.0000E+00  0.2323E-08  0.1716E-12  0.1257E-04  0.0000E+00 -0.1523E+12
   -2.199617    3.99885  0.0000E+00  0.2547E-08  0.1937E-12  0.1292E-04  0.0000E+00 -0.1663E+12
   -2.268354    3.99967  0.0000E+00  0.2723E-08  0.2180E-12  0.1278E-04  0.0000E+00 -0.1827E+12
   -2.337091    4.00051  0.0000E+00  0.2862E-08  0.2479E-12  0.1206E-04  0.0000E+00 -0.2113E+12
   -2.405827    4.00143  0.0000E+00  0.2961E-08  0.2882E-12  0.1072E-04  0.0000E+00 -0.2624E+12
   -2.474563    4.00250  0.0000E+00  0.3012E-08  0.3495E-12  0.8741E-05  0.0000E+00 -0.3640E+12
   -2.543298    4.00388  0.0000E+00  0.2991E-08  0.4624E-12  0.6116E-05  0.0000E+00 -0.6230E+12
   -2.612032    4.00601  0.0000E+00  0.2822E-08  0.7534E-12  0.3006E-05  0.0000E+00 -0.1734E+13
   -2.680766    4.01100  0.0000E+00  0.2235E-08  0.2187E-11  0.5749E-06  0.0000E+00 -0.2110E+14
   -2.749499    4.04380  0.0000E+00  0.0000E+00  0.0000E+00  0.0000E+00  0.0000E+00  0.0000E+00
