 1 - depth, m
 2 - temperature, C
 3 - salinity, kg/kg
 4 - turbulent kinetic energy, m**2/s**2
 5 - dissipation rate, m**2/s**3
 6 - kinematic heat conductance, m**2/s
 7 - modulus of horizontal velocity, m/s
 8 - Richardson number, n/d
   -0.000000   12.01353  0.0000E+00  0.1776E-03  0.6589E-04  0.1097E-03  0.1243E+00 -0.8228E-02
   -0.068733   12.04984  0.0000E+00  0.9871E-04  0.1620E-04  0.1806E-03  0.4193E-01 -0.3569E-01
   -0.137466   12.05651  0.0000E+00  0.7130E-04  0.6570E-05  0.1798E-03  0.3174E-01 -0.1534E-01
   -0.206200   12.06122  0.0000E+00  0.5440E-04  0.3128E-05  0.1905E-03  0.2604E-01 -0.7182E-01
   -0.274935   12.06478  0.0000E+00  0.4374E-04  0.1668E-05  0.2061E-03  0.2212E-01 -0.2936E-01
   -0.343670   12.06772  0.0000E+00  0.3649E-04  0.9716E-06  0.2259E-03  0.1893E-01 -0.3689E-01
   -0.412406   12.07024  0.0000E+00  0.3129E-04  0.6095E-06  0.2477E-03  0.1628E-01 -0.4630E-01
   -0.481142   12.07242  0.0000E+00  0.2735E-04  0.4060E-06  0.2703E-03  0.1405E-01 -0.5844E-01
   -0.549879   12.07435  0.0000E+00  0.2419E-04  0.2832E-06  0.2955E-03  0.1217E-01 -0.7676E-01
   -0.618616   12.07607  0.0000E+00  0.2163E-04  0.2054E-06  0.3214E-03  0.1059E-01 -0.9926E-01
   -0.687353   12.07762  0.0000E+00  0.1952E-04  0.1539E-06  0.3507E-03  0.9252E-02 -0.1178E+00
   -0.756091   12.07901  0.0000E+00  0.1775E-04  0.1185E-06  0.4029E-03  0.8116E-02  0.2517E+02
   -0.824829   12.08024  0.0000E+00  0.1627E-04  0.9336E-07  0.5185E-03  0.7149E-02  0.5765E+02
   -0.893567   12.08130  0.0000E+00  0.1502E-04  0.7513E-07  0.5739E-03  0.6337E-02  0.8039E+01
   -0.962306   12.08224  0.0000E+00  0.1396E-04  0.6157E-07  0.6394E-03  0.5637E-02  0.4358E+01
   -1.031045   12.08309  0.0000E+00  0.1307E-04  0.5137E-07  0.7182E-03  0.5038E-02  0.3248E+02
   -1.099784   12.08384  0.0000E+00  0.1231E-04  0.4355E-07  0.8144E-03  0.4511E-02  0.7694E+02
   -1.168523   12.08451  0.0000E+00  0.1166E-04  0.3745E-07  0.9229E-03  0.4045E-02  0.6172E+02
   -1.237262   12.08508  0.0000E+00  0.1109E-04  0.3264E-07  0.1026E-02  0.3631E-02  0.6461E+03
   -1.306001   12.08557  0.0000E+00  0.1060E-04  0.2878E-07  0.1128E-02  0.3258E-02  0.1548E+02
   -1.374741   12.08601  0.0000E+00  0.1016E-04  0.2564E-07  0.1218E-02  0.2921E-02  0.1659E+02
   -1.443480   12.08639  0.0000E+00  0.9760E-05  0.2303E-07  0.1286E-02  0.2611E-02  0.1376E+02
   -1.512219   12.08674  0.0000E+00  0.9390E-05  0.2084E-07  0.1329E-02  0.2322E-02  0.2739E+02
   -1.580958   12.08707  0.0000E+00  0.9041E-05  0.1896E-07  0.1356E-02  0.2058E-02  0.2798E+01
   -1.649698   12.08739  0.0000E+00  0.8709E-05  0.1735E-07  0.1371E-02  0.1819E-02  0.1521E+02
   -1.718437   12.08770  0.0000E+00  0.8396E-05  0.1598E-07  0.1382E-02  0.1603E-02  0.2100E+01
   -1.787175   12.08801  0.0000E+00  0.8099E-05  0.1483E-07  0.1387E-02  0.1409E-02  0.1870E+01
   -1.855914   12.08832  0.0000E+00  0.7818E-05  0.1387E-07  0.1388E-02  0.1234E-02  0.1689E+01
   -1.924652   12.08863  0.0000E+00  0.7553E-05  0.1310E-07  0.1381E-02  0.1078E-02  0.1531E+01
   -1.993390   12.08893  0.0000E+00  0.7303E-05  0.1250E-07  0.1362E-02  0.9380E-03  0.1385E+01
   -2.062128   12.08924  0.0000E+00  0.7068E-05  0.1207E-07  0.1327E-02  0.8134E-03  0.1248E+01
   -2.130866   12.08956  0.0000E+00  0.6850E-05  0.1181E-07  0.1278E-02  0.7029E-03  0.1130E+01
   -2.199603   12.08989  0.0000E+00  0.6649E-05  0.1171E-07  0.1214E-02  0.6050E-03  0.1084E+01
   -2.268339   12.09024  0.0000E+00  0.6463E-05  0.1179E-07  0.1138E-02  0.5178E-03  0.1069E+01
   -2.337075   12.09061  0.0000E+00  0.6288E-05  0.1207E-07  0.1055E-02  0.4431E-03  0.1184E+01
   -2.405811   12.09100  0.0000E+00  0.6120E-05  0.1260E-07  0.9672E-03  0.3804E-03  0.1572E+01
   -2.474546   12.09144  0.0000E+00  0.5945E-05  0.1353E-07  0.8631E-03  0.3265E-03  0.2550E+01
   -2.543281   12.09192  0.0000E+00  0.5739E-05  0.1525E-07  0.7400E-03  0.2764E-03  0.5115E+01
   -2.612015   12.09249  0.0000E+00  0.5423E-05  0.1953E-07  0.5471E-03  0.2297E-03  0.4218E+03
   -2.680748   12.09331  0.0000E+00  0.3359E-05  0.6879E-07  0.2704E-04  0.1775E-03 -0.2706E+04
   -2.749481   12.10911  0.0000E+00  0.0000E+00  0.0000E+00  0.0000E+00  0.1786E-03  0.0000E+00
