 1 - depth, m
 2 - temperature, C
 3 - salinity, kg/kg
 4 - turbulent kinetic energy, m**2/s**2
 5 - dissipation rate, m**2/s**3
 6 - kinematic heat conductance, m**2/s
 7 - modulus of horizontal velocity, m/s
 8 - Richardson number, n/d
   -0.000000    0.00000  0.0000E+00  0.1088E-11  0.2412E-15  0.1000E-09  0.0000E+00  0.1801E+17
   -0.068748    0.28069  0.0000E+00  0.2619E-11  0.2633E-15  0.1000E-09  0.0000E+00  0.1608E+17
   -0.137497    0.55191  0.0000E+00  0.5857E-11  0.4431E-15  0.1000E-09  0.0000E+00  0.1437E+17
   -0.206246    0.81506  0.0000E+00  0.1199E-10  0.8258E-15  0.1000E-09  0.0000E+00  0.1284E+17
   -0.274996    1.07135  0.0000E+00  0.2347E-10  0.1553E-14  0.1000E-09  0.0000E+00  0.1149E+17
   -0.343747    1.32263  0.0000E+00  0.4499E-10  0.2901E-14  0.1000E-09  0.0000E+00  0.1026E+17
   -0.412498    1.57006  0.0000E+00  0.8523E-10  0.5378E-14  0.1000E-09  0.0000E+00  0.9119E+16
   -0.481250    1.81462  0.0000E+00  0.1603E-09  0.9907E-14  0.1000E-09  0.0000E+00  0.8049E+16
   -0.550002    2.05710  0.0000E+00  0.2998E-09  0.1817E-13  0.1000E-09  0.0000E+00  0.7023E+16
   -0.618754    2.29786  0.0000E+00  0.5583E-09  0.3317E-13  0.1000E-09  0.0000E+00  0.6039E+16
   -0.687507    2.53754  0.0000E+00  0.1034E-08  0.6026E-13  0.1000E-09  0.0000E+00  0.5143E+16
   -0.756260    2.77965  0.0000E+00  0.1905E-08  0.1089E-12  0.1303E-09  0.0000E+00  0.4256E+16
   -0.825014    3.02608  0.0000E+00  0.3493E-08  0.1959E-12  0.3009E-09  0.0000E+00  0.3315E+16
   -0.893767    3.27609  0.0000E+00  0.6369E-08  0.3506E-12  0.7671E-09  0.0000E+00  0.2328E+16
   -0.962521    3.52805  0.0000E+00  0.1155E-07  0.6241E-12  0.2422E-08  0.0000E+00  0.1313E+16
   -1.031276    3.77817  0.0000E+00  0.2065E-07  0.1097E-11  0.1657E-07  0.0000E+00  0.3376E+15
   -1.100030    4.00449  0.0000E+00  0.2106E-07  0.1120E-11  0.1372E-03  0.0000E+00 -0.6043E+11
   -1.168784    4.00470  0.0000E+00  0.2126E-07  0.1133E-11  0.1388E-03  0.0000E+00 -0.7239E+11
   -1.237539    4.00495  0.0000E+00  0.2143E-07  0.1147E-11  0.1444E-03  0.0000E+00 -0.7305E+11
   -1.306294    4.00520  0.0000E+00  0.2159E-07  0.1162E-11  0.1483E-03  0.0000E+00 -0.7342E+11
   -1.375048    4.00545  0.0000E+00  0.2172E-07  0.1178E-11  0.1493E-03  0.0000E+00 -0.7439E+11
   -1.443803    4.00570  0.0000E+00  0.2185E-07  0.1195E-11  0.1488E-03  0.0000E+00 -0.7580E+11
   -1.512558    4.00594  0.0000E+00  0.2196E-07  0.1214E-11  0.1481E-03  0.0000E+00 -0.7741E+11
   -1.581312    4.00619  0.0000E+00  0.2206E-07  0.1235E-11  0.1470E-03  0.0000E+00 -0.7927E+11
   -1.650067    4.00645  0.0000E+00  0.2214E-07  0.1258E-11  0.1456E-03  0.0000E+00 -0.8139E+11
   -1.718821    4.00670  0.0000E+00  0.2221E-07  0.1284E-11  0.1438E-03  0.0000E+00 -0.8381E+11
   -1.787575    4.00696  0.0000E+00  0.2227E-07  0.1313E-11  0.1416E-03  0.0000E+00 -0.8660E+11
   -1.856329    4.00723  0.0000E+00  0.2231E-07  0.1345E-11  0.1390E-03  0.0000E+00 -0.8981E+11
   -1.925083    4.00750  0.0000E+00  0.2234E-07  0.1382E-11  0.1359E-03  0.0000E+00 -0.9354E+11
   -1.993837    4.00778  0.0000E+00  0.2234E-07  0.1424E-11  0.1323E-03  0.0000E+00 -0.9790E+11
   -2.062590    4.00807  0.0000E+00  0.2233E-07  0.1472E-11  0.1282E-03  0.0000E+00 -0.1027E+12
   -2.131343    4.00837  0.0000E+00  0.2229E-07  0.1527E-11  0.1235E-03  0.0000E+00 -0.1084E+12
   -2.200095    4.00868  0.0000E+00  0.2223E-07  0.1596E-11  0.1181E-03  0.0000E+00 -0.1153E+12
   -2.268847    4.00901  0.0000E+00  0.2212E-07  0.1692E-11  0.1055E-03  0.0000E+00 -0.1316E+12
   -2.337599    4.00938  0.0000E+00  0.2194E-07  0.1832E-11  0.8449E-04  0.0000E+00 -0.1679E+12
   -2.406350    4.00984  0.0000E+00  0.2167E-07  0.2038E-11  0.6748E-04  0.0000E+00 -0.2162E+12
   -2.475100    4.01042  0.0000E+00  0.2126E-07  0.2361E-11  0.5211E-04  0.0000E+00 -0.2901E+12
   -2.543850    4.01117  0.0000E+00  0.2059E-07  0.2948E-11  0.3565E-04  0.0000E+00 -0.4461E+12
   -2.612600    4.01229  0.0000E+00  0.1926E-07  0.4410E-11  0.1792E-04  0.0000E+00 -0.9699E+12
   -2.681349    4.01458  0.0000E+00  0.1272E-07  0.1555E-10  0.1659E-05  0.0000E+00 -0.1586E+14
   -2.750097    4.03946  0.0000E+00  0.0000E+00  0.0000E+00  0.0000E+00  0.0000E+00  0.0000E+00
