 1 - depth, m
 2 - temperature, C
 3 - salinity, kg/kg
 4 - turbulent kinetic energy, m**2/s**2
 5 - dissipation rate, m**2/s**3
 6 - kinematic heat conductance, m**2/s
 7 - modulus of horizontal velocity, m/s
 8 - Richardson number, n/d
   -0.000000    0.00000  0.0000E+00  0.9006E-12  0.1974E-15  0.1000E-09  0.0000E+00  0.1841E+17
   -0.068783    0.28712  0.0000E+00  0.2155E-11  0.2316E-15  0.1000E-09  0.0000E+00  0.1627E+17
   -0.137567    0.56236  0.0000E+00  0.4913E-11  0.4144E-15  0.1000E-09  0.0000E+00  0.1447E+17
   -0.206352    0.82834  0.0000E+00  0.1037E-10  0.8094E-15  0.1000E-09  0.0000E+00  0.1289E+17
   -0.275137    1.08700  0.0000E+00  0.2109E-10  0.1588E-14  0.1000E-09  0.0000E+00  0.1153E+17
   -0.343922    1.34079  0.0000E+00  0.4205E-10  0.3088E-14  0.1000E-09  0.0000E+00  0.1029E+17
   -0.412708    1.59105  0.0000E+00  0.8299E-10  0.5961E-14  0.1000E-09  0.0000E+00  0.9140E+16
   -0.481495    1.83868  0.0000E+00  0.1625E-09  0.1143E-13  0.1000E-09  0.0000E+00  0.8048E+16
   -0.550282    2.08430  0.0000E+00  0.3166E-09  0.2181E-13  0.1000E-09  0.0000E+00  0.6993E+16
   -0.619069    2.32800  0.0000E+00  0.6135E-09  0.4141E-13  0.1000E-09  0.0000E+00  0.5981E+16
   -0.687857    2.57036  0.0000E+00  0.1182E-08  0.7819E-13  0.1000E-09  0.0000E+00  0.5041E+16
   -0.756646    2.81391  0.0000E+00  0.2265E-08  0.1469E-12  0.1816E-09  0.0000E+00  0.4117E+16
   -0.825434    3.06025  0.0000E+00  0.4315E-08  0.2743E-12  0.4408E-09  0.0000E+00  0.3169E+16
   -0.894223    3.30940  0.0000E+00  0.8172E-08  0.5095E-12  0.1185E-08  0.0000E+00  0.2189E+16
   -0.963012    3.56059  0.0000E+00  0.1537E-07  0.9402E-12  0.4054E-08  0.0000E+00  0.1182E+16
   -1.031801    3.80990  0.0000E+00  0.2823E-07  0.1698E-11  0.3653E-07  0.0000E+00  0.2376E+15
   -1.100590    4.01560  0.0000E+00  0.2871E-07  0.1729E-11  0.1696E-03  0.0000E+00 -0.8524E+11
   -1.169380    4.01578  0.0000E+00  0.2893E-07  0.1746E-11  0.1703E-03  0.0000E+00 -0.9475E+11
   -1.238170    4.01599  0.0000E+00  0.2913E-07  0.1764E-11  0.1781E-03  0.0000E+00 -0.9479E+11
   -1.306959    4.01619  0.0000E+00  0.2931E-07  0.1784E-11  0.1759E-03  0.0000E+00 -0.9774E+11
   -1.375749    4.01640  0.0000E+00  0.2947E-07  0.1806E-11  0.1753E-03  0.0000E+00 -0.9897E+11
   -1.444539    4.01661  0.0000E+00  0.2960E-07  0.1829E-11  0.1747E-03  0.0000E+00 -0.1001E+12
   -1.513329    4.01682  0.0000E+00  0.2972E-07  0.1855E-11  0.1738E-03  0.0000E+00 -0.1015E+12
   -1.582118    4.01703  0.0000E+00  0.2982E-07  0.1884E-11  0.1724E-03  0.0000E+00 -0.1032E+12
   -1.650908    4.01724  0.0000E+00  0.2990E-07  0.1916E-11  0.1707E-03  0.0000E+00 -0.1053E+12
   -1.719697    4.01746  0.0000E+00  0.2996E-07  0.1952E-11  0.1686E-03  0.0000E+00 -0.1076E+12
   -1.788486    4.01768  0.0000E+00  0.3001E-07  0.1992E-11  0.1659E-03  0.0000E+00 -0.1105E+12
   -1.857275    4.01791  0.0000E+00  0.3003E-07  0.2037E-11  0.1628E-03  0.0000E+00 -0.1138E+12
   -1.926064    4.01813  0.0000E+00  0.3003E-07  0.2089E-11  0.1592E-03  0.0000E+00 -0.1176E+12
   -1.994853    4.01837  0.0000E+00  0.3001E-07  0.2148E-11  0.1551E-03  0.0000E+00 -0.1222E+12
   -2.063641    4.01861  0.0000E+00  0.2996E-07  0.2217E-11  0.1503E-03  0.0000E+00 -0.1275E+12
   -2.132429    4.01886  0.0000E+00  0.2989E-07  0.2296E-11  0.1448E-03  0.0000E+00 -0.1337E+12
   -2.201216    4.01912  0.0000E+00  0.2978E-07  0.2390E-11  0.1388E-03  0.0000E+00 -0.1412E+12
   -2.270003    4.01940  0.0000E+00  0.2962E-07  0.2513E-11  0.1317E-03  0.0000E+00 -0.1506E+12
   -2.338790    4.01969  0.0000E+00  0.2938E-07  0.2698E-11  0.1080E-03  0.0000E+00 -0.1863E+12
   -2.407576    4.02004  0.0000E+00  0.2901E-07  0.2986E-11  0.8234E-04  0.0000E+00 -0.2487E+12
   -2.476362    4.02051  0.0000E+00  0.2845E-07  0.3443E-11  0.6241E-04  0.0000E+00 -0.3360E+12
   -2.545147    4.02113  0.0000E+00  0.2756E-07  0.4277E-11  0.4269E-04  0.0000E+00 -0.5085E+12
   -2.613931    4.02205  0.0000E+00  0.2582E-07  0.6345E-11  0.2163E-04  0.0000E+00 -0.1067E+13
   -2.682715    4.02391  0.0000E+00  0.1672E-07  0.2301E-10  0.1836E-05  0.0000E+00 -0.1686E+14
   -2.751498    4.04604  0.0000E+00  0.0000E+00  0.0000E+00  0.0000E+00  0.0000E+00  0.0000E+00
