 1 - depth, m
 2 - temperature, C
 3 - salinity, kg/kg
 4 - turbulent kinetic energy, m**2/s**2
 5 - dissipation rate, m**2/s**3
 6 - kinematic heat conductance, m**2/s
 7 - modulus of horizontal velocity, m/s
 8 - Richardson number, n/d
   -0.000000    0.00000  0.0000E+00  0.8436E-09  0.1086E-11  0.4193E-09  0.1696E-21  0.1507E+17
   -0.068736    0.23342  0.0000E+00  0.7297E-08  0.9100E-12  0.7643E-09  0.4140E-22  0.7335E+16
   -0.137473    0.35294  0.0000E+00  0.1853E-07  0.1246E-11  0.3628E-08  0.9505E-23  0.2786E+16
   -0.206210    0.39957  0.0000E+00  0.2320E-07  0.1443E-11  0.5155E-04  0.8383E-24  0.3976E+15
   -0.274948    0.40635  0.0000E+00  0.2389E-07  0.1477E-11  0.1378E-03  0.8061E-24  0.1971E+14
   -0.343687    0.40669  0.0000E+00  0.2397E-07  0.1481E-11  0.1664E-03  0.7792E-24 -0.1959E+12
   -0.412426    0.40669  0.0000E+00  0.2383E-07  0.1470E-11  0.1060E-03  0.7568E-24  0.2274E+14
   -0.481165    0.40708  0.0000E+00  0.2293E-07  0.1420E-11  0.3591E-05  0.7399E-24  0.1916E+15
   -0.549905    0.41035  0.0000E+00  0.1809E-07  0.1145E-11  0.6195E-07  0.6930E-24  0.3022E+15
   -0.618646    0.41549  0.0000E+00  0.1195E-07  0.7785E-12  0.6946E-08  0.3008E-24  0.7101E+15
   -0.687387    0.42753  0.0000E+00  0.7281E-08  0.4908E-12  0.1805E-08  0.7712E-25  0.1453E+16
   -0.756128    0.45225  0.0000E+00  0.4303E-08  0.3004E-12  0.6516E-09  0.1833E-25  0.2359E+16
   -0.824869    0.49272  0.0000E+00  0.2479E-08  0.1792E-12  0.2929E-09  0.4199E-26  0.3213E+16
   -0.893611    0.54863  0.0000E+00  0.1393E-08  0.1043E-12  0.1636E-09  0.9324E-27  0.3871E+16
   -0.962353    0.61728  0.0000E+00  0.7640E-09  0.5918E-13  0.1156E-09  0.2028E-27  0.4232E+16
   -1.031095    0.69404  0.0000E+00  0.4085E-09  0.3277E-13  0.1000E-09  0.5284E-28  0.4848E+16
   -1.099837    0.78441  0.0000E+00  0.2129E-09  0.1776E-13  0.1000E-09  0.1355E-28  0.5197E+16
   -1.168580    0.88438  0.0000E+00  0.1077E-09  0.9513E-14  0.1000E-09  0.3383E-29  0.5382E+16
   -1.237322    0.99166  0.0000E+00  0.5273E-10  0.5319E-14  0.1000E-09  0.8210E-30  0.5511E+16
   -1.306065    1.10588  0.0000E+00  0.2726E-10  0.4024E-14  0.1000E-09  0.1936E-30  0.5628E+16
   -1.374808    1.22765  0.0000E+00  0.2612E-10  0.6745E-14  0.1000E-09  0.4429E-31  0.6513E+16
   -1.443550    1.37599  0.0000E+00  0.6976E-10  0.2094E-13  0.1000E-09  0.9723E-32  0.7457E+16
   -1.512293    1.55751  0.0000E+00  0.2566E-09  0.7537E-13  0.1058E-09  0.1554E-32  0.7942E+16
   -1.581036    1.76811  0.0000E+00  0.9649E-09  0.2730E-12  0.1709E-09  0.2138E-33  0.8414E+16
   -1.649778    2.01745  0.0000E+00  0.3558E-08  0.9691E-12  0.5113E-09  0.2809E-34  0.9200E+16
   -1.718520    2.33663  0.0000E+00  0.1280E-07  0.3361E-11  0.1671E-08  0.3516E-35  0.9960E+16
   -1.787263    2.78562  0.0000E+00  0.4449E-07  0.1128E-10  0.8554E-08  0.4186E-36  0.8508E+16
   -1.856004    3.44439  0.0000E+00  0.9842E-07  0.2475E-10  0.2974E-04  0.4732E-37  0.3160E+16
   -1.924746    4.01807  0.0000E+00  0.1160E-06  0.2960E-10  0.1342E-03  0.5016E-38  0.1564E+15
   -1.993488    4.10628  0.0000E+00  0.1192E-06  0.3064E-10  0.1629E-03  0.1778E-39 -0.1810E+13
   -2.062229    4.10726  0.0000E+00  0.1212E-06  0.3158E-10  0.1667E-03  0.1298E-39 -0.1905E+13
   -2.130970    4.10827  0.0000E+00  0.1227E-06  0.3263E-10  0.1664E-03  0.9314E-40 -0.1952E+13
   -2.199710    4.10930  0.0000E+00  0.1237E-06  0.3381E-10  0.1640E-03  0.6598E-40 -0.2006E+13
   -2.268450    4.11034  0.0000E+00  0.1243E-06  0.3523E-10  0.1596E-03  0.4471E-40 -0.2085E+13
   -2.337189    4.11142  0.0000E+00  0.1243E-06  0.3706E-10  0.1522E-03  0.2934E-40 -0.2211E+13
   -2.405929    4.11255  0.0000E+00  0.1238E-06  0.3954E-10  0.1419E-03  0.1848E-40 -0.2404E+13
   -2.474667    4.11377  0.0000E+00  0.1226E-06  0.4327E-10  0.1270E-03  0.1107E-40 -0.2730E+13
   -2.543405    4.11515  0.0000E+00  0.1199E-06  0.5037E-10  0.9047E-04  0.6094E-41 -0.3934E+13
   -2.612142    4.11712  0.0000E+00  0.1132E-06  0.6880E-10  0.4754E-04  0.2463E-41 -0.7882E+13
   -2.680879    4.12096  0.0000E+00  0.7284E-07  0.2256E-09  0.4038E-05  0.5993E-42 -0.1176E+15
   -2.749615    4.16870  0.0000E+00  0.0000E+00  0.0000E+00  0.0000E+00  0.6574E-42  0.0000E+00
