 1 - depth, m
 2 - temperature, C
 3 - salinity, kg/kg
 4 - turbulent kinetic energy, m**2/s**2
 5 - dissipation rate, m**2/s**3
 6 - kinematic heat conductance, m**2/s
 7 - modulus of horizontal velocity, m/s
 8 - Richardson number, n/d
   -0.000000    6.64068  0.0000E+00  0.4186E-04  0.9589E-05  0.4905E-04  0.4317E-01 -0.5383E-01
   -0.068736    6.69023  0.0000E+00  0.2439E-04  0.2194E-05  0.8366E-04  0.1881E-01 -0.2591E+00
   -0.137473    6.70584  0.0000E+00  0.1829E-04  0.8524E-06  0.1226E-03  0.1379E-01  0.4324E+02
   -0.206211    6.71620  0.0000E+00  0.1460E-04  0.3913E-06  0.1621E-03  0.1080E-01  0.1404E+02
   -0.274949    6.72390  0.0000E+00  0.1237E-04  0.2069E-06  0.2037E-03  0.8757E-02  0.5453E+01
   -0.343688    6.72996  0.0000E+00  0.1087E-04  0.1237E-06  0.2479E-03  0.7201E-02  0.5303E+01
   -0.412427    6.73486  0.0000E+00  0.9772E-05  0.8159E-07  0.2968E-03  0.5986E-02  0.1596E+02
   -0.481167    6.73888  0.0000E+00  0.8909E-05  0.5785E-07  0.3671E-03  0.5020E-02  0.8611E+02
   -0.549907    6.74217  0.0000E+00  0.8194E-05  0.4306E-07  0.4339E-03  0.4247E-02  0.7135E+03
   -0.618648    6.74493  0.0000E+00  0.7604E-05  0.3328E-07  0.4995E-03  0.3632E-02  0.1326E+03
   -0.687389    6.74728  0.0000E+00  0.7112E-05  0.2648E-07  0.5656E-03  0.3132E-02  0.1560E+02
   -0.756130    6.74929  0.0000E+00  0.6703E-05  0.2159E-07  0.6426E-03  0.2722E-02  0.5444E+03
   -0.824872    6.75101  0.0000E+00  0.6365E-05  0.1800E-07  0.7316E-03  0.2384E-02  0.5376E+02
   -0.893614    6.75245  0.0000E+00  0.6086E-05  0.1532E-07  0.8158E-03  0.2104E-02  0.1184E+02
   -0.962356    6.75367  0.0000E+00  0.5857E-05  0.1328E-07  0.8908E-03  0.1872E-02  0.3714E+03
   -1.031098    6.75472  0.0000E+00  0.5667E-05  0.1170E-07  0.9622E-03  0.1675E-02  0.3426E+02
   -1.099841    6.75564  0.0000E+00  0.5507E-05  0.1046E-07  0.1026E-02  0.1503E-02  0.1415E+02
   -1.168583    6.75645  0.0000E+00  0.5370E-05  0.9462E-08  0.1079E-02  0.1349E-02  0.4802E+02
   -1.237326    6.75720  0.0000E+00  0.5248E-05  0.8639E-08  0.1120E-02  0.1210E-02  0.5865E+01
   -1.306069    6.75791  0.0000E+00  0.5138E-05  0.7954E-08  0.1154E-02  0.1083E-02  0.2635E+01
   -1.374812    6.75858  0.0000E+00  0.5037E-05  0.7377E-08  0.1178E-02  0.9670E-03  0.2637E+01
   -1.443555    6.75924  0.0000E+00  0.4941E-05  0.6890E-08  0.1199E-02  0.8592E-03  0.2713E+01
   -1.512298    6.75987  0.0000E+00  0.4851E-05  0.6481E-08  0.1215E-02  0.7595E-03  0.2672E+01
   -1.581040    6.76050  0.0000E+00  0.4765E-05  0.6138E-08  0.1227E-02  0.6699E-03  0.2696E+01
   -1.649783    6.76111  0.0000E+00  0.4683E-05  0.5856E-08  0.1233E-02  0.5908E-03  0.2744E+01
   -1.718526    6.76171  0.0000E+00  0.4604E-05  0.5629E-08  0.1232E-02  0.5212E-03  0.2907E+01
   -1.787268    6.76231  0.0000E+00  0.4529E-05  0.5452E-08  0.1224E-02  0.4601E-03  0.3097E+01
   -1.856010    6.76290  0.0000E+00  0.4458E-05  0.5321E-08  0.1209E-02  0.4064E-03  0.3452E+01
   -1.924752    6.76351  0.0000E+00  0.4389E-05  0.5232E-08  0.1188E-02  0.3593E-03  0.3857E+01
   -1.993494    6.76411  0.0000E+00  0.4322E-05  0.5186E-08  0.1160E-02  0.3179E-03  0.4512E+01
   -2.062235    6.76473  0.0000E+00  0.4258E-05  0.5180E-08  0.1126E-02  0.2813E-03  0.5287E+01
   -2.130976    6.76537  0.0000E+00  0.4195E-05  0.5216E-08  0.1086E-02  0.2488E-03  0.6494E+01
   -2.199717    6.76602  0.0000E+00  0.4132E-05  0.5300E-08  0.1038E-02  0.2194E-03  0.8156E+01
   -2.268457    6.76670  0.0000E+00  0.4067E-05  0.5442E-08  0.9831E-03  0.1922E-03  0.1078E+02
   -2.337197    6.76741  0.0000E+00  0.3997E-05  0.5667E-08  0.9164E-03  0.1675E-03  0.1516E+02
   -2.405936    6.76817  0.0000E+00  0.3918E-05  0.6019E-08  0.8356E-03  0.1443E-03  0.2369E+02
   -2.474675    6.76900  0.0000E+00  0.3824E-05  0.6583E-08  0.7368E-03  0.1224E-03  0.4067E+02
   -2.543413    6.76993  0.0000E+00  0.3706E-05  0.7576E-08  0.6151E-03  0.1014E-03  0.8630E+02
   -2.612150    6.77105  0.0000E+00  0.3523E-05  0.9818E-08  0.4765E-03  0.8163E-04  0.4093E+03
   -2.680887    6.77249  0.0000E+00  0.2238E-05  0.3543E-07  0.2056E-04  0.6204E-04 -0.2695E+05
   -2.749624    6.80541  0.0000E+00  0.0000E+00  0.0000E+00  0.0000E+00  0.6201E-04  0.0000E+00
