 1 - depth, m
 2 - temperature, C
 3 - salinity, kg/kg
 4 - turbulent kinetic energy, m**2/s**2
 5 - dissipation rate, m**2/s**3
 6 - kinematic heat conductance, m**2/s
 7 - modulus of horizontal velocity, m/s
 8 - Richardson number, n/d
   -0.000000    0.00000  0.0000E+00  0.1083E-11  0.2396E-15  0.1000E-09  0.0000E+00  0.1776E+17
   -0.068729    0.27673  0.0000E+00  0.2605E-11  0.2615E-15  0.1000E-09  0.0000E+00  0.1591E+17
   -0.137458    0.54464  0.0000E+00  0.5827E-11  0.4398E-15  0.1000E-09  0.0000E+00  0.1425E+17
   -0.206188    0.80489  0.0000E+00  0.1193E-10  0.8196E-15  0.1000E-09  0.0000E+00  0.1275E+17
   -0.274919    1.05848  0.0000E+00  0.2336E-10  0.1541E-14  0.1000E-09  0.0000E+00  0.1143E+17
   -0.343650    1.30718  0.0000E+00  0.4476E-10  0.2876E-14  0.1000E-09  0.0000E+00  0.1022E+17
   -0.412382    1.55208  0.0000E+00  0.8477E-10  0.5326E-14  0.1000E-09  0.0000E+00  0.9105E+16
   -0.481114    1.79416  0.0000E+00  0.1592E-09  0.9797E-14  0.1000E-09  0.0000E+00  0.8056E+16
   -0.549847    2.03422  0.0000E+00  0.2976E-09  0.1794E-13  0.1000E-09  0.0000E+00  0.7053E+16
   -0.618580    2.27276  0.0000E+00  0.5533E-09  0.3268E-13  0.1000E-09  0.0000E+00  0.6098E+16
   -0.687313    2.51072  0.0000E+00  0.1023E-08  0.5923E-13  0.1000E-09  0.0000E+00  0.5237E+16
   -0.756047    2.75219  0.0000E+00  0.1881E-08  0.1068E-12  0.1241E-09  0.0000E+00  0.4381E+16
   -0.824781    2.99962  0.0000E+00  0.3439E-08  0.1915E-12  0.2820E-09  0.0000E+00  0.3457E+16
   -0.893516    3.25265  0.0000E+00  0.6255E-08  0.3416E-12  0.7068E-09  0.0000E+00  0.2461E+16
   -0.962250    3.50973  0.0000E+00  0.1131E-07  0.6060E-12  0.2189E-08  0.0000E+00  0.1410E+16
   -1.030985    3.76687  0.0000E+00  0.2018E-07  0.1062E-11  0.1440E-07  0.0000E+00  0.3759E+15
   -1.099720    4.00322  0.0000E+00  0.2059E-07  0.1085E-11  0.1354E-03  0.0000E+00 -0.5886E+11
   -1.168455    4.00345  0.0000E+00  0.2078E-07  0.1098E-11  0.1369E-03  0.0000E+00 -0.7054E+11
   -1.237191    4.00371  0.0000E+00  0.2096E-07  0.1111E-11  0.1421E-03  0.0000E+00 -0.7130E+11
   -1.305926    4.00397  0.0000E+00  0.2111E-07  0.1126E-11  0.1464E-03  0.0000E+00 -0.7153E+11
   -1.374661    4.00422  0.0000E+00  0.2125E-07  0.1141E-11  0.1475E-03  0.0000E+00 -0.7244E+11
   -1.443397    4.00448  0.0000E+00  0.2137E-07  0.1158E-11  0.1471E-03  0.0000E+00 -0.7384E+11
   -1.512132    4.00474  0.0000E+00  0.2148E-07  0.1176E-11  0.1464E-03  0.0000E+00 -0.7545E+11
   -1.580867    4.00500  0.0000E+00  0.2157E-07  0.1197E-11  0.1453E-03  0.0000E+00 -0.7729E+11
   -1.649602    4.00526  0.0000E+00  0.2166E-07  0.1219E-11  0.1439E-03  0.0000E+00 -0.7940E+11
   -1.718337    4.00553  0.0000E+00  0.2173E-07  0.1244E-11  0.1421E-03  0.0000E+00 -0.8179E+11
   -1.787072    4.00579  0.0000E+00  0.2179E-07  0.1273E-11  0.1400E-03  0.0000E+00 -0.8455E+11
   -1.855807    4.00607  0.0000E+00  0.2183E-07  0.1304E-11  0.1374E-03  0.0000E+00 -0.8771E+11
   -1.924541    4.00635  0.0000E+00  0.2186E-07  0.1340E-11  0.1343E-03  0.0000E+00 -0.9140E+11
   -1.993275    4.00664  0.0000E+00  0.2186E-07  0.1380E-11  0.1308E-03  0.0000E+00 -0.9569E+11
   -2.062009    4.00694  0.0000E+00  0.2185E-07  0.1427E-11  0.1267E-03  0.0000E+00 -0.1005E+12
   -2.130743    4.00725  0.0000E+00  0.2182E-07  0.1481E-11  0.1221E-03  0.0000E+00 -0.1060E+12
   -2.199476    4.00757  0.0000E+00  0.2175E-07  0.1549E-11  0.1167E-03  0.0000E+00 -0.1129E+12
   -2.268208    4.00790  0.0000E+00  0.2164E-07  0.1644E-11  0.1024E-03  0.0000E+00 -0.1312E+12
   -2.336940    4.00829  0.0000E+00  0.2147E-07  0.1781E-11  0.8241E-04  0.0000E+00 -0.1669E+12
   -2.405672    4.00877  0.0000E+00  0.2120E-07  0.1983E-11  0.6619E-04  0.0000E+00 -0.2138E+12
   -2.474403    4.00937  0.0000E+00  0.2080E-07  0.2297E-11  0.5121E-04  0.0000E+00 -0.2868E+12
   -2.543134    4.01015  0.0000E+00  0.2014E-07  0.2870E-11  0.3504E-04  0.0000E+00 -0.4417E+12
   -2.611864    4.01130  0.0000E+00  0.1883E-07  0.4297E-11  0.1761E-04  0.0000E+00 -0.9635E+12
   -2.680594    4.01365  0.0000E+00  0.1246E-07  0.1511E-10  0.1648E-05  0.0000E+00 -0.1584E+14
   -2.749323    4.03895  0.0000E+00  0.0000E+00  0.0000E+00  0.0000E+00  0.0000E+00  0.0000E+00
