 1 - depth, m
 2 - temperature, C
 3 - salinity, kg/kg
 4 - turbulent kinetic energy, m**2/s**2
 5 - dissipation rate, m**2/s**3
 6 - kinematic heat conductance, m**2/s
 7 - modulus of horizontal velocity, m/s
 8 - Richardson number, n/d
   -0.000000   12.37245  0.0000E+00  0.1936E-03  0.1320E-02  0.1245E-03  0.1311E+00  0.2543E-01
   -0.068728   12.42638  0.0000E+00  0.1044E-03  0.7532E-03  0.1669E-03  0.4440E-01 -0.1679E-01
   -0.137458   12.43681  0.0000E+00  0.7445E-04  0.4615E-03  0.1664E-03  0.3336E-01 -0.2376E-01
   -0.206187   12.44451  0.0000E+00  0.5570E-04  0.2159E-03  0.1788E-03  0.2716E-01 -0.6983E-01
   -0.274918   12.45049  0.0000E+00  0.4330E-04  0.5752E-04  0.1976E-03  0.2280E-01 -0.4155E-01
   -0.343648   12.45551  0.0000E+00  0.3536E-04  0.7568E-05  0.2218E-03  0.1922E-01 -0.5160E-01
   -0.412380   12.45976  0.0000E+00  0.3034E-04  0.9817E-06  0.2494E-03  0.1629E-01 -0.6479E-01
   -0.481112   12.46337  0.0000E+00  0.2674E-04  0.3962E-06  0.2804E-03  0.1390E-01 -0.8149E-01
   -0.549844   12.46639  0.0000E+00  0.2390E-04  0.2619E-06  0.3163E-03  0.1195E-01  0.5252E-01
   -0.618577   12.46901  0.0000E+00  0.2160E-04  0.1900E-06  0.3669E-03  0.1036E-01  0.3810E+01
   -0.687310   12.47125  0.0000E+00  0.1973E-04  0.1437E-06  0.4620E-03  0.9050E-02  0.1091E+03
   -0.756043   12.47313  0.0000E+00  0.1818E-04  0.1122E-06  0.5575E-03  0.7966E-02  0.6670E+02
   -0.824777   12.47473  0.0000E+00  0.1689E-04  0.8996E-07  0.6574E-03  0.7057E-02  0.2922E+02
   -0.893511   12.47609  0.0000E+00  0.1581E-04  0.7372E-07  0.7648E-03  0.6289E-02  0.1494E+02
   -0.962245   12.47726  0.0000E+00  0.1491E-04  0.6165E-07  0.8960E-03  0.5637E-02  0.2097E+03
   -1.030980   12.47824  0.0000E+00  0.1417E-04  0.5256E-07  0.1038E-02  0.5080E-02  0.3028E+03
   -1.099714   12.47904  0.0000E+00  0.1354E-04  0.4555E-07  0.1162E-02  0.4590E-02  0.3115E+02
   -1.168449   12.47971  0.0000E+00  0.1300E-04  0.4000E-07  0.1258E-02  0.4151E-02  0.2273E+04
   -1.237184   12.48030  0.0000E+00  0.1252E-04  0.3550E-07  0.1320E-02  0.3750E-02  0.6749E+01
   -1.305919   12.48082  0.0000E+00  0.1208E-04  0.3178E-07  0.1359E-02  0.3380E-02  0.1751E+02
   -1.374654   12.48132  0.0000E+00  0.1168E-04  0.2865E-07  0.1380E-02  0.3035E-02  0.3868E+01
   -1.443389   12.48180  0.0000E+00  0.1129E-04  0.2598E-07  0.1393E-02  0.2712E-02  0.3797E+01
   -1.512124   12.48227  0.0000E+00  0.1093E-04  0.2370E-07  0.1418E-02  0.2407E-02  0.3346E+01
   -1.580859   12.48273  0.0000E+00  0.1057E-04  0.2173E-07  0.1447E-02  0.2129E-02  0.2883E+01
   -1.649594   12.48317  0.0000E+00  0.1022E-04  0.2006E-07  0.1480E-02  0.1877E-02  0.2533E+01
   -1.718328   12.48360  0.0000E+00  0.9883E-05  0.1864E-07  0.1511E-02  0.1651E-02  0.2253E+01
   -1.787063   12.48401  0.0000E+00  0.9556E-05  0.1746E-07  0.1533E-02  0.1447E-02  0.2017E+01
   -1.855797   12.48441  0.0000E+00  0.9239E-05  0.1651E-07  0.1545E-02  0.1265E-02  0.1813E+01
   -1.924531   12.48480  0.0000E+00  0.8934E-05  0.1576E-07  0.1545E-02  0.1103E-02  0.1630E+01
   -1.993265   12.48519  0.0000E+00  0.8643E-05  0.1522E-07  0.1526E-02  0.9595E-03  0.1461E+01
   -2.061998   12.48557  0.0000E+00  0.8366E-05  0.1487E-07  0.1479E-02  0.8325E-03  0.1302E+01
   -2.130731   12.48596  0.0000E+00  0.8107E-05  0.1473E-07  0.1404E-02  0.7209E-03  0.1152E+01
   -2.199464   12.48637  0.0000E+00  0.7867E-05  0.1478E-07  0.1317E-02  0.6231E-03  0.1019E+01
   -2.268196   12.48680  0.0000E+00  0.7648E-05  0.1505E-07  0.1225E-02  0.5378E-03  0.9065E+00
   -2.336928   12.48726  0.0000E+00  0.7441E-05  0.1556E-07  0.1133E-02  0.4663E-03  0.9256E+00
   -2.405660   12.48774  0.0000E+00  0.7234E-05  0.1642E-07  0.1037E-02  0.4065E-03  0.1221E+01
   -2.474391   12.48827  0.0000E+00  0.7003E-05  0.1793E-07  0.9087E-03  0.3525E-03  0.2203E+01
   -2.543121   12.48887  0.0000E+00  0.6708E-05  0.2091E-07  0.7548E-03  0.2995E-03  0.1503E+03
   -2.611851   12.48961  0.0000E+00  0.6207E-05  0.2939E-07  0.5163E-03  0.2470E-03  0.4136E+03
   -2.680580   12.49124  0.0000E+00  0.3788E-05  0.1024E-06  0.4030E-04  0.1811E-03 -0.3917E+04
   -2.749308   12.50612  0.0000E+00  0.0000E+00  0.0000E+00  0.0000E+00  0.1930E-03  0.0000E+00
