 1 - depth, m
 2 - temperature, C
 3 - salinity, kg/kg
 4 - turbulent kinetic energy, m**2/s**2
 5 - dissipation rate, m**2/s**3
 6 - kinematic heat conductance, m**2/s
 7 - modulus of horizontal velocity, m/s
 8 - Richardson number, n/d
   -0.000000    0.00000  0.0000E+00  0.1219E-13  0.7604E-17  0.1000E-09  0.0000E+00  0.1344E+17
   -0.068738    0.20741  0.0000E+00  0.1219E-13  0.7604E-17  0.1000E-09  0.0000E+00  0.1236E+17
   -0.137476    0.40944  0.0000E+00  0.1219E-13  0.7604E-17  0.1000E-09  0.0000E+00  0.1133E+17
   -0.206214    0.60593  0.0000E+00  0.1219E-13  0.7604E-17  0.1000E-09  0.0000E+00  0.1036E+17
   -0.274954    0.79673  0.0000E+00  0.1219E-13  0.7604E-17  0.1000E-09  0.0000E+00  0.9476E+16
   -0.343694    0.98250  0.0000E+00  0.1219E-13  0.7604E-17  0.1000E-09  0.0000E+00  0.8653E+16
   -0.412434    1.16336  0.0000E+00  0.1565E-13  0.7604E-17  0.1000E-09  0.0000E+00  0.7880E+16
   -0.481175    1.33933  0.0000E+00  0.6764E-13  0.8084E-17  0.1000E-09  0.0000E+00  0.7150E+16
   -0.549916    1.51030  0.0000E+00  0.1724E-12  0.1438E-16  0.1000E-09  0.0000E+00  0.6449E+16
   -0.618658    1.67582  0.0000E+00  0.3713E-12  0.2797E-16  0.1000E-09  0.0000E+00  0.5797E+16
   -0.687400    1.83590  0.0000E+00  0.7537E-12  0.5444E-16  0.1000E-09  0.0000E+00  0.5260E+16
   -0.756143    1.99265  0.0000E+00  0.1493E-11  0.1050E-15  0.1000E-09  0.0000E+00  0.4792E+16
   -0.824886    2.14747  0.0000E+00  0.2921E-11  0.2007E-15  0.1000E-09  0.0000E+00  0.4343E+16
   -0.893629    2.30041  0.0000E+00  0.5668E-11  0.3810E-15  0.1000E-09  0.0000E+00  0.3912E+16
   -0.962372    2.45155  0.0000E+00  0.1092E-10  0.7187E-15  0.1000E-09  0.0000E+00  0.3496E+16
   -1.031116    2.60088  0.0000E+00  0.2089E-10  0.1346E-14  0.1000E-09  0.0000E+00  0.3098E+16
   -1.099859    2.74853  0.0000E+00  0.3964E-10  0.2502E-14  0.1000E-09  0.0000E+00  0.2713E+16
   -1.168603    2.89445  0.0000E+00  0.7476E-10  0.4622E-14  0.1000E-09  0.0000E+00  0.2340E+16
   -1.237347    3.03858  0.0000E+00  0.1402E-09  0.8488E-14  0.1000E-09  0.0000E+00  0.1981E+16
   -1.306091    3.18081  0.0000E+00  0.2612E-09  0.1550E-13  0.1000E-09  0.0000E+00  0.1634E+16
   -1.374835    3.32100  0.0000E+00  0.4840E-09  0.2815E-13  0.1092E-09  0.0000E+00  0.1312E+16
   -1.443579    3.46027  0.0000E+00  0.8919E-09  0.5085E-13  0.2593E-09  0.0000E+00  0.9983E+15
   -1.512323    3.59878  0.0000E+00  0.1636E-08  0.9146E-13  0.6739E-09  0.0000E+00  0.6907E+15
   -1.581067    3.73642  0.0000E+00  0.2996E-08  0.1643E-12  0.2153E-08  0.0000E+00  0.3882E+15
   -1.649811    3.87217  0.0000E+00  0.5430E-08  0.2923E-12  0.1467E-07  0.0000E+00  0.1014E+15
   -1.718555    3.99642  0.0000E+00  0.5870E-08  0.3172E-12  0.3913E-04  0.0000E+00 -0.7419E+11
   -1.787298    3.99688  0.0000E+00  0.6079E-08  0.3315E-12  0.3987E-04  0.0000E+00 -0.8203E+11
   -1.856041    3.99736  0.0000E+00  0.6267E-08  0.3473E-12  0.4069E-04  0.0000E+00 -0.8564E+11
   -1.924785    3.99785  0.0000E+00  0.6435E-08  0.3646E-12  0.4102E-04  0.0000E+00 -0.8992E+11
   -1.993527    3.99833  0.0000E+00  0.6583E-08  0.3840E-12  0.4086E-04  0.0000E+00 -0.9547E+11
   -2.062270    3.99883  0.0000E+00  0.6709E-08  0.4060E-12  0.3989E-04  0.0000E+00 -0.1025E+12
   -2.131012    3.99934  0.0000E+00  0.6813E-08  0.4315E-12  0.3831E-04  0.0000E+00 -0.1117E+12
   -2.199754    3.99988  0.0000E+00  0.6892E-08  0.4618E-12  0.3614E-04  0.0000E+00 -0.1241E+12
   -2.268495    4.00045  0.0000E+00  0.6944E-08  0.4991E-12  0.3339E-04  0.0000E+00 -0.1417E+12
   -2.337236    4.00107  0.0000E+00  0.6964E-08  0.5489E-12  0.2988E-04  0.0000E+00 -0.1683E+12
   -2.405977    4.00178  0.0000E+00  0.6943E-08  0.6193E-12  0.2549E-04  0.0000E+00 -0.2118E+12
   -2.474716    4.00263  0.0000E+00  0.6859E-08  0.7290E-12  0.2019E-04  0.0000E+00 -0.2927E+12
   -2.543456    4.00374  0.0000E+00  0.6662E-08  0.9317E-12  0.1392E-04  0.0000E+00 -0.4848E+12
   -2.612195    4.00543  0.0000E+00  0.6188E-08  0.1453E-11  0.6848E-05  0.0000E+00 -0.1250E+13
   -2.680933    4.00923  0.0000E+00  0.4415E-08  0.4549E-11  0.9381E-06  0.0000E+00 -0.2028E+14
   -2.749670    4.04212  0.0000E+00  0.0000E+00  0.0000E+00  0.0000E+00  0.0000E+00  0.0000E+00
