 1 - depth, m
 2 - temperature, C
 3 - salinity, kg/kg
 4 - turbulent kinetic energy, m**2/s**2
 5 - dissipation rate, m**2/s**3
 6 - kinematic heat conductance, m**2/s
 7 - modulus of horizontal velocity, m/s
 8 - Richardson number, n/d
   -0.000000    0.00000  0.0000E+00  0.1219E-13  0.7603E-17  0.1000E-09  0.0000E+00  0.1553E+17
   -0.068735    0.24072  0.0000E+00  0.1219E-13  0.7603E-17  0.1000E-09  0.0000E+00  0.1356E+17
   -0.137470    0.46529  0.0000E+00  0.1219E-13  0.7603E-17  0.1000E-09  0.0000E+00  0.1166E+17
   -0.206207    0.67120  0.0000E+00  0.1219E-13  0.7603E-17  0.1000E-09  0.0000E+00  0.9837E+16
   -0.274943    0.85612  0.0000E+00  0.1219E-13  0.7603E-17  0.1000E-09  0.0000E+00  0.8305E+16
   -0.343681    1.02169  0.0000E+00  0.1219E-13  0.7603E-17  0.1000E-09  0.0000E+00  0.6933E+16
   -0.412419    1.16774  0.0000E+00  0.1219E-13  0.7603E-17  0.1000E-09  0.0000E+00  0.5719E+16
   -0.481157    1.29448  0.0000E+00  0.1219E-13  0.7603E-17  0.1000E-09  0.0000E+00  0.4654E+16
   -0.549896    1.40241  0.0000E+00  0.1219E-13  0.7603E-17  0.1000E-09  0.0000E+00  0.3681E+16
   -0.618635    1.49124  0.0000E+00  0.1219E-13  0.7603E-17  0.1000E-09  0.0000E+00  0.2894E+16
   -0.687374    1.56344  0.0000E+00  0.1219E-13  0.7603E-17  0.1000E-09  0.0000E+00  0.2511E+16
   -0.756114    1.62797  0.0000E+00  0.4017E-13  0.7693E-17  0.1000E-09  0.0000E+00  0.2426E+16
   -0.824855    1.69210  0.0000E+00  0.1180E-12  0.1664E-16  0.1000E-09  0.0000E+00  0.2483E+16
   -0.893595    1.75974  0.0000E+00  0.3041E-12  0.3980E-16  0.1000E-09  0.0000E+00  0.2660E+16
   -0.962336    1.83465  0.0000E+00  0.7494E-12  0.9463E-16  0.1000E-09  0.0000E+00  0.2922E+16
   -1.031077    1.92016  0.0000E+00  0.1809E-11  0.2220E-15  0.1000E-09  0.0000E+00  0.3263E+16
   -1.099818    2.02018  0.0000E+00  0.4307E-11  0.5143E-15  0.1000E-09  0.0000E+00  0.3584E+16
   -1.168559    2.13647  0.0000E+00  0.1014E-10  0.1179E-14  0.1000E-09  0.0000E+00  0.3826E+16
   -1.237300    2.26959  0.0000E+00  0.2364E-10  0.2677E-14  0.1000E-09  0.0000E+00  0.3941E+16
   -1.306042    2.41882  0.0000E+00  0.5457E-10  0.6020E-14  0.1000E-09  0.0000E+00  0.3896E+16
   -1.374783    2.58228  0.0000E+00  0.1248E-09  0.1341E-13  0.1000E-09  0.0000E+00  0.3770E+16
   -1.443525    2.76153  0.0000E+00  0.2825E-09  0.2961E-13  0.1000E-09  0.0000E+00  0.3479E+16
   -1.512266    2.95484  0.0000E+00  0.6349E-09  0.6488E-13  0.1090E-09  0.0000E+00  0.3030E+16
   -1.581007    3.16001  0.0000E+00  0.1421E-08  0.1416E-12  0.2948E-09  0.0000E+00  0.2446E+16
   -1.649749    3.37469  0.0000E+00  0.3156E-08  0.3068E-12  0.8904E-09  0.0000E+00  0.1754E+16
   -1.718490    3.59655  0.0000E+00  0.6943E-08  0.6589E-12  0.3412E-08  0.0000E+00  0.9828E+15
   -1.787231    3.82196  0.0000E+00  0.1488E-07  0.1382E-11  0.3414E-07  0.0000E+00  0.2059E+15
   -1.855971    4.01407  0.0000E+00  0.1593E-07  0.1484E-11  0.6646E-04  0.0000E+00 -0.1912E+12
   -1.924712    4.01451  0.0000E+00  0.1639E-07  0.1540E-11  0.6559E-04  0.0000E+00 -0.2376E+12
   -1.993452    4.01504  0.0000E+00  0.1678E-07  0.1600E-11  0.6765E-04  0.0000E+00 -0.2505E+12
   -2.062192    4.01559  0.0000E+00  0.1710E-07  0.1666E-11  0.6753E-04  0.0000E+00 -0.2597E+12
   -2.130932    4.01615  0.0000E+00  0.1737E-07  0.1743E-11  0.6597E-04  0.0000E+00 -0.2732E+12
   -2.199671    4.01673  0.0000E+00  0.1757E-07  0.1837E-11  0.6292E-04  0.0000E+00 -0.2946E+12
   -2.268410    4.01734  0.0000E+00  0.1771E-07  0.1954E-11  0.5767E-04  0.0000E+00 -0.3315E+12
   -2.337148    4.01802  0.0000E+00  0.1777E-07  0.2111E-11  0.5166E-04  0.0000E+00 -0.3840E+12
   -2.405886    4.01878  0.0000E+00  0.1772E-07  0.2331E-11  0.4473E-04  0.0000E+00 -0.4638E+12
   -2.474623    4.01968  0.0000E+00  0.1752E-07  0.2667E-11  0.3636E-04  0.0000E+00 -0.6041E+12
   -2.543360    4.02082  0.0000E+00  0.1707E-07  0.3274E-11  0.2617E-04  0.0000E+00 -0.9154E+12
   -2.612096    4.02247  0.0000E+00  0.1603E-07  0.4766E-11  0.1397E-04  0.0000E+00 -0.2002E+13
   -2.680832    4.02585  0.0000E+00  0.1135E-07  0.1460E-10  0.1767E-05  0.0000E+00 -0.2801E+14
   -2.749567    4.05802  0.0000E+00  0.0000E+00  0.0000E+00  0.0000E+00  0.0000E+00  0.0000E+00
