 1 - depth, m
 2 - temperature, C
 3 - salinity, kg/kg
 4 - turbulent kinetic energy, m**2/s**2
 5 - dissipation rate, m**2/s**3
 6 - kinematic heat conductance, m**2/s
 7 - modulus of horizontal velocity, m/s
 8 - Richardson number, n/d
   -0.000000    0.00000  0.0000E+00  0.1219E-13  0.7603E-17  0.1000E-09  0.0000E+00  0.1466E+17
   -0.068759    0.22678  0.0000E+00  0.4695E-13  0.7603E-17  0.1000E-09  0.0000E+00  0.1364E+17
   -0.137519    0.45171  0.0000E+00  0.1311E-12  0.1147E-16  0.1000E-09  0.0000E+00  0.1262E+17
   -0.206280    0.67427  0.0000E+00  0.2905E-12  0.2142E-16  0.1000E-09  0.0000E+00  0.1161E+17
   -0.275041    0.89400  0.0000E+00  0.5898E-12  0.4096E-16  0.1000E-09  0.0000E+00  0.1065E+17
   -0.343802    1.11102  0.0000E+00  0.1155E-11  0.7774E-16  0.1000E-09  0.0000E+00  0.9707E+16
   -0.412564    1.32507  0.0000E+00  0.2224E-11  0.1462E-15  0.1000E-09  0.0000E+00  0.8794E+16
   -0.481327    1.53585  0.0000E+00  0.4244E-11  0.2731E-15  0.1000E-09  0.0000E+00  0.7908E+16
   -0.550090    1.74296  0.0000E+00  0.8052E-11  0.5075E-15  0.1000E-09  0.0000E+00  0.7043E+16
   -0.618853    1.94576  0.0000E+00  0.1519E-10  0.9382E-15  0.1000E-09  0.0000E+00  0.6216E+16
   -0.687617    2.14386  0.0000E+00  0.2850E-10  0.1725E-14  0.1000E-09  0.0000E+00  0.5464E+16
   -0.756381    2.33822  0.0000E+00  0.5318E-10  0.3155E-14  0.1000E-09  0.0000E+00  0.4763E+16
   -0.825146    2.52927  0.0000E+00  0.9868E-10  0.5739E-14  0.1000E-09  0.0000E+00  0.4087E+16
   -0.893911    2.71652  0.0000E+00  0.1821E-09  0.1038E-13  0.1000E-09  0.0000E+00  0.3441E+16
   -0.962676    2.89944  0.0000E+00  0.3344E-09  0.1870E-13  0.1000E-09  0.0000E+00  0.2827E+16
   -1.031441    3.07748  0.0000E+00  0.6099E-09  0.3345E-13  0.1000E-09  0.0000E+00  0.2256E+16
   -1.100206    3.25035  0.0000E+00  0.1105E-08  0.5947E-13  0.1752E-09  0.0000E+00  0.1728E+16
   -1.168972    3.41768  0.0000E+00  0.1992E-08  0.1051E-12  0.4300E-09  0.0000E+00  0.1245E+16
   -1.237737    3.57931  0.0000E+00  0.3569E-08  0.1849E-12  0.1166E-08  0.0000E+00  0.8073E+15
   -1.306503    3.73507  0.0000E+00  0.6353E-08  0.3231E-12  0.3984E-08  0.0000E+00  0.4129E+15
   -1.375269    3.88350  0.0000E+00  0.1108E-07  0.5543E-12  0.3508E-07  0.0000E+00  0.8042E+14
   -1.444035    4.00402  0.0000E+00  0.1143E-07  0.5729E-12  0.8862E-04  0.0000E+00 -0.6075E+11
   -1.512800    4.00424  0.0000E+00  0.1160E-07  0.5838E-12  0.8625E-04  0.0000E+00 -0.6802E+11
   -1.581566    4.00448  0.0000E+00  0.1177E-07  0.5964E-12  0.8627E-04  0.0000E+00 -0.7016E+11
   -1.650331    4.00472  0.0000E+00  0.1191E-07  0.6093E-12  0.8953E-04  0.0000E+00 -0.6907E+11
   -1.719097    4.00496  0.0000E+00  0.1202E-07  0.6224E-12  0.9058E-04  0.0000E+00 -0.6952E+11
   -1.787862    4.00519  0.0000E+00  0.1211E-07  0.6364E-12  0.9117E-04  0.0000E+00 -0.7029E+11
   -1.856627    4.00543  0.0000E+00  0.1219E-07  0.6522E-12  0.9049E-04  0.0000E+00 -0.7207E+11
   -1.925392    4.00567  0.0000E+00  0.1226E-07  0.6706E-12  0.8895E-04  0.0000E+00 -0.7462E+11
   -1.994156    4.00591  0.0000E+00  0.1231E-07  0.6926E-12  0.8695E-04  0.0000E+00 -0.7779E+11
   -2.062920    4.00617  0.0000E+00  0.1234E-07  0.7194E-12  0.8063E-04  0.0000E+00 -0.8518E+11
   -2.131684    4.00644  0.0000E+00  0.1234E-07  0.7520E-12  0.7260E-04  0.0000E+00 -0.9613E+11
   -2.200448    4.00674  0.0000E+00  0.1233E-07  0.7920E-12  0.6510E-04  0.0000E+00 -0.1091E+12
   -2.269211    4.00708  0.0000E+00  0.1227E-07  0.8427E-12  0.5832E-04  0.0000E+00 -0.1245E+12
   -2.337973    4.00746  0.0000E+00  0.1218E-07  0.9112E-12  0.5123E-04  0.0000E+00 -0.1455E+12
   -2.406735    4.00789  0.0000E+00  0.1203E-07  0.1009E-11  0.4317E-04  0.0000E+00 -0.1781E+12
   -2.475497    4.00841  0.0000E+00  0.1178E-07  0.1162E-11  0.3394E-04  0.0000E+00 -0.2360E+12
   -2.544258    4.00908  0.0000E+00  0.1138E-07  0.1442E-11  0.2338E-04  0.0000E+00 -0.3644E+12
   -2.613019    4.01008  0.0000E+00  0.1056E-07  0.2147E-11  0.1168E-04  0.0000E+00 -0.8163E+12
   -2.681778    4.01218  0.0000E+00  0.6976E-08  0.7032E-11  0.1178E-05  0.0000E+00 -0.1279E+14
   -2.750538    4.03430  0.0000E+00  0.0000E+00  0.0000E+00  0.0000E+00  0.0000E+00  0.0000E+00
