 1 - depth, m
 2 - temperature, C
 3 - salinity, kg/kg
 4 - turbulent kinetic energy, m**2/s**2
 5 - dissipation rate, m**2/s**3
 6 - kinematic heat conductance, m**2/s
 7 - modulus of horizontal velocity, m/s
 8 - Richardson number, n/d
   -0.000000    0.00000  0.0000E+00  0.1219E-13  0.7603E-17  0.1000E-09  0.0000E+00  0.1331E+17
   -0.068735    0.20525  0.0000E+00  0.1219E-13  0.7603E-17  0.1000E-09  0.0000E+00  0.1243E+17
   -0.137470    0.40827  0.0000E+00  0.1219E-13  0.7603E-17  0.1000E-09  0.0000E+00  0.1158E+17
   -0.206206    0.60916  0.0000E+00  0.3075E-13  0.7603E-17  0.1000E-09  0.0000E+00  0.1076E+17
   -0.274943    0.80790  0.0000E+00  0.9837E-13  0.9334E-17  0.1000E-09  0.0000E+00  0.9987E+16
   -0.343680    1.00481  0.0000E+00  0.2269E-12  0.1639E-16  0.1000E-09  0.0000E+00  0.9229E+16
   -0.412418    1.19976  0.0000E+00  0.4625E-12  0.3061E-16  0.1000E-09  0.0000E+00  0.8484E+16
   -0.481156    1.39251  0.0000E+00  0.8981E-12  0.5714E-16  0.1000E-09  0.0000E+00  0.7750E+16
   -0.549895    1.58268  0.0000E+00  0.1709E-11  0.1059E-15  0.1000E-09  0.0000E+00  0.7023E+16
   -0.618634    1.76967  0.0000E+00  0.3217E-11  0.1948E-15  0.1000E-09  0.0000E+00  0.6318E+16
   -0.687373    1.95311  0.0000E+00  0.6008E-11  0.3561E-15  0.1000E-09  0.0000E+00  0.5664E+16
   -0.756113    2.13350  0.0000E+00  0.1114E-10  0.6468E-15  0.1000E-09  0.0000E+00  0.5046E+16
   -0.824853    2.31101  0.0000E+00  0.2054E-10  0.1168E-14  0.1000E-09  0.0000E+00  0.4448E+16
   -0.893593    2.48530  0.0000E+00  0.3764E-10  0.2096E-14  0.1000E-09  0.0000E+00  0.3873E+16
   -0.962334    2.65603  0.0000E+00  0.6858E-10  0.3742E-14  0.1000E-09  0.0000E+00  0.3324E+16
   -1.031075    2.82287  0.0000E+00  0.1241E-09  0.6634E-14  0.1000E-09  0.0000E+00  0.2809E+16
   -1.099816    2.98577  0.0000E+00  0.2229E-09  0.1168E-13  0.1000E-09  0.0000E+00  0.2324E+16
   -1.168557    3.14451  0.0000E+00  0.3981E-09  0.2045E-13  0.1000E-09  0.0000E+00  0.1872E+16
   -1.237298    3.29890  0.0000E+00  0.7070E-09  0.3561E-13  0.1248E-09  0.0000E+00  0.1452E+16
   -1.306039    3.44876  0.0000E+00  0.1249E-08  0.6166E-13  0.2948E-09  0.0000E+00  0.1065E+16
   -1.374780    3.59387  0.0000E+00  0.2193E-08  0.1062E-12  0.7535E-09  0.0000E+00  0.7175E+15
   -1.443522    3.73556  0.0000E+00  0.3827E-08  0.1818E-12  0.2351E-08  0.0000E+00  0.3937E+15
   -1.512263    3.87337  0.0000E+00  0.6605E-08  0.3082E-12  0.1585E-07  0.0000E+00  0.9907E+14
   -1.581004    3.99732  0.0000E+00  0.6956E-08  0.3254E-12  0.5589E-04  0.0000E+00 -0.5268E+11
   -1.649745    3.99762  0.0000E+00  0.7118E-08  0.3349E-12  0.5617E-04  0.0000E+00 -0.6023E+11
   -1.718486    3.99795  0.0000E+00  0.7262E-08  0.3450E-12  0.5659E-04  0.0000E+00 -0.6229E+11
   -1.787227    3.99829  0.0000E+00  0.7389E-08  0.3560E-12  0.5655E-04  0.0000E+00 -0.6428E+11
   -1.855968    3.99863  0.0000E+00  0.7501E-08  0.3682E-12  0.5599E-04  0.0000E+00 -0.6675E+11
   -1.924708    3.99897  0.0000E+00  0.7596E-08  0.3819E-12  0.5489E-04  0.0000E+00 -0.6993E+11
   -1.993448    3.99932  0.0000E+00  0.7675E-08  0.3975E-12  0.5312E-04  0.0000E+00 -0.7417E+11
   -2.062188    3.99968  0.0000E+00  0.7736E-08  0.4154E-12  0.5088E-04  0.0000E+00 -0.7957E+11
   -2.130927    4.00005  0.0000E+00  0.7777E-08  0.4364E-12  0.4817E-04  0.0000E+00 -0.8644E+11
   -2.199666    4.00045  0.0000E+00  0.7796E-08  0.4617E-12  0.4494E-04  0.0000E+00 -0.9541E+11
   -2.268405    4.00087  0.0000E+00  0.7790E-08  0.4931E-12  0.4112E-04  0.0000E+00 -0.1078E+12
   -2.337143    4.00134  0.0000E+00  0.7751E-08  0.5351E-12  0.3649E-04  0.0000E+00 -0.1263E+12
   -2.405881    4.00186  0.0000E+00  0.7670E-08  0.5950E-12  0.3092E-04  0.0000E+00 -0.1559E+12
   -2.474618    4.00249  0.0000E+00  0.7523E-08  0.6884E-12  0.2435E-04  0.0000E+00 -0.2095E+12
   -2.543355    4.00330  0.0000E+00  0.7255E-08  0.8607E-12  0.1670E-04  0.0000E+00 -0.3320E+12
   -2.612091    4.00450  0.0000E+00  0.6682E-08  0.1301E-11  0.8143E-05  0.0000E+00 -0.7908E+12
   -2.680826    4.00709  0.0000E+00  0.4381E-08  0.4141E-11  0.8578E-06  0.0000E+00 -0.1335E+14
   -2.749561    4.03254  0.0000E+00  0.0000E+00  0.0000E+00  0.0000E+00  0.0000E+00  0.0000E+00
