 1 - depth, m
 2 - temperature, C
 3 - salinity, kg/kg
 4 - turbulent kinetic energy, m**2/s**2
 5 - dissipation rate, m**2/s**3
 6 - kinematic heat conductance, m**2/s
 7 - modulus of horizontal velocity, m/s
 8 - Richardson number, n/d
   -0.000000    0.00000  0.0000E+00  0.1219E-13  0.7604E-17  0.1000E-09  0.0000E+00  0.1260E+17
   -0.068784    0.19413  0.0000E+00  0.1219E-13  0.7604E-17  0.1000E-09  0.0000E+00  0.1174E+17
   -0.137569    0.38500  0.0000E+00  0.1219E-13  0.7604E-17  0.1000E-09  0.0000E+00  0.1093E+17
   -0.206355    0.57290  0.0000E+00  0.1219E-13  0.7604E-17  0.1000E-09  0.0000E+00  0.1016E+17
   -0.275141    0.75796  0.0000E+00  0.1219E-13  0.7604E-17  0.1000E-09  0.0000E+00  0.9444E+16
   -0.343928    0.94059  0.0000E+00  0.1219E-13  0.7604E-17  0.1000E-09  0.0000E+00  0.8753E+16
   -0.412715    1.12079  0.0000E+00  0.1219E-13  0.7604E-17  0.1000E-09  0.0000E+00  0.8083E+16
   -0.481503    1.29846  0.0000E+00  0.1374E-13  0.7604E-17  0.1000E-09  0.0000E+00  0.7430E+16
   -0.550291    1.47336  0.0000E+00  0.6391E-13  0.7865E-17  0.1000E-09  0.0000E+00  0.6788E+16
   -0.619080    1.64505  0.0000E+00  0.1655E-12  0.1396E-16  0.1000E-09  0.0000E+00  0.6168E+16
   -0.687869    1.81327  0.0000E+00  0.3587E-12  0.2722E-16  0.1000E-09  0.0000E+00  0.5600E+16
   -0.756658    1.97863  0.0000E+00  0.7305E-12  0.5311E-16  0.1000E-09  0.0000E+00  0.5066E+16
   -0.825448    2.14141  0.0000E+00  0.1451E-11  0.1026E-15  0.1000E-09  0.0000E+00  0.4548E+16
   -0.894238    2.30132  0.0000E+00  0.2846E-11  0.1967E-15  0.1000E-09  0.0000E+00  0.4048E+16
   -0.963028    2.45811  0.0000E+00  0.5535E-11  0.3743E-15  0.1000E-09  0.0000E+00  0.3568E+16
   -1.031818    2.61144  0.0000E+00  0.1068E-10  0.7068E-15  0.1000E-09  0.0000E+00  0.3113E+16
   -1.100609    2.76116  0.0000E+00  0.2044E-10  0.1325E-14  0.1000E-09  0.0000E+00  0.2680E+16
   -1.169400    2.90693  0.0000E+00  0.3886E-10  0.2467E-14  0.1000E-09  0.0000E+00  0.2271E+16
   -1.238190    3.04840  0.0000E+00  0.7344E-10  0.4566E-14  0.1000E-09  0.0000E+00  0.1889E+16
   -1.306981    3.18522  0.0000E+00  0.1379E-09  0.8402E-14  0.1000E-09  0.0000E+00  0.1536E+16
   -1.375772    3.31704  0.0000E+00  0.2576E-09  0.1537E-13  0.1000E-09  0.0000E+00  0.1224E+16
   -1.444563    3.44491  0.0000E+00  0.4783E-09  0.2797E-13  0.1516E-09  0.0000E+00  0.9393E+15
   -1.513354    3.56905  0.0000E+00  0.8839E-09  0.5068E-13  0.3811E-09  0.0000E+00  0.6767E+15
   -1.582145    3.68933  0.0000E+00  0.1632E-08  0.9170E-13  0.1070E-08  0.0000E+00  0.4362E+15
   -1.650935    3.80541  0.0000E+00  0.2996E-08  0.1651E-12  0.3858E-08  0.0000E+00  0.2178E+15
   -1.719726    3.91578  0.0000E+00  0.5377E-08  0.2914E-12  0.3983E-07  0.0000E+00  0.3718E+14
   -1.788516    4.00151  0.0000E+00  0.5797E-08  0.3153E-12  0.4315E-04  0.0000E+00 -0.7406E+11
   -1.857306    4.00182  0.0000E+00  0.5985E-08  0.3282E-12  0.4257E-04  0.0000E+00 -0.8558E+11
   -1.926096    4.00217  0.0000E+00  0.6145E-08  0.3419E-12  0.4222E-04  0.0000E+00 -0.8861E+11
   -1.994886    4.00252  0.0000E+00  0.6280E-08  0.3569E-12  0.4133E-04  0.0000E+00 -0.9184E+11
   -2.063675    4.00288  0.0000E+00  0.6390E-08  0.3738E-12  0.4022E-04  0.0000E+00 -0.9669E+11
   -2.132464    4.00325  0.0000E+00  0.6475E-08  0.3931E-12  0.3862E-04  0.0000E+00 -0.1034E+12
   -2.201253    4.00363  0.0000E+00  0.6534E-08  0.4160E-12  0.3643E-04  0.0000E+00 -0.1126E+12
   -2.270041    4.00404  0.0000E+00  0.6564E-08  0.4443E-12  0.3368E-04  0.0000E+00 -0.1259E+12
   -2.338829    4.00449  0.0000E+00  0.6561E-08  0.4819E-12  0.3017E-04  0.0000E+00 -0.1461E+12
   -2.407616    4.00500  0.0000E+00  0.6516E-08  0.5353E-12  0.2580E-04  0.0000E+00 -0.1790E+12
   -2.476403    4.00560  0.0000E+00  0.6408E-08  0.6185E-12  0.2050E-04  0.0000E+00 -0.2394E+12
   -2.545189    4.00638  0.0000E+00  0.6189E-08  0.7722E-12  0.1418E-04  0.0000E+00 -0.3799E+12
   -2.613975    4.00755  0.0000E+00  0.5695E-08  0.1166E-11  0.6956E-05  0.0000E+00 -0.9185E+12
   -2.682760    4.01015  0.0000E+00  0.3795E-08  0.3581E-11  0.7918E-06  0.0000E+00 -0.1474E+14
   -2.751544    4.03582  0.0000E+00  0.0000E+00  0.0000E+00  0.0000E+00  0.0000E+00  0.0000E+00
