 1 - depth, m
 2 - temperature, C
 3 - salinity, kg/kg
 4 - turbulent kinetic energy, m**2/s**2
 5 - dissipation rate, m**2/s**3
 6 - kinematic heat conductance, m**2/s
 7 - modulus of horizontal velocity, m/s
 8 - Richardson number, n/d
   -0.000000    0.00000  0.0000E+00  0.1168E-12  0.1891E-16  0.1000E-09  0.0000E+00  0.1526E+17
   -0.068760    0.23641  0.0000E+00  0.2427E-12  0.2716E-16  0.1000E-09  0.0000E+00  0.1387E+17
   -0.137520    0.46588  0.0000E+00  0.5551E-12  0.5474E-16  0.1000E-09  0.0000E+00  0.1252E+17
   -0.206281    0.68759  0.0000E+00  0.1246E-11  0.1170E-15  0.1000E-09  0.0000E+00  0.1125E+17
   -0.275043    0.90123  0.0000E+00  0.2742E-11  0.2496E-15  0.1000E-09  0.0000E+00  0.1018E+17
   -0.343805    1.10893  0.0000E+00  0.5935E-11  0.5260E-15  0.1000E-09  0.0000E+00  0.9221E+16
   -0.412567    1.31166  0.0000E+00  0.1269E-10  0.1095E-14  0.1000E-09  0.0000E+00  0.8354E+16
   -0.481330    1.51030  0.0000E+00  0.2681E-10  0.2255E-14  0.1000E-09  0.0000E+00  0.7556E+16
   -0.550094    1.70548  0.0000E+00  0.5610E-10  0.4597E-14  0.1000E-09  0.0000E+00  0.6790E+16
   -0.618858    1.89701  0.0000E+00  0.1161E-09  0.9270E-14  0.1000E-09  0.0000E+00  0.6093E+16
   -0.687622    2.08585  0.0000E+00  0.2378E-09  0.1849E-13  0.1000E-09  0.0000E+00  0.5607E+16
   -0.756387    2.27860  0.0000E+00  0.4814E-09  0.3645E-13  0.1000E-09  0.0000E+00  0.5205E+16
   -0.825152    2.48015  0.0000E+00  0.9642E-09  0.7106E-13  0.1000E-09  0.0000E+00  0.4763E+16
   -0.893917    2.69252  0.0000E+00  0.1911E-08  0.1371E-12  0.1639E-09  0.0000E+00  0.4260E+16
   -0.962683    2.91855  0.0000E+00  0.3746E-08  0.2617E-12  0.3633E-09  0.0000E+00  0.3668E+16
   -1.031449    3.16246  0.0000E+00  0.7262E-08  0.4940E-12  0.8616E-09  0.0000E+00  0.2915E+16
   -1.100214    3.42903  0.0000E+00  0.1391E-07  0.9222E-12  0.2474E-08  0.0000E+00  0.1892E+16
   -1.168980    3.72033  0.0000E+00  0.2621E-07  0.1695E-11  0.1559E-07  0.0000E+00  0.5534E+15
   -1.237747    4.00796  0.0000E+00  0.2675E-07  0.1732E-11  0.1443E-03  0.0000E+00 -0.9047E+11
   -1.306513    4.00823  0.0000E+00  0.2701E-07  0.1753E-11  0.1444E-03  0.0000E+00 -0.1061E+12
   -1.375279    4.00853  0.0000E+00  0.2724E-07  0.1776E-11  0.1514E-03  0.0000E+00 -0.1053E+12
   -1.444045    4.00884  0.0000E+00  0.2744E-07  0.1800E-11  0.1545E-03  0.0000E+00 -0.1054E+12
   -1.512811    4.00913  0.0000E+00  0.2761E-07  0.1826E-11  0.1548E-03  0.0000E+00 -0.1069E+12
   -1.581578    4.00943  0.0000E+00  0.2776E-07  0.1854E-11  0.1541E-03  0.0000E+00 -0.1091E+12
   -1.650344    4.00973  0.0000E+00  0.2789E-07  0.1886E-11  0.1531E-03  0.0000E+00 -0.1116E+12
   -1.719110    4.01003  0.0000E+00  0.2801E-07  0.1921E-11  0.1517E-03  0.0000E+00 -0.1146E+12
   -1.787875    4.01034  0.0000E+00  0.2810E-07  0.1961E-11  0.1498E-03  0.0000E+00 -0.1181E+12
   -1.856641    4.01065  0.0000E+00  0.2817E-07  0.2006E-11  0.1474E-03  0.0000E+00 -0.1221E+12
   -1.925406    4.01097  0.0000E+00  0.2822E-07  0.2057E-11  0.1446E-03  0.0000E+00 -0.1270E+12
   -1.994171    4.01129  0.0000E+00  0.2824E-07  0.2115E-11  0.1412E-03  0.0000E+00 -0.1327E+12
   -2.062936    4.01163  0.0000E+00  0.2823E-07  0.2181E-11  0.1371E-03  0.0000E+00 -0.1385E+12
   -2.131700    4.01198  0.0000E+00  0.2819E-07  0.2259E-11  0.1324E-03  0.0000E+00 -0.1452E+12
   -2.200464    4.01234  0.0000E+00  0.2812E-07  0.2350E-11  0.1271E-03  0.0000E+00 -0.1532E+12
   -2.269228    4.01271  0.0000E+00  0.2799E-07  0.2476E-11  0.1189E-03  0.0000E+00 -0.1663E+12
   -2.337991    4.01311  0.0000E+00  0.2776E-07  0.2667E-11  0.9440E-04  0.0000E+00 -0.2132E+12
   -2.406753    4.01361  0.0000E+00  0.2742E-07  0.2951E-11  0.7433E-04  0.0000E+00 -0.2771E+12
   -2.475515    4.01425  0.0000E+00  0.2690E-07  0.3397E-11  0.5740E-04  0.0000E+00 -0.3701E+12
   -2.544277    4.01509  0.0000E+00  0.2606E-07  0.4207E-11  0.3964E-04  0.0000E+00 -0.5607E+12
   -2.613038    4.01630  0.0000E+00  0.2438E-07  0.6214E-11  0.2027E-04  0.0000E+00 -0.1189E+13
   -2.681798    4.01874  0.0000E+00  0.1595E-07  0.2189E-10  0.1842E-05  0.0000E+00 -0.1953E+14
   -2.750558    4.04586  0.0000E+00  0.0000E+00  0.0000E+00  0.0000E+00  0.0000E+00  0.0000E+00
