 1 - depth, m
 2 - temperature, C
 3 - salinity, kg/kg
 4 - turbulent kinetic energy, m**2/s**2
 5 - dissipation rate, m**2/s**3
 6 - kinematic heat conductance, m**2/s
 7 - modulus of horizontal velocity, m/s
 8 - Richardson number, n/d
   -0.000000    0.00000  0.0000E+00  0.1219E-13  0.7603E-17  0.1000E-09  0.0000E+00  0.9532E+16
   -0.068728    0.14585  0.0000E+00  0.1219E-13  0.7603E-17  0.1000E-09  0.0000E+00  0.8989E+16
   -0.137457    0.28901  0.0000E+00  0.1219E-13  0.7603E-17  0.1000E-09  0.0000E+00  0.8441E+16
   -0.206187    0.42902  0.0000E+00  0.1219E-13  0.7603E-17  0.1000E-09  0.0000E+00  0.7896E+16
   -0.274917    0.56551  0.0000E+00  0.1219E-13  0.7603E-17  0.1000E-09  0.0000E+00  0.7387E+16
   -0.343648    0.69862  0.0000E+00  0.1219E-13  0.7603E-17  0.1000E-09  0.0000E+00  0.6895E+16
   -0.412379    0.82824  0.0000E+00  0.1219E-13  0.7603E-17  0.1000E-09  0.0000E+00  0.6421E+16
   -0.481111    0.95418  0.0000E+00  0.1219E-13  0.7603E-17  0.1000E-09  0.0000E+00  0.5961E+16
   -0.549843    1.07625  0.0000E+00  0.1219E-13  0.7603E-17  0.1000E-09  0.0000E+00  0.5507E+16
   -0.618576    1.19399  0.0000E+00  0.1219E-13  0.7603E-17  0.1000E-09  0.0000E+00  0.5075E+16
   -0.687309    1.30728  0.0000E+00  0.1219E-13  0.7603E-17  0.1000E-09  0.0000E+00  0.4719E+16
   -0.756042    1.41733  0.0000E+00  0.1219E-13  0.7603E-17  0.1000E-09  0.0000E+00  0.4413E+16
   -0.824776    1.52489  0.0000E+00  0.1219E-13  0.7603E-17  0.1000E-09  0.0000E+00  0.4120E+16
   -0.893510    1.62993  0.0000E+00  0.1219E-13  0.7603E-17  0.1000E-09  0.0000E+00  0.3840E+16
   -0.962244    1.73240  0.0000E+00  0.1219E-13  0.7603E-17  0.1000E-09  0.0000E+00  0.3572E+16
   -1.030978    1.83225  0.0000E+00  0.1219E-13  0.7603E-17  0.1000E-09  0.0000E+00  0.3321E+16
   -1.099713    1.92959  0.0000E+00  0.1219E-13  0.7603E-17  0.1000E-09  0.0000E+00  0.3081E+16
   -1.168447    2.02436  0.0000E+00  0.1219E-13  0.7603E-17  0.1000E-09  0.0000E+00  0.2852E+16
   -1.237182    2.11653  0.0000E+00  0.1219E-13  0.7603E-17  0.1000E-09  0.0000E+00  0.2635E+16
   -1.305917    2.20603  0.0000E+00  0.1219E-13  0.7603E-17  0.1000E-09  0.0000E+00  0.2427E+16
   -1.374652    2.29279  0.0000E+00  0.1219E-13  0.7603E-17  0.1000E-09  0.0000E+00  0.2260E+16
   -1.443387    2.37792  0.0000E+00  0.1219E-13  0.7603E-17  0.1000E-09  0.0000E+00  0.2110E+16
   -1.512122    2.46178  0.0000E+00  0.1219E-13  0.7603E-17  0.1000E-09  0.0000E+00  0.1968E+16
   -1.580857    2.54453  0.0000E+00  0.1219E-13  0.7603E-17  0.1000E-09  0.0000E+00  0.1833E+16
   -1.649591    2.62620  0.0000E+00  0.1219E-13  0.7603E-17  0.1000E-09  0.0000E+00  0.1701E+16
   -1.718326    2.70678  0.0000E+00  0.1219E-13  0.7603E-17  0.1000E-09  0.0000E+00  0.1573E+16
   -1.787060    2.78620  0.0000E+00  0.1219E-13  0.7603E-17  0.1000E-09  0.0000E+00  0.1449E+16
   -1.855794    2.86443  0.0000E+00  0.1219E-13  0.7603E-17  0.1000E-09  0.0000E+00  0.1329E+16
   -1.924528    2.94139  0.0000E+00  0.1219E-13  0.7603E-17  0.1000E-09  0.0000E+00  0.1212E+16
   -1.993262    3.01699  0.0000E+00  0.1219E-13  0.7603E-17  0.1000E-09  0.0000E+00  0.1099E+16
   -2.061995    3.09116  0.0000E+00  0.1219E-13  0.7603E-17  0.1000E-09  0.0000E+00  0.1012E+16
   -2.130728    3.16545  0.0000E+00  0.1219E-13  0.7603E-17  0.1000E-09  0.0000E+00  0.9295E+15
   -2.199461    3.24025  0.0000E+00  0.1219E-13  0.7603E-17  0.1000E-09  0.0000E+00  0.8468E+15
   -2.268193    3.31571  0.0000E+00  0.1219E-13  0.7603E-17  0.1000E-09  0.0000E+00  0.7764E+15
   -2.336925    3.39338  0.0000E+00  0.1220E-13  0.7632E-17  0.1000E-09  0.0000E+00  0.7090E+15
   -2.405656    3.47462  0.0000E+00  0.4045E-13  0.3214E-16  0.1000E-09  0.0000E+00  0.6388E+15
   -2.474387    3.56102  0.0000E+00  0.2934E-12  0.2283E-15  0.1000E-09  0.0000E+00  0.5627E+15
   -2.543117    3.65546  0.0000E+00  0.2230E-11  0.1685E-14  0.1000E-09  0.0000E+00  0.4775E+15
   -2.611847    3.76547  0.0000E+00  0.1752E-10  0.1288E-13  0.1823E-09  0.0000E+00  0.3355E+15
   -2.680576    3.90862  0.0000E+00  0.1511E-09  0.1091E-12  0.7613E-07  0.0000E+00 -0.1410E+14
   -2.749304    4.07491  0.0000E+00  0.0000E+00  0.0000E+00  0.0000E+00  0.0000E+00  0.0000E+00
