 1 - depth, m
 2 - temperature, C
 3 - salinity, kg/kg
 4 - turbulent kinetic energy, m**2/s**2
 5 - dissipation rate, m**2/s**3
 6 - kinematic heat conductance, m**2/s
 7 - modulus of horizontal velocity, m/s
 8 - Richardson number, n/d
   -0.000000    0.00000  0.0000E+00  0.1219E-13  0.7603E-17  0.1000E-09  0.0000E+00  0.1244E+17
   -0.068750    0.19145  0.0000E+00  0.1219E-13  0.7603E-17  0.1000E-09  0.0000E+00  0.1168E+17
   -0.137501    0.38107  0.0000E+00  0.1219E-13  0.7603E-17  0.1000E-09  0.0000E+00  0.1093E+17
   -0.206253    0.56867  0.0000E+00  0.1219E-13  0.7603E-17  0.1000E-09  0.0000E+00  0.1019E+17
   -0.275005    0.75403  0.0000E+00  0.1219E-13  0.7603E-17  0.1000E-09  0.0000E+00  0.9492E+16
   -0.343758    0.93736  0.0000E+00  0.1219E-13  0.7603E-17  0.1000E-09  0.0000E+00  0.8809E+16
   -0.412511    1.11854  0.0000E+00  0.1219E-13  0.7603E-17  0.1000E-09  0.0000E+00  0.8141E+16
   -0.481264    1.29736  0.0000E+00  0.1436E-13  0.7603E-17  0.1000E-09  0.0000E+00  0.7485E+16
   -0.550019    1.47353  0.0000E+00  0.6449E-13  0.7657E-17  0.1000E-09  0.0000E+00  0.6838E+16
   -0.618773    1.64654  0.0000E+00  0.1638E-12  0.1273E-16  0.1000E-09  0.0000E+00  0.6211E+16
   -0.687528    1.81610  0.0000E+00  0.3458E-12  0.2387E-16  0.1000E-09  0.0000E+00  0.5636E+16
   -0.756283    1.98282  0.0000E+00  0.6842E-12  0.4528E-16  0.1000E-09  0.0000E+00  0.5096E+16
   -0.825039    2.14698  0.0000E+00  0.1322E-11  0.8561E-16  0.1000E-09  0.0000E+00  0.4572E+16
   -0.893795    2.30834  0.0000E+00  0.2532E-11  0.1613E-15  0.1000E-09  0.0000E+00  0.4067E+16
   -0.962551    2.46662  0.0000E+00  0.4828E-11  0.3029E-15  0.1000E-09  0.0000E+00  0.3582E+16
   -1.031307    2.62157  0.0000E+00  0.9168E-11  0.5668E-15  0.1000E-09  0.0000E+00  0.3124E+16
   -1.100063    2.77315  0.0000E+00  0.1734E-10  0.1057E-14  0.1000E-09  0.0000E+00  0.2689E+16
   -1.168820    2.92111  0.0000E+00  0.3271E-10  0.1963E-14  0.1000E-09  0.0000E+00  0.2277E+16
   -1.237577    3.06520  0.0000E+00  0.6150E-10  0.3635E-14  0.1000E-09  0.0000E+00  0.1890E+16
   -1.306334    3.20506  0.0000E+00  0.1152E-09  0.6708E-14  0.1000E-09  0.0000E+00  0.1528E+16
   -1.375090    3.34017  0.0000E+00  0.2152E-09  0.1233E-13  0.1000E-09  0.0000E+00  0.1201E+16
   -1.443847    3.47102  0.0000E+00  0.4004E-09  0.2259E-13  0.1288E-09  0.0000E+00  0.8974E+15
   -1.512604    3.59674  0.0000E+00  0.7430E-09  0.4126E-13  0.3396E-09  0.0000E+00  0.6176E+15
   -1.581361    3.71553  0.0000E+00  0.1379E-08  0.7536E-13  0.1024E-08  0.0000E+00  0.3734E+15
   -1.650117    3.82563  0.0000E+00  0.2549E-08  0.1371E-12  0.3986E-08  0.0000E+00  0.1742E+15
   -1.718874    3.92599  0.0000E+00  0.4598E-08  0.2440E-12  0.4585E-07  0.0000E+00  0.2687E+14
   -1.787630    4.00083  0.0000E+00  0.5003E-08  0.2668E-12  0.3874E-04  0.0000E+00 -0.7333E+11
   -1.856386    4.00115  0.0000E+00  0.5187E-08  0.2792E-12  0.3845E-04  0.0000E+00 -0.8329E+11
   -1.925142    4.00150  0.0000E+00  0.5347E-08  0.2925E-12  0.3823E-04  0.0000E+00 -0.8637E+11
   -1.993897    4.00186  0.0000E+00  0.5485E-08  0.3071E-12  0.3747E-04  0.0000E+00 -0.8987E+11
   -2.062653    4.00223  0.0000E+00  0.5602E-08  0.3236E-12  0.3660E-04  0.0000E+00 -0.9524E+11
   -2.131408    4.00260  0.0000E+00  0.5697E-08  0.3425E-12  0.3527E-04  0.0000E+00 -0.1026E+12
   -2.200162    4.00300  0.0000E+00  0.5768E-08  0.3648E-12  0.3338E-04  0.0000E+00 -0.1128E+12
   -2.268916    4.00343  0.0000E+00  0.5813E-08  0.3923E-12  0.3092E-04  0.0000E+00 -0.1272E+12
   -2.337670    4.00390  0.0000E+00  0.5830E-08  0.4286E-12  0.2772E-04  0.0000E+00 -0.1491E+12
   -2.406423    4.00443  0.0000E+00  0.5807E-08  0.4799E-12  0.2370E-04  0.0000E+00 -0.1849E+12
   -2.475176    4.00507  0.0000E+00  0.5729E-08  0.5595E-12  0.1880E-04  0.0000E+00 -0.2511E+12
   -2.543928    4.00591  0.0000E+00  0.5548E-08  0.7060E-12  0.1295E-04  0.0000E+00 -0.4069E+12
   -2.612680    4.00719  0.0000E+00  0.5117E-08  0.1081E-11  0.6290E-05  0.0000E+00 -0.1018E+13
   -2.681430    4.01011  0.0000E+00  0.3485E-08  0.3307E-11  0.7611E-06  0.0000E+00 -0.1605E+14
   -2.750181    4.03746  0.0000E+00  0.0000E+00  0.0000E+00  0.0000E+00  0.0000E+00  0.0000E+00
