 1 - depth, m
 2 - temperature, C
 3 - salinity, kg/kg
 4 - turbulent kinetic energy, m**2/s**2
 5 - dissipation rate, m**2/s**3
 6 - kinematic heat conductance, m**2/s
 7 - modulus of horizontal velocity, m/s
 8 - Richardson number, n/d
   -0.000000    0.00000  0.0000E+00  0.1068E-11  0.2417E-15  0.1000E-09  0.0000E+00  0.2002E+17
   -0.068739    0.31350  0.0000E+00  0.2630E-11  0.2840E-15  0.1000E-09  0.0000E+00  0.1750E+17
   -0.137479    0.61280  0.0000E+00  0.6115E-11  0.5186E-15  0.1000E-09  0.0000E+00  0.1534E+17
   -0.206220    0.90058  0.0000E+00  0.1318E-10  0.1036E-14  0.1000E-09  0.0000E+00  0.1347E+17
   -0.274961    1.17875  0.0000E+00  0.2738E-10  0.2077E-14  0.1000E-09  0.0000E+00  0.1181E+17
   -0.343703    1.44903  0.0000E+00  0.5586E-10  0.4129E-14  0.1000E-09  0.0000E+00  0.1032E+17
   -0.412446    1.71253  0.0000E+00  0.1127E-09  0.8138E-14  0.1000E-09  0.0000E+00  0.8957E+16
   -0.481188    1.97005  0.0000E+00  0.2256E-09  0.1591E-13  0.1000E-09  0.0000E+00  0.7693E+16
   -0.549932    2.22210  0.0000E+00  0.4484E-09  0.3091E-13  0.1000E-09  0.0000E+00  0.6512E+16
   -0.618675    2.46890  0.0000E+00  0.8850E-09  0.5961E-13  0.1000E-09  0.0000E+00  0.5411E+16
   -0.687419    2.71078  0.0000E+00  0.1733E-08  0.1141E-12  0.1319E-09  0.0000E+00  0.4430E+16
   -0.756164    2.95105  0.0000E+00  0.3367E-08  0.2165E-12  0.3144E-09  0.0000E+00  0.3507E+16
   -0.824908    3.19228  0.0000E+00  0.6485E-08  0.4075E-12  0.7968E-09  0.0000E+00  0.2601E+16
   -0.893653    3.43694  0.0000E+00  0.1238E-07  0.7601E-12  0.2293E-08  0.0000E+00  0.1684E+16
   -0.962398    3.69032  0.0000E+00  0.2329E-07  0.1399E-11  0.1140E-07  0.0000E+00  0.6647E+15
   -1.031144    3.95088  0.0000E+00  0.3022E-07  0.1818E-11  0.8407E-04  0.0000E+00  0.2607E+14
   -1.099889    4.01229  0.0000E+00  0.3060E-07  0.1843E-11  0.1776E-03  0.0000E+00 -0.9381E+11
   -1.168635    4.01253  0.0000E+00  0.3082E-07  0.1861E-11  0.1800E-03  0.0000E+00 -0.9787E+11
   -1.237381    4.01277  0.0000E+00  0.3102E-07  0.1880E-11  0.1846E-03  0.0000E+00 -0.9769E+11
   -1.306127    4.01301  0.0000E+00  0.3119E-07  0.1900E-11  0.1860E-03  0.0000E+00 -0.9836E+11
   -1.374873    4.01325  0.0000E+00  0.3133E-07  0.1922E-11  0.1860E-03  0.0000E+00 -0.9884E+11
   -1.443619    4.01348  0.0000E+00  0.3145E-07  0.1945E-11  0.1853E-03  0.0000E+00 -0.9929E+11
   -1.512365    4.01372  0.0000E+00  0.3156E-07  0.1971E-11  0.1843E-03  0.0000E+00 -0.1001E+12
   -1.581111    4.01395  0.0000E+00  0.3164E-07  0.1999E-11  0.1828E-03  0.0000E+00 -0.1012E+12
   -1.649856    4.01419  0.0000E+00  0.3170E-07  0.2030E-11  0.1809E-03  0.0000E+00 -0.1027E+12
   -1.718602    4.01443  0.0000E+00  0.3174E-07  0.2065E-11  0.1785E-03  0.0000E+00 -0.1044E+12
   -1.787347    4.01466  0.0000E+00  0.3176E-07  0.2104E-11  0.1755E-03  0.0000E+00 -0.1067E+12
   -1.856092    4.01491  0.0000E+00  0.3175E-07  0.2148E-11  0.1719E-03  0.0000E+00 -0.1095E+12
   -1.924837    4.01515  0.0000E+00  0.3173E-07  0.2198E-11  0.1680E-03  0.0000E+00 -0.1125E+12
   -1.993582    4.01540  0.0000E+00  0.3167E-07  0.2255E-11  0.1636E-03  0.0000E+00 -0.1160E+12
   -2.062326    4.01566  0.0000E+00  0.3159E-07  0.2321E-11  0.1587E-03  0.0000E+00 -0.1198E+12
   -2.131071    4.01592  0.0000E+00  0.3148E-07  0.2401E-11  0.1526E-03  0.0000E+00 -0.1246E+12
   -2.199814    4.01619  0.0000E+00  0.3133E-07  0.2501E-11  0.1409E-03  0.0000E+00 -0.1344E+12
   -2.268557    4.01648  0.0000E+00  0.3112E-07  0.2636E-11  0.1257E-03  0.0000E+00 -0.1515E+12
   -2.337300    4.01680  0.0000E+00  0.3081E-07  0.2832E-11  0.1033E-03  0.0000E+00 -0.1858E+12
   -2.406043    4.01720  0.0000E+00  0.3038E-07  0.3130E-11  0.8092E-04  0.0000E+00 -0.2394E+12
   -2.474784    4.01770  0.0000E+00  0.2975E-07  0.3603E-11  0.6188E-04  0.0000E+00 -0.3185E+12
   -2.543526    4.01835  0.0000E+00  0.2878E-07  0.4470E-11  0.4230E-04  0.0000E+00 -0.4793E+12
   -2.612266    4.01930  0.0000E+00  0.2691E-07  0.6626E-11  0.2152E-04  0.0000E+00 -0.9981E+12
   -2.681006    4.02120  0.0000E+00  0.1729E-07  0.2412E-10  0.1839E-05  0.0000E+00 -0.1588E+14
   -2.749746    4.04334  0.0000E+00  0.0000E+00  0.0000E+00  0.0000E+00  0.0000E+00  0.0000E+00
