 1 - depth, m
 2 - temperature, C
 3 - salinity, kg/kg
 4 - turbulent kinetic energy, m**2/s**2
 5 - dissipation rate, m**2/s**3
 6 - kinematic heat conductance, m**2/s
 7 - modulus of horizontal velocity, m/s
 8 - Richardson number, n/d
   -0.000000    2.59265  0.0000E+00  0.4944E-03  0.3623E-03  0.1198E-03  0.2300E+00 -0.2521E-02
   -0.068752    2.63899  0.0000E+00  0.2774E-03  0.8948E-04  0.3949E-03  0.6542E-01  0.4994E-02
   -0.137505    2.64790  0.0000E+00  0.2071E-03  0.4341E-04  0.3713E-03  0.5063E-01  0.5298E-02
   -0.206259    2.65421  0.0000E+00  0.1601E-03  0.2410E-04  0.3566E-03  0.4310E-01  0.5075E-02
   -0.275013    2.65883  0.0000E+00  0.1277E-03  0.1373E-04  0.3457E-03  0.3818E-01  0.6701E-02
   -0.343768    2.66268  0.0000E+00  0.1039E-03  0.7866E-05  0.3448E-03  0.3383E-01  0.6037E-02
   -0.412523    2.66614  0.0000E+00  0.8644E-04  0.4617E-05  0.3511E-03  0.2998E-01  0.8123E-02
   -0.481279    2.66933  0.0000E+00  0.7345E-04  0.2820E-05  0.3590E-03  0.2662E-01  0.1066E-01
   -0.550035    2.67236  0.0000E+00  0.6323E-04  0.1811E-05  0.3690E-03  0.2368E-01  0.1430E-01
   -0.618792    2.67529  0.0000E+00  0.5517E-04  0.1230E-05  0.3772E-03  0.2117E-01  0.1919E-01
   -0.687549    2.67816  0.0000E+00  0.4867E-04  0.8761E-06  0.3835E-03  0.1900E-01  0.2607E-01
   -0.756306    2.68103  0.0000E+00  0.4334E-04  0.6483E-06  0.3884E-03  0.1711E-01  0.3572E-01
   -0.825064    2.68391  0.0000E+00  0.3887E-04  0.4938E-06  0.3917E-03  0.1545E-01  0.4979E-01
   -0.893822    2.68684  0.0000E+00  0.3506E-04  0.3847E-06  0.3940E-03  0.1399E-01  0.7139E-01
   -0.962580    2.68987  0.0000E+00  0.3181E-04  0.3055E-06  0.3955E-03  0.1268E-01  0.1080E+00
   -1.031339    2.69304  0.0000E+00  0.2901E-04  0.2470E-06  0.3921E-03  0.1152E-01  0.1487E+00
   -1.100097    2.69647  0.0000E+00  0.2658E-04  0.2027E-06  0.3875E-03  0.1046E-01  0.2122E+00
   -1.168856    2.70027  0.0000E+00  0.2442E-04  0.1685E-06  0.3816E-03  0.9471E-02  0.3244E+00
   -1.237615    2.70467  0.0000E+00  0.2249E-04  0.1417E-06  0.3744E-03  0.8558E-02  0.5624E+00
   -1.306374    2.71026  0.0000E+00  0.2074E-04  0.1202E-06  0.3658E-03  0.7707E-02  0.1273E+01
   -1.375133    2.72066  0.0000E+00  0.1914E-04  0.1028E-06  0.3561E-03  0.6903E-02  0.8217E+01
   -1.443891    2.74170  0.0000E+00  0.1766E-04  0.8833E-07  0.3448E-03  0.6145E-02  0.1608E+03
   -1.512650    2.76895  0.0000E+00  0.1626E-04  0.7611E-07  0.3367E-03  0.5423E-02  0.7605E+04
   -1.581409    2.80124  0.0000E+00  0.1493E-04  0.6564E-07  0.3292E-03  0.4768E-02  0.7166E+06
   -1.650168    2.86071  0.0000E+00  0.1368E-04  0.5659E-07  0.3218E-03  0.4169E-02  0.1348E+09
   -1.718926    3.03470  0.0000E+00  0.1258E-04  0.4893E-07  0.3163E-03  0.3577E-02  0.2784E+11
   -1.787685    3.22933  0.0000E+00  0.1158E-04  0.4246E-07  0.3523E-03  0.3130E-02  0.9833E+12
   -1.856443    3.33495  0.0000E+00  0.1065E-04  0.3695E-07  0.3742E-03  0.2721E-02 -0.3525E+12
   -1.925201    3.37115  0.0000E+00  0.9804E-05  0.3227E-07  0.3677E-03  0.2357E-02 -0.3648E+12
   -1.993959    3.40086  0.0000E+00  0.9045E-05  0.2833E-07  0.3602E-03  0.2042E-02 -0.3579E+12
   -2.062716    3.42173  0.0000E+00  0.8355E-05  0.2501E-07  0.3515E-03  0.1764E-02 -0.3650E+12
   -2.131473    3.43918  0.0000E+00  0.7726E-05  0.2224E-07  0.3412E-03  0.1513E-02 -0.3900E+12
   -2.200230    3.45352  0.0000E+00  0.7150E-05  0.1995E-07  0.3287E-03  0.1283E-02 -0.4526E+12
   -2.268986    3.46508  0.0000E+00  0.6620E-05  0.1809E-07  0.3153E-03  0.1068E-02 -0.5323E+12
   -2.337742    3.47675  0.0000E+00  0.6121E-05  0.1663E-07  0.2979E-03  0.8779E-03 -0.6034E+12
   -2.406497    3.48916  0.0000E+00  0.5649E-05  0.1563E-07  0.2752E-03  0.7120E-03 -0.6954E+12
   -2.475252    3.50197  0.0000E+00  0.5198E-05  0.1521E-07  0.2444E-03  0.5671E-03 -0.8462E+12
   -2.544006    3.51401  0.0000E+00  0.4739E-05  0.1576E-07  0.2014E-03  0.4401E-03 -0.1124E+13
   -2.612760    3.52543  0.0000E+00  0.4191E-05  0.1882E-07  0.1289E-03  0.3291E-03 -0.2465E+13
   -2.681513    3.53789  0.0000E+00  0.2261E-05  0.5240E-07  0.1377E-04  0.2299E-03 -0.5102E+14
   -2.750265    3.60488  0.0000E+00  0.0000E+00  0.0000E+00  0.0000E+00  0.2295E-03  0.0000E+00
