 1 - depth, m
 2 - temperature, C
 3 - salinity, kg/kg
 4 - turbulent kinetic energy, m**2/s**2
 5 - dissipation rate, m**2/s**3
 6 - kinematic heat conductance, m**2/s
 7 - modulus of horizontal velocity, m/s
 8 - Richardson number, n/d
   -0.000000    0.00000  0.0000E+00  0.1219E-13  0.7603E-17  0.1000E-09  0.0000E+00  0.1347E+17
   -0.068732    0.20786  0.0000E+00  0.1219E-13  0.7603E-17  0.1000E-09  0.0000E+00  0.1211E+17
   -0.137466    0.40571  0.0000E+00  0.1219E-13  0.7603E-17  0.1000E-09  0.0000E+00  0.1082E+17
   -0.206199    0.59290  0.0000E+00  0.1219E-13  0.7603E-17  0.1000E-09  0.0000E+00  0.9616E+16
   -0.274934    0.76889  0.0000E+00  0.1219E-13  0.7603E-17  0.1000E-09  0.0000E+00  0.8626E+16
   -0.343669    0.93588  0.0000E+00  0.1219E-13  0.7603E-17  0.1000E-09  0.0000E+00  0.7735E+16
   -0.412404    1.09426  0.0000E+00  0.1219E-13  0.7603E-17  0.1000E-09  0.0000E+00  0.6925E+16
   -0.481140    1.24418  0.0000E+00  0.1219E-13  0.7603E-17  0.1000E-09  0.0000E+00  0.6175E+16
   -0.549876    1.38551  0.0000E+00  0.1219E-13  0.7603E-17  0.1000E-09  0.0000E+00  0.5444E+16
   -0.618613    1.51711  0.0000E+00  0.2925E-13  0.7603E-17  0.1000E-09  0.0000E+00  0.4797E+16
   -0.687350    1.63944  0.0000E+00  0.9504E-13  0.1276E-16  0.1000E-09  0.0000E+00  0.4391E+16
   -0.756087    1.75755  0.0000E+00  0.2433E-12  0.2824E-16  0.1000E-09  0.0000E+00  0.4136E+16
   -0.824825    1.87504  0.0000E+00  0.5746E-12  0.6360E-16  0.1000E-09  0.0000E+00  0.3917E+16
   -0.893563    1.99294  0.0000E+00  0.1319E-11  0.1418E-15  0.1000E-09  0.0000E+00  0.3728E+16
   -0.962301    2.11227  0.0000E+00  0.2986E-11  0.3130E-15  0.1000E-09  0.0000E+00  0.3560E+16
   -1.031040    2.23403  0.0000E+00  0.6686E-11  0.6841E-15  0.1000E-09  0.0000E+00  0.3425E+16
   -1.099779    2.36000  0.0000E+00  0.1483E-10  0.1481E-14  0.1000E-09  0.0000E+00  0.3287E+16
   -1.168517    2.49113  0.0000E+00  0.3261E-10  0.3181E-14  0.1000E-09  0.0000E+00  0.3134E+16
   -1.237256    2.62821  0.0000E+00  0.7114E-10  0.6781E-14  0.1000E-09  0.0000E+00  0.2955E+16
   -1.305995    2.77189  0.0000E+00  0.1540E-09  0.1435E-13  0.1000E-09  0.0000E+00  0.2739E+16
   -1.374734    2.92264  0.0000E+00  0.3310E-09  0.3014E-13  0.1000E-09  0.0000E+00  0.2516E+16
   -1.443473    3.08344  0.0000E+00  0.7062E-09  0.6286E-13  0.1437E-09  0.0000E+00  0.2228E+16
   -1.512212    3.25531  0.0000E+00  0.1498E-08  0.1304E-12  0.3585E-09  0.0000E+00  0.1853E+16
   -1.580951    3.43837  0.0000E+00  0.3169E-08  0.2698E-12  0.9971E-09  0.0000E+00  0.1379E+16
   -1.649690    3.63212  0.0000E+00  0.6657E-08  0.5548E-12  0.3523E-08  0.0000E+00  0.8034E+15
   -1.718428    3.83362  0.0000E+00  0.1367E-07  0.1118E-11  0.3222E-07  0.0000E+00  0.1785E+15
   -1.787167    4.01064  0.0000E+00  0.1453E-07  0.1192E-11  0.6834E-04  0.0000E+00 -0.1486E+12
   -1.855905    4.01103  0.0000E+00  0.1492E-07  0.1232E-11  0.6716E-04  0.0000E+00 -0.1822E+12
   -1.924643    4.01150  0.0000E+00  0.1525E-07  0.1276E-11  0.6914E-04  0.0000E+00 -0.1909E+12
   -1.993381    4.01198  0.0000E+00  0.1554E-07  0.1325E-11  0.7041E-04  0.0000E+00 -0.1993E+12
   -2.062118    4.01247  0.0000E+00  0.1578E-07  0.1379E-11  0.6981E-04  0.0000E+00 -0.2077E+12
   -2.130856    4.01297  0.0000E+00  0.1597E-07  0.1443E-11  0.6777E-04  0.0000E+00 -0.2202E+12
   -2.199592    4.01350  0.0000E+00  0.1612E-07  0.1522E-11  0.6409E-04  0.0000E+00 -0.2399E+12
   -2.268329    4.01405  0.0000E+00  0.1621E-07  0.1620E-11  0.5837E-04  0.0000E+00 -0.2719E+12
   -2.337064    4.01467  0.0000E+00  0.1623E-07  0.1750E-11  0.5202E-04  0.0000E+00 -0.3165E+12
   -2.405800    4.01538  0.0000E+00  0.1615E-07  0.1933E-11  0.4481E-04  0.0000E+00 -0.3835E+12
   -2.474535    4.01621  0.0000E+00  0.1595E-07  0.2213E-11  0.3623E-04  0.0000E+00 -0.5007E+12
   -2.543269    4.01726  0.0000E+00  0.1552E-07  0.2717E-11  0.2585E-04  0.0000E+00 -0.7584E+12
   -2.612003    4.01879  0.0000E+00  0.1454E-07  0.3957E-11  0.1361E-04  0.0000E+00 -0.1651E+13
   -2.680736    4.02189  0.0000E+00  0.1019E-07  0.1216E-10  0.1646E-05  0.0000E+00 -0.2277E+14
   -2.749468    4.05092  0.0000E+00  0.0000E+00  0.0000E+00  0.0000E+00  0.0000E+00  0.0000E+00
