 1 - depth, m
 2 - temperature, C
 3 - salinity, kg/kg
 4 - turbulent kinetic energy, m**2/s**2
 5 - dissipation rate, m**2/s**3
 6 - kinematic heat conductance, m**2/s
 7 - modulus of horizontal velocity, m/s
 8 - Richardson number, n/d
   -0.000000    0.00000  0.0000E+00  0.2088E-11  0.5371E-15  0.1000E-09  0.0000E+00  0.2096E+17
   -0.068748    0.32886  0.0000E+00  0.5500E-11  0.5727E-15  0.1000E-09  0.0000E+00  0.1856E+17
   -0.137496    0.64879  0.0000E+00  0.1263E-10  0.9631E-15  0.1000E-09  0.0000E+00  0.1633E+17
   -0.206246    0.95985  0.0000E+00  0.2606E-10  0.1799E-14  0.1000E-09  0.0000E+00  0.1426E+17
   -0.274995    1.26202  0.0000E+00  0.5119E-10  0.3387E-14  0.1000E-09  0.0000E+00  0.1235E+17
   -0.343746    1.55551  0.0000E+00  0.9821E-10  0.6328E-14  0.1000E-09  0.0000E+00  0.1059E+17
   -0.412497    1.84035  0.0000E+00  0.1861E-09  0.1173E-13  0.1000E-09  0.0000E+00  0.8974E+16
   -0.481248    2.11663  0.0000E+00  0.3500E-09  0.2160E-13  0.1000E-09  0.0000E+00  0.7485E+16
   -0.550000    2.38433  0.0000E+00  0.6548E-09  0.3960E-13  0.1000E-09  0.0000E+00  0.6116E+16
   -0.618752    2.64329  0.0000E+00  0.1218E-08  0.7222E-13  0.1000E-09  0.0000E+00  0.4869E+16
   -0.687504    2.89358  0.0000E+00  0.2255E-08  0.1310E-12  0.1771E-09  0.0000E+00  0.3767E+16
   -0.756257    3.13747  0.0000E+00  0.4150E-08  0.2365E-12  0.4361E-09  0.0000E+00  0.2760E+16
   -0.825011    3.37621  0.0000E+00  0.7594E-08  0.4244E-12  0.1190E-08  0.0000E+00  0.1816E+16
   -0.893764    3.60915  0.0000E+00  0.1380E-07  0.7565E-12  0.4121E-08  0.0000E+00  0.9344E+15
   -0.962518    3.83309  0.0000E+00  0.2452E-07  0.1322E-11  0.3759E-07  0.0000E+00  0.1790E+15
   -1.031272    4.01194  0.0000E+00  0.2492E-07  0.1345E-11  0.1683E-03  0.0000E+00 -0.7145E+11
   -1.100026    4.01211  0.0000E+00  0.2511E-07  0.1358E-11  0.1653E-03  0.0000E+00 -0.7669E+11
   -1.168780    4.01230  0.0000E+00  0.2528E-07  0.1372E-11  0.1689E-03  0.0000E+00 -0.7698E+11
   -1.237534    4.01249  0.0000E+00  0.2543E-07  0.1387E-11  0.1707E-03  0.0000E+00 -0.7736E+11
   -1.306289    4.01268  0.0000E+00  0.2557E-07  0.1403E-11  0.1705E-03  0.0000E+00 -0.7842E+11
   -1.375043    4.01287  0.0000E+00  0.2569E-07  0.1420E-11  0.1701E-03  0.0000E+00 -0.7936E+11
   -1.443798    4.01306  0.0000E+00  0.2579E-07  0.1439E-11  0.1693E-03  0.0000E+00 -0.8039E+11
   -1.512552    4.01325  0.0000E+00  0.2588E-07  0.1460E-11  0.1682E-03  0.0000E+00 -0.8165E+11
   -1.581307    4.01344  0.0000E+00  0.2595E-07  0.1483E-11  0.1666E-03  0.0000E+00 -0.8314E+11
   -1.650061    4.01364  0.0000E+00  0.2601E-07  0.1509E-11  0.1648E-03  0.0000E+00 -0.8489E+11
   -1.718815    4.01384  0.0000E+00  0.2605E-07  0.1537E-11  0.1625E-03  0.0000E+00 -0.8691E+11
   -1.787569    4.01404  0.0000E+00  0.2608E-07  0.1570E-11  0.1598E-03  0.0000E+00 -0.8928E+11
   -1.856323    4.01424  0.0000E+00  0.2609E-07  0.1606E-11  0.1567E-03  0.0000E+00 -0.9203E+11
   -1.925076    4.01445  0.0000E+00  0.2608E-07  0.1647E-11  0.1531E-03  0.0000E+00 -0.9527E+11
   -1.993829    4.01467  0.0000E+00  0.2606E-07  0.1694E-11  0.1489E-03  0.0000E+00 -0.9907E+11
   -2.062582    4.01489  0.0000E+00  0.2601E-07  0.1748E-11  0.1442E-03  0.0000E+00 -0.1033E+12
   -2.131335    4.01512  0.0000E+00  0.2594E-07  0.1811E-11  0.1389E-03  0.0000E+00 -0.1083E+12
   -2.200087    4.01536  0.0000E+00  0.2584E-07  0.1886E-11  0.1330E-03  0.0000E+00 -0.1142E+12
   -2.268839    4.01561  0.0000E+00  0.2569E-07  0.1989E-11  0.1217E-03  0.0000E+00 -0.1263E+12
   -2.337590    4.01588  0.0000E+00  0.2545E-07  0.2149E-11  0.9516E-04  0.0000E+00 -0.1638E+12
   -2.406341    4.01623  0.0000E+00  0.2511E-07  0.2385E-11  0.7459E-04  0.0000E+00 -0.2129E+12
   -2.475091    4.01668  0.0000E+00  0.2461E-07  0.2758E-11  0.5719E-04  0.0000E+00 -0.2846E+12
   -2.543841    4.01728  0.0000E+00  0.2383E-07  0.3439E-11  0.3904E-04  0.0000E+00 -0.4329E+12
   -2.612590    4.01816  0.0000E+00  0.2229E-07  0.5133E-11  0.1967E-04  0.0000E+00 -0.9199E+12
   -2.681339    4.01995  0.0000E+00  0.1449E-07  0.1853E-10  0.1711E-05  0.0000E+00 -0.1454E+14
   -2.750087    4.04098  0.0000E+00  0.0000E+00  0.0000E+00  0.0000E+00  0.0000E+00  0.0000E+00
