 1 - depth, m
 2 - temperature, C
 3 - salinity, kg/kg
 4 - turbulent kinetic energy, m**2/s**2
 5 - dissipation rate, m**2/s**3
 6 - kinematic heat conductance, m**2/s
 7 - modulus of horizontal velocity, m/s
 8 - Richardson number, n/d
   -0.000000    6.05572  0.0000E+00  0.5762E-04  0.1382E-04  0.6321E-04  0.5604E-01 -0.1033E+00
   -0.068782    6.11802  0.0000E+00  0.3122E-04  0.3007E-05  0.9509E-04  0.2258E-01 -0.5394E+00
   -0.137566    6.13454  0.0000E+00  0.2271E-04  0.1130E-05  0.1367E-03  0.1672E-01  0.4138E+02
   -0.206349    6.14604  0.0000E+00  0.1769E-04  0.5055E-06  0.1746E-03  0.1321E-01  0.7651E+01
   -0.275134    6.15515  0.0000E+00  0.1473E-04  0.2638E-06  0.2146E-03  0.1074E-01  0.1818E+02
   -0.343919    6.16264  0.0000E+00  0.1278E-04  0.1568E-06  0.2561E-03  0.8827E-02  0.1625E+02
   -0.412704    6.16888  0.0000E+00  0.1137E-04  0.1030E-06  0.2978E-03  0.7326E-02  0.3023E+02
   -0.481490    6.17414  0.0000E+00  0.1026E-04  0.7251E-07  0.3400E-03  0.6128E-02  0.6155E+01
   -0.550276    6.17867  0.0000E+00  0.9317E-05  0.5345E-07  0.3827E-03  0.5156E-02  0.4020E+02
   -0.619063    6.18259  0.0000E+00  0.8529E-05  0.4081E-07  0.4255E-03  0.4377E-02  0.1023E+02
   -0.687850    6.18604  0.0000E+00  0.7862E-05  0.3202E-07  0.4694E-03  0.3741E-02  0.4230E+01
   -0.756638    6.18908  0.0000E+00  0.7297E-05  0.2568E-07  0.5161E-03  0.3217E-02  0.2024E+01
   -0.825425    6.19177  0.0000E+00  0.6818E-05  0.2099E-07  0.5744E-03  0.2784E-02  0.7201E+02
   -0.894213    6.19408  0.0000E+00  0.6418E-05  0.1749E-07  0.6724E-03  0.2424E-02  0.1179E+03
   -0.963002    6.19595  0.0000E+00  0.6092E-05  0.1490E-07  0.7890E-03  0.2132E-02  0.2967E+02
   -1.031790    6.19744  0.0000E+00  0.5826E-05  0.1294E-07  0.8785E-03  0.1896E-02  0.3238E+02
   -1.100579    6.19868  0.0000E+00  0.5601E-05  0.1141E-07  0.9551E-03  0.1693E-02  0.5432E+02
   -1.169368    6.19975  0.0000E+00  0.5408E-05  0.1018E-07  0.1013E-02  0.1514E-02  0.7200E+01
   -1.238157    6.20070  0.0000E+00  0.5238E-05  0.9176E-08  0.1057E-02  0.1355E-02  0.1493E+02
   -1.306946    6.20158  0.0000E+00  0.5085E-05  0.8339E-08  0.1089E-02  0.1209E-02  0.4273E+01
   -1.375735    6.20241  0.0000E+00  0.4944E-05  0.7631E-08  0.1112E-02  0.1076E-02  0.3921E+01
   -1.444524    6.20320  0.0000E+00  0.4813E-05  0.7031E-08  0.1131E-02  0.9529E-03  0.3620E+01
   -1.513313    6.20396  0.0000E+00  0.4691E-05  0.6521E-08  0.1146E-02  0.8389E-03  0.3644E+01
   -1.582102    6.20469  0.0000E+00  0.4575E-05  0.6088E-08  0.1156E-02  0.7366E-03  0.3728E+01
   -1.650890    6.20541  0.0000E+00  0.4467E-05  0.5724E-08  0.1161E-02  0.6462E-03  0.3907E+01
   -1.719679    6.20610  0.0000E+00  0.4365E-05  0.5423E-08  0.1161E-02  0.5666E-03  0.4186E+01
   -1.788468    6.20678  0.0000E+00  0.4269E-05  0.5178E-08  0.1156E-02  0.4968E-03  0.4557E+01
   -1.857256    6.20746  0.0000E+00  0.4179E-05  0.4984E-08  0.1145E-02  0.4356E-03  0.5068E+01
   -1.926044    6.20812  0.0000E+00  0.4094E-05  0.4836E-08  0.1128E-02  0.3821E-03  0.5722E+01
   -1.994832    6.20878  0.0000E+00  0.4015E-05  0.4733E-08  0.1106E-02  0.3354E-03  0.6601E+01
   -2.063619    6.20943  0.0000E+00  0.3940E-05  0.4672E-08  0.1078E-02  0.2946E-03  0.7734E+01
   -2.132406    6.21009  0.0000E+00  0.3870E-05  0.4653E-08  0.1044E-02  0.2589E-03  0.9276E+01
   -2.201193    6.21076  0.0000E+00  0.3803E-05  0.4675E-08  0.1005E-02  0.2273E-03  0.1157E+02
   -2.269980    6.21143  0.0000E+00  0.3737E-05  0.4747E-08  0.9596E-03  0.1987E-03  0.1492E+02
   -2.338765    6.21211  0.0000E+00  0.3668E-05  0.4883E-08  0.9029E-03  0.1726E-03  0.2075E+02
   -2.407551    6.21283  0.0000E+00  0.3592E-05  0.5114E-08  0.8332E-03  0.1483E-03  0.3147E+02
   -2.476336    6.21358  0.0000E+00  0.3508E-05  0.5501E-08  0.7450E-03  0.1256E-03  0.5263E+02
   -2.545120    6.21441  0.0000E+00  0.3406E-05  0.6188E-08  0.6535E-03  0.1041E-03  0.1087E+03
   -2.613904    6.21533  0.0000E+00  0.3236E-05  0.7921E-08  0.4375E-03  0.8498E-04  0.7915E+03
   -2.682687    6.21670  0.0000E+00  0.1984E-05  0.2922E-07  0.1856E-04  0.6092E-04 -0.4337E+05
   -2.751469    6.24763  0.0000E+00  0.0000E+00  0.0000E+00  0.0000E+00  0.6086E-04  0.0000E+00
