 1 - depth, m
 2 - temperature, C
 3 - salinity, kg/kg
 4 - turbulent kinetic energy, m**2/s**2
 5 - dissipation rate, m**2/s**3
 6 - kinematic heat conductance, m**2/s
 7 - modulus of horizontal velocity, m/s
 8 - Richardson number, n/d
   -0.000000    0.00000  0.0000E+00  0.2141E-11  0.5518E-15  0.1000E-09  0.0000E+00  0.2136E+17
   -0.068755    0.33544  0.0000E+00  0.5641E-11  0.5804E-15  0.1000E-09  0.0000E+00  0.1874E+17
   -0.137512    0.65928  0.0000E+00  0.1290E-10  0.9639E-15  0.1000E-09  0.0000E+00  0.1634E+17
   -0.206268    0.97171  0.0000E+00  0.2645E-10  0.1783E-14  0.1000E-09  0.0000E+00  0.1417E+17
   -0.275026    1.27325  0.0000E+00  0.5158E-10  0.3330E-14  0.1000E-09  0.0000E+00  0.1222E+17
   -0.343783    1.56469  0.0000E+00  0.9818E-10  0.6174E-14  0.1000E-09  0.0000E+00  0.1045E+17
   -0.412542    1.84672  0.0000E+00  0.1846E-09  0.1136E-13  0.1000E-09  0.0000E+00  0.8854E+16
   -0.481301    2.11997  0.0000E+00  0.3445E-09  0.2077E-13  0.1000E-09  0.0000E+00  0.7397E+16
   -0.550060    2.38485  0.0000E+00  0.6398E-09  0.3782E-13  0.1000E-09  0.0000E+00  0.6064E+16
   -0.618820    2.64149  0.0000E+00  0.1182E-08  0.6854E-13  0.1000E-09  0.0000E+00  0.4845E+16
   -0.687580    2.89000  0.0000E+00  0.2174E-08  0.1236E-12  0.1672E-09  0.0000E+00  0.3764E+16
   -0.756340    3.13262  0.0000E+00  0.3976E-08  0.2218E-12  0.4077E-09  0.0000E+00  0.2769E+16
   -0.825101    3.37040  0.0000E+00  0.7232E-08  0.3959E-12  0.1100E-08  0.0000E+00  0.1832E+16
   -0.893862    3.60249  0.0000E+00  0.1307E-07  0.7025E-12  0.3739E-08  0.0000E+00  0.9565E+15
   -0.962623    3.82584  0.0000E+00  0.2317E-07  0.1225E-11  0.3155E-07  0.0000E+00  0.1977E+15
   -1.031385    4.00979  0.0000E+00  0.2356E-07  0.1247E-11  0.1617E-03  0.0000E+00 -0.6715E+11
   -1.100146    4.00997  0.0000E+00  0.2375E-07  0.1259E-11  0.1576E-03  0.0000E+00 -0.7312E+11
   -1.168908    4.01017  0.0000E+00  0.2391E-07  0.1272E-11  0.1620E-03  0.0000E+00 -0.7353E+11
   -1.237670    4.01036  0.0000E+00  0.2406E-07  0.1287E-11  0.1651E-03  0.0000E+00 -0.7378E+11
   -1.306432    4.01056  0.0000E+00  0.2420E-07  0.1302E-11  0.1652E-03  0.0000E+00 -0.7502E+11
   -1.375194    4.01075  0.0000E+00  0.2432E-07  0.1319E-11  0.1648E-03  0.0000E+00 -0.7614E+11
   -1.443956    4.01095  0.0000E+00  0.2442E-07  0.1337E-11  0.1641E-03  0.0000E+00 -0.7728E+11
   -1.512718    4.01115  0.0000E+00  0.2451E-07  0.1357E-11  0.1630E-03  0.0000E+00 -0.7864E+11
   -1.581480    4.01135  0.0000E+00  0.2459E-07  0.1379E-11  0.1615E-03  0.0000E+00 -0.8023E+11
   -1.650242    4.01156  0.0000E+00  0.2465E-07  0.1404E-11  0.1597E-03  0.0000E+00 -0.8206E+11
   -1.719003    4.01176  0.0000E+00  0.2470E-07  0.1432E-11  0.1575E-03  0.0000E+00 -0.8418E+11
   -1.787765    4.01197  0.0000E+00  0.2474E-07  0.1462E-11  0.1549E-03  0.0000E+00 -0.8663E+11
   -1.856526    4.01219  0.0000E+00  0.2475E-07  0.1497E-11  0.1519E-03  0.0000E+00 -0.8948E+11
   -1.925287    4.01241  0.0000E+00  0.2475E-07  0.1537E-11  0.1484E-03  0.0000E+00 -0.9281E+11
   -1.994048    4.01263  0.0000E+00  0.2474E-07  0.1581E-11  0.1444E-03  0.0000E+00 -0.9671E+11
   -2.062808    4.01287  0.0000E+00  0.2470E-07  0.1633E-11  0.1397E-03  0.0000E+00 -0.1011E+12
   -2.131568    4.01311  0.0000E+00  0.2463E-07  0.1693E-11  0.1346E-03  0.0000E+00 -0.1062E+12
   -2.200328    4.01336  0.0000E+00  0.2454E-07  0.1765E-11  0.1288E-03  0.0000E+00 -0.1123E+12
   -2.269087    4.01362  0.0000E+00  0.2441E-07  0.1864E-11  0.1172E-03  0.0000E+00 -0.1251E+12
   -2.337846    4.01391  0.0000E+00  0.2419E-07  0.2015E-11  0.9216E-04  0.0000E+00 -0.1616E+12
   -2.406605    4.01429  0.0000E+00  0.2387E-07  0.2239E-11  0.7255E-04  0.0000E+00 -0.2097E+12
   -2.475363    4.01476  0.0000E+00  0.2340E-07  0.2592E-11  0.5570E-04  0.0000E+00 -0.2808E+12
   -2.544120    4.01538  0.0000E+00  0.2266E-07  0.3235E-11  0.3800E-04  0.0000E+00 -0.4287E+12
   -2.612877    4.01631  0.0000E+00  0.2120E-07  0.4835E-11  0.1910E-04  0.0000E+00 -0.9178E+12
   -2.681633    4.01820  0.0000E+00  0.1383E-07  0.1737E-10  0.1686E-05  0.0000E+00 -0.1465E+14
   -2.750388    4.04006  0.0000E+00  0.0000E+00  0.0000E+00  0.0000E+00  0.0000E+00  0.0000E+00
