 1 - depth, m
 2 - temperature, C
 3 - salinity, kg/kg
 4 - turbulent kinetic energy, m**2/s**2
 5 - dissipation rate, m**2/s**3
 6 - kinematic heat conductance, m**2/s
 7 - modulus of horizontal velocity, m/s
 8 - Richardson number, n/d
   -0.000000    0.00000  0.0000E+00  0.1219E-13  0.7604E-17  0.1000E-09  0.0000E+00  0.9929E+16
   -0.068733    0.15204  0.0000E+00  0.1219E-13  0.7604E-17  0.1000E-09  0.0000E+00  0.9199E+16
   -0.137466    0.29887  0.0000E+00  0.1219E-13  0.7604E-17  0.1000E-09  0.0000E+00  0.8523E+16
   -0.206199    0.44068  0.0000E+00  0.1219E-13  0.7604E-17  0.1000E-09  0.0000E+00  0.7893E+16
   -0.274934    0.57761  0.0000E+00  0.1219E-13  0.7604E-17  0.1000E-09  0.0000E+00  0.7338E+16
   -0.343669    0.71034  0.0000E+00  0.1219E-13  0.7604E-17  0.1000E-09  0.0000E+00  0.6822E+16
   -0.412404    0.83905  0.0000E+00  0.1219E-13  0.7604E-17  0.1000E-09  0.0000E+00  0.6336E+16
   -0.481140    0.96376  0.0000E+00  0.1219E-13  0.7604E-17  0.1000E-09  0.0000E+00  0.5872E+16
   -0.549876    1.08437  0.0000E+00  0.1219E-13  0.7604E-17  0.1000E-09  0.0000E+00  0.5415E+16
   -0.618613    1.20045  0.0000E+00  0.1219E-13  0.7604E-17  0.1000E-09  0.0000E+00  0.4983E+16
   -0.687350    1.31194  0.0000E+00  0.1219E-13  0.7604E-17  0.1000E-09  0.0000E+00  0.4640E+16
   -0.756088    1.42030  0.0000E+00  0.1219E-13  0.7604E-17  0.1000E-09  0.0000E+00  0.4350E+16
   -0.824826    1.52642  0.0000E+00  0.1219E-13  0.7604E-17  0.1000E-09  0.0000E+00  0.4073E+16
   -0.893564    1.63030  0.0000E+00  0.1219E-13  0.7604E-17  0.1000E-09  0.0000E+00  0.3808E+16
   -0.962302    1.73191  0.0000E+00  0.1219E-13  0.7604E-17  0.1000E-09  0.0000E+00  0.3554E+16
   -1.031040    1.83122  0.0000E+00  0.1219E-13  0.7604E-17  0.1000E-09  0.0000E+00  0.3316E+16
   -1.099779    1.92838  0.0000E+00  0.1219E-13  0.7604E-17  0.1000E-09  0.0000E+00  0.3090E+16
   -1.168518    2.02337  0.0000E+00  0.1219E-13  0.7604E-17  0.1000E-09  0.0000E+00  0.2872E+16
   -1.237257    2.11614  0.0000E+00  0.1219E-13  0.7604E-17  0.1000E-09  0.0000E+00  0.2664E+16
   -1.305996    2.20665  0.0000E+00  0.1219E-13  0.7604E-17  0.1000E-09  0.0000E+00  0.2465E+16
   -1.374735    2.29483  0.0000E+00  0.1219E-13  0.7604E-17  0.1000E-09  0.0000E+00  0.2307E+16
   -1.443474    2.38189  0.0000E+00  0.1219E-13  0.7604E-17  0.1000E-09  0.0000E+00  0.2164E+16
   -1.512213    2.46820  0.0000E+00  0.1219E-13  0.7604E-17  0.1000E-09  0.0000E+00  0.2027E+16
   -1.580952    2.55389  0.0000E+00  0.1219E-13  0.7604E-17  0.1000E-09  0.0000E+00  0.1894E+16
   -1.649691    2.63897  0.0000E+00  0.1219E-13  0.7604E-17  0.1000E-09  0.0000E+00  0.1762E+16
   -1.718429    2.72339  0.0000E+00  0.1219E-13  0.7604E-17  0.1000E-09  0.0000E+00  0.1632E+16
   -1.787168    2.80704  0.0000E+00  0.1219E-13  0.7604E-17  0.1000E-09  0.0000E+00  0.1503E+16
   -1.855906    2.88984  0.0000E+00  0.1219E-13  0.7604E-17  0.1000E-09  0.0000E+00  0.1376E+16
   -1.924644    2.97167  0.0000E+00  0.1219E-13  0.7604E-17  0.1000E-09  0.0000E+00  0.1252E+16
   -1.993382    3.05242  0.0000E+00  0.1219E-13  0.7604E-17  0.1000E-09  0.0000E+00  0.1130E+16
   -2.062120    3.13195  0.0000E+00  0.1219E-13  0.7604E-17  0.1000E-09  0.0000E+00  0.1035E+16
   -2.130857    3.21202  0.0000E+00  0.1219E-13  0.7604E-17  0.1000E-09  0.0000E+00  0.9416E+15
   -2.199594    3.29298  0.0000E+00  0.1219E-13  0.7604E-17  0.1000E-09  0.0000E+00  0.8466E+15
   -2.268330    3.37497  0.0000E+00  0.1219E-13  0.7630E-17  0.1000E-09  0.0000E+00  0.7631E+15
   -2.337066    3.45984  0.0000E+00  0.2735E-13  0.3249E-16  0.1000E-09  0.0000E+00  0.6794E+15
   -2.405801    3.54916  0.0000E+00  0.2587E-12  0.3112E-15  0.1000E-09  0.0000E+00  0.5871E+15
   -2.474536    3.64483  0.0000E+00  0.2603E-11  0.3113E-14  0.1000E-09  0.0000E+00  0.4793E+15
   -2.543270    3.75033  0.0000E+00  0.2691E-10  0.3228E-13  0.4069E-09  0.0000E+00  0.3393E+15
   -2.612004    3.87458  0.0000E+00  0.2884E-09  0.3542E-12  0.1198E-07  0.0000E+00  0.8499E+14
   -2.680737    4.02688  0.0000E+00  0.2886E-08  0.4232E-11  0.6556E-06  0.0000E+00 -0.5775E+14
   -2.749470    4.08132  0.0000E+00  0.0000E+00  0.0000E+00  0.0000E+00  0.0000E+00  0.0000E+00
