 1 - depth, m
 2 - temperature, C
 3 - salinity, kg/kg
 4 - turbulent kinetic energy, m**2/s**2
 5 - dissipation rate, m**2/s**3
 6 - kinematic heat conductance, m**2/s
 7 - modulus of horizontal velocity, m/s
 8 - Richardson number, n/d
   -0.000000    0.00000  0.0000E+00  0.1561E-12  0.2588E-16  0.1000E-09  0.0000E+00  0.1464E+17
   -0.068736    0.22651  0.0000E+00  0.3208E-12  0.3528E-16  0.1000E-09  0.0000E+00  0.1349E+17
   -0.137473    0.44890  0.0000E+00  0.7140E-12  0.6796E-16  0.1000E-09  0.0000E+00  0.1242E+17
   -0.206211    0.66756  0.0000E+00  0.1550E-11  0.1399E-15  0.1000E-09  0.0000E+00  0.1139E+17
   -0.274949    0.88253  0.0000E+00  0.3292E-11  0.2885E-15  0.1000E-09  0.0000E+00  0.1050E+17
   -0.343688    1.09561  0.0000E+00  0.6897E-11  0.5896E-15  0.1000E-09  0.0000E+00  0.9654E+16
   -0.412427    1.30715  0.0000E+00  0.1431E-10  0.1196E-14  0.1000E-09  0.0000E+00  0.8835E+16
   -0.481167    1.51735  0.0000E+00  0.2946E-10  0.2406E-14  0.1000E-09  0.0000E+00  0.8038E+16
   -0.549907    1.72624  0.0000E+00  0.6030E-10  0.4816E-14  0.1000E-09  0.0000E+00  0.7241E+16
   -0.618647    1.93328  0.0000E+00  0.1226E-09  0.9580E-14  0.1000E-09  0.0000E+00  0.6485E+16
   -0.687388    2.13902  0.0000E+00  0.2478E-09  0.1894E-13  0.1000E-09  0.0000E+00  0.5886E+16
   -0.756129    2.34874  0.0000E+00  0.4973E-09  0.3720E-13  0.1000E-09  0.0000E+00  0.5338E+16
   -0.824871    2.56623  0.0000E+00  0.9916E-09  0.7261E-13  0.1000E-09  0.0000E+00  0.4731E+16
   -0.893613    2.79254  0.0000E+00  0.1965E-08  0.1409E-12  0.1773E-09  0.0000E+00  0.4044E+16
   -0.962355    3.02841  0.0000E+00  0.3868E-08  0.2716E-12  0.4244E-09  0.0000E+00  0.3258E+16
   -1.031097    3.27421  0.0000E+00  0.7556E-08  0.5198E-12  0.1123E-08  0.0000E+00  0.2357E+16
   -1.099840    3.52913  0.0000E+00  0.1463E-07  0.9862E-12  0.3748E-08  0.0000E+00  0.1340E+16
   -1.168582    3.78930  0.0000E+00  0.2772E-07  0.1835E-11  0.3142E-07  0.0000E+00  0.2983E+15
   -1.237325    4.01497  0.0000E+00  0.2831E-07  0.1877E-11  0.1485E-03  0.0000E+00 -0.9943E+11
   -1.306068    4.01519  0.0000E+00  0.2858E-07  0.1899E-11  0.1498E-03  0.0000E+00 -0.1172E+12
   -1.374811    4.01545  0.0000E+00  0.2882E-07  0.1924E-11  0.1565E-03  0.0000E+00 -0.1164E+12
   -1.443553    4.01570  0.0000E+00  0.2903E-07  0.1950E-11  0.1594E-03  0.0000E+00 -0.1165E+12
   -1.512296    4.01595  0.0000E+00  0.2921E-07  0.1978E-11  0.1593E-03  0.0000E+00 -0.1184E+12
   -1.581039    4.01621  0.0000E+00  0.2937E-07  0.2010E-11  0.1586E-03  0.0000E+00 -0.1207E+12
   -1.649782    4.01646  0.0000E+00  0.2951E-07  0.2045E-11  0.1575E-03  0.0000E+00 -0.1234E+12
   -1.718524    4.01672  0.0000E+00  0.2963E-07  0.2084E-11  0.1560E-03  0.0000E+00 -0.1266E+12
   -1.787266    4.01699  0.0000E+00  0.2973E-07  0.2129E-11  0.1540E-03  0.0000E+00 -0.1303E+12
   -1.856008    4.01726  0.0000E+00  0.2981E-07  0.2179E-11  0.1515E-03  0.0000E+00 -0.1348E+12
   -1.924750    4.01754  0.0000E+00  0.2986E-07  0.2235E-11  0.1485E-03  0.0000E+00 -0.1400E+12
   -1.993492    4.01782  0.0000E+00  0.2989E-07  0.2300E-11  0.1450E-03  0.0000E+00 -0.1462E+12
   -2.062233    4.01812  0.0000E+00  0.2988E-07  0.2374E-11  0.1408E-03  0.0000E+00 -0.1526E+12
   -2.130974    4.01842  0.0000E+00  0.2984E-07  0.2460E-11  0.1360E-03  0.0000E+00 -0.1601E+12
   -2.199715    4.01874  0.0000E+00  0.2977E-07  0.2562E-11  0.1304E-03  0.0000E+00 -0.1692E+12
   -2.268455    4.01907  0.0000E+00  0.2964E-07  0.2691E-11  0.1240E-03  0.0000E+00 -0.1807E+12
   -2.337194    4.01942  0.0000E+00  0.2943E-07  0.2882E-11  0.1061E-03  0.0000E+00 -0.2147E+12
   -2.405934    4.01983  0.0000E+00  0.2909E-07  0.3183E-11  0.8118E-04  0.0000E+00 -0.2864E+12
   -2.474672    4.02037  0.0000E+00  0.2856E-07  0.3661E-11  0.6154E-04  0.0000E+00 -0.3883E+12
   -2.543411    4.02109  0.0000E+00  0.2769E-07  0.4532E-11  0.4232E-04  0.0000E+00 -0.5875E+12
   -2.612148    4.02216  0.0000E+00  0.2594E-07  0.6682E-11  0.2159E-04  0.0000E+00 -0.1235E+13
   -2.680885    4.02429  0.0000E+00  0.1692E-07  0.2375E-10  0.1886E-05  0.0000E+00 -0.1976E+14
   -2.749621    4.04929  0.0000E+00  0.0000E+00  0.0000E+00  0.0000E+00  0.0000E+00  0.0000E+00
