 1 - depth, m
 2 - temperature, C
 3 - salinity, kg/kg
 4 - turbulent kinetic energy, m**2/s**2
 5 - dissipation rate, m**2/s**3
 6 - kinematic heat conductance, m**2/s
 7 - modulus of horizontal velocity, m/s
 8 - Richardson number, n/d
   -0.000000    0.00000  0.0000E+00  0.2251E-11  0.5815E-15  0.1000E-09  0.0000E+00  0.2086E+17
   -0.068729    0.32718  0.0000E+00  0.5938E-11  0.5942E-15  0.1000E-09  0.0000E+00  0.1829E+17
   -0.137459    0.64216  0.0000E+00  0.1348E-10  0.9600E-15  0.1000E-09  0.0000E+00  0.1601E+17
   -0.206189    0.94607  0.0000E+00  0.2728E-10  0.1739E-14  0.1000E-09  0.0000E+00  0.1396E+17
   -0.274920    1.23995  0.0000E+00  0.5237E-10  0.3191E-14  0.1000E-09  0.0000E+00  0.1212E+17
   -0.343652    1.52494  0.0000E+00  0.9804E-10  0.5815E-14  0.1000E-09  0.0000E+00  0.1046E+17
   -0.412384    1.80195  0.0000E+00  0.1813E-09  0.1052E-13  0.1000E-09  0.0000E+00  0.8951E+16
   -0.481117    2.07172  0.0000E+00  0.3325E-09  0.1892E-13  0.1000E-09  0.0000E+00  0.7561E+16
   -0.549850    2.33478  0.0000E+00  0.6071E-09  0.3389E-13  0.1000E-09  0.0000E+00  0.6272E+16
   -0.618583    2.59131  0.0000E+00  0.1103E-08  0.6044E-13  0.1000E-09  0.0000E+00  0.5078E+16
   -0.687317    2.84145  0.0000E+00  0.1996E-08  0.1073E-12  0.1364E-09  0.0000E+00  0.4004E+16
   -0.756051    3.08753  0.0000E+00  0.3592E-08  0.1896E-12  0.3223E-09  0.0000E+00  0.2995E+16
   -0.824785    3.33047  0.0000E+00  0.6434E-08  0.3335E-12  0.8390E-09  0.0000E+00  0.2024E+16
   -0.893520    3.56919  0.0000E+00  0.1146E-07  0.5834E-12  0.2703E-08  0.0000E+00  0.1099E+16
   -0.962255    3.80087  0.0000E+00  0.2014E-07  0.1008E-11  0.1922E-07  0.0000E+00  0.2672E+15
   -1.030990    4.00465  0.0000E+00  0.2049E-07  0.1027E-11  0.1483E-03  0.0000E+00 -0.5801E+11
   -1.099725    4.00485  0.0000E+00  0.2066E-07  0.1038E-11  0.1440E-03  0.0000E+00 -0.6424E+11
   -1.168461    4.00507  0.0000E+00  0.2082E-07  0.1050E-11  0.1488E-03  0.0000E+00 -0.6483E+11
   -1.237196    4.00529  0.0000E+00  0.2096E-07  0.1062E-11  0.1526E-03  0.0000E+00 -0.6501E+11
   -1.305932    4.00551  0.0000E+00  0.2109E-07  0.1076E-11  0.1535E-03  0.0000E+00 -0.6616E+11
   -1.374668    4.00573  0.0000E+00  0.2120E-07  0.1090E-11  0.1531E-03  0.0000E+00 -0.6739E+11
   -1.443403    4.00595  0.0000E+00  0.2131E-07  0.1106E-11  0.1524E-03  0.0000E+00 -0.6863E+11
   -1.512139    4.00617  0.0000E+00  0.2140E-07  0.1124E-11  0.1514E-03  0.0000E+00 -0.7006E+11
   -1.580875    4.00640  0.0000E+00  0.2148E-07  0.1143E-11  0.1501E-03  0.0000E+00 -0.7170E+11
   -1.649610    4.00662  0.0000E+00  0.2154E-07  0.1165E-11  0.1485E-03  0.0000E+00 -0.7358E+11
   -1.718345    4.00685  0.0000E+00  0.2160E-07  0.1188E-11  0.1465E-03  0.0000E+00 -0.7572E+11
   -1.787081    4.00709  0.0000E+00  0.2164E-07  0.1215E-11  0.1440E-03  0.0000E+00 -0.7818E+11
   -1.855816    4.00732  0.0000E+00  0.2167E-07  0.1245E-11  0.1412E-03  0.0000E+00 -0.8102E+11
   -1.924550    4.00757  0.0000E+00  0.2168E-07  0.1279E-11  0.1379E-03  0.0000E+00 -0.8431E+11
   -1.993285    4.00782  0.0000E+00  0.2167E-07  0.1318E-11  0.1342E-03  0.0000E+00 -0.8816E+11
   -2.062019    4.00808  0.0000E+00  0.2165E-07  0.1362E-11  0.1299E-03  0.0000E+00 -0.9245E+11
   -2.130753    4.00835  0.0000E+00  0.2160E-07  0.1413E-11  0.1251E-03  0.0000E+00 -0.9746E+11
   -2.199486    4.00863  0.0000E+00  0.2153E-07  0.1478E-11  0.1195E-03  0.0000E+00 -0.1036E+12
   -2.268219    4.00893  0.0000E+00  0.2141E-07  0.1569E-11  0.1038E-03  0.0000E+00 -0.1213E+12
   -2.336952    4.00927  0.0000E+00  0.2122E-07  0.1701E-11  0.8321E-04  0.0000E+00 -0.1546E+12
   -2.405684    4.00969  0.0000E+00  0.2095E-07  0.1894E-11  0.6670E-04  0.0000E+00 -0.1981E+12
   -2.474415    4.01023  0.0000E+00  0.2054E-07  0.2197E-11  0.5146E-04  0.0000E+00 -0.2656E+12
   -2.543146    4.01092  0.0000E+00  0.1989E-07  0.2748E-11  0.3510E-04  0.0000E+00 -0.4089E+12
   -2.611877    4.01196  0.0000E+00  0.1859E-07  0.4125E-11  0.1757E-04  0.0000E+00 -0.8908E+12
   -2.680606    4.01409  0.0000E+00  0.1226E-07  0.1462E-10  0.1616E-05  0.0000E+00 -0.1449E+14
   -2.749335    4.03751  0.0000E+00  0.0000E+00  0.0000E+00  0.0000E+00  0.0000E+00  0.0000E+00
