 1 - depth, m
 2 - temperature, C
 3 - salinity, kg/kg
 4 - turbulent kinetic energy, m**2/s**2
 5 - dissipation rate, m**2/s**3
 6 - kinematic heat conductance, m**2/s
 7 - modulus of horizontal velocity, m/s
 8 - Richardson number, n/d
   -0.000000    0.00000  0.0000E+00  0.1219E-13  0.7603E-17  0.1000E-09  0.0000E+00  0.1238E+17
   -0.068760    0.19055  0.0000E+00  0.1219E-13  0.7603E-17  0.1000E-09  0.0000E+00  0.1135E+17
   -0.137521    0.37463  0.0000E+00  0.1219E-13  0.7603E-17  0.1000E-09  0.0000E+00  0.1039E+17
   -0.206282    0.55235  0.0000E+00  0.1219E-13  0.7603E-17  0.1000E-09  0.0000E+00  0.9494E+16
   -0.275044    0.72376  0.0000E+00  0.1219E-13  0.7603E-17  0.1000E-09  0.0000E+00  0.8740E+16
   -0.343807    0.89043  0.0000E+00  0.1219E-13  0.7603E-17  0.1000E-09  0.0000E+00  0.8046E+16
   -0.412570    1.05268  0.0000E+00  0.1219E-13  0.7603E-17  0.1000E-09  0.0000E+00  0.7396E+16
   -0.481334    1.21060  0.0000E+00  0.1219E-13  0.7603E-17  0.1000E-09  0.0000E+00  0.6775E+16
   -0.550098    1.36400  0.0000E+00  0.1273E-13  0.7603E-17  0.1000E-09  0.0000E+00  0.6156E+16
   -0.618862    1.51201  0.0000E+00  0.6147E-13  0.8118E-17  0.1000E-09  0.0000E+00  0.5580E+16
   -0.687627    1.65460  0.0000E+00  0.1635E-12  0.1513E-16  0.1000E-09  0.0000E+00  0.5138E+16
   -0.756392    1.79442  0.0000E+00  0.3652E-12  0.3070E-16  0.1000E-09  0.0000E+00  0.4775E+16
   -0.825157    1.93321  0.0000E+00  0.7695E-12  0.6219E-16  0.1000E-09  0.0000E+00  0.4427E+16
   -0.893923    2.07118  0.0000E+00  0.1585E-11  0.1247E-15  0.1000E-09  0.0000E+00  0.4094E+16
   -0.962689    2.20859  0.0000E+00  0.3225E-11  0.2482E-15  0.1000E-09  0.0000E+00  0.3773E+16
   -1.031455    2.34569  0.0000E+00  0.6503E-11  0.4895E-15  0.1000E-09  0.0000E+00  0.3475E+16
   -1.100221    2.48333  0.0000E+00  0.1300E-10  0.9581E-15  0.1000E-09  0.0000E+00  0.3184E+16
   -1.168988    2.62187  0.0000E+00  0.2583E-10  0.1863E-14  0.1000E-09  0.0000E+00  0.2894E+16
   -1.237754    2.76168  0.0000E+00  0.5096E-10  0.3599E-14  0.1000E-09  0.0000E+00  0.2604E+16
   -1.306521    2.90310  0.0000E+00  0.9995E-10  0.6914E-14  0.1000E-09  0.0000E+00  0.2308E+16
   -1.375288    3.04640  0.0000E+00  0.1948E-09  0.1320E-13  0.1000E-09  0.0000E+00  0.2030E+16
   -1.444054    3.19395  0.0000E+00  0.3776E-09  0.2507E-13  0.1000E-09  0.0000E+00  0.1731E+16
   -1.512821    3.34654  0.0000E+00  0.7285E-09  0.4741E-13  0.1726E-09  0.0000E+00  0.1399E+16
   -1.581588    3.50431  0.0000E+00  0.1404E-08  0.8957E-13  0.4442E-09  0.0000E+00  0.1027E+16
   -1.650354    3.66686  0.0000E+00  0.2695E-08  0.1685E-12  0.1391E-08  0.0000E+00  0.6171E+15
   -1.719120    3.83278  0.0000E+00  0.5127E-08  0.3146E-12  0.8697E-08  0.0000E+00  0.1845E+15
   -1.787887    3.99399  0.0000E+00  0.5686E-08  0.3507E-12  0.3059E-04  0.0000E+00 -0.9493E+11
   -1.856653    3.99475  0.0000E+00  0.5961E-08  0.3725E-12  0.3248E-04  0.0000E+00 -0.1053E+12
   -1.925418    3.99551  0.0000E+00  0.6215E-08  0.3969E-12  0.3409E-04  0.0000E+00 -0.1123E+12
   -1.994184    3.99626  0.0000E+00  0.6445E-08  0.4240E-12  0.3513E-04  0.0000E+00 -0.1208E+12
   -2.062949    3.99701  0.0000E+00  0.6651E-08  0.4545E-12  0.3514E-04  0.0000E+00 -0.1308E+12
   -2.131714    3.99777  0.0000E+00  0.6832E-08  0.4895E-12  0.3443E-04  0.0000E+00 -0.1438E+12
   -2.200478    3.99854  0.0000E+00  0.6984E-08  0.5304E-12  0.3305E-04  0.0000E+00 -0.1612E+12
   -2.269242    3.99936  0.0000E+00  0.7106E-08  0.5801E-12  0.3100E-04  0.0000E+00 -0.1856E+12
   -2.338006    4.00024  0.0000E+00  0.7193E-08  0.6452E-12  0.2810E-04  0.0000E+00 -0.2222E+12
   -2.406769    4.00122  0.0000E+00  0.7235E-08  0.7359E-12  0.2427E-04  0.0000E+00 -0.2818E+12
   -2.475531    4.00238  0.0000E+00  0.7210E-08  0.8748E-12  0.1947E-04  0.0000E+00 -0.3920E+12
   -2.544293    4.00387  0.0000E+00  0.7067E-08  0.1128E-11  0.1360E-04  0.0000E+00 -0.6525E+12
   -2.613055    4.00610  0.0000E+00  0.6641E-08  0.1768E-11  0.6830E-05  0.0000E+00 -0.1679E+13
   -2.681815    4.01093  0.0000E+00  0.4962E-08  0.5448E-11  0.1047E-05  0.0000E+00 -0.2454E+14
   -2.750576    4.04747  0.0000E+00  0.0000E+00  0.0000E+00  0.0000E+00  0.0000E+00  0.0000E+00
