 1 - depth, m
 2 - temperature, C
 3 - salinity, kg/kg
 4 - turbulent kinetic energy, m**2/s**2
 5 - dissipation rate, m**2/s**3
 6 - kinematic heat conductance, m**2/s
 7 - modulus of horizontal velocity, m/s
 8 - Richardson number, n/d
   -0.000000   15.72891  0.0000E+00  0.2094E-04  0.1280E-05  0.3608E-04  0.2816E-01 -0.2437E-01
   -0.068748   15.76447  0.0000E+00  0.1685E-04  0.3913E-06  0.8239E-04  0.1520E-01 -0.7644E-01
   -0.137496   15.77827  0.0000E+00  0.1467E-04  0.1963E-06  0.1348E-03  0.1071E-01 -0.1440E+00
   -0.206245   15.78630  0.0000E+00  0.1335E-04  0.1204E-06  0.2026E-03  0.8212E-02 -0.2378E+00
   -0.274994   15.79139  0.0000E+00  0.1257E-04  0.8368E-07  0.3278E-03  0.6681E-02  0.1100E+00
   -0.343744   15.79450  0.0000E+00  0.1211E-04  0.6448E-07  0.6320E-03  0.5662E-02  0.1305E+03
   -0.412495   15.79611  0.0000E+00  0.1189E-04  0.5374E-07  0.8734E-03  0.5020E-02  0.8992E+02
   -0.481246   15.79717  0.0000E+00  0.1179E-04  0.4621E-07  0.9781E-03  0.4524E-02  0.4070E+01
   -0.549997   15.79808  0.0000E+00  0.1175E-04  0.4028E-07  0.1096E-02  0.4054E-02  0.3857E+01
   -0.618749   15.79887  0.0000E+00  0.1175E-04  0.3568E-07  0.1188E-02  0.3644E-02  0.3514E+01
   -0.687502   15.79959  0.0000E+00  0.1177E-04  0.3203E-07  0.1261E-02  0.3279E-02  0.3220E+01
   -0.756254   15.80026  0.0000E+00  0.1181E-04  0.2909E-07  0.1337E-02  0.2954E-02  0.2964E+01
   -0.825007   15.80088  0.0000E+00  0.1186E-04  0.2670E-07  0.1415E-02  0.2665E-02  0.2742E+01
   -0.893760   15.80146  0.0000E+00  0.1192E-04  0.2474E-07  0.1496E-02  0.2405E-02  0.2544E+01
   -0.962514   15.80200  0.0000E+00  0.1197E-04  0.2314E-07  0.1581E-02  0.2173E-02  0.2361E+01
   -1.031267   15.80251  0.0000E+00  0.1202E-04  0.2184E-07  0.1655E-02  0.1966E-02  0.2283E+01
   -1.100021   15.80300  0.0000E+00  0.1206E-04  0.2077E-07  0.1727E-02  0.1777E-02  0.2207E+01
   -1.168775   15.80347  0.0000E+00  0.1209E-04  0.1991E-07  0.1799E-02  0.1603E-02  0.2130E+01
   -1.237529   15.80392  0.0000E+00  0.1210E-04  0.1923E-07  0.1870E-02  0.1444E-02  0.2054E+01
   -1.306283   15.80436  0.0000E+00  0.1209E-04  0.1871E-07  0.1940E-02  0.1298E-02  0.1980E+01
   -1.375037   15.80479  0.0000E+00  0.1207E-04  0.1833E-07  0.2008E-02  0.1164E-02  0.1908E+01
   -1.443792   15.80520  0.0000E+00  0.1203E-04  0.1809E-07  0.2080E-02  0.1041E-02  0.1841E+01
   -1.512546   15.80560  0.0000E+00  0.1196E-04  0.1796E-07  0.2173E-02  0.9295E-03  0.1736E+01
   -1.581300   15.80599  0.0000E+00  0.1188E-04  0.1794E-07  0.2268E-02  0.8300E-03  0.1628E+01
   -1.650054   15.80637  0.0000E+00  0.1179E-04  0.1802E-07  0.2322E-02  0.7431E-03  0.1529E+01
   -1.718807   15.80674  0.0000E+00  0.1169E-04  0.1820E-07  0.2282E-02  0.6675E-03  0.1430E+01
   -1.787561   15.80712  0.0000E+00  0.1157E-04  0.1847E-07  0.2201E-02  0.6019E-03  0.1335E+01
   -1.856315   15.80751  0.0000E+00  0.1145E-04  0.1883E-07  0.2112E-02  0.5450E-03  0.1246E+01
   -1.925068   15.80793  0.0000E+00  0.1133E-04  0.1927E-07  0.2015E-02  0.4956E-03  0.1161E+01
   -1.993821   15.80837  0.0000E+00  0.1120E-04  0.1979E-07  0.1916E-02  0.4526E-03  0.1079E+01
   -2.062573   15.80884  0.0000E+00  0.1107E-04  0.2041E-07  0.1823E-02  0.4152E-03  0.1021E+01
   -2.131326   15.80934  0.0000E+00  0.1093E-04  0.2115E-07  0.1733E-02  0.3825E-03  0.1119E+01
   -2.200077   15.80987  0.0000E+00  0.1078E-04  0.2210E-07  0.1625E-02  0.3518E-03  0.1414E+01
   -2.268829   15.81044  0.0000E+00  0.1060E-04  0.2338E-07  0.1493E-02  0.3210E-03  0.1877E+01
   -2.337580   15.81107  0.0000E+00  0.1038E-04  0.2521E-07  0.1335E-02  0.2904E-03  0.2721E+01
   -2.406330   15.81178  0.0000E+00  0.1011E-04  0.2796E-07  0.1169E-02  0.2597E-03  0.4402E+01
   -2.475081   15.81261  0.0000E+00  0.9752E-05  0.3244E-07  0.9165E-03  0.2289E-03  0.8466E+01
   -2.543830   15.81368  0.0000E+00  0.9259E-05  0.4074E-07  0.8484E-03  0.1956E-03  0.1635E+02
   -2.612579   15.81483  0.0000E+00  0.8242E-05  0.6847E-07  0.3494E-03  0.1668E-03 -0.6274E+02
   -2.681327   15.82025  0.0000E+00  0.4959E-05  0.2269E-06  0.9542E-04  0.1085E-03 -0.8324E+03
   -2.750075   15.83096  0.0000E+00  0.0000E+00  0.0000E+00  0.0000E+00  0.1238E-03  0.0000E+00
