 1 - depth, m
 2 - temperature, C
 3 - salinity, kg/kg
 4 - turbulent kinetic energy, m**2/s**2
 5 - dissipation rate, m**2/s**3
 6 - kinematic heat conductance, m**2/s
 7 - modulus of horizontal velocity, m/s
 8 - Richardson number, n/d
   -0.000000    0.00000  0.0000E+00  0.7087E-12  0.1399E-15  0.1000E-09  0.0000E+00  0.1705E+17
   -0.068739    0.26519  0.0000E+00  0.1605E-11  0.1484E-15  0.1000E-09  0.0000E+00  0.1611E+17
   -0.137478    0.53573  0.0000E+00  0.3478E-11  0.2389E-15  0.1000E-09  0.0000E+00  0.1485E+17
   -0.206218    0.80658  0.0000E+00  0.6937E-11  0.4298E-15  0.1000E-09  0.0000E+00  0.1345E+17
   -0.274958    1.07490  0.0000E+00  0.1324E-10  0.7842E-15  0.1000E-09  0.0000E+00  0.1205E+17
   -0.343699    1.33956  0.0000E+00  0.2469E-10  0.1423E-14  0.1000E-09  0.0000E+00  0.1067E+17
   -0.412441    1.59945  0.0000E+00  0.4548E-10  0.2562E-14  0.1000E-09  0.0000E+00  0.9332E+16
   -0.481183    1.85367  0.0000E+00  0.8311E-10  0.4585E-14  0.1000E-09  0.0000E+00  0.8048E+16
   -0.549925    2.10130  0.0000E+00  0.1511E-09  0.8169E-14  0.1000E-09  0.0000E+00  0.6823E+16
   -0.618668    2.34120  0.0000E+00  0.2734E-09  0.1449E-13  0.1000E-09  0.0000E+00  0.5682E+16
   -0.687412    2.57264  0.0000E+00  0.4919E-09  0.2556E-13  0.1000E-09  0.0000E+00  0.4668E+16
   -0.756155    2.79691  0.0000E+00  0.8807E-09  0.4486E-13  0.1000E-09  0.0000E+00  0.3753E+16
   -0.824899    3.01485  0.0000E+00  0.1568E-08  0.7834E-13  0.1372E-09  0.0000E+00  0.2909E+16
   -0.893643    3.22645  0.0000E+00  0.2778E-08  0.1361E-12  0.3246E-09  0.0000E+00  0.2137E+16
   -0.962388    3.43185  0.0000E+00  0.4896E-08  0.2352E-12  0.8378E-09  0.0000E+00  0.1433E+16
   -1.031132    3.63150  0.0000E+00  0.8564E-08  0.4037E-12  0.2621E-08  0.0000E+00  0.7879E+15
   -1.099877    3.82573  0.0000E+00  0.1477E-07  0.6839E-12  0.1760E-07  0.0000E+00  0.2010E+15
   -1.168622    4.00190  0.0000E+00  0.1508E-07  0.6990E-12  0.1180E-03  0.0000E+00 -0.4650E+11
   -1.237367    4.00210  0.0000E+00  0.1523E-07  0.7073E-12  0.1171E-03  0.0000E+00 -0.5716E+11
   -1.306112    4.00233  0.0000E+00  0.1535E-07  0.7161E-12  0.1202E-03  0.0000E+00 -0.5714E+11
   -1.374858    4.00255  0.0000E+00  0.1547E-07  0.7255E-12  0.1229E-03  0.0000E+00 -0.5673E+11
   -1.443603    4.00277  0.0000E+00  0.1557E-07  0.7354E-12  0.1249E-03  0.0000E+00 -0.5653E+11
   -1.512348    4.00299  0.0000E+00  0.1565E-07  0.7460E-12  0.1252E-03  0.0000E+00 -0.5705E+11
   -1.581093    4.00321  0.0000E+00  0.1572E-07  0.7576E-12  0.1244E-03  0.0000E+00 -0.5804E+11
   -1.649838    4.00343  0.0000E+00  0.1579E-07  0.7704E-12  0.1234E-03  0.0000E+00 -0.5918E+11
   -1.718583    4.00365  0.0000E+00  0.1584E-07  0.7846E-12  0.1220E-03  0.0000E+00 -0.6053E+11
   -1.787327    4.00387  0.0000E+00  0.1587E-07  0.8005E-12  0.1203E-03  0.0000E+00 -0.6211E+11
   -1.856072    4.00409  0.0000E+00  0.1590E-07  0.8183E-12  0.1182E-03  0.0000E+00 -0.6397E+11
   -1.924816    4.00432  0.0000E+00  0.1591E-07  0.8385E-12  0.1157E-03  0.0000E+00 -0.6615E+11
   -1.993560    4.00456  0.0000E+00  0.1591E-07  0.8616E-12  0.1128E-03  0.0000E+00 -0.6875E+11
   -2.062303    4.00480  0.0000E+00  0.1589E-07  0.8900E-12  0.1093E-03  0.0000E+00 -0.7174E+11
   -2.131047    4.00504  0.0000E+00  0.1585E-07  0.9275E-12  0.1015E-03  0.0000E+00 -0.7806E+11
   -2.199790    4.00531  0.0000E+00  0.1578E-07  0.9763E-12  0.8693E-04  0.0000E+00 -0.9228E+11
   -2.268532    4.00561  0.0000E+00  0.1568E-07  0.1040E-11  0.7429E-04  0.0000E+00 -0.1098E+12
   -2.337274    4.00597  0.0000E+00  0.1553E-07  0.1127E-11  0.6352E-04  0.0000E+00 -0.1310E+12
   -2.406016    4.00640  0.0000E+00  0.1531E-07  0.1252E-11  0.5281E-04  0.0000E+00 -0.1617E+12
   -2.474757    4.00690  0.0000E+00  0.1499E-07  0.1448E-11  0.4109E-04  0.0000E+00 -0.2149E+12
   -2.543497    4.00756  0.0000E+00  0.1448E-07  0.1807E-11  0.2805E-04  0.0000E+00 -0.3309E+12
   -2.612237    4.00853  0.0000E+00  0.1347E-07  0.2710E-11  0.1397E-04  0.0000E+00 -0.7282E+12
   -2.680976    4.01054  0.0000E+00  0.8948E-08  0.9247E-11  0.1376E-05  0.0000E+00 -0.1122E+14
   -2.749715    4.03126  0.0000E+00  0.0000E+00  0.0000E+00  0.0000E+00  0.0000E+00  0.0000E+00
