 1 - depth, m
 2 - temperature, C
 3 - salinity, kg/kg
 4 - turbulent kinetic energy, m**2/s**2
 5 - dissipation rate, m**2/s**3
 6 - kinematic heat conductance, m**2/s
 7 - modulus of horizontal velocity, m/s
 8 - Richardson number, n/d
   -0.000000    0.00000  0.0000E+00  0.1501E-11  0.3434E-15  0.1000E-09  0.0000E+00  0.1900E+17
   -0.068756    0.29674  0.0000E+00  0.3688E-11  0.3315E-15  0.1000E-09  0.0000E+00  0.1717E+17
   -0.137513    0.58862  0.0000E+00  0.8042E-11  0.4965E-15  0.1000E-09  0.0000E+00  0.1539E+17
   -0.206271    0.87498  0.0000E+00  0.1568E-10  0.8474E-15  0.1000E-09  0.0000E+00  0.1369E+17
   -0.275029    1.15526  0.0000E+00  0.2888E-10  0.1477E-14  0.1000E-09  0.0000E+00  0.1208E+17
   -0.343788    1.42926  0.0000E+00  0.5169E-10  0.2562E-14  0.1000E-09  0.0000E+00  0.1056E+17
   -0.412547    1.69666  0.0000E+00  0.9117E-10  0.4413E-14  0.1000E-09  0.0000E+00  0.9125E+16
   -0.481307    1.95720  0.0000E+00  0.1593E-09  0.7550E-14  0.1000E-09  0.0000E+00  0.7785E+16
   -0.550067    2.21056  0.0000E+00  0.2768E-09  0.1286E-13  0.1000E-09  0.0000E+00  0.6533E+16
   -0.618828    2.45630  0.0000E+00  0.4785E-09  0.2179E-13  0.1000E-09  0.0000E+00  0.5378E+16
   -0.687589    2.69419  0.0000E+00  0.8228E-09  0.3673E-13  0.1000E-09  0.0000E+00  0.4352E+16
   -0.756350    2.92598  0.0000E+00  0.1407E-08  0.6160E-13  0.1000E-09  0.0000E+00  0.3415E+16
   -0.825112    3.15273  0.0000E+00  0.2394E-08  0.1028E-12  0.2062E-09  0.0000E+00  0.2538E+16
   -0.893874    3.37427  0.0000E+00  0.4052E-08  0.1706E-12  0.5051E-09  0.0000E+00  0.1720E+16
   -0.962636    3.59035  0.0000E+00  0.6819E-08  0.2817E-12  0.1493E-08  0.0000E+00  0.9610E+15
   -1.031398    3.80009  0.0000E+00  0.1136E-07  0.4607E-12  0.8653E-08  0.0000E+00  0.2715E+15
   -1.100161    3.99535  0.0000E+00  0.1163E-07  0.4722E-12  0.1015E-03  0.0000E+00 -0.3350E+11
   -1.168924    3.99558  0.0000E+00  0.1176E-07  0.4785E-12  0.1004E-03  0.0000E+00 -0.4065E+11
   -1.237686    3.99586  0.0000E+00  0.1187E-07  0.4853E-12  0.1030E-03  0.0000E+00 -0.4151E+11
   -1.306449    3.99613  0.0000E+00  0.1199E-07  0.4932E-12  0.1021E-03  0.0000E+00 -0.4323E+11
   -1.375212    3.99641  0.0000E+00  0.1210E-07  0.5021E-12  0.1056E-03  0.0000E+00 -0.4305E+11
   -1.443975    3.99668  0.0000E+00  0.1219E-07  0.5111E-12  0.1093E-03  0.0000E+00 -0.4262E+11
   -1.512738    3.99694  0.0000E+00  0.1227E-07  0.5201E-12  0.1105E-03  0.0000E+00 -0.4317E+11
   -1.581501    3.99720  0.0000E+00  0.1234E-07  0.5299E-12  0.1105E-03  0.0000E+00 -0.4421E+11
   -1.650263    3.99745  0.0000E+00  0.1240E-07  0.5405E-12  0.1096E-03  0.0000E+00 -0.4557E+11
   -1.719026    3.99771  0.0000E+00  0.1245E-07  0.5523E-12  0.1084E-03  0.0000E+00 -0.4716E+11
   -1.787788    3.99797  0.0000E+00  0.1249E-07  0.5654E-12  0.1068E-03  0.0000E+00 -0.4897E+11
   -1.856550    3.99824  0.0000E+00  0.1253E-07  0.5804E-12  0.1047E-03  0.0000E+00 -0.5108E+11
   -1.925312    3.99851  0.0000E+00  0.1255E-07  0.5981E-12  0.1022E-03  0.0000E+00 -0.5357E+11
   -1.994074    3.99879  0.0000E+00  0.1256E-07  0.6196E-12  0.9883E-04  0.0000E+00 -0.5675E+11
   -2.062835    3.99907  0.0000E+00  0.1256E-07  0.6462E-12  0.9122E-04  0.0000E+00 -0.6290E+11
   -2.131596    3.99938  0.0000E+00  0.1254E-07  0.6790E-12  0.8077E-04  0.0000E+00 -0.7276E+11
   -2.200357    3.99974  0.0000E+00  0.1250E-07  0.7194E-12  0.7123E-04  0.0000E+00 -0.8474E+11
   -2.269117    4.00013  0.0000E+00  0.1243E-07  0.7708E-12  0.6298E-04  0.0000E+00 -0.9886E+11
   -2.337877    4.00058  0.0000E+00  0.1233E-07  0.8402E-12  0.5478E-04  0.0000E+00 -0.1178E+12
   -2.406636    4.00110  0.0000E+00  0.1216E-07  0.9392E-12  0.4574E-04  0.0000E+00 -0.1470E+12
   -2.475395    4.00172  0.0000E+00  0.1192E-07  0.1093E-11  0.3560E-04  0.0000E+00 -0.1990E+12
   -2.544153    4.00253  0.0000E+00  0.1151E-07  0.1376E-11  0.2421E-04  0.0000E+00 -0.3146E+12
   -2.612911    4.00372  0.0000E+00  0.1069E-07  0.2092E-11  0.1190E-04  0.0000E+00 -0.7268E+12
   -2.681668    4.00621  0.0000E+00  0.7073E-08  0.7110E-11  0.1189E-05  0.0000E+00 -0.1250E+14
   -2.750424    4.03094  0.0000E+00  0.0000E+00  0.0000E+00  0.0000E+00  0.0000E+00  0.0000E+00
