 1 - depth, m
 2 - temperature, C
 3 - salinity, kg/kg
 4 - turbulent kinetic energy, m**2/s**2
 5 - dissipation rate, m**2/s**3
 6 - kinematic heat conductance, m**2/s
 7 - modulus of horizontal velocity, m/s
 8 - Richardson number, n/d
   -0.000000   10.18691  0.0000E+00  0.1878E-03  0.2655E-02  0.1091E-03  0.1154E+00 -0.4163E-02
   -0.068734   10.24589  0.0000E+00  0.1051E-03  0.1155E-02  0.1589E-03  0.4038E-01 -0.1415E+01
   -0.137468   10.25646  0.0000E+00  0.7586E-04  0.5242E-03  0.1620E-03  0.3051E-01 -0.6177E-01
   -0.206202   10.26437  0.0000E+00  0.5630E-04  0.2083E-03  0.1775E-03  0.2486E-01 -0.5898E-01
   -0.274938   10.27050  0.0000E+00  0.4291E-04  0.6243E-04  0.1999E-03  0.2094E-01 -0.6380E-01
   -0.343674   10.27553  0.0000E+00  0.3390E-04  0.1161E-04  0.2320E-03  0.1777E-01 -0.4571E-01
   -0.412410   10.27973  0.0000E+00  0.2835E-04  0.1462E-05  0.2824E-03  0.1515E-01  0.4233E+01
   -0.481147   10.28333  0.0000E+00  0.2482E-04  0.3925E-06  0.3399E-03  0.1296E-01  0.1024E+03
   -0.549884   10.28629  0.0000E+00  0.2218E-04  0.2445E-06  0.4007E-03  0.1114E-01  0.1292E+02
   -0.618622   10.28880  0.0000E+00  0.2008E-04  0.1766E-06  0.4610E-03  0.9685E-02  0.8626E+01
   -0.687360   10.29098  0.0000E+00  0.1836E-04  0.1333E-06  0.5269E-03  0.8478E-02  0.4150E+02
   -0.756099   10.29289  0.0000E+00  0.1693E-04  0.1038E-06  0.5918E-03  0.7464E-02  0.3798E+01
   -0.824838   10.29458  0.0000E+00  0.1572E-04  0.8281E-07  0.6621E-03  0.6603E-02  0.1121E+02
   -0.893577   10.29607  0.0000E+00  0.1470E-04  0.6752E-07  0.7364E-03  0.5870E-02  0.7641E+01
   -0.962316   10.29740  0.0000E+00  0.1385E-04  0.5613E-07  0.8283E-03  0.5243E-02  0.4963E+02
   -1.031056   10.29856  0.0000E+00  0.1313E-04  0.4755E-07  0.9538E-03  0.4709E-02  0.2912E+03
   -1.099795   10.29955  0.0000E+00  0.1252E-04  0.4097E-07  0.1079E-02  0.4241E-02  0.4811E+02
   -1.168535   10.30039  0.0000E+00  0.1201E-04  0.3581E-07  0.1186E-02  0.3826E-02  0.2716E+02
   -1.237275   10.30111  0.0000E+00  0.1155E-04  0.3170E-07  0.1287E-02  0.3452E-02  0.1955E+03
   -1.306015   10.30174  0.0000E+00  0.1115E-04  0.2835E-07  0.1357E-02  0.3112E-02  0.2025E+02
   -1.374755   10.30231  0.0000E+00  0.1078E-04  0.2557E-07  0.1400E-02  0.2797E-02  0.1534E+02
   -1.443495   10.30284  0.0000E+00  0.1044E-04  0.2322E-07  0.1427E-02  0.2503E-02  0.3977E+01
   -1.512235   10.30336  0.0000E+00  0.1011E-04  0.2122E-07  0.1457E-02  0.2226E-02  0.3153E+01
   -1.580975   10.30386  0.0000E+00  0.9790E-05  0.1950E-07  0.1485E-02  0.1973E-02  0.2706E+01
   -1.649715   10.30434  0.0000E+00  0.9482E-05  0.1804E-07  0.1506E-02  0.1743E-02  0.2384E+01
   -1.718455   10.30482  0.0000E+00  0.9184E-05  0.1680E-07  0.1520E-02  0.1536E-02  0.2127E+01
   -1.787194   10.30529  0.0000E+00  0.8898E-05  0.1577E-07  0.1527E-02  0.1350E-02  0.1912E+01
   -1.855934   10.30575  0.0000E+00  0.8622E-05  0.1493E-07  0.1527E-02  0.1183E-02  0.1727E+01
   -1.924673   10.30621  0.0000E+00  0.8357E-05  0.1427E-07  0.1518E-02  0.1033E-02  0.1560E+01
   -1.993411   10.30666  0.0000E+00  0.8105E-05  0.1379E-07  0.1498E-02  0.9002E-03  0.1408E+01
   -2.062150   10.30712  0.0000E+00  0.7866E-05  0.1348E-07  0.1453E-02  0.7823E-03  0.1266E+01
   -2.130888   10.30759  0.0000E+00  0.7641E-05  0.1334E-07  0.1386E-02  0.6782E-03  0.1147E+01
   -2.199626   10.30808  0.0000E+00  0.7432E-05  0.1338E-07  0.1308E-02  0.5864E-03  0.1071E+01
   -2.268363   10.30860  0.0000E+00  0.7238E-05  0.1361E-07  0.1221E-02  0.5055E-03  0.1027E+01
   -2.337100   10.30914  0.0000E+00  0.7053E-05  0.1406E-07  0.1129E-02  0.4370E-03  0.1114E+01
   -2.405837   10.30974  0.0000E+00  0.6869E-05  0.1482E-07  0.1031E-02  0.3792E-03  0.1490E+01
   -2.474572   10.31038  0.0000E+00  0.6668E-05  0.1612E-07  0.9103E-03  0.3281E-03  0.2417E+01
   -2.543308   10.31111  0.0000E+00  0.6416E-05  0.1858E-07  0.7603E-03  0.2789E-03  0.1127E+03
   -2.612043   10.31199  0.0000E+00  0.6007E-05  0.2511E-07  0.5483E-03  0.2311E-03  0.8250E+02
   -2.680777   10.31364  0.0000E+00  0.3711E-05  0.8825E-07  0.3412E-04  0.1750E-03 -0.2407E+04
   -2.749510   10.33433  0.0000E+00  0.0000E+00  0.0000E+00  0.0000E+00  0.1813E-03  0.0000E+00
