 1 - depth, m
 2 - temperature, C
 3 - salinity, kg/kg
 4 - turbulent kinetic energy, m**2/s**2
 5 - dissipation rate, m**2/s**3
 6 - kinematic heat conductance, m**2/s
 7 - modulus of horizontal velocity, m/s
 8 - Richardson number, n/d
   -0.000000    0.00000  0.0000E+00  0.1406E-12  0.2346E-16  0.1000E-09  0.0000E+00  0.1529E+17
   -0.068754    0.23683  0.0000E+00  0.2894E-12  0.3293E-16  0.1000E-09  0.0000E+00  0.1383E+17
   -0.137508    0.46565  0.0000E+00  0.6506E-12  0.6484E-16  0.1000E-09  0.0000E+00  0.1257E+17
   -0.206263    0.68830  0.0000E+00  0.1432E-11  0.1358E-15  0.1000E-09  0.0000E+00  0.1146E+17
   -0.275018    0.90603  0.0000E+00  0.3090E-11  0.2846E-15  0.1000E-09  0.0000E+00  0.1052E+17
   -0.343774    1.12131  0.0000E+00  0.6577E-11  0.5909E-15  0.1000E-09  0.0000E+00  0.9656E+16
   -0.412530    1.33506  0.0000E+00  0.1387E-10  0.1217E-14  0.1000E-09  0.0000E+00  0.8835E+16
   -0.481287    1.54777  0.0000E+00  0.2900E-10  0.2486E-14  0.1000E-09  0.0000E+00  0.8038E+16
   -0.550045    1.75964  0.0000E+00  0.6027E-10  0.5051E-14  0.1000E-09  0.0000E+00  0.7240E+16
   -0.618802    1.97020  0.0000E+00  0.1244E-09  0.1020E-13  0.1000E-09  0.0000E+00  0.6474E+16
   -0.687561    2.17992  0.0000E+00  0.2551E-09  0.2044E-13  0.1000E-09  0.0000E+00  0.5846E+16
   -0.756319    2.39362  0.0000E+00  0.5195E-09  0.4072E-13  0.1000E-09  0.0000E+00  0.5253E+16
   -0.825078    2.61457  0.0000E+00  0.1051E-08  0.8058E-13  0.1000E-09  0.0000E+00  0.4599E+16
   -0.893837    2.84346  0.0000E+00  0.2111E-08  0.1584E-12  0.2085E-09  0.0000E+00  0.3868E+16
   -0.962596    3.08063  0.0000E+00  0.4213E-08  0.3095E-12  0.5170E-09  0.0000E+00  0.3048E+16
   -1.031356    3.32608  0.0000E+00  0.8338E-08  0.5998E-12  0.1435E-08  0.0000E+00  0.2130E+16
   -1.100116    3.57844  0.0000E+00  0.1634E-07  0.1152E-11  0.5231E-08  0.0000E+00  0.1123E+16
   -1.168876    3.83234  0.0000E+00  0.3087E-07  0.2140E-11  0.6246E-07  0.0000E+00  0.1772E+15
   -1.237636    4.02089  0.0000E+00  0.3149E-07  0.2185E-11  0.1590E-03  0.0000E+00 -0.1139E+12
   -1.306396    4.02110  0.0000E+00  0.3178E-07  0.2211E-11  0.1608E-03  0.0000E+00 -0.1293E+12
   -1.375156    4.02134  0.0000E+00  0.3203E-07  0.2238E-11  0.1671E-03  0.0000E+00 -0.1282E+12
   -1.443916    4.02157  0.0000E+00  0.3225E-07  0.2267E-11  0.1683E-03  0.0000E+00 -0.1293E+12
   -1.512676    4.02180  0.0000E+00  0.3245E-07  0.2299E-11  0.1679E-03  0.0000E+00 -0.1312E+12
   -1.581436    4.02204  0.0000E+00  0.3262E-07  0.2335E-11  0.1671E-03  0.0000E+00 -0.1335E+12
   -1.650196    4.02228  0.0000E+00  0.3276E-07  0.2375E-11  0.1660E-03  0.0000E+00 -0.1362E+12
   -1.718955    4.02252  0.0000E+00  0.3289E-07  0.2420E-11  0.1643E-03  0.0000E+00 -0.1395E+12
   -1.787715    4.02276  0.0000E+00  0.3299E-07  0.2470E-11  0.1622E-03  0.0000E+00 -0.1433E+12
   -1.856474    4.02301  0.0000E+00  0.3306E-07  0.2527E-11  0.1596E-03  0.0000E+00 -0.1478E+12
   -1.925233    4.02327  0.0000E+00  0.3311E-07  0.2591E-11  0.1565E-03  0.0000E+00 -0.1532E+12
   -1.993992    4.02353  0.0000E+00  0.3313E-07  0.2665E-11  0.1527E-03  0.0000E+00 -0.1596E+12
   -2.062751    4.02381  0.0000E+00  0.3311E-07  0.2750E-11  0.1483E-03  0.0000E+00 -0.1662E+12
   -2.131509    4.02409  0.0000E+00  0.3306E-07  0.2848E-11  0.1432E-03  0.0000E+00 -0.1741E+12
   -2.200267    4.02438  0.0000E+00  0.3297E-07  0.2964E-11  0.1374E-03  0.0000E+00 -0.1837E+12
   -2.269024    4.02469  0.0000E+00  0.3283E-07  0.3105E-11  0.1308E-03  0.0000E+00 -0.1953E+12
   -2.337781    4.02501  0.0000E+00  0.3261E-07  0.3311E-11  0.1170E-03  0.0000E+00 -0.2216E+12
   -2.406537    4.02538  0.0000E+00  0.3223E-07  0.3649E-11  0.8787E-04  0.0000E+00 -0.3002E+12
   -2.475293    4.02586  0.0000E+00  0.3164E-07  0.4189E-11  0.6570E-04  0.0000E+00 -0.4110E+12
   -2.544049    4.02652  0.0000E+00  0.3067E-07  0.5177E-11  0.4510E-04  0.0000E+00 -0.6200E+12
   -2.612804    4.02750  0.0000E+00  0.2876E-07  0.7613E-11  0.2307E-04  0.0000E+00 -0.1289E+13
   -2.681558    4.02945  0.0000E+00  0.1863E-07  0.2729E-10  0.1956E-05  0.0000E+00 -0.2030E+14
   -2.750311    4.05305  0.0000E+00  0.0000E+00  0.0000E+00  0.0000E+00  0.0000E+00  0.0000E+00
