 1 - depth, m
 2 - temperature, C
 3 - salinity, kg/kg
 4 - turbulent kinetic energy, m**2/s**2
 5 - dissipation rate, m**2/s**3
 6 - kinematic heat conductance, m**2/s
 7 - modulus of horizontal velocity, m/s
 8 - Richardson number, n/d
   -0.000000    7.58321  0.0000E+00  0.4016E-03  0.3169E-03  0.1336E-03  0.2221E+00  0.1153E+00
   -0.068764    7.65223  0.0000E+00  0.2131E-03  0.8062E-04  0.2920E-03  0.6790E-01  0.8261E-01
   -0.137528    7.66398  0.0000E+00  0.1509E-03  0.3416E-04  0.2662E-03  0.5165E-01 -0.2168E+00
   -0.206293    7.67318  0.0000E+00  0.1121E-03  0.1546E-04  0.2652E-03  0.4253E-01 -0.1164E-01
   -0.275059    7.67975  0.0000E+00  0.8779E-04  0.7434E-05  0.2698E-03  0.3649E-01 -0.1167E-01
   -0.343825    7.68514  0.0000E+00  0.7137E-04  0.3816E-05  0.2835E-03  0.3134E-01 -0.1317E-01
   -0.412592    7.68973  0.0000E+00  0.6006E-04  0.2129E-05  0.3015E-03  0.2704E-01 -0.1404E-01
   -0.481359    7.69371  0.0000E+00  0.5183E-04  0.1293E-05  0.3217E-03  0.2345E-01 -0.1838E-01
   -0.550127    7.69722  0.0000E+00  0.4547E-04  0.8465E-06  0.3458E-03  0.2044E-01 -0.2379E-01
   -0.618895    7.70033  0.0000E+00  0.4046E-04  0.5900E-06  0.3701E-03  0.1796E-01 -0.3054E-01
   -0.687663    7.70313  0.0000E+00  0.3638E-04  0.4310E-06  0.3947E-03  0.1588E-01 -0.3890E-01
   -0.756432    7.70567  0.0000E+00  0.3297E-04  0.3260E-06  0.4200E-03  0.1410E-01 -0.3766E-01
   -0.825201    7.70800  0.0000E+00  0.3008E-04  0.2534E-06  0.4459E-03  0.1257E-01 -0.2651E-01
   -0.893971    7.71015  0.0000E+00  0.2759E-04  0.2012E-06  0.4730E-03  0.1124E-01  0.1037E+00
   -0.962740    7.71215  0.0000E+00  0.2545E-04  0.1628E-06  0.5024E-03  0.1009E-01  0.7720E+00
   -1.031510    7.71400  0.0000E+00  0.2361E-04  0.1340E-06  0.5310E-03  0.9080E-02  0.5059E+01
   -1.100280    7.71573  0.0000E+00  0.2200E-04  0.1119E-06  0.5625E-03  0.8177E-02  0.9098E+00
   -1.169050    7.71734  0.0000E+00  0.2058E-04  0.9461E-07  0.5985E-03  0.7364E-02  0.1264E+02
   -1.237820    7.71885  0.0000E+00  0.1932E-04  0.8090E-07  0.6389E-03  0.6631E-02  0.1253E+01
   -1.306591    7.72026  0.0000E+00  0.1819E-04  0.6986E-07  0.6837E-03  0.5967E-02  0.2478E+01
   -1.375361    7.72157  0.0000E+00  0.1716E-04  0.6086E-07  0.7505E-03  0.5362E-02  0.6091E+02
   -1.444131    7.72277  0.0000E+00  0.1623E-04  0.5342E-07  0.8241E-03  0.4811E-02  0.5630E+02
   -1.512902    7.72386  0.0000E+00  0.1537E-04  0.4722E-07  0.9293E-03  0.4303E-02  0.3749E+03
   -1.581672    7.72485  0.0000E+00  0.1457E-04  0.4198E-07  0.1062E-02  0.3845E-02  0.3237E+02
   -1.650442    7.72571  0.0000E+00  0.1383E-04  0.3754E-07  0.1165E-02  0.3436E-02  0.8926E+02
   -1.719212    7.72648  0.0000E+00  0.1315E-04  0.3377E-07  0.1265E-02  0.3066E-02  0.1950E+05
   -1.787982    7.72717  0.0000E+00  0.1252E-04  0.3057E-07  0.1360E-02  0.2730E-02  0.1473E+03
   -1.856751    7.72778  0.0000E+00  0.1192E-04  0.2785E-07  0.1431E-02  0.2424E-02  0.4405E+02
   -1.925521    7.72833  0.0000E+00  0.1137E-04  0.2554E-07  0.1486E-02  0.2144E-02  0.4654E+02
   -1.994290    7.72885  0.0000E+00  0.1084E-04  0.2360E-07  0.1505E-02  0.1888E-02  0.2501E+02
   -2.063059    7.72934  0.0000E+00  0.1036E-04  0.2201E-07  0.1507E-02  0.1652E-02  0.4401E+02
   -2.131827    7.72982  0.0000E+00  0.9898E-05  0.2076E-07  0.1486E-02  0.1436E-02  0.6028E+01
   -2.200595    7.73030  0.0000E+00  0.9475E-05  0.1985E-07  0.1449E-02  0.1238E-02  0.3427E+01
   -2.269363    7.73079  0.0000E+00  0.9085E-05  0.1928E-07  0.1392E-02  0.1056E-02  0.1281E+02
   -2.338130    7.73129  0.0000E+00  0.8725E-05  0.1909E-07  0.1298E-02  0.8962E-03  0.3145E+02
   -2.406897    7.73182  0.0000E+00  0.8399E-05  0.1932E-07  0.1179E-02  0.7602E-03  0.1641E+01
   -2.475663    7.73239  0.0000E+00  0.8103E-05  0.2007E-07  0.1053E-02  0.6471E-03  0.2323E+03
   -2.544429    7.73303  0.0000E+00  0.7776E-05  0.2183E-07  0.8620E-03  0.5534E-03  0.2482E+02
   -2.613194    7.73382  0.0000E+00  0.7246E-05  0.2726E-07  0.3973E-03  0.4577E-03  0.6522E+03
   -2.681958    7.73548  0.0000E+00  0.4188E-05  0.9028E-07  0.2552E-04  0.3383E-03 -0.6041E+04
   -2.750722    7.76031  0.0000E+00  0.0000E+00  0.0000E+00  0.0000E+00  0.3378E-03  0.0000E+00
