 1 - depth, m
 2 - temperature, C
 3 - salinity, kg/kg
 4 - turbulent kinetic energy, m**2/s**2
 5 - dissipation rate, m**2/s**3
 6 - kinematic heat conductance, m**2/s
 7 - modulus of horizontal velocity, m/s
 8 - Richardson number, n/d
   -0.000000    0.00000  0.0000E+00  0.1240E-11  0.2799E-15  0.1000E-09  0.0000E+00  0.1903E+17
   -0.068729    0.29727  0.0000E+00  0.3022E-11  0.2958E-15  0.1000E-09  0.0000E+00  0.1723E+17
   -0.137459    0.59033  0.0000E+00  0.6731E-11  0.4843E-15  0.1000E-09  0.0000E+00  0.1551E+17
   -0.206190    0.87905  0.0000E+00  0.1362E-10  0.8846E-15  0.1000E-09  0.0000E+00  0.1384E+17
   -0.274921    1.16295  0.0000E+00  0.2629E-10  0.1635E-14  0.1000E-09  0.0000E+00  0.1224E+17
   -0.343653    1.44174  0.0000E+00  0.4956E-10  0.3000E-14  0.1000E-09  0.0000E+00  0.1071E+17
   -0.412385    1.71476  0.0000E+00  0.9231E-10  0.5465E-14  0.1000E-09  0.0000E+00  0.9238E+16
   -0.481118    1.98124  0.0000E+00  0.1706E-09  0.9893E-14  0.1000E-09  0.0000E+00  0.7845E+16
   -0.549851    2.24032  0.0000E+00  0.3136E-09  0.1783E-13  0.1000E-09  0.0000E+00  0.6531E+16
   -0.618585    2.49099  0.0000E+00  0.5736E-09  0.3197E-13  0.1000E-09  0.0000E+00  0.5317E+16
   -0.687319    2.73256  0.0000E+00  0.1044E-08  0.5705E-13  0.1000E-09  0.0000E+00  0.4243E+16
   -0.756053    2.96654  0.0000E+00  0.1889E-08  0.1013E-12  0.1575E-09  0.0000E+00  0.3274E+16
   -0.824788    3.19389  0.0000E+00  0.3401E-08  0.1789E-12  0.3820E-09  0.0000E+00  0.2384E+16
   -0.893523    3.41457  0.0000E+00  0.6091E-08  0.3143E-12  0.1020E-08  0.0000E+00  0.1569E+16
   -0.962258    3.62848  0.0000E+00  0.1084E-07  0.5489E-12  0.3390E-08  0.0000E+00  0.8244E+15
   -1.030993    3.83388  0.0000E+00  0.1894E-07  0.9430E-12  0.2684E-07  0.0000E+00  0.1789E+15
   -1.099729    4.00701  0.0000E+00  0.1928E-07  0.9609E-12  0.1429E-03  0.0000E+00 -0.5973E+11
   -1.168465    4.00719  0.0000E+00  0.1944E-07  0.9710E-12  0.1374E-03  0.0000E+00 -0.6644E+11
   -1.237200    4.00739  0.0000E+00  0.1959E-07  0.9820E-12  0.1415E-03  0.0000E+00 -0.6645E+11
   -1.305936    4.00759  0.0000E+00  0.1972E-07  0.9936E-12  0.1450E-03  0.0000E+00 -0.6569E+11
   -1.374672    4.00779  0.0000E+00  0.1983E-07  0.1006E-11  0.1461E-03  0.0000E+00 -0.6591E+11
   -1.443408    4.00799  0.0000E+00  0.1993E-07  0.1019E-11  0.1456E-03  0.0000E+00 -0.6675E+11
   -1.512144    4.00818  0.0000E+00  0.2001E-07  0.1034E-11  0.1449E-03  0.0000E+00 -0.6777E+11
   -1.580880    4.00838  0.0000E+00  0.2009E-07  0.1050E-11  0.1438E-03  0.0000E+00 -0.6900E+11
   -1.649615    4.00858  0.0000E+00  0.2015E-07  0.1068E-11  0.1424E-03  0.0000E+00 -0.7044E+11
   -1.718351    4.00878  0.0000E+00  0.2020E-07  0.1088E-11  0.1406E-03  0.0000E+00 -0.7213E+11
   -1.787086    4.00898  0.0000E+00  0.2023E-07  0.1111E-11  0.1384E-03  0.0000E+00 -0.7409E+11
   -1.855822    4.00919  0.0000E+00  0.2025E-07  0.1136E-11  0.1358E-03  0.0000E+00 -0.7639E+11
   -1.924556    4.00940  0.0000E+00  0.2026E-07  0.1165E-11  0.1328E-03  0.0000E+00 -0.7909E+11
   -1.993291    4.00962  0.0000E+00  0.2025E-07  0.1198E-11  0.1294E-03  0.0000E+00 -0.8228E+11
   -2.062025    4.00984  0.0000E+00  0.2022E-07  0.1235E-11  0.1253E-03  0.0000E+00 -0.8582E+11
   -2.130759    4.01007  0.0000E+00  0.2017E-07  0.1280E-11  0.1208E-03  0.0000E+00 -0.9004E+11
   -2.199493    4.01032  0.0000E+00  0.2009E-07  0.1339E-11  0.1138E-03  0.0000E+00 -0.9664E+11
   -2.268226    4.01057  0.0000E+00  0.1996E-07  0.1424E-11  0.9371E-04  0.0000E+00 -0.1190E+12
   -2.336959    4.01088  0.0000E+00  0.1977E-07  0.1541E-11  0.7663E-04  0.0000E+00 -0.1481E+12
   -2.405691    4.01126  0.0000E+00  0.1949E-07  0.1713E-11  0.6253E-04  0.0000E+00 -0.1856E+12
   -2.474423    4.01173  0.0000E+00  0.1910E-07  0.1981E-11  0.4848E-04  0.0000E+00 -0.2465E+12
   -2.543154    4.01235  0.0000E+00  0.1847E-07  0.2471E-11  0.3310E-04  0.0000E+00 -0.3771E+12
   -2.611885    4.01325  0.0000E+00  0.1724E-07  0.3696E-11  0.1658E-04  0.0000E+00 -0.8150E+12
   -2.680615    4.01512  0.0000E+00  0.1134E-07  0.1294E-10  0.1539E-05  0.0000E+00 -0.1260E+14
   -2.749344    4.03570  0.0000E+00  0.0000E+00  0.0000E+00  0.0000E+00  0.0000E+00  0.0000E+00
