 1 - depth, m
 2 - temperature, C
 3 - salinity, kg/kg
 4 - turbulent kinetic energy, m**2/s**2
 5 - dissipation rate, m**2/s**3
 6 - kinematic heat conductance, m**2/s
 7 - modulus of horizontal velocity, m/s
 8 - Richardson number, n/d
   -0.000000    0.00000  0.0000E+00  0.2207E-12  0.3343E-16  0.1000E-09  0.0000E+00  0.1564E+17
   -0.068752    0.24242  0.0000E+00  0.4339E-12  0.3658E-16  0.1000E-09  0.0000E+00  0.1439E+17
   -0.137505    0.48137  0.0000E+00  0.8860E-12  0.5817E-16  0.1000E-09  0.0000E+00  0.1318E+17
   -0.206258    0.71634  0.0000E+00  0.1721E-11  0.1030E-15  0.1000E-09  0.0000E+00  0.1199E+17
   -0.275012    0.94694  0.0000E+00  0.3233E-11  0.1855E-15  0.1000E-09  0.0000E+00  0.1089E+17
   -0.343767    1.17350  0.0000E+00  0.5952E-11  0.3326E-15  0.1000E-09  0.0000E+00  0.9836E+16
   -0.412522    1.39597  0.0000E+00  0.1084E-10  0.5924E-15  0.1000E-09  0.0000E+00  0.8832E+16
   -0.481277    1.61428  0.0000E+00  0.1958E-10  0.1049E-14  0.1000E-09  0.0000E+00  0.7874E+16
   -0.550033    1.82825  0.0000E+00  0.3520E-10  0.1848E-14  0.1000E-09  0.0000E+00  0.6954E+16
   -0.618790    2.03743  0.0000E+00  0.6298E-10  0.3242E-14  0.1000E-09  0.0000E+00  0.6087E+16
   -0.687546    2.24171  0.0000E+00  0.1121E-09  0.5658E-14  0.1000E-09  0.0000E+00  0.5330E+16
   -0.756304    2.44335  0.0000E+00  0.1985E-09  0.9827E-14  0.1000E-09  0.0000E+00  0.4635E+16
   -0.825061    2.64375  0.0000E+00  0.3496E-09  0.1698E-13  0.1000E-09  0.0000E+00  0.3956E+16
   -0.893819    2.84293  0.0000E+00  0.6129E-09  0.2921E-13  0.1000E-09  0.0000E+00  0.3293E+16
   -0.962577    3.04087  0.0000E+00  0.1069E-08  0.5000E-13  0.1000E-09  0.0000E+00  0.2645E+16
   -1.031335    3.23752  0.0000E+00  0.1853E-08  0.8507E-13  0.2154E-09  0.0000E+00  0.2011E+16
   -1.100093    3.43257  0.0000E+00  0.3193E-08  0.1439E-12  0.5257E-09  0.0000E+00  0.1393E+16
   -1.168852    3.62568  0.0000E+00  0.5470E-08  0.2420E-12  0.1550E-08  0.0000E+00  0.7946E+15
   -1.237610    3.81587  0.0000E+00  0.9287E-08  0.4037E-12  0.9043E-08  0.0000E+00  0.2273E+15
   -1.306369    3.99504  0.0000E+00  0.9622E-08  0.4190E-12  0.7548E-04  0.0000E+00 -0.4240E+11
   -1.375127    3.99535  0.0000E+00  0.9778E-08  0.4275E-12  0.7720E-04  0.0000E+00 -0.4871E+11
   -1.443886    3.99569  0.0000E+00  0.9917E-08  0.4364E-12  0.7905E-04  0.0000E+00 -0.5011E+11
   -1.512645    3.99602  0.0000E+00  0.1004E-07  0.4460E-12  0.8084E-04  0.0000E+00 -0.5105E+11
   -1.581403    3.99635  0.0000E+00  0.1016E-07  0.4565E-12  0.8237E-04  0.0000E+00 -0.5200E+11
   -1.650162    3.99668  0.0000E+00  0.1026E-07  0.4679E-12  0.8361E-04  0.0000E+00 -0.5307E+11
   -1.718920    3.99700  0.0000E+00  0.1036E-07  0.4807E-12  0.8418E-04  0.0000E+00 -0.5453E+11
   -1.787678    3.99732  0.0000E+00  0.1044E-07  0.4951E-12  0.8378E-04  0.0000E+00 -0.5664E+11
   -1.856436    3.99764  0.0000E+00  0.1052E-07  0.5114E-12  0.8242E-04  0.0000E+00 -0.5953E+11
   -1.925194    3.99797  0.0000E+00  0.1059E-07  0.5302E-12  0.8011E-04  0.0000E+00 -0.6336E+11
   -1.993951    3.99832  0.0000E+00  0.1064E-07  0.5520E-12  0.7650E-04  0.0000E+00 -0.6872E+11
   -2.062708    3.99868  0.0000E+00  0.1067E-07  0.5779E-12  0.7121E-04  0.0000E+00 -0.7614E+11
   -2.131465    3.99906  0.0000E+00  0.1069E-07  0.6089E-12  0.6522E-04  0.0000E+00 -0.8583E+11
   -2.200221    3.99949  0.0000E+00  0.1069E-07  0.6465E-12  0.5941E-04  0.0000E+00 -0.9756E+11
   -2.268977    3.99995  0.0000E+00  0.1066E-07  0.6936E-12  0.5363E-04  0.0000E+00 -0.1124E+12
   -2.337733    4.00047  0.0000E+00  0.1059E-07  0.7567E-12  0.4718E-04  0.0000E+00 -0.1335E+12
   -2.406488    4.00106  0.0000E+00  0.1048E-07  0.8463E-12  0.3971E-04  0.0000E+00 -0.1668E+12
   -2.475242    4.00176  0.0000E+00  0.1028E-07  0.9854E-12  0.3112E-04  0.0000E+00 -0.2264E+12
   -2.543996    4.00267  0.0000E+00  0.9943E-08  0.1240E-11  0.2130E-04  0.0000E+00 -0.3610E+12
   -2.612750    4.00402  0.0000E+00  0.9226E-08  0.1886E-11  0.1049E-04  0.0000E+00 -0.8530E+12
   -2.681503    4.00687  0.0000E+00  0.6181E-08  0.6224E-11  0.1118E-05  0.0000E+00 -0.1470E+14
   -2.750255    4.03426  0.0000E+00  0.0000E+00  0.0000E+00  0.0000E+00  0.0000E+00  0.0000E+00
