 1 - depth, m
 2 - temperature, C
 3 - salinity, kg/kg
 4 - turbulent kinetic energy, m**2/s**2
 5 - dissipation rate, m**2/s**3
 6 - kinematic heat conductance, m**2/s
 7 - modulus of horizontal velocity, m/s
 8 - Richardson number, n/d
   -0.000000    6.40109  0.0000E+00  0.7247E-04  0.1748E-04  0.5918E-04  0.7451E-01 -0.7489E-02
   -0.068744    6.47929  0.0000E+00  0.3908E-04  0.3663E-05  0.7940E-04  0.3070E-01 -0.9866E-02
   -0.137489    6.50081  0.0000E+00  0.2844E-04  0.1312E-05  0.9798E-04  0.2263E-01 -0.1971E-01
   -0.206235    6.51688  0.0000E+00  0.2230E-04  0.5774E-06  0.1217E-03  0.1769E-01 -0.3297E-01
   -0.274981    6.52991  0.0000E+00  0.1873E-04  0.3059E-06  0.1469E-03  0.1425E-01 -0.4605E-01
   -0.343728    6.54062  0.0000E+00  0.1638E-04  0.1872E-06  0.1743E-03  0.1164E-01 -0.6288E-01
   -0.412475    6.54946  0.0000E+00  0.1464E-04  0.1265E-06  0.2033E-03  0.9631E-02 -0.8415E-01
   -0.481223    6.55686  0.0000E+00  0.1323E-04  0.9116E-07  0.2337E-03  0.8043E-02 -0.1112E+00
   -0.549971    6.56315  0.0000E+00  0.1204E-04  0.6842E-07  0.2672E-03  0.6770E-02 -0.1505E+00
   -0.618720    6.56854  0.0000E+00  0.1102E-04  0.5297E-07  0.3040E-03  0.5756E-02 -0.1955E+00
   -0.687469    6.57319  0.0000E+00  0.1017E-04  0.4202E-07  0.3599E-03  0.4936E-02 -0.1464E+00
   -0.756218    6.57707  0.0000E+00  0.9466E-05  0.3417E-07  0.5386E-03  0.4271E-02  0.5517E+03
   -0.824968    6.57990  0.0000E+00  0.8908E-05  0.2860E-07  0.7542E-03  0.3749E-02  0.1135E+03
   -0.893717    6.58194  0.0000E+00  0.8460E-05  0.2449E-07  0.8834E-03  0.3341E-02  0.1740E+02
   -0.962468    6.58354  0.0000E+00  0.8087E-05  0.2131E-07  0.9907E-03  0.2992E-02  0.2902E+02
   -1.031218    6.58488  0.0000E+00  0.7771E-05  0.1878E-07  0.1058E-02  0.2695E-02  0.1624E+02
   -1.099968    6.58607  0.0000E+00  0.7495E-05  0.1671E-07  0.1104E-02  0.2424E-02  0.4151E+01
   -1.168719    6.58718  0.0000E+00  0.7249E-05  0.1499E-07  0.1144E-02  0.2176E-02  0.2708E+01
   -1.237470    6.58823  0.0000E+00  0.7026E-05  0.1354E-07  0.1179E-02  0.1949E-02  0.2614E+01
   -1.306221    6.58922  0.0000E+00  0.6821E-05  0.1231E-07  0.1211E-02  0.1740E-02  0.2553E+01
   -1.374972    6.59017  0.0000E+00  0.6630E-05  0.1127E-07  0.1240E-02  0.1547E-02  0.2493E+01
   -1.443722    6.59107  0.0000E+00  0.6451E-05  0.1038E-07  0.1266E-02  0.1369E-02  0.2443E+01
   -1.512473    6.59193  0.0000E+00  0.6279E-05  0.9625E-08  0.1294E-02  0.1203E-02  0.2237E+01
   -1.581224    6.59276  0.0000E+00  0.6115E-05  0.8984E-08  0.1317E-02  0.1055E-02  0.2009E+01
   -1.649975    6.59356  0.0000E+00  0.5959E-05  0.8448E-08  0.1331E-02  0.9234E-03  0.1815E+01
   -1.718725    6.59434  0.0000E+00  0.5810E-05  0.8007E-08  0.1333E-02  0.8081E-03  0.1645E+01
   -1.787476    6.59509  0.0000E+00  0.5669E-05  0.7652E-08  0.1326E-02  0.7072E-03  0.1493E+01
   -1.856226    6.59584  0.0000E+00  0.5536E-05  0.7376E-08  0.1310E-02  0.6192E-03  0.1356E+01
   -1.924976    6.59657  0.0000E+00  0.5410E-05  0.7173E-08  0.1286E-02  0.5427E-03  0.1229E+01
   -1.993725    6.59731  0.0000E+00  0.5294E-05  0.7037E-08  0.1254E-02  0.4764E-03  0.1110E+01
   -2.062475    6.59805  0.0000E+00  0.5185E-05  0.6966E-08  0.1216E-02  0.4191E-03  0.9976E+00
   -2.131224    6.59879  0.0000E+00  0.5086E-05  0.6955E-08  0.1174E-02  0.3695E-03  0.9005E+00
   -2.199972    6.59954  0.0000E+00  0.4993E-05  0.7005E-08  0.1130E-02  0.3266E-03  0.8981E+00
   -2.268720    6.60029  0.0000E+00  0.4903E-05  0.7125E-08  0.1079E-02  0.2884E-03  0.1049E+01
   -2.337468    6.60107  0.0000E+00  0.4808E-05  0.7344E-08  0.1015E-02  0.2533E-03  0.1399E+01
   -2.406215    6.60187  0.0000E+00  0.4705E-05  0.7712E-08  0.9340E-03  0.2202E-03  0.2037E+01
   -2.474962    6.60273  0.0000E+00  0.4589E-05  0.8324E-08  0.8324E-03  0.1887E-03  0.3254E+01
   -2.543708    6.60367  0.0000E+00  0.4448E-05  0.9414E-08  0.7206E-03  0.1585E-03  0.6332E+01
   -2.612454    6.60473  0.0000E+00  0.4223E-05  0.1207E-07  0.5552E-03  0.1305E-03  0.4018E+02
   -2.681199    6.60607  0.0000E+00  0.2613E-05  0.4408E-07  0.2148E-04  0.9902E-04 -0.2377E+04
   -2.749943    6.63957  0.0000E+00  0.0000E+00  0.0000E+00  0.0000E+00  0.9896E-04  0.0000E+00
