 1 - depth, m
 2 - temperature, C
 3 - salinity, kg/kg
 4 - turbulent kinetic energy, m**2/s**2
 5 - dissipation rate, m**2/s**3
 6 - kinematic heat conductance, m**2/s
 7 - modulus of horizontal velocity, m/s
 8 - Richardson number, n/d
   -0.000000    0.00000  0.0000E+00  0.3478E-12  0.5970E-16  0.1000E-09  0.0000E+00  0.1484E+17
   -0.068774    0.22962  0.0000E+00  0.7265E-12  0.6670E-16  0.1000E-09  0.0000E+00  0.1390E+17
   -0.137549    0.45915  0.0000E+00  0.1536E-11  0.1100E-15  0.1000E-09  0.0000E+00  0.1308E+17
   -0.206324    0.69074  0.0000E+00  0.3059E-11  0.2010E-15  0.1000E-09  0.0000E+00  0.1226E+17
   -0.275100    0.92464  0.0000E+00  0.5881E-11  0.3724E-15  0.1000E-09  0.0000E+00  0.1146E+17
   -0.343876    1.16158  0.0000E+00  0.1110E-10  0.6872E-15  0.1000E-09  0.0000E+00  0.1058E+17
   -0.412653    1.40055  0.0000E+00  0.2076E-10  0.1262E-14  0.1000E-09  0.0000E+00  0.9631E+16
   -0.481431    1.64013  0.0000E+00  0.3859E-10  0.2307E-14  0.1000E-09  0.0000E+00  0.8625E+16
   -0.550209    1.87868  0.0000E+00  0.7154E-10  0.4209E-14  0.1000E-09  0.0000E+00  0.7575E+16
   -0.618987    2.11403  0.0000E+00  0.1322E-09  0.7659E-14  0.1000E-09  0.0000E+00  0.6534E+16
   -0.687766    2.34485  0.0000E+00  0.2436E-09  0.1390E-13  0.1000E-09  0.0000E+00  0.5556E+16
   -0.756545    2.57132  0.0000E+00  0.4476E-09  0.2516E-13  0.1000E-09  0.0000E+00  0.4630E+16
   -0.825324    2.79331  0.0000E+00  0.8199E-09  0.4542E-13  0.1000E-09  0.0000E+00  0.3747E+16
   -0.894104    3.01005  0.0000E+00  0.1498E-08  0.8183E-13  0.1426E-09  0.0000E+00  0.2919E+16
   -0.962884    3.22109  0.0000E+00  0.2730E-08  0.1471E-12  0.3473E-09  0.0000E+00  0.2155E+16
   -1.031664    3.42650  0.0000E+00  0.4956E-08  0.2637E-12  0.9183E-09  0.0000E+00  0.1460E+16
   -1.100444    3.62797  0.0000E+00  0.8959E-08  0.4707E-12  0.2959E-08  0.0000E+00  0.8085E+15
   -1.169224    3.82624  0.0000E+00  0.1600E-07  0.8313E-12  0.2142E-07  0.0000E+00  0.1984E+15
   -1.238005    4.00474  0.0000E+00  0.1637E-07  0.8522E-12  0.1163E-03  0.0000E+00 -0.5886E+11
   -1.306785    4.00494  0.0000E+00  0.1655E-07  0.8639E-12  0.1133E-03  0.0000E+00 -0.7167E+11
   -1.375566    4.00519  0.0000E+00  0.1672E-07  0.8774E-12  0.1176E-03  0.0000E+00 -0.7230E+11
   -1.444346    4.00543  0.0000E+00  0.1688E-07  0.8926E-12  0.1210E-03  0.0000E+00 -0.7251E+11
   -1.513127    4.00567  0.0000E+00  0.1702E-07  0.9084E-12  0.1224E-03  0.0000E+00 -0.7338E+11
   -1.581907    4.00591  0.0000E+00  0.1714E-07  0.9249E-12  0.1221E-03  0.0000E+00 -0.7515E+11
   -1.650688    4.00615  0.0000E+00  0.1725E-07  0.9432E-12  0.1213E-03  0.0000E+00 -0.7726E+11
   -1.719468    4.00640  0.0000E+00  0.1734E-07  0.9635E-12  0.1202E-03  0.0000E+00 -0.7965E+11
   -1.788248    4.00665  0.0000E+00  0.1742E-07  0.9862E-12  0.1187E-03  0.0000E+00 -0.8242E+11
   -1.857028    4.00691  0.0000E+00  0.1749E-07  0.1012E-11  0.1168E-03  0.0000E+00 -0.8564E+11
   -1.925808    4.00717  0.0000E+00  0.1754E-07  0.1041E-11  0.1144E-03  0.0000E+00 -0.8940E+11
   -1.994587    4.00744  0.0000E+00  0.1758E-07  0.1073E-11  0.1117E-03  0.0000E+00 -0.9382E+11
   -2.063366    4.00772  0.0000E+00  0.1760E-07  0.1111E-11  0.1084E-03  0.0000E+00 -0.9884E+11
   -2.132145    4.00801  0.0000E+00  0.1759E-07  0.1156E-11  0.1045E-03  0.0000E+00 -0.1049E+12
   -2.200923    4.00832  0.0000E+00  0.1756E-07  0.1212E-11  0.9836E-04  0.0000E+00 -0.1139E+12
   -2.269701    4.00865  0.0000E+00  0.1750E-07  0.1288E-11  0.8713E-04  0.0000E+00 -0.1318E+12
   -2.338478    4.00902  0.0000E+00  0.1738E-07  0.1395E-11  0.7292E-04  0.0000E+00 -0.1618E+12
   -2.407255    4.00947  0.0000E+00  0.1718E-07  0.1552E-11  0.5914E-04  0.0000E+00 -0.2060E+12
   -2.476032    4.01003  0.0000E+00  0.1688E-07  0.1797E-11  0.4584E-04  0.0000E+00 -0.2766E+12
   -2.544808    4.01077  0.0000E+00  0.1636E-07  0.2242E-11  0.3137E-04  0.0000E+00 -0.4269E+12
   -2.613583    4.01186  0.0000E+00  0.1529E-07  0.3351E-11  0.1567E-04  0.0000E+00 -0.9374E+12
   -2.682358    4.01410  0.0000E+00  0.1026E-07  0.1144E-10  0.1523E-05  0.0000E+00 -0.1442E+14
   -2.751132    4.03740  0.0000E+00  0.0000E+00  0.0000E+00  0.0000E+00  0.0000E+00  0.0000E+00
