 1 - depth, m
 2 - temperature, C
 3 - salinity, kg/kg
 4 - turbulent kinetic energy, m**2/s**2
 5 - dissipation rate, m**2/s**3
 6 - kinematic heat conductance, m**2/s
 7 - modulus of horizontal velocity, m/s
 8 - Richardson number, n/d
   -0.000000    0.00000  0.0000E+00  0.1219E-13  0.7603E-17  0.1000E-09  0.0000E+00  0.1257E+17
   -0.068752    0.19354  0.0000E+00  0.1219E-13  0.7603E-17  0.1000E-09  0.0000E+00  0.1151E+17
   -0.137505    0.38053  0.0000E+00  0.1219E-13  0.7603E-17  0.1000E-09  0.0000E+00  0.1054E+17
   -0.206259    0.56117  0.0000E+00  0.1219E-13  0.7603E-17  0.1000E-09  0.0000E+00  0.9629E+16
   -0.275013    0.73559  0.0000E+00  0.1219E-13  0.7603E-17  0.1000E-09  0.0000E+00  0.8856E+16
   -0.343767    0.90520  0.0000E+00  0.1219E-13  0.7603E-17  0.1000E-09  0.0000E+00  0.8144E+16
   -0.412522    1.07036  0.0000E+00  0.1219E-13  0.7603E-17  0.1000E-09  0.0000E+00  0.7479E+16
   -0.481278    1.23118  0.0000E+00  0.1219E-13  0.7603E-17  0.1000E-09  0.0000E+00  0.6847E+16
   -0.550034    1.38755  0.0000E+00  0.1515E-13  0.7603E-17  0.1000E-09  0.0000E+00  0.6224E+16
   -0.618790    1.53874  0.0000E+00  0.6673E-13  0.9048E-17  0.1000E-09  0.0000E+00  0.5644E+16
   -0.687547    1.68479  0.0000E+00  0.1772E-12  0.1789E-16  0.1000E-09  0.0000E+00  0.5194E+16
   -0.756305    1.82826  0.0000E+00  0.4044E-12  0.3769E-16  0.1000E-09  0.0000E+00  0.4819E+16
   -0.825062    1.97083  0.0000E+00  0.8777E-12  0.7893E-16  0.1000E-09  0.0000E+00  0.4459E+16
   -0.893820    2.11271  0.0000E+00  0.1867E-11  0.1636E-15  0.1000E-09  0.0000E+00  0.4110E+16
   -0.962578    2.25409  0.0000E+00  0.3927E-11  0.3360E-15  0.1000E-09  0.0000E+00  0.3771E+16
   -1.031336    2.39516  0.0000E+00  0.8182E-11  0.6841E-15  0.1000E-09  0.0000E+00  0.3450E+16
   -1.100094    2.53652  0.0000E+00  0.1689E-10  0.1381E-14  0.1000E-09  0.0000E+00  0.3132E+16
   -1.168853    2.67835  0.0000E+00  0.3462E-10  0.2767E-14  0.1000E-09  0.0000E+00  0.2814E+16
   -1.237612    2.82077  0.0000E+00  0.7044E-10  0.5507E-14  0.1000E-09  0.0000E+00  0.2495E+16
   -1.306370    2.96385  0.0000E+00  0.1424E-09  0.1089E-13  0.1000E-09  0.0000E+00  0.2173E+16
   -1.375129    3.10762  0.0000E+00  0.2857E-09  0.2138E-13  0.1000E-09  0.0000E+00  0.1871E+16
   -1.443888    3.25398  0.0000E+00  0.5697E-09  0.4173E-13  0.1365E-09  0.0000E+00  0.1556E+16
   -1.512646    3.40349  0.0000E+00  0.1130E-08  0.8104E-13  0.3378E-09  0.0000E+00  0.1221E+16
   -1.581405    3.55619  0.0000E+00  0.2238E-08  0.1571E-12  0.9267E-09  0.0000E+00  0.8631E+15
   -1.650164    3.71165  0.0000E+00  0.4404E-08  0.3029E-12  0.3197E-08  0.0000E+00  0.4824E+15
   -1.718922    3.86779  0.0000E+00  0.8509E-08  0.5744E-12  0.2717E-07  0.0000E+00  0.1077E+15
   -1.787680    4.00402  0.0000E+00  0.9151E-08  0.6201E-12  0.5076E-04  0.0000E+00 -0.1171E+12
   -1.856438    4.00444  0.0000E+00  0.9447E-08  0.6459E-12  0.5121E-04  0.0000E+00 -0.1303E+12
   -1.925196    4.00489  0.0000E+00  0.9706E-08  0.6741E-12  0.5186E-04  0.0000E+00 -0.1361E+12
   -1.993954    4.00535  0.0000E+00  0.9930E-08  0.7053E-12  0.5194E-04  0.0000E+00 -0.1429E+12
   -2.062711    4.00583  0.0000E+00  0.1012E-07  0.7403E-12  0.5083E-04  0.0000E+00 -0.1512E+12
   -2.131468    4.00631  0.0000E+00  0.1027E-07  0.7806E-12  0.4896E-04  0.0000E+00 -0.1623E+12
   -2.200224    4.00683  0.0000E+00  0.1038E-07  0.8282E-12  0.4637E-04  0.0000E+00 -0.1773E+12
   -2.268980    4.00737  0.0000E+00  0.1045E-07  0.8867E-12  0.4305E-04  0.0000E+00 -0.1987E+12
   -2.337736    4.00796  0.0000E+00  0.1047E-07  0.9642E-12  0.3876E-04  0.0000E+00 -0.2309E+12
   -2.406491    4.00863  0.0000E+00  0.1043E-07  0.1073E-11  0.3338E-04  0.0000E+00 -0.2830E+12
   -2.475245    4.00943  0.0000E+00  0.1030E-07  0.1242E-11  0.2680E-04  0.0000E+00 -0.3776E+12
   -2.544000    4.01045  0.0000E+00  0.1001E-07  0.1549E-11  0.1890E-04  0.0000E+00 -0.5934E+12
   -2.612753    4.01197  0.0000E+00  0.9342E-08  0.2320E-11  0.9701E-05  0.0000E+00 -0.1389E+13
   -2.681506    4.01522  0.0000E+00  0.6593E-08  0.7158E-11  0.1248E-05  0.0000E+00 -0.2076E+14
   -2.750258    4.04537  0.0000E+00  0.0000E+00  0.0000E+00  0.0000E+00  0.0000E+00  0.0000E+00
