 1 - depth, m
 2 - temperature, C
 3 - salinity, kg/kg
 4 - turbulent kinetic energy, m**2/s**2
 5 - dissipation rate, m**2/s**3
 6 - kinematic heat conductance, m**2/s
 7 - modulus of horizontal velocity, m/s
 8 - Richardson number, n/d
   -0.000000    0.00000  0.0000E+00  0.1219E-13  0.7604E-17  0.1000E-09  0.0000E+00  0.1573E+17
   -0.068739    0.24392  0.0000E+00  0.1219E-13  0.7604E-17  0.1000E-09  0.0000E+00  0.1341E+17
   -0.137479    0.46607  0.0000E+00  0.1219E-13  0.7604E-17  0.1000E-09  0.0000E+00  0.1133E+17
   -0.206219    0.66603  0.0000E+00  0.1219E-13  0.7604E-17  0.1000E-09  0.0000E+00  0.9490E+16
   -0.274959    0.84393  0.0000E+00  0.1481E-13  0.7604E-17  0.1000E-09  0.0000E+00  0.8097E+16
   -0.343701    1.00455  0.0000E+00  0.5866E-13  0.9647E-17  0.1000E-09  0.0000E+00  0.6949E+16
   -0.412443    1.15003  0.0000E+00  0.1670E-12  0.2099E-16  0.1000E-09  0.0000E+00  0.6006E+16
   -0.481185    1.28237  0.0000E+00  0.4157E-12  0.4871E-16  0.1000E-09  0.0000E+00  0.5227E+16
   -0.549928    1.40333  0.0000E+00  0.9907E-12  0.1120E-15  0.1000E-09  0.0000E+00  0.4534E+16
   -0.618671    1.51326  0.0000E+00  0.2314E-11  0.2538E-15  0.1000E-09  0.0000E+00  0.4020E+16
   -0.687415    1.61518  0.0000E+00  0.5327E-11  0.5679E-15  0.1000E-09  0.0000E+00  0.3926E+16
   -0.756158    1.71931  0.0000E+00  0.1211E-10  0.1255E-14  0.1000E-09  0.0000E+00  0.4090E+16
   -0.824903    1.83335  0.0000E+00  0.2720E-10  0.2742E-14  0.1000E-09  0.0000E+00  0.4302E+16
   -0.893647    1.96047  0.0000E+00  0.6039E-10  0.5920E-14  0.1000E-09  0.0000E+00  0.4515E+16
   -0.962392    2.10343  0.0000E+00  0.1326E-09  0.1264E-13  0.1000E-09  0.0000E+00  0.4678E+16
   -1.031137    2.26440  0.0000E+00  0.2874E-09  0.2668E-13  0.1000E-09  0.0000E+00  0.4761E+16
   -1.099882    2.44595  0.0000E+00  0.6157E-09  0.5564E-13  0.1000E-09  0.0000E+00  0.4694E+16
   -1.168627    2.64951  0.0000E+00  0.1305E-08  0.1149E-12  0.1317E-09  0.0000E+00  0.4438E+16
   -1.237373    2.87667  0.0000E+00  0.2738E-08  0.2348E-12  0.3021E-09  0.0000E+00  0.3955E+16
   -1.306118    3.12946  0.0000E+00  0.5689E-08  0.4756E-12  0.7612E-09  0.0000E+00  0.3181E+16
   -1.374863    3.40938  0.0000E+00  0.1170E-07  0.9540E-12  0.2379E-08  0.0000E+00  0.2047E+16
   -1.443609    3.71480  0.0000E+00  0.2365E-07  0.1883E-11  0.1677E-07  0.0000E+00  0.5769E+15
   -1.512354    4.00946  0.0000E+00  0.2447E-07  0.1953E-11  0.1049E-03  0.0000E+00 -0.1289E+12
   -1.581100    4.00982  0.0000E+00  0.2487E-07  0.1993E-11  0.1060E-03  0.0000E+00 -0.1605E+12
   -1.649845    4.01025  0.0000E+00  0.2523E-07  0.2038E-11  0.1099E-03  0.0000E+00 -0.1652E+12
   -1.718590    4.01069  0.0000E+00  0.2555E-07  0.2087E-11  0.1145E-03  0.0000E+00 -0.1667E+12
   -1.787335    4.01112  0.0000E+00  0.2583E-07  0.2140E-11  0.1181E-03  0.0000E+00 -0.1694E+12
   -1.856080    4.01155  0.0000E+00  0.2608E-07  0.2199E-11  0.1184E-03  0.0000E+00 -0.1768E+12
   -1.924824    4.01200  0.0000E+00  0.2630E-07  0.2263E-11  0.1175E-03  0.0000E+00 -0.1870E+12
   -1.993568    4.01246  0.0000E+00  0.2647E-07  0.2334E-11  0.1159E-03  0.0000E+00 -0.1995E+12
   -2.062312    4.01294  0.0000E+00  0.2661E-07  0.2416E-11  0.1133E-03  0.0000E+00 -0.2091E+12
   -2.131056    4.01344  0.0000E+00  0.2670E-07  0.2508E-11  0.1100E-03  0.0000E+00 -0.2198E+12
   -2.199799    4.01395  0.0000E+00  0.2674E-07  0.2617E-11  0.1061E-03  0.0000E+00 -0.2330E+12
   -2.268542    4.01448  0.0000E+00  0.2673E-07  0.2759E-11  0.1011E-03  0.0000E+00 -0.2503E+12
   -2.337284    4.01504  0.0000E+00  0.2662E-07  0.2970E-11  0.8553E-04  0.0000E+00 -0.3040E+12
   -2.406026    4.01571  0.0000E+00  0.2640E-07  0.3283E-11  0.6843E-04  0.0000E+00 -0.3928E+12
   -2.474767    4.01655  0.0000E+00  0.2599E-07  0.3770E-11  0.5336E-04  0.0000E+00 -0.5260E+12
   -2.543508    4.01764  0.0000E+00  0.2525E-07  0.4649E-11  0.3740E-04  0.0000E+00 -0.7991E+12
   -2.612248    4.01923  0.0000E+00  0.2368E-07  0.6807E-11  0.1945E-04  0.0000E+00 -0.1716E+13
   -2.680988    4.02241  0.0000E+00  0.1592E-07  0.2283E-10  0.1958E-05  0.0000E+00 -0.2792E+14
   -2.749727    4.05609  0.0000E+00  0.0000E+00  0.0000E+00  0.0000E+00  0.0000E+00  0.0000E+00
