 1 - depth, m
 2 - temperature, C
 3 - salinity, kg/kg
 4 - turbulent kinetic energy, m**2/s**2
 5 - dissipation rate, m**2/s**3
 6 - kinematic heat conductance, m**2/s
 7 - modulus of horizontal velocity, m/s
 8 - Richardson number, n/d
   -0.000000    4.57275  0.0000E+00  0.6422E-04  0.1465E-04  0.6675E-04  0.6983E-01  0.1485E-02
   -0.068766    4.61261  0.0000E+00  0.3416E-04  0.3003E-05  0.7158E-04  0.3001E-01 -0.1733E-02
   -0.137532    4.62579  0.0000E+00  0.2445E-04  0.1007E-05  0.8692E-04  0.2226E-01 -0.3361E-02
   -0.206300    4.63579  0.0000E+00  0.1882E-04  0.4305E-06  0.1048E-03  0.1743E-01 -0.5811E-02
   -0.275067    4.64404  0.0000E+00  0.1555E-04  0.2261E-06  0.1219E-03  0.1406E-01 -0.8382E-02
   -0.343836    4.65104  0.0000E+00  0.1336E-04  0.1377E-06  0.1385E-03  0.1149E-01 -0.1179E-01
   -0.412605    4.65709  0.0000E+00  0.1168E-04  0.9233E-07  0.1535E-03  0.9491E-02 -0.1622E-01
   -0.481374    4.66243  0.0000E+00  0.1028E-04  0.6556E-07  0.1661E-03  0.7890E-02 -0.2203E-01
   -0.550144    4.66727  0.0000E+00  0.9042E-05  0.4803E-07  0.1780E-03  0.6584E-02 -0.3111E-01
   -0.618914    4.67170  0.0000E+00  0.7970E-05  0.3604E-07  0.1879E-03  0.5528E-02 -0.4309E-01
   -0.687684    4.67584  0.0000E+00  0.7044E-05  0.2754E-07  0.1968E-03  0.4660E-02 -0.5900E-01
   -0.756455    4.67974  0.0000E+00  0.6245E-05  0.2136E-07  0.2052E-03  0.3939E-02 -0.8022E-01
   -0.825227    4.68344  0.0000E+00  0.5559E-05  0.1677E-07  0.2139E-03  0.3335E-02 -0.1087E+00
   -0.893998    4.68694  0.0000E+00  0.4972E-05  0.1333E-07  0.2233E-03  0.2829E-02 -0.1471E+00
   -0.962770    4.69026  0.0000E+00  0.4475E-05  0.1072E-07  0.2341E-03  0.2405E-02 -0.1994E+00
   -1.031542    4.69340  0.0000E+00  0.4056E-05  0.8739E-08  0.2450E-03  0.2050E-02 -0.2504E+00
   -1.100314    4.69638  0.0000E+00  0.3700E-05  0.7204E-08  0.2584E-03  0.1744E-02  0.1836E+00
   -1.169086    4.69918  0.0000E+00  0.3396E-05  0.6003E-08  0.2748E-03  0.1478E-02 -0.3949E-02
   -1.237858    4.70181  0.0000E+00  0.3137E-05  0.5052E-08  0.3026E-03  0.1247E-02 -0.1873E+00
   -1.306631    4.70420  0.0000E+00  0.2915E-05  0.4301E-08  0.3726E-03  0.1047E-02  0.1092E+04
   -1.375403    4.70624  0.0000E+00  0.2734E-05  0.3723E-08  0.4704E-03  0.8773E-03  0.5075E+03
   -1.444176    4.70792  0.0000E+00  0.2587E-05  0.3283E-08  0.5643E-03  0.7399E-03  0.7728E+02
   -1.512948    4.70925  0.0000E+00  0.2471E-05  0.2959E-08  0.6790E-03  0.6261E-03  0.4600E+03
   -1.581721    4.71028  0.0000E+00  0.2382E-05  0.2721E-08  0.7037E-03  0.5407E-03  0.9978E+00
   -1.650493    4.71127  0.0000E+00  0.2306E-05  0.2530E-08  0.7055E-03  0.4737E-03  0.8783E+00
   -1.719265    4.71225  0.0000E+00  0.2238E-05  0.2372E-08  0.7066E-03  0.4150E-03  0.8467E+00
   -1.788037    4.71322  0.0000E+00  0.2179E-05  0.2243E-08  0.7063E-03  0.3648E-03  0.8761E+00
   -1.856809    4.71419  0.0000E+00  0.2126E-05  0.2137E-08  0.7043E-03  0.3212E-03  0.1011E+01
   -1.925580    4.71516  0.0000E+00  0.2077E-05  0.2048E-08  0.7001E-03  0.2823E-03  0.1233E+01
   -1.994351    4.71613  0.0000E+00  0.2030E-05  0.1976E-08  0.6932E-03  0.2470E-03  0.1530E+01
   -2.063122    4.71711  0.0000E+00  0.1987E-05  0.1920E-08  0.6831E-03  0.2148E-03  0.1919E+01
   -2.131893    4.71810  0.0000E+00  0.1946E-05  0.1881E-08  0.6692E-03  0.1854E-03  0.2434E+01
   -2.200663    4.71910  0.0000E+00  0.1906E-05  0.1859E-08  0.6512E-03  0.1584E-03  0.3218E+01
   -2.269433    4.72013  0.0000E+00  0.1868E-05  0.1856E-08  0.6281E-03  0.1333E-03  0.4344E+01
   -2.338202    4.72120  0.0000E+00  0.1830E-05  0.1878E-08  0.5979E-03  0.1108E-03  0.6387E+01
   -2.406971    4.72232  0.0000E+00  0.1789E-05  0.1932E-08  0.5595E-03  0.9064E-04  0.1031E+02
   -2.475739    4.72351  0.0000E+00  0.1746E-05  0.2038E-08  0.5101E-03  0.7272E-04  0.1876E+02
   -2.544507    4.72481  0.0000E+00  0.1695E-05  0.2242E-08  0.4581E-03  0.5683E-04  0.5455E+02
   -2.613274    4.72626  0.0000E+00  0.1605E-05  0.2817E-08  0.2031E-03  0.4306E-04 -0.8408E+02
   -2.682041    4.72952  0.0000E+00  0.9598E-06  0.9917E-08  0.1284E-04  0.2535E-04 -0.7170E+05
   -2.750807    4.78067  0.0000E+00  0.0000E+00  0.0000E+00  0.0000E+00  0.2535E-04  0.0000E+00
