 1 - depth, m
 2 - temperature, C
 3 - salinity, kg/kg
 4 - turbulent kinetic energy, m**2/s**2
 5 - dissipation rate, m**2/s**3
 6 - kinematic heat conductance, m**2/s
 7 - modulus of horizontal velocity, m/s
 8 - Richardson number, n/d
   -0.000000   29.10639  0.4259E-14  0.3191E-05  0.1431E-06  0.1960E-04  0.7527E-02  0.1151E+13
   -0.049997   29.14138  0.4259E-14  0.3496E-05  0.5250E-07  0.1046E-03  0.4814E-02  0.1121E+13
   -0.099994   29.14672  0.4259E-14  0.3487E-05  0.3833E-07  0.1427E-03  0.4194E-02 -0.1380E+13
   -0.149992   29.14990  0.4259E-14  0.3464E-05  0.3789E-07  0.1619E-03  0.3884E-02  0.1849E+13
   -0.199990   29.15208  0.4259E-14  0.3325E-05  0.3905E-07  0.1753E-03  0.3639E-02 -0.2324E+13
   -0.249989   29.15355  0.4259E-14  0.3290E-05  0.5008E-07  0.1797E-03  0.3437E-02  0.1971E+13
   -0.299988   29.15447  0.4259E-14  0.3291E-05  0.6580E-07  0.1538E-03  0.3252E-02 -0.1371E+12
   -0.349987   29.15492  0.4259E-14  0.3261E-05  0.9046E-07  0.6804E-04  0.3043E-02 -0.1376E+12
   -0.399987   29.13643  0.4259E-14  0.3092E-05  0.1257E-06  0.3416E-04  0.2342E-02 -0.1081E+12
   -0.449987   29.08181  0.4258E-14  0.3114E-05  0.1671E-06  0.1594E-04  0.1466E-02 -0.1081E+12
   -0.499987   29.01459  0.4257E-14  0.2680E-05  0.1732E-06  0.6166E-05  0.7857E-03 -0.9061E+11
   -0.549987   28.92919  0.4256E-14  0.2407E-05  0.1814E-06  0.4535E-04  0.2468E-03 -0.9060E+11
   -0.599988   28.82165  0.4255E-14  0.2544E-05  0.1920E-06  0.2465E-03  0.4361E-04 -0.7102E+11
   -0.649989   28.73067  0.4254E-14  0.2673E-05  0.1967E-06  0.1420E-02  0.7184E-05 -0.7096E+11
   -0.699990   28.64704  0.4254E-14  0.2789E-05  0.1982E-06  0.1099E-01  0.1218E-05 -0.6953E+11
   -0.749991   28.56385  0.4253E-14  0.2792E-05  0.1961E-06  0.2262E-05  0.2675E-06 -0.2307E+11
   -0.799993   28.47838  0.4253E-14  0.2727E-05  0.1937E-06  0.1746E-05  0.1167E-06  0.1787E+13
   -0.849994   28.38883  0.4253E-14  0.2537E-05  0.1879E-06  0.9341E-06  0.8933E-07  0.7325E+14
   -0.899996   28.29725  0.4252E-14  0.2424E-05  0.1845E-06  0.3392E+01  0.8190E-07  0.2409E+16
   -0.949997   28.20737  0.4252E-14  0.2355E-05  0.1825E-06  0.3468E+01  0.7844E-07  0.8558E+16
   -0.999999   28.12754  0.4251E-14  0.2329E-05  0.1818E-06  0.3287E+01  0.7557E-07  0.1981E+17
   -1.050000   28.04928  0.4250E-14  0.2316E-05  0.1815E-06  0.2633E+01  0.7282E-07  0.2885E+17
   -1.100002   27.94240  0.4250E-14  0.2309E-05  0.1815E-06  0.2288E+01  0.7005E-07  0.3440E+17
   -1.150003   27.81460  0.4249E-14  0.2308E-05  0.1815E-06  0.2448E+01  0.6686E-07  0.3908E+17
   -1.200005   27.66906  0.4248E-14  0.2308E-05  0.1816E-06  0.3908E+01  0.6351E-07  0.4351E+17
   -1.250006   27.50656  0.4247E-14  0.2308E-05  0.1834E-06  0.9345E-07  0.5981E-07  0.4811E+17
   -1.300007   27.32596  0.4246E-14  0.2314E-05  0.2399E-06  0.1079E-06  0.5516E-07  0.5223E+17
   -1.350008   27.12889  0.4244E-14  0.3250E-05  0.1098E-04  0.3159E-07  0.5071E-07  0.5379E+17
   -1.400009   26.92461  0.4243E-14  0.3171E-05  0.6073E-04  0.1683E-07  0.4131E-07  0.4876E+17
   -1.450010   26.73789  0.4241E-14  0.3171E-05  0.6073E-04  0.3127E-08  0.3346E-07  0.2558E+17
   -1.500011   26.63816  0.4239E-14  0.3170E-05  0.6097E-04  0.1608E-04  0.2950E-07  0.4756E+17
   -1.550011   26.45419  0.4236E-14  0.3168E-05  0.6119E-04  0.1382E-03  0.2663E-07  0.8969E+17
   -1.600011   26.10597  0.4233E-14  0.3166E-05  0.6156E-04  0.5925E-04  0.2421E-07  0.1264E+18
   -1.650010   25.60774  0.4228E-14  0.3162E-05  0.6248E-04  0.2653E-04  0.2198E-07  0.1676E+18
   -1.700010   24.93209  0.4223E-14  0.3154E-05  0.6453E-04  0.1613E-04  0.1971E-07  0.2154E+18
   -1.750009   24.03589  0.4215E-14  0.3143E-05  0.6851E-04  0.1107E-04  0.1738E-07  0.2644E+18
   -1.800007   22.89113  0.4204E-14  0.3131E-05  0.7584E-04  0.7919E-05  0.1504E-07  0.2893E+18
   -1.850005   21.58170  0.4179E-14  0.3193E-05  0.8917E-04  0.6130E-05  0.1259E-07  0.1679E+18
   -1.900003   20.81245  0.4119E-14  0.4112E-05  0.1129E-03  0.2646E-04  0.1011E-07 -0.5354E+15
   -1.950001   20.81165  0.4118E-14  0.5382E-05  0.1257E-03  0.1012E-03  0.7951E-08 -0.1906E+17
   -1.999997   20.90747  0.4118E-14  0.0000E+00  0.0000E+00  0.0000E+00  0.2463E-07  0.0000E+00
