 1 - depth, m
 2 - temperature, C
 3 - salinity, kg/kg
 4 - turbulent kinetic energy, m**2/s**2
 5 - dissipation rate, m**2/s**3
 6 - kinematic heat conductance, m**2/s
 7 - modulus of horizontal velocity, m/s
 8 - Richardson number, n/d
   -0.000000   27.66749  0.4359E-22  0.3156E-05  0.8807E-07  0.1779E-04  0.5756E-02 -0.5084E+00
   -0.049997   27.69278  0.4359E-22  0.3630E-05  0.3526E-07  0.1159E-03  0.2886E-02  0.1211E+03
   -0.099994   27.69642  0.4359E-22  0.3770E-05  0.2547E-07  0.1934E-03  0.2300E-02  0.6090E+02
   -0.149992   27.69831  0.4359E-22  0.3858E-05  0.2104E-07  0.2326E-03  0.2034E-02  0.6416E+01
   -0.199990   27.69972  0.4359E-22  0.3913E-05  0.1807E-07  0.2735E-03  0.1819E-02  0.4386E+01
   -0.249989   27.70082  0.4359E-22  0.3939E-05  0.1581E-07  0.3135E-03  0.1624E-02  0.3876E+01
   -0.299987   27.70168  0.4359E-22  0.3931E-05  0.1397E-07  0.3506E-03  0.1444E-02  0.3859E+01
   -0.349987   27.70240  0.4359E-22  0.3886E-05  0.1238E-07  0.3845E-03  0.1270E-02  0.4199E+01
   -0.399986   27.70301  0.4359E-22  0.3800E-05  0.1098E-07  0.4143E-03  0.1102E-02  0.3734E+01
   -0.449986   27.70351  0.4359E-22  0.3682E-05  0.9744E-08  0.4383E-03  0.9545E-03  0.3166E+01
   -0.499986   27.70392  0.4359E-22  0.3545E-05  0.8670E-08  0.4571E-03  0.8312E-03  0.2803E+01
   -0.549987   27.70426  0.4359E-22  0.3398E-05  0.7741E-08  0.4711E-03  0.7281E-03  0.2580E+01
   -0.599988   27.70453  0.4359E-22  0.3246E-05  0.6937E-08  0.4815E-03  0.6419E-03  0.2445E+01
   -0.649988   27.70475  0.4359E-22  0.3095E-05  0.6244E-08  0.4889E-03  0.5695E-03  0.2454E+01
   -0.699989   27.70493  0.4359E-22  0.2946E-05  0.5643E-08  0.4878E-03  0.5091E-03  0.6526E+03
   -0.749991   27.70508  0.4359E-22  0.2796E-05  0.5105E-08  0.4607E-03  0.4562E-03  0.4254E+03
   -0.799992   27.70519  0.4359E-22  0.2640E-05  0.4612E-08  0.4289E-03  0.4077E-03  0.4690E+03
   -0.849993   27.70529  0.4359E-22  0.2480E-05  0.4161E-08  0.3861E-03  0.3625E-03  0.4692E+03
   -0.899995   27.70535  0.4359E-22  0.2317E-05  0.3747E-08  0.3385E-03  0.3202E-03  0.9715E+03
   -0.949996   27.70537  0.4359E-22  0.2153E-05  0.3375E-08  0.3016E-03  0.2807E-03  0.1363E+03
   -0.999998   27.70533  0.4359E-22  0.1990E-05  0.3045E-08  0.2694E-03  0.2450E-03  0.5355E+02
   -1.049999   27.70515  0.4359E-22  0.1819E-05  0.2736E-08  0.2403E-03  0.2127E-03  0.2581E+03
   -1.100001   27.70354  0.4358E-22  0.1600E-05  0.2387E-08  0.1939E-03  0.1790E-03  0.3506E+04
   -1.150002   27.69459  0.4355E-22  0.1332E-05  0.1978E-08  0.1409E-03  0.1371E-03  0.1597E+06
   -1.200004   27.67194  0.4346E-22  0.1079E-05  0.1594E-08  0.8834E-04  0.9633E-04  0.8729E+07
   -1.250005   27.63959  0.4331E-22  0.8867E-06  0.1295E-08  0.4239E-04  0.6968E-04  0.5270E+09
   -1.300006   27.60765  0.4321E-22  0.7084E-06  0.1017E-08  0.2314E-04  0.5085E-04  0.3797E+11
   -1.350007   27.57820  0.4312E-22  0.5298E-06  0.7455E-09  0.1047E-04  0.3459E-04  0.3299E+13
   -1.400008   27.55132  0.4292E-22  0.3769E-06  0.5123E-09  0.2848E-05  0.2077E-04  0.2027E+15
   -1.450009   27.53115  0.4268E-22  0.2470E-06  0.3196E-09  0.2971E-05  0.9787E-05  0.5984E+15
   -1.500009   27.51976  0.4254E-22  0.1479E-06  0.1814E-09  0.1167E-04  0.2182E-05  0.6607E+15
   -1.550009   27.51217  0.4245E-22  0.1343E-06  0.1684E-09  0.2331E-04  0.2460E-06  0.7245E+15
   -1.600009   27.50667  0.4239E-22  0.1527E-06  0.2050E-09  0.3636E-04  0.2033E-07  0.6548E+15
   -1.650009   27.50227  0.4231E-22  0.1766E-06  0.2557E-09  0.4270E-04  0.1307E-08  0.4748E+15
   -1.700008   27.49894  0.4222E-22  0.2021E-06  0.3186E-09  0.4613E-04  0.7184E-10  0.3355E+15
   -1.750007   27.49653  0.4217E-22  0.2292E-06  0.4001E-09  0.5068E-04  0.4854E-11  0.5899E+15
   -1.800006   27.49388  0.4215E-22  0.2548E-06  0.5111E-09  0.5368E-04  0.1118E-11  0.8220E+15
   -1.850004   27.49092  0.4212E-22  0.2789E-06  0.6830E-09  0.5064E-04  0.5453E-12  0.4793E+15
   -1.900002   27.48920  0.4203E-22  0.3021E-06  0.1034E-08  0.4175E-04  0.2631E-12 -0.2750E+15
   -1.949999   27.49020  0.4202E-22  0.2827E-06  0.2916E-08  0.1221E-04  0.9743E-13 -0.1847E+16
   -1.999996   27.49694  0.4201E-22  0.0000E+00  0.0000E+00  0.0000E+00  0.9757E-13  0.0000E+00
