 1 - depth, m
 2 - temperature, C
 3 - salinity, kg/kg
 4 - turbulent kinetic energy, m**2/s**2
 5 - dissipation rate, m**2/s**3
 6 - kinematic heat conductance, m**2/s
 7 - modulus of horizontal velocity, m/s
 8 - Richardson number, n/d
   -0.000000   27.51246  0.3186E-14  0.3374E-05  0.9505E-07  0.1897E-04  0.5890E-02 -0.5545E+00
   -0.049998   27.54049  0.3187E-14  0.3935E-05  0.3910E-07  0.1257E-03  0.2998E-02  0.3220E+03
   -0.099996   27.54453  0.3187E-14  0.4090E-05  0.2810E-07  0.1972E-03  0.2403E-02  0.2959E+02
   -0.149994   27.54674  0.3187E-14  0.4176E-05  0.2302E-07  0.2454E-03  0.2100E-02  0.4364E+01
   -0.199993   27.54834  0.3187E-14  0.4218E-05  0.1973E-07  0.2867E-03  0.1880E-02  0.3410E+01
   -0.249992   27.54958  0.3187E-14  0.4219E-05  0.1723E-07  0.3253E-03  0.1681E-02  0.3360E+01
   -0.299992   27.55056  0.3187E-14  0.4181E-05  0.1520E-07  0.3604E-03  0.1497E-02  0.3662E+01
   -0.349992   27.55136  0.3187E-14  0.4104E-05  0.1344E-07  0.3920E-03  0.1321E-02  0.4476E+01
   -0.399992   27.55203  0.3187E-14  0.3988E-05  0.1188E-07  0.4190E-03  0.1149E-02  0.3672E+01
   -0.449993   27.55258  0.3187E-14  0.3843E-05  0.1052E-07  0.4401E-03  0.9980E-03  0.2828E+01
   -0.499994   27.55304  0.3187E-14  0.3682E-05  0.9334E-08  0.4558E-03  0.8714E-03  0.2320E+01
   -0.549995   27.55341  0.3187E-14  0.3513E-05  0.8317E-08  0.4668E-03  0.7658E-03  0.1960E+01
   -0.599997   27.55373  0.3187E-14  0.3344E-05  0.7446E-08  0.4742E-03  0.6779E-03  0.1687E+01
   -0.649998   27.55399  0.3187E-14  0.3180E-05  0.6706E-08  0.4789E-03  0.6050E-03  0.1479E+01
   -0.700000   27.55420  0.3187E-14  0.3024E-05  0.6076E-08  0.4799E-03  0.5458E-03  0.1941E+01
   -0.750002   27.55437  0.3187E-14  0.2871E-05  0.5522E-08  0.4620E-03  0.4952E-03  0.1214E+03
   -0.800004   27.55451  0.3187E-14  0.2719E-05  0.5022E-08  0.4454E-03  0.4487E-03  0.8151E+02
   -0.850006   27.55461  0.3187E-14  0.2569E-05  0.4576E-08  0.4312E-03  0.4063E-03  0.9215E+02
   -0.900008   27.55468  0.3187E-14  0.2415E-05  0.4161E-08  0.3847E-03  0.3679E-03  0.1053E+03
   -0.950011   27.55471  0.3187E-14  0.2244E-05  0.3744E-08  0.2683E-03  0.3298E-03  0.1304E+03
   -1.000013   27.55471  0.3187E-14  0.2052E-05  0.3322E-08  0.1427E-03  0.2906E-03  0.1942E+04
   -1.050015   27.55463  0.3187E-14  0.1844E-05  0.2914E-08  0.8882E-04  0.2514E-03  0.2547E+02
   -1.100018   27.55434  0.3188E-14  0.1619E-05  0.2522E-08  0.4280E-04  0.2152E-03  0.9532E+02
   -1.150020   27.55188  0.3188E-14  0.1286E-05  0.1995E-08  0.6066E-05  0.1693E-03  0.8376E+03
   -1.200022   27.52511  0.3188E-14  0.5896E-06  0.9242E-09  0.1028E-06  0.8282E-04  0.9179E+05
   -1.250024   27.37957  0.3186E-14  0.9996E-07  0.1623E-09  0.8584E-08  0.1265E-04  0.1084E+08
   -1.300026   27.14935  0.3180E-14  0.1386E-07  0.2372E-10  0.1110E-08  0.1363E-05  0.1217E+10
   -1.350028   26.87591  0.3171E-14  0.1770E-08  0.3438E-11  0.1628E-09  0.1343E-06  0.1451E+12
   -1.400030   26.55382  0.3147E-14  0.1190E-09  0.1057E-11  0.1000E-09  0.1243E-07  0.1904E+14
   -1.450031   26.17521  0.3080E-14  0.4419E-11  0.1000E-11  0.1000E-09  0.1076E-08  0.2805E+16
   -1.500032   25.73781  0.2937E-14  0.4419E-11  0.1000E-11  0.1000E-09  0.8652E-10  0.4943E+17
   -1.550033   25.23909  0.2760E-14  0.4419E-11  0.1000E-11  0.1000E-09  0.6408E-11  0.1392E+18
   -1.600034   24.68494  0.2587E-14  0.4419E-11  0.1000E-11  0.1000E-09  0.4336E-12  0.1462E+18
   -1.650034   24.09005  0.2413E-14  0.4419E-11  0.1000E-11  0.1000E-09  0.2654E-13  0.1476E+18
   -1.700034   23.47485  0.2220E-14  0.4419E-11  0.1000E-11  0.1000E-09  0.1441E-14  0.1426E+18
   -1.750034   22.86573  0.1995E-14  0.4419E-11  0.1000E-11  0.1000E-09  0.6804E-16  0.1295E+18
   -1.800033   22.29870  0.1726E-14  0.4049E-09  0.2888E-11  0.1137E-09  0.2733E-17  0.1048E+18
   -1.850032   21.82923  0.1378E-14  0.1179E-07  0.7904E-10  0.5040E-08  0.8938E-19  0.5818E+17
   -1.900031   21.56429  0.1098E-14  0.1738E-06  0.1167E-08  0.6598E-05  0.2155E-20 -0.7201E+15
   -1.950029   21.56759  0.1097E-14  0.4737E-06  0.7020E-08  0.1108E-04  0.1413E-21 -0.4381E+16
   -2.000026   21.58764  0.1097E-14  0.0000E+00  0.0000E+00  0.0000E+00  0.1409E-21  0.0000E+00
