 1 - depth, m
 2 - temperature, C
 3 - salinity, kg/kg
 4 - turbulent kinetic energy, m**2/s**2
 5 - dissipation rate, m**2/s**3
 6 - kinematic heat conductance, m**2/s
 7 - modulus of horizontal velocity, m/s
 8 - Richardson number, n/d
   -0.000000   28.83229  0.4014E-14  0.2289E-05  0.5788E-07  0.1786E-04  0.3587E-02 -0.1368E+01
   -0.049997   28.86068  0.4014E-14  0.2951E-05  0.2617E-07  0.1197E-03  0.1782E-02  0.9928E+00
   -0.099994   28.86440  0.4014E-14  0.3104E-05  0.1975E-07  0.1619E-03  0.1493E-02  0.1165E+03
   -0.149992   28.86680  0.4014E-14  0.3146E-05  0.1612E-07  0.1992E-03  0.1307E-02  0.1751E+02
   -0.199990   28.86848  0.4014E-14  0.3119E-05  0.1359E-07  0.2294E-03  0.1162E-02  0.1006E+02
   -0.249989   28.86974  0.4014E-14  0.3044E-05  0.1166E-07  0.2534E-03  0.1040E-02  0.7071E+01
   -0.299988   28.87072  0.4014E-14  0.2935E-05  0.1010E-07  0.2716E-03  0.9344E-03  0.5462E+01
   -0.349987   28.87149  0.4014E-14  0.2801E-05  0.8801E-08  0.2846E-03  0.8385E-03  0.4771E+01
   -0.399987   28.87210  0.4014E-14  0.2649E-05  0.7686E-08  0.2933E-03  0.7497E-03  0.4346E+01
   -0.449987   28.87258  0.4014E-14  0.2486E-05  0.6714E-08  0.2984E-03  0.6727E-03  0.4389E+01
   -0.499987   28.87295  0.4014E-14  0.2320E-05  0.5875E-08  0.3010E-03  0.6080E-03  0.4953E+01
   -0.549988   28.87321  0.4014E-14  0.2153E-05  0.5151E-08  0.2900E-03  0.5541E-03  0.2293E+03
   -0.599988   28.87339  0.4014E-14  0.1986E-05  0.4519E-08  0.2741E-03  0.5048E-03  0.8299E+02
   -0.649989   28.87350  0.4014E-14  0.1793E-05  0.3885E-08  0.1281E-03  0.4612E-03  0.1775E+02
   -0.699990   28.87356  0.4014E-14  0.1545E-05  0.3197E-08  0.6986E-04  0.4065E-03  0.8280E+01
   -0.749991   28.87341  0.4014E-14  0.1264E-05  0.2555E-08  0.2090E-04  0.3560E-03  0.5987E+02
   -0.799993   28.87008  0.4014E-14  0.8038E-06  0.1612E-08  0.2242E-06  0.2774E-03  0.4085E+03
   -0.849994   28.76546  0.4015E-14  0.1148E-06  0.2381E-09  0.1058E-07  0.6200E-04  0.2413E+05
   -0.899996   28.47778  0.4023E-14  0.1298E-07  0.2838E-10  0.1039E-08  0.9258E-05  0.1373E+07
   -0.949997   28.12142  0.4024E-14  0.1323E-08  0.3243E-11  0.1223E-09  0.1305E-05  0.7577E+08
   -0.999999   27.72510  0.4017E-14  0.4723E-11  0.1000E-11  0.1000E-09  0.1772E-06  0.4397E+10
   -1.050001   27.28963  0.4005E-14  0.4419E-11  0.1000E-11  0.1000E-09  0.2317E-07  0.2811E+12
   -1.100002   26.79897  0.3992E-14  0.4419E-11  0.1000E-11  0.1000E-09  0.2914E-08  0.1881E+14
   -1.150004   26.26234  0.3977E-14  0.4419E-11  0.1000E-11  0.1000E-09  0.3517E-09  0.1334E+16
   -1.200005   25.68863  0.3960E-14  0.4419E-11  0.1000E-11  0.1000E-09  0.4055E-10  0.7086E+17
   -1.250007   25.08642  0.3941E-14  0.4419E-11  0.1000E-11  0.1000E-09  0.4455E-11  0.1551E+18
   -1.300008   24.46448  0.3919E-14  0.4419E-11  0.1000E-11  0.1000E-09  0.4643E-12  0.1539E+18
   -1.350009   23.83242  0.3895E-14  0.4419E-11  0.1000E-11  0.1000E-09  0.4573E-13  0.1498E+18
   -1.400010   23.20167  0.3866E-14  0.4419E-11  0.1000E-11  0.1000E-09  0.4246E-14  0.1423E+18
   -1.450011   22.58664  0.3833E-14  0.4419E-11  0.1000E-11  0.1000E-09  0.3687E-15  0.1310E+18
   -1.500011   22.00606  0.3795E-14  0.4419E-11  0.1000E-11  0.1000E-09  0.2973E-16  0.1292E+18
   -1.550011   21.41814  0.3749E-14  0.4419E-11  0.1000E-11  0.1000E-09  0.2208E-17  0.1308E+18
   -1.600011   20.80643  0.3692E-14  0.4419E-11  0.1000E-11  0.1000E-09  0.1497E-18  0.1280E+18
   -1.650011   20.18971  0.3617E-14  0.4419E-11  0.1000E-11  0.1000E-09  0.9180E-20  0.1197E+18
   -1.700010   19.59533  0.3507E-14  0.8487E-11  0.1000E-11  0.1000E-09  0.4993E-21  0.1042E+18
   -1.750009   19.06234  0.3314E-14  0.2371E-08  0.1209E-10  0.5645E-09  0.2359E-22  0.7844E+17
   -1.800008   18.65044  0.2958E-14  0.4861E-07  0.2343E-09  0.2716E-07  0.9473E-24  0.3163E+17
   -1.850006   18.48156  0.2796E-14  0.3130E-06  0.1539E-08  0.1466E-04  0.2831E-25 -0.3537E+15
   -1.900004   18.48346  0.2796E-14  0.5663E-06  0.4366E-08  0.2450E-04  0.4801E-26 -0.1162E+16
   -1.950001   18.48969  0.2795E-14  0.8484E-06  0.1621E-07  0.1410E-04  0.8822E-27 -0.6937E+16
   -1.999998   18.52684  0.2795E-14  0.0000E+00  0.0000E+00  0.0000E+00  0.8815E-27  0.0000E+00
