 1 - depth, m
 2 - temperature, C
 3 - salinity, kg/kg
 4 - turbulent kinetic energy, m**2/s**2
 5 - dissipation rate, m**2/s**3
 6 - kinematic heat conductance, m**2/s
 7 - modulus of horizontal velocity, m/s
 8 - Richardson number, n/d
   -0.000000   29.00333  0.7811E-23  0.4277E-05  0.2233E-06  0.4446E-04  0.2634E-02  0.1976E+02
   -0.049998   29.03374  0.7812E-23  0.6928E-05  0.1000E-06  0.1602E-03  0.1477E-02  0.2165E+04
   -0.099996   29.04366  0.7813E-23  0.8166E-05  0.6976E-07  0.3336E-03  0.1115E-02  0.9713E+01
   -0.149994   29.04703  0.7813E-23  0.8928E-05  0.5840E-07  0.4126E-03  0.9808E-03  0.4485E+01
   -0.199993   29.04960  0.7813E-23  0.9495E-05  0.5149E-07  0.5326E-03  0.8749E-03  0.2897E+01
   -0.249993   29.05149  0.7813E-23  0.9922E-05  0.4677E-07  0.6334E-03  0.7931E-03  0.2114E+01
   -0.299992   29.05301  0.7813E-23  0.1025E-04  0.4326E-07  0.7269E-03  0.7247E-03  0.1688E+01
   -0.349992   29.05427  0.7813E-23  0.1051E-04  0.4048E-07  0.8134E-03  0.6651E-03  0.1494E+01
   -0.399993   29.05535  0.7814E-23  0.1071E-04  0.3817E-07  0.8965E-03  0.6106E-03  0.1391E+01
   -0.449993   29.05628  0.7814E-23  0.1087E-04  0.3616E-07  0.9765E-03  0.5613E-03  0.1346E+01
   -0.499994   29.05710  0.7814E-23  0.1099E-04  0.3440E-07  0.1051E-02  0.5170E-03  0.1327E+01
   -0.549996   29.05783  0.7814E-23  0.1107E-04  0.3284E-07  0.1120E-02  0.4773E-03  0.1306E+01
   -0.599997   29.05848  0.7814E-23  0.1113E-04  0.3144E-07  0.1183E-02  0.4415E-03  0.1290E+01
   -0.649999   29.05908  0.7814E-23  0.1115E-04  0.3019E-07  0.1239E-02  0.4091E-03  0.1272E+01
   -0.700001   29.05962  0.7814E-23  0.1115E-04  0.2907E-07  0.1289E-02  0.3798E-03  0.1259E+01
   -0.750003   29.06012  0.7814E-23  0.1113E-04  0.2805E-07  0.1332E-02  0.3531E-03  0.1246E+01
   -0.800005   29.06058  0.7814E-23  0.1109E-04  0.2713E-07  0.1368E-02  0.3288E-03  0.1240E+01
   -0.850007   29.06101  0.7814E-23  0.1104E-04  0.2630E-07  0.1398E-02  0.3066E-03  0.1238E+01
   -0.900009   29.06141  0.7814E-23  0.1096E-04  0.2555E-07  0.1422E-02  0.2863E-03  0.1248E+01
   -0.950011   29.06179  0.7814E-23  0.1088E-04  0.2486E-07  0.1440E-02  0.2676E-03  0.1266E+01
   -1.000014   29.06215  0.7814E-23  0.1078E-04  0.2424E-07  0.1451E-02  0.2503E-03  0.1300E+01
   -1.050016   29.06248  0.7814E-23  0.1067E-04  0.2368E-07  0.1457E-02  0.2343E-03  0.1347E+01
   -1.100019   29.06280  0.7814E-23  0.1055E-04  0.2318E-07  0.1457E-02  0.2193E-03  0.1420E+01
   -1.150021   29.06310  0.7814E-23  0.1042E-04  0.2274E-07  0.1450E-02  0.2051E-03  0.1514E+01
   -1.200023   29.06339  0.7814E-23  0.1027E-04  0.2236E-07  0.1437E-02  0.1917E-03  0.1637E+01
   -1.250025   29.06367  0.7814E-23  0.1012E-04  0.2204E-07  0.1417E-02  0.1790E-03  0.1782E+01
   -1.300027   29.06393  0.7814E-23  0.9950E-05  0.2179E-07  0.1389E-02  0.1668E-03  0.1972E+01
   -1.350029   29.06418  0.7814E-23  0.9770E-05  0.2163E-07  0.1353E-02  0.1552E-03  0.2205E+01
   -1.400031   29.06443  0.7814E-23  0.9576E-05  0.2158E-07  0.1308E-02  0.1440E-03  0.2521E+01
   -1.450032   29.06467  0.7814E-23  0.9366E-05  0.2165E-07  0.1254E-02  0.1333E-03  0.2937E+01
   -1.500033   29.06491  0.7814E-23  0.9139E-05  0.2190E-07  0.1186E-02  0.1229E-03  0.3538E+01
   -1.550034   29.06514  0.7814E-23  0.8891E-05  0.2239E-07  0.1115E-02  0.1128E-03  0.4407E+01
   -1.600035   29.06537  0.7814E-23  0.8617E-05  0.2323E-07  0.1018E-02  0.1030E-03  0.5876E+01
   -1.650035   29.06561  0.7814E-23  0.8308E-05  0.2464E-07  0.9438E-03  0.9337E-04  0.8571E+01
   -1.700035   29.06586  0.7814E-23  0.7942E-05  0.2729E-07  0.8180E-03  0.8407E-04  0.2464E+02
   -1.750035   29.06616  0.7814E-23  0.7464E-05  0.3234E-07  0.7264E-03  0.7376E-04  0.1663E+05
   -1.800035   29.06651  0.7813E-23  0.6750E-05  0.4340E-07  0.5441E-03  0.6338E-04  0.1660E+05
   -1.850033   29.06719  0.7813E-23  0.5736E-05  0.6429E-07  0.4330E-03  0.4858E-04  0.4824E+05
   -1.900032   29.06765  0.7813E-23  0.4274E-05  0.1299E-06  0.2084E-03  0.3681E-04  0.4193E+04
   -1.950030   29.07013  0.7813E-23  0.2719E-05  0.3417E-06  0.1191E-03  0.1986E-04 -0.2173E+06
   -2.000028   29.07260  0.7813E-23  0.0000E+00  0.0000E+00  0.0000E+00  0.3512E-04  0.0000E+00
