 1 - depth, m
 2 - temperature, C
 3 - salinity, kg/kg
 4 - turbulent kinetic energy, m**2/s**2
 5 - dissipation rate, m**2/s**3
 6 - kinematic heat conductance, m**2/s
 7 - modulus of horizontal velocity, m/s
 8 - Richardson number, n/d
   -0.000000   26.23805  0.3392E-26  0.2339E-05  0.5644E-07  0.1514E-04  0.5175E-02 -0.6537E+00
   -0.049997   26.25677  0.3392E-26  0.2643E-05  0.2302E-07  0.7852E-04  0.2725E-02  0.2981E+02
   -0.099994   26.26011  0.3392E-26  0.2691E-05  0.1589E-07  0.1384E-03  0.2066E-02  0.2925E+04
   -0.149992   26.26174  0.3392E-26  0.2696E-05  0.1263E-07  0.1876E-03  0.1726E-02  0.1329E+04
   -0.199990   26.26276  0.3392E-26  0.2689E-05  0.1069E-07  0.2266E-03  0.1499E-02  0.1865E+02
   -0.249989   26.26351  0.3392E-26  0.2672E-05  0.9314E-08  0.2527E-03  0.1337E-02  0.8880E+01
   -0.299988   26.26412  0.3392E-26  0.2636E-05  0.8213E-08  0.2763E-03  0.1186E-02  0.7587E+01
   -0.349987   26.26464  0.3392E-26  0.2580E-05  0.7281E-08  0.2967E-03  0.1043E-02  0.8122E+01
   -0.399987   26.26509  0.3392E-26  0.2499E-05  0.6462E-08  0.3135E-03  0.9057E-03  0.6487E+01
   -0.449986   26.26545  0.3392E-26  0.2404E-05  0.5750E-08  0.3271E-03  0.7888E-03  0.7461E+01
   -0.499987   26.26574  0.3392E-26  0.2297E-05  0.5121E-08  0.3210E-03  0.6952E-03  0.1872E+03
   -0.549987   26.26597  0.3392E-26  0.2172E-05  0.4536E-08  0.3005E-03  0.6049E-03  0.2578E+03
   -0.599988   26.26616  0.3392E-26  0.2038E-05  0.4007E-08  0.2849E-03  0.5211E-03  0.3230E+03
   -0.649989   26.26629  0.3392E-26  0.1898E-05  0.3538E-08  0.2687E-03  0.4461E-03  0.3769E+03
   -0.699990   26.26635  0.3392E-26  0.1755E-05  0.3122E-08  0.2530E-03  0.3788E-03  0.5221E+03
   -0.749991   26.26626  0.3392E-26  0.1604E-05  0.2744E-08  0.2363E-03  0.3172E-03  0.5583E+03
   -0.799992   26.26513  0.3392E-26  0.1442E-05  0.2387E-08  0.2189E-03  0.2556E-03  0.3854E+03
   -0.849994   26.26103  0.3391E-26  0.1281E-05  0.2054E-08  0.2004E-03  0.2001E-03  0.1431E+05
   -0.899995   26.25311  0.3391E-26  0.1133E-05  0.1758E-08  0.1806E-03  0.1532E-03  0.6814E+06
   -0.949997   26.24253  0.3390E-26  0.1003E-05  0.1498E-08  0.1596E-03  0.1199E-03  0.3041E+08
   -0.999998   26.23149  0.3389E-26  0.8848E-06  0.1268E-08  0.1474E-03  0.9540E-04  0.1423E+10
   -1.050000   26.22041  0.3388E-26  0.7753E-06  0.1062E-08  0.1409E-03  0.7598E-04  0.8629E+11
   -1.100001   26.20770  0.3386E-26  0.6732E-06  0.8740E-09  0.1377E-03  0.5960E-04  0.5275E+13
   -1.150003   26.19403  0.3385E-26  0.5843E-06  0.7128E-09  0.1366E-03  0.4547E-04  0.3332E+15
   -1.200004   26.18106  0.3382E-26  0.5465E-06  0.6397E-09  0.1360E-03  0.3716E-04  0.9230E+15
   -1.250006   26.17010  0.3377E-26  0.5411E-06  0.6127E-09  0.1351E-03  0.3235E-04  0.1153E+16
   -1.300007   26.16173  0.3372E-26  0.5542E-06  0.6064E-09  0.1287E-03  0.2869E-04  0.7428E+15
   -1.350008   26.15670  0.3368E-26  0.5690E-06  0.6039E-09  0.1213E-03  0.2534E-04  0.3859E+15
   -1.400009   26.15400  0.3367E-26  0.5793E-06  0.6017E-09  0.1184E-03  0.2220E-04  0.2320E+15
   -1.450010   26.15259  0.3366E-26  0.5873E-06  0.6044E-09  0.1190E-03  0.1921E-04  0.9259E+14
   -1.500010   26.15216  0.3365E-26  0.5945E-06  0.6135E-09  0.1239E-03  0.1637E-04  0.1088E+15
   -1.550010   26.15176  0.3365E-26  0.5996E-06  0.6277E-09  0.1196E-03  0.1361E-04  0.1812E+15
   -1.600010   26.15109  0.3364E-26  0.6027E-06  0.6484E-09  0.1160E-03  0.1104E-04  0.2090E+15
   -1.650010   26.15031  0.3364E-26  0.6056E-06  0.6812E-09  0.1155E-03  0.8757E-05  0.2140E+15
   -1.700009   26.14952  0.3363E-26  0.6090E-06  0.7322E-09  0.1156E-03  0.6791E-05  0.2436E+15
   -1.750008   26.14862  0.3363E-26  0.6114E-06  0.8085E-09  0.1131E-03  0.5117E-05  0.3207E+15
   -1.800007   26.14744  0.3362E-26  0.6109E-06  0.9253E-09  0.1079E-03  0.3712E-05  0.3951E+15
   -1.850005   26.14599  0.3360E-26  0.6033E-06  0.1122E-08  0.9757E-04  0.2544E-05  0.4106E+15
   -1.900002   26.14450  0.3357E-26  0.5793E-06  0.1558E-08  0.7284E-04  0.1580E-05 -0.1212E+15
   -1.950000   26.14508  0.3356E-26  0.4244E-06  0.4556E-08  0.1181E-04  0.8023E-06 -0.1274E+16
   -1.999997   26.15114  0.3355E-26  0.0000E+00  0.0000E+00  0.0000E+00  0.8077E-06  0.0000E+00
