 1 - depth, m
 2 - temperature, C
 3 - salinity, kg/kg
 4 - turbulent kinetic energy, m**2/s**2
 5 - dissipation rate, m**2/s**3
 6 - kinematic heat conductance, m**2/s
 7 - modulus of horizontal velocity, m/s
 8 - Richardson number, n/d
   -0.000000    7.76125  0.0000E+00  0.2492E-03  0.1161E-03  0.1275E-03  0.1621E+00  0.1084E-01
   -0.068738    7.82468  0.0000E+00  0.1354E-03  0.2844E-04  0.2216E-03  0.5247E-01 -0.8120E-02
   -0.137477    7.83486  0.0000E+00  0.9642E-04  0.1135E-04  0.2098E-03  0.3977E-01 -0.2006E-01
   -0.206217    7.84306  0.0000E+00  0.7284E-04  0.5339E-05  0.2149E-03  0.3291E-01 -0.1540E-01
   -0.274957    7.84914  0.0000E+00  0.5799E-04  0.2746E-05  0.2270E-03  0.2823E-01 -0.1671E-01
   -0.343698    7.85423  0.0000E+00  0.4798E-04  0.1530E-05  0.2448E-03  0.2430E-01 -0.1943E-01
   -0.412439    7.85862  0.0000E+00  0.4092E-04  0.9217E-06  0.2650E-03  0.2100E-01 -0.2280E-01
   -0.481180    7.86249  0.0000E+00  0.3563E-04  0.5958E-06  0.2858E-03  0.1821E-01 -0.2726E-01
   -0.549923    7.86595  0.0000E+00  0.3143E-04  0.4080E-06  0.3087E-03  0.1582E-01 -0.3451E-01
   -0.618665    7.86906  0.0000E+00  0.2803E-04  0.2930E-06  0.3307E-03  0.1382E-01 -0.4333E-01
   -0.687408    7.87190  0.0000E+00  0.2521E-04  0.2184E-06  0.3525E-03  0.1213E-01 -0.5421E-01
   -0.756151    7.87451  0.0000E+00  0.2284E-04  0.1676E-06  0.3745E-03  0.1067E-01 -0.6769E-01
   -0.824895    7.87692  0.0000E+00  0.2081E-04  0.1316E-06  0.3973E-03  0.9418E-02 -0.8449E-01
   -0.893639    7.87915  0.0000E+00  0.1906E-04  0.1053E-06  0.4215E-03  0.8339E-02 -0.1055E+00
   -0.962383    7.88121  0.0000E+00  0.1756E-04  0.8577E-07  0.4476E-03  0.7409E-02 -0.4265E-01
   -1.031127    7.88313  0.0000E+00  0.1628E-04  0.7099E-07  0.4752E-03  0.6607E-02 -0.1033E+00
   -1.099871    7.88491  0.0000E+00  0.1517E-04  0.5959E-07  0.5161E-03  0.5896E-02  0.3877E+01
   -1.168616    7.88655  0.0000E+00  0.1420E-04  0.5066E-07  0.5967E-03  0.5266E-02  0.3093E+02
   -1.237361    7.88801  0.0000E+00  0.1335E-04  0.4359E-07  0.7058E-03  0.4708E-02  0.2027E+02
   -1.306106    7.88929  0.0000E+00  0.1261E-04  0.3793E-07  0.8623E-03  0.4211E-02  0.3338E+03
   -1.374850    7.89036  0.0000E+00  0.1195E-04  0.3336E-07  0.1029E-02  0.3768E-02  0.2994E+03
   -1.443595    7.89123  0.0000E+00  0.1136E-04  0.2961E-07  0.1167E-02  0.3368E-02  0.2626E+03
   -1.512340    7.89195  0.0000E+00  0.1083E-04  0.2649E-07  0.1284E-02  0.3000E-02  0.5735E+02
   -1.581085    7.89256  0.0000E+00  0.1033E-04  0.2383E-07  0.1341E-02  0.2667E-02  0.1290E+03
   -1.649829    7.89312  0.0000E+00  0.9857E-05  0.2154E-07  0.1376E-02  0.2365E-02  0.5076E+01
   -1.718574    7.89366  0.0000E+00  0.9415E-05  0.1958E-07  0.1389E-02  0.2090E-02  0.2059E+03
   -1.787318    7.89418  0.0000E+00  0.8999E-05  0.1790E-07  0.1401E-02  0.1840E-02  0.1931E+01
   -1.856062    7.89469  0.0000E+00  0.8607E-05  0.1647E-07  0.1407E-02  0.1614E-02  0.1705E+01
   -1.924806    7.89519  0.0000E+00  0.8240E-05  0.1528E-07  0.1407E-02  0.1409E-02  0.1533E+01
   -1.993549    7.89568  0.0000E+00  0.7896E-05  0.1432E-07  0.1395E-02  0.1224E-02  0.1376E+01
   -2.062293    7.89618  0.0000E+00  0.7577E-05  0.1357E-07  0.1364E-02  0.1058E-02  0.1229E+01
   -2.131036    7.89667  0.0000E+00  0.7283E-05  0.1303E-07  0.1313E-02  0.9098E-03  0.1090E+01
   -2.199778    7.89718  0.0000E+00  0.7015E-05  0.1270E-07  0.1248E-02  0.7769E-03  0.9590E+00
   -2.268520    7.89771  0.0000E+00  0.6775E-05  0.1259E-07  0.1172E-02  0.6587E-03  0.7882E+00
   -2.337262    7.89827  0.0000E+00  0.6560E-05  0.1269E-07  0.1089E-02  0.5586E-03  0.6439E+00
   -2.406003    7.89887  0.0000E+00  0.6367E-05  0.1305E-07  0.1009E-02  0.4765E-03  0.6031E+00
   -2.474744    7.89950  0.0000E+00  0.6182E-05  0.1375E-07  0.9179E-03  0.4092E-03  0.8092E+00
   -2.543484    7.90020  0.0000E+00  0.5979E-05  0.1511E-07  0.8308E-03  0.3484E-03  0.1523E+01
   -2.612224    7.90097  0.0000E+00  0.5651E-05  0.1884E-07  0.5113E-03  0.2939E-03  0.4091E+02
   -2.680962    7.90222  0.0000E+00  0.3390E-05  0.6552E-07  0.2395E-04  0.2215E-03 -0.8561E+03
   -2.749701    7.92979  0.0000E+00  0.0000E+00  0.0000E+00  0.0000E+00  0.2212E-03  0.0000E+00
