 1 - depth, m
 2 - temperature, C
 3 - salinity, kg/kg
 4 - turbulent kinetic energy, m**2/s**2
 5 - dissipation rate, m**2/s**3
 6 - kinematic heat conductance, m**2/s
 7 - modulus of horizontal velocity, m/s
 8 - Richardson number, n/d
   -0.000000    0.00000  0.0000E+00  0.1219E-13  0.7604E-17  0.1000E-09  0.0000E+00  0.9839E+16
   -0.068741    0.15064  0.0000E+00  0.1219E-13  0.7604E-17  0.1000E-09  0.0000E+00  0.9170E+16
   -0.137483    0.29694  0.0000E+00  0.1219E-13  0.7604E-17  0.1000E-09  0.0000E+00  0.8524E+16
   -0.206226    0.43869  0.0000E+00  0.1219E-13  0.7604E-17  0.1000E-09  0.0000E+00  0.7904E+16
   -0.274969    0.57573  0.0000E+00  0.1219E-13  0.7604E-17  0.1000E-09  0.0000E+00  0.7364E+16
   -0.343713    0.70886  0.0000E+00  0.1219E-13  0.7604E-17  0.1000E-09  0.0000E+00  0.6858E+16
   -0.412457    0.83819  0.0000E+00  0.1219E-13  0.7604E-17  0.1000E-09  0.0000E+00  0.6375E+16
   -0.481202    0.96365  0.0000E+00  0.1219E-13  0.7604E-17  0.1000E-09  0.0000E+00  0.5909E+16
   -0.549947    1.08503  0.0000E+00  0.1219E-13  0.7604E-17  0.1000E-09  0.0000E+00  0.5438E+16
   -0.618692    1.20164  0.0000E+00  0.1219E-13  0.7604E-17  0.1000E-09  0.0000E+00  0.4991E+16
   -0.687438    1.31337  0.0000E+00  0.1219E-13  0.7604E-17  0.1000E-09  0.0000E+00  0.4646E+16
   -0.756184    1.42193  0.0000E+00  0.1219E-13  0.7604E-17  0.1000E-09  0.0000E+00  0.4362E+16
   -0.824931    1.52841  0.0000E+00  0.1219E-13  0.7604E-17  0.1000E-09  0.0000E+00  0.4089E+16
   -0.893678    1.63279  0.0000E+00  0.1219E-13  0.7604E-17  0.1000E-09  0.0000E+00  0.3828E+16
   -0.962425    1.73505  0.0000E+00  0.1219E-13  0.7604E-17  0.1000E-09  0.0000E+00  0.3577E+16
   -1.031172    1.83518  0.0000E+00  0.1219E-13  0.7604E-17  0.1000E-09  0.0000E+00  0.3348E+16
   -1.099920    1.93350  0.0000E+00  0.1219E-13  0.7604E-17  0.1000E-09  0.0000E+00  0.3130E+16
   -1.168667    2.03001  0.0000E+00  0.1219E-13  0.7604E-17  0.1000E-09  0.0000E+00  0.2919E+16
   -1.237415    2.12470  0.0000E+00  0.1219E-13  0.7604E-17  0.1000E-09  0.0000E+00  0.2717E+16
   -1.306163    2.21752  0.0000E+00  0.1219E-13  0.7604E-17  0.1000E-09  0.0000E+00  0.2522E+16
   -1.374911    2.30842  0.0000E+00  0.1219E-13  0.7604E-17  0.1000E-09  0.0000E+00  0.2374E+16
   -1.443659    2.39886  0.0000E+00  0.1219E-13  0.7604E-17  0.1000E-09  0.0000E+00  0.2240E+16
   -1.512406    2.48934  0.0000E+00  0.1219E-13  0.7604E-17  0.1000E-09  0.0000E+00  0.2107E+16
   -1.581154    2.57986  0.0000E+00  0.1219E-13  0.7604E-17  0.1000E-09  0.0000E+00  0.1973E+16
   -1.649902    2.67041  0.0000E+00  0.1219E-13  0.7604E-17  0.1000E-09  0.0000E+00  0.1838E+16
   -1.718649    2.76090  0.0000E+00  0.1219E-13  0.7604E-17  0.1000E-09  0.0000E+00  0.1702E+16
   -1.787396    2.85123  0.0000E+00  0.1219E-13  0.7604E-17  0.1000E-09  0.0000E+00  0.1564E+16
   -1.856144    2.94127  0.0000E+00  0.1219E-13  0.7604E-17  0.1000E-09  0.0000E+00  0.1426E+16
   -1.924890    3.03086  0.0000E+00  0.1219E-13  0.7604E-17  0.1000E-09  0.0000E+00  0.1288E+16
   -1.993637    3.11981  0.0000E+00  0.1219E-13  0.7604E-17  0.1000E-09  0.0000E+00  0.1150E+16
   -2.062383    3.20791  0.0000E+00  0.1219E-13  0.7604E-17  0.1000E-09  0.0000E+00  0.1038E+16
   -2.131129    3.29713  0.0000E+00  0.1219E-13  0.7618E-17  0.1000E-09  0.0000E+00  0.9244E+15
   -2.199875    3.38786  0.0000E+00  0.3948E-13  0.2900E-16  0.1000E-09  0.0000E+00  0.8058E+15
   -2.268620    3.48018  0.0000E+00  0.2592E-12  0.1849E-15  0.1000E-09  0.0000E+00  0.6920E+15
   -2.337365    3.57589  0.0000E+00  0.1741E-11  0.1199E-14  0.1000E-09  0.0000E+00  0.5713E+15
   -2.406109    3.67659  0.0000E+00  0.1153E-10  0.7680E-14  0.1000E-09  0.0000E+00  0.4334E+15
   -2.474852    3.78428  0.0000E+00  0.7553E-10  0.4885E-13  0.8767E-09  0.0000E+00  0.2647E+15
   -2.543596    3.90204  0.0000E+00  0.4940E-09  0.3136E-12  0.2486E-07  0.0000E+00  0.4663E+14
   -2.612338    4.02029  0.0000E+00  0.2663E-08  0.1838E-11  0.1259E-05  0.0000E+00 -0.1265E+14
   -2.681080    4.03895  0.0000E+00  0.4228E-08  0.6203E-11  0.8941E-06  0.0000E+00 -0.5548E+14
   -2.749821    4.08562  0.0000E+00  0.0000E+00  0.0000E+00  0.0000E+00  0.0000E+00  0.0000E+00
