 1 - depth, m
 2 - temperature, C
 3 - salinity, kg/kg
 4 - turbulent kinetic energy, m**2/s**2
 5 - dissipation rate, m**2/s**3
 6 - kinematic heat conductance, m**2/s
 7 - modulus of horizontal velocity, m/s
 8 - Richardson number, n/d
   -0.000000   12.99870  0.0000E+00  0.2220E-03  0.9565E-04  0.1199E-03  0.1451E+00 -0.1643E-02
   -0.068737   13.00028  0.0000E+00  0.1218E-03  0.2411E-04  0.2051E-03  0.4733E-01 -0.9814E-03
   -0.137475   13.00055  0.0000E+00  0.8764E-04  0.1030E-04  0.1950E-03  0.3648E-01 -0.9026E-02
   -0.206213   13.00063  0.0000E+00  0.6629E-04  0.4947E-05  0.1975E-03  0.3031E-01 -0.2202E-02
   -0.274952   13.00064  0.0000E+00  0.5264E-04  0.2576E-05  0.2056E-03  0.2598E-01 -0.3305E-02
   -0.343691   13.00062  0.0000E+00  0.4328E-04  0.1444E-05  0.2185E-03  0.2236E-01 -0.5000E-02
   -0.412431   13.00059  0.0000E+00  0.3657E-04  0.8715E-06  0.2327E-03  0.1933E-01 -0.7064E-02
   -0.481172   13.00055  0.0000E+00  0.3152E-04  0.5625E-06  0.2466E-03  0.1676E-01 -0.9788E-02
   -0.549912   13.00051  0.0000E+00  0.2749E-04  0.3829E-06  0.2614E-03  0.1455E-01 -0.1377E-01
   -0.618654   13.00047  0.0000E+00  0.2423E-04  0.2723E-06  0.2747E-03  0.1268E-01 -0.1928E-01
   -0.687395   13.00043  0.0000E+00  0.2153E-04  0.2004E-06  0.2872E-03  0.1109E-01 -0.2685E-01
   -0.756137   13.00040  0.0000E+00  0.1925E-04  0.1515E-06  0.2995E-03  0.9724E-02 -0.3636E-01
   -0.824880   13.00039  0.0000E+00  0.1730E-04  0.1170E-06  0.3140E-03  0.8540E-02 -0.1345E-01
   -0.893622   13.00038  0.0000E+00  0.1563E-04  0.9187E-07  0.3374E-03  0.7514E-02  0.8309E+01
   -0.962365   13.00039  0.0000E+00  0.1419E-04  0.7331E-07  0.3663E-03  0.6625E-02  0.5994E+01
   -1.031108   13.00040  0.0000E+00  0.1297E-04  0.5941E-07  0.4047E-03  0.5858E-02  0.1301E+03
   -1.099851   13.00044  0.0000E+00  0.1191E-04  0.4879E-07  0.4385E-03  0.5176E-02  0.7026E+01
   -1.168595   13.00049  0.0000E+00  0.1100E-04  0.4054E-07  0.4724E-03  0.4568E-02  0.2562E+02
   -1.237338   13.00056  0.0000E+00  0.1020E-04  0.3405E-07  0.5001E-03  0.4025E-02  0.8564E+01
   -1.306081   13.00066  0.0000E+00  0.9499E-05  0.2888E-07  0.5308E-03  0.3539E-02  0.5475E+01
   -1.374825   13.00078  0.0000E+00  0.8878E-05  0.2473E-07  0.5626E-03  0.3103E-02  0.2497E+01
   -1.443569   13.00093  0.0000E+00  0.8326E-05  0.2136E-07  0.5972E-03  0.2710E-02  0.1871E+02
   -1.512312   13.00109  0.0000E+00  0.7830E-05  0.1861E-07  0.6332E-03  0.2355E-02  0.1317E+02
   -1.581056   13.00128  0.0000E+00  0.7386E-05  0.1634E-07  0.6704E-03  0.2043E-02  0.1773E+02
   -1.649799   13.00147  0.0000E+00  0.6990E-05  0.1448E-07  0.7202E-03  0.1772E-02  0.2185E+02
   -1.718542   13.00167  0.0000E+00  0.6641E-05  0.1297E-07  0.7843E-03  0.1537E-02  0.4541E+03
   -1.787285   13.00188  0.0000E+00  0.6336E-05  0.1175E-07  0.8823E-03  0.1334E-02  0.1147E+03
   -1.856028   13.00208  0.0000E+00  0.6071E-05  0.1079E-07  0.9713E-03  0.1159E-02  0.1270E+03
   -1.924770   13.00227  0.0000E+00  0.5839E-05  0.1004E-07  0.1042E-02  0.1008E-02  0.4738E+02
   -1.993513   13.00247  0.0000E+00  0.5637E-05  0.9476E-08  0.1087E-02  0.8760E-03  0.2053E+02
   -2.062255   13.00266  0.0000E+00  0.5456E-05  0.9067E-08  0.1084E-02  0.7602E-03  0.7025E+02
   -2.130996   13.00288  0.0000E+00  0.5292E-05  0.8795E-08  0.1054E-02  0.6560E-03  0.1451E+01
   -2.199738   13.00311  0.0000E+00  0.5143E-05  0.8658E-08  0.1007E-02  0.5617E-03  0.1424E+01
   -2.268479   13.00336  0.0000E+00  0.5006E-05  0.8663E-08  0.9491E-03  0.4765E-03  0.1641E+01
   -2.337219   13.00365  0.0000E+00  0.4878E-05  0.8823E-08  0.8840E-03  0.4031E-03  0.2154E+01
   -2.405959   13.00398  0.0000E+00  0.4754E-05  0.9177E-08  0.8111E-03  0.3411E-03  0.3291E+01
   -2.474698   13.00435  0.0000E+00  0.4623E-05  0.9824E-08  0.7239E-03  0.2872E-03  0.5923E+01
   -2.543437   13.00478  0.0000E+00  0.4468E-05  0.1105E-07  0.6153E-03  0.2379E-03  0.1314E+02
   -2.612175   13.00533  0.0000E+00  0.4229E-05  0.1398E-07  0.4718E-03  0.1923E-03  0.4423E+02
   -2.680913   13.00606  0.0000E+00  0.2660E-05  0.4699E-07  0.2276E-04  0.1453E-03 -0.3360E+04
   -2.749650   13.02227  0.0000E+00  0.0000E+00  0.0000E+00  0.0000E+00  0.1451E-03  0.0000E+00
