 1 - depth, m
 2 - temperature, C
 3 - salinity, kg/kg
 4 - turbulent kinetic energy, m**2/s**2
 5 - dissipation rate, m**2/s**3
 6 - kinematic heat conductance, m**2/s
 7 - modulus of horizontal velocity, m/s
 8 - Richardson number, n/d
   -0.000000    0.00000  0.0000E+00  0.1219E-13  0.7603E-17  0.1000E-09  0.0000E+00  0.1283E+17
   -0.068739    0.19775  0.0000E+00  0.1219E-13  0.7603E-17  0.1000E-09  0.0000E+00  0.1179E+17
   -0.137478    0.38963  0.0000E+00  0.1219E-13  0.7603E-17  0.1000E-09  0.0000E+00  0.1080E+17
   -0.206218    0.57550  0.0000E+00  0.1219E-13  0.7603E-17  0.1000E-09  0.0000E+00  0.9872E+16
   -0.274959    0.75528  0.0000E+00  0.1219E-13  0.7603E-17  0.1000E-09  0.0000E+00  0.9059E+16
   -0.343700    0.93009  0.0000E+00  0.1219E-13  0.7603E-17  0.1000E-09  0.0000E+00  0.8309E+16
   -0.412442    1.10022  0.0000E+00  0.1219E-13  0.7603E-17  0.1000E-09  0.0000E+00  0.7609E+16
   -0.481184    1.26580  0.0000E+00  0.1219E-13  0.7603E-17  0.1000E-09  0.0000E+00  0.6948E+16
   -0.549926    1.42679  0.0000E+00  0.1615E-13  0.7603E-17  0.1000E-09  0.0000E+00  0.6305E+16
   -0.618669    1.58262  0.0000E+00  0.6879E-13  0.9319E-17  0.1000E-09  0.0000E+00  0.5708E+16
   -0.687413    1.73335  0.0000E+00  0.1822E-12  0.1865E-16  0.1000E-09  0.0000E+00  0.5231E+16
   -0.756157    1.88133  0.0000E+00  0.4174E-12  0.3958E-16  0.1000E-09  0.0000E+00  0.4826E+16
   -0.824901    2.02810  0.0000E+00  0.9113E-12  0.8340E-16  0.1000E-09  0.0000E+00  0.4435E+16
   -0.893645    2.17379  0.0000E+00  0.1951E-11  0.1739E-15  0.1000E-09  0.0000E+00  0.4057E+16
   -0.962389    2.31852  0.0000E+00  0.4129E-11  0.3592E-15  0.1000E-09  0.0000E+00  0.3690E+16
   -1.031134    2.46240  0.0000E+00  0.8653E-11  0.7351E-15  0.1000E-09  0.0000E+00  0.3338E+16
   -1.099879    2.60578  0.0000E+00  0.1796E-10  0.1491E-14  0.1000E-09  0.0000E+00  0.2993E+16
   -1.168624    2.74872  0.0000E+00  0.3700E-10  0.3001E-14  0.1000E-09  0.0000E+00  0.2653E+16
   -1.237369    2.89126  0.0000E+00  0.7565E-10  0.5998E-14  0.1000E-09  0.0000E+00  0.2317E+16
   -1.306115    3.03337  0.0000E+00  0.1535E-09  0.1190E-13  0.1000E-09  0.0000E+00  0.1985E+16
   -1.374860    3.17499  0.0000E+00  0.3094E-09  0.2345E-13  0.1000E-09  0.0000E+00  0.1674E+16
   -1.443605    3.31770  0.0000E+00  0.6190E-09  0.4590E-13  0.1717E-09  0.0000E+00  0.1360E+16
   -1.512351    3.46192  0.0000E+00  0.1232E-08  0.8936E-13  0.4379E-09  0.0000E+00  0.1039E+16
   -1.581096    3.60770  0.0000E+00  0.2445E-08  0.1736E-12  0.1252E-08  0.0000E+00  0.7056E+15
   -1.649841    3.75457  0.0000E+00  0.4819E-08  0.3350E-12  0.4695E-08  0.0000E+00  0.3630E+15
   -1.718586    3.89985  0.0000E+00  0.9189E-08  0.6276E-12  0.5792E-07  0.0000E+00  0.5504E+14
   -1.787330    4.00764  0.0000E+00  0.9841E-08  0.6746E-12  0.5505E-04  0.0000E+00 -0.1226E+12
   -1.856075    4.00800  0.0000E+00  0.1014E-07  0.7007E-12  0.5536E-04  0.0000E+00 -0.1340E+12
   -1.924819    4.00839  0.0000E+00  0.1039E-07  0.7289E-12  0.5576E-04  0.0000E+00 -0.1390E+12
   -1.993563    4.00879  0.0000E+00  0.1061E-07  0.7600E-12  0.5549E-04  0.0000E+00 -0.1452E+12
   -2.062307    4.00920  0.0000E+00  0.1079E-07  0.7950E-12  0.5403E-04  0.0000E+00 -0.1531E+12
   -2.131051    4.00962  0.0000E+00  0.1093E-07  0.8352E-12  0.5181E-04  0.0000E+00 -0.1637E+12
   -2.199794    4.01007  0.0000E+00  0.1103E-07  0.8829E-12  0.4890E-04  0.0000E+00 -0.1781E+12
   -2.268536    4.01054  0.0000E+00  0.1108E-07  0.9417E-12  0.4529E-04  0.0000E+00 -0.1985E+12
   -2.337278    4.01106  0.0000E+00  0.1108E-07  0.1020E-11  0.4072E-04  0.0000E+00 -0.2293E+12
   -2.406020    4.01164  0.0000E+00  0.1102E-07  0.1130E-11  0.3504E-04  0.0000E+00 -0.2790E+12
   -2.474761    4.01234  0.0000E+00  0.1087E-07  0.1301E-11  0.2813E-04  0.0000E+00 -0.3690E+12
   -2.543502    4.01323  0.0000E+00  0.1055E-07  0.1613E-11  0.1987E-04  0.0000E+00 -0.5731E+12
   -2.612242    4.01455  0.0000E+00  0.9833E-08  0.2393E-11  0.1025E-04  0.0000E+00 -0.1315E+13
   -2.680981    4.01739  0.0000E+00  0.6850E-08  0.7374E-11  0.1264E-05  0.0000E+00 -0.1944E+14
   -2.749720    4.04504  0.0000E+00  0.0000E+00  0.0000E+00  0.0000E+00  0.0000E+00  0.0000E+00
