 1 - depth, m
 2 - temperature, C
 3 - salinity, kg/kg
 4 - turbulent kinetic energy, m**2/s**2
 5 - dissipation rate, m**2/s**3
 6 - kinematic heat conductance, m**2/s
 7 - modulus of horizontal velocity, m/s
 8 - Richardson number, n/d
   -0.000000    0.00000  0.0000E+00  0.1219E-13  0.7603E-17  0.1000E-09  0.0000E+00  0.1525E+17
   -0.068750    0.23635  0.0000E+00  0.1219E-13  0.7603E-17  0.1000E-09  0.0000E+00  0.1039E+17
   -0.137501    0.40689  0.0000E+00  0.1219E-13  0.7603E-17  0.1000E-09  0.0000E+00  0.7429E+16
   -0.206253    0.53433  0.0000E+00  0.1219E-13  0.7603E-17  0.1000E-09  0.0000E+00  0.5620E+16
   -0.275005    0.63414  0.0000E+00  0.1219E-13  0.7603E-17  0.1000E-09  0.0000E+00  0.4868E+16
   -0.343757    0.72318  0.0000E+00  0.1219E-13  0.7603E-17  0.1000E-09  0.0000E+00  0.4529E+16
   -0.412510    0.80835  0.0000E+00  0.1219E-13  0.7603E-17  0.1000E-09  0.0000E+00  0.4383E+16
   -0.481264    0.89314  0.0000E+00  0.1219E-13  0.7603E-17  0.1000E-09  0.0000E+00  0.4301E+16
   -0.550018    0.97878  0.0000E+00  0.1219E-13  0.7603E-17  0.1000E-09  0.0000E+00  0.4113E+16
   -0.618772    1.06315  0.0000E+00  0.1219E-13  0.7603E-17  0.1000E-09  0.0000E+00  0.3974E+16
   -0.687527    1.14716  0.0000E+00  0.1219E-13  0.7603E-17  0.1000E-09  0.0000E+00  0.3846E+16
   -0.756282    1.23102  0.0000E+00  0.1219E-13  0.7603E-17  0.1000E-09  0.0000E+00  0.3715E+16
   -0.825038    1.31465  0.0000E+00  0.1219E-13  0.7603E-17  0.1000E-09  0.0000E+00  0.3575E+16
   -0.893794    1.39781  0.0000E+00  0.1219E-13  0.7603E-17  0.1000E-09  0.0000E+00  0.3413E+16
   -0.962550    1.47986  0.0000E+00  0.1219E-13  0.7603E-17  0.1000E-09  0.0000E+00  0.3218E+16
   -1.031306    1.55990  0.0000E+00  0.1219E-13  0.7603E-17  0.1000E-09  0.0000E+00  0.3184E+16
   -1.100062    1.64188  0.0000E+00  0.1219E-13  0.7603E-17  0.1000E-09  0.0000E+00  0.3127E+16
   -1.168819    1.72542  0.0000E+00  0.1219E-13  0.7603E-17  0.1000E-09  0.0000E+00  0.3049E+16
   -1.237575    1.81008  0.0000E+00  0.1219E-13  0.7603E-17  0.1000E-09  0.0000E+00  0.2962E+16
   -1.306332    1.89573  0.0000E+00  0.1219E-13  0.7603E-17  0.1000E-09  0.0000E+00  0.2881E+16
   -1.375089    1.98266  0.0000E+00  0.1219E-13  0.7603E-17  0.1000E-09  0.0000E+00  0.2853E+16
   -1.443846    2.07279  0.0000E+00  0.1219E-13  0.7603E-17  0.1000E-09  0.0000E+00  0.2866E+16
   -1.512602    2.16795  0.0000E+00  0.1219E-13  0.7603E-17  0.1000E-09  0.0000E+00  0.2700E+16
   -1.581359    2.26258  0.0000E+00  0.1219E-13  0.7603E-17  0.1000E-09  0.0000E+00  0.2473E+16
   -1.650115    2.35421  0.0000E+00  0.1219E-13  0.7603E-17  0.1000E-09  0.0000E+00  0.2278E+16
   -1.718872    2.44353  0.0000E+00  0.1219E-13  0.7603E-17  0.1000E-09  0.0000E+00  0.2100E+16
   -1.787628    2.53088  0.0000E+00  0.1219E-13  0.7603E-17  0.1000E-09  0.0000E+00  0.1929E+16
   -1.856384    2.61614  0.0000E+00  0.1219E-13  0.7604E-17  0.1000E-09  0.0000E+00  0.1753E+16
   -1.925140    2.69861  0.0000E+00  0.1737E-13  0.1037E-16  0.1000E-09  0.0000E+00  0.1563E+16
   -1.993895    2.77694  0.0000E+00  0.5322E-13  0.3001E-16  0.1000E-09  0.0000E+00  0.1353E+16
   -2.062650    2.84921  0.0000E+00  0.2794E-12  0.1519E-15  0.1000E-09  0.0000E+00  0.1452E+16
   -2.131405    2.93241  0.0000E+00  0.1575E-11  0.8308E-15  0.1000E-09  0.0000E+00  0.1581E+16
   -2.200160    3.03149  0.0000E+00  0.8804E-11  0.4517E-14  0.1000E-09  0.0000E+00  0.1709E+16
   -2.268914    3.15210  0.0000E+00  0.4879E-10  0.2439E-13  0.1291E-09  0.0000E+00  0.1691E+16
   -2.337667    3.29293  0.0000E+00  0.2697E-09  0.1317E-12  0.4004E-09  0.0000E+00  0.1655E+16
   -2.406421    3.47122  0.0000E+00  0.1470E-08  0.7028E-12  0.3099E-08  0.0000E+00  0.1404E+16
   -2.475173    3.73416  0.0000E+00  0.5144E-08  0.2631E-11  0.2209E-05  0.0000E+00  0.6361E+15
   -2.543925    3.97416  0.0000E+00  0.1128E-07  0.6716E-11  0.6946E-05  0.0000E+00  0.7134E+14
   -2.612677    4.06849  0.0000E+00  0.1618E-07  0.1320E-10  0.7002E-05  0.0000E+00 -0.1873E+14
   -2.681428    4.08271  0.0000E+00  0.1635E-07  0.3340E-10  0.2274E-05  0.0000E+00 -0.1006E+15
   -2.750178    4.13629  0.0000E+00  0.0000E+00  0.0000E+00  0.0000E+00  0.0000E+00  0.0000E+00
