 1 - depth, m
 2 - temperature, C
 3 - salinity, kg/kg
 4 - turbulent kinetic energy, m**2/s**2
 5 - dissipation rate, m**2/s**3
 6 - kinematic heat conductance, m**2/s
 7 - modulus of horizontal velocity, m/s
 8 - Richardson number, n/d
   -0.000000    0.00000  0.0000E+00  0.1219E-13  0.7603E-17  0.1000E-09  0.0000E+00  0.9912E+16
   -0.068753    0.15177  0.0000E+00  0.1219E-13  0.7603E-17  0.1000E-09  0.0000E+00  0.9269E+16
   -0.137507    0.29974  0.0000E+00  0.1219E-13  0.7603E-17  0.1000E-09  0.0000E+00  0.8625E+16
   -0.206262    0.44333  0.0000E+00  0.1219E-13  0.7603E-17  0.1000E-09  0.0000E+00  0.7987E+16
   -0.275017    0.58203  0.0000E+00  0.1219E-13  0.7603E-17  0.1000E-09  0.0000E+00  0.7426E+16
   -0.343773    0.71658  0.0000E+00  0.1219E-13  0.7603E-17  0.1000E-09  0.0000E+00  0.6890E+16
   -0.412530    0.84686  0.0000E+00  0.1219E-13  0.7603E-17  0.1000E-09  0.0000E+00  0.6373E+16
   -0.481286    0.97265  0.0000E+00  0.1219E-13  0.7603E-17  0.1000E-09  0.0000E+00  0.5868E+16
   -0.550044    1.09356  0.0000E+00  0.1219E-13  0.7603E-17  0.1000E-09  0.0000E+00  0.5355E+16
   -0.618801    1.20873  0.0000E+00  0.1219E-13  0.7603E-17  0.1000E-09  0.0000E+00  0.4870E+16
   -0.687559    1.31798  0.0000E+00  0.1219E-13  0.7603E-17  0.1000E-09  0.0000E+00  0.4510E+16
   -0.756318    1.42350  0.0000E+00  0.1219E-13  0.7603E-17  0.1000E-09  0.0000E+00  0.4228E+16
   -0.825076    1.52671  0.0000E+00  0.1219E-13  0.7603E-17  0.1000E-09  0.0000E+00  0.3963E+16
   -0.893835    1.62774  0.0000E+00  0.1219E-13  0.7603E-17  0.1000E-09  0.0000E+00  0.3714E+16
   -0.962595    1.72668  0.0000E+00  0.1219E-13  0.7603E-17  0.1000E-09  0.0000E+00  0.3480E+16
   -1.031354    1.82364  0.0000E+00  0.1219E-13  0.7603E-17  0.1000E-09  0.0000E+00  0.3273E+16
   -1.100114    1.91912  0.0000E+00  0.1219E-13  0.7603E-17  0.1000E-09  0.0000E+00  0.3076E+16
   -1.168873    2.01323  0.0000E+00  0.1219E-13  0.7603E-17  0.1000E-09  0.0000E+00  0.2889E+16
   -1.237633    2.10604  0.0000E+00  0.1219E-13  0.7603E-17  0.1000E-09  0.0000E+00  0.2709E+16
   -1.306393    2.19757  0.0000E+00  0.1219E-13  0.7603E-17  0.1000E-09  0.0000E+00  0.2534E+16
   -1.375153    2.28781  0.0000E+00  0.1219E-13  0.7603E-17  0.1000E-09  0.0000E+00  0.2407E+16
   -1.443913    2.37833  0.0000E+00  0.1219E-13  0.7603E-17  0.1000E-09  0.0000E+00  0.2293E+16
   -1.512673    2.46971  0.0000E+00  0.1219E-13  0.7603E-17  0.1000E-09  0.0000E+00  0.2175E+16
   -1.581433    2.56193  0.0000E+00  0.1219E-13  0.7603E-17  0.1000E-09  0.0000E+00  0.2053E+16
   -1.650192    2.65496  0.0000E+00  0.1219E-13  0.7603E-17  0.1000E-09  0.0000E+00  0.1926E+16
   -1.718952    2.74872  0.0000E+00  0.1219E-13  0.7603E-17  0.1000E-09  0.0000E+00  0.1794E+16
   -1.787712    2.84310  0.0000E+00  0.1219E-13  0.7603E-17  0.1000E-09  0.0000E+00  0.1656E+16
   -1.856471    2.93793  0.0000E+00  0.1219E-13  0.7603E-17  0.1000E-09  0.0000E+00  0.1515E+16
   -1.925230    3.03302  0.0000E+00  0.1219E-13  0.7603E-17  0.1000E-09  0.0000E+00  0.1369E+16
   -1.993988    3.12813  0.0000E+00  0.1219E-13  0.7603E-17  0.1000E-09  0.0000E+00  0.1220E+16
   -2.062747    3.22298  0.0000E+00  0.1220E-13  0.7609E-17  0.1000E-09  0.0000E+00  0.1092E+16
   -2.131505    3.31935  0.0000E+00  0.4392E-13  0.2455E-16  0.1000E-09  0.0000E+00  0.9596E+15
   -2.200263    3.41753  0.0000E+00  0.2372E-12  0.1266E-15  0.1000E-09  0.0000E+00  0.8197E+15
   -2.269020    3.51757  0.0000E+00  0.1281E-11  0.6571E-15  0.1000E-09  0.0000E+00  0.6815E+15
   -2.337777    3.62125  0.0000E+00  0.6871E-11  0.3391E-14  0.1000E-09  0.0000E+00  0.5326E+15
   -2.406533    3.73017  0.0000E+00  0.3632E-10  0.1728E-13  0.2367E-09  0.0000E+00  0.3613E+15
   -2.475289    3.84623  0.0000E+00  0.1897E-09  0.8730E-13  0.2754E-08  0.0000E+00  0.1521E+15
   -2.544044    3.97106  0.0000E+00  0.9378E-09  0.4253E-12  0.3820E-06  0.0000E+00 -0.3006E+13
   -2.612799    4.01125  0.0000E+00  0.2554E-08  0.1712E-11  0.1194E-05  0.0000E+00 -0.1164E+14
   -2.681553    4.03224  0.0000E+00  0.4187E-08  0.6139E-11  0.8895E-06  0.0000E+00 -0.5554E+14
   -2.750306    4.08227  0.0000E+00  0.0000E+00  0.0000E+00  0.0000E+00  0.0000E+00  0.0000E+00
