 1 - depth, m
 2 - temperature, C
 3 - salinity, kg/kg
 4 - turbulent kinetic energy, m**2/s**2
 5 - dissipation rate, m**2/s**3
 6 - kinematic heat conductance, m**2/s
 7 - modulus of horizontal velocity, m/s
 8 - Richardson number, n/d
   -0.000000    0.00000  0.0000E+00  0.1219E-13  0.7604E-17  0.1000E-09  0.0000E+00  0.1258E+17
   -0.068750    0.19372  0.0000E+00  0.1219E-13  0.7604E-17  0.1000E-09  0.0000E+00  0.1152E+17
   -0.137500    0.38081  0.0000E+00  0.1219E-13  0.7604E-17  0.1000E-09  0.0000E+00  0.1053E+17
   -0.206251    0.56133  0.0000E+00  0.1219E-13  0.7604E-17  0.1000E-09  0.0000E+00  0.9609E+16
   -0.275003    0.73539  0.0000E+00  0.1219E-13  0.7604E-17  0.1000E-09  0.0000E+00  0.8826E+16
   -0.343755    0.90442  0.0000E+00  0.1219E-13  0.7604E-17  0.1000E-09  0.0000E+00  0.8110E+16
   -0.412508    1.06881  0.0000E+00  0.1219E-13  0.7604E-17  0.1000E-09  0.0000E+00  0.7443E+16
   -0.481261    1.22874  0.0000E+00  0.1219E-13  0.7604E-17  0.1000E-09  0.0000E+00  0.6813E+16
   -0.550014    1.38415  0.0000E+00  0.1881E-13  0.7604E-17  0.1000E-09  0.0000E+00  0.6193E+16
   -0.618768    1.53434  0.0000E+00  0.7425E-13  0.9086E-17  0.1000E-09  0.0000E+00  0.5617E+16
   -0.687523    1.67936  0.0000E+00  0.1892E-12  0.1728E-16  0.1000E-09  0.0000E+00  0.5169E+16
   -0.756277    1.82173  0.0000E+00  0.4175E-12  0.3513E-16  0.1000E-09  0.0000E+00  0.4796E+16
   -0.825032    1.96311  0.0000E+00  0.8767E-12  0.7112E-16  0.1000E-09  0.0000E+00  0.4437E+16
   -0.893788    2.10368  0.0000E+00  0.1804E-11  0.1426E-15  0.1000E-09  0.0000E+00  0.4092E+16
   -0.962543    2.24368  0.0000E+00  0.3671E-11  0.2838E-15  0.1000E-09  0.0000E+00  0.3758E+16
   -1.031299    2.38332  0.0000E+00  0.7402E-11  0.5598E-15  0.1000E-09  0.0000E+00  0.3443E+16
   -1.100055    2.52322  0.0000E+00  0.1480E-10  0.1096E-14  0.1000E-09  0.0000E+00  0.3132E+16
   -1.168811    2.66363  0.0000E+00  0.2941E-10  0.2131E-14  0.1000E-09  0.0000E+00  0.2823E+16
   -1.237567    2.80473  0.0000E+00  0.5804E-10  0.4119E-14  0.1000E-09  0.0000E+00  0.2513E+16
   -1.306323    2.94665  0.0000E+00  0.1138E-09  0.7912E-14  0.1000E-09  0.0000E+00  0.2199E+16
   -1.375080    3.08944  0.0000E+00  0.2220E-09  0.1511E-13  0.1000E-09  0.0000E+00  0.1904E+16
   -1.443836    3.23501  0.0000E+00  0.4302E-09  0.2870E-13  0.1000E-09  0.0000E+00  0.1596E+16
   -1.512592    3.38394  0.0000E+00  0.8301E-09  0.5427E-13  0.2182E-09  0.0000E+00  0.1266E+16
   -1.581348    3.53623  0.0000E+00  0.1600E-08  0.1025E-12  0.5728E-09  0.0000E+00  0.9113E+15
   -1.650104    3.69149  0.0000E+00  0.3069E-08  0.1928E-12  0.1841E-08  0.0000E+00  0.5335E+15
   -1.718860    3.84830  0.0000E+00  0.5827E-08  0.3593E-12  0.1232E-07  0.0000E+00  0.1486E+15
   -1.787616    3.99660  0.0000E+00  0.6381E-08  0.3953E-12  0.3645E-04  0.0000E+00 -0.9717E+11
   -1.856372    3.99719  0.0000E+00  0.6646E-08  0.4163E-12  0.3767E-04  0.0000E+00 -0.1079E+12
   -1.925127    3.99781  0.0000E+00  0.6885E-08  0.4396E-12  0.3885E-04  0.0000E+00 -0.1138E+12
   -1.993882    3.99843  0.0000E+00  0.7098E-08  0.4655E-12  0.3949E-04  0.0000E+00 -0.1210E+12
   -2.062637    3.99905  0.0000E+00  0.7284E-08  0.4945E-12  0.3910E-04  0.0000E+00 -0.1297E+12
   -2.131391    3.99968  0.0000E+00  0.7442E-08  0.5278E-12  0.3800E-04  0.0000E+00 -0.1412E+12
   -2.200145    4.00034  0.0000E+00  0.7570E-08  0.5670E-12  0.3624E-04  0.0000E+00 -0.1567E+12
   -2.268899    4.00104  0.0000E+00  0.7665E-08  0.6149E-12  0.3381E-04  0.0000E+00 -0.1785E+12
   -2.337652    4.00179  0.0000E+00  0.7723E-08  0.6779E-12  0.3053E-04  0.0000E+00 -0.2116E+12
   -2.406405    4.00264  0.0000E+00  0.7734E-08  0.7662E-12  0.2629E-04  0.0000E+00 -0.2653E+12
   -2.475157    4.00365  0.0000E+00  0.7674E-08  0.9021E-12  0.2104E-04  0.0000E+00 -0.3645E+12
   -2.543908    4.00494  0.0000E+00  0.7491E-08  0.1151E-11  0.1470E-04  0.0000E+00 -0.5971E+12
   -2.612659    4.00689  0.0000E+00  0.7005E-08  0.1781E-11  0.7379E-05  0.0000E+00 -0.1502E+13
   -2.681410    4.01111  0.0000E+00  0.5104E-08  0.5503E-11  0.1058E-05  0.0000E+00 -0.2274E+14
   -2.750159    4.04563  0.0000E+00  0.0000E+00  0.0000E+00  0.0000E+00  0.0000E+00  0.0000E+00
