 1 - depth, m
 2 - temperature, C
 3 - salinity, kg/kg
 4 - turbulent kinetic energy, m**2/s**2
 5 - dissipation rate, m**2/s**3
 6 - kinematic heat conductance, m**2/s
 7 - modulus of horizontal velocity, m/s
 8 - Richardson number, n/d
   -0.000000    0.00000  0.0000E+00  0.1219E-13  0.7604E-17  0.1000E-09  0.0000E+00  0.1274E+17
   -0.068745    0.19627  0.0000E+00  0.1219E-13  0.7604E-17  0.1000E-09  0.0000E+00  0.1167E+17
   -0.137490    0.38614  0.0000E+00  0.1219E-13  0.7604E-17  0.1000E-09  0.0000E+00  0.1068E+17
   -0.206236    0.56967  0.0000E+00  0.1219E-13  0.7604E-17  0.1000E-09  0.0000E+00  0.9756E+16
   -0.274983    0.74693  0.0000E+00  0.1219E-13  0.7604E-17  0.1000E-09  0.0000E+00  0.8956E+16
   -0.343730    0.91920  0.0000E+00  0.1219E-13  0.7604E-17  0.1000E-09  0.0000E+00  0.8221E+16
   -0.412477    1.08681  0.0000E+00  0.1219E-13  0.7604E-17  0.1000E-09  0.0000E+00  0.7537E+16
   -0.481226    1.24994  0.0000E+00  0.1219E-13  0.7604E-17  0.1000E-09  0.0000E+00  0.6890E+16
   -0.549974    1.40852  0.0000E+00  0.1799E-13  0.7604E-17  0.1000E-09  0.0000E+00  0.6259E+16
   -0.618723    1.56196  0.0000E+00  0.7248E-13  0.9430E-17  0.1000E-09  0.0000E+00  0.5672E+16
   -0.687472    1.71031  0.0000E+00  0.1884E-12  0.1865E-16  0.1000E-09  0.0000E+00  0.5210E+16
   -0.756222    1.85602  0.0000E+00  0.4260E-12  0.3908E-16  0.1000E-09  0.0000E+00  0.4820E+16
   -0.824972    2.00066  0.0000E+00  0.9189E-12  0.8139E-16  0.1000E-09  0.0000E+00  0.4444E+16
   -0.893722    2.14441  0.0000E+00  0.1944E-11  0.1678E-15  0.1000E-09  0.0000E+00  0.4080E+16
   -0.962473    2.28743  0.0000E+00  0.4068E-11  0.3429E-15  0.1000E-09  0.0000E+00  0.3727E+16
   -1.031224    2.42984  0.0000E+00  0.8431E-11  0.6944E-15  0.1000E-09  0.0000E+00  0.3389E+16
   -1.099975    2.57209  0.0000E+00  0.1732E-10  0.1394E-14  0.1000E-09  0.0000E+00  0.3057E+16
   -1.168726    2.71430  0.0000E+00  0.3530E-10  0.2780E-14  0.1000E-09  0.0000E+00  0.2727E+16
   -1.237477    2.85652  0.0000E+00  0.7146E-10  0.5503E-14  0.1000E-09  0.0000E+00  0.2399E+16
   -1.306228    2.99874  0.0000E+00  0.1437E-09  0.1082E-13  0.1000E-09  0.0000E+00  0.2071E+16
   -1.374979    3.14093  0.0000E+00  0.2868E-09  0.2114E-13  0.1000E-09  0.0000E+00  0.1764E+16
   -1.443730    3.28475  0.0000E+00  0.5690E-09  0.4105E-13  0.1440E-09  0.0000E+00  0.1451E+16
   -1.512482    3.43066  0.0000E+00  0.1123E-08  0.7929E-13  0.3586E-09  0.0000E+00  0.1125E+16
   -1.581233    3.57866  0.0000E+00  0.2211E-08  0.1529E-12  0.9920E-09  0.0000E+00  0.7845E+15
   -1.649984    3.72834  0.0000E+00  0.4328E-08  0.2932E-12  0.3471E-08  0.0000E+00  0.4299E+15
   -1.718735    3.87756  0.0000E+00  0.8301E-08  0.5520E-12  0.3115E-07  0.0000E+00  0.9018E+14
   -1.787486    4.00438  0.0000E+00  0.8924E-08  0.5957E-12  0.5062E-04  0.0000E+00 -0.1142E+12
   -1.856236    4.00478  0.0000E+00  0.9210E-08  0.6202E-12  0.5094E-04  0.0000E+00 -0.1268E+12
   -1.924986    4.00521  0.0000E+00  0.9460E-08  0.6470E-12  0.5148E-04  0.0000E+00 -0.1323E+12
   -1.993736    4.00566  0.0000E+00  0.9675E-08  0.6766E-12  0.5146E-04  0.0000E+00 -0.1387E+12
   -2.062486    4.00611  0.0000E+00  0.9854E-08  0.7097E-12  0.5031E-04  0.0000E+00 -0.1465E+12
   -2.131235    4.00658  0.0000E+00  0.9996E-08  0.7478E-12  0.4842E-04  0.0000E+00 -0.1571E+12
   -2.199984    4.00706  0.0000E+00  0.1010E-07  0.7929E-12  0.4582E-04  0.0000E+00 -0.1715E+12
   -2.268733    4.00758  0.0000E+00  0.1016E-07  0.8484E-12  0.4251E-04  0.0000E+00 -0.1920E+12
   -2.337481    4.00815  0.0000E+00  0.1018E-07  0.9219E-12  0.3824E-04  0.0000E+00 -0.2229E+12
   -2.406229    4.00880  0.0000E+00  0.1014E-07  0.1026E-11  0.3291E-04  0.0000E+00 -0.2730E+12
   -2.474976    4.00956  0.0000E+00  0.1000E-07  0.1186E-11  0.2640E-04  0.0000E+00 -0.3641E+12
   -2.543722    4.01054  0.0000E+00  0.9720E-08  0.1479E-11  0.1859E-04  0.0000E+00 -0.5720E+12
   -2.612468    4.01200  0.0000E+00  0.9061E-08  0.2214E-11  0.9522E-05  0.0000E+00 -0.1340E+13
   -2.681214    4.01514  0.0000E+00  0.6361E-08  0.6835E-11  0.1210E-05  0.0000E+00 -0.2018E+14
   -2.749958    4.04469  0.0000E+00  0.0000E+00  0.0000E+00  0.0000E+00  0.0000E+00  0.0000E+00
