 1 - depth, m
 2 - temperature, C
 3 - salinity, kg/kg
 4 - turbulent kinetic energy, m**2/s**2
 5 - dissipation rate, m**2/s**3
 6 - kinematic heat conductance, m**2/s
 7 - modulus of horizontal velocity, m/s
 8 - Richardson number, n/d
   -0.000000    0.00000  0.0000E+00  0.1219E-13  0.7603E-17  0.1000E-09  0.0000E+00  0.1382E+17
   -0.068738    0.21341  0.0000E+00  0.1219E-13  0.7603E-17  0.1000E-09  0.0000E+00  0.1226E+17
   -0.137477    0.41411  0.0000E+00  0.1219E-13  0.7603E-17  0.1000E-09  0.0000E+00  0.1069E+17
   -0.206217    0.59936  0.0000E+00  0.1219E-13  0.7603E-17  0.1000E-09  0.0000E+00  0.9130E+16
   -0.274957    0.76657  0.0000E+00  0.1219E-13  0.7603E-17  0.1000E-09  0.0000E+00  0.7747E+16
   -0.343698    0.91599  0.0000E+00  0.1219E-13  0.7603E-17  0.1000E-09  0.0000E+00  0.6467E+16
   -0.412439    1.04685  0.0000E+00  0.1219E-13  0.7603E-17  0.1000E-09  0.0000E+00  0.5301E+16
   -0.481181    1.15886  0.0000E+00  0.1219E-13  0.7603E-17  0.1000E-09  0.0000E+00  0.4249E+16
   -0.549923    1.25210  0.0000E+00  0.1219E-13  0.7603E-17  0.1000E-09  0.0000E+00  0.3273E+16
   -0.618666    1.32625  0.0000E+00  0.1219E-13  0.7603E-17  0.1000E-09  0.0000E+00  0.2442E+16
   -0.687409    1.38302  0.0000E+00  0.1219E-13  0.7603E-17  0.1000E-09  0.0000E+00  0.1956E+16
   -0.756152    1.42944  0.0000E+00  0.1219E-13  0.7603E-17  0.1000E-09  0.0000E+00  0.1728E+16
   -0.824896    1.47119  0.0000E+00  0.1219E-13  0.7603E-17  0.1000E-09  0.0000E+00  0.1630E+16
   -0.893640    1.51124  0.0000E+00  0.1219E-13  0.7603E-17  0.1000E-09  0.0000E+00  0.1653E+16
   -0.962384    1.55258  0.0000E+00  0.1219E-13  0.7603E-17  0.1000E-09  0.0000E+00  0.1786E+16
   -1.031128    1.59809  0.0000E+00  0.1219E-13  0.7603E-17  0.1000E-09  0.0000E+00  0.2043E+16
   -1.099873    1.65125  0.0000E+00  0.1219E-13  0.7603E-17  0.1000E-09  0.0000E+00  0.2365E+16
   -1.168618    1.71442  0.0000E+00  0.1219E-13  0.7603E-17  0.1000E-09  0.0000E+00  0.2721E+16
   -1.237362    1.78943  0.0000E+00  0.1219E-13  0.7603E-17  0.1000E-09  0.0000E+00  0.3073E+16
   -1.306107    1.87744  0.0000E+00  0.1219E-13  0.7603E-17  0.1000E-09  0.0000E+00  0.3379E+16
   -1.374852    1.97884  0.0000E+00  0.1219E-13  0.7603E-17  0.1000E-09  0.0000E+00  0.3698E+16
   -1.443597    2.09625  0.0000E+00  0.1219E-13  0.7603E-17  0.1000E-09  0.0000E+00  0.3913E+16
   -1.512342    2.22928  0.0000E+00  0.1219E-13  0.7603E-17  0.1000E-09  0.0000E+00  0.3988E+16
   -1.581087    2.37648  0.0000E+00  0.1219E-13  0.7603E-17  0.1000E-09  0.0000E+00  0.3897E+16
   -1.649831    2.53507  0.0000E+00  0.1219E-13  0.7603E-17  0.1000E-09  0.0000E+00  0.3634E+16
   -1.718576    2.70093  0.0000E+00  0.1222E-13  0.7603E-17  0.1000E-09  0.0000E+00  0.3232E+16
   -1.787320    2.86944  0.0000E+00  0.5483E-13  0.1641E-16  0.1000E-09  0.0000E+00  0.2739E+16
   -1.856064    3.03585  0.0000E+00  0.2058E-12  0.5538E-16  0.1000E-09  0.0000E+00  0.2211E+16
   -1.924808    3.19576  0.0000E+00  0.7235E-12  0.1866E-15  0.1000E-09  0.0000E+00  0.1698E+16
   -1.993552    3.34557  0.0000E+00  0.2481E-11  0.6170E-15  0.1000E-09  0.0000E+00  0.1241E+16
   -2.062295    3.48285  0.0000E+00  0.8356E-11  0.2005E-14  0.1000E-09  0.0000E+00  0.8662E+15
   -2.131038    3.60728  0.0000E+00  0.2768E-10  0.6415E-14  0.1000E-09  0.0000E+00  0.5709E+15
   -2.199781    3.71949  0.0000E+00  0.9021E-10  0.2021E-13  0.2973E-09  0.0000E+00  0.3461E+15
   -2.268523    3.82134  0.0000E+00  0.2916E-09  0.6322E-13  0.1815E-08  0.0000E+00  0.1771E+15
   -2.337265    3.91784  0.0000E+00  0.9296E-09  0.1958E-12  0.2771E-07  0.0000E+00  0.3528E+14
   -2.406006    4.00117  0.0000E+00  0.2173E-08  0.4609E-12  0.3364E-05  0.0000E+00 -0.1195E+13
   -2.474747    4.00564  0.0000E+00  0.2889E-08  0.7275E-12  0.3644E-05  0.0000E+00 -0.1657E+13
   -2.543487    4.01051  0.0000E+00  0.3595E-08  0.1237E-11  0.3207E-05  0.0000E+00 -0.3032E+13
   -2.612227    4.01750  0.0000E+00  0.4434E-08  0.2603E-11  0.2226E-05  0.0000E+00 -0.8596E+13
   -2.680966    4.03181  0.0000E+00  0.5874E-08  0.8947E-11  0.1169E-05  0.0000E+00 -0.5895E+14
   -2.749704    4.08431  0.0000E+00  0.0000E+00  0.0000E+00  0.0000E+00  0.0000E+00  0.0000E+00
