 1 - depth, m
 2 - temperature, C
 3 - salinity, kg/kg
 4 - turbulent kinetic energy, m**2/s**2
 5 - dissipation rate, m**2/s**3
 6 - kinematic heat conductance, m**2/s
 7 - modulus of horizontal velocity, m/s
 8 - Richardson number, n/d
   -0.000000    4.06219  0.0000E+00  0.3619E-03  0.2660E-03  0.1196E-03  0.1964E+00 -0.4153E-03
   -0.068728    4.16066  0.0000E+00  0.1939E-03  0.7595E-04  0.2753E-03  0.6112E-01 -0.6574E-03
   -0.137456    4.17638  0.0000E+00  0.1401E-03  0.3306E-04  0.2538E-03  0.4697E-01 -0.1559E-02
   -0.206185    4.18874  0.0000E+00  0.1045E-03  0.1490E-04  0.2508E-03  0.3877E-01 -0.1341E-02
   -0.274915    4.19837  0.0000E+00  0.8246E-04  0.7550E-05  0.2560E-03  0.3325E-01 -0.1783E-02
   -0.343645    4.20639  0.0000E+00  0.6727E-04  0.4024E-05  0.2671E-03  0.2864E-01 -0.2393E-02
   -0.412376    4.21333  0.0000E+00  0.5646E-04  0.2279E-05  0.2808E-03  0.2479E-01 -0.3182E-02
   -0.481107    4.21942  0.0000E+00  0.4847E-04  0.1382E-05  0.2951E-03  0.2158E-01 -0.4224E-02
   -0.549839    4.22486  0.0000E+00  0.4222E-04  0.8955E-06  0.3116E-03  0.1885E-01 -0.5889E-02
   -0.618571    4.22980  0.0000E+00  0.3725E-04  0.6159E-06  0.3269E-03  0.1659E-01 -0.8058E-02
   -0.687303    4.23433  0.0000E+00  0.3320E-04  0.4442E-06  0.3412E-03  0.1467E-01 -0.1091E-01
   -0.756036    4.23856  0.0000E+00  0.2983E-04  0.3322E-06  0.3545E-03  0.1302E-01 -0.1470E-01
   -0.824769    4.24252  0.0000E+00  0.2696E-04  0.2555E-06  0.3672E-03  0.1160E-01 -0.1974E-01
   -0.893502    4.24627  0.0000E+00  0.2449E-04  0.2009E-06  0.3794E-03  0.1036E-01 -0.2656E-01
   -0.962236    4.24983  0.0000E+00  0.2236E-04  0.1610E-06  0.3917E-03  0.9277E-02 -0.3593E-01
   -1.030970    4.25322  0.0000E+00  0.2054E-04  0.1313E-06  0.4003E-03  0.8332E-02 -0.4533E-01
   -1.099704    4.25647  0.0000E+00  0.1894E-04  0.1086E-06  0.4087E-03  0.7480E-02 -0.5684E-01
   -1.168438    4.25958  0.0000E+00  0.1753E-04  0.9094E-07  0.4167E-03  0.6709E-02 -0.7090E-01
   -1.237172    4.26257  0.0000E+00  0.1626E-04  0.7691E-07  0.4243E-03  0.6010E-02 -0.8726E-01
   -1.305906    4.26543  0.0000E+00  0.1512E-04  0.6561E-07  0.4317E-03  0.5374E-02 -0.9771E-01
   -1.374641    4.26818  0.0000E+00  0.1409E-04  0.5637E-07  0.4401E-03  0.4792E-02  0.3928E+01
   -1.443375    4.27082  0.0000E+00  0.1313E-04  0.4870E-07  0.4496E-03  0.4257E-02  0.2839E+03
   -1.512109    4.27333  0.0000E+00  0.1224E-04  0.4224E-07  0.4666E-03  0.3763E-02  0.1153E+03
   -1.580843    4.27571  0.0000E+00  0.1141E-04  0.3676E-07  0.4831E-03  0.3319E-02  0.3484E+02
   -1.649577    4.27797  0.0000E+00  0.1065E-04  0.3212E-07  0.4993E-03  0.2927E-02  0.1271E+01
   -1.718311    4.28012  0.0000E+00  0.9948E-05  0.2818E-07  0.5148E-03  0.2578E-02  0.2189E+04
   -1.787045    4.28217  0.0000E+00  0.9304E-05  0.2483E-07  0.5264E-03  0.2268E-02  0.3500E+01
   -1.855779    4.28413  0.0000E+00  0.8715E-05  0.2199E-07  0.5356E-03  0.1991E-02  0.7950E+01
   -1.924512    4.28602  0.0000E+00  0.8176E-05  0.1959E-07  0.5420E-03  0.1743E-02  0.4049E+03
   -1.993245    4.28785  0.0000E+00  0.7685E-05  0.1757E-07  0.5441E-03  0.1521E-02  0.7611E+01
   -2.061978    4.28963  0.0000E+00  0.7236E-05  0.1588E-07  0.5412E-03  0.1320E-02  0.1942E+01
   -2.130710    4.29138  0.0000E+00  0.6828E-05  0.1448E-07  0.5339E-03  0.1139E-02  0.9394E+01
   -2.199442    4.29311  0.0000E+00  0.6455E-05  0.1337E-07  0.5215E-03  0.9738E-03  0.3856E+01
   -2.268174    4.29484  0.0000E+00  0.6112E-05  0.1251E-07  0.5055E-03  0.8211E-03  0.4658E+01
   -2.336905    4.29659  0.0000E+00  0.5786E-05  0.1189E-07  0.4818E-03  0.6849E-03  0.1013E+02
   -2.405636    4.29838  0.0000E+00  0.5469E-05  0.1158E-07  0.4466E-03  0.5640E-03  0.1518E+02
   -2.474366    4.30029  0.0000E+00  0.5151E-05  0.1167E-07  0.3902E-03  0.4555E-03  0.2498E+04
   -2.543096    4.30242  0.0000E+00  0.4802E-05  0.1251E-07  0.2991E-03  0.3564E-03  0.6024E+04
   -2.611825    4.30513  0.0000E+00  0.4338E-05  0.1546E-07  0.1815E-03  0.2656E-03 -0.3314E+02
   -2.680553    4.30954  0.0000E+00  0.2409E-05  0.4611E-07  0.1746E-04  0.1814E-03 -0.4559E+06
   -2.749281    4.35732  0.0000E+00  0.0000E+00  0.0000E+00  0.0000E+00  0.1808E-03  0.0000E+00
