 1 - depth, m
 2 - temperature, C
 3 - salinity, kg/kg
 4 - turbulent kinetic energy, m**2/s**2
 5 - dissipation rate, m**2/s**3
 6 - kinematic heat conductance, m**2/s
 7 - modulus of horizontal velocity, m/s
 8 - Richardson number, n/d
   -0.000000    0.00000  0.0000E+00  0.1219E-13  0.7603E-17  0.1000E-09  0.0000E+00  0.9777E+16
   -0.068738    0.14967  0.0000E+00  0.1219E-13  0.7603E-17  0.1000E-09  0.0000E+00  0.9195E+16
   -0.137476    0.29634  0.0000E+00  0.1219E-13  0.7603E-17  0.1000E-09  0.0000E+00  0.8612E+16
   -0.206215    0.43957  0.0000E+00  0.1219E-13  0.7603E-17  0.1000E-09  0.0000E+00  0.8037E+16
   -0.274955    0.57901  0.0000E+00  0.1219E-13  0.7603E-17  0.1000E-09  0.0000E+00  0.7504E+16
   -0.343695    0.71487  0.0000E+00  0.1219E-13  0.7603E-17  0.1000E-09  0.0000E+00  0.6993E+16
   -0.412436    0.84706  0.0000E+00  0.1219E-13  0.7603E-17  0.1000E-09  0.0000E+00  0.6502E+16
   -0.481177    0.97546  0.0000E+00  0.1219E-13  0.7603E-17  0.1000E-09  0.0000E+00  0.6028E+16
   -0.549919    1.09988  0.0000E+00  0.1219E-13  0.7603E-17  0.1000E-09  0.0000E+00  0.5561E+16
   -0.618661    1.21987  0.0000E+00  0.1219E-13  0.7603E-17  0.1000E-09  0.0000E+00  0.5118E+16
   -0.687403    1.33531  0.0000E+00  0.1219E-13  0.7603E-17  0.1000E-09  0.0000E+00  0.4754E+16
   -0.756146    1.44746  0.0000E+00  0.1219E-13  0.7603E-17  0.1000E-09  0.0000E+00  0.4440E+16
   -0.824889    1.55709  0.0000E+00  0.1219E-13  0.7603E-17  0.1000E-09  0.0000E+00  0.4140E+16
   -0.893633    1.66416  0.0000E+00  0.1219E-13  0.7603E-17  0.1000E-09  0.0000E+00  0.3853E+16
   -0.962376    1.76864  0.0000E+00  0.1219E-13  0.7603E-17  0.1000E-09  0.0000E+00  0.3579E+16
   -1.031120    1.87047  0.0000E+00  0.1219E-13  0.7603E-17  0.1000E-09  0.0000E+00  0.3322E+16
   -1.099864    1.96974  0.0000E+00  0.1219E-13  0.7603E-17  0.1000E-09  0.0000E+00  0.3077E+16
   -1.168608    2.06642  0.0000E+00  0.1219E-13  0.7603E-17  0.1000E-09  0.0000E+00  0.2843E+16
   -1.237352    2.16047  0.0000E+00  0.1219E-13  0.7603E-17  0.1000E-09  0.0000E+00  0.2621E+16
   -1.306097    2.25180  0.0000E+00  0.1219E-13  0.7603E-17  0.1000E-09  0.0000E+00  0.2409E+16
   -1.374841    2.34035  0.0000E+00  0.1219E-13  0.7603E-17  0.1000E-09  0.0000E+00  0.2238E+16
   -1.443585    2.42724  0.0000E+00  0.1219E-13  0.7603E-17  0.1000E-09  0.0000E+00  0.2083E+16
   -1.512330    2.51282  0.0000E+00  0.1219E-13  0.7603E-17  0.1000E-09  0.0000E+00  0.1936E+16
   -1.581074    2.59723  0.0000E+00  0.1219E-13  0.7603E-17  0.1000E-09  0.0000E+00  0.1796E+16
   -1.649818    2.68049  0.0000E+00  0.1219E-13  0.7603E-17  0.1000E-09  0.0000E+00  0.1659E+16
   -1.718562    2.76257  0.0000E+00  0.1219E-13  0.7603E-17  0.1000E-09  0.0000E+00  0.1527E+16
   -1.787306    2.84340  0.0000E+00  0.1219E-13  0.7603E-17  0.1000E-09  0.0000E+00  0.1398E+16
   -1.856049    2.92290  0.0000E+00  0.1219E-13  0.7603E-17  0.1000E-09  0.0000E+00  0.1274E+16
   -1.924793    3.00100  0.0000E+00  0.1219E-13  0.7603E-17  0.1000E-09  0.0000E+00  0.1153E+16
   -1.993536    3.07758  0.0000E+00  0.1219E-13  0.7603E-17  0.1000E-09  0.0000E+00  0.1037E+16
   -2.062279    3.15253  0.0000E+00  0.1219E-13  0.7603E-17  0.1000E-09  0.0000E+00  0.9487E+15
   -2.131021    3.22764  0.0000E+00  0.1219E-13  0.7603E-17  0.1000E-09  0.0000E+00  0.8641E+15
   -2.199763    3.30330  0.0000E+00  0.1219E-13  0.7603E-17  0.1000E-09  0.0000E+00  0.7796E+15
   -2.268505    3.37969  0.0000E+00  0.1219E-13  0.7604E-17  0.1000E-09  0.0000E+00  0.7065E+15
   -2.337246    3.45849  0.0000E+00  0.1640E-13  0.1841E-16  0.1000E-09  0.0000E+00  0.6352E+15
   -2.405987    3.54120  0.0000E+00  0.1428E-12  0.1649E-15  0.1000E-09  0.0000E+00  0.5588E+15
   -2.474727    3.62962  0.0000E+00  0.1392E-11  0.1596E-14  0.1000E-09  0.0000E+00  0.4723E+15
   -2.543467    3.72703  0.0000E+00  0.1397E-10  0.1601E-13  0.1925E-09  0.0000E+00  0.3643E+15
   -2.612206    3.84186  0.0000E+00  0.1460E-09  0.1696E-12  0.3874E-08  0.0000E+00  0.1636E+15
   -2.680944    3.99017  0.0000E+00  0.1562E-08  0.1974E-11  0.4189E-06  0.0000E+00 -0.4324E+14
   -2.749682    4.06075  0.0000E+00  0.0000E+00  0.0000E+00  0.0000E+00  0.0000E+00  0.0000E+00
