 1 - depth, m
 2 - temperature, C
 3 - salinity, kg/kg
 4 - turbulent kinetic energy, m**2/s**2
 5 - dissipation rate, m**2/s**3
 6 - kinematic heat conductance, m**2/s
 7 - modulus of horizontal velocity, m/s
 8 - Richardson number, n/d
   -0.000000    0.00000  0.0000E+00  0.1219E-13  0.7604E-17  0.1000E-09  0.0000E+00  0.1018E+17
   -0.068728    0.15599  0.0000E+00  0.1219E-13  0.7604E-17  0.1000E-09  0.0000E+00  0.9439E+16
   -0.137456    0.30691  0.0000E+00  0.1219E-13  0.7604E-17  0.1000E-09  0.0000E+00  0.8743E+16
   -0.206185    0.45283  0.0000E+00  0.1219E-13  0.7604E-17  0.1000E-09  0.0000E+00  0.8089E+16
   -0.274914    0.59376  0.0000E+00  0.1219E-13  0.7604E-17  0.1000E-09  0.0000E+00  0.7503E+16
   -0.343644    0.73026  0.0000E+00  0.1219E-13  0.7604E-17  0.1000E-09  0.0000E+00  0.6958E+16
   -0.412375    0.86247  0.0000E+00  0.1219E-13  0.7604E-17  0.1000E-09  0.0000E+00  0.6446E+16
   -0.481106    0.99044  0.0000E+00  0.1219E-13  0.7604E-17  0.1000E-09  0.0000E+00  0.5959E+16
   -0.549837    1.11408  0.0000E+00  0.1219E-13  0.7604E-17  0.1000E-09  0.0000E+00  0.5485E+16
   -0.618569    1.23303  0.0000E+00  0.1219E-13  0.7604E-17  0.1000E-09  0.0000E+00  0.5039E+16
   -0.687302    1.34725  0.0000E+00  0.1219E-13  0.7604E-17  0.1000E-09  0.0000E+00  0.4682E+16
   -0.756034    1.45821  0.0000E+00  0.1219E-13  0.7604E-17  0.1000E-09  0.0000E+00  0.4379E+16
   -0.824767    1.56680  0.0000E+00  0.1219E-13  0.7604E-17  0.1000E-09  0.0000E+00  0.4090E+16
   -0.893500    1.67302  0.0000E+00  0.1219E-13  0.7604E-17  0.1000E-09  0.0000E+00  0.3814E+16
   -0.962234    1.77684  0.0000E+00  0.1219E-13  0.7604E-17  0.1000E-09  0.0000E+00  0.3550E+16
   -1.030967    1.87824  0.0000E+00  0.1219E-13  0.7604E-17  0.1000E-09  0.0000E+00  0.3303E+16
   -1.099701    1.97734  0.0000E+00  0.1219E-13  0.7604E-17  0.1000E-09  0.0000E+00  0.3067E+16
   -1.168435    2.07409  0.0000E+00  0.1219E-13  0.7604E-17  0.1000E-09  0.0000E+00  0.2841E+16
   -1.237169    2.16847  0.0000E+00  0.1219E-13  0.7604E-17  0.1000E-09  0.0000E+00  0.2625E+16
   -1.305903    2.26041  0.0000E+00  0.1219E-13  0.7604E-17  0.1000E-09  0.0000E+00  0.2419E+16
   -1.374637    2.34984  0.0000E+00  0.1219E-13  0.7604E-17  0.1000E-09  0.0000E+00  0.2254E+16
   -1.443372    2.43792  0.0000E+00  0.1219E-13  0.7604E-17  0.1000E-09  0.0000E+00  0.2103E+16
   -1.512106    2.52501  0.0000E+00  0.1219E-13  0.7604E-17  0.1000E-09  0.0000E+00  0.1960E+16
   -1.580840    2.61124  0.0000E+00  0.1219E-13  0.7604E-17  0.1000E-09  0.0000E+00  0.1821E+16
   -1.649574    2.69665  0.0000E+00  0.1219E-13  0.7604E-17  0.1000E-09  0.0000E+00  0.1684E+16
   -1.718307    2.78115  0.0000E+00  0.1219E-13  0.7604E-17  0.1000E-09  0.0000E+00  0.1550E+16
   -1.787041    2.86466  0.0000E+00  0.1219E-13  0.7604E-17  0.1000E-09  0.0000E+00  0.1419E+16
   -1.855775    2.94709  0.0000E+00  0.1219E-13  0.7604E-17  0.1000E-09  0.0000E+00  0.1291E+16
   -1.924508    3.02832  0.0000E+00  0.1219E-13  0.7604E-17  0.1000E-09  0.0000E+00  0.1166E+16
   -1.993241    3.10822  0.0000E+00  0.1219E-13  0.7604E-17  0.1000E-09  0.0000E+00  0.1045E+16
   -2.061973    3.18666  0.0000E+00  0.1219E-13  0.7604E-17  0.1000E-09  0.0000E+00  0.9488E+15
   -2.130705    3.26537  0.0000E+00  0.1219E-13  0.7604E-17  0.1000E-09  0.0000E+00  0.8557E+15
   -2.199437    3.34469  0.0000E+00  0.1219E-13  0.7604E-17  0.1000E-09  0.0000E+00  0.7616E+15
   -2.268169    3.42473  0.0000E+00  0.1220E-13  0.8922E-17  0.1000E-09  0.0000E+00  0.6783E+15
   -2.336900    3.50727  0.0000E+00  0.4746E-13  0.5189E-16  0.1000E-09  0.0000E+00  0.5948E+15
   -2.405630    3.59380  0.0000E+00  0.4301E-12  0.4689E-15  0.1000E-09  0.0000E+00  0.5036E+15
   -2.474360    3.68611  0.0000E+00  0.4008E-11  0.4336E-14  0.1000E-09  0.0000E+00  0.3979E+15
   -2.543090    3.78751  0.0000E+00  0.3827E-10  0.4151E-13  0.6762E-09  0.0000E+00  0.2599E+15
   -2.611819    3.90622  0.0000E+00  0.3762E-09  0.4195E-12  0.2612E-07  0.0000E+00  0.2831E+14
   -2.680547    4.03928  0.0000E+00  0.3146E-08  0.4697E-11  0.6997E-06  0.0000E+00 -0.5978E+14
   -2.749275    4.08852  0.0000E+00  0.0000E+00  0.0000E+00  0.0000E+00  0.0000E+00  0.0000E+00
