 1 - depth, m
 2 - temperature, C
 3 - salinity, kg/kg
 4 - turbulent kinetic energy, m**2/s**2
 5 - dissipation rate, m**2/s**3
 6 - kinematic heat conductance, m**2/s
 7 - modulus of horizontal velocity, m/s
 8 - Richardson number, n/d
   -0.000000    1.24218  0.0000E+00  0.4942E-03  0.2931E-03  0.1069E-03  0.2303E+00 -0.8749E-03
   -0.068738    1.28817  0.0000E+00  0.2792E-03  0.8707E-04  0.3980E-03  0.6635E-01  0.9286E-02
   -0.137478    1.29645  0.0000E+00  0.2069E-03  0.4363E-04  0.3507E-03  0.5240E-01  0.2744E-01
   -0.206217    1.30210  0.0000E+00  0.1586E-03  0.2362E-04  0.3347E-03  0.4489E-01  0.9605E-02
   -0.274958    1.30635  0.0000E+00  0.1261E-03  0.1321E-04  0.3227E-03  0.3974E-01  0.1330E-01
   -0.343699    1.30994  0.0000E+00  0.1021E-03  0.7492E-05  0.3228E-03  0.3514E-01  0.1539E-01
   -0.412440    1.31314  0.0000E+00  0.8467E-04  0.4405E-05  0.3273E-03  0.3117E-01  0.1736E-01
   -0.481182    1.31610  0.0000E+00  0.7146E-04  0.2704E-05  0.3324E-03  0.2772E-01  0.1875E-01
   -0.549924    1.31893  0.0000E+00  0.6112E-04  0.1742E-05  0.3399E-03  0.2471E-01  0.2680E-01
   -0.618667    1.32168  0.0000E+00  0.5297E-04  0.1181E-05  0.3450E-03  0.2212E-01  0.3471E-01
   -0.687410    1.32439  0.0000E+00  0.4641E-04  0.8372E-06  0.3477E-03  0.1986E-01  0.4754E-01
   -0.756154    1.32713  0.0000E+00  0.4099E-04  0.6151E-06  0.3482E-03  0.1788E-01  0.6613E-01
   -0.824897    1.32994  0.0000E+00  0.3643E-04  0.4648E-06  0.3465E-03  0.1614E-01  0.9462E-01
   -0.893641    1.33288  0.0000E+00  0.3251E-04  0.3591E-06  0.3431E-03  0.1458E-01  0.1428E+00
   -0.962386    1.33604  0.0000E+00  0.2914E-04  0.2826E-06  0.3385E-03  0.1320E-01  0.2436E+00
   -1.031130    1.33955  0.0000E+00  0.2624E-04  0.2264E-06  0.3286E-03  0.1198E-01  0.3950E+00
   -1.099875    1.34391  0.0000E+00  0.2368E-04  0.1839E-06  0.3173E-03  0.1085E-01  0.7969E+00
   -1.168620    1.35272  0.0000E+00  0.2141E-04  0.1512E-06  0.3050E-03  0.9779E-02  0.4753E+01
   -1.237365    1.37387  0.0000E+00  0.1938E-04  0.1256E-06  0.2916E-03  0.8769E-02  0.6433E+02
   -1.306110    1.39705  0.0000E+00  0.1755E-04  0.1051E-06  0.2765E-03  0.7849E-02  0.1156E+04
   -1.374855    1.41561  0.0000E+00  0.1586E-04  0.8848E-07  0.2593E-03  0.7007E-02  0.3971E+05
   -1.443600    1.43566  0.0000E+00  0.1427E-04  0.7466E-07  0.2391E-03  0.6210E-02  0.2121E+07
   -1.512345    1.46176  0.0000E+00  0.1274E-04  0.6281E-07  0.2209E-03  0.5440E-02  0.1588E+09
   -1.581089    1.49189  0.0000E+00  0.1127E-04  0.5256E-07  0.2018E-03  0.4747E-02  0.1823E+11
   -1.649834    1.53294  0.0000E+00  0.9890E-05  0.4377E-07  0.1804E-03  0.4129E-02  0.2587E+13
   -1.718579    1.59285  0.0000E+00  0.8583E-05  0.3619E-07  0.1574E-03  0.3576E-02  0.3374E+15
   -1.787323    1.67321  0.0000E+00  0.7349E-05  0.2964E-07  0.1332E-03  0.3073E-02  0.1149E+16
   -1.856068    1.77832  0.0000E+00  0.6199E-05  0.2400E-07  0.1087E-03  0.2596E-02  0.1254E+16
   -1.924812    1.90199  0.0000E+00  0.5123E-05  0.1908E-07  0.8458E-04  0.2165E-02  0.1423E+16
   -1.993556    2.06415  0.0000E+00  0.4105E-05  0.1469E-07  0.6165E-04  0.1762E-02  0.2150E+16
   -2.062299    2.35873  0.0000E+00  0.3185E-05  0.1079E-07  0.4148E-04  0.1348E-02  0.2272E+16
   -2.131042    2.81304  0.0000E+00  0.2364E-05  0.7606E-08  0.5509E-04  0.9853E-03  0.3155E+15
   -2.199785    3.06847  0.0000E+00  0.1595E-05  0.4879E-08  0.6585E-04  0.6559E-03 -0.1686E+13
   -2.268527    3.32137  0.0000E+00  0.9541E-06  0.2738E-08  0.5972E-04  0.3350E-03 -0.1810E+13
   -2.337269    3.51233  0.0000E+00  0.3822E-06  0.9335E-09  0.5963E-04  0.1248E-03 -0.1913E+13
   -2.406010    3.91777  0.0000E+00  0.1757E-06  0.2812E-09  0.6152E-04  0.1096E-04 -0.2088E+13
   -2.474751    4.02947  0.0000E+00  0.1309E-06  0.1358E-09  0.6009E-04  0.1512E-05 -0.2402E+13
   -2.543492    4.09050  0.0000E+00  0.1217E-06  0.1068E-09  0.5327E-04  0.2183E-06 -0.3248E+13
   -2.612231    4.10804  0.0000E+00  0.1140E-06  0.1184E-09  0.3382E-04  0.3723E-07 -0.6900E+13
   -2.680971    4.12456  0.0000E+00  0.7687E-07  0.2788E-09  0.4449E-05  0.5022E-08 -0.1080E+15
   -2.749709    4.20728  0.0000E+00  0.0000E+00  0.0000E+00  0.0000E+00  0.5031E-08  0.0000E+00
