 1 - depth, m
 2 - temperature, C
 3 - salinity, kg/kg
 4 - turbulent kinetic energy, m**2/s**2
 5 - dissipation rate, m**2/s**3
 6 - kinematic heat conductance, m**2/s
 7 - modulus of horizontal velocity, m/s
 8 - Richardson number, n/d
   -0.000000    0.00000  0.0000E+00  0.1219E-13  0.7603E-17  0.1000E-09  0.0000E+00  0.1296E+17
   -0.068738    0.19968  0.0000E+00  0.1219E-13  0.7603E-17  0.1000E-09  0.0000E+00  0.1160E+17
   -0.137478    0.38849  0.0000E+00  0.1219E-13  0.7603E-17  0.1000E-09  0.0000E+00  0.1022E+17
   -0.206217    0.56408  0.0000E+00  0.1219E-13  0.7603E-17  0.1000E-09  0.0000E+00  0.8866E+16
   -0.274958    0.72446  0.0000E+00  0.1219E-13  0.7603E-17  0.1000E-09  0.0000E+00  0.7668E+16
   -0.343698    0.87020  0.0000E+00  0.1219E-13  0.7603E-17  0.1000E-09  0.0000E+00  0.6559E+16
   -0.412440    1.00082  0.0000E+00  0.1219E-13  0.7603E-17  0.1000E-09  0.0000E+00  0.5543E+16
   -0.481182    1.11607  0.0000E+00  0.1219E-13  0.7603E-17  0.1000E-09  0.0000E+00  0.4614E+16
   -0.549924    1.21584  0.0000E+00  0.1219E-13  0.7603E-17  0.1000E-09  0.0000E+00  0.3737E+16
   -0.618667    1.29949  0.0000E+00  0.1219E-13  0.7603E-17  0.1000E-09  0.0000E+00  0.2977E+16
   -0.687410    1.36813  0.0000E+00  0.1219E-13  0.7603E-17  0.1000E-09  0.0000E+00  0.2528E+16
   -0.756153    1.42792  0.0000E+00  0.1219E-13  0.7603E-17  0.1000E-09  0.0000E+00  0.2304E+16
   -0.824897    1.48373  0.0000E+00  0.1219E-13  0.7603E-17  0.1000E-09  0.0000E+00  0.2183E+16
   -0.893641    1.53782  0.0000E+00  0.1219E-13  0.7603E-17  0.1000E-09  0.0000E+00  0.2157E+16
   -0.962385    1.59254  0.0000E+00  0.1219E-13  0.7603E-17  0.1000E-09  0.0000E+00  0.2216E+16
   -1.031130    1.65011  0.0000E+00  0.1219E-13  0.7603E-17  0.1000E-09  0.0000E+00  0.2365E+16
   -1.099874    1.71323  0.0000E+00  0.1219E-13  0.7603E-17  0.1000E-09  0.0000E+00  0.2559E+16
   -1.168619    1.78366  0.0000E+00  0.1219E-13  0.7603E-17  0.1000E-09  0.0000E+00  0.2771E+16
   -1.237364    1.86264  0.0000E+00  0.1219E-13  0.7603E-17  0.1000E-09  0.0000E+00  0.2973E+16
   -1.306109    1.95091  0.0000E+00  0.1219E-13  0.7603E-17  0.1000E-09  0.0000E+00  0.3137E+16
   -1.374854    2.04856  0.0000E+00  0.1219E-13  0.7603E-17  0.1000E-09  0.0000E+00  0.3316E+16
   -1.443599    2.15761  0.0000E+00  0.1219E-13  0.7603E-17  0.1000E-09  0.0000E+00  0.3425E+16
   -1.512344    2.27778  0.0000E+00  0.1219E-13  0.7603E-17  0.1000E-09  0.0000E+00  0.3445E+16
   -1.581089    2.40814  0.0000E+00  0.1219E-13  0.7603E-17  0.1000E-09  0.0000E+00  0.3360E+16
   -1.649833    2.54690  0.0000E+00  0.1219E-13  0.7603E-17  0.1000E-09  0.0000E+00  0.3164E+16
   -1.718578    2.69144  0.0000E+00  0.1219E-13  0.7603E-17  0.1000E-09  0.0000E+00  0.2876E+16
   -1.787323    2.83890  0.0000E+00  0.1350E-13  0.7608E-17  0.1000E-09  0.0000E+00  0.2522E+16
   -1.856067    2.98634  0.0000E+00  0.4060E-13  0.1304E-16  0.1000E-09  0.0000E+00  0.2134E+16
   -1.924811    3.13104  0.0000E+00  0.1511E-12  0.4393E-16  0.1000E-09  0.0000E+00  0.1740E+16
   -1.993555    3.27071  0.0000E+00  0.5442E-12  0.1526E-15  0.1000E-09  0.0000E+00  0.1365E+16
   -2.062298    3.40358  0.0000E+00  0.1926E-11  0.5243E-15  0.1000E-09  0.0000E+00  0.1032E+16
   -2.131041    3.52922  0.0000E+00  0.6730E-11  0.1780E-14  0.1000E-09  0.0000E+00  0.7410E+15
   -2.199784    3.64731  0.0000E+00  0.2326E-10  0.5982E-14  0.1000E-09  0.0000E+00  0.4935E+15
   -2.268526    3.75785  0.0000E+00  0.8018E-10  0.2007E-13  0.3492E-09  0.0000E+00  0.2913E+15
   -2.337268    3.86341  0.0000E+00  0.2777E-09  0.6779E-13  0.3004E-08  0.0000E+00  0.1144E+15
   -2.406009    3.96382  0.0000E+00  0.8993E-09  0.2168E-12  0.3100E-06  0.0000E+00  0.2868E+13
   -2.474750    4.00162  0.0000E+00  0.2058E-08  0.5711E-12  0.2361E-05  0.0000E+00 -0.2004E+13
   -2.543491    4.00856  0.0000E+00  0.2949E-08  0.1087E-11  0.2486E-05  0.0000E+00 -0.3500E+13
   -2.612230    4.01706  0.0000E+00  0.3945E-08  0.2398E-11  0.1940E-05  0.0000E+00 -0.9314E+13
   -2.680969    4.03255  0.0000E+00  0.5467E-08  0.8279E-11  0.1102E-05  0.0000E+00 -0.5852E+14
   -2.749708    4.08438  0.0000E+00  0.0000E+00  0.0000E+00  0.0000E+00  0.0000E+00  0.0000E+00
