 1 - depth, m
 2 - temperature, C
 3 - salinity, kg/kg
 4 - turbulent kinetic energy, m**2/s**2
 5 - dissipation rate, m**2/s**3
 6 - kinematic heat conductance, m**2/s
 7 - modulus of horizontal velocity, m/s
 8 - Richardson number, n/d
   -0.000000    0.00000  0.0000E+00  0.2895E-09  0.2446E-12  0.1000E-09  0.3949E-68  0.2720E+17
   -0.068754    0.43312  0.0000E+00  0.1841E-08  0.1800E-12  0.1000E-09  0.9645E-69  0.1650E+17
   -0.137509    0.72572  0.0000E+00  0.4628E-08  0.2245E-12  0.1201E-09  0.2301E-69  0.9641E+16
   -0.206264    0.91032  0.0000E+00  0.9047E-08  0.3407E-12  0.3334E-09  0.5443E-70  0.5172E+16
   -0.275020    1.01437  0.0000E+00  0.1596E-07  0.5417E-12  0.9641E-09  0.1678E-70  0.2853E+16
   -0.343777    1.07346  0.0000E+00  0.2677E-07  0.8609E-12  0.2834E-08  0.5350E-71  0.1548E+16
   -0.412534    1.10608  0.0000E+00  0.4356E-07  0.1351E-11  0.8314E-08  0.1659E-71  0.8302E+15
   -0.481292    1.12373  0.0000E+00  0.6894E-07  0.2078E-11  0.2710E-07  0.4529E-72  0.3924E+15
   -0.550050    1.13212  0.0000E+00  0.6926E-07  0.2088E-11  0.5070E-03  0.2764E-73  0.4602E+11
   -0.618808    1.13212  0.0000E+00  0.6938E-07  0.2092E-11  0.7259E-03  0.2609E-73 -0.7584E+11
   -0.687567    1.13211  0.0000E+00  0.6945E-07  0.2094E-11  0.7205E-03  0.2492E-73 -0.1021E+12
   -0.756326    1.13211  0.0000E+00  0.6946E-07  0.2095E-11  0.7209E-03  0.2391E-73 -0.9526E+11
   -0.825086    1.13211  0.0000E+00  0.6940E-07  0.2093E-11  0.7259E-03  0.2313E-73 -0.7141E+11
   -0.893845    1.13211  0.0000E+00  0.6928E-07  0.2089E-11  0.5663E-03  0.2256E-73  0.5662E+10
   -0.962605    1.13211  0.0000E+00  0.6909E-07  0.2084E-11  0.4468E-03  0.2222E-73  0.1698E+13
   -1.031366    1.13214  0.0000E+00  0.6660E-07  0.1999E-11  0.1575E-07  0.1052E-73  0.6500E+15
   -1.100126    1.14605  0.0000E+00  0.4211E-07  0.1296E-11  0.4935E-08  0.2541E-74  0.1340E+16
   -1.168886    1.17497  0.0000E+00  0.2614E-07  0.8275E-12  0.2124E-08  0.5913E-75  0.1986E+16
   -1.237647    1.21841  0.0000E+00  0.1595E-07  0.5236E-12  0.1026E-08  0.1339E-75  0.2600E+16
   -1.306408    1.27641  0.0000E+00  0.9504E-08  0.3313E-12  0.5266E-09  0.2955E-76  0.3199E+16
   -1.375168    1.34961  0.0000E+00  0.5463E-08  0.2160E-12  0.2482E-09  0.6355E-77  0.4415E+16
   -1.443929    1.45429  0.0000E+00  0.2982E-08  0.1597E-12  0.1490E-09  0.1319E-77  0.5792E+16
   -1.512690    1.59892  0.0000E+00  0.1622E-08  0.1645E-12  0.1344E-09  0.2026E-78  0.6882E+16
   -1.581450    1.78377  0.0000E+00  0.1372E-08  0.2896E-12  0.1917E-09  0.2699E-79  0.7937E+16
   -1.650211    2.01976  0.0000E+00  0.3123E-08  0.8280E-12  0.4505E-09  0.3441E-80  0.9070E+16
   -1.718971    2.33297  0.0000E+00  0.1066E-07  0.2809E-11  0.1421E-08  0.4190E-81  0.9862E+16
   -1.787731    2.76960  0.0000E+00  0.3739E-07  0.9525E-11  0.6591E-08  0.4864E-82  0.8568E+16
   -1.856491    3.40225  0.0000E+00  0.9176E-07  0.2288E-10  0.1696E-04  0.5369E-83  0.3232E+16
   -1.925251    4.00055  0.0000E+00  0.1100E-06  0.2767E-10  0.1226E-03  0.5574E-84  0.1748E+15
   -1.994011    4.10134  0.0000E+00  0.1132E-06  0.2870E-10  0.1564E-03  0.2020E-85 -0.1822E+13
   -2.062770    4.10238  0.0000E+00  0.1153E-06  0.2962E-10  0.1616E-03  0.1433E-85 -0.1859E+13
   -2.131529    4.10341  0.0000E+00  0.1168E-06  0.3062E-10  0.1624E-03  0.1010E-85 -0.1885E+13
   -2.200287    4.10445  0.0000E+00  0.1178E-06  0.3176E-10  0.1600E-03  0.7039E-86 -0.1940E+13
   -2.269045    4.10550  0.0000E+00  0.1184E-06  0.3314E-10  0.1553E-03  0.4686E-86 -0.2027E+13
   -2.337803    4.10659  0.0000E+00  0.1186E-06  0.3492E-10  0.1479E-03  0.3009E-86 -0.2164E+13
   -2.406560    4.10775  0.0000E+00  0.1182E-06  0.3734E-10  0.1377E-03  0.1854E-86 -0.2370E+13
   -2.475316    4.10900  0.0000E+00  0.1171E-06  0.4098E-10  0.1227E-03  0.1089E-86 -0.2721E+13
   -2.544072    4.11043  0.0000E+00  0.1146E-06  0.4791E-10  0.8724E-04  0.5574E-87 -0.3976E+13
   -2.612828    4.11249  0.0000E+00  0.1084E-06  0.6586E-10  0.4615E-04  0.2117E-87 -0.8076E+13
   -2.681583    4.11657  0.0000E+00  0.7040E-07  0.2165E-09  0.4045E-05  0.4738E-88 -0.1249E+15
   -2.750337    4.16805  0.0000E+00  0.0000E+00  0.0000E+00  0.0000E+00  0.5170E-88  0.0000E+00
