 1 - depth, m
 2 - temperature, C
 3 - salinity, kg/kg
 4 - turbulent kinetic energy, m**2/s**2
 5 - dissipation rate, m**2/s**3
 6 - kinematic heat conductance, m**2/s
 7 - modulus of horizontal velocity, m/s
 8 - Richardson number, n/d
   -0.000000    0.00000  0.0000E+00  0.1219E-13  0.7603E-17  0.1000E-09  0.0000E+00  0.1230E+17
   -0.068736    0.18934  0.0000E+00  0.1219E-13  0.7603E-17  0.1000E-09  0.0000E+00  0.1128E+17
   -0.137472    0.37230  0.0000E+00  0.1219E-13  0.7603E-17  0.1000E-09  0.0000E+00  0.1033E+17
   -0.206209    0.54887  0.0000E+00  0.1219E-13  0.7603E-17  0.1000E-09  0.0000E+00  0.9439E+16
   -0.274947    0.71905  0.0000E+00  0.1219E-13  0.7603E-17  0.1000E-09  0.0000E+00  0.8686E+16
   -0.343685    0.88439  0.0000E+00  0.1219E-13  0.7603E-17  0.1000E-09  0.0000E+00  0.7995E+16
   -0.412424    1.04524  0.0000E+00  0.1219E-13  0.7603E-17  0.1000E-09  0.0000E+00  0.7350E+16
   -0.481163    1.20170  0.0000E+00  0.1219E-13  0.7603E-17  0.1000E-09  0.0000E+00  0.6734E+16
   -0.549903    1.35361  0.0000E+00  0.1219E-13  0.7603E-17  0.1000E-09  0.0000E+00  0.6122E+16
   -0.618643    1.50013  0.0000E+00  0.1219E-13  0.7603E-17  0.1000E-09  0.0000E+00  0.5553E+16
   -0.687383    1.64127  0.0000E+00  0.2835E-13  0.7617E-17  0.1000E-09  0.0000E+00  0.5115E+16
   -0.756124    1.77959  0.0000E+00  0.9481E-13  0.1253E-16  0.1000E-09  0.0000E+00  0.4755E+16
   -0.824865    1.91678  0.0000E+00  0.2460E-12  0.2773E-16  0.1000E-09  0.0000E+00  0.4411E+16
   -0.893607    2.05302  0.0000E+00  0.5858E-12  0.6269E-16  0.1000E-09  0.0000E+00  0.4080E+16
   -0.962348    2.18853  0.0000E+00  0.1354E-11  0.1404E-15  0.1000E-09  0.0000E+00  0.3761E+16
   -1.031090    2.32349  0.0000E+00  0.3084E-11  0.3109E-15  0.1000E-09  0.0000E+00  0.3465E+16
   -1.099832    2.45865  0.0000E+00  0.6947E-11  0.6817E-15  0.1000E-09  0.0000E+00  0.3174E+16
   -1.168574    2.59424  0.0000E+00  0.1551E-10  0.1482E-14  0.1000E-09  0.0000E+00  0.2886E+16
   -1.237316    2.73047  0.0000E+00  0.3430E-10  0.3191E-14  0.1000E-09  0.0000E+00  0.2597E+16
   -1.306059    2.86750  0.0000E+00  0.7518E-10  0.6810E-14  0.1000E-09  0.0000E+00  0.2307E+16
   -1.374801    3.00546  0.0000E+00  0.1632E-09  0.1439E-13  0.1000E-09  0.0000E+00  0.2045E+16
   -1.443543    3.14683  0.0000E+00  0.3506E-09  0.3011E-13  0.1056E-09  0.0000E+00  0.1773E+16
   -1.512286    3.29267  0.0000E+00  0.7467E-09  0.6241E-13  0.2151E-09  0.0000E+00  0.1477E+16
   -1.581028    3.44376  0.0000E+00  0.1580E-08  0.1286E-12  0.5670E-09  0.0000E+00  0.1154E+16
   -1.649770    3.60142  0.0000E+00  0.3311E-08  0.2624E-12  0.1682E-08  0.0000E+00  0.7919E+15
   -1.718512    3.76869  0.0000E+00  0.6839E-08  0.5282E-12  0.7789E-08  0.0000E+00  0.3539E+15
   -1.787254    3.94826  0.0000E+00  0.1062E-07  0.8221E-12  0.1280E-04  0.0000E+00  0.1624E+14
   -1.855996    4.00619  0.0000E+00  0.1131E-07  0.8806E-12  0.5484E-04  0.0000E+00 -0.1655E+12
   -1.924737    4.00675  0.0000E+00  0.1167E-07  0.9176E-12  0.5560E-04  0.0000E+00 -0.1734E+12
   -1.993478    4.00732  0.0000E+00  0.1197E-07  0.9571E-12  0.5620E-04  0.0000E+00 -0.1795E+12
   -2.062219    4.00789  0.0000E+00  0.1221E-07  0.1000E-11  0.5523E-04  0.0000E+00 -0.1873E+12
   -2.130959    4.00846  0.0000E+00  0.1240E-07  0.1049E-11  0.5324E-04  0.0000E+00 -0.1984E+12
   -2.199699    4.00905  0.0000E+00  0.1254E-07  0.1106E-11  0.5042E-04  0.0000E+00 -0.2140E+12
   -2.268439    4.00966  0.0000E+00  0.1262E-07  0.1176E-11  0.4689E-04  0.0000E+00 -0.2363E+12
   -2.337178    4.01032  0.0000E+00  0.1264E-07  0.1269E-11  0.4237E-04  0.0000E+00 -0.2701E+12
   -2.405917    4.01105  0.0000E+00  0.1258E-07  0.1399E-11  0.3664E-04  0.0000E+00 -0.3248E+12
   -2.474655    4.01190  0.0000E+00  0.1241E-07  0.1600E-11  0.2960E-04  0.0000E+00 -0.4235E+12
   -2.543393    4.01295  0.0000E+00  0.1205E-07  0.1965E-11  0.2107E-04  0.0000E+00 -0.6457E+12
   -2.612130    4.01449  0.0000E+00  0.1124E-07  0.2877E-11  0.1103E-04  0.0000E+00 -0.1439E+13
   -2.680866    4.01762  0.0000E+00  0.7877E-08  0.8729E-11  0.1398E-05  0.0000E+00 -0.2028E+14
   -2.749602    4.04615  0.0000E+00  0.0000E+00  0.0000E+00  0.0000E+00  0.0000E+00  0.0000E+00
