 1 - depth, m
 2 - temperature, C
 3 - salinity, kg/kg
 4 - turbulent kinetic energy, m**2/s**2
 5 - dissipation rate, m**2/s**3
 6 - kinematic heat conductance, m**2/s
 7 - modulus of horizontal velocity, m/s
 8 - Richardson number, n/d
   -0.000000    0.00000  0.0000E+00  0.1219E-13  0.7604E-17  0.1000E-09  0.0000E+00  0.1007E+17
   -0.068797    0.15428  0.0000E+00  0.1219E-13  0.7604E-17  0.1000E-09  0.0000E+00  0.9334E+16
   -0.137595    0.30341  0.0000E+00  0.1219E-13  0.7604E-17  0.1000E-09  0.0000E+00  0.8649E+16
   -0.206393    0.44757  0.0000E+00  0.1219E-13  0.7604E-17  0.1000E-09  0.0000E+00  0.8010E+16
   -0.275192    0.58686  0.0000E+00  0.1219E-13  0.7604E-17  0.1000E-09  0.0000E+00  0.7446E+16
   -0.343991    0.72200  0.0000E+00  0.1219E-13  0.7604E-17  0.1000E-09  0.0000E+00  0.6921E+16
   -0.412791    0.85314  0.0000E+00  0.1219E-13  0.7604E-17  0.1000E-09  0.0000E+00  0.6426E+16
   -0.481591    0.98028  0.0000E+00  0.1219E-13  0.7604E-17  0.1000E-09  0.0000E+00  0.5952E+16
   -0.550392    1.10331  0.0000E+00  0.1219E-13  0.7604E-17  0.1000E-09  0.0000E+00  0.5485E+16
   -0.619193    1.22177  0.0000E+00  0.1219E-13  0.7604E-17  0.1000E-09  0.0000E+00  0.5043E+16
   -0.687995    1.33558  0.0000E+00  0.1219E-13  0.7604E-17  0.1000E-09  0.0000E+00  0.4691E+16
   -0.756797    1.44622  0.0000E+00  0.1219E-13  0.7604E-17  0.1000E-09  0.0000E+00  0.4393E+16
   -0.825599    1.55460  0.0000E+00  0.1219E-13  0.7604E-17  0.1000E-09  0.0000E+00  0.4108E+16
   -0.894402    1.66069  0.0000E+00  0.1219E-13  0.7604E-17  0.1000E-09  0.0000E+00  0.3834E+16
   -0.963205    1.76447  0.0000E+00  0.1219E-13  0.7604E-17  0.1000E-09  0.0000E+00  0.3572E+16
   -1.032008    1.86590  0.0000E+00  0.1219E-13  0.7604E-17  0.1000E-09  0.0000E+00  0.3328E+16
   -1.100811    1.96514  0.0000E+00  0.1219E-13  0.7604E-17  0.1000E-09  0.0000E+00  0.3095E+16
   -1.169614    2.06217  0.0000E+00  0.1219E-13  0.7604E-17  0.1000E-09  0.0000E+00  0.2871E+16
   -1.238417    2.15695  0.0000E+00  0.1219E-13  0.7604E-17  0.1000E-09  0.0000E+00  0.2657E+16
   -1.307221    2.24941  0.0000E+00  0.1219E-13  0.7604E-17  0.1000E-09  0.0000E+00  0.2453E+16
   -1.376024    2.33948  0.0000E+00  0.1219E-13  0.7604E-17  0.1000E-09  0.0000E+00  0.2290E+16
   -1.444828    2.42840  0.0000E+00  0.1219E-13  0.7604E-17  0.1000E-09  0.0000E+00  0.2142E+16
   -1.513631    2.51655  0.0000E+00  0.1219E-13  0.7604E-17  0.1000E-09  0.0000E+00  0.1999E+16
   -1.582435    2.60403  0.0000E+00  0.1219E-13  0.7604E-17  0.1000E-09  0.0000E+00  0.1860E+16
   -1.651238    2.69086  0.0000E+00  0.1219E-13  0.7604E-17  0.1000E-09  0.0000E+00  0.1723E+16
   -1.720041    2.77694  0.0000E+00  0.1219E-13  0.7604E-17  0.1000E-09  0.0000E+00  0.1587E+16
   -1.788844    2.86220  0.0000E+00  0.1219E-13  0.7604E-17  0.1000E-09  0.0000E+00  0.1454E+16
   -1.857647    2.94651  0.0000E+00  0.1219E-13  0.7604E-17  0.1000E-09  0.0000E+00  0.1323E+16
   -1.926450    3.02978  0.0000E+00  0.1219E-13  0.7604E-17  0.1000E-09  0.0000E+00  0.1194E+16
   -1.995252    3.11184  0.0000E+00  0.1219E-13  0.7604E-17  0.1000E-09  0.0000E+00  0.1069E+16
   -2.064054    3.19255  0.0000E+00  0.1219E-13  0.7604E-17  0.1000E-09  0.0000E+00  0.9694E+15
   -2.132856    3.27374  0.0000E+00  0.1219E-13  0.7604E-17  0.1000E-09  0.0000E+00  0.8720E+15
   -2.201657    3.35575  0.0000E+00  0.1219E-13  0.7604E-17  0.1000E-09  0.0000E+00  0.7725E+15
   -2.270458    3.43869  0.0000E+00  0.1501E-13  0.1412E-16  0.1000E-09  0.0000E+00  0.6824E+15
   -2.339258    3.52429  0.0000E+00  0.1114E-12  0.1062E-15  0.1000E-09  0.0000E+00  0.5905E+15
   -2.408058    3.61406  0.0000E+00  0.9281E-12  0.8660E-15  0.1000E-09  0.0000E+00  0.4888E+15
   -2.476857    3.70974  0.0000E+00  0.7723E-11  0.7081E-14  0.1000E-09  0.0000E+00  0.3695E+15
   -2.545656    3.81460  0.0000E+00  0.6539E-10  0.5943E-13  0.1216E-08  0.0000E+00  0.2118E+15
   -2.614454    3.93640  0.0000E+00  0.5595E-09  0.5180E-12  0.7909E-07  0.0000E+00 -0.3126E+13
   -2.683252    4.04010  0.0000E+00  0.3299E-08  0.4942E-11  0.7278E-06  0.0000E+00 -0.6003E+14
   -2.752049    4.08911  0.0000E+00  0.0000E+00  0.0000E+00  0.0000E+00  0.0000E+00  0.0000E+00
