 1 - depth, m
 2 - temperature, C
 3 - salinity, kg/kg
 4 - turbulent kinetic energy, m**2/s**2
 5 - dissipation rate, m**2/s**3
 6 - kinematic heat conductance, m**2/s
 7 - modulus of horizontal velocity, m/s
 8 - Richardson number, n/d
   -0.000000    0.00000  0.0000E+00  0.1219E-13  0.7603E-17  0.1000E-09  0.0000E+00  0.1239E+17
   -0.068734    0.19066  0.0000E+00  0.1219E-13  0.7603E-17  0.1000E-09  0.0000E+00  0.1136E+17
   -0.137470    0.37500  0.0000E+00  0.1219E-13  0.7603E-17  0.1000E-09  0.0000E+00  0.1041E+17
   -0.206205    0.55309  0.0000E+00  0.1219E-13  0.7603E-17  0.1000E-09  0.0000E+00  0.9517E+16
   -0.274942    0.72497  0.0000E+00  0.1219E-13  0.7603E-17  0.1000E-09  0.0000E+00  0.8758E+16
   -0.343679    0.89206  0.0000E+00  0.1219E-13  0.7603E-17  0.1000E-09  0.0000E+00  0.8059E+16
   -0.412416    1.05467  0.0000E+00  0.1219E-13  0.7603E-17  0.1000E-09  0.0000E+00  0.7405E+16
   -0.481154    1.21291  0.0000E+00  0.1219E-13  0.7603E-17  0.1000E-09  0.0000E+00  0.6783E+16
   -0.549892    1.36664  0.0000E+00  0.1219E-13  0.7603E-17  0.1000E-09  0.0000E+00  0.6167E+16
   -0.618631    1.51507  0.0000E+00  0.5748E-13  0.7632E-17  0.1000E-09  0.0000E+00  0.5593E+16
   -0.687370    1.65823  0.0000E+00  0.1526E-12  0.1374E-16  0.1000E-09  0.0000E+00  0.5149E+16
   -0.756109    1.79862  0.0000E+00  0.3379E-12  0.2738E-16  0.1000E-09  0.0000E+00  0.4782E+16
   -0.824849    1.93792  0.0000E+00  0.7029E-12  0.5459E-16  0.1000E-09  0.0000E+00  0.4429E+16
   -0.893589    2.07630  0.0000E+00  0.1427E-11  0.1078E-15  0.1000E-09  0.0000E+00  0.4090E+16
   -0.962329    2.21397  0.0000E+00  0.2860E-11  0.2112E-15  0.1000E-09  0.0000E+00  0.3762E+16
   -1.031070    2.35114  0.0000E+00  0.5680E-11  0.4103E-15  0.1000E-09  0.0000E+00  0.3457E+16
   -1.099811    2.48856  0.0000E+00  0.1119E-10  0.7909E-15  0.1000E-09  0.0000E+00  0.3160E+16
   -1.168551    2.62655  0.0000E+00  0.2188E-10  0.1514E-14  0.1000E-09  0.0000E+00  0.2866E+16
   -1.237292    2.76546  0.0000E+00  0.4252E-10  0.2882E-14  0.1000E-09  0.0000E+00  0.2574E+16
   -1.306033    2.90567  0.0000E+00  0.8215E-10  0.5453E-14  0.1000E-09  0.0000E+00  0.2281E+16
   -1.374774    3.04758  0.0000E+00  0.1578E-09  0.1026E-13  0.1000E-09  0.0000E+00  0.2008E+16
   -1.443515    3.19367  0.0000E+00  0.3013E-09  0.1919E-13  0.1000E-09  0.0000E+00  0.1718E+16
   -1.512256    3.34487  0.0000E+00  0.5728E-09  0.3576E-13  0.1306E-09  0.0000E+00  0.1394E+16
   -1.580997    3.50145  0.0000E+00  0.1088E-08  0.6658E-13  0.3294E-09  0.0000E+00  0.1029E+16
   -1.649738    3.66299  0.0000E+00  0.2059E-08  0.1235E-12  0.1006E-08  0.0000E+00  0.6252E+15
   -1.718478    3.82807  0.0000E+00  0.3867E-08  0.2276E-12  0.5908E-08  0.0000E+00  0.1963E+15
   -1.787219    3.99061  0.0000E+00  0.4402E-08  0.2606E-12  0.2135E-04  0.0000E+00 -0.8227E+11
   -1.855959    3.99170  0.0000E+00  0.4681E-08  0.2818E-12  0.2424E-04  0.0000E+00 -0.9332E+11
   -1.924699    3.99271  0.0000E+00  0.4943E-08  0.3056E-12  0.2648E-04  0.0000E+00 -0.1023E+12
   -1.993439    3.99366  0.0000E+00  0.5187E-08  0.3321E-12  0.2806E-04  0.0000E+00 -0.1125E+12
   -2.062178    3.99458  0.0000E+00  0.5411E-08  0.3619E-12  0.2864E-04  0.0000E+00 -0.1241E+12
   -2.130918    3.99549  0.0000E+00  0.5612E-08  0.3957E-12  0.2848E-04  0.0000E+00 -0.1387E+12
   -2.199656    3.99641  0.0000E+00  0.5789E-08  0.4351E-12  0.2764E-04  0.0000E+00 -0.1579E+12
   -2.268395    3.99736  0.0000E+00  0.5937E-08  0.4826E-12  0.2615E-04  0.0000E+00 -0.1844E+12
   -2.337132    3.99838  0.0000E+00  0.6057E-08  0.5441E-12  0.2385E-04  0.0000E+00 -0.2239E+12
   -2.405870    3.99951  0.0000E+00  0.6136E-08  0.6292E-12  0.2069E-04  0.0000E+00 -0.2884E+12
   -2.474607    4.00084  0.0000E+00  0.6155E-08  0.7587E-12  0.1663E-04  0.0000E+00 -0.4083E+12
   -2.543343    4.00253  0.0000E+00  0.6071E-08  0.9938E-12  0.1161E-04  0.0000E+00 -0.6947E+12
   -2.612079    4.00507  0.0000E+00  0.5738E-08  0.1588E-11  0.5815E-05  0.0000E+00 -0.1845E+13
   -2.680814    4.01055  0.0000E+00  0.4410E-08  0.4858E-11  0.9648E-06  0.0000E+00 -0.2568E+14
   -2.749548    4.04850  0.0000E+00  0.0000E+00  0.0000E+00  0.0000E+00  0.0000E+00  0.0000E+00
