 1 - depth, m
 2 - temperature, C
 3 - salinity, kg/kg
 4 - turbulent kinetic energy, m**2/s**2
 5 - dissipation rate, m**2/s**3
 6 - kinematic heat conductance, m**2/s
 7 - modulus of horizontal velocity, m/s
 8 - Richardson number, n/d
   -0.000000    8.37942  0.0000E+00  0.4824E-04  0.8778E-05  0.4957E-04  0.5383E-01 -0.1283E-01
   -0.068738    8.43929  0.0000E+00  0.2907E-04  0.1932E-05  0.7774E-04  0.2471E-01 -0.2352E-01
   -0.137477    8.45920  0.0000E+00  0.2241E-04  0.7355E-06  0.1074E-03  0.1798E-01 -0.4467E-01
   -0.206217    8.47323  0.0000E+00  0.1849E-04  0.3488E-06  0.1417E-03  0.1391E-01 -0.7464E-01
   -0.274957    8.48386  0.0000E+00  0.1613E-04  0.1990E-06  0.1792E-03  0.1117E-01 -0.1068E+00
   -0.343697    8.49216  0.0000E+00  0.1452E-04  0.1295E-06  0.2215E-03  0.9146E-02 -0.1460E+00
   -0.412439    8.49873  0.0000E+00  0.1330E-04  0.9184E-07  0.2721E-03  0.7617E-02 -0.1787E+00
   -0.481180    8.50397  0.0000E+00  0.1234E-04  0.6897E-07  0.3771E-03  0.6433E-02  0.5666E+01
   -0.549922    8.50794  0.0000E+00  0.1156E-04  0.5423E-07  0.5937E-03  0.5514E-02  0.1926E+03
   -0.618665    8.51073  0.0000E+00  0.1097E-04  0.4436E-07  0.7691E-03  0.4831E-02  0.8733E+02
   -0.687408    8.51276  0.0000E+00  0.1050E-04  0.3735E-07  0.9148E-03  0.4284E-02  0.1459E+03
   -0.756151    8.51432  0.0000E+00  0.1012E-04  0.3214E-07  0.1030E-02  0.3830E-02  0.1354E+02
   -0.824894    8.51557  0.0000E+00  0.9814E-05  0.2810E-07  0.1116E-02  0.3439E-02  0.8904E+01
   -0.893638    8.51667  0.0000E+00  0.9549E-05  0.2485E-07  0.1176E-02  0.3096E-02  0.4091E+01
   -0.962382    8.51768  0.0000E+00  0.9318E-05  0.2218E-07  0.1230E-02  0.2788E-02  0.2944E+01
   -1.031127    8.51863  0.0000E+00  0.9114E-05  0.1998E-07  0.1271E-02  0.2515E-02  0.2852E+01
   -1.099871    8.51953  0.0000E+00  0.8930E-05  0.1814E-07  0.1311E-02  0.2265E-02  0.2759E+01
   -1.168616    8.52039  0.0000E+00  0.8760E-05  0.1660E-07  0.1350E-02  0.2035E-02  0.2664E+01
   -1.237360    8.52120  0.0000E+00  0.8598E-05  0.1529E-07  0.1389E-02  0.1825E-02  0.2568E+01
   -1.306105    8.52198  0.0000E+00  0.8442E-05  0.1418E-07  0.1427E-02  0.1632E-02  0.2475E+01
   -1.374850    8.52271  0.0000E+00  0.8288E-05  0.1323E-07  0.1465E-02  0.1454E-02  0.2386E+01
   -1.443594    8.52342  0.0000E+00  0.8135E-05  0.1243E-07  0.1503E-02  0.1289E-02  0.2307E+01
   -1.512339    8.52409  0.0000E+00  0.7981E-05  0.1176E-07  0.1557E-02  0.1137E-02  0.2131E+01
   -1.581084    8.52472  0.0000E+00  0.7826E-05  0.1120E-07  0.1625E-02  0.1001E-02  0.1946E+01
   -1.649828    8.52532  0.0000E+00  0.7671E-05  0.1075E-07  0.1680E-02  0.8809E-03  0.1784E+01
   -1.718573    8.52589  0.0000E+00  0.7519E-05  0.1039E-07  0.1683E-02  0.7755E-03  0.1630E+01
   -1.787317    8.52645  0.0000E+00  0.7369E-05  0.1013E-07  0.1663E-02  0.6834E-03  0.1488E+01
   -1.856061    8.52700  0.0000E+00  0.7224E-05  0.9951E-08  0.1625E-02  0.6034E-03  0.1356E+01
   -1.924805    8.52755  0.0000E+00  0.7084E-05  0.9851E-08  0.1578E-02  0.5339E-03  0.1233E+01
   -1.993549    8.52811  0.0000E+00  0.6950E-05  0.9827E-08  0.1522E-02  0.4737E-03  0.1117E+01
   -2.062292    8.52867  0.0000E+00  0.6824E-05  0.9876E-08  0.1459E-02  0.4216E-03  0.1007E+01
   -2.131035    8.52925  0.0000E+00  0.6705E-05  0.9996E-08  0.1396E-02  0.3764E-03  0.9038E+00
   -2.199777    8.52984  0.0000E+00  0.6592E-05  0.1019E-07  0.1334E-02  0.3373E-03  0.9155E+00
   -2.268519    8.53045  0.0000E+00  0.6477E-05  0.1050E-07  0.1262E-02  0.3021E-03  0.1086E+01
   -2.337261    8.53108  0.0000E+00  0.6353E-05  0.1097E-07  0.1171E-02  0.2690E-03  0.1463E+01
   -2.406002    8.53174  0.0000E+00  0.6212E-05  0.1170E-07  0.1061E-02  0.2371E-03  0.2160E+01
   -2.474743    8.53246  0.0000E+00  0.6048E-05  0.1288E-07  0.9229E-03  0.2061E-03  0.3551E+01
   -2.543483    8.53327  0.0000E+00  0.5842E-05  0.1498E-07  0.7872E-03  0.1756E-03  0.6943E+01
   -2.612222    8.53422  0.0000E+00  0.5513E-05  0.2028E-07  0.5169E-03  0.1467E-03  0.5976E+04
   -2.680961    8.53605  0.0000E+00  0.3396E-05  0.7796E-07  0.3628E-04  0.1119E-03 -0.2091E+05
   -2.749699    8.55863  0.0000E+00  0.0000E+00  0.0000E+00  0.0000E+00  0.1147E-03  0.0000E+00
