 1 - depth, m
 2 - temperature, C
 3 - salinity, kg/kg
 4 - turbulent kinetic energy, m**2/s**2
 5 - dissipation rate, m**2/s**3
 6 - kinematic heat conductance, m**2/s
 7 - modulus of horizontal velocity, m/s
 8 - Richardson number, n/d
   -0.000000    0.00000  0.0000E+00  0.1219E-13  0.7603E-17  0.1000E-09  0.0000E+00  0.9525E+16
   -0.068755    0.14573  0.0000E+00  0.1219E-13  0.7603E-17  0.1000E-09  0.0000E+00  0.8997E+16
   -0.137512    0.28900  0.0000E+00  0.1219E-13  0.7603E-17  0.1000E-09  0.0000E+00  0.8468E+16
   -0.206268    0.42947  0.0000E+00  0.1219E-13  0.7603E-17  0.1000E-09  0.0000E+00  0.7941E+16
   -0.275026    0.56677  0.0000E+00  0.1219E-13  0.7603E-17  0.1000E-09  0.0000E+00  0.7449E+16
   -0.343783    0.70108  0.0000E+00  0.1219E-13  0.7603E-17  0.1000E-09  0.0000E+00  0.6970E+16
   -0.412542    0.83223  0.0000E+00  0.1219E-13  0.7603E-17  0.1000E-09  0.0000E+00  0.6503E+16
   -0.481301    0.95999  0.0000E+00  0.1219E-13  0.7603E-17  0.1000E-09  0.0000E+00  0.6047E+16
   -0.550060    1.08410  0.0000E+00  0.1219E-13  0.7603E-17  0.1000E-09  0.0000E+00  0.5592E+16
   -0.618820    1.20405  0.0000E+00  0.1219E-13  0.7603E-17  0.1000E-09  0.0000E+00  0.5156E+16
   -0.687580    1.31967  0.0000E+00  0.1219E-13  0.7603E-17  0.1000E-09  0.0000E+00  0.4795E+16
   -0.756340    1.43209  0.0000E+00  0.1219E-13  0.7603E-17  0.1000E-09  0.0000E+00  0.4481E+16
   -0.825101    1.54201  0.0000E+00  0.1219E-13  0.7603E-17  0.1000E-09  0.0000E+00  0.4179E+16
   -0.893862    1.64938  0.0000E+00  0.1219E-13  0.7603E-17  0.1000E-09  0.0000E+00  0.3889E+16
   -0.962623    1.75414  0.0000E+00  0.1219E-13  0.7603E-17  0.1000E-09  0.0000E+00  0.3612E+16
   -1.031385    1.85621  0.0000E+00  0.1219E-13  0.7603E-17  0.1000E-09  0.0000E+00  0.3352E+16
   -1.100146    1.95570  0.0000E+00  0.1219E-13  0.7603E-17  0.1000E-09  0.0000E+00  0.3105E+16
   -1.168908    2.05257  0.0000E+00  0.1219E-13  0.7603E-17  0.1000E-09  0.0000E+00  0.2869E+16
   -1.237670    2.14674  0.0000E+00  0.1219E-13  0.7603E-17  0.1000E-09  0.0000E+00  0.2644E+16
   -1.306432    2.23815  0.0000E+00  0.1219E-13  0.7603E-17  0.1000E-09  0.0000E+00  0.2429E+16
   -1.375194    2.32672  0.0000E+00  0.1219E-13  0.7603E-17  0.1000E-09  0.0000E+00  0.2256E+16
   -1.443956    2.41357  0.0000E+00  0.1219E-13  0.7603E-17  0.1000E-09  0.0000E+00  0.2100E+16
   -1.512718    2.49907  0.0000E+00  0.1219E-13  0.7603E-17  0.1000E-09  0.0000E+00  0.1952E+16
   -1.581479    2.58332  0.0000E+00  0.1219E-13  0.7603E-17  0.1000E-09  0.0000E+00  0.1810E+16
   -1.650241    2.66636  0.0000E+00  0.1219E-13  0.7603E-17  0.1000E-09  0.0000E+00  0.1672E+16
   -1.719003    2.74814  0.0000E+00  0.1219E-13  0.7603E-17  0.1000E-09  0.0000E+00  0.1539E+16
   -1.787764    2.82860  0.0000E+00  0.1219E-13  0.7603E-17  0.1000E-09  0.0000E+00  0.1410E+16
   -1.856526    2.90767  0.0000E+00  0.1219E-13  0.7603E-17  0.1000E-09  0.0000E+00  0.1285E+16
   -1.925287    2.98528  0.0000E+00  0.1219E-13  0.7603E-17  0.1000E-09  0.0000E+00  0.1165E+16
   -1.994047    3.06131  0.0000E+00  0.1219E-13  0.7603E-17  0.1000E-09  0.0000E+00  0.1049E+16
   -2.062808    3.13565  0.0000E+00  0.1219E-13  0.7603E-17  0.1000E-09  0.0000E+00  0.9614E+15
   -2.131568    3.21014  0.0000E+00  0.1219E-13  0.7603E-17  0.1000E-09  0.0000E+00  0.8785E+15
   -2.200328    3.28518  0.0000E+00  0.1219E-13  0.7603E-17  0.1000E-09  0.0000E+00  0.7958E+15
   -2.269087    3.36097  0.0000E+00  0.1219E-13  0.7603E-17  0.1000E-09  0.0000E+00  0.7245E+15
   -2.337846    3.43913  0.0000E+00  0.1249E-13  0.1302E-16  0.1000E-09  0.0000E+00  0.6553E+15
   -2.406604    3.52111  0.0000E+00  0.9818E-13  0.1070E-15  0.1000E-09  0.0000E+00  0.5819E+15
   -2.475362    3.60867  0.0000E+00  0.9177E-12  0.9880E-15  0.1000E-09  0.0000E+00  0.4997E+15
   -2.544119    3.70499  0.0000E+00  0.8813E-11  0.9408E-14  0.1067E-09  0.0000E+00  0.4000E+15
   -2.612876    3.81822  0.0000E+00  0.8804E-10  0.9404E-13  0.1780E-08  0.0000E+00  0.2184E+15
   -2.681632    3.96575  0.0000E+00  0.9292E-09  0.1035E-11  0.2875E-06  0.0000E+00 -0.3386E+14
   -2.750387    4.05524  0.0000E+00  0.0000E+00  0.0000E+00  0.0000E+00  0.0000E+00  0.0000E+00
