 1 - depth, m
 2 - temperature, C
 3 - salinity, kg/kg
 4 - turbulent kinetic energy, m**2/s**2
 5 - dissipation rate, m**2/s**3
 6 - kinematic heat conductance, m**2/s
 7 - modulus of horizontal velocity, m/s
 8 - Richardson number, n/d
   -0.000000    0.00000  0.0000E+00  0.1219E-13  0.7604E-17  0.1000E-09  0.0000E+00  0.1235E+17
   -0.068738    0.19009  0.0000E+00  0.1219E-13  0.7604E-17  0.1000E-09  0.0000E+00  0.1111E+17
   -0.137477    0.37014  0.0000E+00  0.1219E-13  0.7604E-17  0.1000E-09  0.0000E+00  0.9868E+16
   -0.206217    0.53851  0.0000E+00  0.1219E-13  0.7604E-17  0.1000E-09  0.0000E+00  0.8658E+16
   -0.274957    0.69376  0.0000E+00  0.1219E-13  0.7604E-17  0.1000E-09  0.0000E+00  0.7601E+16
   -0.343698    0.83671  0.0000E+00  0.1219E-13  0.7604E-17  0.1000E-09  0.0000E+00  0.6621E+16
   -0.412439    0.96706  0.0000E+00  0.1219E-13  0.7604E-17  0.1000E-09  0.0000E+00  0.5717E+16
   -0.481181    1.08455  0.0000E+00  0.1219E-13  0.7604E-17  0.1000E-09  0.0000E+00  0.4882E+16
   -0.549923    1.18898  0.0000E+00  0.1219E-13  0.7604E-17  0.1000E-09  0.0000E+00  0.4084E+16
   -0.618666    1.27958  0.0000E+00  0.1219E-13  0.7604E-17  0.1000E-09  0.0000E+00  0.3383E+16
   -0.687409    1.35712  0.0000E+00  0.1219E-13  0.7604E-17  0.1000E-09  0.0000E+00  0.2964E+16
   -0.756152    1.42707  0.0000E+00  0.1219E-13  0.7604E-17  0.1000E-09  0.0000E+00  0.2743E+16
   -0.824896    1.49364  0.0000E+00  0.1219E-13  0.7604E-17  0.1000E-09  0.0000E+00  0.2602E+16
   -0.893640    1.55854  0.0000E+00  0.1219E-13  0.7604E-17  0.1000E-09  0.0000E+00  0.2534E+16
   -0.962384    1.62350  0.0000E+00  0.1219E-13  0.7604E-17  0.1000E-09  0.0000E+00  0.2527E+16
   -1.031129    1.69022  0.0000E+00  0.1219E-13  0.7604E-17  0.1000E-09  0.0000E+00  0.2590E+16
   -1.099873    1.76075  0.0000E+00  0.1219E-13  0.7604E-17  0.1000E-09  0.0000E+00  0.2685E+16
   -1.168618    1.83639  0.0000E+00  0.1219E-13  0.7604E-17  0.1000E-09  0.0000E+00  0.2790E+16
   -1.237363    1.91803  0.0000E+00  0.1219E-13  0.7604E-17  0.1000E-09  0.0000E+00  0.2887E+16
   -1.306107    2.00617  0.0000E+00  0.1219E-13  0.7604E-17  0.1000E-09  0.0000E+00  0.2957E+16
   -1.374852    2.10086  0.0000E+00  0.1219E-13  0.7604E-17  0.1000E-09  0.0000E+00  0.3049E+16
   -1.443597    2.20391  0.0000E+00  0.1219E-13  0.7604E-17  0.1000E-09  0.0000E+00  0.3097E+16
   -1.512342    2.31528  0.0000E+00  0.1219E-13  0.7604E-17  0.1000E-09  0.0000E+00  0.3085E+16
   -1.581087    2.43438  0.0000E+00  0.1219E-13  0.7604E-17  0.1000E-09  0.0000E+00  0.3002E+16
   -1.649832    2.56006  0.0000E+00  0.1219E-13  0.7604E-17  0.1000E-09  0.0000E+00  0.2844E+16
   -1.718576    2.69059  0.0000E+00  0.1219E-13  0.7604E-17  0.1000E-09  0.0000E+00  0.2621E+16
   -1.787321    2.82407  0.0000E+00  0.1219E-13  0.7604E-17  0.1000E-09  0.0000E+00  0.2347E+16
   -1.856065    2.95853  0.0000E+00  0.1899E-13  0.7833E-17  0.1000E-09  0.0000E+00  0.2041E+16
   -1.924809    3.09204  0.0000E+00  0.7697E-13  0.2771E-16  0.1000E-09  0.0000E+00  0.1721E+16
   -1.993552    3.22286  0.0000E+00  0.3180E-12  0.1092E-15  0.1000E-09  0.0000E+00  0.1404E+16
   -2.062296    3.34951  0.0000E+00  0.1283E-11  0.4238E-15  0.1000E-09  0.0000E+00  0.1112E+16
   -2.131039    3.47170  0.0000E+00  0.5072E-11  0.1612E-14  0.1000E-09  0.0000E+00  0.8439E+15
   -2.199781    3.58899  0.0000E+00  0.1965E-10  0.6018E-14  0.1000E-09  0.0000E+00  0.6042E+15
   -2.268524    3.70145  0.0000E+00  0.7539E-10  0.2226E-13  0.2812E-09  0.0000E+00  0.3993E+15
   -2.337265    3.81206  0.0000E+00  0.2883E-09  0.8221E-13  0.1993E-08  0.0000E+00  0.2067E+15
   -2.406007    3.92281  0.0000E+00  0.1066E-08  0.2952E-12  0.4977E-07  0.0000E+00  0.2726E+14
   -2.474748    4.01017  0.0000E+00  0.2804E-08  0.7951E-12  0.3434E-05  0.0000E+00 -0.2201E+13
   -2.543488    4.01547  0.0000E+00  0.3730E-08  0.1333E-11  0.3389E-05  0.0000E+00 -0.3384E+13
   -2.612227    4.02212  0.0000E+00  0.4592E-08  0.2636E-11  0.2433E-05  0.0000E+00 -0.8389E+13
   -2.680966    4.03483  0.0000E+00  0.5713E-08  0.8525E-11  0.1148E-05  0.0000E+00 -0.5618E+14
   -2.749705    4.08395  0.0000E+00  0.0000E+00  0.0000E+00  0.0000E+00  0.0000E+00  0.0000E+00
