 1 - depth, m
 2 - temperature, C
 3 - salinity, kg/kg
 4 - turbulent kinetic energy, m**2/s**2
 5 - dissipation rate, m**2/s**3
 6 - kinematic heat conductance, m**2/s
 7 - modulus of horizontal velocity, m/s
 8 - Richardson number, n/d
   -0.000000    9.81889  0.0000E+00  0.1223E-04  0.5687E-06  0.2908E-04  0.1886E-01 -0.9553E-01
   -0.068738    9.84708  0.0000E+00  0.1014E-04  0.1881E-06  0.8567E-04  0.1047E-01 -0.3739E+00
   -0.137477    9.85703  0.0000E+00  0.8782E-05  0.9681E-07  0.1530E-03  0.7333E-02  0.5774E+02
   -0.206217    9.86300  0.0000E+00  0.7859E-05  0.5957E-07  0.2159E-03  0.5553E-02  0.1943E+02
   -0.274957    9.86709  0.0000E+00  0.7256E-05  0.4108E-07  0.2829E-03  0.4422E-02  0.2440E+02
   -0.343698    9.87008  0.0000E+00  0.6829E-05  0.3045E-07  0.3546E-03  0.3621E-02  0.1381E+02
   -0.412439    9.87235  0.0000E+00  0.6513E-05  0.2375E-07  0.4376E-03  0.3028E-02  0.9266E+01
   -0.481181    9.87407  0.0000E+00  0.6282E-05  0.1935E-07  0.5854E-03  0.2578E-02  0.1025E+02
   -0.549923    9.87521  0.0000E+00  0.6134E-05  0.1657E-07  0.7981E-03  0.2244E-02  0.3217E+03
   -0.618665    9.87595  0.0000E+00  0.6041E-05  0.1462E-07  0.8712E-03  0.2012E-02  0.2831E+01
   -0.687408    9.87662  0.0000E+00  0.5972E-05  0.1304E-07  0.9396E-03  0.1801E-02  0.2705E+01
   -0.756152    9.87723  0.0000E+00  0.5922E-05  0.1177E-07  0.1008E-02  0.1615E-02  0.2568E+01
   -0.824895    9.87780  0.0000E+00  0.5886E-05  0.1074E-07  0.1077E-02  0.1451E-02  0.2453E+01
   -0.893639    9.87832  0.0000E+00  0.5861E-05  0.9897E-08  0.1145E-02  0.1305E-02  0.2356E+01
   -0.962383    9.87880  0.0000E+00  0.5844E-05  0.9206E-08  0.1210E-02  0.1176E-02  0.2268E+01
   -1.031127    9.87926  0.0000E+00  0.5833E-05  0.8637E-08  0.1273E-02  0.1062E-02  0.2266E+01
   -1.099872    9.87969  0.0000E+00  0.5825E-05  0.8167E-08  0.1331E-02  0.9585E-03  0.2262E+01
   -1.168617    9.88011  0.0000E+00  0.5818E-05  0.7779E-08  0.1383E-02  0.8644E-03  0.2263E+01
   -1.237361    9.88051  0.0000E+00  0.5811E-05  0.7461E-08  0.1430E-02  0.7787E-03  0.2269E+01
   -1.306106    9.88089  0.0000E+00  0.5803E-05  0.7202E-08  0.1471E-02  0.7004E-03  0.2283E+01
   -1.374851    9.88127  0.0000E+00  0.5792E-05  0.6995E-08  0.1503E-02  0.6289E-03  0.2308E+01
   -1.443596    9.88164  0.0000E+00  0.5778E-05  0.6834E-08  0.1527E-02  0.5634E-03  0.2354E+01
   -1.512341    9.88201  0.0000E+00  0.5760E-05  0.6715E-08  0.1542E-02  0.5035E-03  0.2385E+01
   -1.581085    9.88237  0.0000E+00  0.5740E-05  0.6634E-08  0.1547E-02  0.4502E-03  0.2449E+01
   -1.649830    9.88273  0.0000E+00  0.5716E-05  0.6589E-08  0.1542E-02  0.4035E-03  0.2571E+01
   -1.718574    9.88310  0.0000E+00  0.5690E-05  0.6577E-08  0.1529E-02  0.3627E-03  0.2751E+01
   -1.787319    9.88347  0.0000E+00  0.5661E-05  0.6597E-08  0.1508E-02  0.3269E-03  0.3002E+01
   -1.856063    9.88385  0.0000E+00  0.5630E-05  0.6646E-08  0.1480E-02  0.2956E-03  0.3346E+01
   -1.924807    9.88424  0.0000E+00  0.5597E-05  0.6725E-08  0.1445E-02  0.2680E-03  0.3810E+01
   -1.993550    9.88465  0.0000E+00  0.5561E-05  0.6836E-08  0.1405E-02  0.2436E-03  0.4445E+01
   -2.062294    9.88506  0.0000E+00  0.5523E-05  0.6983E-08  0.1360E-02  0.2218E-03  0.5360E+01
   -2.131037    9.88550  0.0000E+00  0.5479E-05  0.7176E-08  0.1306E-02  0.2015E-03  0.6640E+01
   -2.199779    9.88595  0.0000E+00  0.5428E-05  0.7430E-08  0.1242E-02  0.1819E-03  0.8527E+01
   -2.268521    9.88644  0.0000E+00  0.5369E-05  0.7769E-08  0.1166E-02  0.1626E-03  0.1126E+02
   -2.337263    9.88695  0.0000E+00  0.5298E-05  0.8240E-08  0.1076E-02  0.1440E-03  0.1602E+02
   -2.406004    9.88752  0.0000E+00  0.5211E-05  0.8920E-08  0.9696E-03  0.1260E-03  0.2489E+02
   -2.474745    9.88816  0.0000E+00  0.5101E-05  0.9957E-08  0.8449E-03  0.1086E-03  0.4333E+02
   -2.543485    9.88890  0.0000E+00  0.4952E-05  0.1173E-07  0.6817E-03  0.9144E-04  0.9163E+02
   -2.612225    9.88983  0.0000E+00  0.4721E-05  0.1546E-07  0.5368E-03  0.7451E-04  0.2515E+03
   -2.680964    9.89104  0.0000E+00  0.3047E-05  0.5691E-07  0.2519E-04  0.5958E-04 -0.2434E+05
   -2.749702    9.91831  0.0000E+00  0.0000E+00  0.0000E+00  0.0000E+00  0.5956E-04  0.0000E+00
