 1 - depth, m
 2 - temperature, C
 3 - salinity, kg/kg
 4 - turbulent kinetic energy, m**2/s**2
 5 - dissipation rate, m**2/s**3
 6 - kinematic heat conductance, m**2/s
 7 - modulus of horizontal velocity, m/s
 8 - Richardson number, n/d
   -0.000000   10.95971  0.0000E+00  0.3403E-03  0.1801E-03  0.1057E-03  0.1858E+00  0.5416E-02
   -0.068755   10.98467  0.0000E+00  0.1871E-03  0.4811E-04  0.2857E-03  0.5618E-01 -0.3447E-01
   -0.137511   10.98889  0.0000E+00  0.1368E-03  0.2218E-04  0.2655E-03  0.4354E-01 -0.7778E-02
   -0.206267   10.99183  0.0000E+00  0.1042E-03  0.1114E-04  0.2648E-03  0.3657E-01 -0.1068E-01
   -0.275025   10.99395  0.0000E+00  0.8278E-04  0.5941E-05  0.2702E-03  0.3178E-01 -0.1209E-01
   -0.343782   10.99568  0.0000E+00  0.6787E-04  0.3323E-05  0.2836E-03  0.2770E-01 -0.1462E-01
   -0.412540   10.99714  0.0000E+00  0.5716E-04  0.1964E-05  0.3003E-03  0.2423E-01 -0.1786E-01
   -0.481299   10.99840  0.0000E+00  0.4919E-04  0.1236E-05  0.3186E-03  0.2126E-01 -0.2234E-01
   -0.550058   10.99952  0.0000E+00  0.4299E-04  0.8249E-06  0.3400E-03  0.1871E-01 -0.2926E-01
   -0.618817   11.00052  0.0000E+00  0.3809E-04  0.5794E-06  0.3608E-03  0.1654E-01 -0.3787E-01
   -0.687577   11.00144  0.0000E+00  0.3412E-04  0.4239E-06  0.3817E-03  0.1468E-01 -0.4847E-01
   -0.756337   11.00227  0.0000E+00  0.3083E-04  0.3202E-06  0.4036E-03  0.1308E-01 -0.1020E-01
   -0.825098   11.00305  0.0000E+00  0.2805E-04  0.2481E-06  0.4280E-03  0.1168E-01  0.8719E+01
   -0.893858   11.00376  0.0000E+00  0.2568E-04  0.1964E-06  0.4662E-03  0.1046E-01  0.6153E+01
   -0.962619   11.00441  0.0000E+00  0.2366E-04  0.1584E-06  0.5190E-03  0.9400E-02  0.1031E+02
   -1.031381   11.00501  0.0000E+00  0.2192E-04  0.1300E-06  0.5575E-03  0.8474E-02  0.6406E+01
   -1.100142   11.00556  0.0000E+00  0.2041E-04  0.1082E-06  0.6030E-03  0.7639E-02  0.5623E+03
   -1.168904   11.00607  0.0000E+00  0.1908E-04  0.9124E-07  0.6452E-03  0.6885E-02  0.1266E+03
   -1.237665   11.00656  0.0000E+00  0.1790E-04  0.7778E-07  0.6795E-03  0.6202E-02  0.1629E+01
   -1.306427   11.00702  0.0000E+00  0.1683E-04  0.6695E-07  0.7122E-03  0.5579E-02  0.4882E+01
   -1.375189   11.00746  0.0000E+00  0.1587E-04  0.5810E-07  0.7446E-03  0.5009E-02  0.1546E+01
   -1.443950   11.00788  0.0000E+00  0.1498E-04  0.5078E-07  0.7770E-03  0.4484E-02  0.1916E+03
   -1.512712   11.00829  0.0000E+00  0.1415E-04  0.4465E-07  0.8173E-03  0.3999E-02  0.1159E+02
   -1.581474   11.00869  0.0000E+00  0.1339E-04  0.3947E-07  0.8496E-03  0.3562E-02  0.2371E+01
   -1.650235   11.00907  0.0000E+00  0.1268E-04  0.3509E-07  0.8835E-03  0.3170E-02  0.6195E+02
   -1.718996   11.00944  0.0000E+00  0.1202E-04  0.3140E-07  0.9221E-03  0.2820E-02  0.2275E+03
   -1.787758   11.00979  0.0000E+00  0.1142E-04  0.2828E-07  0.9763E-03  0.2506E-02  0.8385E+02
   -1.856519   11.01013  0.0000E+00  0.1087E-04  0.2565E-07  0.1032E-02  0.2223E-02  0.4061E+01
   -1.925279   11.01045  0.0000E+00  0.1036E-04  0.2345E-07  0.1084E-02  0.1968E-02  0.4320E+02
   -1.994040   11.01076  0.0000E+00  0.9890E-05  0.2162E-07  0.1137E-02  0.1736E-02  0.1853E+02
   -2.062800   11.01105  0.0000E+00  0.9457E-05  0.2013E-07  0.1170E-02  0.1526E-02  0.9239E+02
   -2.131560   11.01134  0.0000E+00  0.9057E-05  0.1896E-07  0.1197E-02  0.1333E-02  0.1610E+03
   -2.200319   11.01162  0.0000E+00  0.8689E-05  0.1809E-07  0.1204E-02  0.1156E-02  0.1621E+03
   -2.269078   11.01190  0.0000E+00  0.8349E-05  0.1752E-07  0.1183E-02  0.9926E-03  0.2031E+03
   -2.337837   11.01218  0.0000E+00  0.8028E-05  0.1729E-07  0.1121E-02  0.8469E-03  0.1909E+03
   -2.406595   11.01248  0.0000E+00  0.7725E-05  0.1743E-07  0.1021E-02  0.7194E-03  0.1066E+04
   -2.475353   11.01281  0.0000E+00  0.7429E-05  0.1810E-07  0.8861E-03  0.6088E-03  0.3124E+02
   -2.544110   11.01320  0.0000E+00  0.7089E-05  0.1981E-07  0.6934E-03  0.5097E-03  0.2993E+03
   -2.612866   11.01371  0.0000E+00  0.6572E-05  0.2490E-07  0.3944E-03  0.4101E-03  0.2821E+03
   -2.681622   11.01465  0.0000E+00  0.3823E-05  0.8075E-07  0.2471E-04  0.3000E-03 -0.1548E+05
   -2.750377   11.03057  0.0000E+00  0.0000E+00  0.0000E+00  0.0000E+00  0.2997E-03  0.0000E+00
