 1 - depth, m
 2 - temperature, C
 3 - salinity, kg/kg
 4 - turbulent kinetic energy, m**2/s**2
 5 - dissipation rate, m**2/s**3
 6 - kinematic heat conductance, m**2/s
 7 - modulus of horizontal velocity, m/s
 8 - Richardson number, n/d
   -0.000000    0.00000  0.0000E+00  0.1219E-13  0.7603E-17  0.1000E-09  0.0000E+00  0.1009E+17
   -0.068755    0.15451  0.0000E+00  0.1219E-13  0.7603E-17  0.1000E-09  0.0000E+00  0.9412E+16
   -0.137511    0.30494  0.0000E+00  0.1219E-13  0.7603E-17  0.1000E-09  0.0000E+00  0.8754E+16
   -0.206268    0.45095  0.0000E+00  0.1219E-13  0.7603E-17  0.1000E-09  0.0000E+00  0.8118E+16
   -0.275025    0.59231  0.0000E+00  0.1219E-13  0.7603E-17  0.1000E-09  0.0000E+00  0.7539E+16
   -0.343783    0.72940  0.0000E+00  0.1219E-13  0.7603E-17  0.1000E-09  0.0000E+00  0.6993E+16
   -0.412541    0.86225  0.0000E+00  0.1219E-13  0.7603E-17  0.1000E-09  0.0000E+00  0.6477E+16
   -0.481299    0.99084  0.0000E+00  0.1219E-13  0.7603E-17  0.1000E-09  0.0000E+00  0.5986E+16
   -0.550059    1.11507  0.0000E+00  0.1219E-13  0.7603E-17  0.1000E-09  0.0000E+00  0.5508E+16
   -0.618818    1.23457  0.0000E+00  0.1219E-13  0.7603E-17  0.1000E-09  0.0000E+00  0.5057E+16
   -0.687578    1.34928  0.0000E+00  0.1219E-13  0.7603E-17  0.1000E-09  0.0000E+00  0.4695E+16
   -0.756338    1.46064  0.0000E+00  0.1219E-13  0.7603E-17  0.1000E-09  0.0000E+00  0.4387E+16
   -0.825099    1.56953  0.0000E+00  0.1219E-13  0.7603E-17  0.1000E-09  0.0000E+00  0.4093E+16
   -0.893860    1.67596  0.0000E+00  0.1219E-13  0.7603E-17  0.1000E-09  0.0000E+00  0.3814E+16
   -0.962621    1.77991  0.0000E+00  0.1219E-13  0.7603E-17  0.1000E-09  0.0000E+00  0.3546E+16
   -1.031382    1.88136  0.0000E+00  0.1219E-13  0.7603E-17  0.1000E-09  0.0000E+00  0.3296E+16
   -1.100144    1.98041  0.0000E+00  0.1219E-13  0.7603E-17  0.1000E-09  0.0000E+00  0.3058E+16
   -1.168905    2.07703  0.0000E+00  0.1219E-13  0.7603E-17  0.1000E-09  0.0000E+00  0.2830E+16
   -1.237667    2.17120  0.0000E+00  0.1219E-13  0.7603E-17  0.1000E-09  0.0000E+00  0.2613E+16
   -1.306429    2.26283  0.0000E+00  0.1219E-13  0.7603E-17  0.1000E-09  0.0000E+00  0.2405E+16
   -1.375191    2.35186  0.0000E+00  0.1219E-13  0.7603E-17  0.1000E-09  0.0000E+00  0.2238E+16
   -1.443952    2.43943  0.0000E+00  0.1219E-13  0.7603E-17  0.1000E-09  0.0000E+00  0.2086E+16
   -1.512714    2.52590  0.0000E+00  0.1219E-13  0.7603E-17  0.1000E-09  0.0000E+00  0.1942E+16
   -1.581476    2.61139  0.0000E+00  0.1219E-13  0.7603E-17  0.1000E-09  0.0000E+00  0.1803E+16
   -1.650237    2.69594  0.0000E+00  0.1219E-13  0.7603E-17  0.1000E-09  0.0000E+00  0.1667E+16
   -1.718999    2.77950  0.0000E+00  0.1219E-13  0.7603E-17  0.1000E-09  0.0000E+00  0.1534E+16
   -1.787760    2.86197  0.0000E+00  0.1219E-13  0.7603E-17  0.1000E-09  0.0000E+00  0.1404E+16
   -1.856521    2.94328  0.0000E+00  0.1219E-13  0.7603E-17  0.1000E-09  0.0000E+00  0.1278E+16
   -1.925282    3.02331  0.0000E+00  0.1219E-13  0.7603E-17  0.1000E-09  0.0000E+00  0.1155E+16
   -1.994043    3.10194  0.0000E+00  0.1219E-13  0.7603E-17  0.1000E-09  0.0000E+00  0.1035E+16
   -2.062803    3.17905  0.0000E+00  0.1219E-13  0.7603E-17  0.1000E-09  0.0000E+00  0.9422E+15
   -2.131563    3.25635  0.0000E+00  0.1219E-13  0.7603E-17  0.1000E-09  0.0000E+00  0.8522E+15
   -2.200322    3.33422  0.0000E+00  0.1219E-13  0.7603E-17  0.1000E-09  0.0000E+00  0.7616E+15
   -2.269082    3.41279  0.0000E+00  0.1219E-13  0.7666E-17  0.1000E-09  0.0000E+00  0.6822E+15
   -2.337840    3.49381  0.0000E+00  0.3190E-13  0.3629E-16  0.1000E-09  0.0000E+00  0.6034E+15
   -2.406598    3.57880  0.0000E+00  0.2934E-12  0.3371E-15  0.1000E-09  0.0000E+00  0.5179E+15
   -2.475356    3.66959  0.0000E+00  0.2844E-11  0.3253E-14  0.1000E-09  0.0000E+00  0.4194E+15
   -2.544113    3.76953  0.0000E+00  0.2835E-10  0.3261E-13  0.4731E-09  0.0000E+00  0.2917E+15
   -2.612870    3.88707  0.0000E+00  0.2928E-09  0.3463E-12  0.1428E-07  0.0000E+00  0.6288E+14
   -2.681626    4.02910  0.0000E+00  0.2785E-08  0.4045E-11  0.6391E-06  0.0000E+00 -0.5668E+14
   -2.750381    4.08157  0.0000E+00  0.0000E+00  0.0000E+00  0.0000E+00  0.0000E+00  0.0000E+00
