 1 - depth, m
 2 - temperature, C
 3 - salinity, kg/kg
 4 - turbulent kinetic energy, m**2/s**2
 5 - dissipation rate, m**2/s**3
 6 - kinematic heat conductance, m**2/s
 7 - modulus of horizontal velocity, m/s
 8 - Richardson number, n/d
   -0.000000   14.34265  0.0000E+00  0.9462E-04  0.3248E-04  0.7956E-04  0.8165E-01 -0.1449E-01
   -0.068808   14.36468  0.0000E+00  0.5113E-04  0.7354E-05  0.1037E-03  0.3201E-01 -0.2429E-01
   -0.137617   14.37008  0.0000E+00  0.3659E-04  0.2735E-05  0.1170E-03  0.2383E-01 -0.2846E-01
   -0.206426   14.37379  0.0000E+00  0.2809E-04  0.1194E-05  0.1378E-03  0.1900E-01 -0.4586E-01
   -0.275236   14.37655  0.0000E+00  0.2301E-04  0.5948E-06  0.1617E-03  0.1563E-01 -0.6276E-01
   -0.344046   14.37876  0.0000E+00  0.1967E-04  0.3351E-06  0.1883E-03  0.1298E-01 -0.8271E-01
   -0.412857   14.38057  0.0000E+00  0.1729E-04  0.2100E-06  0.2180E-03  0.1087E-01 -0.1024E+00
   -0.481669   14.38207  0.0000E+00  0.1545E-04  0.1426E-06  0.2631E-03  0.9166E-02 -0.4299E-02
   -0.550481   14.38332  0.0000E+00  0.1395E-04  0.1025E-06  0.3510E-03  0.7773E-02  0.1031E+02
   -0.619293   14.38434  0.0000E+00  0.1270E-04  0.7682E-07  0.3899E-03  0.6662E-02  0.1821E+01
   -0.688106   14.38524  0.0000E+00  0.1166E-04  0.5942E-07  0.4371E-03  0.5741E-02  0.2158E+01
   -0.756919   14.38604  0.0000E+00  0.1079E-04  0.4715E-07  0.4916E-03  0.4978E-02  0.5453E+01
   -0.825732   14.38675  0.0000E+00  0.1007E-04  0.3822E-07  0.5605E-03  0.4342E-02  0.1617E+02
   -0.894546   14.38738  0.0000E+00  0.9468E-05  0.3162E-07  0.6480E-03  0.3811E-02  0.8913E+01
   -0.963360   14.38793  0.0000E+00  0.8980E-05  0.2670E-07  0.7756E-03  0.3370E-02  0.3892E+02
   -1.032174   14.38838  0.0000E+00  0.8595E-05  0.2304E-07  0.9213E-03  0.3005E-02  0.1128E+03
   -1.100988   14.38875  0.0000E+00  0.8288E-05  0.2027E-07  0.1070E-02  0.2695E-02  0.5926E+02
   -1.169802   14.38906  0.0000E+00  0.8041E-05  0.1812E-07  0.1180E-02  0.2426E-02  0.6228E+02
   -1.238617   14.38933  0.0000E+00  0.7837E-05  0.1640E-07  0.1251E-02  0.2183E-02  0.2892E+02
   -1.307432   14.38958  0.0000E+00  0.7661E-05  0.1499E-07  0.1288E-02  0.1961E-02  0.2463E+01
   -1.376246   14.38983  0.0000E+00  0.7507E-05  0.1382E-07  0.1312E-02  0.1754E-02  0.2486E+01
   -1.445061   14.39008  0.0000E+00  0.7367E-05  0.1284E-07  0.1332E-02  0.1561E-02  0.2514E+01
   -1.513875   14.39034  0.0000E+00  0.7239E-05  0.1203E-07  0.1357E-02  0.1379E-02  0.2340E+01
   -1.582690   14.39060  0.0000E+00  0.7118E-05  0.1136E-07  0.1384E-02  0.1214E-02  0.2123E+01
   -1.651504   14.39086  0.0000E+00  0.7004E-05  0.1083E-07  0.1409E-02  0.1067E-02  0.1940E+01
   -1.720318   14.39112  0.0000E+00  0.6897E-05  0.1041E-07  0.1428E-02  0.9357E-03  0.1784E+01
   -1.789132   14.39138  0.0000E+00  0.6794E-05  0.1011E-07  0.1438E-02  0.8200E-03  0.1645E+01
   -1.857946   14.39165  0.0000E+00  0.6696E-05  0.9913E-08  0.1428E-02  0.7182E-03  0.1517E+01
   -1.926760   14.39193  0.0000E+00  0.6603E-05  0.9813E-08  0.1402E-02  0.6293E-03  0.1407E+01
   -1.995573   14.39222  0.0000E+00  0.6513E-05  0.9804E-08  0.1363E-02  0.5520E-03  0.1345E+01
   -2.064386   14.39252  0.0000E+00  0.6426E-05  0.9884E-08  0.1314E-02  0.4847E-03  0.1329E+01
   -2.133199   14.39285  0.0000E+00  0.6342E-05  0.1005E-07  0.1258E-02  0.4261E-03  0.1361E+01
   -2.202011   14.39320  0.0000E+00  0.6260E-05  0.1031E-07  0.1195E-02  0.3747E-03  0.1484E+01
   -2.270823   14.39358  0.0000E+00  0.6178E-05  0.1068E-07  0.1129E-02  0.3293E-03  0.1732E+01
   -2.339635   14.39399  0.0000E+00  0.6087E-05  0.1121E-07  0.1052E-02  0.2899E-03  0.2386E+01
   -2.408446   14.39444  0.0000E+00  0.5980E-05  0.1201E-07  0.9549E-03  0.2530E-03  0.3682E+01
   -2.477256   14.39496  0.0000E+00  0.5847E-05  0.1326E-07  0.8368E-03  0.2174E-03  0.6402E+01
   -2.546066   14.39556  0.0000E+00  0.5669E-05  0.1545E-07  0.6802E-03  0.1828E-03  0.1350E+02
   -2.614875   14.39632  0.0000E+00  0.5394E-05  0.2012E-07  0.5362E-03  0.1489E-03  0.3789E+02
   -2.683684   14.39733  0.0000E+00  0.3474E-05  0.7084E-07  0.2751E-04  0.1191E-03 -0.3611E+04
   -2.752492   14.41909  0.0000E+00  0.0000E+00  0.0000E+00  0.0000E+00  0.1190E-03  0.0000E+00
