 1 - depth, m
 2 - temperature, C
 3 - salinity, kg/kg
 4 - turbulent kinetic energy, m**2/s**2
 5 - dissipation rate, m**2/s**3
 6 - kinematic heat conductance, m**2/s
 7 - modulus of horizontal velocity, m/s
 8 - Richardson number, n/d
   -0.000000    0.00000  0.0000E+00  0.1219E-13  0.7603E-17  0.1000E-09  0.0000E+00  0.1208E+17
   -0.068736    0.18589  0.0000E+00  0.1219E-13  0.7603E-17  0.1000E-09  0.0000E+00  0.1114E+17
   -0.137472    0.36622  0.0000E+00  0.1219E-13  0.7603E-17  0.1000E-09  0.0000E+00  0.1022E+17
   -0.206210    0.54047  0.0000E+00  0.1219E-13  0.7603E-17  0.1000E-09  0.0000E+00  0.9329E+16
   -0.274947    0.70817  0.0000E+00  0.1219E-13  0.7603E-17  0.1000E-09  0.0000E+00  0.8576E+16
   -0.343686    0.87075  0.0000E+00  0.1219E-13  0.7603E-17  0.1000E-09  0.0000E+00  0.7875E+16
   -0.412425    1.02833  0.0000E+00  0.1219E-13  0.7603E-17  0.1000E-09  0.0000E+00  0.7212E+16
   -0.481164    1.18082  0.0000E+00  0.1219E-13  0.7603E-17  0.1000E-09  0.0000E+00  0.6578E+16
   -0.549904    1.32787  0.0000E+00  0.1219E-13  0.7603E-17  0.1000E-09  0.0000E+00  0.5941E+16
   -0.618644    1.46841  0.0000E+00  0.1219E-13  0.7603E-17  0.1000E-09  0.0000E+00  0.5352E+16
   -0.687384    1.60240  0.0000E+00  0.2685E-13  0.7603E-17  0.1000E-09  0.0000E+00  0.4916E+16
   -0.756125    1.73279  0.0000E+00  0.9071E-13  0.1088E-16  0.1000E-09  0.0000E+00  0.4574E+16
   -0.824866    1.86157  0.0000E+00  0.2262E-12  0.2209E-16  0.1000E-09  0.0000E+00  0.4255E+16
   -0.893608    1.98906  0.0000E+00  0.5072E-12  0.4654E-16  0.1000E-09  0.0000E+00  0.3955E+16
   -0.962350    2.11562  0.0000E+00  0.1095E-11  0.9736E-16  0.1000E-09  0.0000E+00  0.3672E+16
   -1.031091    2.24159  0.0000E+00  0.2324E-11  0.2014E-15  0.1000E-09  0.0000E+00  0.3422E+16
   -1.099834    2.36805  0.0000E+00  0.4874E-11  0.4128E-15  0.1000E-09  0.0000E+00  0.3181E+16
   -1.168576    2.49548  0.0000E+00  0.1014E-10  0.8393E-15  0.1000E-09  0.0000E+00  0.2945E+16
   -1.237318    2.62433  0.0000E+00  0.2093E-10  0.1694E-14  0.1000E-09  0.0000E+00  0.2711E+16
   -1.306061    2.75506  0.0000E+00  0.4292E-10  0.3398E-14  0.1000E-09  0.0000E+00  0.2474E+16
   -1.374803    2.88814  0.0000E+00  0.8738E-10  0.6768E-14  0.1000E-09  0.0000E+00  0.2269E+16
   -1.443545    3.02662  0.0000E+00  0.1767E-09  0.1340E-13  0.1000E-09  0.0000E+00  0.2047E+16
   -1.512288    3.17184  0.0000E+00  0.3556E-09  0.2638E-13  0.1000E-09  0.0000E+00  0.1785E+16
   -1.581030    3.32441  0.0000E+00  0.7144E-09  0.5188E-13  0.1793E-09  0.0000E+00  0.1473E+16
   -1.649772    3.48458  0.0000E+00  0.1428E-08  0.1016E-12  0.4686E-09  0.0000E+00  0.1104E+16
   -1.718514    3.65202  0.0000E+00  0.2839E-08  0.1978E-12  0.1492E-08  0.0000E+00  0.6754E+15
   -1.787256    3.82546  0.0000E+00  0.5588E-08  0.3816E-12  0.9618E-08  0.0000E+00  0.2023E+15
   -1.855998    3.99568  0.0000E+00  0.6238E-08  0.4282E-12  0.3143E-04  0.0000E+00 -0.1195E+12
   -1.924740    3.99646  0.0000E+00  0.6550E-08  0.4559E-12  0.3312E-04  0.0000E+00 -0.1329E+12
   -1.993481    3.99727  0.0000E+00  0.6829E-08  0.4866E-12  0.3455E-04  0.0000E+00 -0.1419E+12
   -2.062222    3.99807  0.0000E+00  0.7077E-08  0.5209E-12  0.3489E-04  0.0000E+00 -0.1521E+12
   -2.130962    3.99887  0.0000E+00  0.7292E-08  0.5600E-12  0.3446E-04  0.0000E+00 -0.1656E+12
   -2.199702    3.99968  0.0000E+00  0.7473E-08  0.6055E-12  0.3330E-04  0.0000E+00 -0.1839E+12
   -2.268442    4.00054  0.0000E+00  0.7618E-08  0.6607E-12  0.3142E-04  0.0000E+00 -0.2099E+12
   -2.337181    4.00145  0.0000E+00  0.7723E-08  0.7327E-12  0.2865E-04  0.0000E+00 -0.2491E+12
   -2.405920    4.00246  0.0000E+00  0.7778E-08  0.8326E-12  0.2491E-04  0.0000E+00 -0.3129E+12
   -2.474659    4.00366  0.0000E+00  0.7759E-08  0.9852E-12  0.2011E-04  0.0000E+00 -0.4305E+12
   -2.543396    4.00518  0.0000E+00  0.7614E-08  0.1262E-11  0.1418E-04  0.0000E+00 -0.7063E+12
   -2.612133    4.00743  0.0000E+00  0.7166E-08  0.1960E-11  0.7212E-05  0.0000E+00 -0.1777E+13
   -2.680870    4.01225  0.0000E+00  0.5365E-08  0.5988E-11  0.1112E-05  0.0000E+00 -0.2530E+14
   -2.749606    4.04880  0.0000E+00  0.0000E+00  0.0000E+00  0.0000E+00  0.0000E+00  0.0000E+00
