 1 - depth, m
 2 - temperature, C
 3 - salinity, kg/kg
 4 - turbulent kinetic energy, m**2/s**2
 5 - dissipation rate, m**2/s**3
 6 - kinematic heat conductance, m**2/s
 7 - modulus of horizontal velocity, m/s
 8 - Richardson number, n/d
   -0.000000    2.06253  0.0000E+00  0.1012E-02  0.1769E-02  0.1468E-03  0.3900E+00 -0.5559E-02
   -0.068745    2.16514  0.0000E+00  0.5338E-03  0.4614E-03  0.5676E-03  0.1059E+00  0.5765E+00
   -0.137490    2.18701  0.0000E+00  0.3936E-03  0.2335E-03  0.5009E-03  0.8097E-01  0.2526E-01
   -0.206236    2.20065  0.0000E+00  0.2975E-03  0.1280E-03  0.4785E-03  0.6835E-01  0.2708E-01
   -0.274983    2.20994  0.0000E+00  0.2338E-03  0.6979E-04  0.4518E-03  0.6042E-01  0.5702E-02
   -0.343730    2.21734  0.0000E+00  0.1868E-03  0.3823E-04  0.4487E-03  0.5277E-01  0.1993E-01
   -0.412478    2.22295  0.0000E+00  0.1528E-03  0.2051E-04  0.4531E-03  0.4644E-01 -0.2643E+00
   -0.481226    2.22792  0.0000E+00  0.1290E-03  0.1170E-04  0.4620E-03  0.4087E-01  0.7522E-02
   -0.549975    2.23222  0.0000E+00  0.1109E-03  0.6836E-05  0.4773E-03  0.3603E-01  0.8562E-02
   -0.618724    2.23607  0.0000E+00  0.9696E-04  0.4159E-05  0.4934E-03  0.3212E-01  0.1009E-01
   -0.687473    2.23962  0.0000E+00  0.8598E-04  0.2675E-05  0.5121E-03  0.2881E-01  0.1267E-01
   -0.756223    2.24290  0.0000E+00  0.7723E-04  0.1829E-05  0.5317E-03  0.2599E-01  0.1643E-01
   -0.824973    2.24593  0.0000E+00  0.7007E-04  0.1320E-05  0.5507E-03  0.2357E-01  0.2102E-01
   -0.893723    2.24877  0.0000E+00  0.6410E-04  0.9971E-06  0.5693E-03  0.2148E-01  0.2671E-01
   -0.962474    2.25144  0.0000E+00  0.5907E-04  0.7803E-06  0.5880E-03  0.1964E-01  0.3408E-01
   -1.031225    2.25394  0.0000E+00  0.5481E-04  0.6284E-06  0.6005E-03  0.1802E-01  0.3916E-01
   -1.099976    2.25633  0.0000E+00  0.5112E-04  0.5172E-06  0.6119E-03  0.1653E-01  0.4487E-01
   -1.168727    2.25863  0.0000E+00  0.4785E-04  0.4331E-06  0.6218E-03  0.1516E-01  0.5137E-01
   -1.237478    2.26084  0.0000E+00  0.4492E-04  0.3676E-06  0.6296E-03  0.1389E-01  0.5867E-01
   -1.306229    2.26299  0.0000E+00  0.4225E-04  0.3156E-06  0.6347E-03  0.1271E-01  0.6668E-01
   -1.374981    2.26508  0.0000E+00  0.3978E-04  0.2734E-06  0.6365E-03  0.1161E-01  0.7513E-01
   -1.443732    2.26714  0.0000E+00  0.3747E-04  0.2386E-06  0.6341E-03  0.1057E-01  0.8319E-01
   -1.512483    2.26919  0.0000E+00  0.3527E-04  0.2092E-06  0.6356E-03  0.9584E-02  0.1043E+00
   -1.581234    2.27122  0.0000E+00  0.3317E-04  0.1842E-06  0.6365E-03  0.8675E-02  0.1404E+00
   -1.649986    2.27324  0.0000E+00  0.3118E-04  0.1628E-06  0.6341E-03  0.7845E-02  0.1938E+00
   -1.718736    2.27527  0.0000E+00  0.2930E-04  0.1445E-06  0.6287E-03  0.7086E-02  0.2780E+00
   -1.787487    2.27733  0.0000E+00  0.2753E-04  0.1287E-06  0.6208E-03  0.6389E-02  0.4230E+00
   -1.856238    2.27946  0.0000E+00  0.2587E-04  0.1151E-06  0.6105E-03  0.5747E-02  0.7054E+00
   -1.924988    2.28169  0.0000E+00  0.2431E-04  0.1034E-06  0.5978E-03  0.5155E-02  0.1361E+01
   -1.993738    2.28406  0.0000E+00  0.2284E-04  0.9334E-07  0.5828E-03  0.4608E-02  0.3229E+01
   -2.062488    2.28652  0.0000E+00  0.2147E-04  0.8479E-07  0.5650E-03  0.4101E-02  0.1388E+02
   -2.131237    2.28934  0.0000E+00  0.2019E-04  0.7760E-07  0.5440E-03  0.3630E-02  0.1364E+03
   -2.199987    2.29276  0.0000E+00  0.1899E-04  0.7169E-07  0.5193E-03  0.3189E-02  0.3849E+04
   -2.268735    2.29764  0.0000E+00  0.1786E-04  0.6700E-07  0.4951E-03  0.2772E-02  0.8084E+06
   -2.337483    2.30415  0.0000E+00  0.1676E-04  0.6354E-07  0.4651E-03  0.2391E-02  0.3329E+09
   -2.406231    2.31210  0.0000E+00  0.1569E-04  0.6158E-07  0.4260E-03  0.2047E-02  0.2038E+12
   -2.474978    2.32143  0.0000E+00  0.1461E-04  0.6177E-07  0.3749E-03  0.1730E-02  0.6664E+14
   -2.543725    2.33448  0.0000E+00  0.1344E-04  0.6593E-07  0.3060E-03  0.1433E-02  0.2127E+15
   -2.612471    2.35355  0.0000E+00  0.1194E-04  0.8125E-07  0.2067E-03  0.1154E-02  0.5029E+15
   -2.681216    2.38997  0.0000E+00  0.6453E-05  0.2333E-06  0.2395E-04  0.8851E-03  0.8472E+14
   -2.749961    2.44478  0.0000E+00  0.0000E+00  0.0000E+00  0.0000E+00  0.8863E-03  0.0000E+00
