 1 - depth, m
 2 - temperature, C
 3 - salinity, kg/kg
 4 - turbulent kinetic energy, m**2/s**2
 5 - dissipation rate, m**2/s**3
 6 - kinematic heat conductance, m**2/s
 7 - modulus of horizontal velocity, m/s
 8 - Richardson number, n/d
   -0.000000    8.86718  0.0000E+00  0.1441E-04  0.6483E-06  0.3436E-04  0.2046E-01 -0.3761E-01
   -0.068751    8.90753  0.0000E+00  0.1200E-04  0.2242E-06  0.7875E-04  0.1157E-01 -0.1226E+00
   -0.137503    8.92421  0.0000E+00  0.1050E-04  0.1179E-06  0.1425E-03  0.8139E-02  0.9518E+02
   -0.206256    8.93397  0.0000E+00  0.9499E-05  0.7399E-07  0.2313E-03  0.6213E-02  0.7034E+02
   -0.275009    8.94033  0.0000E+00  0.8848E-05  0.5200E-07  0.3177E-03  0.5017E-02  0.1757E+02
   -0.343763    8.94485  0.0000E+00  0.8397E-05  0.3929E-07  0.4126E-03  0.4188E-02  0.2222E+02
   -0.412517    8.94816  0.0000E+00  0.8077E-05  0.3129E-07  0.5545E-03  0.3577E-02  0.5633E+02
   -0.481272    8.95039  0.0000E+00  0.7878E-05  0.2645E-07  0.8089E-03  0.3121E-02  0.2484E+03
   -0.550027    8.95174  0.0000E+00  0.7758E-05  0.2310E-07  0.8798E-03  0.2811E-02  0.3197E+01
   -0.618783    8.95296  0.0000E+00  0.7661E-05  0.2033E-07  0.9643E-03  0.2511E-02  0.3088E+01
   -0.687539    8.95405  0.0000E+00  0.7587E-05  0.1814E-07  0.1048E-02  0.2251E-02  0.2859E+01
   -0.756295    8.95503  0.0000E+00  0.7528E-05  0.1635E-07  0.1133E-02  0.2020E-02  0.2671E+01
   -0.825052    8.95593  0.0000E+00  0.7478E-05  0.1488E-07  0.1212E-02  0.1814E-02  0.2489E+01
   -0.893809    8.95674  0.0000E+00  0.7434E-05  0.1366E-07  0.1286E-02  0.1632E-02  0.2321E+01
   -0.962566    8.95750  0.0000E+00  0.7394E-05  0.1265E-07  0.1358E-02  0.1471E-02  0.2161E+01
   -1.031323    8.95821  0.0000E+00  0.7355E-05  0.1180E-07  0.1419E-02  0.1328E-02  0.2094E+01
   -1.100081    8.95888  0.0000E+00  0.7314E-05  0.1108E-07  0.1477E-02  0.1199E-02  0.2028E+01
   -1.168838    8.95950  0.0000E+00  0.7270E-05  0.1048E-07  0.1531E-02  0.1081E-02  0.1959E+01
   -1.237596    8.96010  0.0000E+00  0.7223E-05  0.9967E-08  0.1582E-02  0.9732E-03  0.1893E+01
   -1.306354    8.96066  0.0000E+00  0.7170E-05  0.9537E-08  0.1627E-02  0.8751E-03  0.1826E+01
   -1.375112    8.96120  0.0000E+00  0.7113E-05  0.9178E-08  0.1667E-02  0.7854E-03  0.1761E+01
   -1.443870    8.96172  0.0000E+00  0.7051E-05  0.8882E-08  0.1702E-02  0.7034E-03  0.1699E+01
   -1.512628    8.96221  0.0000E+00  0.6984E-05  0.8644E-08  0.1733E-02  0.6282E-03  0.1601E+01
   -1.581385    8.96269  0.0000E+00  0.6913E-05  0.8460E-08  0.1748E-02  0.5613E-03  0.1498E+01
   -1.650143    8.96316  0.0000E+00  0.6840E-05  0.8325E-08  0.1739E-02  0.5025E-03  0.1411E+01
   -1.718901    8.96362  0.0000E+00  0.6765E-05  0.8237E-08  0.1718E-02  0.4512E-03  0.1335E+01
   -1.787658    8.96408  0.0000E+00  0.6690E-05  0.8191E-08  0.1689E-02  0.4064E-03  0.1283E+01
   -1.856415    8.96454  0.0000E+00  0.6614E-05  0.8186E-08  0.1652E-02  0.3671E-03  0.1249E+01
   -1.925172    8.96500  0.0000E+00  0.6537E-05  0.8222E-08  0.1608E-02  0.3326E-03  0.1256E+01
   -1.993929    8.96547  0.0000E+00  0.6461E-05  0.8299E-08  0.1558E-02  0.3021E-03  0.1298E+01
   -2.062685    8.96595  0.0000E+00  0.6384E-05  0.8421E-08  0.1503E-02  0.2748E-03  0.1400E+01
   -2.131441    8.96644  0.0000E+00  0.6305E-05  0.8595E-08  0.1443E-02  0.2501E-03  0.1594E+01
   -2.200197    8.96694  0.0000E+00  0.6221E-05  0.8840E-08  0.1374E-02  0.2270E-03  0.1967E+01
   -2.268952    8.96745  0.0000E+00  0.6131E-05  0.9183E-08  0.1290E-02  0.2043E-03  0.2494E+01
   -2.337706    8.96799  0.0000E+00  0.6028E-05  0.9680E-08  0.1191E-02  0.1823E-03  0.3418E+01
   -2.406461    8.96857  0.0000E+00  0.5910E-05  0.1042E-07  0.1074E-02  0.1610E-03  0.5068E+01
   -2.475214    8.96921  0.0000E+00  0.5768E-05  0.1157E-07  0.9368E-03  0.1400E-03  0.8398E+01
   -2.543968    8.96992  0.0000E+00  0.5588E-05  0.1356E-07  0.7554E-03  0.1194E-03  0.1670E+02
   -2.612720    8.97081  0.0000E+00  0.5320E-05  0.1780E-07  0.5981E-03  0.9876E-04  0.4254E+02
   -2.681472    8.97193  0.0000E+00  0.3416E-05  0.6648E-07  0.2587E-04  0.8039E-04 -0.4402E+04
   -2.750224    8.99866  0.0000E+00  0.0000E+00  0.0000E+00  0.0000E+00  0.8032E-04  0.0000E+00
