 1 - depth, m
 2 - temperature, C
 3 - salinity, kg/kg
 4 - turbulent kinetic energy, m**2/s**2
 5 - dissipation rate, m**2/s**3
 6 - kinematic heat conductance, m**2/s
 7 - modulus of horizontal velocity, m/s
 8 - Richardson number, n/d
   -0.000000    0.00000  0.0000E+00  0.1219E-13  0.7603E-17  0.1000E-09  0.0000E+00  0.1151E+17
   -0.068738    0.17691  0.0000E+00  0.1219E-13  0.7603E-17  0.1000E-09  0.0000E+00  0.1049E+17
   -0.137477    0.34608  0.0000E+00  0.1219E-13  0.7603E-17  0.1000E-09  0.0000E+00  0.9463E+16
   -0.206217    0.50618  0.0000E+00  0.1219E-13  0.7603E-17  0.1000E-09  0.0000E+00  0.8446E+16
   -0.274957    0.65597  0.0000E+00  0.1219E-13  0.7603E-17  0.1000E-09  0.0000E+00  0.7553E+16
   -0.343698    0.79624  0.0000E+00  0.1219E-13  0.7603E-17  0.1000E-09  0.0000E+00  0.6717E+16
   -0.412439    0.92667  0.0000E+00  0.1219E-13  0.7603E-17  0.1000E-09  0.0000E+00  0.5935E+16
   -0.481181    1.04700  0.0000E+00  0.1219E-13  0.7603E-17  0.1000E-09  0.0000E+00  0.5202E+16
   -0.549923    1.15688  0.0000E+00  0.1219E-13  0.7603E-17  0.1000E-09  0.0000E+00  0.4488E+16
   -0.618666    1.25540  0.0000E+00  0.1219E-13  0.7603E-17  0.1000E-09  0.0000E+00  0.3849E+16
   -0.687409    1.34297  0.0000E+00  0.1219E-13  0.7603E-17  0.1000E-09  0.0000E+00  0.3454E+16
   -0.756152    1.42419  0.0000E+00  0.1219E-13  0.7603E-17  0.1000E-09  0.0000E+00  0.3223E+16
   -0.824896    1.50247  0.0000E+00  0.1219E-13  0.7603E-17  0.1000E-09  0.0000E+00  0.3048E+16
   -0.893640    1.57897  0.0000E+00  0.1219E-13  0.7603E-17  0.1000E-09  0.0000E+00  0.2924E+16
   -0.962384    1.65481  0.0000E+00  0.1219E-13  0.7603E-17  0.1000E-09  0.0000E+00  0.2843E+16
   -1.031128    1.73108  0.0000E+00  0.1219E-13  0.7603E-17  0.1000E-09  0.0000E+00  0.2813E+16
   -1.099873    1.80927  0.0000E+00  0.1219E-13  0.7603E-17  0.1000E-09  0.0000E+00  0.2804E+16
   -1.168618    1.89022  0.0000E+00  0.1219E-13  0.7603E-17  0.1000E-09  0.0000E+00  0.2804E+16
   -1.237362    1.97453  0.0000E+00  0.1219E-13  0.7603E-17  0.1000E-09  0.0000E+00  0.2800E+16
   -1.306107    2.06254  0.0000E+00  0.1219E-13  0.7603E-17  0.1000E-09  0.0000E+00  0.2782E+16
   -1.374852    2.15431  0.0000E+00  0.1219E-13  0.7603E-17  0.1000E-09  0.0000E+00  0.2795E+16
   -1.443597    2.25153  0.0000E+00  0.1219E-13  0.7603E-17  0.1000E-09  0.0000E+00  0.2788E+16
   -1.512342    2.35443  0.0000E+00  0.1219E-13  0.7603E-17  0.1000E-09  0.0000E+00  0.2745E+16
   -1.581087    2.46273  0.0000E+00  0.1219E-13  0.7603E-17  0.1000E-09  0.0000E+00  0.2660E+16
   -1.649831    2.57581  0.0000E+00  0.1219E-13  0.7603E-17  0.1000E-09  0.0000E+00  0.2530E+16
   -1.718576    2.69270  0.0000E+00  0.1219E-13  0.7603E-17  0.1000E-09  0.0000E+00  0.2358E+16
   -1.787320    2.81232  0.0000E+00  0.1219E-13  0.7603E-17  0.1000E-09  0.0000E+00  0.2151E+16
   -1.856064    2.93351  0.0000E+00  0.1220E-13  0.7604E-17  0.1000E-09  0.0000E+00  0.1920E+16
   -1.924808    3.05510  0.0000E+00  0.4725E-13  0.1795E-16  0.1000E-09  0.0000E+00  0.1672E+16
   -1.993552    3.17603  0.0000E+00  0.2003E-12  0.7011E-16  0.1000E-09  0.0000E+00  0.1420E+16
   -2.062295    3.29537  0.0000E+00  0.8162E-12  0.2739E-15  0.1000E-09  0.0000E+00  0.1181E+16
   -2.131038    3.41346  0.0000E+00  0.3248E-11  0.1049E-14  0.1000E-09  0.0000E+00  0.9482E+15
   -2.199781    3.53015  0.0000E+00  0.1267E-10  0.3937E-14  0.1000E-09  0.0000E+00  0.7245E+15
   -2.268523    3.64549  0.0000E+00  0.4887E-10  0.1464E-13  0.1429E-09  0.0000E+00  0.5182E+15
   -2.337265    3.76202  0.0000E+00  0.1881E-09  0.5434E-13  0.8866E-09  0.0000E+00  0.3090E+15
   -2.406006    3.88160  0.0000E+00  0.7120E-09  0.1990E-12  0.1159E-07  0.0000E+00  0.8477E+14
   -2.474747    3.99897  0.0000E+00  0.2093E-08  0.5836E-12  0.2392E-05  0.0000E+00 -0.2030E+13
   -2.543487    4.00684  0.0000E+00  0.2984E-08  0.1073E-11  0.2618E-05  0.0000E+00 -0.3368E+13
   -2.612227    4.01551  0.0000E+00  0.3892E-08  0.2275E-11  0.2010E-05  0.0000E+00 -0.8652E+13
   -2.680966    4.03056  0.0000E+00  0.5151E-08  0.7609E-11  0.1056E-05  0.0000E+00 -0.5542E+14
   -2.749704    4.08139  0.0000E+00  0.0000E+00  0.0000E+00  0.0000E+00  0.0000E+00  0.0000E+00
