 1 - depth, m
 2 - temperature, C
 3 - salinity, kg/kg
 4 - turbulent kinetic energy, m**2/s**2
 5 - dissipation rate, m**2/s**3
 6 - kinematic heat conductance, m**2/s
 7 - modulus of horizontal velocity, m/s
 8 - Richardson number, n/d
   -0.000000    0.00000  0.0000E+00  0.1219E-13  0.7604E-17  0.1000E-09  0.0000E+00  0.1013E+17
   -0.068797    0.15518  0.0000E+00  0.1219E-13  0.7604E-17  0.1000E-09  0.0000E+00  0.9386E+16
   -0.137595    0.30520  0.0000E+00  0.1219E-13  0.7604E-17  0.1000E-09  0.0000E+00  0.8691E+16
   -0.206393    0.45016  0.0000E+00  0.1219E-13  0.7604E-17  0.1000E-09  0.0000E+00  0.8041E+16
   -0.275192    0.59012  0.0000E+00  0.1219E-13  0.7604E-17  0.1000E-09  0.0000E+00  0.7465E+16
   -0.343991    0.72574  0.0000E+00  0.1219E-13  0.7604E-17  0.1000E-09  0.0000E+00  0.6930E+16
   -0.412791    0.85720  0.0000E+00  0.1219E-13  0.7604E-17  0.1000E-09  0.0000E+00  0.6427E+16
   -0.481592    0.98455  0.0000E+00  0.1219E-13  0.7604E-17  0.1000E-09  0.0000E+00  0.5949E+16
   -0.550392    1.10770  0.0000E+00  0.1219E-13  0.7604E-17  0.1000E-09  0.0000E+00  0.5480E+16
   -0.619194    1.22625  0.0000E+00  0.1219E-13  0.7604E-17  0.1000E-09  0.0000E+00  0.5038E+16
   -0.687995    1.34014  0.0000E+00  0.1219E-13  0.7604E-17  0.1000E-09  0.0000E+00  0.4685E+16
   -0.756797    1.45085  0.0000E+00  0.1219E-13  0.7604E-17  0.1000E-09  0.0000E+00  0.4386E+16
   -0.825600    1.55928  0.0000E+00  0.1219E-13  0.7604E-17  0.1000E-09  0.0000E+00  0.4100E+16
   -0.894402    1.66540  0.0000E+00  0.1219E-13  0.7604E-17  0.1000E-09  0.0000E+00  0.3826E+16
   -0.963205    1.76920  0.0000E+00  0.1219E-13  0.7604E-17  0.1000E-09  0.0000E+00  0.3564E+16
   -1.032008    1.87063  0.0000E+00  0.1219E-13  0.7604E-17  0.1000E-09  0.0000E+00  0.3319E+16
   -1.100811    1.96983  0.0000E+00  0.1219E-13  0.7604E-17  0.1000E-09  0.0000E+00  0.3085E+16
   -1.169615    2.06678  0.0000E+00  0.1219E-13  0.7604E-17  0.1000E-09  0.0000E+00  0.2860E+16
   -1.238418    2.16143  0.0000E+00  0.1219E-13  0.7604E-17  0.1000E-09  0.0000E+00  0.2646E+16
   -1.307221    2.25372  0.0000E+00  0.1219E-13  0.7604E-17  0.1000E-09  0.0000E+00  0.2441E+16
   -1.376025    2.34358  0.0000E+00  0.1219E-13  0.7604E-17  0.1000E-09  0.0000E+00  0.2277E+16
   -1.444829    2.43223  0.0000E+00  0.1219E-13  0.7604E-17  0.1000E-09  0.0000E+00  0.2128E+16
   -1.513632    2.52002  0.0000E+00  0.1219E-13  0.7604E-17  0.1000E-09  0.0000E+00  0.1985E+16
   -1.582435    2.60708  0.0000E+00  0.1219E-13  0.7604E-17  0.1000E-09  0.0000E+00  0.1846E+16
   -1.651239    2.69343  0.0000E+00  0.1219E-13  0.7604E-17  0.1000E-09  0.0000E+00  0.1709E+16
   -1.720042    2.77897  0.0000E+00  0.1219E-13  0.7604E-17  0.1000E-09  0.0000E+00  0.1574E+16
   -1.788845    2.86364  0.0000E+00  0.1219E-13  0.7604E-17  0.1000E-09  0.0000E+00  0.1441E+16
   -1.857648    2.94731  0.0000E+00  0.1219E-13  0.7604E-17  0.1000E-09  0.0000E+00  0.1311E+16
   -1.926450    3.02988  0.0000E+00  0.1219E-13  0.7604E-17  0.1000E-09  0.0000E+00  0.1184E+16
   -1.995253    3.11121  0.0000E+00  0.1219E-13  0.7604E-17  0.1000E-09  0.0000E+00  0.1060E+16
   -2.064055    3.19115  0.0000E+00  0.1219E-13  0.7604E-17  0.1000E-09  0.0000E+00  0.9615E+15
   -2.132856    3.27148  0.0000E+00  0.1219E-13  0.7604E-17  0.1000E-09  0.0000E+00  0.8655E+15
   -2.201658    3.35255  0.0000E+00  0.1219E-13  0.7604E-17  0.1000E-09  0.0000E+00  0.7678E+15
   -2.270458    3.43446  0.0000E+00  0.1231E-13  0.1135E-16  0.1000E-09  0.0000E+00  0.6800E+15
   -2.339259    3.51895  0.0000E+00  0.8213E-13  0.8233E-16  0.1000E-09  0.0000E+00  0.5909E+15
   -2.408059    3.60751  0.0000E+00  0.7079E-12  0.6975E-15  0.1000E-09  0.0000E+00  0.4928E+15
   -2.476858    3.70188  0.0000E+00  0.6125E-11  0.5950E-14  0.1000E-09  0.0000E+00  0.3784E+15
   -2.545657    3.80530  0.0000E+00  0.5406E-10  0.5225E-13  0.9848E-09  0.0000E+00  0.2283E+15
   -2.614455    3.92568  0.0000E+00  0.4858E-09  0.4795E-12  0.5285E-07  0.0000E+00  0.4640E+13
   -2.683253    4.04188  0.0000E+00  0.3297E-08  0.4955E-11  0.7261E-06  0.0000E+00 -0.6049E+14
   -2.752050    4.09033  0.0000E+00  0.0000E+00  0.0000E+00  0.0000E+00  0.0000E+00  0.0000E+00
