 1 - depth, m
 2 - temperature, C
 3 - salinity, kg/kg
 4 - turbulent kinetic energy, m**2/s**2
 5 - dissipation rate, m**2/s**3
 6 - kinematic heat conductance, m**2/s
 7 - modulus of horizontal velocity, m/s
 8 - Richardson number, n/d
   -0.000000    0.00000  0.0000E+00  0.4259E-03  0.4928E-03  0.1171E-03  0.2585E+00  0.2934E-02
   -0.068757    0.00903  0.0000E+00  0.2282E-03  0.1579E-03  0.2975E-03  0.8002E-01  0.1844E+00
   -0.137515    0.01441  0.0000E+00  0.1606E-03  0.6461E-04  0.2477E-03  0.6037E-01  0.4508E-02
   -0.206274    0.01871  0.0000E+00  0.1163E-03  0.2684E-04  0.2409E-03  0.4897E-01  0.1077E-01
   -0.275033    0.02209  0.0000E+00  0.8979E-04  0.1207E-04  0.2406E-03  0.4159E-01  0.6233E-02
   -0.343792    0.02501  0.0000E+00  0.7208E-04  0.5667E-05  0.2489E-03  0.3517E-01  0.5916E-02
   -0.412552    0.02751  0.0000E+00  0.5999E-04  0.2861E-05  0.2604E-03  0.3000E-01  0.7268E-02
   -0.481313    0.02969  0.0000E+00  0.5128E-04  0.1583E-05  0.2727E-03  0.2584E-01  0.9204E-02
   -0.550074    0.03164  0.0000E+00  0.4451E-04  0.9719E-06  0.2871E-03  0.2238E-01  0.1286E-01
   -0.618836    0.03339  0.0000E+00  0.3917E-04  0.6539E-06  0.2995E-03  0.1959E-01  0.1769E-01
   -0.687598    0.03498  0.0000E+00  0.3477E-04  0.4691E-06  0.3097E-03  0.1728E-01  0.2423E-01
   -0.756360    0.03645  0.0000E+00  0.3104E-04  0.3508E-06  0.3174E-03  0.1533E-01  0.3318E-01
   -0.825122    0.03783  0.0000E+00  0.2780E-04  0.2698E-06  0.3226E-03  0.1366E-01  0.4602E-01
   -0.893885    0.03915  0.0000E+00  0.2497E-04  0.2117E-06  0.3256E-03  0.1222E-01  0.6611E-01
   -0.962648    0.04042  0.0000E+00  0.2249E-04  0.1688E-06  0.3269E-03  0.1096E-01  0.1040E+00
   -1.031411    0.04166  0.0000E+00  0.2034E-04  0.1366E-06  0.3223E-03  0.9860E-02  0.1314E+00
   -1.100175    0.04290  0.0000E+00  0.1843E-04  0.1119E-06  0.3158E-03  0.8861E-02  0.1655E+00
   -1.168938    0.04414  0.0000E+00  0.1672E-04  0.9250E-07  0.3072E-03  0.7946E-02  0.2100E+00
   -1.237702    0.04540  0.0000E+00  0.1518E-04  0.7706E-07  0.2965E-03  0.7104E-02  0.2672E+00
   -1.306466    0.04669  0.0000E+00  0.1376E-04  0.6458E-07  0.2835E-03  0.6326E-02  0.3391E+00
   -1.375229    0.04802  0.0000E+00  0.1245E-04  0.5435E-07  0.2679E-03  0.5602E-02  0.4243E+00
   -1.443993    0.04943  0.0000E+00  0.1122E-04  0.4579E-07  0.2491E-03  0.4921E-02  0.5126E+00
   -1.512757    0.05096  0.0000E+00  0.1005E-04  0.3847E-07  0.2329E-03  0.4268E-02  0.9327E+00
   -1.581521    0.05258  0.0000E+00  0.8929E-05  0.3218E-07  0.2162E-03  0.3676E-02  0.2295E+01
   -1.650284    0.05426  0.0000E+00  0.7883E-05  0.2683E-07  0.1975E-03  0.3152E-02  0.6610E+01
   -1.719048    0.05606  0.0000E+00  0.6910E-05  0.2228E-07  0.1773E-03  0.2685E-02  0.2175E+02
   -1.787811    0.05803  0.0000E+00  0.6010E-05  0.1842E-07  0.1563E-03  0.2269E-02  0.7968E+02
   -1.856574    0.06021  0.0000E+00  0.5180E-05  0.1514E-07  0.1350E-03  0.1898E-02  0.3327E+03
   -1.925337    0.06270  0.0000E+00  0.4421E-05  0.1236E-07  0.1139E-03  0.1568E-02  0.1488E+04
   -1.994099    0.06554  0.0000E+00  0.3736E-05  0.1004E-07  0.9430E-04  0.1277E-02  0.1692E+04
   -2.062861    0.06833  0.0000E+00  0.3117E-05  0.8090E-08  0.7310E-04  0.1025E-02  0.5790E+05
   -2.131623    0.07219  0.0000E+00  0.2555E-05  0.6452E-08  0.5291E-04  0.8041E-03  0.1277E+07
   -2.200385    0.07829  0.0000E+00  0.2031E-05  0.5040E-08  0.3387E-04  0.6080E-03  0.5889E+08
   -2.269146    0.09447  0.0000E+00  0.1537E-05  0.3785E-08  0.1959E-04  0.4149E-03  0.1239E+11
   -2.337906    0.13610  0.0000E+00  0.1070E-05  0.2637E-08  0.7169E-05  0.2620E-03  0.1357E+14
   -2.406667    0.25736  0.0000E+00  0.5653E-06  0.1401E-08  0.3005E-06  0.1392E-03  0.8146E+15
   -2.475426    0.70870  0.0000E+00  0.8990E-07  0.2269E-09  0.2502E-07  0.1784E-04  0.5353E+16
   -2.544185    1.63907  0.0000E+00  0.7559E-08  0.1980E-10  0.3860E-08  0.5808E-06  0.8765E+16
   -2.612944    2.54682  0.0000E+00  0.1213E-08  0.3869E-11  0.1555E-08  0.1088E-07  0.5299E+16
   -2.681702    3.32015  0.0000E+00  0.1535E-07  0.5520E-10  0.1436E-05  0.1283E-09 -0.5927E+14
   -2.750459    3.34310  0.0000E+00  0.0000E+00  0.0000E+00  0.0000E+00  0.1279E-09  0.0000E+00
