 1 - depth, m
 2 - temperature, C
 3 - salinity, kg/kg
 4 - turbulent kinetic energy, m**2/s**2
 5 - dissipation rate, m**2/s**3
 6 - kinematic heat conductance, m**2/s
 7 - modulus of horizontal velocity, m/s
 8 - Richardson number, n/d
   -0.000000    0.00000  0.0000E+00  0.1219E-13  0.7603E-17  0.1000E-09  0.0000E+00  0.1097E+17
   -0.068750    0.16836  0.0000E+00  0.1219E-13  0.7603E-17  0.1000E-09  0.0000E+00  0.1005E+17
   -0.137500    0.32991  0.0000E+00  0.1219E-13  0.7603E-17  0.1000E-09  0.0000E+00  0.9142E+16
   -0.206251    0.48370  0.0000E+00  0.1219E-13  0.7603E-17  0.1000E-09  0.0000E+00  0.8252E+16
   -0.275002    0.62894  0.0000E+00  0.1219E-13  0.7603E-17  0.1000E-09  0.0000E+00  0.7481E+16
   -0.343754    0.76659  0.0000E+00  0.1219E-13  0.7603E-17  0.1000E-09  0.0000E+00  0.6762E+16
   -0.412506    0.89658  0.0000E+00  0.1219E-13  0.7603E-17  0.1000E-09  0.0000E+00  0.6087E+16
   -0.481259    1.01872  0.0000E+00  0.1219E-13  0.7603E-17  0.1000E-09  0.0000E+00  0.5448E+16
   -0.550013    1.13271  0.0000E+00  0.1219E-13  0.7603E-17  0.1000E-09  0.0000E+00  0.4816E+16
   -0.618766    1.23761  0.0000E+00  0.1219E-13  0.7603E-17  0.1000E-09  0.0000E+00  0.4241E+16
   -0.687521    1.33357  0.0000E+00  0.1219E-13  0.7603E-17  0.1000E-09  0.0000E+00  0.3867E+16
   -0.756275    1.42435  0.0000E+00  0.1219E-13  0.7603E-17  0.1000E-09  0.0000E+00  0.3625E+16
   -0.825030    1.51260  0.0000E+00  0.1219E-13  0.7603E-17  0.1000E-09  0.0000E+00  0.3420E+16
   -0.893785    1.59896  0.0000E+00  0.1219E-13  0.7603E-17  0.1000E-09  0.0000E+00  0.3247E+16
   -0.962540    1.68410  0.0000E+00  0.1219E-13  0.7603E-17  0.1000E-09  0.0000E+00  0.3103E+16
   -1.031296    1.76863  0.0000E+00  0.1219E-13  0.7603E-17  0.1000E-09  0.0000E+00  0.2997E+16
   -1.100052    1.85357  0.0000E+00  0.1219E-13  0.7603E-17  0.1000E-09  0.0000E+00  0.2907E+16
   -1.168808    1.93943  0.0000E+00  0.1219E-13  0.7603E-17  0.1000E-09  0.0000E+00  0.2824E+16
   -1.237564    2.02657  0.0000E+00  0.1219E-13  0.7603E-17  0.1000E-09  0.0000E+00  0.2742E+16
   -1.306320    2.11521  0.0000E+00  0.1219E-13  0.7603E-17  0.1000E-09  0.0000E+00  0.2656E+16
   -1.375076    2.20539  0.0000E+00  0.1219E-13  0.7603E-17  0.1000E-09  0.0000E+00  0.2609E+16
   -1.443832    2.29879  0.0000E+00  0.1219E-13  0.7603E-17  0.1000E-09  0.0000E+00  0.2557E+16
   -1.512588    2.39582  0.0000E+00  0.1219E-13  0.7603E-17  0.1000E-09  0.0000E+00  0.2487E+16
   -1.581344    2.49640  0.0000E+00  0.1219E-13  0.7603E-17  0.1000E-09  0.0000E+00  0.2394E+16
   -1.650100    2.60025  0.0000E+00  0.1219E-13  0.7603E-17  0.1000E-09  0.0000E+00  0.2275E+16
   -1.718855    2.70692  0.0000E+00  0.1219E-13  0.7603E-17  0.1000E-09  0.0000E+00  0.2132E+16
   -1.787611    2.81587  0.0000E+00  0.1219E-13  0.7603E-17  0.1000E-09  0.0000E+00  0.1967E+16
   -1.856366    2.92648  0.0000E+00  0.1219E-13  0.7603E-17  0.1000E-09  0.0000E+00  0.1784E+16
   -1.925121    3.03813  0.0000E+00  0.1219E-13  0.7603E-17  0.1000E-09  0.0000E+00  0.1588E+16
   -1.993876    3.15018  0.0000E+00  0.3106E-13  0.1394E-16  0.1000E-09  0.0000E+00  0.1384E+16
   -2.062631    3.26200  0.0000E+00  0.1411E-12  0.5862E-16  0.1000E-09  0.0000E+00  0.1189E+16
   -2.131385    3.37436  0.0000E+00  0.6377E-12  0.2542E-15  0.1000E-09  0.0000E+00  0.9899E+15
   -2.200139    3.48711  0.0000E+00  0.2819E-11  0.1082E-14  0.1000E-09  0.0000E+00  0.7885E+15
   -2.268892    3.59999  0.0000E+00  0.1233E-10  0.4556E-14  0.1000E-09  0.0000E+00  0.5950E+15
   -2.337645    3.71489  0.0000E+00  0.5374E-10  0.1916E-13  0.2435E-09  0.0000E+00  0.3947E+15
   -2.406397    3.83322  0.0000E+00  0.2316E-09  0.7980E-13  0.2238E-08  0.0000E+00  0.1763E+15
   -2.475149    3.95523  0.0000E+00  0.9410E-09  0.3169E-12  0.2051E-06  0.0000E+00  0.3234E+13
   -2.543901    4.01007  0.0000E+00  0.2640E-08  0.1062E-11  0.2204E-05  0.0000E+00 -0.4366E+13
   -2.612652    4.01982  0.0000E+00  0.3796E-08  0.2313E-11  0.1939E-05  0.0000E+00 -0.9587E+13
   -2.681402    4.03477  0.0000E+00  0.5090E-08  0.7540E-11  0.1043E-05  0.0000E+00 -0.5580E+14
   -2.750151    4.08368  0.0000E+00  0.0000E+00  0.0000E+00  0.0000E+00  0.0000E+00  0.0000E+00
