 1 - depth, m
 2 - temperature, C
 3 - salinity, kg/kg
 4 - turbulent kinetic energy, m**2/s**2
 5 - dissipation rate, m**2/s**3
 6 - kinematic heat conductance, m**2/s
 7 - modulus of horizontal velocity, m/s
 8 - Richardson number, n/d
   -0.000000    0.00000  0.0000E+00  0.1219E-13  0.7604E-17  0.1000E-09  0.0000E+00  0.1001E+17
   -0.068728    0.15337  0.0000E+00  0.1219E-13  0.7604E-17  0.1000E-09  0.0000E+00  0.9295E+16
   -0.137457    0.30183  0.0000E+00  0.1219E-13  0.7604E-17  0.1000E-09  0.0000E+00  0.8628E+16
   -0.206186    0.44556  0.0000E+00  0.1219E-13  0.7604E-17  0.1000E-09  0.0000E+00  0.8001E+16
   -0.274917    0.58461  0.0000E+00  0.1219E-13  0.7604E-17  0.1000E-09  0.0000E+00  0.7445E+16
   -0.343647    0.71963  0.0000E+00  0.1219E-13  0.7604E-17  0.1000E-09  0.0000E+00  0.6924E+16
   -0.412378    0.85071  0.0000E+00  0.1219E-13  0.7604E-17  0.1000E-09  0.0000E+00  0.6431E+16
   -0.481110    0.97784  0.0000E+00  0.1219E-13  0.7604E-17  0.1000E-09  0.0000E+00  0.5957E+16
   -0.549842    1.10086  0.0000E+00  0.1219E-13  0.7604E-17  0.1000E-09  0.0000E+00  0.5489E+16
   -0.618574    1.21931  0.0000E+00  0.1219E-13  0.7604E-17  0.1000E-09  0.0000E+00  0.5047E+16
   -0.687307    1.33309  0.0000E+00  0.1219E-13  0.7604E-17  0.1000E-09  0.0000E+00  0.4694E+16
   -0.756040    1.44369  0.0000E+00  0.1219E-13  0.7604E-17  0.1000E-09  0.0000E+00  0.4396E+16
   -0.824774    1.55203  0.0000E+00  0.1219E-13  0.7604E-17  0.1000E-09  0.0000E+00  0.4111E+16
   -0.893508    1.65809  0.0000E+00  0.1219E-13  0.7604E-17  0.1000E-09  0.0000E+00  0.3838E+16
   -0.962242    1.76185  0.0000E+00  0.1219E-13  0.7604E-17  0.1000E-09  0.0000E+00  0.3576E+16
   -1.030976    1.86327  0.0000E+00  0.1219E-13  0.7604E-17  0.1000E-09  0.0000E+00  0.3333E+16
   -1.099710    1.96253  0.0000E+00  0.1219E-13  0.7604E-17  0.1000E-09  0.0000E+00  0.3100E+16
   -1.168445    2.05961  0.0000E+00  0.1219E-13  0.7604E-17  0.1000E-09  0.0000E+00  0.2877E+16
   -1.237179    2.15444  0.0000E+00  0.1219E-13  0.7604E-17  0.1000E-09  0.0000E+00  0.2664E+16
   -1.305914    2.24698  0.0000E+00  0.1219E-13  0.7604E-17  0.1000E-09  0.0000E+00  0.2459E+16
   -1.374649    2.33716  0.0000E+00  0.1219E-13  0.7604E-17  0.1000E-09  0.0000E+00  0.2297E+16
   -1.443383    2.42621  0.0000E+00  0.1219E-13  0.7604E-17  0.1000E-09  0.0000E+00  0.2149E+16
   -1.512118    2.51454  0.0000E+00  0.1219E-13  0.7604E-17  0.1000E-09  0.0000E+00  0.2007E+16
   -1.580853    2.60223  0.0000E+00  0.1219E-13  0.7604E-17  0.1000E-09  0.0000E+00  0.1868E+16
   -1.649587    2.68929  0.0000E+00  0.1219E-13  0.7604E-17  0.1000E-09  0.0000E+00  0.1730E+16
   -1.718322    2.77564  0.0000E+00  0.1219E-13  0.7604E-17  0.1000E-09  0.0000E+00  0.1595E+16
   -1.787056    2.86120  0.0000E+00  0.1219E-13  0.7604E-17  0.1000E-09  0.0000E+00  0.1461E+16
   -1.855790    2.94584  0.0000E+00  0.1219E-13  0.7604E-17  0.1000E-09  0.0000E+00  0.1329E+16
   -1.924523    3.02946  0.0000E+00  0.1219E-13  0.7604E-17  0.1000E-09  0.0000E+00  0.1200E+16
   -1.993257    3.11190  0.0000E+00  0.1219E-13  0.7604E-17  0.1000E-09  0.0000E+00  0.1074E+16
   -2.061990    3.19300  0.0000E+00  0.1219E-13  0.7604E-17  0.1000E-09  0.0000E+00  0.9737E+15
   -2.130723    3.27462  0.0000E+00  0.1219E-13  0.7604E-17  0.1000E-09  0.0000E+00  0.8756E+15
   -2.199455    3.35711  0.0000E+00  0.1219E-13  0.7604E-17  0.1000E-09  0.0000E+00  0.7752E+15
   -2.268187    3.44057  0.0000E+00  0.1674E-13  0.1561E-16  0.1000E-09  0.0000E+00  0.6839E+15
   -2.336919    3.52673  0.0000E+00  0.1249E-12  0.1174E-15  0.1000E-09  0.0000E+00  0.5905E+15
   -2.405650    3.61711  0.0000E+00  0.1030E-11  0.9472E-15  0.1000E-09  0.0000E+00  0.4870E+15
   -2.474381    3.71346  0.0000E+00  0.8481E-11  0.7655E-14  0.1008E-09  0.0000E+00  0.3653E+15
   -2.543111    3.81907  0.0000E+00  0.7099E-10  0.6347E-13  0.1349E-08  0.0000E+00  0.2038E+15
   -2.611840    3.94160  0.0000E+00  0.5984E-09  0.5452E-12  0.9495E-07  0.0000E+00 -0.6045E+13
   -2.680569    4.03898  0.0000E+00  0.3291E-08  0.4919E-11  0.7269E-06  0.0000E+00 -0.5973E+14
   -2.749297    4.08833  0.0000E+00  0.0000E+00  0.0000E+00  0.0000E+00  0.0000E+00  0.0000E+00
