 1 - depth, m
 2 - temperature, C
 3 - salinity, kg/kg
 4 - turbulent kinetic energy, m**2/s**2
 5 - dissipation rate, m**2/s**3
 6 - kinematic heat conductance, m**2/s
 7 - modulus of horizontal velocity, m/s
 8 - Richardson number, n/d
   -0.000000   10.96085  0.0000E+00  0.1217E-03  0.4280E-04  0.8627E-04  0.9699E-01 -0.1014E+00
   -0.068742   10.99047  0.0000E+00  0.6618E-04  0.1028E-04  0.1265E-03  0.3605E-01 -0.1992E+01
   -0.137484   10.99695  0.0000E+00  0.4743E-04  0.4078E-05  0.1340E-03  0.2718E-01 -0.1644E-01
   -0.206227   11.00165  0.0000E+00  0.3615E-04  0.1836E-05  0.1502E-03  0.2199E-01 -0.2562E-01
   -0.274971   11.00531  0.0000E+00  0.2921E-04  0.9178E-06  0.1697E-03  0.1832E-01 -0.3423E-01
   -0.343715   11.00837  0.0000E+00  0.2459E-04  0.5096E-06  0.1916E-03  0.1537E-01 -0.4466E-01
   -0.412460   11.01097  0.0000E+00  0.2132E-04  0.3124E-06  0.2145E-03  0.1298E-01 -0.5747E-01
   -0.481205   11.01323  0.0000E+00  0.1882E-04  0.2076E-06  0.2381E-03  0.1101E-01 -0.7380E-01
   -0.549951   11.01521  0.0000E+00  0.1678E-04  0.1462E-06  0.2639E-03  0.9371E-02 -0.9784E-01
   -0.618697   11.01696  0.0000E+00  0.1511E-04  0.1077E-06  0.2915E-03  0.8035E-02 -0.1238E+00
   -0.687443   11.01851  0.0000E+00  0.1371E-04  0.8199E-07  0.3306E-03  0.6929E-02 -0.3789E-01
   -0.756190   11.01988  0.0000E+00  0.1253E-04  0.6411E-07  0.4100E-03  0.6008E-02  0.3685E+02
   -0.824937   11.02108  0.0000E+00  0.1154E-04  0.5126E-07  0.4899E-03  0.5244E-02  0.3200E+02
   -0.893684   11.02212  0.0000E+00  0.1070E-04  0.4178E-07  0.5647E-03  0.4605E-02  0.2920E+02
   -0.962432   11.02304  0.0000E+00  0.9992E-05  0.3466E-07  0.6361E-03  0.4068E-02  0.2426E+02
   -1.031180   11.02385  0.0000E+00  0.9401E-05  0.2926E-07  0.7282E-03  0.3614E-02  0.5271E+02
   -1.099927   11.02455  0.0000E+00  0.8907E-05  0.2512E-07  0.8540E-03  0.3222E-02  0.5595E+02
   -1.168676   11.02512  0.0000E+00  0.8492E-05  0.2192E-07  0.9896E-03  0.2882E-02  0.9578E+02
   -1.237424   11.02558  0.0000E+00  0.8138E-05  0.1938E-07  0.1094E-02  0.2584E-02  0.2073E+02
   -1.306172   11.02598  0.0000E+00  0.7829E-05  0.1733E-07  0.1168E-02  0.2315E-02  0.3577E+02
   -1.374920   11.02633  0.0000E+00  0.7553E-05  0.1562E-07  0.1207E-02  0.2070E-02  0.9888E+01
   -1.443669   11.02666  0.0000E+00  0.7298E-05  0.1419E-07  0.1227E-02  0.1841E-02  0.1385E+02
   -1.512417   11.02699  0.0000E+00  0.7061E-05  0.1297E-07  0.1247E-02  0.1627E-02  0.2515E+01
   -1.581165   11.02731  0.0000E+00  0.6838E-05  0.1193E-07  0.1265E-02  0.1433E-02  0.2220E+01
   -1.649913   11.02762  0.0000E+00  0.6628E-05  0.1105E-07  0.1280E-02  0.1259E-02  0.1989E+01
   -1.718661   11.02793  0.0000E+00  0.6430E-05  0.1032E-07  0.1291E-02  0.1104E-02  0.1799E+01
   -1.787409   11.02824  0.0000E+00  0.6245E-05  0.9716E-08  0.1295E-02  0.9657E-03  0.1635E+01
   -1.856157   11.02854  0.0000E+00  0.6071E-05  0.9234E-08  0.1289E-02  0.8434E-03  0.1489E+01
   -1.924904   11.02885  0.0000E+00  0.5908E-05  0.8865E-08  0.1268E-02  0.7354E-03  0.1355E+01
   -1.993651   11.02916  0.0000E+00  0.5756E-05  0.8601E-08  0.1236E-02  0.6407E-03  0.1245E+01
   -2.062398   11.02948  0.0000E+00  0.5615E-05  0.8438E-08  0.1197E-02  0.5577E-03  0.1177E+01
   -2.131144   11.02981  0.0000E+00  0.5484E-05  0.8374E-08  0.1150E-02  0.4849E-03  0.1164E+01
   -2.199890   11.03016  0.0000E+00  0.5363E-05  0.8410E-08  0.1095E-02  0.4208E-03  0.1226E+01
   -2.268636   11.03052  0.0000E+00  0.5250E-05  0.8552E-08  0.1033E-02  0.3639E-03  0.1363E+01
   -2.337381   11.03090  0.0000E+00  0.5139E-05  0.8823E-08  0.9667E-03  0.3152E-03  0.1756E+01
   -2.406126   11.03132  0.0000E+00  0.5023E-05  0.9283E-08  0.8875E-03  0.2728E-03  0.2669E+01
   -2.474870   11.03177  0.0000E+00  0.4891E-05  0.1006E-07  0.7855E-03  0.2328E-03  0.4620E+01
   -2.543613   11.03229  0.0000E+00  0.4728E-05  0.1149E-07  0.6558E-03  0.1944E-03  0.9759E+01
   -2.612357   11.03293  0.0000E+00  0.4483E-05  0.1474E-07  0.5109E-03  0.1579E-03  0.3194E+02
   -2.681099   11.03376  0.0000E+00  0.2845E-05  0.5151E-07  0.2368E-04  0.1225E-03 -0.2733E+04
   -2.749841   11.05334  0.0000E+00  0.0000E+00  0.0000E+00  0.0000E+00  0.1225E-03  0.0000E+00
