 1 - depth, m
 2 - temperature, C
 3 - salinity, kg/kg
 4 - turbulent kinetic energy, m**2/s**2
 5 - dissipation rate, m**2/s**3
 6 - kinematic heat conductance, m**2/s
 7 - modulus of horizontal velocity, m/s
 8 - Richardson number, n/d
   -0.000000    0.96780  0.0000E+00  0.1881E-02  0.9443E-02  0.1677E-03  0.5678E+00 -0.3758E-02
   -0.068739    1.00486  0.0000E+00  0.9264E-03  0.2673E-02  0.7657E-03  0.1463E+00  0.7069E-02
   -0.137478    1.01541  0.0000E+00  0.6652E-03  0.1049E-02  0.8168E-03  0.1023E+00  0.1967E-01
   -0.206218    1.01973  0.0000E+00  0.5107E-03  0.5548E-03  0.7750E-03  0.8599E-01  0.6146E-01
   -0.274959    1.02227  0.0000E+00  0.4154E-03  0.3484E-03  0.6950E-03  0.7676E-01  0.5582E-02
   -0.343700    1.02406  0.0000E+00  0.3396E-03  0.2142E-03  0.6997E-03  0.6783E-01  0.8251E-02
   -0.412442    1.02551  0.0000E+00  0.2830E-03  0.1338E-03  0.6817E-03  0.6062E-01  0.5277E-02
   -0.481184    1.02671  0.0000E+00  0.2403E-03  0.8388E-04  0.6803E-03  0.5408E-01  0.7798E-02
   -0.549926    1.02774  0.0000E+00  0.2061E-03  0.5314E-04  0.6916E-03  0.4832E-01  0.4498E-02
   -0.618669    1.02866  0.0000E+00  0.1795E-03  0.3370E-04  0.7040E-03  0.4386E-01  0.5395E-02
   -0.687413    1.02950  0.0000E+00  0.1584E-03  0.2133E-04  0.7198E-03  0.3998E-01  0.6513E-03
   -0.756156    1.03030  0.0000E+00  0.1414E-03  0.1379E-04  0.7370E-03  0.3655E-01  0.6166E-02
   -0.824900    1.03106  0.0000E+00  0.1276E-03  0.9090E-05  0.7548E-03  0.3348E-01  0.8503E-02
   -0.893645    1.03181  0.0000E+00  0.1162E-03  0.6127E-05  0.7774E-03  0.3074E-01  0.1099E-01
   -0.962389    1.03252  0.0000E+00  0.1069E-03  0.4230E-05  0.8010E-03  0.2838E-01  0.1878E-01
   -1.031134    1.03319  0.0000E+00  0.9924E-04  0.3000E-05  0.8129E-03  0.2642E-01  0.1520E-01
   -1.099879    1.03386  0.0000E+00  0.9266E-04  0.2182E-05  0.8327E-03  0.2446E-01  0.1731E-01
   -1.168624    1.03453  0.0000E+00  0.8708E-04  0.1634E-05  0.8500E-03  0.2266E-01  0.1972E-01
   -1.237369    1.03518  0.0000E+00  0.8223E-04  0.1263E-05  0.8652E-03  0.2099E-01  0.2240E-01
   -1.306114    1.03583  0.0000E+00  0.7792E-04  0.1009E-05  0.8781E-03  0.1942E-01  0.2531E-01
   -1.374860    1.03647  0.0000E+00  0.7401E-04  0.8314E-06  0.8877E-03  0.1796E-01  0.2836E-01
   -1.443605    1.03711  0.0000E+00  0.7039E-04  0.7028E-06  0.8925E-03  0.1658E-01  0.3137E-01
   -1.512350    1.03776  0.0000E+00  0.6696E-04  0.6058E-06  0.9026E-03  0.1527E-01  0.3816E-01
   -1.581095    1.03842  0.0000E+00  0.6369E-04  0.5298E-06  0.9119E-03  0.1407E-01  0.4860E-01
   -1.649840    1.03907  0.0000E+00  0.6059E-04  0.4688E-06  0.9165E-03  0.1297E-01  0.6235E-01
   -1.718585    1.03974  0.0000E+00  0.5765E-04  0.4188E-06  0.9165E-03  0.1196E-01  0.8114E-01
   -1.787330    1.04043  0.0000E+00  0.5485E-04  0.3772E-06  0.9120E-03  0.1102E-01  0.1079E+00
   -1.856075    1.04113  0.0000E+00  0.5219E-04  0.3422E-06  0.9028E-03  0.1014E-01  0.1478E+00
   -1.924819    1.04187  0.0000E+00  0.4965E-04  0.3128E-06  0.8885E-03  0.9325E-02  0.2104E+00
   -1.993563    1.04266  0.0000E+00  0.4723E-04  0.2879E-06  0.8686E-03  0.8556E-02  0.3159E+00
   -2.062307    1.04350  0.0000E+00  0.4490E-04  0.2673E-06  0.8430E-03  0.7828E-02  0.4907E+00
   -2.131050    1.04442  0.0000E+00  0.4267E-04  0.2506E-06  0.8105E-03  0.7135E-02  0.8087E+00
   -2.199793    1.04544  0.0000E+00  0.4051E-04  0.2377E-06  0.7695E-03  0.6468E-02  0.1397E+01
   -2.268536    1.04663  0.0000E+00  0.3838E-04  0.2289E-06  0.7270E-03  0.5817E-02  0.3901E+01
   -2.337278    1.04802  0.0000E+00  0.3621E-04  0.2249E-06  0.6731E-03  0.5202E-02  0.1709E+02
   -2.406019    1.04974  0.0000E+00  0.3395E-04  0.2281E-06  0.6031E-03  0.4620E-02  0.1302E+03
   -2.474760    1.05212  0.0000E+00  0.3147E-04  0.2442E-06  0.5137E-03  0.4056E-02  0.3022E+04
   -2.543501    1.05672  0.0000E+00  0.2850E-04  0.2901E-06  0.4010E-03  0.3494E-02  0.1020E+07
   -2.612241    1.06683  0.0000E+00  0.2426E-04  0.4323E-06  0.2562E-03  0.2914E-02  0.4055E+10
   -2.680980    1.08680  0.0000E+00  0.1328E-04  0.1317E-05  0.4075E-04  0.2246E-02  0.3426E+11
   -2.749719    1.14345  0.0000E+00  0.0000E+00  0.0000E+00  0.0000E+00  0.2363E-02  0.0000E+00
