 1 - depth, m
 2 - temperature, C
 3 - salinity, kg/kg
 4 - turbulent kinetic energy, m**2/s**2
 5 - dissipation rate, m**2/s**3
 6 - kinematic heat conductance, m**2/s
 7 - modulus of horizontal velocity, m/s
 8 - Richardson number, n/d
   -0.000000   16.12952  0.0000E+00  0.2775E-04  0.3621E-05  0.3787E-04  0.3400E-01 -0.3166E-01
   -0.068751   16.16032  0.0000E+00  0.1860E-04  0.8127E-06  0.7969E-04  0.1652E-01 -0.1013E+00
   -0.137503   16.17094  0.0000E+00  0.1527E-04  0.3252E-06  0.1383E-03  0.1177E-01 -0.8657E-01
   -0.206255   16.17729  0.0000E+00  0.1333E-04  0.1689E-06  0.2154E-03  0.9016E-02  0.6652E+01
   -0.275008   16.18154  0.0000E+00  0.1220E-04  0.1055E-06  0.2953E-03  0.7251E-02  0.2382E+02
   -0.343762   16.18452  0.0000E+00  0.1146E-04  0.7422E-07  0.4295E-03  0.6009E-02  0.4863E+02
   -0.412516   16.18658  0.0000E+00  0.1097E-04  0.5654E-07  0.5713E-03  0.5122E-02  0.3708E+02
   -0.481270   16.18806  0.0000E+00  0.1063E-04  0.4553E-07  0.7572E-03  0.4449E-02  0.1578E+03
   -0.550025   16.18909  0.0000E+00  0.1042E-04  0.3835E-07  0.9413E-03  0.3934E-02  0.6158E+02
   -0.618780   16.18981  0.0000E+00  0.1029E-04  0.3331E-07  0.1078E-02  0.3526E-02  0.7442E+01
   -0.687536   16.19039  0.0000E+00  0.1022E-04  0.2945E-07  0.1171E-02  0.3174E-02  0.3198E+01
   -0.756292   16.19091  0.0000E+00  0.1017E-04  0.2637E-07  0.1255E-02  0.2859E-02  0.2919E+01
   -0.825048   16.19139  0.0000E+00  0.1016E-04  0.2391E-07  0.1333E-02  0.2579E-02  0.2680E+01
   -0.893805   16.19185  0.0000E+00  0.1016E-04  0.2193E-07  0.1410E-02  0.2329E-02  0.2477E+01
   -0.962562   16.19228  0.0000E+00  0.1017E-04  0.2032E-07  0.1487E-02  0.2105E-02  0.2296E+01
   -1.031319   16.19269  0.0000E+00  0.1020E-04  0.1902E-07  0.1554E-02  0.1906E-02  0.2238E+01
   -1.100076   16.19308  0.0000E+00  0.1022E-04  0.1797E-07  0.1617E-02  0.1723E-02  0.2182E+01
   -1.168834   16.19346  0.0000E+00  0.1025E-04  0.1712E-07  0.1677E-02  0.1556E-02  0.2124E+01
   -1.237591   16.19383  0.0000E+00  0.1027E-04  0.1645E-07  0.1735E-02  0.1402E-02  0.2063E+01
   -1.306349   16.19420  0.0000E+00  0.1028E-04  0.1593E-07  0.1788E-02  0.1260E-02  0.2002E+01
   -1.375106   16.19456  0.0000E+00  0.1028E-04  0.1554E-07  0.1837E-02  0.1129E-02  0.1940E+01
   -1.443864   16.19491  0.0000E+00  0.1026E-04  0.1527E-07  0.1883E-02  0.1009E-02  0.1881E+01
   -1.512622   16.19527  0.0000E+00  0.1024E-04  0.1510E-07  0.1938E-02  0.8986E-03  0.1768E+01
   -1.581379   16.19561  0.0000E+00  0.1020E-04  0.1504E-07  0.1999E-02  0.8002E-03  0.1653E+01
   -1.650136   16.19595  0.0000E+00  0.1014E-04  0.1507E-07  0.2041E-02  0.7141E-03  0.1548E+01
   -1.718894   16.19629  0.0000E+00  0.1008E-04  0.1518E-07  0.2037E-02  0.6392E-03  0.1454E+01
   -1.787651   16.19663  0.0000E+00  0.1001E-04  0.1538E-07  0.1992E-02  0.5742E-03  0.1375E+01
   -1.856408   16.19699  0.0000E+00  0.9928E-05  0.1565E-07  0.1925E-02  0.5178E-03  0.1332E+01
   -1.925164   16.19736  0.0000E+00  0.9843E-05  0.1600E-07  0.1850E-02  0.4688E-03  0.1317E+01
   -1.993921   16.19776  0.0000E+00  0.9752E-05  0.1643E-07  0.1767E-02  0.4259E-03  0.1341E+01
   -2.062677   16.19818  0.0000E+00  0.9657E-05  0.1695E-07  0.1682E-02  0.3882E-03  0.1407E+01
   -2.131432   16.19864  0.0000E+00  0.9554E-05  0.1758E-07  0.1597E-02  0.3548E-03  0.1594E+01
   -2.200188   16.19912  0.0000E+00  0.9438E-05  0.1838E-07  0.1501E-02  0.3241E-03  0.2005E+01
   -2.268943   16.19965  0.0000E+00  0.9300E-05  0.1943E-07  0.1386E-02  0.2942E-03  0.2687E+01
   -2.337697   16.20023  0.0000E+00  0.9129E-05  0.2092E-07  0.1247E-02  0.2647E-03  0.3910E+01
   -2.406451   16.20089  0.0000E+00  0.8911E-05  0.2313E-07  0.1094E-02  0.2353E-03  0.6372E+01
   -2.475205   16.20165  0.0000E+00  0.8623E-05  0.2667E-07  0.8750E-03  0.2061E-03  0.1211E+02
   -2.543958   16.20262  0.0000E+00  0.8218E-05  0.3318E-07  0.7961E-03  0.1751E-03  0.2452E+02
   -2.612710   16.20370  0.0000E+00  0.7384E-05  0.5455E-07  0.3413E-03  0.1480E-03 -0.8381E+02
   -2.681462   16.20833  0.0000E+00  0.4454E-05  0.1830E-06  0.8413E-04  0.9643E-04 -0.1656E+04
   -2.750213   16.21925  0.0000E+00  0.0000E+00  0.0000E+00  0.0000E+00  0.1089E-03  0.0000E+00
