 1 - depth, m
 2 - temperature, C
 3 - salinity, kg/kg
 4 - turbulent kinetic energy, m**2/s**2
 5 - dissipation rate, m**2/s**3
 6 - kinematic heat conductance, m**2/s
 7 - modulus of horizontal velocity, m/s
 8 - Richardson number, n/d
   -0.000000    4.40693  0.0000E+00  0.6364E-04  0.1353E-04  0.6600E-04  0.6973E-01  0.4032E-02
   -0.068757    4.44622  0.0000E+00  0.3382E-04  0.2760E-05  0.7052E-04  0.3009E-01 -0.1237E-02
   -0.137514    4.45888  0.0000E+00  0.2424E-04  0.9645E-06  0.8586E-04  0.2234E-01 -0.2401E-02
   -0.206272    4.46848  0.0000E+00  0.1864E-04  0.4191E-06  0.1034E-03  0.1750E-01 -0.4140E-02
   -0.275030    4.47644  0.0000E+00  0.1540E-04  0.2218E-06  0.1199E-03  0.1412E-01 -0.5998E-02
   -0.343789    4.48322  0.0000E+00  0.1321E-04  0.1355E-06  0.1360E-03  0.1154E-01 -0.8488E-02
   -0.412548    4.48908  0.0000E+00  0.1153E-04  0.9094E-07  0.1501E-03  0.9535E-02 -0.1173E-01
   -0.481308    4.49426  0.0000E+00  0.1012E-04  0.6447E-07  0.1617E-03  0.7932E-02 -0.1600E-01
   -0.550069    4.49899  0.0000E+00  0.8868E-05  0.4710E-07  0.1722E-03  0.6620E-02 -0.2270E-01
   -0.618829    4.50334  0.0000E+00  0.7783E-05  0.3520E-07  0.1804E-03  0.5559E-02 -0.3162E-01
   -0.687591    4.50743  0.0000E+00  0.6842E-05  0.2676E-07  0.1872E-03  0.4686E-02 -0.4359E-01
   -0.756352    4.51131  0.0000E+00  0.6029E-05  0.2063E-07  0.1932E-03  0.3959E-02 -0.5978E-01
   -0.825114    4.51502  0.0000E+00  0.5328E-05  0.1608E-07  0.1991E-03  0.3350E-02 -0.8186E-01
   -0.893876    4.51858  0.0000E+00  0.4728E-05  0.1267E-07  0.2054E-03  0.2839E-02 -0.1124E+00
   -0.962638    4.52199  0.0000E+00  0.4218E-05  0.1010E-07  0.2127E-03  0.2410E-02 -0.1552E+00
   -1.031401    4.52524  0.0000E+00  0.3789E-05  0.8153E-08  0.2197E-03  0.2053E-02 -0.1998E+00
   -1.100164    4.52837  0.0000E+00  0.3426E-05  0.6655E-08  0.2281E-03  0.1744E-02 -0.2555E+00
   -1.168927    4.53135  0.0000E+00  0.3117E-05  0.5492E-08  0.2380E-03  0.1476E-02 -0.3247E+00
   -1.237690    4.53419  0.0000E+00  0.2854E-05  0.4579E-08  0.2497E-03  0.1244E-02 -0.4071E+00
   -1.306453    4.53687  0.0000E+00  0.2628E-05  0.3856E-08  0.2654E-03  0.1042E-02 -0.4818E+00
   -1.375216    4.53939  0.0000E+00  0.2435E-05  0.3279E-08  0.2973E-03  0.8673E-03 -0.5583E-01
   -1.443979    4.54165  0.0000E+00  0.2271E-05  0.2823E-08  0.3761E-03  0.7156E-03  0.5294E+03
   -1.512742    4.54356  0.0000E+00  0.2138E-05  0.2475E-08  0.4560E-03  0.5875E-03  0.3392E+03
   -1.581505    4.54514  0.0000E+00  0.2033E-05  0.2215E-08  0.5452E-03  0.4881E-03  0.1841E+04
   -1.650268    4.54640  0.0000E+00  0.1952E-05  0.2027E-08  0.6217E-03  0.4121E-03  0.3026E+03
   -1.719030    4.54745  0.0000E+00  0.1890E-05  0.1891E-08  0.6400E-03  0.3566E-03  0.1485E+01
   -1.787793    4.54846  0.0000E+00  0.1836E-05  0.1781E-08  0.6398E-03  0.3127E-03  0.1107E+01
   -1.856555    4.54946  0.0000E+00  0.1788E-05  0.1688E-08  0.6381E-03  0.2738E-03  0.1346E+01
   -1.925317    4.55047  0.0000E+00  0.1743E-05  0.1611E-08  0.6346E-03  0.2389E-03  0.1672E+01
   -1.994079    4.55147  0.0000E+00  0.1701E-05  0.1547E-08  0.6288E-03  0.2074E-03  0.2098E+01
   -2.062841    4.55249  0.0000E+00  0.1662E-05  0.1496E-08  0.6203E-03  0.1790E-03  0.2659E+01
   -2.131602    4.55351  0.0000E+00  0.1626E-05  0.1459E-08  0.6087E-03  0.1532E-03  0.3406E+01
   -2.200363    4.55455  0.0000E+00  0.1591E-05  0.1435E-08  0.5935E-03  0.1297E-03  0.4561E+01
   -2.269123    4.55561  0.0000E+00  0.1558E-05  0.1427E-08  0.5738E-03  0.1081E-03  0.6227E+01
   -2.337883    4.55671  0.0000E+00  0.1525E-05  0.1437E-08  0.5481E-03  0.8887E-04  0.9311E+01
   -2.406643    4.55785  0.0000E+00  0.1492E-05  0.1471E-08  0.5148E-03  0.7198E-04  0.1535E+02
   -2.475401    4.55908  0.0000E+00  0.1456E-05  0.1542E-08  0.4755E-03  0.5719E-04  0.3136E+02
   -2.544160    4.56040  0.0000E+00  0.1410E-05  0.1696E-08  0.4063E-03  0.4447E-04  0.7679E+03
   -2.612918    4.56196  0.0000E+00  0.1325E-05  0.2163E-08  0.1639E-03  0.3143E-04 -0.1437E+03
   -2.681675    4.56588  0.0000E+00  0.7880E-06  0.7422E-08  0.1166E-04  0.1725E-04 -0.3417E+06
   -2.750431    4.62291  0.0000E+00  0.0000E+00  0.0000E+00  0.0000E+00  0.1725E-04  0.0000E+00
