 1 - depth, m
 2 - temperature, C
 3 - salinity, kg/kg
 4 - turbulent kinetic energy, m**2/s**2
 5 - dissipation rate, m**2/s**3
 6 - kinematic heat conductance, m**2/s
 7 - modulus of horizontal velocity, m/s
 8 - Richardson number, n/d
   -0.000000    0.00000  0.0000E+00  0.1219E-13  0.7604E-17  0.1000E-09  0.0000E+00  0.1075E+17
   -0.068730    0.16489  0.0000E+00  0.1219E-13  0.7604E-17  0.1000E-09  0.0000E+00  0.9814E+16
   -0.137460    0.32235  0.0000E+00  0.1219E-13  0.7604E-17  0.1000E-09  0.0000E+00  0.8942E+16
   -0.206192    0.47235  0.0000E+00  0.1219E-13  0.7604E-17  0.1000E-09  0.0000E+00  0.8123E+16
   -0.274923    0.61475  0.0000E+00  0.1219E-13  0.7604E-17  0.1000E-09  0.0000E+00  0.7427E+16
   -0.343656    0.75076  0.0000E+00  0.1219E-13  0.7604E-17  0.1000E-09  0.0000E+00  0.6785E+16
   -0.412388    0.88052  0.0000E+00  0.1219E-13  0.7604E-17  0.1000E-09  0.0000E+00  0.6184E+16
   -0.481122    1.00396  0.0000E+00  0.1219E-13  0.7604E-17  0.1000E-09  0.0000E+00  0.5613E+16
   -0.549855    1.12085  0.0000E+00  0.1219E-13  0.7604E-17  0.1000E-09  0.0000E+00  0.5046E+16
   -0.618589    1.23035  0.0000E+00  0.1219E-13  0.7604E-17  0.1000E-09  0.0000E+00  0.4522E+16
   -0.687324    1.33251  0.0000E+00  0.1219E-13  0.7604E-17  0.1000E-09  0.0000E+00  0.4164E+16
   -0.756059    1.43036  0.0000E+00  0.1219E-13  0.7604E-17  0.1000E-09  0.0000E+00  0.3910E+16
   -0.824794    1.52592  0.0000E+00  0.1219E-13  0.7604E-17  0.1000E-09  0.0000E+00  0.3680E+16
   -0.893529    1.61954  0.0000E+00  0.1219E-13  0.7604E-17  0.1000E-09  0.0000E+00  0.3472E+16
   -0.962265    1.71156  0.0000E+00  0.1219E-13  0.7604E-17  0.1000E-09  0.0000E+00  0.3284E+16
   -1.031001    1.80229  0.0000E+00  0.1219E-13  0.7604E-17  0.1000E-09  0.0000E+00  0.3126E+16
   -1.099737    1.89244  0.0000E+00  0.1219E-13  0.7604E-17  0.1000E-09  0.0000E+00  0.2980E+16
   -1.168473    1.98229  0.0000E+00  0.1219E-13  0.7604E-17  0.1000E-09  0.0000E+00  0.2842E+16
   -1.237210    2.07204  0.0000E+00  0.1219E-13  0.7604E-17  0.1000E-09  0.0000E+00  0.2709E+16
   -1.305946    2.16181  0.0000E+00  0.1219E-13  0.7604E-17  0.1000E-09  0.0000E+00  0.2577E+16
   -1.374682    2.25163  0.0000E+00  0.1219E-13  0.7604E-17  0.1000E-09  0.0000E+00  0.2487E+16
   -1.443419    2.34314  0.0000E+00  0.1219E-13  0.7604E-17  0.1000E-09  0.0000E+00  0.2403E+16
   -1.512155    2.43683  0.0000E+00  0.1219E-13  0.7604E-17  0.1000E-09  0.0000E+00  0.2310E+16
   -1.580891    2.53271  0.0000E+00  0.1219E-13  0.7604E-17  0.1000E-09  0.0000E+00  0.2205E+16
   -1.649628    2.63068  0.0000E+00  0.1219E-13  0.7604E-17  0.1000E-09  0.0000E+00  0.2085E+16
   -1.718364    2.73052  0.0000E+00  0.1219E-13  0.7604E-17  0.1000E-09  0.0000E+00  0.1951E+16
   -1.787099    2.83192  0.0000E+00  0.1219E-13  0.7604E-17  0.1000E-09  0.0000E+00  0.1805E+16
   -1.855835    2.93456  0.0000E+00  0.1219E-13  0.7604E-17  0.1000E-09  0.0000E+00  0.1647E+16
   -1.924571    3.03806  0.0000E+00  0.1219E-13  0.7604E-17  0.1000E-09  0.0000E+00  0.1481E+16
   -1.993306    3.14204  0.0000E+00  0.1424E-13  0.7733E-17  0.1000E-09  0.0000E+00  0.1308E+16
   -2.062041    3.24609  0.0000E+00  0.6656E-13  0.3278E-16  0.1000E-09  0.0000E+00  0.1146E+16
   -2.130775    3.35133  0.0000E+00  0.3349E-12  0.1578E-15  0.1000E-09  0.0000E+00  0.9792E+15
   -2.199509    3.45779  0.0000E+00  0.1648E-11  0.7453E-15  0.1000E-09  0.0000E+00  0.8063E+15
   -2.268243    3.56540  0.0000E+00  0.7995E-11  0.3475E-14  0.1000E-09  0.0000E+00  0.6375E+15
   -2.336976    3.67608  0.0000E+00  0.3854E-10  0.1612E-13  0.1760E-09  0.0000E+00  0.4582E+15
   -2.405709    3.79145  0.0000E+00  0.1831E-09  0.7385E-13  0.1431E-08  0.0000E+00  0.2553E+15
   -2.474441    3.91250  0.0000E+00  0.8449E-09  0.3308E-12  0.3977E-07  0.0000E+00  0.3565E+14
   -2.543173    4.01635  0.0000E+00  0.2931E-08  0.1192E-11  0.2499E-05  0.0000E+00 -0.4524E+13
   -2.611904    4.02478  0.0000E+00  0.4058E-08  0.2423E-11  0.2142E-05  0.0000E+00 -0.9281E+13
   -2.680635    4.03794  0.0000E+00  0.5154E-08  0.7571E-11  0.1055E-05  0.0000E+00 -0.5454E+14
   -2.749365    4.08447  0.0000E+00  0.0000E+00  0.0000E+00  0.0000E+00  0.0000E+00  0.0000E+00
