 1 - depth, m
 2 - temperature, C
 3 - salinity, kg/kg
 4 - turbulent kinetic energy, m**2/s**2
 5 - dissipation rate, m**2/s**3
 6 - kinematic heat conductance, m**2/s
 7 - modulus of horizontal velocity, m/s
 8 - Richardson number, n/d
   -0.000000    0.00000  0.0000E+00  0.1219E-13  0.7604E-17  0.1000E-09  0.0000E+00  0.1263E+17
   -0.068742    0.19447  0.0000E+00  0.1219E-13  0.7604E-17  0.1000E-09  0.0000E+00  0.1139E+17
   -0.137484    0.37948  0.0000E+00  0.1219E-13  0.7604E-17  0.1000E-09  0.0000E+00  0.1025E+17
   -0.206228    0.55505  0.0000E+00  0.1219E-13  0.7604E-17  0.1000E-09  0.0000E+00  0.9195E+16
   -0.274971    0.72106  0.0000E+00  0.1219E-13  0.7604E-17  0.1000E-09  0.0000E+00  0.8329E+16
   -0.343716    0.87953  0.0000E+00  0.1219E-13  0.7604E-17  0.1000E-09  0.0000E+00  0.7547E+16
   -0.412460    1.03085  0.0000E+00  0.1219E-13  0.7604E-17  0.1000E-09  0.0000E+00  0.6827E+16
   -0.481206    1.17509  0.0000E+00  0.1219E-13  0.7604E-17  0.1000E-09  0.0000E+00  0.6151E+16
   -0.549951    1.31204  0.0000E+00  0.1219E-13  0.7604E-17  0.1000E-09  0.0000E+00  0.5483E+16
   -0.618698    1.44061  0.0000E+00  0.1219E-13  0.7604E-17  0.1000E-09  0.0000E+00  0.4878E+16
   -0.687444    1.56097  0.0000E+00  0.1219E-13  0.7604E-17  0.1000E-09  0.0000E+00  0.4468E+16
   -0.756191    1.67695  0.0000E+00  0.1219E-13  0.7604E-17  0.1000E-09  0.0000E+00  0.4179E+16
   -0.824938    1.79119  0.0000E+00  0.4551E-13  0.7611E-17  0.1000E-09  0.0000E+00  0.3919E+16
   -0.893686    1.90423  0.0000E+00  0.1285E-12  0.1483E-16  0.1000E-09  0.0000E+00  0.3685E+16
   -0.962433    2.01662  0.0000E+00  0.3086E-12  0.3249E-16  0.1000E-09  0.0000E+00  0.3470E+16
   -1.031181    2.12889  0.0000E+00  0.7007E-12  0.7099E-16  0.1000E-09  0.0000E+00  0.3294E+16
   -1.099929    2.24236  0.0000E+00  0.1555E-11  0.1533E-15  0.1000E-09  0.0000E+00  0.3126E+16
   -1.168678    2.35757  0.0000E+00  0.3410E-11  0.3279E-15  0.1000E-09  0.0000E+00  0.2961E+16
   -1.237426    2.47497  0.0000E+00  0.7407E-11  0.6953E-15  0.1000E-09  0.0000E+00  0.2793E+16
   -1.306174    2.59502  0.0000E+00  0.1596E-10  0.1463E-14  0.1000E-09  0.0000E+00  0.2620E+16
   -1.374923    2.71818  0.0000E+00  0.3411E-10  0.3055E-14  0.1000E-09  0.0000E+00  0.2491E+16
   -1.443671    2.84780  0.0000E+00  0.7235E-10  0.6332E-14  0.1000E-09  0.0000E+00  0.2347E+16
   -1.512419    2.98552  0.0000E+00  0.1526E-09  0.1305E-13  0.1000E-09  0.0000E+00  0.2165E+16
   -1.581168    3.13235  0.0000E+00  0.3210E-09  0.2684E-13  0.1000E-09  0.0000E+00  0.1929E+16
   -1.649916    3.28914  0.0000E+00  0.6716E-09  0.5492E-13  0.1725E-09  0.0000E+00  0.1622E+16
   -1.718664    3.45622  0.0000E+00  0.1397E-08  0.1117E-12  0.4623E-09  0.0000E+00  0.1232E+16
   -1.787412    3.63303  0.0000E+00  0.2886E-08  0.2259E-12  0.1522E-08  0.0000E+00  0.7575E+15
   -1.856160    3.81742  0.0000E+00  0.5898E-08  0.4523E-12  0.1038E-07  0.0000E+00  0.2230E+15
   -1.924907    3.99747  0.0000E+00  0.6661E-08  0.5138E-12  0.3087E-04  0.0000E+00 -0.1529E+12
   -1.993654    3.99832  0.0000E+00  0.7019E-08  0.5498E-12  0.3248E-04  0.0000E+00 -0.1708E+12
   -2.062401    3.99920  0.0000E+00  0.7331E-08  0.5896E-12  0.3327E-04  0.0000E+00 -0.1817E+12
   -2.131148    4.00007  0.0000E+00  0.7601E-08  0.6346E-12  0.3323E-04  0.0000E+00 -0.1961E+12
   -2.199894    4.00096  0.0000E+00  0.7829E-08  0.6866E-12  0.3242E-04  0.0000E+00 -0.2160E+12
   -2.268640    4.00187  0.0000E+00  0.8013E-08  0.7495E-12  0.3083E-04  0.0000E+00 -0.2447E+12
   -2.337385    4.00285  0.0000E+00  0.8152E-08  0.8311E-12  0.2833E-04  0.0000E+00 -0.2884E+12
   -2.406130    4.00393  0.0000E+00  0.8235E-08  0.9440E-12  0.2480E-04  0.0000E+00 -0.3599E+12
   -2.474874    4.00519  0.0000E+00  0.8238E-08  0.1116E-11  0.2018E-04  0.0000E+00 -0.4919E+12
   -2.543618    4.00678  0.0000E+00  0.8106E-08  0.1427E-11  0.1435E-04  0.0000E+00 -0.8009E+12
   -2.612361    4.00915  0.0000E+00  0.7659E-08  0.2206E-11  0.7408E-05  0.0000E+00 -0.1989E+13
   -2.681103    4.01416  0.0000E+00  0.5816E-08  0.6678E-11  0.1188E-05  0.0000E+00 -0.2716E+14
   -2.749845    4.05147  0.0000E+00  0.0000E+00  0.0000E+00  0.0000E+00  0.0000E+00  0.0000E+00
