 1 - depth, m
 2 - temperature, C
 3 - salinity, kg/kg
 4 - turbulent kinetic energy, m**2/s**2
 5 - dissipation rate, m**2/s**3
 6 - kinematic heat conductance, m**2/s
 7 - modulus of horizontal velocity, m/s
 8 - Richardson number, n/d
   -0.000000    0.00000  0.0000E+00  0.1219E-13  0.7603E-17  0.1000E-09  0.0000E+00  0.1064E+17
   -0.068728    0.16310  0.0000E+00  0.1219E-13  0.7603E-17  0.1000E-09  0.0000E+00  0.9790E+16
   -0.137458    0.32008  0.0000E+00  0.1219E-13  0.7603E-17  0.1000E-09  0.0000E+00  0.8950E+16
   -0.206187    0.47012  0.0000E+00  0.1219E-13  0.7603E-17  0.1000E-09  0.0000E+00  0.8143E+16
   -0.274918    0.61278  0.0000E+00  0.1219E-13  0.7603E-17  0.1000E-09  0.0000E+00  0.7450E+16
   -0.343649    0.74912  0.0000E+00  0.1219E-13  0.7603E-17  0.1000E-09  0.0000E+00  0.6812E+16
   -0.412380    0.87933  0.0000E+00  0.1219E-13  0.7603E-17  0.1000E-09  0.0000E+00  0.6219E+16
   -0.481112    1.00344  0.0000E+00  0.1219E-13  0.7603E-17  0.1000E-09  0.0000E+00  0.5659E+16
   -0.549844    1.12128  0.0000E+00  0.1219E-13  0.7603E-17  0.1000E-09  0.0000E+00  0.5104E+16
   -0.618577    1.23210  0.0000E+00  0.1219E-13  0.7603E-17  0.1000E-09  0.0000E+00  0.4592E+16
   -0.687310    1.33594  0.0000E+00  0.1219E-13  0.7603E-17  0.1000E-09  0.0000E+00  0.4236E+16
   -0.756043    1.43565  0.0000E+00  0.1219E-13  0.7603E-17  0.1000E-09  0.0000E+00  0.3978E+16
   -0.824777    1.53313  0.0000E+00  0.1219E-13  0.7603E-17  0.1000E-09  0.0000E+00  0.3742E+16
   -0.893511    1.62866  0.0000E+00  0.1219E-13  0.7603E-17  0.1000E-09  0.0000E+00  0.3526E+16
   -0.962245    1.72250  0.0000E+00  0.1219E-13  0.7603E-17  0.1000E-09  0.0000E+00  0.3326E+16
   -1.030980    1.81491  0.0000E+00  0.1219E-13  0.7603E-17  0.1000E-09  0.0000E+00  0.3155E+16
   -1.099715    1.90649  0.0000E+00  0.1219E-13  0.7603E-17  0.1000E-09  0.0000E+00  0.2996E+16
   -1.168449    1.99748  0.0000E+00  0.1219E-13  0.7603E-17  0.1000E-09  0.0000E+00  0.2844E+16
   -1.237184    2.08802  0.0000E+00  0.1219E-13  0.7603E-17  0.1000E-09  0.0000E+00  0.2697E+16
   -1.305919    2.17821  0.0000E+00  0.1219E-13  0.7603E-17  0.1000E-09  0.0000E+00  0.2553E+16
   -1.374654    2.26806  0.0000E+00  0.1219E-13  0.7603E-17  0.1000E-09  0.0000E+00  0.2452E+16
   -1.443389    2.35917  0.0000E+00  0.1219E-13  0.7603E-17  0.1000E-09  0.0000E+00  0.2359E+16
   -1.512124    2.45205  0.0000E+00  0.1219E-13  0.7603E-17  0.1000E-09  0.0000E+00  0.2259E+16
   -1.580859    2.54675  0.0000E+00  0.1219E-13  0.7603E-17  0.1000E-09  0.0000E+00  0.2149E+16
   -1.649594    2.64318  0.0000E+00  0.1219E-13  0.7603E-17  0.1000E-09  0.0000E+00  0.2028E+16
   -1.718329    2.74118  0.0000E+00  0.1219E-13  0.7603E-17  0.1000E-09  0.0000E+00  0.1896E+16
   -1.787063    2.84052  0.0000E+00  0.1219E-13  0.7603E-17  0.1000E-09  0.0000E+00  0.1753E+16
   -1.855797    2.94091  0.0000E+00  0.1219E-13  0.7603E-17  0.1000E-09  0.0000E+00  0.1601E+16
   -1.924531    3.04206  0.0000E+00  0.1219E-13  0.7603E-17  0.1000E-09  0.0000E+00  0.1442E+16
   -1.993265    3.14363  0.0000E+00  0.1223E-13  0.7613E-17  0.1000E-09  0.0000E+00  0.1277E+16
   -2.061999    3.24525  0.0000E+00  0.5471E-13  0.2747E-16  0.1000E-09  0.0000E+00  0.1124E+16
   -2.130732    3.34815  0.0000E+00  0.2783E-12  0.1327E-15  0.1000E-09  0.0000E+00  0.9661E+15
   -2.199464    3.45242  0.0000E+00  0.1381E-11  0.6322E-15  0.1000E-09  0.0000E+00  0.8018E+15
   -2.268197    3.55800  0.0000E+00  0.6755E-11  0.2971E-14  0.1000E-09  0.0000E+00  0.6410E+15
   -2.336929    3.66680  0.0000E+00  0.3282E-10  0.1389E-13  0.1480E-09  0.0000E+00  0.4697E+15
   -2.405660    3.78046  0.0000E+00  0.1572E-09  0.6417E-13  0.1158E-08  0.0000E+00  0.2746E+15
   -2.474391    3.90031  0.0000E+00  0.7358E-09  0.2911E-12  0.2497E-07  0.0000E+00  0.5264E+14
   -2.543121    4.01250  0.0000E+00  0.2675E-08  0.1082E-11  0.2256E-05  0.0000E+00 -0.4438E+13
   -2.611851    4.02171  0.0000E+00  0.3782E-08  0.2260E-11  0.1982E-05  0.0000E+00 -0.9263E+13
   -2.680580    4.03567  0.0000E+00  0.4919E-08  0.7182E-11  0.1018E-05  0.0000E+00 -0.5401E+14
   -2.749308    4.08295  0.0000E+00  0.0000E+00  0.0000E+00  0.0000E+00  0.0000E+00  0.0000E+00
