 1 - depth, m
 2 - temperature, C
 3 - salinity, kg/kg
 4 - turbulent kinetic energy, m**2/s**2
 5 - dissipation rate, m**2/s**3
 6 - kinematic heat conductance, m**2/s
 7 - modulus of horizontal velocity, m/s
 8 - Richardson number, n/d
   -0.000000    6.92299  0.0000E+00  0.2196E-03  0.8746E-04  0.1076E-03  0.1471E+00  0.3194E-02
   -0.068754    6.99082  0.0000E+00  0.1211E-03  0.2214E-04  0.2140E-03  0.4705E-01 -0.1886E-01
   -0.137509    7.00212  0.0000E+00  0.8709E-04  0.9409E-05  0.2009E-03  0.3631E-01 -0.1035E-01
   -0.206265    7.01050  0.0000E+00  0.6571E-04  0.4425E-05  0.2048E-03  0.3032E-01 -0.1425E-01
   -0.275021    7.01690  0.0000E+00  0.5207E-04  0.2264E-05  0.2158E-03  0.2607E-01 -0.1716E-01
   -0.343778    7.02236  0.0000E+00  0.4287E-04  0.1260E-05  0.2313E-03  0.2247E-01 -0.1943E-01
   -0.412535    7.02718  0.0000E+00  0.3638E-04  0.7621E-06  0.2486E-03  0.1939E-01 -0.2283E-01
   -0.481293    7.03148  0.0000E+00  0.3154E-04  0.4958E-06  0.2663E-03  0.1675E-01 -0.2739E-01
   -0.550051    7.03537  0.0000E+00  0.2771E-04  0.3407E-06  0.2862E-03  0.1450E-01 -0.3492E-01
   -0.618810    7.03889  0.0000E+00  0.2462E-04  0.2446E-06  0.3055E-03  0.1262E-01 -0.4426E-01
   -0.687569    7.04211  0.0000E+00  0.2205E-04  0.1819E-06  0.3248E-03  0.1102E-01 -0.5591E-01
   -0.756328    7.04509  0.0000E+00  0.1989E-04  0.1390E-06  0.3444E-03  0.9653E-02 -0.7048E-01
   -0.825088    7.04784  0.0000E+00  0.1805E-04  0.1087E-06  0.3648E-03  0.8481E-02 -0.8876E-01
   -0.893847    7.05038  0.0000E+00  0.1647E-04  0.8661E-07  0.3866E-03  0.7473E-02 -0.1117E+00
   -0.962608    7.05274  0.0000E+00  0.1512E-04  0.7019E-07  0.4105E-03  0.6606E-02 -0.1368E+00
   -1.031368    7.05493  0.0000E+00  0.1396E-04  0.5782E-07  0.4371E-03  0.5862E-02 -0.1513E-01
   -1.100128    7.05695  0.0000E+00  0.1296E-04  0.4831E-07  0.4761E-03  0.5204E-02  0.5175E+01
   -1.168889    7.05879  0.0000E+00  0.1209E-04  0.4088E-07  0.5534E-03  0.4623E-02  0.5928E+02
   -1.237650    7.06042  0.0000E+00  0.1134E-04  0.3501E-07  0.6590E-03  0.4110E-02  0.2384E+02
   -1.306411    7.06183  0.0000E+00  0.1067E-04  0.3033E-07  0.7908E-03  0.3656E-02  0.5153E+02
   -1.375172    7.06301  0.0000E+00  0.1008E-04  0.2655E-07  0.9169E-03  0.3252E-02  0.7303E+02
   -1.443932    7.06400  0.0000E+00  0.9559E-05  0.2346E-07  0.1032E-02  0.2888E-02  0.4415E+02
   -1.512693    7.06485  0.0000E+00  0.9081E-05  0.2088E-07  0.1116E-02  0.2556E-02  0.1220E+03
   -1.581454    7.06559  0.0000E+00  0.8639E-05  0.1870E-07  0.1190E-02  0.2257E-02  0.1842E+02
   -1.650215    7.06626  0.0000E+00  0.8231E-05  0.1685E-07  0.1246E-02  0.1990E-02  0.3696E+02
   -1.718975    7.06686  0.0000E+00  0.7853E-05  0.1529E-07  0.1284E-02  0.1751E-02  0.5886E+01
   -1.787736    7.06743  0.0000E+00  0.7502E-05  0.1396E-07  0.1296E-02  0.1536E-02  0.4345E+01
   -1.856496    7.06798  0.0000E+00  0.7175E-05  0.1283E-07  0.1299E-02  0.1343E-02  0.4438E+01
   -1.925256    7.06851  0.0000E+00  0.6871E-05  0.1190E-07  0.1289E-02  0.1169E-02  0.4744E+01
   -1.994015    7.06904  0.0000E+00  0.6591E-05  0.1115E-07  0.1269E-02  0.1015E-02  0.1735E+01
   -2.062775    7.06956  0.0000E+00  0.6334E-05  0.1056E-07  0.1237E-02  0.8766E-03  0.1077E+01
   -2.131534    7.07009  0.0000E+00  0.6100E-05  0.1013E-07  0.1195E-02  0.7538E-03  0.9540E+00
   -2.200292    7.07062  0.0000E+00  0.5889E-05  0.9859E-08  0.1143E-02  0.6447E-03  0.8410E+00
   -2.269050    7.07117  0.0000E+00  0.5701E-05  0.9743E-08  0.1084E-02  0.5481E-03  0.6961E+00
   -2.337808    7.07173  0.0000E+00  0.5534E-05  0.9787E-08  0.1021E-02  0.4667E-03  0.5992E+00
   -2.406565    7.07232  0.0000E+00  0.5382E-05  0.1001E-07  0.9546E-03  0.3999E-03  0.6692E+00
   -2.475322    7.07293  0.0000E+00  0.5231E-05  0.1049E-07  0.8714E-03  0.3424E-03  0.9674E+00
   -2.544078    7.07360  0.0000E+00  0.5064E-05  0.1145E-07  0.7973E-03  0.2901E-03  0.1895E+01
   -2.612834    7.07431  0.0000E+00  0.4784E-05  0.1423E-07  0.3937E-03  0.2431E-03  0.2559E+03
   -2.681589    7.07574  0.0000E+00  0.2829E-05  0.4976E-07  0.2145E-04  0.1757E-03 -0.1562E+04
   -2.750343    7.10144  0.0000E+00  0.0000E+00  0.0000E+00  0.0000E+00  0.1755E-03  0.0000E+00
