 1 - depth, m
 2 - temperature, C
 3 - salinity, kg/kg
 4 - turbulent kinetic energy, m**2/s**2
 5 - dissipation rate, m**2/s**3
 6 - kinematic heat conductance, m**2/s
 7 - modulus of horizontal velocity, m/s
 8 - Richardson number, n/d
   -0.000000    0.00000  0.0000E+00  0.1219E-13  0.7604E-17  0.1000E-09  0.0000E+00  0.1010E+17
   -0.068750    0.15479  0.0000E+00  0.1219E-13  0.7604E-17  0.1000E-09  0.0000E+00  0.9364E+16
   -0.137500    0.30443  0.0000E+00  0.1219E-13  0.7604E-17  0.1000E-09  0.0000E+00  0.8672E+16
   -0.206250    0.44903  0.0000E+00  0.1219E-13  0.7604E-17  0.1000E-09  0.0000E+00  0.8026E+16
   -0.275002    0.58867  0.0000E+00  0.1219E-13  0.7604E-17  0.1000E-09  0.0000E+00  0.7454E+16
   -0.343754    0.72404  0.0000E+00  0.1219E-13  0.7604E-17  0.1000E-09  0.0000E+00  0.6924E+16
   -0.412506    0.85531  0.0000E+00  0.1219E-13  0.7604E-17  0.1000E-09  0.0000E+00  0.6425E+16
   -0.481259    0.98253  0.0000E+00  0.1219E-13  0.7604E-17  0.1000E-09  0.0000E+00  0.5949E+16
   -0.550012    1.10560  0.0000E+00  0.1219E-13  0.7604E-17  0.1000E-09  0.0000E+00  0.5482E+16
   -0.618766    1.22409  0.0000E+00  0.1219E-13  0.7604E-17  0.1000E-09  0.0000E+00  0.5040E+16
   -0.687520    1.33794  0.0000E+00  0.1219E-13  0.7604E-17  0.1000E-09  0.0000E+00  0.4688E+16
   -0.756275    1.44861  0.0000E+00  0.1219E-13  0.7604E-17  0.1000E-09  0.0000E+00  0.4390E+16
   -0.825030    1.55701  0.0000E+00  0.1219E-13  0.7604E-17  0.1000E-09  0.0000E+00  0.4104E+16
   -0.893785    1.66312  0.0000E+00  0.1219E-13  0.7604E-17  0.1000E-09  0.0000E+00  0.3830E+16
   -0.962540    1.76691  0.0000E+00  0.1219E-13  0.7604E-17  0.1000E-09  0.0000E+00  0.3568E+16
   -1.031295    1.86834  0.0000E+00  0.1219E-13  0.7604E-17  0.1000E-09  0.0000E+00  0.3324E+16
   -1.100051    1.96757  0.0000E+00  0.1219E-13  0.7604E-17  0.1000E-09  0.0000E+00  0.3090E+16
   -1.168807    2.06456  0.0000E+00  0.1219E-13  0.7604E-17  0.1000E-09  0.0000E+00  0.2866E+16
   -1.237563    2.15927  0.0000E+00  0.1219E-13  0.7604E-17  0.1000E-09  0.0000E+00  0.2652E+16
   -1.306319    2.25165  0.0000E+00  0.1219E-13  0.7604E-17  0.1000E-09  0.0000E+00  0.2447E+16
   -1.375075    2.34162  0.0000E+00  0.1219E-13  0.7604E-17  0.1000E-09  0.0000E+00  0.2283E+16
   -1.443831    2.43040  0.0000E+00  0.1219E-13  0.7604E-17  0.1000E-09  0.0000E+00  0.2135E+16
   -1.512587    2.51838  0.0000E+00  0.1219E-13  0.7604E-17  0.1000E-09  0.0000E+00  0.1992E+16
   -1.581343    2.60565  0.0000E+00  0.1219E-13  0.7604E-17  0.1000E-09  0.0000E+00  0.1853E+16
   -1.650099    2.69223  0.0000E+00  0.1219E-13  0.7604E-17  0.1000E-09  0.0000E+00  0.1716E+16
   -1.718854    2.77804  0.0000E+00  0.1219E-13  0.7604E-17  0.1000E-09  0.0000E+00  0.1581E+16
   -1.787610    2.86300  0.0000E+00  0.1219E-13  0.7604E-17  0.1000E-09  0.0000E+00  0.1447E+16
   -1.856365    2.94700  0.0000E+00  0.1219E-13  0.7604E-17  0.1000E-09  0.0000E+00  0.1317E+16
   -1.925120    3.02991  0.0000E+00  0.1219E-13  0.7604E-17  0.1000E-09  0.0000E+00  0.1189E+16
   -1.993875    3.11161  0.0000E+00  0.1219E-13  0.7604E-17  0.1000E-09  0.0000E+00  0.1064E+16
   -2.062630    3.19193  0.0000E+00  0.1219E-13  0.7604E-17  0.1000E-09  0.0000E+00  0.9653E+15
   -2.131384    3.27269  0.0000E+00  0.1219E-13  0.7604E-17  0.1000E-09  0.0000E+00  0.8686E+15
   -2.200138    3.35423  0.0000E+00  0.1219E-13  0.7604E-17  0.1000E-09  0.0000E+00  0.7700E+15
   -2.268891    3.43664  0.0000E+00  0.1329E-13  0.1264E-16  0.1000E-09  0.0000E+00  0.6811E+15
   -2.337644    3.52168  0.0000E+00  0.9778E-13  0.9499E-16  0.1000E-09  0.0000E+00  0.5906E+15
   -2.406396    3.61084  0.0000E+00  0.8255E-12  0.7858E-15  0.1000E-09  0.0000E+00  0.4907E+15
   -2.475148    3.70586  0.0000E+00  0.6967E-11  0.6524E-14  0.1000E-09  0.0000E+00  0.3739E+15
   -2.543900    3.81000  0.0000E+00  0.5989E-10  0.5567E-13  0.1096E-08  0.0000E+00  0.2200E+15
   -2.612650    3.93108  0.0000E+00  0.5222E-09  0.4945E-12  0.6513E-07  0.0000E+00  0.4756E+12
   -2.681400    4.04102  0.0000E+00  0.3298E-08  0.4948E-11  0.7271E-06  0.0000E+00 -0.6025E+14
   -2.750150    4.08972  0.0000E+00  0.0000E+00  0.0000E+00  0.0000E+00  0.0000E+00  0.0000E+00
