 1 - depth, m
 2 - temperature, C
 3 - salinity, kg/kg
 4 - turbulent kinetic energy, m**2/s**2
 5 - dissipation rate, m**2/s**3
 6 - kinematic heat conductance, m**2/s
 7 - modulus of horizontal velocity, m/s
 8 - Richardson number, n/d
   -0.000000    0.00000  0.0000E+00  0.1219E-13  0.7603E-17  0.1000E-09  0.0000E+00  0.1426E+17
   -0.068761    0.22042  0.0000E+00  0.1219E-13  0.7603E-17  0.1000E-09  0.0000E+00  0.1259E+17
   -0.137522    0.42717  0.0000E+00  0.1219E-13  0.7603E-17  0.1000E-09  0.0000E+00  0.1096E+17
   -0.206284    0.61814  0.0000E+00  0.1219E-13  0.7603E-17  0.1000E-09  0.0000E+00  0.9403E+16
   -0.275047    0.79155  0.0000E+00  0.1219E-13  0.7603E-17  0.1000E-09  0.0000E+00  0.8091E+16
   -0.343810    0.94912  0.0000E+00  0.1219E-13  0.7603E-17  0.1000E-09  0.0000E+00  0.6910E+16
   -0.412574    1.09086  0.0000E+00  0.1219E-13  0.7603E-17  0.1000E-09  0.0000E+00  0.5852E+16
   -0.481338    1.21683  0.0000E+00  0.1219E-13  0.7603E-17  0.1000E-09  0.0000E+00  0.4901E+16
   -0.550103    1.32715  0.0000E+00  0.1219E-13  0.7603E-17  0.1000E-09  0.0000E+00  0.4006E+16
   -0.618868    1.42101  0.0000E+00  0.1219E-13  0.7603E-17  0.1000E-09  0.0000E+00  0.3249E+16
   -0.687633    1.49984  0.0000E+00  0.1219E-13  0.7603E-17  0.1000E-09  0.0000E+00  0.2829E+16
   -0.756399    1.57067  0.0000E+00  0.1219E-13  0.7603E-17  0.1000E-09  0.0000E+00  0.2649E+16
   -0.825165    1.63901  0.0000E+00  0.1219E-13  0.7603E-17  0.1000E-09  0.0000E+00  0.2574E+16
   -0.893931    1.70745  0.0000E+00  0.1219E-13  0.7603E-17  0.1000E-09  0.0000E+00  0.2590E+16
   -0.962698    1.77855  0.0000E+00  0.5450E-13  0.9046E-17  0.1000E-09  0.0000E+00  0.2680E+16
   -1.031465    1.85471  0.0000E+00  0.1556E-12  0.1952E-16  0.1000E-09  0.0000E+00  0.2857E+16
   -1.100232    1.93913  0.0000E+00  0.3833E-12  0.4476E-16  0.1000E-09  0.0000E+00  0.3052E+16
   -1.168999    2.03347  0.0000E+00  0.9013E-12  0.1016E-15  0.1000E-09  0.0000E+00  0.3230E+16
   -1.237766    2.13872  0.0000E+00  0.2078E-11  0.2275E-15  0.1000E-09  0.0000E+00  0.3360E+16
   -1.306533    2.25521  0.0000E+00  0.4728E-11  0.5037E-15  0.1000E-09  0.0000E+00  0.3417E+16
   -1.375301    2.38258  0.0000E+00  0.1064E-10  0.1104E-14  0.1000E-09  0.0000E+00  0.3469E+16
   -1.444068    2.52351  0.0000E+00  0.2372E-10  0.2396E-14  0.1000E-09  0.0000E+00  0.3426E+16
   -1.512835    2.67788  0.0000E+00  0.5241E-10  0.5158E-14  0.1000E-09  0.0000E+00  0.3262E+16
   -1.581602    2.84453  0.0000E+00  0.1153E-09  0.1105E-13  0.1000E-09  0.0000E+00  0.2976E+16
   -1.650370    3.02193  0.0000E+00  0.2516E-09  0.2351E-13  0.1000E-09  0.0000E+00  0.2578E+16
   -1.719137    3.20820  0.0000E+00  0.5445E-09  0.4961E-13  0.1210E-09  0.0000E+00  0.2086E+16
   -1.787903    3.40150  0.0000E+00  0.1169E-08  0.1038E-12  0.3472E-09  0.0000E+00  0.1522E+16
   -1.856670    3.60000  0.0000E+00  0.2488E-08  0.2156E-12  0.1211E-08  0.0000E+00  0.9056E+15
   -1.925436    3.80150  0.0000E+00  0.5231E-08  0.4427E-12  0.8435E-08  0.0000E+00  0.2672E+15
   -1.994202    3.99643  0.0000E+00  0.6086E-08  0.5182E-12  0.2507E-04  0.0000E+00 -0.1878E+12
   -2.062968    3.99756  0.0000E+00  0.6482E-08  0.5628E-12  0.2641E-04  0.0000E+00 -0.2076E+12
   -2.131734    3.99869  0.0000E+00  0.6824E-08  0.6127E-12  0.2705E-04  0.0000E+00 -0.2238E+12
   -2.200499    3.99979  0.0000E+00  0.7116E-08  0.6702E-12  0.2686E-04  0.0000E+00 -0.2465E+12
   -2.269263    4.00092  0.0000E+00  0.7358E-08  0.7394E-12  0.2589E-04  0.0000E+00 -0.2799E+12
   -2.338027    4.00209  0.0000E+00  0.7555E-08  0.8293E-12  0.2403E-04  0.0000E+00 -0.3320E+12
   -2.406791    4.00338  0.0000E+00  0.7696E-08  0.9542E-12  0.2119E-04  0.0000E+00 -0.4186E+12
   -2.475554    4.00488  0.0000E+00  0.7761E-08  0.1145E-11  0.1732E-04  0.0000E+00 -0.5819E+12
   -2.544317    4.00679  0.0000E+00  0.7702E-08  0.1495E-11  0.1237E-04  0.0000E+00 -0.9745E+12
   -2.613079    4.00963  0.0000E+00  0.7365E-08  0.2382E-11  0.6448E-05  0.0000E+00 -0.2537E+13
   -2.681840    4.01577  0.0000E+00  0.5966E-08  0.7264E-11  0.1228E-05  0.0000E+00 -0.3256E+14
   -2.750601    4.05721  0.0000E+00  0.0000E+00  0.0000E+00  0.0000E+00  0.0000E+00  0.0000E+00
