 1 - depth, m
 2 - temperature, C
 3 - salinity, kg/kg
 4 - turbulent kinetic energy, m**2/s**2
 5 - dissipation rate, m**2/s**3
 6 - kinematic heat conductance, m**2/s
 7 - modulus of horizontal velocity, m/s
 8 - Richardson number, n/d
   -0.000000    0.00000  0.0000E+00  0.1385E-03  0.6284E-04  0.1071E-03  0.1195E+00  0.1230E-01
   -0.068753    0.00691  0.0000E+00  0.7353E-04  0.1496E-04  0.1150E-03  0.4519E-01  0.2466E-02
   -0.137507    0.01113  0.0000E+00  0.5115E-04  0.5393E-05  0.1198E-03  0.3393E-01  0.4264E-02
   -0.206261    0.01434  0.0000E+00  0.3816E-04  0.2258E-05  0.1307E-03  0.2733E-01  0.7151E-02
   -0.275015    0.01695  0.0000E+00  0.3052E-04  0.1078E-05  0.1432E-03  0.2270E-01  0.9159E-02
   -0.343771    0.01917  0.0000E+00  0.2547E-04  0.5852E-06  0.1565E-03  0.1902E-01  0.1180E-01
   -0.412527    0.02108  0.0000E+00  0.2179E-04  0.3551E-06  0.1683E-03  0.1608E-01  0.1521E-01
   -0.481283    0.02275  0.0000E+00  0.1883E-04  0.2335E-06  0.1768E-03  0.1369E-01  0.1962E-01
   -0.550040    0.02426  0.0000E+00  0.1629E-04  0.1614E-06  0.1830E-03  0.1170E-01  0.2672E-01
   -0.618797    0.02564  0.0000E+00  0.1409E-04  0.1157E-06  0.1850E-03  0.1006E-01  0.3584E-01
   -0.687555    0.02693  0.0000E+00  0.1219E-04  0.8499E-07  0.1834E-03  0.8685E-02  0.4778E-01
   -0.756312    0.02817  0.0000E+00  0.1051E-04  0.6351E-07  0.1787E-03  0.7513E-02  0.6374E-01
   -0.825071    0.02937  0.0000E+00  0.9042E-05  0.4800E-07  0.1715E-03  0.6504E-02  0.8576E-01
   -0.893829    0.03056  0.0000E+00  0.7745E-05  0.3657E-07  0.1623E-03  0.5633E-02  0.1176E+00
   -0.962588    0.03174  0.0000E+00  0.6613E-05  0.2806E-07  0.1520E-03  0.4882E-02  0.1676E+00
   -1.031347    0.03292  0.0000E+00  0.5641E-05  0.2172E-07  0.1383E-03  0.4242E-02  0.2187E+00
   -1.100106    0.03415  0.0000E+00  0.4794E-05  0.1690E-07  0.1237E-03  0.3665E-02  0.2899E+00
   -1.168865    0.03547  0.0000E+00  0.4050E-05  0.1319E-07  0.1086E-03  0.3142E-02  0.3944E+00
   -1.237625    0.03689  0.0000E+00  0.3396E-05  0.1030E-07  0.9325E-04  0.2668E-02  0.5546E+00
   -1.306384    0.03848  0.0000E+00  0.2820E-05  0.8030E-08  0.7793E-04  0.2238E-02  0.8157E+00
   -1.375144    0.04034  0.0000E+00  0.2312E-05  0.6240E-08  0.6280E-04  0.1844E-02  0.1296E+01
   -1.443903    0.04270  0.0000E+00  0.1858E-05  0.4799E-08  0.4787E-04  0.1479E-02  0.2278E+01
   -1.512662    0.04659  0.0000E+00  0.1442E-05  0.3595E-08  0.3655E-04  0.1116E-02  0.1189E+02
   -1.581422    0.05481  0.0000E+00  0.1079E-05  0.2610E-08  0.2854E-04  0.7881E-03  0.7303E+03
   -1.650181    0.08304  0.0000E+00  0.8160E-06  0.1900E-08  0.2225E-04  0.5315E-03  0.5435E+05
   -1.718940    0.11652  0.0000E+00  0.6219E-06  0.1387E-08  0.1702E-04  0.3747E-03  0.3835E+07
   -1.787699    0.14637  0.0000E+00  0.4698E-06  0.1003E-08  0.1254E-04  0.2677E-03  0.2503E+09
   -1.856458    0.17145  0.0000E+00  0.3455E-06  0.7065E-09  0.8768E-05  0.1896E-03  0.1630E+11
   -1.925216    0.19213  0.0000E+00  0.2443E-06  0.4773E-09  0.5916E-05  0.1284E-03  0.9011E+12
   -1.993975    0.20801  0.0000E+00  0.1713E-06  0.3169E-09  0.8280E-05  0.8168E-04  0.6853E+13
   -2.062732    0.21037  0.0000E+00  0.1147E-06  0.2044E-09  0.2319E-05  0.5237E-04  0.8203E+15
   -2.131490    0.24357  0.0000E+00  0.6934E-07  0.1206E-09  0.8642E-06  0.3154E-04  0.3670E+16
   -2.200247    0.33134  0.0000E+00  0.2868E-07  0.4942E-10  0.5456E-07  0.1636E-04  0.8021E+16
   -2.269004    0.52063  0.0000E+00  0.3839E-08  0.6715E-11  0.2991E-08  0.2064E-05  0.1238E+17
   -2.337760    0.83403  0.0000E+00  0.3247E-09  0.5926E-12  0.2127E-09  0.9630E-07  0.1682E+17
   -2.406516    1.31704  0.0000E+00  0.8812E-10  0.1332E-12  0.1063E-09  0.3584E-08  0.1997E+17
   -2.475272    2.00408  0.0000E+00  0.7570E-09  0.9864E-12  0.3749E-09  0.1114E-09  0.1812E+17
   -2.544026    2.88828  0.0000E+00  0.6348E-08  0.8619E-11  0.5265E-06  0.2600E-11  0.8961E+16
   -2.612780    3.77904  0.0000E+00  0.2497E-07  0.3828E-10  0.6280E-05  0.4556E-13  0.1585E+16
   -2.681534    4.15032  0.0000E+00  0.2777E-07  0.9412E-10  0.2437E-05  0.5299E-15 -0.1838E+15
   -2.750287    4.20354  0.0000E+00  0.0000E+00  0.0000E+00  0.0000E+00  0.5374E-15  0.0000E+00
