 1 - depth, m
 2 - temperature, C
 3 - salinity, kg/kg
 4 - turbulent kinetic energy, m**2/s**2
 5 - dissipation rate, m**2/s**3
 6 - kinematic heat conductance, m**2/s
 7 - modulus of horizontal velocity, m/s
 8 - Richardson number, n/d
   -0.000000    0.00000  0.0000E+00  0.1007E-06  0.4935E-09  0.2134E-07  0.0000E+00  0.8865E+17
   -0.068752    1.88890  0.0000E+00  0.7019E-06  0.3407E-09  0.2025E-04  0.0000E+00  0.2854E+17
   -0.137504    3.31445  0.0000E+00  0.9424E-06  0.3747E-09  0.5982E-03  0.0000E+00  0.7985E+16
   -0.206257    3.87244  0.0000E+00  0.1078E-05  0.3943E-09  0.9414E-03  0.0000E+00  0.2491E+16
   -0.275010    4.12513  0.0000E+00  0.1170E-05  0.4077E-09  0.1140E-02  0.0000E+00  0.9312E+15
   -0.343764    4.25768  0.0000E+00  0.1229E-05  0.4158E-09  0.1245E-02  0.0000E+00  0.3106E+15
   -0.412519    4.32850  0.0000E+00  0.1242E-05  0.4141E-09  0.1350E-02  0.0000E+00  0.6431E+13
   -0.481274    4.33619  0.0000E+00  0.1248E-05  0.4119E-09  0.1371E-02  0.0000E+00 -0.2786E+13
   -0.550029    4.33671  0.0000E+00  0.1254E-05  0.4105E-09  0.1375E-02  0.0000E+00 -0.2642E+13
   -0.618785    4.33720  0.0000E+00  0.1259E-05  0.4098E-09  0.1376E-02  0.0000E+00 -0.2593E+13
   -0.687542    4.33769  0.0000E+00  0.1264E-05  0.4097E-09  0.1375E-02  0.0000E+00 -0.2542E+13
   -0.756298    4.33817  0.0000E+00  0.1268E-05  0.4103E-09  0.1372E-02  0.0000E+00 -0.2514E+13
   -0.825055    4.33864  0.0000E+00  0.1272E-05  0.4114E-09  0.1368E-02  0.0000E+00 -0.2490E+13
   -0.893812    4.33910  0.0000E+00  0.1275E-05  0.4131E-09  0.1362E-02  0.0000E+00 -0.2491E+13
   -0.962570    4.33957  0.0000E+00  0.1278E-05  0.4153E-09  0.1344E-02  0.0000E+00 -0.2493E+13
   -1.031328    4.34003  0.0000E+00  0.1281E-05  0.4181E-09  0.1330E-02  0.0000E+00 -0.2523E+13
   -1.100085    4.34049  0.0000E+00  0.1283E-05  0.4215E-09  0.1316E-02  0.0000E+00 -0.2555E+13
   -1.168843    4.34097  0.0000E+00  0.1286E-05  0.4255E-09  0.1300E-02  0.0000E+00 -0.2608E+13
   -1.237601    4.34145  0.0000E+00  0.1287E-05  0.4301E-09  0.1309E-02  0.0000E+00 -0.2512E+13
   -1.306360    4.34193  0.0000E+00  0.1289E-05  0.4353E-09  0.1270E-02  0.0000E+00 -0.2787E+13
   -1.375118    4.34243  0.0000E+00  0.1290E-05  0.4411E-09  0.1273E-02  0.0000E+00 -0.2670E+13
   -1.443876    4.34293  0.0000E+00  0.1290E-05  0.4478E-09  0.1225E-02  0.0000E+00 -0.2956E+13
   -1.512634    4.34346  0.0000E+00  0.1290E-05  0.4552E-09  0.1231E-02  0.0000E+00 -0.2845E+13
   -1.581392    4.34399  0.0000E+00  0.1290E-05  0.4637E-09  0.1173E-02  0.0000E+00 -0.3148E+13
   -1.650150    4.34456  0.0000E+00  0.1289E-05  0.4733E-09  0.1178E-02  0.0000E+00 -0.3056E+13
   -1.718908    4.34513  0.0000E+00  0.1288E-05  0.4843E-09  0.1112E-02  0.0000E+00 -0.3410E+13
   -1.787666    4.34573  0.0000E+00  0.1286E-05  0.4969E-09  0.1114E-02  0.0000E+00 -0.3343E+13
   -1.856423    4.34635  0.0000E+00  0.1283E-05  0.5114E-09  0.1039E-02  0.0000E+00 -0.3751E+13
   -1.925180    4.34702  0.0000E+00  0.1280E-05  0.5281E-09  0.1007E-02  0.0000E+00 -0.3899E+13
   -1.993937    4.34772  0.0000E+00  0.1276E-05  0.5475E-09  0.9999E-03  0.0000E+00 -0.3938E+13
   -2.062694    4.34845  0.0000E+00  0.1271E-05  0.5702E-09  0.9093E-03  0.0000E+00 -0.4519E+13
   -2.131450    4.34925  0.0000E+00  0.1265E-05  0.5972E-09  0.8675E-03  0.0000E+00 -0.4771E+13
   -2.200206    4.35010  0.0000E+00  0.1257E-05  0.6299E-09  0.8142E-03  0.0000E+00 -0.5182E+13
   -2.268961    4.35102  0.0000E+00  0.1248E-05  0.6704E-09  0.7568E-03  0.0000E+00 -0.5671E+13
   -2.337717    4.35203  0.0000E+00  0.1237E-05  0.7235E-09  0.6922E-03  0.0000E+00 -0.6318E+13
   -2.406471    4.35315  0.0000E+00  0.1223E-05  0.7959E-09  0.6224E-03  0.0000E+00 -0.7167E+13
   -2.475225    4.35441  0.0000E+00  0.1205E-05  0.9008E-09  0.5406E-03  0.0000E+00 -0.8487E+13
   -2.543979    4.35590  0.0000E+00  0.1180E-05  0.1072E-08  0.4557E-03  0.0000E+00 -0.1037E+14
   -2.612732    4.35771  0.0000E+00  0.1133E-05  0.1471E-08  0.2919E-03  0.0000E+00 -0.1649E+14
   -2.681484    4.36066  0.0000E+00  0.7162E-06  0.6490E-08  0.1146E-04  0.0000E+00 -0.4804E+15
   -2.750235    4.43712  0.0000E+00  0.0000E+00  0.0000E+00  0.0000E+00  0.0000E+00  0.0000E+00
