 1 - depth, m
 2 - temperature, C
 3 - salinity, kg/kg
 4 - turbulent kinetic energy, m**2/s**2
 5 - dissipation rate, m**2/s**3
 6 - kinematic heat conductance, m**2/s
 7 - modulus of horizontal velocity, m/s
 8 - Richardson number, n/d
   -0.000000    0.00000  0.0000E+00  0.1219E-13  0.7604E-17  0.1000E-09  0.0000E+00  0.1017E+17
   -0.068735    0.15574  0.0000E+00  0.1219E-13  0.7604E-17  0.1000E-09  0.0000E+00  0.9429E+16
   -0.137471    0.30649  0.0000E+00  0.1219E-13  0.7604E-17  0.1000E-09  0.0000E+00  0.8735E+16
   -0.206207    0.45224  0.0000E+00  0.1219E-13  0.7604E-17  0.1000E-09  0.0000E+00  0.8080E+16
   -0.274944    0.59299  0.0000E+00  0.1219E-13  0.7604E-17  0.1000E-09  0.0000E+00  0.7496E+16
   -0.343681    0.72931  0.0000E+00  0.1219E-13  0.7604E-17  0.1000E-09  0.0000E+00  0.6952E+16
   -0.412419    0.86136  0.0000E+00  0.1219E-13  0.7604E-17  0.1000E-09  0.0000E+00  0.6441E+16
   -0.481157    0.98918  0.0000E+00  0.1219E-13  0.7604E-17  0.1000E-09  0.0000E+00  0.5956E+16
   -0.549896    1.11269  0.0000E+00  0.1219E-13  0.7604E-17  0.1000E-09  0.0000E+00  0.5483E+16
   -0.618635    1.23154  0.0000E+00  0.1219E-13  0.7604E-17  0.1000E-09  0.0000E+00  0.5038E+16
   -0.687375    1.34567  0.0000E+00  0.1219E-13  0.7604E-17  0.1000E-09  0.0000E+00  0.4682E+16
   -0.756115    1.45655  0.0000E+00  0.1219E-13  0.7604E-17  0.1000E-09  0.0000E+00  0.4380E+16
   -0.824855    1.56509  0.0000E+00  0.1219E-13  0.7604E-17  0.1000E-09  0.0000E+00  0.4092E+16
   -0.893595    1.67128  0.0000E+00  0.1219E-13  0.7604E-17  0.1000E-09  0.0000E+00  0.3817E+16
   -0.962336    1.77510  0.0000E+00  0.1219E-13  0.7604E-17  0.1000E-09  0.0000E+00  0.3553E+16
   -1.031077    1.87650  0.0000E+00  0.1219E-13  0.7604E-17  0.1000E-09  0.0000E+00  0.3307E+16
   -1.099818    1.97562  0.0000E+00  0.1219E-13  0.7604E-17  0.1000E-09  0.0000E+00  0.3071E+16
   -1.168560    2.07243  0.0000E+00  0.1219E-13  0.7604E-17  0.1000E-09  0.0000E+00  0.2846E+16
   -1.237301    2.16688  0.0000E+00  0.1219E-13  0.7604E-17  0.1000E-09  0.0000E+00  0.2630E+16
   -1.306042    2.25891  0.0000E+00  0.1219E-13  0.7604E-17  0.1000E-09  0.0000E+00  0.2425E+16
   -1.374784    2.34845  0.0000E+00  0.1219E-13  0.7604E-17  0.1000E-09  0.0000E+00  0.2259E+16
   -1.443525    2.43667  0.0000E+00  0.1219E-13  0.7604E-17  0.1000E-09  0.0000E+00  0.2109E+16
   -1.512267    2.52394  0.0000E+00  0.1219E-13  0.7604E-17  0.1000E-09  0.0000E+00  0.1966E+16
   -1.581008    2.61038  0.0000E+00  0.1219E-13  0.7604E-17  0.1000E-09  0.0000E+00  0.1827E+16
   -1.649750    2.69601  0.0000E+00  0.1219E-13  0.7604E-17  0.1000E-09  0.0000E+00  0.1690E+16
   -1.718491    2.78077  0.0000E+00  0.1219E-13  0.7604E-17  0.1000E-09  0.0000E+00  0.1556E+16
   -1.787232    2.86457  0.0000E+00  0.1219E-13  0.7604E-17  0.1000E-09  0.0000E+00  0.1424E+16
   -1.855972    2.94730  0.0000E+00  0.1219E-13  0.7604E-17  0.1000E-09  0.0000E+00  0.1296E+16
   -1.924713    3.02886  0.0000E+00  0.1219E-13  0.7604E-17  0.1000E-09  0.0000E+00  0.1170E+16
   -1.993453    3.10911  0.0000E+00  0.1219E-13  0.7604E-17  0.1000E-09  0.0000E+00  0.1048E+16
   -2.062193    3.18791  0.0000E+00  0.1219E-13  0.7604E-17  0.1000E-09  0.0000E+00  0.9516E+15
   -2.130933    3.26701  0.0000E+00  0.1219E-13  0.7604E-17  0.1000E-09  0.0000E+00  0.8578E+15
   -2.199672    3.34674  0.0000E+00  0.1219E-13  0.7604E-17  0.1000E-09  0.0000E+00  0.7628E+15
   -2.268411    3.42722  0.0000E+00  0.1221E-13  0.9384E-17  0.1000E-09  0.0000E+00  0.6783E+15
   -2.337149    3.51019  0.0000E+00  0.5322E-13  0.5729E-16  0.1000E-09  0.0000E+00  0.5935E+15
   -2.405887    3.59717  0.0000E+00  0.4785E-12  0.5117E-15  0.1000E-09  0.0000E+00  0.5007E+15
   -2.474624    3.68992  0.0000E+00  0.4396E-11  0.4660E-14  0.1000E-09  0.0000E+00  0.3931E+15
   -2.543361    3.79174  0.0000E+00  0.4136E-10  0.4390E-13  0.7380E-09  0.0000E+00  0.2524E+15
   -2.612097    3.91081  0.0000E+00  0.3997E-09  0.4356E-12  0.3062E-07  0.0000E+00  0.2146E+14
   -2.680833    4.04076  0.0000E+00  0.3206E-08  0.4805E-11  0.7099E-06  0.0000E+00 -0.6022E+14
   -2.749568    4.08957  0.0000E+00  0.0000E+00  0.0000E+00  0.0000E+00  0.0000E+00  0.0000E+00
