 1 - depth, m
 2 - temperature, C
 3 - salinity, kg/kg
 4 - turbulent kinetic energy, m**2/s**2
 5 - dissipation rate, m**2/s**3
 6 - kinematic heat conductance, m**2/s
 7 - modulus of horizontal velocity, m/s
 8 - Richardson number, n/d
   -0.000000    0.00000  0.0000E+00  0.1219E-13  0.7604E-17  0.1000E-09  0.0000E+00  0.9964E+16
   -0.068757    0.15259  0.0000E+00  0.1219E-13  0.7604E-17  0.1000E-09  0.0000E+00  0.9316E+16
   -0.137514    0.30136  0.0000E+00  0.1219E-13  0.7604E-17  0.1000E-09  0.0000E+00  0.8688E+16
   -0.206273    0.44610  0.0000E+00  0.1219E-13  0.7604E-17  0.1000E-09  0.0000E+00  0.8082E+16
   -0.275031    0.58660  0.0000E+00  0.1219E-13  0.7604E-17  0.1000E-09  0.0000E+00  0.7526E+16
   -0.343791    0.72321  0.0000E+00  0.1219E-13  0.7604E-17  0.1000E-09  0.0000E+00  0.6999E+16
   -0.412551    0.85590  0.0000E+00  0.1219E-13  0.7604E-17  0.1000E-09  0.0000E+00  0.6496E+16
   -0.481311    0.98458  0.0000E+00  0.1219E-13  0.7604E-17  0.1000E-09  0.0000E+00  0.6012E+16
   -0.550072    1.10908  0.0000E+00  0.1219E-13  0.7604E-17  0.1000E-09  0.0000E+00  0.5538E+16
   -0.618833    1.22899  0.0000E+00  0.1219E-13  0.7604E-17  0.1000E-09  0.0000E+00  0.5090E+16
   -0.687594    1.34420  0.0000E+00  0.1219E-13  0.7604E-17  0.1000E-09  0.0000E+00  0.4725E+16
   -0.756356    1.45605  0.0000E+00  0.1219E-13  0.7604E-17  0.1000E-09  0.0000E+00  0.4412E+16
   -0.825118    1.56538  0.0000E+00  0.1219E-13  0.7604E-17  0.1000E-09  0.0000E+00  0.4115E+16
   -0.893881    1.67217  0.0000E+00  0.1219E-13  0.7604E-17  0.1000E-09  0.0000E+00  0.3830E+16
   -0.962644    1.77640  0.0000E+00  0.1219E-13  0.7604E-17  0.1000E-09  0.0000E+00  0.3559E+16
   -1.031407    1.87804  0.0000E+00  0.1219E-13  0.7604E-17  0.1000E-09  0.0000E+00  0.3305E+16
   -1.100170    1.97719  0.0000E+00  0.1219E-13  0.7604E-17  0.1000E-09  0.0000E+00  0.3063E+16
   -1.168933    2.07383  0.0000E+00  0.1219E-13  0.7604E-17  0.1000E-09  0.0000E+00  0.2833E+16
   -1.237696    2.16791  0.0000E+00  0.1219E-13  0.7604E-17  0.1000E-09  0.0000E+00  0.2613E+16
   -1.306460    2.25938  0.0000E+00  0.1219E-13  0.7604E-17  0.1000E-09  0.0000E+00  0.2404E+16
   -1.375223    2.34815  0.0000E+00  0.1219E-13  0.7604E-17  0.1000E-09  0.0000E+00  0.2235E+16
   -1.443987    2.43537  0.0000E+00  0.1219E-13  0.7604E-17  0.1000E-09  0.0000E+00  0.2081E+16
   -1.512750    2.52139  0.0000E+00  0.1219E-13  0.7604E-17  0.1000E-09  0.0000E+00  0.1936E+16
   -1.581513    2.60633  0.0000E+00  0.1219E-13  0.7604E-17  0.1000E-09  0.0000E+00  0.1797E+16
   -1.650277    2.69024  0.0000E+00  0.1219E-13  0.7604E-17  0.1000E-09  0.0000E+00  0.1660E+16
   -1.719040    2.77306  0.0000E+00  0.1219E-13  0.7604E-17  0.1000E-09  0.0000E+00  0.1528E+16
   -1.787803    2.85471  0.0000E+00  0.1219E-13  0.7604E-17  0.1000E-09  0.0000E+00  0.1399E+16
   -1.856565    2.93511  0.0000E+00  0.1219E-13  0.7604E-17  0.1000E-09  0.0000E+00  0.1273E+16
   -1.925328    3.01416  0.0000E+00  0.1219E-13  0.7604E-17  0.1000E-09  0.0000E+00  0.1152E+16
   -1.994090    3.09177  0.0000E+00  0.1219E-13  0.7604E-17  0.1000E-09  0.0000E+00  0.1034E+16
   -2.062852    3.16779  0.0000E+00  0.1219E-13  0.7604E-17  0.1000E-09  0.0000E+00  0.9432E+15
   -2.131613    3.24399  0.0000E+00  0.1219E-13  0.7604E-17  0.1000E-09  0.0000E+00  0.8561E+15
   -2.200375    3.32076  0.0000E+00  0.1219E-13  0.7604E-17  0.1000E-09  0.0000E+00  0.7686E+15
   -2.269135    3.39827  0.0000E+00  0.1219E-13  0.7614E-17  0.1000E-09  0.0000E+00  0.6925E+15
   -2.337896    3.47824  0.0000E+00  0.2319E-13  0.2669E-16  0.1000E-09  0.0000E+00  0.6175E+15
   -2.406656    3.56220  0.0000E+00  0.2116E-12  0.2480E-15  0.1000E-09  0.0000E+00  0.5365E+15
   -2.475415    3.65197  0.0000E+00  0.2083E-11  0.2432E-14  0.1000E-09  0.0000E+00  0.4435E+15
   -2.544174    3.75089  0.0000E+00  0.2111E-10  0.2476E-13  0.3266E-09  0.0000E+00  0.3243E+15
   -2.612932    3.86743  0.0000E+00  0.2226E-09  0.2673E-12  0.8113E-08  0.0000E+00  0.1048E+15
   -2.681689    4.01392  0.0000E+00  0.2286E-08  0.3167E-11  0.5529E-06  0.0000E+00 -0.5171E+14
   -2.750446    4.07217  0.0000E+00  0.0000E+00  0.0000E+00  0.0000E+00  0.0000E+00  0.0000E+00
