 1 - depth, m
 2 - temperature, C
 3 - salinity, kg/kg
 4 - turbulent kinetic energy, m**2/s**2
 5 - dissipation rate, m**2/s**3
 6 - kinematic heat conductance, m**2/s
 7 - modulus of horizontal velocity, m/s
 8 - Richardson number, n/d
   -0.000000    6.01578  0.0000E+00  0.6288E-04  0.2823E-03  0.6134E-04  0.5631E-01 -0.9185E-01
   -0.068760    6.07967  0.0000E+00  0.3444E-04  0.1159E-03  0.9244E-04  0.2310E-01 -0.5376E+00
   -0.137520    6.09640  0.0000E+00  0.2468E-04  0.4854E-04  0.1332E-03  0.1702E-01  0.3248E+02
   -0.206281    6.10819  0.0000E+00  0.1842E-04  0.1426E-04  0.1701E-03  0.1338E-01  0.1083E+02
   -0.275042    6.11761  0.0000E+00  0.1464E-04  0.2216E-05  0.2093E-03  0.1083E-01  0.7889E+01
   -0.343804    6.12550  0.0000E+00  0.1247E-04  0.2766E-06  0.2505E-03  0.8814E-02  0.6368E+01
   -0.412566    6.13191  0.0000E+00  0.1106E-04  0.1056E-06  0.2920E-03  0.7244E-02  0.1469E+02
   -0.481329    6.13728  0.0000E+00  0.9962E-05  0.7057E-07  0.3340E-03  0.6032E-02  0.5477E+02
   -0.550093    6.14187  0.0000E+00  0.9047E-05  0.5162E-07  0.3765E-03  0.5061E-02  0.5099E+01
   -0.618857    6.14584  0.0000E+00  0.8276E-05  0.3927E-07  0.4189E-03  0.4287E-02  0.1058E+02
   -0.687621    6.14933  0.0000E+00  0.7624E-05  0.3072E-07  0.4629E-03  0.3657E-02  0.6386E+01
   -0.756385    6.15240  0.0000E+00  0.7072E-05  0.2458E-07  0.5093E-03  0.3139E-02  0.5328E+01
   -0.825150    6.15511  0.0000E+00  0.6605E-05  0.2006E-07  0.5644E-03  0.2711E-02  0.1288E+03
   -0.893915    6.15747  0.0000E+00  0.6213E-05  0.1668E-07  0.6555E-03  0.2356E-02  0.1259E+03
   -0.962681    6.15938  0.0000E+00  0.5897E-05  0.1419E-07  0.7865E-03  0.2066E-02  0.1008E+03
   -1.031446    6.16086  0.0000E+00  0.5640E-05  0.1232E-07  0.8714E-03  0.1837E-02  0.4720E+02
   -1.100212    6.16210  0.0000E+00  0.5424E-05  0.1086E-07  0.9418E-03  0.1638E-02  0.2496E+02
   -1.168978    6.16317  0.0000E+00  0.5239E-05  0.9695E-08  0.9996E-03  0.1464E-02  0.2727E+02
   -1.237744    6.16413  0.0000E+00  0.5076E-05  0.8743E-08  0.1040E-02  0.1309E-02  0.1367E+02
   -1.306510    6.16501  0.0000E+00  0.4929E-05  0.7950E-08  0.1071E-02  0.1167E-02  0.4429E+01
   -1.375276    6.16584  0.0000E+00  0.4795E-05  0.7282E-08  0.1094E-02  0.1038E-02  0.3489E+01
   -1.444042    6.16664  0.0000E+00  0.4670E-05  0.6714E-08  0.1112E-02  0.9188E-03  0.3608E+01
   -1.512808    6.16740  0.0000E+00  0.4554E-05  0.6232E-08  0.1127E-02  0.8084E-03  0.3637E+01
   -1.581574    6.16814  0.0000E+00  0.4444E-05  0.5824E-08  0.1137E-02  0.7094E-03  0.3730E+01
   -1.650340    6.16886  0.0000E+00  0.4340E-05  0.5482E-08  0.1143E-02  0.6221E-03  0.3917E+01
   -1.719105    6.16956  0.0000E+00  0.4243E-05  0.5199E-08  0.1143E-02  0.5454E-03  0.4206E+01
   -1.787871    6.17024  0.0000E+00  0.4152E-05  0.4970E-08  0.1138E-02  0.4782E-03  0.4587E+01
   -1.856636    6.17092  0.0000E+00  0.4067E-05  0.4788E-08  0.1128E-02  0.4194E-03  0.5110E+01
   -1.925401    6.17158  0.0000E+00  0.3987E-05  0.4651E-08  0.1112E-02  0.3681E-03  0.5779E+01
   -1.994166    6.17224  0.0000E+00  0.3912E-05  0.4556E-08  0.1090E-02  0.3233E-03  0.6676E+01
   -2.062931    6.17290  0.0000E+00  0.3841E-05  0.4501E-08  0.1063E-02  0.2843E-03  0.7836E+01
   -2.131695    6.17356  0.0000E+00  0.3774E-05  0.4484E-08  0.1030E-02  0.2502E-03  0.9407E+01
   -2.200459    6.17422  0.0000E+00  0.3711E-05  0.4507E-08  0.9929E-03  0.2200E-03  0.1176E+02
   -2.269222    6.17489  0.0000E+00  0.3647E-05  0.4576E-08  0.9480E-03  0.1923E-03  0.1520E+02
   -2.337985    6.17558  0.0000E+00  0.3580E-05  0.4708E-08  0.8920E-03  0.1669E-03  0.2115E+02
   -2.406748    6.17629  0.0000E+00  0.3506E-05  0.4932E-08  0.8231E-03  0.1432E-03  0.3213E+02
   -2.475510    6.17705  0.0000E+00  0.3424E-05  0.5305E-08  0.7362E-03  0.1210E-03  0.5381E+02
   -2.544271    6.17787  0.0000E+00  0.3325E-05  0.5967E-08  0.6459E-03  0.1002E-03  0.1116E+03
   -2.613032    6.17880  0.0000E+00  0.3160E-05  0.7640E-08  0.4316E-03  0.8157E-04  0.8528E+03
   -2.681792    6.18017  0.0000E+00  0.1937E-05  0.2819E-07  0.1836E-04  0.5821E-04 -0.4563E+05
   -2.750552    6.21138  0.0000E+00  0.0000E+00  0.0000E+00  0.0000E+00  0.5815E-04  0.0000E+00
