 1 - depth, m
 2 - temperature, C
 3 - salinity, kg/kg
 4 - turbulent kinetic energy, m**2/s**2
 5 - dissipation rate, m**2/s**3
 6 - kinematic heat conductance, m**2/s
 7 - modulus of horizontal velocity, m/s
 8 - Richardson number, n/d
   -0.000000    0.94817  0.0000E+00  0.2700E-03  0.2418E-03  0.6803E-04  0.1794E+00 -0.7133E-01
   -0.037494    0.98675  0.0000E+00  0.1508E-03  0.6448E-04  0.1427E-03  0.6108E-01  0.2524E-02
   -0.074989    0.99408  0.0000E+00  0.1092E-03  0.2535E-04  0.1621E-03  0.4321E-01  0.2851E-01
   -0.112484    0.99904  0.0000E+00  0.8721E-04  0.1350E-04  0.1646E-03  0.3619E-01  0.5399E-02
   -0.149979    1.00232  0.0000E+00  0.7220E-04  0.7704E-05  0.1689E-03  0.3147E-01  0.4376E-02
   -0.187475    1.00482  0.0000E+00  0.6123E-04  0.4659E-05  0.1745E-03  0.2773E-01  0.1924E-02
   -0.224971    1.00695  0.0000E+00  0.5301E-04  0.2962E-05  0.1807E-03  0.2459E-01  0.6800E-02
   -0.262467    1.00885  0.0000E+00  0.4643E-04  0.1946E-05  0.1875E-03  0.2190E-01  0.7597E-02
   -0.299963    1.01057  0.0000E+00  0.4117E-04  0.1319E-05  0.1942E-03  0.1962E-01  0.1959E-01
   -0.337460    1.01218  0.0000E+00  0.3689E-04  0.9298E-06  0.2002E-03  0.1764E-01  0.1139E-01
   -0.374957    1.01370  0.0000E+00  0.3328E-04  0.6810E-06  0.2051E-03  0.1590E-01  0.1399E-01
   -0.412454    1.01518  0.0000E+00  0.3021E-04  0.5181E-06  0.2091E-03  0.1436E-01  0.1745E-01
   -0.449951    1.01661  0.0000E+00  0.2756E-04  0.4068E-06  0.2118E-03  0.1297E-01  0.2128E-01
   -0.487449    1.01801  0.0000E+00  0.2519E-04  0.3268E-06  0.2132E-03  0.1172E-01  0.2606E-01
   -0.524946    1.01938  0.0000E+00  0.2305E-04  0.2667E-06  0.2147E-03  0.1058E-01  0.3387E-01
   -0.562444    1.02074  0.0000E+00  0.2110E-04  0.2202E-06  0.2147E-03  0.9566E-02  0.4392E-01
   -0.599941    1.02208  0.0000E+00  0.1932E-04  0.1834E-06  0.2133E-03  0.8649E-02  0.5691E-01
   -0.637439    1.02343  0.0000E+00  0.1768E-04  0.1537E-06  0.2108E-03  0.7818E-02  0.7377E-01
   -0.674937    1.02479  0.0000E+00  0.1618E-04  0.1296E-06  0.2071E-03  0.7061E-02  0.9579E-01
   -0.712435    1.02617  0.0000E+00  0.1480E-04  0.1097E-06  0.2022E-03  0.6369E-02  0.1248E+00
   -0.749933    1.02759  0.0000E+00  0.1352E-04  0.9318E-07  0.1963E-03  0.5734E-02  0.1637E+00
   -0.787431    1.02905  0.0000E+00  0.1234E-04  0.7938E-07  0.1893E-03  0.5150E-02  0.2167E+00
   -0.824928    1.03056  0.0000E+00  0.1124E-04  0.6778E-07  0.1813E-03  0.4612E-02  0.2906E+00
   -0.862426    1.03215  0.0000E+00  0.1023E-04  0.5798E-07  0.1723E-03  0.4115E-02  0.3967E+00
   -0.899924    1.03382  0.0000E+00  0.9284E-05  0.4967E-07  0.1623E-03  0.3654E-02  0.5553E+00
   -0.937422    1.03562  0.0000E+00  0.8406E-05  0.4257E-07  0.1513E-03  0.3225E-02  0.8064E+00
   -0.974919    1.03756  0.0000E+00  0.7583E-05  0.3647E-07  0.1391E-03  0.2823E-02  0.1233E+01
   -1.012417    1.03972  0.0000E+00  0.6806E-05  0.3116E-07  0.1277E-03  0.2442E-02  0.2716E+01
   -1.049914    1.04209  0.0000E+00  0.6076E-05  0.2656E-07  0.1156E-03  0.2097E-02  0.7806E+01
   -1.087411    1.04471  0.0000E+00  0.5393E-05  0.2257E-07  0.1025E-03  0.1786E-02  0.2498E+02
   -1.124908    1.04770  0.0000E+00  0.4756E-05  0.1911E-07  0.8890E-04  0.1507E-02  0.1318E+03
   -1.162405    1.05121  0.0000E+00  0.4162E-05  0.1612E-07  0.7472E-04  0.1254E-02  0.9079E+03
   -1.199902    1.05556  0.0000E+00  0.3608E-05  0.1354E-07  0.6015E-04  0.1025E-02  0.9055E+04
   -1.237398    1.06141  0.0000E+00  0.3090E-05  0.1129E-07  0.4559E-04  0.8141E-03  0.2278E+06
   -1.274894    1.07096  0.0000E+00  0.2581E-05  0.9246E-08  0.3188E-04  0.6178E-03  0.3568E+08
   -1.312390    1.10015  0.0000E+00  0.2045E-05  0.7255E-08  0.1986E-04  0.4422E-03  0.7486E+10
   -1.349886    1.25381  0.0000E+00  0.1508E-05  0.5337E-08  0.9766E-05  0.2895E-03  0.6907E+12
   -1.387381    1.57958  0.0000E+00  0.9793E-06  0.3491E-08  0.2618E-05  0.1678E-03  0.4595E+14
   -1.424876    2.11604  0.0000E+00  0.4404E-06  0.1693E-08  0.1620E-06  0.7219E-04  0.9167E+14
   -1.462371    2.92629  0.0000E+00  0.9869E-07  0.9688E-09  0.1275E-06  0.1013E-04  0.6304E+13
   -1.499865    3.58274  0.0000E+00  0.0000E+00  0.0000E+00  0.0000E+00  0.1064E-04  0.0000E+00
