 1 - depth, m
 2 - temperature, C
 3 - salinity, kg/kg
 4 - turbulent kinetic energy, m**2/s**2
 5 - dissipation rate, m**2/s**3
 6 - kinematic heat conductance, m**2/s
 7 - modulus of horizontal velocity, m/s
 8 - Richardson number, n/d
   -0.000000    2.81589  0.0000E+00  0.5386E-04  0.1077E-03  0.3572E-04  0.5565E-01  0.5273E-02
   -0.037498    2.85209  0.0000E+00  0.3247E-04  0.8436E-04  0.5306E-04  0.2471E-01  0.7313E-02
   -0.074996    2.86153  0.0000E+00  0.2525E-04  0.7134E-04  0.5778E-04  0.1926E-01  0.1289E-01
   -0.112495    2.86864  0.0000E+00  0.2056E-04  0.4869E-04  0.6416E-04  0.1611E-01  0.1898E-01
   -0.149993    2.87473  0.0000E+00  0.1699E-04  0.2343E-04  0.7007E-04  0.1371E-01  0.2785E-01
   -0.187493    2.88029  0.0000E+00  0.1429E-04  0.8016E-05  0.7477E-04  0.1176E-01  0.3913E-01
   -0.224992    2.88555  0.0000E+00  0.1230E-04  0.2394E-05  0.7796E-04  0.1012E-01  0.5438E-01
   -0.262492    2.89072  0.0000E+00  0.1072E-04  0.7576E-06  0.8041E-04  0.8729E-02  0.8298E-01
   -0.299992    2.89600  0.0000E+00  0.9410E-05  0.2839E-06  0.8181E-04  0.7552E-02  0.1361E+00
   -0.337492    2.90188  0.0000E+00  0.8303E-05  0.1353E-06  0.8232E-04  0.6544E-02  0.2646E+00
   -0.374992    2.91019  0.0000E+00  0.7350E-05  0.8126E-07  0.8217E-04  0.5670E-02  0.8422E+00
   -0.412493    2.92226  0.0000E+00  0.6521E-05  0.5685E-07  0.8128E-04  0.4918E-02  0.4410E+01
   -0.449993    2.93336  0.0000E+00  0.5785E-05  0.4302E-07  0.7959E-04  0.4272E-02  0.3135E+02
   -0.487494    2.94305  0.0000E+00  0.5121E-05  0.3372E-07  0.7720E-04  0.3706E-02  0.2770E+03
   -0.524995    2.95213  0.0000E+00  0.4516E-05  0.2680E-07  0.7472E-04  0.3206E-02  0.2955E+04
   -0.562496    2.96031  0.0000E+00  0.3969E-05  0.2144E-07  0.7154E-04  0.2774E-02  0.3410E+05
   -0.599998    2.96790  0.0000E+00  0.3474E-05  0.1719E-07  0.6777E-04  0.2398E-02  0.4041E+06
   -0.637499    2.97498  0.0000E+00  0.3028E-05  0.1379E-07  0.6348E-04  0.2069E-02  0.4601E+07
   -0.675000    2.98138  0.0000E+00  0.2626E-05  0.1105E-07  0.5871E-04  0.1779E-02  0.4580E+08
   -0.712502    2.98678  0.0000E+00  0.2264E-05  0.8844E-08  0.5353E-04  0.1523E-02  0.3300E+09
   -0.750003    2.99051  0.0000E+00  0.1939E-05  0.7052E-08  0.4791E-04  0.1298E-02  0.2214E+11
   -0.787504    2.99625  0.0000E+00  0.1647E-05  0.5598E-08  0.4194E-04  0.1099E-02  0.1206E+13
   -0.825006    3.00815  0.0000E+00  0.1388E-05  0.4417E-08  0.3569E-04  0.9228E-03  0.4931E+14
   -0.862507    3.03792  0.0000E+00  0.1160E-05  0.3459E-08  0.2923E-04  0.7669E-03  0.2054E+15
   -0.900008    3.10372  0.0000E+00  0.9576E-06  0.2681E-08  0.2875E-04  0.6288E-03  0.1032E+15
   -0.937510    3.17548  0.0000E+00  0.7769E-06  0.2050E-08  0.2906E-04  0.5059E-03  0.1522E+14
   -0.975011    3.24968  0.0000E+00  0.6132E-06  0.1530E-08  0.2903E-04  0.3951E-03 -0.6887E+12
   -1.012512    3.32963  0.0000E+00  0.4539E-06  0.1070E-08  0.2930E-04  0.2889E-03 -0.9491E+12
   -1.050012    3.43544  0.0000E+00  0.2807E-06  0.5964E-09  0.3135E-04  0.1850E-03 -0.9725E+12
   -1.087513    3.67351  0.0000E+00  0.1548E-06  0.2391E-09  0.3450E-04  0.6676E-04 -0.1046E+13
   -1.125014    3.95763  0.0000E+00  0.1277E-06  0.1355E-09  0.4161E-04  0.1386E-04 -0.1106E+13
   -1.162514    4.07343  0.0000E+00  0.1272E-06  0.1149E-09  0.4833E-04  0.3949E-05 -0.1179E+13
   -1.200014    4.09118  0.0000E+00  0.1284E-06  0.1097E-09  0.5256E-04  0.1935E-05 -0.1258E+13
   -1.237514    4.09817  0.0000E+00  0.1294E-06  0.1096E-09  0.5421E-04  0.1029E-05 -0.1327E+13
   -1.275014    4.10432  0.0000E+00  0.1297E-06  0.1128E-09  0.5357E-04  0.5453E-06 -0.1513E+13
   -1.312513    4.11024  0.0000E+00  0.1290E-06  0.1190E-09  0.5062E-04  0.2965E-06 -0.1789E+13
   -1.350012    4.11636  0.0000E+00  0.1270E-06  0.1294E-09  0.4554E-04  0.1611E-06 -0.2191E+13
   -1.387511    4.12313  0.0000E+00  0.1226E-06  0.1486E-09  0.3639E-04  0.8373E-07 -0.2927E+13
   -1.425010    4.13177  0.0000E+00  0.1124E-06  0.1956E-09  0.1836E-04  0.3657E-07 -0.6932E+13
   -1.462508    4.14847  0.0000E+00  0.7728E-07  0.4393E-09  0.2896E-05  0.1264E-07 -0.8017E+14
   -1.500006    4.24584  0.0000E+00  0.0000E+00  0.0000E+00  0.0000E+00  0.1272E-07  0.0000E+00
