 1 - depth, m
 2 - temperature, C
 3 - salinity, kg/kg
 4 - turbulent kinetic energy, m**2/s**2
 5 - dissipation rate, m**2/s**3
 6 - kinematic heat conductance, m**2/s
 7 - modulus of horizontal velocity, m/s
 8 - Richardson number, n/d
   -0.000000    4.36469  0.0000E+00  0.1127E-02  0.6721E-02  0.1372E-03  0.5007E+00  0.5573E-03
   -0.037497    4.42819  0.0000E+00  0.5749E-03  0.3283E-02  0.1965E-03  0.1717E+00  0.3102E-01
   -0.074995    4.45508  0.0000E+00  0.3501E-03  0.6920E-03  0.3115E-03  0.1009E+00 -0.1207E-01
   -0.112493    4.46595  0.0000E+00  0.2761E-03  0.3998E-03  0.3472E-03  0.7486E-01 -0.1288E-02
   -0.149991    4.47031  0.0000E+00  0.2299E-03  0.2659E-03  0.3488E-03  0.6047E-01 -0.9649E-03
   -0.187490    4.47307  0.0000E+00  0.1940E-03  0.1730E-03  0.3468E-03  0.5160E-01 -0.6111E-03
   -0.224989    4.47501  0.0000E+00  0.1670E-03  0.1139E-03  0.3531E-03  0.4533E-01 -0.3998E-02
   -0.262488    4.47664  0.0000E+00  0.1457E-03  0.7482E-04  0.3591E-03  0.4046E-01 -0.2510E-02
   -0.299987    4.47790  0.0000E+00  0.1290E-03  0.4949E-04  0.3683E-03  0.3653E-01 -0.1922E-02
   -0.337487    4.47901  0.0000E+00  0.1161E-03  0.3290E-04  0.3755E-03  0.3343E-01 -0.5145E-03
   -0.374987    4.47997  0.0000E+00  0.1051E-03  0.2196E-04  0.3834E-03  0.3070E-01 -0.8181E-03
   -0.412487    4.48093  0.0000E+00  0.9643E-04  0.1476E-04  0.3945E-03  0.2829E-01 -0.1232E-02
   -0.449987    4.48187  0.0000E+00  0.8927E-04  0.1008E-04  0.4034E-03  0.2613E-01 -0.1132E-01
   -0.487487    4.48273  0.0000E+00  0.8298E-04  0.6993E-05  0.4077E-03  0.2409E-01 -0.1682E-03
   -0.524988    4.48387  0.0000E+00  0.7688E-04  0.4907E-05  0.4207E-03  0.2180E-01 -0.1925E-02
   -0.562489    4.48474  0.0000E+00  0.7179E-04  0.3541E-05  0.4304E-03  0.2015E-01 -0.3370E-02
   -0.599989    4.48556  0.0000E+00  0.6733E-04  0.2613E-05  0.4380E-03  0.1869E-01 -0.3755E-02
   -0.637490    4.48642  0.0000E+00  0.6325E-04  0.1972E-05  0.4450E-03  0.1735E-01 -0.5674E-02
   -0.674991    4.48723  0.0000E+00  0.5957E-04  0.1526E-05  0.4515E-03  0.1614E-01 -0.7532E-02
   -0.712492    4.48804  0.0000E+00  0.5622E-04  0.1208E-05  0.4576E-03  0.1501E-01 -0.9696E-02
   -0.749993    4.48884  0.0000E+00  0.5314E-04  0.9780E-06  0.4624E-03  0.1397E-01 -0.1233E-01
   -0.787493    4.48965  0.0000E+00  0.5030E-04  0.8083E-06  0.4657E-03  0.1300E-01 -0.1570E-01
   -0.824994    4.49047  0.0000E+00  0.4766E-04  0.6805E-06  0.4684E-03  0.1210E-01 -0.1997E-01
   -0.862495    4.49131  0.0000E+00  0.4519E-04  0.5822E-06  0.4694E-03  0.1125E-01 -0.2532E-01
   -0.899996    4.49216  0.0000E+00  0.4286E-04  0.5050E-06  0.4680E-03  0.1045E-01 -0.3195E-01
   -0.937497    4.49303  0.0000E+00  0.4064E-04  0.4432E-06  0.4655E-03  0.9688E-02 -0.4013E-01
   -0.974997    4.49394  0.0000E+00  0.3852E-04  0.3929E-06  0.4600E-03  0.8964E-02 -0.5011E-01
   -1.012498    4.49489  0.0000E+00  0.3647E-04  0.3513E-06  0.4556E-03  0.8264E-02 -0.7007E-01
   -1.049998    4.49586  0.0000E+00  0.3448E-04  0.3165E-06  0.4489E-03  0.7617E-02 -0.1010E+00
   -1.087498    4.49685  0.0000E+00  0.3255E-04  0.2873E-06  0.4391E-03  0.7014E-02 -0.1474E+00
   -1.124998    4.49789  0.0000E+00  0.3067E-04  0.2629E-06  0.4256E-03  0.6448E-02 -0.2186E+00
   -1.162498    4.49899  0.0000E+00  0.2881E-04  0.2428E-06  0.4082E-03  0.5911E-02 -0.3268E+00
   -1.199998    4.50015  0.0000E+00  0.2698E-04  0.2268E-06  0.3861E-03  0.5398E-02 -0.4883E+00
   -1.237497    4.50142  0.0000E+00  0.2514E-04  0.2153E-06  0.3592E-03  0.4902E-02 -0.6762E+00
   -1.274996    4.50281  0.0000E+00  0.2324E-04  0.2088E-06  0.3287E-03  0.4419E-02  0.9863E+00
   -1.312495    4.50434  0.0000E+00  0.2122E-04  0.2100E-06  0.2896E-03  0.3967E-02  0.2295E+01
   -1.349994    4.50609  0.0000E+00  0.1898E-04  0.2247E-06  0.2408E-03  0.3538E-02  0.2009E+03
   -1.387492    4.50822  0.0000E+00  0.1636E-04  0.2684E-06  0.1811E-03  0.3124E-02  0.4706E+03
   -1.424990    4.51110  0.0000E+00  0.1300E-04  0.3908E-06  0.1096E-03  0.2712E-02 -0.7103E+02
   -1.462488    4.51602  0.0000E+00  0.7167E-05  0.9382E-06  0.2285E-04  0.2289E-02 -0.9664E+05
   -1.499985    4.54718  0.0000E+00  0.0000E+00  0.0000E+00  0.0000E+00  0.2454E-02  0.0000E+00
