 1 - depth, m
 2 - temperature, C
 3 - salinity, kg/kg
 4 - turbulent kinetic energy, m**2/s**2
 5 - dissipation rate, m**2/s**3
 6 - kinematic heat conductance, m**2/s
 7 - modulus of horizontal velocity, m/s
 8 - Richardson number, n/d
   -0.000000    0.00000  0.0000E+00  0.5170E-10  0.3774E-13  0.1000E-09  0.0000E+00  0.2533E+17
   -0.037499    0.40152  0.0000E+00  0.1228E-09  0.3346E-13  0.1000E-09  0.0000E+00  0.2141E+17
   -0.074998    0.78260  0.0000E+00  0.2584E-09  0.4537E-13  0.1000E-09  0.0000E+00  0.1806E+17
   -0.112498    1.14577  0.0000E+00  0.4825E-09  0.7166E-13  0.1000E-09  0.0000E+00  0.1516E+17
   -0.149998    1.49335  0.0000E+00  0.8469E-09  0.1173E-12  0.1000E-09  0.0000E+00  0.1264E+17
   -0.187498    1.82746  0.0000E+00  0.1441E-08  0.1927E-12  0.1000E-09  0.0000E+00  0.1043E+17
   -0.224999    2.15014  0.0000E+00  0.2414E-08  0.3152E-12  0.1126E-09  0.0000E+00  0.8466E+16
   -0.262500    2.46343  0.0000E+00  0.4005E-08  0.5131E-12  0.2124E-09  0.0000E+00  0.6709E+16
   -0.300001    2.76945  0.0000E+00  0.6606E-08  0.8317E-12  0.4517E-09  0.0000E+00  0.5111E+16
   -0.337502    3.07061  0.0000E+00  0.1084E-07  0.1342E-11  0.1029E-08  0.0000E+00  0.3621E+16
   -0.375004    3.36939  0.0000E+00  0.1769E-07  0.2156E-11  0.2764E-08  0.0000E+00  0.2188E+16
   -0.412506    3.66772  0.0000E+00  0.2859E-07  0.3431E-11  0.1463E-07  0.0000E+00  0.7792E+15
   -0.450008    3.94982  0.0000E+00  0.3406E-07  0.4098E-11  0.5893E-04  0.0000E+00  0.4887E+14
   -0.487510    4.01845  0.0000E+00  0.3454E-07  0.4163E-11  0.9810E-04  0.0000E+00 -0.2292E+12
   -0.525012    4.01890  0.0000E+00  0.3485E-07  0.4212E-11  0.9735E-04  0.0000E+00 -0.2341E+12
   -0.562514    4.01936  0.0000E+00  0.3513E-07  0.4265E-11  0.9760E-04  0.0000E+00 -0.2359E+12
   -0.600016    4.01982  0.0000E+00  0.3538E-07  0.4322E-11  0.9769E-04  0.0000E+00 -0.2385E+12
   -0.637519    4.02028  0.0000E+00  0.3561E-07  0.4384E-11  0.9757E-04  0.0000E+00 -0.2417E+12
   -0.675021    4.02073  0.0000E+00  0.3581E-07  0.4449E-11  0.9724E-04  0.0000E+00 -0.2455E+12
   -0.712524    4.02118  0.0000E+00  0.3598E-07  0.4520E-11  0.9670E-04  0.0000E+00 -0.2501E+12
   -0.750027    4.02164  0.0000E+00  0.3612E-07  0.4596E-11  0.9595E-04  0.0000E+00 -0.2545E+12
   -0.787529    4.02210  0.0000E+00  0.3623E-07  0.4679E-11  0.9498E-04  0.0000E+00 -0.2594E+12
   -0.825032    4.02256  0.0000E+00  0.3631E-07  0.4769E-11  0.9378E-04  0.0000E+00 -0.2651E+12
   -0.862534    4.02303  0.0000E+00  0.3636E-07  0.4867E-11  0.9235E-04  0.0000E+00 -0.2717E+12
   -0.900037    4.02350  0.0000E+00  0.3638E-07  0.4974E-11  0.9068E-04  0.0000E+00 -0.2794E+12
   -0.937539    4.02398  0.0000E+00  0.3637E-07  0.5092E-11  0.8876E-04  0.0000E+00 -0.2884E+12
   -0.975041    4.02447  0.0000E+00  0.3631E-07  0.5223E-11  0.8659E-04  0.0000E+00 -0.2988E+12
   -1.012544    4.02497  0.0000E+00  0.3622E-07  0.5369E-11  0.8414E-04  0.0000E+00 -0.3112E+12
   -1.050046    4.02548  0.0000E+00  0.3609E-07  0.5536E-11  0.8137E-04  0.0000E+00 -0.3261E+12
   -1.087548    4.02601  0.0000E+00  0.3591E-07  0.5727E-11  0.7829E-04  0.0000E+00 -0.3437E+12
   -1.125049    4.02656  0.0000E+00  0.3568E-07  0.5948E-11  0.7487E-04  0.0000E+00 -0.3638E+12
   -1.162551    4.02714  0.0000E+00  0.3539E-07  0.6208E-11  0.7107E-04  0.0000E+00 -0.3880E+12
   -1.200052    4.02774  0.0000E+00  0.3503E-07  0.6517E-11  0.6687E-04  0.0000E+00 -0.4179E+12
   -1.237553    4.02838  0.0000E+00  0.3459E-07  0.6893E-11  0.6220E-04  0.0000E+00 -0.4560E+12
   -1.275054    4.02907  0.0000E+00  0.3405E-07  0.7370E-11  0.5704E-04  0.0000E+00 -0.5062E+12
   -1.312555    4.02982  0.0000E+00  0.3331E-07  0.8053E-11  0.5053E-04  0.0000E+00 -0.5819E+12
   -1.350055    4.03067  0.0000E+00  0.3213E-07  0.9238E-11  0.3217E-04  0.0000E+00 -0.9388E+12
   -1.387555    4.03201  0.0000E+00  0.3014E-07  0.1155E-10  0.1894E-04  0.0000E+00 -0.1664E+13
   -1.425055    4.03429  0.0000E+00  0.2652E-07  0.1693E-10  0.8612E-05  0.0000E+00 -0.3949E+13
   -1.462554    4.03931  0.0000E+00  0.1666E-07  0.4201E-10  0.1089E-05  0.0000E+00 -0.4017E+14
   -1.500053    4.07549  0.0000E+00  0.0000E+00  0.0000E+00  0.0000E+00  0.0000E+00  0.0000E+00
