 1 - depth, m
 2 - temperature, C
 3 - salinity, kg/kg
 4 - turbulent kinetic energy, m**2/s**2
 5 - dissipation rate, m**2/s**3
 6 - kinematic heat conductance, m**2/s
 7 - modulus of horizontal velocity, m/s
 8 - Richardson number, n/d
   -0.000000    0.00000  0.0000E+00  0.4096E-13  0.8590E-16  0.1000E-09  0.0000E+00  0.9040E+16
   -0.037501    0.13817  0.0000E+00  0.4096E-13  0.8590E-16  0.1000E-09  0.0000E+00  0.8652E+16
   -0.075003    0.27556  0.0000E+00  0.4096E-13  0.8590E-16  0.1000E-09  0.0000E+00  0.8268E+16
   -0.112505    0.41210  0.0000E+00  0.4096E-13  0.8590E-16  0.1000E-09  0.0000E+00  0.7888E+16
   -0.150007    0.54772  0.0000E+00  0.4096E-13  0.8590E-16  0.1000E-09  0.0000E+00  0.7511E+16
   -0.187510    0.68236  0.0000E+00  0.4096E-13  0.8590E-16  0.1000E-09  0.0000E+00  0.7140E+16
   -0.225013    0.81594  0.0000E+00  0.4096E-13  0.8590E-16  0.1000E-09  0.0000E+00  0.6773E+16
   -0.262516    0.94838  0.0000E+00  0.4096E-13  0.8590E-16  0.1000E-09  0.0000E+00  0.6408E+16
   -0.300020    1.07952  0.0000E+00  0.4096E-13  0.8590E-16  0.1000E-09  0.0000E+00  0.6048E+16
   -0.337523    1.20927  0.0000E+00  0.4096E-13  0.8590E-16  0.1000E-09  0.0000E+00  0.5695E+16
   -0.375027    1.33753  0.0000E+00  0.4096E-13  0.8590E-16  0.1000E-09  0.0000E+00  0.5363E+16
   -0.412531    1.46454  0.0000E+00  0.4096E-13  0.8590E-16  0.1000E-09  0.0000E+00  0.5045E+16
   -0.450036    1.59044  0.0000E+00  0.4096E-13  0.8590E-16  0.1000E-09  0.0000E+00  0.4733E+16
   -0.487540    1.71514  0.0000E+00  0.4096E-13  0.8590E-16  0.1000E-09  0.0000E+00  0.4426E+16
   -0.525045    1.83857  0.0000E+00  0.4096E-13  0.8590E-16  0.1000E-09  0.0000E+00  0.4124E+16
   -0.562549    1.96059  0.0000E+00  0.4096E-13  0.8590E-16  0.1000E-09  0.0000E+00  0.3830E+16
   -0.600054    2.08111  0.0000E+00  0.4096E-13  0.8590E-16  0.1000E-09  0.0000E+00  0.3542E+16
   -0.637559    2.20005  0.0000E+00  0.4096E-13  0.8590E-16  0.1000E-09  0.0000E+00  0.3263E+16
   -0.675064    2.31732  0.0000E+00  0.4096E-13  0.8590E-16  0.1000E-09  0.0000E+00  0.2991E+16
   -0.712568    2.43283  0.0000E+00  0.4096E-13  0.8590E-16  0.1000E-09  0.0000E+00  0.2729E+16
   -0.750073    2.54648  0.0000E+00  0.4096E-13  0.8590E-16  0.1000E-09  0.0000E+00  0.2488E+16
   -0.787578    2.65874  0.0000E+00  0.4096E-13  0.8590E-16  0.1000E-09  0.0000E+00  0.2257E+16
   -0.825083    2.76974  0.0000E+00  0.4096E-13  0.8590E-16  0.1000E-09  0.0000E+00  0.2033E+16
   -0.862588    2.87942  0.0000E+00  0.1225E-12  0.8597E-16  0.1000E-09  0.0000E+00  0.1816E+16
   -0.900093    2.98770  0.0000E+00  0.3696E-12  0.1531E-15  0.1000E-09  0.0000E+00  0.1605E+16
   -0.937598    3.09451  0.0000E+00  0.9144E-12  0.3354E-15  0.1000E-09  0.0000E+00  0.1402E+16
   -0.975102    3.19977  0.0000E+00  0.2113E-11  0.7416E-15  0.1000E-09  0.0000E+00  0.1207E+16
   -1.012607    3.30338  0.0000E+00  0.4769E-11  0.1627E-14  0.1000E-09  0.0000E+00  0.1017E+16
   -1.050111    3.40509  0.0000E+00  0.1066E-10  0.3546E-14  0.1000E-09  0.0000E+00  0.8363E+15
   -1.087615    3.50471  0.0000E+00  0.2364E-10  0.7675E-14  0.1000E-09  0.0000E+00  0.6646E+15
   -1.125119    3.60203  0.0000E+00  0.5203E-10  0.1649E-13  0.1001E-09  0.0000E+00  0.5109E+15
   -1.162623    3.69858  0.0000E+00  0.1137E-09  0.3520E-13  0.2688E-09  0.0000E+00  0.3614E+15
   -1.200127    3.79443  0.0000E+00  0.2465E-09  0.7463E-13  0.9552E-09  0.0000E+00  0.2150E+15
   -1.237630    3.88918  0.0000E+00  0.5297E-09  0.1570E-12  0.5789E-08  0.0000E+00  0.7366E+14
   -1.275134    3.98017  0.0000E+00  0.1055E-08  0.3096E-12  0.6575E-06  0.0000E+00 -0.6154E+12
   -1.312637    3.99755  0.0000E+00  0.1614E-08  0.5345E-12  0.1742E-05  0.0000E+00 -0.1668E+13
   -1.350139    4.00473  0.0000E+00  0.2014E-08  0.7872E-12  0.1875E-05  0.0000E+00 -0.2343E+13
   -1.387642    4.01157  0.0000E+00  0.2246E-08  0.1133E-11  0.1563E-05  0.0000E+00 -0.3836E+13
   -1.425144    4.01990  0.0000E+00  0.2218E-08  0.1739E-11  0.9139E-06  0.0000E+00 -0.8863E+13
   -1.462645    4.03385  0.0000E+00  0.1765E-08  0.3355E-11  0.2365E-06  0.0000E+00 -0.4386E+14
   -1.500147    4.07499  0.0000E+00  0.0000E+00  0.0000E+00  0.0000E+00  0.0000E+00  0.0000E+00
