 1 - depth, m
 2 - temperature, C
 3 - salinity, kg/kg
 4 - turbulent kinetic energy, m**2/s**2
 5 - dissipation rate, m**2/s**3
 6 - kinematic heat conductance, m**2/s
 7 - modulus of horizontal velocity, m/s
 8 - Richardson number, n/d
   -0.000000    0.00000  0.0000E+00  0.4096E-13  0.8590E-16  0.1000E-09  0.0000E+00  0.9934E+16
   -0.037498    0.15211  0.0000E+00  0.4096E-13  0.8590E-16  0.1000E-09  0.0000E+00  0.9405E+16
   -0.074996    0.30231  0.0000E+00  0.4096E-13  0.8590E-16  0.1000E-09  0.0000E+00  0.8895E+16
   -0.112495    0.45062  0.0000E+00  0.4096E-13  0.8590E-16  0.1000E-09  0.0000E+00  0.8403E+16
   -0.149994    0.59704  0.0000E+00  0.4096E-13  0.8590E-16  0.1000E-09  0.0000E+00  0.7927E+16
   -0.187494    0.74158  0.0000E+00  0.4096E-13  0.8590E-16  0.1000E-09  0.0000E+00  0.7467E+16
   -0.224993    0.88424  0.0000E+00  0.4096E-13  0.8590E-16  0.1000E-09  0.0000E+00  0.7021E+16
   -0.262493    1.02499  0.0000E+00  0.4096E-13  0.8590E-16  0.1000E-09  0.0000E+00  0.6586E+16
   -0.299993    1.16371  0.0000E+00  0.4096E-13  0.8590E-16  0.1000E-09  0.0000E+00  0.6164E+16
   -0.337493    1.30034  0.0000E+00  0.4096E-13  0.8590E-16  0.1000E-09  0.0000E+00  0.5756E+16
   -0.374994    1.43485  0.0000E+00  0.4096E-13  0.8590E-16  0.1000E-09  0.0000E+00  0.5384E+16
   -0.412495    1.56773  0.0000E+00  0.4096E-13  0.8590E-16  0.1000E-09  0.0000E+00  0.5036E+16
   -0.449996    1.69928  0.0000E+00  0.4096E-13  0.8590E-16  0.1000E-09  0.0000E+00  0.4697E+16
   -0.487497    1.82947  0.0000E+00  0.4096E-13  0.8590E-16  0.1000E-09  0.0000E+00  0.4366E+16
   -0.524998    1.95827  0.0000E+00  0.4096E-13  0.8590E-16  0.1000E-09  0.0000E+00  0.4043E+16
   -0.562499    2.08556  0.0000E+00  0.4096E-13  0.8590E-16  0.1000E-09  0.0000E+00  0.3728E+16
   -0.600001    2.21131  0.0000E+00  0.4096E-13  0.8590E-16  0.1000E-09  0.0000E+00  0.3423E+16
   -0.637502    2.33544  0.0000E+00  0.5031E-13  0.8590E-16  0.1000E-09  0.0000E+00  0.3128E+16
   -0.675004    2.45790  0.0000E+00  0.2226E-12  0.9416E-16  0.1000E-09  0.0000E+00  0.2842E+16
   -0.712505    2.57862  0.0000E+00  0.5781E-12  0.1754E-15  0.1000E-09  0.0000E+00  0.2566E+16
   -0.750007    2.69752  0.0000E+00  0.1276E-11  0.3533E-15  0.1000E-09  0.0000E+00  0.2314E+16
   -0.787508    2.81532  0.0000E+00  0.2666E-11  0.7096E-15  0.1000E-09  0.0000E+00  0.2074E+16
   -0.825010    2.93224  0.0000E+00  0.5443E-11  0.1411E-14  0.1000E-09  0.0000E+00  0.1839E+16
   -0.862512    3.04823  0.0000E+00  0.1099E-10  0.2784E-14  0.1000E-09  0.0000E+00  0.1609E+16
   -0.900013    3.16325  0.0000E+00  0.2200E-10  0.5451E-14  0.1000E-09  0.0000E+00  0.1385E+16
   -0.937514    3.27724  0.0000E+00  0.4374E-10  0.1060E-13  0.1000E-09  0.0000E+00  0.1166E+16
   -0.975016    3.39016  0.0000E+00  0.8638E-10  0.2050E-13  0.1000E-09  0.0000E+00  0.9541E+15
   -1.012517    3.50193  0.0000E+00  0.1699E-09  0.3946E-13  0.1462E-09  0.0000E+00  0.7480E+15
   -1.050018    3.61244  0.0000E+00  0.3331E-09  0.7576E-13  0.3828E-09  0.0000E+00  0.5481E+15
   -1.087519    3.72144  0.0000E+00  0.6498E-09  0.1448E-12  0.1127E-08  0.0000E+00  0.3555E+15
   -1.125020    3.82846  0.0000E+00  0.1259E-08  0.2749E-12  0.4387E-08  0.0000E+00  0.1728E+15
   -1.162520    3.93254  0.0000E+00  0.2361E-08  0.5074E-12  0.6704E-07  0.0000E+00  0.1990E+14
   -1.200021    4.00505  0.0000E+00  0.3309E-08  0.7170E-12  0.6142E-05  0.0000E+00 -0.7520E+12
   -1.237521    4.00745  0.0000E+00  0.3758E-08  0.8490E-12  0.6477E-05  0.0000E+00 -0.8078E+12
   -1.275021    4.00977  0.0000E+00  0.4087E-08  0.9933E-12  0.6369E-05  0.0000E+00 -0.9233E+12
   -1.312520    4.01216  0.0000E+00  0.4302E-08  0.1169E-11  0.5805E-05  0.0000E+00 -0.1138E+13
   -1.350020    4.01483  0.0000E+00  0.4379E-08  0.1411E-11  0.4782E-05  0.0000E+00 -0.1567E+13
   -1.387519    4.01814  0.0000E+00  0.4258E-08  0.1803E-11  0.3324E-05  0.0000E+00 -0.2616E+13
   -1.425017    4.02302  0.0000E+00  0.3782E-08  0.2625E-11  0.1616E-05  0.0000E+00 -0.6581E+13
   -1.462516    4.03309  0.0000E+00  0.2679E-08  0.5289E-11  0.3166E-06  0.0000E+00 -0.4360E+14
   -1.500014    4.07440  0.0000E+00  0.0000E+00  0.0000E+00  0.0000E+00  0.0000E+00  0.0000E+00
