 1 - depth, m
 2 - temperature, C
 3 - salinity, kg/kg
 4 - turbulent kinetic energy, m**2/s**2
 5 - dissipation rate, m**2/s**3
 6 - kinematic heat conductance, m**2/s
 7 - modulus of horizontal velocity, m/s
 8 - Richardson number, n/d
   -0.000000    0.00000  0.0000E+00  0.4096E-13  0.8590E-16  0.1000E-09  0.0000E+00  0.9230E+16
   -0.037498    0.14112  0.0000E+00  0.4096E-13  0.8590E-16  0.1000E-09  0.0000E+00  0.8822E+16
   -0.074996    0.28137  0.0000E+00  0.4096E-13  0.8590E-16  0.1000E-09  0.0000E+00  0.8417E+16
   -0.112495    0.42066  0.0000E+00  0.4096E-13  0.8590E-16  0.1000E-09  0.0000E+00  0.8017E+16
   -0.149994    0.55893  0.0000E+00  0.4096E-13  0.8590E-16  0.1000E-09  0.0000E+00  0.7623E+16
   -0.187493    0.69609  0.0000E+00  0.4096E-13  0.8590E-16  0.1000E-09  0.0000E+00  0.7233E+16
   -0.224993    0.83208  0.0000E+00  0.4096E-13  0.8590E-16  0.1000E-09  0.0000E+00  0.6850E+16
   -0.262493    0.96682  0.0000E+00  0.4096E-13  0.8590E-16  0.1000E-09  0.0000E+00  0.6469E+16
   -0.299993    1.10013  0.0000E+00  0.4096E-13  0.8590E-16  0.1000E-09  0.0000E+00  0.6095E+16
   -0.337493    1.23193  0.0000E+00  0.4096E-13  0.8590E-16  0.1000E-09  0.0000E+00  0.5728E+16
   -0.374994    1.36211  0.0000E+00  0.4096E-13  0.8590E-16  0.1000E-09  0.0000E+00  0.5385E+16
   -0.412494    1.49096  0.0000E+00  0.4096E-13  0.8590E-16  0.1000E-09  0.0000E+00  0.5057E+16
   -0.449995    1.61862  0.0000E+00  0.4096E-13  0.8590E-16  0.1000E-09  0.0000E+00  0.4735E+16
   -0.487496    1.74502  0.0000E+00  0.4096E-13  0.8590E-16  0.1000E-09  0.0000E+00  0.4420E+16
   -0.524997    1.87007  0.0000E+00  0.4096E-13  0.8590E-16  0.1000E-09  0.0000E+00  0.4110E+16
   -0.562499    1.99364  0.0000E+00  0.4096E-13  0.8590E-16  0.1000E-09  0.0000E+00  0.3808E+16
   -0.600000    2.11565  0.0000E+00  0.4096E-13  0.8590E-16  0.1000E-09  0.0000E+00  0.3514E+16
   -0.637501    2.23600  0.0000E+00  0.4096E-13  0.8590E-16  0.1000E-09  0.0000E+00  0.3228E+16
   -0.675003    2.35460  0.0000E+00  0.4096E-13  0.8590E-16  0.1000E-09  0.0000E+00  0.2951E+16
   -0.712504    2.47136  0.0000E+00  0.4096E-13  0.8590E-16  0.1000E-09  0.0000E+00  0.2683E+16
   -0.750006    2.58618  0.0000E+00  0.4096E-13  0.8590E-16  0.1000E-09  0.0000E+00  0.2437E+16
   -0.787507    2.69954  0.0000E+00  0.4096E-13  0.8590E-16  0.1000E-09  0.0000E+00  0.2203E+16
   -0.825009    2.81158  0.0000E+00  0.1738E-12  0.9221E-16  0.1000E-09  0.0000E+00  0.1975E+16
   -0.862510    2.92223  0.0000E+00  0.4860E-12  0.1883E-15  0.1000E-09  0.0000E+00  0.1754E+16
   -0.900012    3.03139  0.0000E+00  0.1166E-11  0.4170E-15  0.1000E-09  0.0000E+00  0.1541E+16
   -0.937513    3.13900  0.0000E+00  0.2661E-11  0.9180E-15  0.1000E-09  0.0000E+00  0.1335E+16
   -0.975014    3.24496  0.0000E+00  0.5953E-11  0.1999E-14  0.1000E-09  0.0000E+00  0.1138E+16
   -1.012516    3.34918  0.0000E+00  0.1319E-10  0.4321E-14  0.1000E-09  0.0000E+00  0.9472E+15
   -1.050017    3.45141  0.0000E+00  0.2908E-10  0.9295E-14  0.1000E-09  0.0000E+00  0.7658E+15
   -1.087517    3.55146  0.0000E+00  0.6363E-10  0.1986E-13  0.1000E-09  0.0000E+00  0.5944E+15
   -1.125018    3.64917  0.0000E+00  0.1382E-09  0.4215E-13  0.2647E-09  0.0000E+00  0.4399E+15
   -1.162519    3.74600  0.0000E+00  0.2982E-09  0.8886E-13  0.8447E-09  0.0000E+00  0.2899E+15
   -1.200019    3.84191  0.0000E+00  0.6377E-09  0.1859E-12  0.3551E-08  0.0000E+00  0.1434E+15
   -1.237519    3.93558  0.0000E+00  0.1326E-08  0.3796E-12  0.5448E-07  0.0000E+00  0.1758E+14
   -1.275019    4.00466  0.0000E+00  0.2234E-08  0.6467E-12  0.3107E-05  0.0000E+00 -0.1344E+13
   -1.312518    4.00885  0.0000E+00  0.2692E-08  0.8442E-12  0.3306E-05  0.0000E+00 -0.1549E+13
   -1.350018    4.01288  0.0000E+00  0.2975E-08  0.1079E-11  0.3018E-05  0.0000E+00 -0.2027E+13
   -1.387517    4.01737  0.0000E+00  0.3055E-08  0.1418E-11  0.2277E-05  0.0000E+00 -0.3225E+13
   -1.425015    4.02341  0.0000E+00  0.2824E-08  0.2069E-11  0.1203E-05  0.0000E+00 -0.7572E+13
   -1.462514    4.03472  0.0000E+00  0.2092E-08  0.3999E-11  0.2650E-06  0.0000E+00 -0.4243E+14
   -1.500012    4.07443  0.0000E+00  0.0000E+00  0.0000E+00  0.0000E+00  0.0000E+00  0.0000E+00
