 1 - depth, m
 2 - temperature, C
 3 - salinity, kg/kg
 4 - turbulent kinetic energy, m**2/s**2
 5 - dissipation rate, m**2/s**3
 6 - kinematic heat conductance, m**2/s
 7 - modulus of horizontal velocity, m/s
 8 - Richardson number, n/d
   -0.000000    0.00000  0.0000E+00  0.1697E-10  0.8974E-14  0.1000E-09  0.0000E+00  0.2334E+17
   -0.037499    0.36819  0.0000E+00  0.3377E-10  0.7436E-14  0.1000E-09  0.0000E+00  0.2018E+17
   -0.074999    0.72212  0.0000E+00  0.6461E-10  0.8724E-14  0.1000E-09  0.0000E+00  0.1734E+17
   -0.112499    1.06227  0.0000E+00  0.1119E-09  0.1206E-13  0.1000E-09  0.0000E+00  0.1478E+17
   -0.149999    1.38905  0.0000E+00  0.1820E-09  0.1765E-13  0.1000E-09  0.0000E+00  0.1248E+17
   -0.187500    1.70279  0.0000E+00  0.2853E-09  0.2622E-13  0.1000E-09  0.0000E+00  0.1041E+17
   -0.225000    2.00379  0.0000E+00  0.4377E-09  0.3899E-13  0.1000E-09  0.0000E+00  0.8558E+16
   -0.262502    2.29234  0.0000E+00  0.6633E-09  0.5781E-13  0.1000E-09  0.0000E+00  0.6905E+16
   -0.300003    2.56870  0.0000E+00  0.9975E-09  0.8544E-13  0.1000E-09  0.0000E+00  0.5434E+16
   -0.337504    2.83308  0.0000E+00  0.1492E-08  0.1258E-12  0.1002E-09  0.0000E+00  0.4131E+16
   -0.375006    3.08573  0.0000E+00  0.2222E-08  0.1846E-12  0.1714E-09  0.0000E+00  0.2992E+16
   -0.412508    3.32769  0.0000E+00  0.3296E-08  0.2701E-12  0.3774E-09  0.0000E+00  0.1988E+16
   -0.450010    3.55948  0.0000E+00  0.4872E-08  0.3937E-12  0.9944E-09  0.0000E+00  0.1100E+16
   -0.487513    3.78038  0.0000E+00  0.7167E-08  0.5715E-12  0.4813E-08  0.0000E+00  0.3319E+15
   -0.525015    3.98470  0.0000E+00  0.7776E-08  0.6216E-12  0.1770E-04  0.0000E+00  0.9356E+12
   -0.562518    3.98987  0.0000E+00  0.8071E-08  0.6497E-12  0.2428E-04  0.0000E+00 -0.7067E+11
   -0.600020    3.99107  0.0000E+00  0.8335E-08  0.6782E-12  0.2874E-04  0.0000E+00 -0.7802E+11
   -0.637523    3.99207  0.0000E+00  0.8583E-08  0.7079E-12  0.3288E-04  0.0000E+00 -0.8135E+11
   -0.675026    3.99293  0.0000E+00  0.8811E-08  0.7382E-12  0.3627E-04  0.0000E+00 -0.8347E+11
   -0.712528    3.99371  0.0000E+00  0.9019E-08  0.7687E-12  0.3857E-04  0.0000E+00 -0.8633E+11
   -0.750031    3.99443  0.0000E+00  0.9209E-08  0.7995E-12  0.3948E-04  0.0000E+00 -0.9183E+11
   -0.787534    3.99512  0.0000E+00  0.9384E-08  0.8311E-12  0.3966E-04  0.0000E+00 -0.9892E+11
   -0.825037    3.99582  0.0000E+00  0.9550E-08  0.8647E-12  0.3967E-04  0.0000E+00 -0.1065E+12
   -0.862540    3.99651  0.0000E+00  0.9707E-08  0.9008E-12  0.3946E-04  0.0000E+00 -0.1147E+12
   -0.900042    3.99721  0.0000E+00  0.9856E-08  0.9397E-12  0.3909E-04  0.0000E+00 -0.1237E+12
   -0.937545    3.99791  0.0000E+00  0.9994E-08  0.9817E-12  0.3858E-04  0.0000E+00 -0.1334E+12
   -0.975047    3.99863  0.0000E+00  0.1012E-07  0.1027E-11  0.3793E-04  0.0000E+00 -0.1441E+12
   -1.012550    3.99935  0.0000E+00  0.1023E-07  0.1077E-11  0.3712E-04  0.0000E+00 -0.1562E+12
   -1.050052    4.00010  0.0000E+00  0.1033E-07  0.1132E-11  0.3613E-04  0.0000E+00 -0.1700E+12
   -1.087554    4.00086  0.0000E+00  0.1041E-07  0.1194E-11  0.3496E-04  0.0000E+00 -0.1860E+12
   -1.125056    4.00166  0.0000E+00  0.1047E-07  0.1263E-11  0.3357E-04  0.0000E+00 -0.2045E+12
   -1.162558    4.00249  0.0000E+00  0.1050E-07  0.1342E-11  0.3195E-04  0.0000E+00 -0.2267E+12
   -1.200059    4.00336  0.0000E+00  0.1050E-07  0.1435E-11  0.3009E-04  0.0000E+00 -0.2542E+12
   -1.237561    4.00429  0.0000E+00  0.1046E-07  0.1556E-11  0.2770E-04  0.0000E+00 -0.2922E+12
   -1.275062    4.00530  0.0000E+00  0.1035E-07  0.1732E-11  0.2208E-04  0.0000E+00 -0.3904E+12
   -1.312563    4.00657  0.0000E+00  0.1015E-07  0.1987E-11  0.1694E-04  0.0000E+00 -0.5483E+12
   -1.350063    4.00823  0.0000E+00  0.9776E-08  0.2379E-11  0.1233E-04  0.0000E+00 -0.8274E+12
   -1.387564    4.01052  0.0000E+00  0.9123E-08  0.3071E-11  0.7682E-05  0.0000E+00 -0.1504E+13
   -1.425064    4.01420  0.0000E+00  0.7850E-08  0.4671E-11  0.3311E-05  0.0000E+00 -0.4259E+13
   -1.462563    4.02266  0.0000E+00  0.5087E-08  0.1079E-10  0.4956E-06  0.0000E+00 -0.4360E+14
   -1.500062    4.06932  0.0000E+00  0.0000E+00  0.0000E+00  0.0000E+00  0.0000E+00  0.0000E+00
