 1 - depth, m
 2 - temperature, C
 3 - salinity, kg/kg
 4 - turbulent kinetic energy, m**2/s**2
 5 - dissipation rate, m**2/s**3
 6 - kinematic heat conductance, m**2/s
 7 - modulus of horizontal velocity, m/s
 8 - Richardson number, n/d
   -0.000000    0.00000  0.0000E+00  0.3851E-10  0.2564E-13  0.1000E-09  0.0000E+00  0.2428E+17
   -0.037493    0.38391  0.0000E+00  0.8672E-10  0.2212E-13  0.1000E-09  0.0000E+00  0.2085E+17
   -0.074987    0.75223  0.0000E+00  0.1772E-09  0.2850E-13  0.1000E-09  0.0000E+00  0.1782E+17
   -0.112481    1.10626  0.0000E+00  0.3225E-09  0.4303E-13  0.1000E-09  0.0000E+00  0.1512E+17
   -0.149975    1.44718  0.0000E+00  0.5509E-09  0.6790E-13  0.1000E-09  0.0000E+00  0.1271E+17
   -0.187470    1.77601  0.0000E+00  0.9105E-09  0.1079E-12  0.1000E-09  0.0000E+00  0.1055E+17
   -0.224964    2.09365  0.0000E+00  0.1479E-08  0.1710E-12  0.1000E-09  0.0000E+00  0.8605E+16
   -0.262459    2.40085  0.0000E+00  0.2379E-08  0.2702E-12  0.1096E-09  0.0000E+00  0.6847E+16
   -0.299955    2.69816  0.0000E+00  0.3806E-08  0.4254E-12  0.2250E-09  0.0000E+00  0.5252E+16
   -0.337450    2.98585  0.0000E+00  0.6062E-08  0.6677E-12  0.4874E-09  0.0000E+00  0.3806E+16
   -0.374946    3.26402  0.0000E+00  0.9620E-08  0.1044E-11  0.1161E-08  0.0000E+00  0.2500E+16
   -0.412442    3.53302  0.0000E+00  0.1520E-07  0.1628E-11  0.3437E-08  0.0000E+00  0.1317E+16
   -0.449938    3.79077  0.0000E+00  0.2374E-07  0.2509E-11  0.2376E-07  0.0000E+00  0.2955E+15
   -0.487434    4.01105  0.0000E+00  0.2427E-07  0.2569E-11  0.8139E-04  0.0000E+00 -0.1709E+12
   -0.524931    4.01149  0.0000E+00  0.2452E-07  0.2602E-11  0.7966E-04  0.0000E+00 -0.1767E+12
   -0.562427    4.01193  0.0000E+00  0.2475E-07  0.2637E-11  0.7992E-04  0.0000E+00 -0.1786E+12
   -0.599924    4.01238  0.0000E+00  0.2497E-07  0.2676E-11  0.8012E-04  0.0000E+00 -0.1808E+12
   -0.637421    4.01282  0.0000E+00  0.2517E-07  0.2718E-11  0.8015E-04  0.0000E+00 -0.1835E+12
   -0.674917    4.01326  0.0000E+00  0.2535E-07  0.2762E-11  0.8000E-04  0.0000E+00 -0.1868E+12
   -0.712414    4.01370  0.0000E+00  0.2551E-07  0.2811E-11  0.7966E-04  0.0000E+00 -0.1906E+12
   -0.749911    4.01414  0.0000E+00  0.2564E-07  0.2863E-11  0.7914E-04  0.0000E+00 -0.1947E+12
   -0.787408    4.01458  0.0000E+00  0.2576E-07  0.2919E-11  0.7843E-04  0.0000E+00 -0.1992E+12
   -0.824905    4.01503  0.0000E+00  0.2586E-07  0.2980E-11  0.7753E-04  0.0000E+00 -0.2045E+12
   -0.862401    4.01548  0.0000E+00  0.2593E-07  0.3047E-11  0.7643E-04  0.0000E+00 -0.2106E+12
   -0.899898    4.01594  0.0000E+00  0.2598E-07  0.3120E-11  0.7512E-04  0.0000E+00 -0.2176E+12
   -0.937395    4.01640  0.0000E+00  0.2601E-07  0.3200E-11  0.7360E-04  0.0000E+00 -0.2256E+12
   -0.974891    4.01688  0.0000E+00  0.2601E-07  0.3289E-11  0.7186E-04  0.0000E+00 -0.2349E+12
   -1.012387    4.01737  0.0000E+00  0.2598E-07  0.3388E-11  0.6989E-04  0.0000E+00 -0.2458E+12
   -1.049884    4.01787  0.0000E+00  0.2592E-07  0.3500E-11  0.6764E-04  0.0000E+00 -0.2588E+12
   -1.087380    4.01839  0.0000E+00  0.2582E-07  0.3628E-11  0.6513E-04  0.0000E+00 -0.2740E+12
   -1.124876    4.01893  0.0000E+00  0.2569E-07  0.3775E-11  0.6230E-04  0.0000E+00 -0.2917E+12
   -1.162372    4.01950  0.0000E+00  0.2551E-07  0.3948E-11  0.5916E-04  0.0000E+00 -0.3131E+12
   -1.199867    4.02010  0.0000E+00  0.2528E-07  0.4153E-11  0.5565E-04  0.0000E+00 -0.3396E+12
   -1.237362    4.02073  0.0000E+00  0.2499E-07  0.4401E-11  0.5173E-04  0.0000E+00 -0.3732E+12
   -1.274858    4.02142  0.0000E+00  0.2461E-07  0.4714E-11  0.4745E-04  0.0000E+00 -0.4170E+12
   -1.312352    4.02217  0.0000E+00  0.2406E-07  0.5189E-11  0.3989E-04  0.0000E+00 -0.5102E+12
   -1.349847    4.02307  0.0000E+00  0.2313E-07  0.6035E-11  0.2516E-04  0.0000E+00 -0.8395E+12
   -1.387341    4.02450  0.0000E+00  0.2163E-07  0.7592E-11  0.1531E-04  0.0000E+00 -0.1460E+13
   -1.424835    4.02687  0.0000E+00  0.1888E-07  0.1122E-10  0.6836E-05  0.0000E+00 -0.3603E+13
   -1.462329    4.03220  0.0000E+00  0.1169E-07  0.2760E-10  0.8491E-06  0.0000E+00 -0.3896E+14
   -1.499822    4.07048  0.0000E+00  0.0000E+00  0.0000E+00  0.0000E+00  0.0000E+00  0.0000E+00
