 1 - depth, m
 2 - temperature, C
 3 - salinity, kg/kg
 4 - turbulent kinetic energy, m**2/s**2
 5 - dissipation rate, m**2/s**3
 6 - kinematic heat conductance, m**2/s
 7 - modulus of horizontal velocity, m/s
 8 - Richardson number, n/d
   -0.000000    6.88992  0.0000E+00  0.1192E-03  0.4177E-04  0.5351E-04  0.9863E-01  0.1233E-02
   -0.037494    6.93190  0.0000E+00  0.7172E-04  0.1149E-04  0.9509E-04  0.3669E-01 -0.3896E-01
   -0.074988    6.93821  0.0000E+00  0.5441E-04  0.5370E-05  0.1050E-03  0.2797E-01 -0.2085E-01
   -0.112482    6.94284  0.0000E+00  0.4471E-04  0.3007E-05  0.1144E-03  0.2380E-01 -0.1248E-01
   -0.149977    6.94651  0.0000E+00  0.3793E-04  0.1828E-05  0.1251E-03  0.2071E-01 -0.1287E-01
   -0.187472    6.94961  0.0000E+00  0.3289E-04  0.1181E-05  0.1360E-03  0.1819E-01 -0.1644E-01
   -0.224968    6.95233  0.0000E+00  0.2898E-04  0.8038E-06  0.1462E-03  0.1607E-01 -0.2043E-01
   -0.262463    6.95479  0.0000E+00  0.2582E-04  0.5710E-06  0.1567E-03  0.1423E-01 -0.2587E-01
   -0.299959    6.95702  0.0000E+00  0.2322E-04  0.4210E-06  0.1665E-03  0.1265E-01 -0.3242E-01
   -0.337455    6.95908  0.0000E+00  0.2104E-04  0.3201E-06  0.1758E-03  0.1127E-01 -0.3804E-01
   -0.374952    6.96099  0.0000E+00  0.1918E-04  0.2496E-06  0.1864E-03  0.1007E-01  0.1540E+02
   -0.412448    6.96276  0.0000E+00  0.1756E-04  0.1986E-06  0.2018E-03  0.8999E-02  0.1724E+02
   -0.449945    6.96440  0.0000E+00  0.1614E-04  0.1607E-06  0.2160E-03  0.8052E-02  0.2477E+01
   -0.487442    6.96592  0.0000E+00  0.1487E-04  0.1317E-06  0.2298E-03  0.7203E-02  0.1936E+01
   -0.524939    6.96734  0.0000E+00  0.1372E-04  0.1090E-06  0.2443E-03  0.6439E-02  0.1193E+02
   -0.562436    6.96867  0.0000E+00  0.1267E-04  0.9096E-07  0.2588E-03  0.5762E-02  0.2806E+02
   -0.599933    6.96993  0.0000E+00  0.1173E-04  0.7653E-07  0.2740E-03  0.5157E-02  0.9127E+01
   -0.637430    6.97112  0.0000E+00  0.1088E-04  0.6485E-07  0.2880E-03  0.4616E-02  0.2402E+03
   -0.674928    6.97224  0.0000E+00  0.1010E-04  0.5531E-07  0.3005E-03  0.4131E-02  0.1164E+01
   -0.712425    6.97331  0.0000E+00  0.9398E-05  0.4747E-07  0.3093E-03  0.3695E-02  0.2146E+03
   -0.749922    6.97434  0.0000E+00  0.8759E-05  0.4097E-07  0.3233E-03  0.3302E-02  0.4058E+01
   -0.787420    6.97533  0.0000E+00  0.8179E-05  0.3558E-07  0.3348E-03  0.2948E-02  0.8868E+01
   -0.824917    6.97627  0.0000E+00  0.7652E-05  0.3108E-07  0.3510E-03  0.2628E-02  0.1979E+02
   -0.862414    6.97717  0.0000E+00  0.7171E-05  0.2731E-07  0.3715E-03  0.2339E-02  0.6649E+02
   -0.899912    6.97802  0.0000E+00  0.6732E-05  0.2414E-07  0.3974E-03  0.2076E-02  0.6893E+02
   -0.937409    6.97880  0.0000E+00  0.6328E-05  0.2146E-07  0.4401E-03  0.1837E-02  0.9342E+02
   -0.974906    6.97951  0.0000E+00  0.5955E-05  0.1919E-07  0.4897E-03  0.1618E-02  0.4124E+03
   -1.012403    6.98013  0.0000E+00  0.5603E-05  0.1725E-07  0.5257E-03  0.1414E-02  0.6184E+02
   -1.049900    6.98069  0.0000E+00  0.5267E-05  0.1557E-07  0.5324E-03  0.1229E-02  0.3688E+01
   -1.087396    6.98123  0.0000E+00  0.4948E-05  0.1414E-07  0.5266E-03  0.1061E-02  0.7020E+01
   -1.124893    6.98177  0.0000E+00  0.4645E-05  0.1295E-07  0.5148E-03  0.9096E-03  0.1022E+01
   -1.162389    6.98232  0.0000E+00  0.4359E-05  0.1198E-07  0.4974E-03  0.7744E-03  0.9809E+00
   -1.199885    6.98289  0.0000E+00  0.4091E-05  0.1124E-07  0.4747E-03  0.6539E-03  0.8162E+00
   -1.237381    6.98350  0.0000E+00  0.3842E-05  0.1074E-07  0.4427E-03  0.5471E-03  0.7685E+00
   -1.274877    6.98414  0.0000E+00  0.3613E-05  0.1049E-07  0.4024E-03  0.4537E-03  0.7617E+00
   -1.312372    6.98486  0.0000E+00  0.3407E-05  0.1051E-07  0.3570E-03  0.3786E-03  0.9829E+00
   -1.349867    6.98566  0.0000E+00  0.3219E-05  0.1085E-07  0.3145E-03  0.3204E-03  0.1805E+01
   -1.387362    6.98658  0.0000E+00  0.3021E-05  0.1168E-07  0.2760E-03  0.2763E-03  0.5033E+01
   -1.424857    6.98765  0.0000E+00  0.2719E-05  0.1413E-07  0.1392E-03  0.2388E-03  0.7776E+02
   -1.462351    6.98977  0.0000E+00  0.1564E-05  0.3383E-07  0.1030E-04  0.1944E-03 -0.1273E+05
   -1.499845    7.01831  0.0000E+00  0.0000E+00  0.0000E+00  0.0000E+00  0.1939E-03  0.0000E+00
