 1 - depth, m
 2 - temperature, C
 3 - salinity, kg/kg
 4 - turbulent kinetic energy, m**2/s**2
 5 - dissipation rate, m**2/s**3
 6 - kinematic heat conductance, m**2/s
 7 - modulus of horizontal velocity, m/s
 8 - Richardson number, n/d
   -0.000000   12.30216  0.0000E+00  0.1340E-03  0.1477E-03  0.5645E-04  0.1042E+00 -0.2808E-01
   -0.037497   12.37368  0.0000E+00  0.7501E-04  0.4358E-04  0.7876E-04  0.4011E-01 -0.6441E-01
   -0.074995   12.39369  0.0000E+00  0.5448E-04  0.1519E-04  0.1041E-03  0.2818E-01 -0.3882E-01
   -0.112493   12.40500  0.0000E+00  0.4424E-04  0.8213E-05  0.1167E-03  0.2292E-01 -0.4817E-01
   -0.149991   12.41219  0.0000E+00  0.3733E-04  0.4718E-05  0.1317E-03  0.1947E-01 -0.6161E-01
   -0.187490   12.41772  0.0000E+00  0.3234E-04  0.2848E-05  0.1542E-03  0.1685E-01  0.4073E+02
   -0.224989   12.42222  0.0000E+00  0.2855E-04  0.1749E-05  0.1889E-03  0.1474E-01  0.1620E+02
   -0.262488   12.42605  0.0000E+00  0.2554E-04  0.1076E-05  0.2167E-03  0.1298E-01  0.1846E+02
   -0.299987   12.42935  0.0000E+00  0.2316E-04  0.6943E-06  0.2460E-03  0.1153E-01  0.1024E+02
   -0.337487   12.43217  0.0000E+00  0.2126E-04  0.4727E-06  0.2927E-03  0.1031E-01  0.1260E+03
   -0.374986   12.43455  0.0000E+00  0.1971E-04  0.3391E-06  0.3488E-03  0.9267E-02  0.8756E+02
   -0.412486   12.43655  0.0000E+00  0.1843E-04  0.2552E-06  0.3917E-03  0.8367E-02  0.2665E+02
   -0.449987   12.43829  0.0000E+00  0.1734E-04  0.2000E-06  0.4324E-03  0.7570E-02  0.1213E+03
   -0.487487   12.43981  0.0000E+00  0.1641E-04  0.1619E-06  0.4765E-03  0.6857E-02  0.9428E+02
   -0.524987   12.44116  0.0000E+00  0.1559E-04  0.1346E-06  0.5198E-03  0.6212E-02  0.7910E+02
   -0.562488   12.44234  0.0000E+00  0.1486E-04  0.1140E-06  0.5505E-03  0.5632E-02  0.2017E+02
   -0.599988   12.44340  0.0000E+00  0.1420E-04  0.9792E-07  0.5750E-03  0.5103E-02  0.9399E+02
   -0.637489   12.44436  0.0000E+00  0.1359E-04  0.8506E-07  0.5939E-03  0.4618E-02  0.2299E+02
   -0.674990   12.44527  0.0000E+00  0.1303E-04  0.7446E-07  0.6115E-03  0.4173E-02  0.2404E+02
   -0.712491   12.44613  0.0000E+00  0.1250E-04  0.6564E-07  0.6259E-03  0.3762E-02  0.1242E+02
   -0.749992   12.44696  0.0000E+00  0.1199E-04  0.5820E-07  0.6378E-03  0.3383E-02  0.4774E+02
   -0.787492   12.44776  0.0000E+00  0.1150E-04  0.5188E-07  0.6486E-03  0.3032E-02  0.1765E+02
   -0.824993   12.44853  0.0000E+00  0.1103E-04  0.4649E-07  0.6581E-03  0.2707E-02  0.6698E+01
   -0.862494   12.44929  0.0000E+00  0.1056E-04  0.4187E-07  0.6654E-03  0.2408E-02  0.9855E+01
   -0.899995   12.45004  0.0000E+00  0.1010E-04  0.3790E-07  0.6703E-03  0.2130E-02  0.3689E+01
   -0.937495   12.45077  0.0000E+00  0.9645E-05  0.3450E-07  0.6728E-03  0.1874E-02  0.3142E+01
   -0.974996   12.45150  0.0000E+00  0.9189E-05  0.3161E-07  0.6697E-03  0.1637E-02  0.2727E+01
   -1.012496   12.45223  0.0000E+00  0.8733E-05  0.2916E-07  0.6667E-03  0.1418E-02  0.2741E+01
   -1.049997   12.45296  0.0000E+00  0.8277E-05  0.2715E-07  0.6622E-03  0.1222E-02  0.1882E+01
   -1.087497   12.45369  0.0000E+00  0.7825E-05  0.2555E-07  0.6535E-03  0.1049E-02  0.1644E+01
   -1.124997   12.45442  0.0000E+00  0.7384E-05  0.2437E-07  0.6286E-03  0.8971E-03  0.1652E+01
   -1.162496   12.45517  0.0000E+00  0.6956E-05  0.2363E-07  0.5927E-03  0.7650E-03  0.1286E+01
   -1.199996   12.45597  0.0000E+00  0.6548E-05  0.2335E-07  0.5463E-03  0.6508E-03  0.1174E+01
   -1.237495   12.45683  0.0000E+00  0.6166E-05  0.2357E-07  0.4943E-03  0.5527E-03  0.1147E+01
   -1.274994   12.45778  0.0000E+00  0.5800E-05  0.2451E-07  0.4412E-03  0.4697E-03  0.1934E+01
   -1.312493   12.45887  0.0000E+00  0.5418E-05  0.2688E-07  0.3868E-03  0.4027E-03  0.3900E+01
   -1.349992   12.46020  0.0000E+00  0.4959E-05  0.3203E-07  0.3004E-03  0.3442E-03  0.1362E+02
   -1.387490   12.46216  0.0000E+00  0.4406E-05  0.4185E-07  0.2632E-03  0.2838E-03  0.6478E+02
   -1.424988   12.46392  0.0000E+00  0.3606E-05  0.7530E-07  0.1172E-03  0.2386E-03  0.5394E+04
   -1.462486   12.47359  0.0000E+00  0.2159E-05  0.1744E-06  0.4156E-04  0.1717E-03 -0.1289E+05
   -1.499983   12.48679  0.0000E+00  0.0000E+00  0.0000E+00  0.0000E+00  0.2095E-03  0.0000E+00
