 1 - depth, m
 2 - temperature, C
 3 - salinity, kg/kg
 4 - turbulent kinetic energy, m**2/s**2
 5 - dissipation rate, m**2/s**3
 6 - kinematic heat conductance, m**2/s
 7 - modulus of horizontal velocity, m/s
 8 - Richardson number, n/d
   -0.000000    0.00000  0.0000E+00  0.3804E-10  0.2508E-13  0.1000E-09  0.0000E+00  0.2428E+17
   -0.037499    0.38397  0.0000E+00  0.8511E-10  0.2114E-13  0.1000E-09  0.0000E+00  0.2099E+17
   -0.074999    0.75479  0.0000E+00  0.1724E-09  0.2633E-13  0.1000E-09  0.0000E+00  0.1799E+17
   -0.112499    1.11275  0.0000E+00  0.3100E-09  0.3858E-13  0.1000E-09  0.0000E+00  0.1526E+17
   -0.149999    1.45809  0.0000E+00  0.5212E-09  0.5928E-13  0.1000E-09  0.0000E+00  0.1280E+17
   -0.187500    1.79107  0.0000E+00  0.8454E-09  0.9187E-13  0.1000E-09  0.0000E+00  0.1057E+17
   -0.225001    2.11194  0.0000E+00  0.1344E-08  0.1420E-12  0.1000E-09  0.0000E+00  0.8556E+16
   -0.262502    2.42089  0.0000E+00  0.2113E-08  0.2185E-12  0.1012E-09  0.0000E+00  0.6747E+16
   -0.300003    2.71809  0.0000E+00  0.3299E-08  0.3349E-12  0.1816E-09  0.0000E+00  0.5122E+16
   -0.337505    3.00343  0.0000E+00  0.5120E-08  0.5110E-12  0.3866E-09  0.0000E+00  0.3671E+16
   -0.375007    3.27663  0.0000E+00  0.7909E-08  0.7763E-12  0.9021E-09  0.0000E+00  0.2392E+16
   -0.412509    3.53796  0.0000E+00  0.1216E-07  0.1174E-11  0.2584E-08  0.0000E+00  0.1266E+16
   -0.450011    3.78588  0.0000E+00  0.1850E-07  0.1759E-11  0.1595E-07  0.0000E+00  0.3133E+15
   -0.487513    4.00352  0.0000E+00  0.1892E-07  0.1802E-11  0.7190E-04  0.0000E+00 -0.1256E+12
   -0.525016    4.00398  0.0000E+00  0.1913E-07  0.1825E-11  0.7047E-04  0.0000E+00 -0.1304E+12
   -0.562518    4.00445  0.0000E+00  0.1932E-07  0.1851E-11  0.7073E-04  0.0000E+00 -0.1325E+12
   -0.600021    4.00492  0.0000E+00  0.1949E-07  0.1878E-11  0.7093E-04  0.0000E+00 -0.1347E+12
   -0.637524    4.00538  0.0000E+00  0.1966E-07  0.1908E-11  0.7098E-04  0.0000E+00 -0.1372E+12
   -0.675026    4.00584  0.0000E+00  0.1980E-07  0.1939E-11  0.7089E-04  0.0000E+00 -0.1400E+12
   -0.712529    4.00630  0.0000E+00  0.1994E-07  0.1973E-11  0.7062E-04  0.0000E+00 -0.1432E+12
   -0.750032    4.00676  0.0000E+00  0.2005E-07  0.2010E-11  0.7020E-04  0.0000E+00 -0.1465E+12
   -0.787535    4.00722  0.0000E+00  0.2015E-07  0.2049E-11  0.6960E-04  0.0000E+00 -0.1503E+12
   -0.825038    4.00768  0.0000E+00  0.2023E-07  0.2092E-11  0.6885E-04  0.0000E+00 -0.1545E+12
   -0.862540    4.00814  0.0000E+00  0.2030E-07  0.2138E-11  0.6791E-04  0.0000E+00 -0.1593E+12
   -0.900043    4.00860  0.0000E+00  0.2034E-07  0.2189E-11  0.6679E-04  0.0000E+00 -0.1646E+12
   -0.937546    4.00907  0.0000E+00  0.2037E-07  0.2244E-11  0.6548E-04  0.0000E+00 -0.1708E+12
   -0.975048    4.00955  0.0000E+00  0.2037E-07  0.2305E-11  0.6398E-04  0.0000E+00 -0.1778E+12
   -1.012551    4.01004  0.0000E+00  0.2035E-07  0.2373E-11  0.6226E-04  0.0000E+00 -0.1861E+12
   -1.050053    4.01054  0.0000E+00  0.2030E-07  0.2450E-11  0.6030E-04  0.0000E+00 -0.1959E+12
   -1.087555    4.01106  0.0000E+00  0.2023E-07  0.2537E-11  0.5810E-04  0.0000E+00 -0.2075E+12
   -1.125057    4.01159  0.0000E+00  0.2013E-07  0.2638E-11  0.5561E-04  0.0000E+00 -0.2207E+12
   -1.162559    4.01215  0.0000E+00  0.1999E-07  0.2755E-11  0.5283E-04  0.0000E+00 -0.2367E+12
   -1.200061    4.01273  0.0000E+00  0.1981E-07  0.2894E-11  0.4972E-04  0.0000E+00 -0.2564E+12
   -1.237562    4.01335  0.0000E+00  0.1958E-07  0.3062E-11  0.4630E-04  0.0000E+00 -0.2812E+12
   -1.275063    4.01401  0.0000E+00  0.1926E-07  0.3291E-11  0.4201E-04  0.0000E+00 -0.3177E+12
   -1.312564    4.01474  0.0000E+00  0.1876E-07  0.3658E-11  0.3014E-04  0.0000E+00 -0.4574E+12
   -1.350065    4.01576  0.0000E+00  0.1797E-07  0.4276E-11  0.2041E-04  0.0000E+00 -0.7046E+12
   -1.387565    4.01726  0.0000E+00  0.1672E-07  0.5396E-11  0.1264E-04  0.0000E+00 -0.1213E+13
   -1.425065    4.01968  0.0000E+00  0.1445E-07  0.8017E-11  0.5545E-05  0.0000E+00 -0.3097E+13
   -1.462565    4.02519  0.0000E+00  0.8799E-08  0.1958E-10  0.6815E-06  0.0000E+00 -0.3489E+14
   -1.500064    4.06360  0.0000E+00  0.0000E+00  0.0000E+00  0.0000E+00  0.0000E+00  0.0000E+00
