 1 - depth, m
 2 - temperature, C
 3 - salinity, kg/kg
 4 - turbulent kinetic energy, m**2/s**2
 5 - dissipation rate, m**2/s**3
 6 - kinematic heat conductance, m**2/s
 7 - modulus of horizontal velocity, m/s
 8 - Richardson number, n/d
   -0.000000    0.00000  0.0000E+00  0.2403E-10  0.1440E-13  0.1000E-09  0.0000E+00  0.2240E+17
   -0.037498    0.35261  0.0000E+00  0.5110E-10  0.1303E-13  0.1000E-09  0.0000E+00  0.1952E+17
   -0.074996    0.69268  0.0000E+00  0.1030E-09  0.1747E-13  0.1000E-09  0.0000E+00  0.1695E+17
   -0.112494    1.02136  0.0000E+00  0.1885E-09  0.2718E-13  0.1000E-09  0.0000E+00  0.1464E+17
   -0.149993    1.33968  0.0000E+00  0.3263E-09  0.4391E-13  0.1000E-09  0.0000E+00  0.1255E+17
   -0.187492    1.64852  0.0000E+00  0.5485E-09  0.7124E-13  0.1000E-09  0.0000E+00  0.1065E+17
   -0.224992    1.94861  0.0000E+00  0.9079E-09  0.1152E-12  0.1000E-09  0.0000E+00  0.8917E+16
   -0.262491    2.24052  0.0000E+00  0.1490E-08  0.1855E-12  0.1000E-09  0.0000E+00  0.7322E+16
   -0.299991    2.52457  0.0000E+00  0.2431E-08  0.2977E-12  0.1413E-09  0.0000E+00  0.5852E+16
   -0.337491    2.80088  0.0000E+00  0.3949E-08  0.4760E-12  0.2940E-09  0.0000E+00  0.4496E+16
   -0.374992    3.06937  0.0000E+00  0.6391E-08  0.7583E-12  0.6453E-09  0.0000E+00  0.3263E+16
   -0.412492    3.33100  0.0000E+00  0.1030E-07  0.1203E-11  0.1574E-08  0.0000E+00  0.2123E+16
   -0.449993    3.58551  0.0000E+00  0.1651E-07  0.1900E-11  0.4939E-08  0.0000E+00  0.1069E+16
   -0.487494    3.82876  0.0000E+00  0.2595E-07  0.2948E-11  0.4375E-07  0.0000E+00  0.1874E+15
   -0.524995    4.01700  0.0000E+00  0.2654E-07  0.3020E-11  0.8318E-04  0.0000E+00 -0.1999E+12
   -0.562496    4.01742  0.0000E+00  0.2682E-07  0.3059E-11  0.8088E-04  0.0000E+00 -0.2072E+12
   -0.599997    4.01784  0.0000E+00  0.2708E-07  0.3102E-11  0.8113E-04  0.0000E+00 -0.2091E+12
   -0.637498    4.01826  0.0000E+00  0.2732E-07  0.3148E-11  0.8133E-04  0.0000E+00 -0.2112E+12
   -0.674999    4.01868  0.0000E+00  0.2753E-07  0.3198E-11  0.8133E-04  0.0000E+00 -0.2140E+12
   -0.712501    4.01910  0.0000E+00  0.2772E-07  0.3251E-11  0.8114E-04  0.0000E+00 -0.2174E+12
   -0.750002    4.01952  0.0000E+00  0.2789E-07  0.3309E-11  0.8075E-04  0.0000E+00 -0.2212E+12
   -0.787503    4.01994  0.0000E+00  0.2803E-07  0.3371E-11  0.8016E-04  0.0000E+00 -0.2256E+12
   -0.825005    4.02037  0.0000E+00  0.2815E-07  0.3438E-11  0.7936E-04  0.0000E+00 -0.2308E+12
   -0.862506    4.02080  0.0000E+00  0.2823E-07  0.3512E-11  0.7835E-04  0.0000E+00 -0.2369E+12
   -0.900007    4.02123  0.0000E+00  0.2830E-07  0.3592E-11  0.7711E-04  0.0000E+00 -0.2440E+12
   -0.937508    4.02168  0.0000E+00  0.2833E-07  0.3681E-11  0.7566E-04  0.0000E+00 -0.2522E+12
   -0.975010    4.02213  0.0000E+00  0.2833E-07  0.3778E-11  0.7396E-04  0.0000E+00 -0.2618E+12
   -1.012511    4.02259  0.0000E+00  0.2831E-07  0.3887E-11  0.7202E-04  0.0000E+00 -0.2734E+12
   -1.050011    4.02307  0.0000E+00  0.2824E-07  0.4011E-11  0.6980E-04  0.0000E+00 -0.2872E+12
   -1.087512    4.02357  0.0000E+00  0.2814E-07  0.4152E-11  0.6728E-04  0.0000E+00 -0.3036E+12
   -1.125013    4.02408  0.0000E+00  0.2799E-07  0.4315E-11  0.6445E-04  0.0000E+00 -0.3219E+12
   -1.162513    4.02462  0.0000E+00  0.2780E-07  0.4505E-11  0.6128E-04  0.0000E+00 -0.3439E+12
   -1.200013    4.02519  0.0000E+00  0.2754E-07  0.4731E-11  0.5773E-04  0.0000E+00 -0.3711E+12
   -1.237513    4.02580  0.0000E+00  0.2722E-07  0.5005E-11  0.5375E-04  0.0000E+00 -0.4059E+12
   -1.275012    4.02645  0.0000E+00  0.2681E-07  0.5351E-11  0.4936E-04  0.0000E+00 -0.4516E+12
   -1.312512    4.02716  0.0000E+00  0.2621E-07  0.5872E-11  0.4287E-04  0.0000E+00 -0.5327E+12
   -1.350011    4.02798  0.0000E+00  0.2521E-07  0.6796E-11  0.2667E-04  0.0000E+00 -0.8843E+12
   -1.387510    4.02932  0.0000E+00  0.2359E-07  0.8505E-11  0.1618E-04  0.0000E+00 -0.1532E+13
   -1.425008    4.03154  0.0000E+00  0.2063E-07  0.1248E-10  0.7284E-05  0.0000E+00 -0.3700E+13
   -1.462506    4.03649  0.0000E+00  0.1278E-07  0.3063E-10  0.9000E-06  0.0000E+00 -0.3864E+14
   -1.500004    4.07266  0.0000E+00  0.0000E+00  0.0000E+00  0.0000E+00  0.0000E+00  0.0000E+00
