 1 - depth, m
 2 - temperature, C
 3 - salinity, kg/kg
 4 - turbulent kinetic energy, m**2/s**2
 5 - dissipation rate, m**2/s**3
 6 - kinematic heat conductance, m**2/s
 7 - modulus of horizontal velocity, m/s
 8 - Richardson number, n/d
   -0.000000    0.00000  0.0000E+00  0.4096E-13  0.8590E-16  0.1000E-09  0.0000E+00  0.1018E+17
   -0.037500    0.15602  0.0000E+00  0.4096E-13  0.8590E-16  0.1000E-09  0.0000E+00  0.9616E+16
   -0.075000    0.30984  0.0000E+00  0.4096E-13  0.8590E-16  0.1000E-09  0.0000E+00  0.9014E+16
   -0.112500    0.46051  0.0000E+00  0.4096E-13  0.8590E-16  0.1000E-09  0.0000E+00  0.8389E+16
   -0.150001    0.60714  0.0000E+00  0.4096E-13  0.8590E-16  0.1000E-09  0.0000E+00  0.7752E+16
   -0.187502    0.74890  0.0000E+00  0.4096E-13  0.8590E-16  0.1000E-09  0.0000E+00  0.7117E+16
   -0.225004    0.88507  0.0000E+00  0.4096E-13  0.8590E-16  0.1000E-09  0.0000E+00  0.6494E+16
   -0.262505    1.01505  0.0000E+00  0.4096E-13  0.8590E-16  0.1000E-09  0.0000E+00  0.5883E+16
   -0.300007    1.13817  0.0000E+00  0.4096E-13  0.8590E-16  0.1000E-09  0.0000E+00  0.5300E+16
   -0.337509    1.25407  0.0000E+00  0.4096E-13  0.8590E-16  0.1000E-09  0.0000E+00  0.4753E+16
   -0.375012    1.36257  0.0000E+00  0.4096E-13  0.8590E-16  0.1000E-09  0.0000E+00  0.4336E+16
   -0.412514    1.46580  0.0000E+00  0.4096E-13  0.8590E-16  0.1000E-09  0.0000E+00  0.4006E+16
   -0.450017    1.56525  0.0000E+00  0.4096E-13  0.8590E-16  0.1000E-09  0.0000E+00  0.3707E+16
   -0.487520    1.66123  0.0000E+00  0.4096E-13  0.8590E-16  0.1000E-09  0.0000E+00  0.3440E+16
   -0.525023    1.75412  0.0000E+00  0.4096E-13  0.8590E-16  0.1000E-09  0.0000E+00  0.3204E+16
   -0.562526    1.84440  0.0000E+00  0.4096E-13  0.8590E-16  0.1000E-09  0.0000E+00  0.2993E+16
   -0.600029    1.93246  0.0000E+00  0.4096E-13  0.8590E-16  0.1000E-09  0.0000E+00  0.2804E+16
   -0.637532    2.01865  0.0000E+00  0.4096E-13  0.8590E-16  0.1000E-09  0.0000E+00  0.2632E+16
   -0.675035    2.10326  0.0000E+00  0.4096E-13  0.8590E-16  0.1000E-09  0.0000E+00  0.2473E+16
   -0.712539    2.18649  0.0000E+00  0.4096E-13  0.8590E-16  0.1000E-09  0.0000E+00  0.2322E+16
   -0.750042    2.26843  0.0000E+00  0.4096E-13  0.8590E-16  0.1000E-09  0.0000E+00  0.2231E+16
   -0.787545    2.35114  0.0000E+00  0.4096E-13  0.8590E-16  0.1000E-09  0.0000E+00  0.2154E+16
   -0.825049    2.43528  0.0000E+00  0.4096E-13  0.8590E-16  0.1000E-09  0.0000E+00  0.2068E+16
   -0.862552    2.52070  0.0000E+00  0.4096E-13  0.8590E-16  0.1000E-09  0.0000E+00  0.1970E+16
   -0.900055    2.60713  0.0000E+00  0.4096E-13  0.8590E-16  0.1000E-09  0.0000E+00  0.1860E+16
   -0.937558    2.69417  0.0000E+00  0.4096E-13  0.8590E-16  0.1000E-09  0.0000E+00  0.1738E+16
   -0.975061    2.78132  0.0000E+00  0.4096E-13  0.8590E-16  0.1000E-09  0.0000E+00  0.1607E+16
   -1.012564    2.86801  0.0000E+00  0.4096E-13  0.8590E-16  0.1000E-09  0.0000E+00  0.1488E+16
   -1.050067    2.95493  0.0000E+00  0.4096E-13  0.8590E-16  0.1000E-09  0.0000E+00  0.1367E+16
   -1.087570    3.04191  0.0000E+00  0.4096E-13  0.8590E-16  0.1000E-09  0.0000E+00  0.1241E+16
   -1.125072    3.12860  0.0000E+00  0.4096E-13  0.8590E-16  0.1000E-09  0.0000E+00  0.1103E+16
   -1.162575    3.21389  0.0000E+00  0.4096E-13  0.8590E-16  0.1000E-09  0.0000E+00  0.9674E+15
   -1.200077    3.29746  0.0000E+00  0.4096E-13  0.8590E-16  0.1000E-09  0.0000E+00  0.8392E+15
   -1.237579    3.37930  0.0000E+00  0.4096E-13  0.8590E-16  0.1000E-09  0.0000E+00  0.7241E+15
   -1.275080    3.46014  0.0000E+00  0.1114E-12  0.1814E-15  0.1000E-09  0.0000E+00  0.6377E+15
   -1.312582    3.54350  0.0000E+00  0.5340E-12  0.8334E-15  0.1000E-09  0.0000E+00  0.5526E+15
   -1.350083    3.63134  0.0000E+00  0.2598E-11  0.4041E-14  0.1000E-09  0.0000E+00  0.4607E+15
   -1.387584    3.72649  0.0000E+00  0.1268E-10  0.1984E-13  0.1588E-09  0.0000E+00  0.3464E+15
   -1.425084    3.83317  0.0000E+00  0.6220E-10  0.9945E-13  0.1262E-08  0.0000E+00  0.1775E+15
   -1.462584    3.95707  0.0000E+00  0.3001E-09  0.5179E-12  0.6418E-07  0.0000E+00 -0.3999E+14
   -1.500084    4.06517  0.0000E+00  0.0000E+00  0.0000E+00  0.0000E+00  0.0000E+00  0.0000E+00
