 1 - depth, m
 2 - temperature, C
 3 - salinity, kg/kg
 4 - turbulent kinetic energy, m**2/s**2
 5 - dissipation rate, m**2/s**3
 6 - kinematic heat conductance, m**2/s
 7 - modulus of horizontal velocity, m/s
 8 - Richardson number, n/d
   -0.000000    7.37699  0.0000E+00  0.1004E-02  0.7896E-02  0.1380E-03  0.4660E+00  0.7609E-02
   -0.037496    7.50747  0.0000E+00  0.5614E-03  0.4558E-02  0.2119E-03  0.1608E+00  0.1480E-02
   -0.074992    7.57525  0.0000E+00  0.3669E-03  0.1639E-02  0.2965E-03  0.9573E-01  0.9756E-01
   -0.112489    7.59765  0.0000E+00  0.2877E-03  0.8787E-03  0.3374E-03  0.7312E-01  0.2888E-01
   -0.149986    7.60819  0.0000E+00  0.2417E-03  0.5704E-03  0.3472E-03  0.6035E-01  0.2060E-01
   -0.187483    7.61506  0.0000E+00  0.2068E-03  0.3872E-03  0.3627E-03  0.5192E-01 -0.2676E-01
   -0.224981    7.62003  0.0000E+00  0.1811E-03  0.2685E-03  0.3725E-03  0.4646E-01 -0.5642E-01
   -0.262479    7.62391  0.0000E+00  0.1609E-03  0.1888E-03  0.3879E-03  0.4215E-01  0.1756E+00
   -0.299977    7.62676  0.0000E+00  0.1451E-03  0.1321E-03  0.4023E-03  0.3872E-01  0.1856E+00
   -0.337475    7.62925  0.0000E+00  0.1321E-03  0.9163E-04  0.4134E-03  0.3584E-01  0.2601E-01
   -0.374973    7.63153  0.0000E+00  0.1215E-03  0.6323E-04  0.4283E-03  0.3325E-01  0.4861E-01
   -0.412472    7.63375  0.0000E+00  0.1124E-03  0.4366E-04  0.4417E-03  0.3067E-01  0.4197E+00
   -0.449971    7.63575  0.0000E+00  0.1050E-03  0.3025E-04  0.4553E-03  0.2849E-01  0.9813E-01
   -0.487470    7.63863  0.0000E+00  0.9690E-04  0.2047E-04  0.4578E-03  0.2581E-01  0.7098E-01
   -0.524969    7.64096  0.0000E+00  0.8992E-04  0.1369E-04  0.4780E-03  0.2351E-01  0.5333E+00
   -0.562468    7.64281  0.0000E+00  0.8403E-04  0.9170E-05  0.4914E-03  0.2186E-01  0.6288E+02
   -0.599968    7.64449  0.0000E+00  0.7895E-04  0.6302E-05  0.5027E-03  0.2039E-01  0.9181E+00
   -0.637467    7.64610  0.0000E+00  0.7430E-04  0.4335E-05  0.5111E-03  0.1904E-01  0.1556E+01
   -0.674966    7.64788  0.0000E+00  0.7000E-04  0.3085E-05  0.5310E-03  0.1763E-01  0.7041E+01
   -0.712466    7.64939  0.0000E+00  0.6621E-04  0.2276E-05  0.5474E-03  0.1648E-01  0.2476E+01
   -0.749965    7.65085  0.0000E+00  0.6278E-04  0.1733E-05  0.5652E-03  0.1543E-01  0.1575E+02
   -0.787465    7.65227  0.0000E+00  0.5961E-04  0.1360E-05  0.5879E-03  0.1444E-01  0.9290E+02
   -0.824964    7.65363  0.0000E+00  0.5669E-04  0.1099E-05  0.6060E-03  0.1353E-01  0.1821E+02
   -0.862464    7.65493  0.0000E+00  0.5395E-04  0.9099E-06  0.6182E-03  0.1267E-01  0.1232E+02
   -0.899963    7.65624  0.0000E+00  0.5138E-04  0.7715E-06  0.6250E-03  0.1185E-01  0.8041E+01
   -0.937463    7.65750  0.0000E+00  0.4893E-04  0.6674E-06  0.6284E-03  0.1108E-01  0.7373E+01
   -0.974962    7.65880  0.0000E+00  0.4658E-04  0.5875E-06  0.6300E-03  0.1033E-01  0.6096E+02
   -1.012461    7.66009  0.0000E+00  0.4427E-04  0.5251E-06  0.6331E-03  0.9600E-02  0.4213E+02
   -1.049960    7.66137  0.0000E+00  0.4202E-04  0.4760E-06  0.6317E-03  0.8923E-02  0.7965E+01
   -1.087459    7.66262  0.0000E+00  0.3980E-04  0.4374E-06  0.6231E-03  0.8290E-02  0.1007E+03
   -1.124958    7.66388  0.0000E+00  0.3759E-04  0.4079E-06  0.6082E-03  0.7691E-02  0.3303E+02
   -1.162456    7.66517  0.0000E+00  0.3536E-04  0.3867E-06  0.5872E-03  0.7116E-02  0.9665E+01
   -1.199954    7.66652  0.0000E+00  0.3309E-04  0.3746E-06  0.5557E-03  0.6557E-02  0.1914E+02
   -1.237452    7.66794  0.0000E+00  0.3074E-04  0.3738E-06  0.5163E-03  0.6007E-02  0.9764E+01
   -1.274950    7.66950  0.0000E+00  0.2821E-04  0.3891E-06  0.4640E-03  0.5459E-02  0.2988E+02
   -1.312448    7.67123  0.0000E+00  0.2544E-04  0.4323E-06  0.4075E-03  0.4931E-02  0.5454E+01
   -1.349945    7.67324  0.0000E+00  0.2228E-04  0.5323E-06  0.3306E-03  0.4409E-02  0.2979E+02
   -1.387442    7.67583  0.0000E+00  0.1855E-04  0.7732E-06  0.2485E-03  0.3847E-02  0.4860E+02
   -1.424939    7.67938  0.0000E+00  0.1400E-04  0.1338E-05  0.1450E-03  0.3209E-02  0.2797E+03
   -1.462435    7.68564  0.0000E+00  0.8459E-05  0.2820E-05  0.6029E-04  0.2542E-02 -0.7720E+05
   -1.499931    7.71796  0.0000E+00  0.0000E+00  0.0000E+00  0.0000E+00  0.3088E-02  0.0000E+00
