 1 - depth, m
 2 - temperature, C
 3 - salinity, kg/kg
 4 - turbulent kinetic energy, m**2/s**2
 5 - dissipation rate, m**2/s**3
 6 - kinematic heat conductance, m**2/s
 7 - modulus of horizontal velocity, m/s
 8 - Richardson number, n/d
   -0.000000    0.00000  0.0000E+00  0.3563E-10  0.2351E-13  0.1000E-09  0.0000E+00  0.2298E+17
   -0.037502    0.36222  0.0000E+00  0.8001E-10  0.2100E-13  0.1000E-09  0.0000E+00  0.1997E+17
   -0.075005    0.71166  0.0000E+00  0.1648E-09  0.2823E-13  0.1000E-09  0.0000E+00  0.1726E+17
   -0.112508    1.04902  0.0000E+00  0.3046E-09  0.4414E-13  0.1000E-09  0.0000E+00  0.1482E+17
   -0.150011    1.37510  0.0000E+00  0.5304E-09  0.7162E-13  0.1000E-09  0.0000E+00  0.1263E+17
   -0.187514    1.69089  0.0000E+00  0.8954E-09  0.1166E-12  0.1000E-09  0.0000E+00  0.1065E+17
   -0.225018    1.99757  0.0000E+00  0.1486E-08  0.1889E-12  0.1000E-09  0.0000E+00  0.8873E+16
   -0.262522    2.29659  0.0000E+00  0.2443E-08  0.3044E-12  0.1165E-09  0.0000E+00  0.7258E+16
   -0.300027    2.58952  0.0000E+00  0.3987E-08  0.4878E-12  0.2346E-09  0.0000E+00  0.5777E+16
   -0.337531    2.87821  0.0000E+00  0.6469E-08  0.7775E-12  0.4908E-09  0.0000E+00  0.4397E+16
   -0.375036    3.16478  0.0000E+00  0.1044E-07  0.1233E-11  0.1104E-08  0.0000E+00  0.3093E+16
   -0.412541    3.45313  0.0000E+00  0.1674E-07  0.1943E-11  0.3028E-08  0.0000E+00  0.1778E+16
   -0.450046    3.74325  0.0000E+00  0.2655E-07  0.3031E-11  0.1827E-07  0.0000E+00  0.4619E+15
   -0.487551    4.00879  0.0000E+00  0.2713E-07  0.3102E-11  0.8429E-04  0.0000E+00 -0.1773E+12
   -0.525056    4.00928  0.0000E+00  0.2742E-07  0.3142E-11  0.8265E-04  0.0000E+00 -0.1845E+12
   -0.562562    4.00979  0.0000E+00  0.2769E-07  0.3186E-11  0.8292E-04  0.0000E+00 -0.1884E+12
   -0.600067    4.01030  0.0000E+00  0.2795E-07  0.3235E-11  0.8312E-04  0.0000E+00 -0.1927E+12
   -0.637573    4.01080  0.0000E+00  0.2819E-07  0.3288E-11  0.8313E-04  0.0000E+00 -0.1977E+12
   -0.675079    4.01131  0.0000E+00  0.2841E-07  0.3345E-11  0.8296E-04  0.0000E+00 -0.2035E+12
   -0.712584    4.01183  0.0000E+00  0.2861E-07  0.3407E-11  0.8261E-04  0.0000E+00 -0.2101E+12
   -0.750090    4.01235  0.0000E+00  0.2879E-07  0.3475E-11  0.8208E-04  0.0000E+00 -0.2160E+12
   -0.787596    4.01287  0.0000E+00  0.2894E-07  0.3548E-11  0.8135E-04  0.0000E+00 -0.2222E+12
   -0.825102    4.01340  0.0000E+00  0.2908E-07  0.3627E-11  0.8043E-04  0.0000E+00 -0.2293E+12
   -0.862607    4.01394  0.0000E+00  0.2919E-07  0.3714E-11  0.7930E-04  0.0000E+00 -0.2373E+12
   -0.900113    4.01448  0.0000E+00  0.2928E-07  0.3808E-11  0.7795E-04  0.0000E+00 -0.2466E+12
   -0.937619    4.01503  0.0000E+00  0.2934E-07  0.3912E-11  0.7639E-04  0.0000E+00 -0.2571E+12
   -0.975124    4.01560  0.0000E+00  0.2936E-07  0.4027E-11  0.7460E-04  0.0000E+00 -0.2693E+12
   -1.012630    4.01618  0.0000E+00  0.2936E-07  0.4154E-11  0.7255E-04  0.0000E+00 -0.2840E+12
   -1.050135    4.01678  0.0000E+00  0.2932E-07  0.4298E-11  0.7024E-04  0.0000E+00 -0.3016E+12
   -1.087640    4.01741  0.0000E+00  0.2925E-07  0.4462E-11  0.6764E-04  0.0000E+00 -0.3224E+12
   -1.125145    4.01806  0.0000E+00  0.2912E-07  0.4651E-11  0.6473E-04  0.0000E+00 -0.3443E+12
   -1.162649    4.01875  0.0000E+00  0.2895E-07  0.4871E-11  0.6148E-04  0.0000E+00 -0.3703E+12
   -1.200154    4.01947  0.0000E+00  0.2871E-07  0.5131E-11  0.5786E-04  0.0000E+00 -0.4025E+12
   -1.237658    4.02024  0.0000E+00  0.2840E-07  0.5444E-11  0.5381E-04  0.0000E+00 -0.4434E+12
   -1.275162    4.02106  0.0000E+00  0.2800E-07  0.5840E-11  0.4933E-04  0.0000E+00 -0.4974E+12
   -1.312666    4.02196  0.0000E+00  0.2740E-07  0.6428E-11  0.4338E-04  0.0000E+00 -0.5828E+12
   -1.350170    4.02299  0.0000E+00  0.2640E-07  0.7462E-11  0.2714E-04  0.0000E+00 -0.9708E+12
   -1.387673    4.02465  0.0000E+00  0.2475E-07  0.9386E-11  0.1639E-04  0.0000E+00 -0.1714E+13
   -1.425176    4.02740  0.0000E+00  0.2172E-07  0.1385E-10  0.7435E-05  0.0000E+00 -0.4219E+13
   -1.462678    4.03351  0.0000E+00  0.1374E-07  0.3401E-10  0.9770E-06  0.0000E+00 -0.4521E+14
   -1.500181    4.07578  0.0000E+00  0.0000E+00  0.0000E+00  0.0000E+00  0.0000E+00  0.0000E+00
