 1 - depth, m
 2 - temperature, C
 3 - salinity, kg/kg
 4 - turbulent kinetic energy, m**2/s**2
 5 - dissipation rate, m**2/s**3
 6 - kinematic heat conductance, m**2/s
 7 - modulus of horizontal velocity, m/s
 8 - Richardson number, n/d
   -0.000000    0.00000  0.0000E+00  0.1471E-07  0.4512E-10  0.1641E-08  0.0000E+00  0.7615E+17
   -0.037499    1.40135  0.0000E+00  0.9704E-07  0.3817E-10  0.2489E-08  0.0000E+00  0.4264E+17
   -0.074999    2.79995  0.0000E+00  0.2528E-06  0.5697E-10  0.1436E-07  0.0000E+00  0.1107E+17
   -0.112500    4.09751  0.0000E+00  0.2552E-06  0.5739E-10  0.3596E-03  0.0000E+00 -0.1007E+13
   -0.150000    4.09807  0.0000E+00  0.2563E-06  0.5762E-10  0.3551E-03  0.0000E+00 -0.9620E+12
   -0.187501    4.09862  0.0000E+00  0.2572E-06  0.5785E-10  0.3563E-03  0.0000E+00 -0.9440E+12
   -0.225002    4.09916  0.0000E+00  0.2580E-06  0.5809E-10  0.3571E-03  0.0000E+00 -0.9294E+12
   -0.262503    4.09968  0.0000E+00  0.2586E-06  0.5836E-10  0.3574E-03  0.0000E+00 -0.9171E+12
   -0.300005    4.10020  0.0000E+00  0.2591E-06  0.5864E-10  0.3572E-03  0.0000E+00 -0.9073E+12
   -0.337507    4.10071  0.0000E+00  0.2595E-06  0.5894E-10  0.3565E-03  0.0000E+00 -0.8995E+12
   -0.375009    4.10121  0.0000E+00  0.2597E-06  0.5927E-10  0.3554E-03  0.0000E+00 -0.8931E+12
   -0.412511    4.10171  0.0000E+00  0.2598E-06  0.5963E-10  0.3538E-03  0.0000E+00 -0.8884E+12
   -0.450013    4.10220  0.0000E+00  0.2598E-06  0.6002E-10  0.3517E-03  0.0000E+00 -0.8854E+12
   -0.487516    4.10269  0.0000E+00  0.2597E-06  0.6045E-10  0.3491E-03  0.0000E+00 -0.8846E+12
   -0.525019    4.10317  0.0000E+00  0.2595E-06  0.6092E-10  0.3460E-03  0.0000E+00 -0.8856E+12
   -0.562521    4.10366  0.0000E+00  0.2591E-06  0.6144E-10  0.3424E-03  0.0000E+00 -0.8887E+12
   -0.600024    4.10414  0.0000E+00  0.2587E-06  0.6201E-10  0.3383E-03  0.0000E+00 -0.8937E+12
   -0.637527    4.10463  0.0000E+00  0.2581E-06  0.6264E-10  0.3337E-03  0.0000E+00 -0.9010E+12
   -0.675030    4.10511  0.0000E+00  0.2574E-06  0.6334E-10  0.3285E-03  0.0000E+00 -0.9104E+12
   -0.712533    4.10560  0.0000E+00  0.2566E-06  0.6412E-10  0.3229E-03  0.0000E+00 -0.9223E+12
   -0.750036    4.10610  0.0000E+00  0.2556E-06  0.6497E-10  0.3166E-03  0.0000E+00 -0.9365E+12
   -0.787539    4.10660  0.0000E+00  0.2546E-06  0.6593E-10  0.3099E-03  0.0000E+00 -0.9534E+12
   -0.825042    4.10710  0.0000E+00  0.2533E-06  0.6700E-10  0.3025E-03  0.0000E+00 -0.9735E+12
   -0.862545    4.10762  0.0000E+00  0.2520E-06  0.6819E-10  0.2946E-03  0.0000E+00 -0.9969E+12
   -0.900048    4.10814  0.0000E+00  0.2505E-06  0.6953E-10  0.2860E-03  0.0000E+00 -0.1024E+13
   -0.937551    4.10868  0.0000E+00  0.2489E-06  0.7105E-10  0.2769E-03  0.0000E+00 -0.1056E+13
   -0.975054    4.10923  0.0000E+00  0.2471E-06  0.7276E-10  0.2672E-03  0.0000E+00 -0.1093E+13
   -1.012557    4.10980  0.0000E+00  0.2451E-06  0.7472E-10  0.2568E-03  0.0000E+00 -0.1137E+13
   -1.050059    4.11039  0.0000E+00  0.2430E-06  0.7699E-10  0.2457E-03  0.0000E+00 -0.1188E+13
   -1.087562    4.11100  0.0000E+00  0.2405E-06  0.7965E-10  0.2337E-03  0.0000E+00 -0.1249E+13
   -1.125064    4.11164  0.0000E+00  0.2379E-06  0.8278E-10  0.2210E-03  0.0000E+00 -0.1322E+13
   -1.162566    4.11231  0.0000E+00  0.2349E-06  0.8652E-10  0.2075E-03  0.0000E+00 -0.1410E+13
   -1.200068    4.11302  0.0000E+00  0.2316E-06  0.9105E-10  0.1930E-03  0.0000E+00 -0.1518E+13
   -1.237569    4.11379  0.0000E+00  0.2280E-06  0.9662E-10  0.1777E-03  0.0000E+00 -0.1653E+13
   -1.275071    4.11462  0.0000E+00  0.2238E-06  0.1038E-09  0.1612E-03  0.0000E+00 -0.1829E+13
   -1.312572    4.11553  0.0000E+00  0.2188E-06  0.1134E-09  0.1428E-03  0.0000E+00 -0.2074E+13
   -1.350072    4.11655  0.0000E+00  0.2128E-06  0.1269E-09  0.1255E-03  0.0000E+00 -0.2373E+13
   -1.387573    4.11771  0.0000E+00  0.2037E-06  0.1517E-09  0.8138E-04  0.0000E+00 -0.3686E+13
   -1.425073    4.11950  0.0000E+00  0.1846E-06  0.2181E-09  0.2881E-04  0.0000E+00 -0.1067E+14
   -1.462573    4.12453  0.0000E+00  0.1115E-06  0.6252E-09  0.2855E-05  0.0000E+00 -0.1236E+15
   -1.500073    4.17321  0.0000E+00  0.0000E+00  0.0000E+00  0.0000E+00  0.0000E+00  0.0000E+00
