 1 - depth, m
 2 - temperature, C
 3 - salinity, kg/kg
 4 - turbulent kinetic energy, m**2/s**2
 5 - dissipation rate, m**2/s**3
 6 - kinematic heat conductance, m**2/s
 7 - modulus of horizontal velocity, m/s
 8 - Richardson number, n/d
   -0.000000    0.00000  0.0000E+00  0.4096E-13  0.8590E-16  0.1000E-09  0.0000E+00  0.1090E+17
   -0.037498    0.16731  0.0000E+00  0.4096E-13  0.8590E-16  0.1000E-09  0.0000E+00  0.1021E+17
   -0.074996    0.33145  0.0000E+00  0.4096E-13  0.8590E-16  0.1000E-09  0.0000E+00  0.9540E+16
   -0.112495    0.49216  0.0000E+00  0.4096E-13  0.8590E-16  0.1000E-09  0.0000E+00  0.8886E+16
   -0.149994    0.64925  0.0000E+00  0.4096E-13  0.8590E-16  0.1000E-09  0.0000E+00  0.8254E+16
   -0.187494    0.80252  0.0000E+00  0.4096E-13  0.8590E-16  0.1000E-09  0.0000E+00  0.7648E+16
   -0.224993    0.95181  0.0000E+00  0.4096E-13  0.8590E-16  0.1000E-09  0.0000E+00  0.7067E+16
   -0.262493    1.09698  0.0000E+00  0.4096E-13  0.8590E-16  0.1000E-09  0.0000E+00  0.6497E+16
   -0.299993    1.23755  0.0000E+00  0.4096E-13  0.8590E-16  0.1000E-09  0.0000E+00  0.5953E+16
   -0.337494    1.37329  0.0000E+00  0.4096E-13  0.8590E-16  0.1000E-09  0.0000E+00  0.5439E+16
   -0.374994    1.50408  0.0000E+00  0.4096E-13  0.8590E-16  0.1000E-09  0.0000E+00  0.5018E+16
   -0.412495    1.63148  0.0000E+00  0.4096E-13  0.8590E-16  0.1000E-09  0.0000E+00  0.4656E+16
   -0.449996    1.75645  0.0000E+00  0.4096E-13  0.8590E-16  0.1000E-09  0.0000E+00  0.4310E+16
   -0.487497    1.87897  0.0000E+00  0.4096E-13  0.8590E-16  0.1000E-09  0.0000E+00  0.3977E+16
   -0.524999    1.99896  0.0000E+00  0.4096E-13  0.8590E-16  0.1000E-09  0.0000E+00  0.3654E+16
   -0.562500    2.11621  0.0000E+00  0.4096E-13  0.8590E-16  0.1000E-09  0.0000E+00  0.3346E+16
   -0.600001    2.23066  0.0000E+00  0.4096E-13  0.8590E-16  0.1000E-09  0.0000E+00  0.3053E+16
   -0.637503    2.34224  0.0000E+00  0.4096E-13  0.8590E-16  0.1000E-09  0.0000E+00  0.2775E+16
   -0.675004    2.45086  0.0000E+00  0.4096E-13  0.8590E-16  0.1000E-09  0.0000E+00  0.2511E+16
   -0.712506    2.55644  0.0000E+00  0.4096E-13  0.8590E-16  0.1000E-09  0.0000E+00  0.2262E+16
   -0.750008    2.65890  0.0000E+00  0.4096E-13  0.8590E-16  0.1000E-09  0.0000E+00  0.2061E+16
   -0.787509    2.75987  0.0000E+00  0.4096E-13  0.8590E-16  0.1000E-09  0.0000E+00  0.1879E+16
   -0.825011    2.85993  0.0000E+00  0.1469E-12  0.8769E-16  0.1000E-09  0.0000E+00  0.1702E+16
   -0.862512    2.95914  0.0000E+00  0.4236E-12  0.1779E-15  0.1000E-09  0.0000E+00  0.1531E+16
   -0.900014    3.05757  0.0000E+00  0.1049E-11  0.4043E-15  0.1000E-09  0.0000E+00  0.1366E+16
   -0.937515    3.15528  0.0000E+00  0.2466E-11  0.9162E-15  0.1000E-09  0.0000E+00  0.1205E+16
   -0.975017    3.25240  0.0000E+00  0.5682E-11  0.2053E-14  0.1000E-09  0.0000E+00  0.1049E+16
   -1.012518    3.34905  0.0000E+00  0.1296E-10  0.4567E-14  0.1000E-09  0.0000E+00  0.8974E+15
   -1.050019    3.44540  0.0000E+00  0.2940E-10  0.1010E-13  0.1000E-09  0.0000E+00  0.7487E+15
   -1.087520    3.54164  0.0000E+00  0.6616E-10  0.2218E-13  0.1032E-09  0.0000E+00  0.6024E+15
   -1.125021    3.63802  0.0000E+00  0.1477E-09  0.4835E-13  0.2904E-09  0.0000E+00  0.4596E+15
   -1.162521    3.73551  0.0000E+00  0.3273E-09  0.1046E-12  0.9212E-09  0.0000E+00  0.3129E+15
   -1.200022    3.83439  0.0000E+00  0.7185E-09  0.2246E-12  0.3867E-08  0.0000E+00  0.1593E+15
   -1.237522    3.93368  0.0000E+00  0.1526E-08  0.4684E-12  0.6528E-07  0.0000E+00  0.1885E+14
   -1.275022    4.00611  0.0000E+00  0.2591E-08  0.8057E-12  0.3275E-05  0.0000E+00 -0.1536E+13
   -1.312522    4.01056  0.0000E+00  0.3137E-08  0.1061E-11  0.3501E-05  0.0000E+00 -0.1785E+13
   -1.350021    4.01488  0.0000E+00  0.3492E-08  0.1372E-11  0.3216E-05  0.0000E+00 -0.2364E+13
   -1.387520    4.01975  0.0000E+00  0.3626E-08  0.1835E-11  0.2454E-05  0.0000E+00 -0.3812E+13
   -1.425019    4.02637  0.0000E+00  0.3419E-08  0.2737E-11  0.1332E-05  0.0000E+00 -0.9046E+13
   -1.462517    4.03885  0.0000E+00  0.2633E-08  0.5451E-11  0.3179E-06  0.0000E+00 -0.5126E+14
   -1.500015    4.08281  0.0000E+00  0.0000E+00  0.0000E+00  0.0000E+00  0.0000E+00  0.0000E+00
