 1 - depth, m
 2 - temperature, C
 3 - salinity, kg/kg
 4 - turbulent kinetic energy, m**2/s**2
 5 - dissipation rate, m**2/s**3
 6 - kinematic heat conductance, m**2/s
 7 - modulus of horizontal velocity, m/s
 8 - Richardson number, n/d
   -0.000000    0.00000  0.0000E+00  0.4096E-13  0.8589E-16  0.1000E-09  0.0000E+00  0.1336E+17
   -0.037499    0.20604  0.0000E+00  0.4096E-13  0.8589E-16  0.1000E-09  0.0000E+00  0.1239E+17
   -0.074998    0.40854  0.0000E+00  0.4096E-13  0.8589E-16  0.1000E-09  0.0000E+00  0.1133E+17
   -0.112498    0.60489  0.0000E+00  0.4096E-13  0.8589E-16  0.1000E-09  0.0000E+00  0.1021E+17
   -0.149998    0.79290  0.0000E+00  0.4096E-13  0.8589E-16  0.1000E-09  0.0000E+00  0.9102E+16
   -0.187499    0.97087  0.0000E+00  0.4096E-13  0.8589E-16  0.1000E-09  0.0000E+00  0.8035E+16
   -0.224999    1.13771  0.0000E+00  0.4096E-13  0.8589E-16  0.1000E-09  0.0000E+00  0.7043E+16
   -0.262500    1.29286  0.0000E+00  0.4096E-13  0.8589E-16  0.1000E-09  0.0000E+00  0.6127E+16
   -0.300001    1.43583  0.0000E+00  0.4096E-13  0.8589E-16  0.1000E-09  0.0000E+00  0.5312E+16
   -0.337503    1.56690  0.0000E+00  0.4096E-13  0.8589E-16  0.1000E-09  0.0000E+00  0.4603E+16
   -0.375004    1.68676  0.0000E+00  0.4096E-13  0.8589E-16  0.1000E-09  0.0000E+00  0.4109E+16
   -0.412506    1.79952  0.0000E+00  0.4096E-13  0.8589E-16  0.1000E-09  0.0000E+00  0.3764E+16
   -0.450008    1.90840  0.0000E+00  0.4096E-13  0.8589E-16  0.1000E-09  0.0000E+00  0.3488E+16
   -0.487510    2.01484  0.0000E+00  0.4096E-13  0.8589E-16  0.1000E-09  0.0000E+00  0.3268E+16
   -0.525012    2.12029  0.0000E+00  0.4096E-13  0.8589E-16  0.1000E-09  0.0000E+00  0.3093E+16
   -0.562515    2.22608  0.0000E+00  0.4096E-13  0.8589E-16  0.1000E-09  0.0000E+00  0.2947E+16
   -0.600017    2.33336  0.0000E+00  0.4096E-13  0.8589E-16  0.1000E-09  0.0000E+00  0.2815E+16
   -0.637519    2.44296  0.0000E+00  0.4096E-13  0.8589E-16  0.1000E-09  0.0000E+00  0.2681E+16
   -0.675022    2.55532  0.0000E+00  0.4096E-13  0.8589E-16  0.1000E-09  0.0000E+00  0.2531E+16
   -0.712525    2.67042  0.0000E+00  0.4543E-13  0.8589E-16  0.1000E-09  0.0000E+00  0.2356E+16
   -0.750027    2.78767  0.0000E+00  0.9634E-13  0.8700E-16  0.1000E-09  0.0000E+00  0.2184E+16
   -0.787530    2.90792  0.0000E+00  0.2436E-12  0.1054E-15  0.1000E-09  0.0000E+00  0.1981E+16
   -0.825032    3.03029  0.0000E+00  0.5854E-12  0.1683E-15  0.1000E-09  0.0000E+00  0.1740E+16
   -0.862535    3.15275  0.0000E+00  0.1242E-11  0.3206E-15  0.1000E-09  0.0000E+00  0.1473E+16
   -0.900037    3.27296  0.0000E+00  0.2500E-11  0.6214E-15  0.1000E-09  0.0000E+00  0.1197E+16
   -0.937540    3.38849  0.0000E+00  0.4932E-11  0.1200E-14  0.1000E-09  0.0000E+00  0.9302E+15
   -0.975042    3.49704  0.0000E+00  0.9636E-11  0.2304E-14  0.1000E-09  0.0000E+00  0.6893E+15
   -1.012544    3.59668  0.0000E+00  0.1876E-10  0.4414E-14  0.1000E-09  0.0000E+00  0.4898E+15
   -1.050046    3.68704  0.0000E+00  0.3650E-10  0.8452E-14  0.1074E-09  0.0000E+00  0.3290E+15
   -1.087548    3.76765  0.0000E+00  0.7082E-10  0.1615E-13  0.2426E-09  0.0000E+00  0.2057E+15
   -1.125050    3.83856  0.0000E+00  0.1370E-09  0.3078E-13  0.8979E-09  0.0000E+00  0.1151E+15
   -1.162552    3.90001  0.0000E+00  0.2634E-09  0.5842E-13  0.4936E-08  0.0000E+00  0.5204E+14
   -1.200053    3.95251  0.0000E+00  0.4915E-09  0.1084E-12  0.1548E-06  0.0000E+00  0.1234E+14
   -1.237554    3.98809  0.0000E+00  0.8212E-09  0.1874E-12  0.9081E-06  0.0000E+00 -0.4804E+12
   -1.275055    3.99622  0.0000E+00  0.1137E-08  0.2896E-12  0.1421E-05  0.0000E+00 -0.9293E+12
   -1.312556    4.00108  0.0000E+00  0.1418E-08  0.4216E-12  0.1579E-05  0.0000E+00 -0.1293E+13
   -1.350056    4.00589  0.0000E+00  0.1656E-08  0.6094E-12  0.1497E-05  0.0000E+00 -0.1986E+13
   -1.387556    4.01155  0.0000E+00  0.1820E-08  0.9115E-12  0.1193E-05  0.0000E+00 -0.3644E+13
   -1.425056    4.01951  0.0000E+00  0.1844E-08  0.1497E-11  0.7133E-06  0.0000E+00 -0.9337E+13
   -1.462555    4.03421  0.0000E+00  0.1601E-08  0.3060E-11  0.2234E-06  0.0000E+00 -0.4621E+14
   -1.500054    4.07686  0.0000E+00  0.0000E+00  0.0000E+00  0.0000E+00  0.0000E+00  0.0000E+00
