 1 - depth, m
 2 - temperature, C
 3 - salinity, kg/kg
 4 - turbulent kinetic energy, m**2/s**2
 5 - dissipation rate, m**2/s**3
 6 - kinematic heat conductance, m**2/s
 7 - modulus of horizontal velocity, m/s
 8 - Richardson number, n/d
   -0.000000    0.00000  0.0000E+00  0.4096E-13  0.8590E-16  0.1000E-09  0.0000E+00  0.7921E+16
   -0.037498    0.12078  0.0000E+00  0.4096E-13  0.8590E-16  0.1000E-09  0.0000E+00  0.7633E+16
   -0.074997    0.24110  0.0000E+00  0.4096E-13  0.8590E-16  0.1000E-09  0.0000E+00  0.7343E+16
   -0.112496    0.36088  0.0000E+00  0.4096E-13  0.8590E-16  0.1000E-09  0.0000E+00  0.7054E+16
   -0.149995    0.48002  0.0000E+00  0.4096E-13  0.8590E-16  0.1000E-09  0.0000E+00  0.6764E+16
   -0.187495    0.59845  0.0000E+00  0.4096E-13  0.8590E-16  0.1000E-09  0.0000E+00  0.6476E+16
   -0.224995    0.71608  0.0000E+00  0.4096E-13  0.8590E-16  0.1000E-09  0.0000E+00  0.6190E+16
   -0.262495    0.83285  0.0000E+00  0.4096E-13  0.8590E-16  0.1000E-09  0.0000E+00  0.5902E+16
   -0.299995    0.94860  0.0000E+00  0.4096E-13  0.8590E-16  0.1000E-09  0.0000E+00  0.5617E+16
   -0.337496    1.06324  0.0000E+00  0.4096E-13  0.8590E-16  0.1000E-09  0.0000E+00  0.5336E+16
   -0.374997    1.17670  0.0000E+00  0.4096E-13  0.8590E-16  0.1000E-09  0.0000E+00  0.5072E+16
   -0.412498    1.28917  0.0000E+00  0.4096E-13  0.8590E-16  0.1000E-09  0.0000E+00  0.4818E+16
   -0.449999    1.40075  0.0000E+00  0.4096E-13  0.8590E-16  0.1000E-09  0.0000E+00  0.4568E+16
   -0.487500    1.51138  0.0000E+00  0.4096E-13  0.8590E-16  0.1000E-09  0.0000E+00  0.4321E+16
   -0.525001    1.62099  0.0000E+00  0.4096E-13  0.8590E-16  0.1000E-09  0.0000E+00  0.4076E+16
   -0.562503    1.72947  0.0000E+00  0.4096E-13  0.8590E-16  0.1000E-09  0.0000E+00  0.3836E+16
   -0.600005    1.83676  0.0000E+00  0.4096E-13  0.8590E-16  0.1000E-09  0.0000E+00  0.3601E+16
   -0.637506    1.94278  0.0000E+00  0.4096E-13  0.8590E-16  0.1000E-09  0.0000E+00  0.3371E+16
   -0.675008    2.04746  0.0000E+00  0.4096E-13  0.8590E-16  0.1000E-09  0.0000E+00  0.3147E+16
   -0.712510    2.15074  0.0000E+00  0.4096E-13  0.8590E-16  0.1000E-09  0.0000E+00  0.2928E+16
   -0.750012    2.25252  0.0000E+00  0.4096E-13  0.8590E-16  0.1000E-09  0.0000E+00  0.2729E+16
   -0.787514    2.35327  0.0000E+00  0.4096E-13  0.8590E-16  0.1000E-09  0.0000E+00  0.2539E+16
   -0.825016    2.45309  0.0000E+00  0.4096E-13  0.8590E-16  0.1000E-09  0.0000E+00  0.2353E+16
   -0.862517    2.55196  0.0000E+00  0.4096E-13  0.8590E-16  0.1000E-09  0.0000E+00  0.2171E+16
   -0.900019    2.64982  0.0000E+00  0.4096E-13  0.8590E-16  0.1000E-09  0.0000E+00  0.1994E+16
   -0.937521    2.74662  0.0000E+00  0.4096E-13  0.8590E-16  0.1000E-09  0.0000E+00  0.1821E+16
   -0.975022    2.84232  0.0000E+00  0.4096E-13  0.8590E-16  0.1000E-09  0.0000E+00  0.1653E+16
   -1.012524    2.93685  0.0000E+00  0.4096E-13  0.8590E-16  0.1000E-09  0.0000E+00  0.1488E+16
   -1.050025    3.03010  0.0000E+00  0.4096E-13  0.8590E-16  0.1000E-09  0.0000E+00  0.1329E+16
   -1.087526    3.12195  0.0000E+00  0.4096E-13  0.8590E-16  0.1000E-09  0.0000E+00  0.1175E+16
   -1.125027    3.21232  0.0000E+00  0.4096E-13  0.8590E-16  0.1000E-09  0.0000E+00  0.1040E+16
   -1.162528    3.30233  0.0000E+00  0.4096E-13  0.8590E-16  0.1000E-09  0.0000E+00  0.9087E+15
   -1.200029    3.39219  0.0000E+00  0.4096E-13  0.8590E-16  0.1000E-09  0.0000E+00  0.7790E+15
   -1.237529    3.48194  0.0000E+00  0.1096E-12  0.1582E-15  0.1000E-09  0.0000E+00  0.6510E+15
   -1.275029    3.57172  0.0000E+00  0.4875E-12  0.6651E-15  0.1000E-09  0.0000E+00  0.5258E+15
   -1.312529    3.66205  0.0000E+00  0.2184E-11  0.2936E-14  0.1000E-09  0.0000E+00  0.3997E+15
   -1.350029    3.75321  0.0000E+00  0.9725E-11  0.1301E-13  0.1147E-09  0.0000E+00  0.2713E+15
   -1.387528    3.84558  0.0000E+00  0.4313E-10  0.5829E-13  0.8895E-09  0.0000E+00  0.1380E+15
   -1.425027    3.93927  0.0000E+00  0.1889E-09  0.2681E-12  0.1461E-07  0.0000E+00  0.4220E+13
   -1.462525    4.02726  0.0000E+00  0.6931E-09  0.1362E-11  0.1232E-06  0.0000E+00 -0.5804E+14
   -1.500024    4.08168  0.0000E+00  0.0000E+00  0.0000E+00  0.0000E+00  0.0000E+00  0.0000E+00
