 1 - depth, m
 2 - temperature, C
 3 - salinity, kg/kg
 4 - turbulent kinetic energy, m**2/s**2
 5 - dissipation rate, m**2/s**3
 6 - kinematic heat conductance, m**2/s
 7 - modulus of horizontal velocity, m/s
 8 - Richardson number, n/d
   -0.000000    0.00000  0.0000E+00  0.3816E-10  0.2549E-13  0.1000E-09  0.0000E+00  0.2435E+17
   -0.037499    0.38509  0.0000E+00  0.8605E-10  0.2233E-13  0.1000E-09  0.0000E+00  0.2078E+17
   -0.074998    0.75221  0.0000E+00  0.1766E-09  0.2936E-13  0.1000E-09  0.0000E+00  0.1771E+17
   -0.112498    1.10398  0.0000E+00  0.3236E-09  0.4513E-13  0.1000E-09  0.0000E+00  0.1503E+17
   -0.149998    1.44248  0.0000E+00  0.5577E-09  0.7227E-13  0.1000E-09  0.0000E+00  0.1267E+17
   -0.187498    1.76936  0.0000E+00  0.9315E-09  0.1165E-12  0.1000E-09  0.0000E+00  0.1055E+17
   -0.224999    2.08590  0.0000E+00  0.1531E-08  0.1872E-12  0.1000E-09  0.0000E+00  0.8644E+16
   -0.262500    2.39305  0.0000E+00  0.2495E-08  0.3000E-12  0.1209E-09  0.0000E+00  0.6907E+16
   -0.300001    2.69139  0.0000E+00  0.4046E-08  0.4795E-12  0.2509E-09  0.0000E+00  0.5318E+16
   -0.337502    2.98118  0.0000E+00  0.6536E-08  0.7640E-12  0.5509E-09  0.0000E+00  0.3863E+16
   -0.375003    3.26250  0.0000E+00  0.1052E-07  0.1214E-11  0.1335E-08  0.0000E+00  0.2537E+16
   -0.412505    3.53573  0.0000E+00  0.1687E-07  0.1921E-11  0.4085E-08  0.0000E+00  0.1321E+16
   -0.450007    3.79833  0.0000E+00  0.2664E-07  0.2999E-11  0.3254E-07  0.0000E+00  0.2730E+15
   -0.487509    4.01481  0.0000E+00  0.2723E-07  0.3070E-11  0.8533E-04  0.0000E+00 -0.1929E+12
   -0.525011    4.01524  0.0000E+00  0.2751E-07  0.3109E-11  0.8355E-04  0.0000E+00 -0.1995E+12
   -0.562513    4.01568  0.0000E+00  0.2777E-07  0.3152E-11  0.8383E-04  0.0000E+00 -0.2019E+12
   -0.600016    4.01612  0.0000E+00  0.2802E-07  0.3199E-11  0.8402E-04  0.0000E+00 -0.2049E+12
   -0.637518    4.01656  0.0000E+00  0.2824E-07  0.3250E-11  0.8404E-04  0.0000E+00 -0.2083E+12
   -0.675021    4.01700  0.0000E+00  0.2845E-07  0.3305E-11  0.8387E-04  0.0000E+00 -0.2125E+12
   -0.712523    4.01744  0.0000E+00  0.2863E-07  0.3364E-11  0.8351E-04  0.0000E+00 -0.2172E+12
   -0.750026    4.01788  0.0000E+00  0.2880E-07  0.3429E-11  0.8294E-04  0.0000E+00 -0.2224E+12
   -0.787528    4.01833  0.0000E+00  0.2894E-07  0.3498E-11  0.8219E-04  0.0000E+00 -0.2279E+12
   -0.825031    4.01879  0.0000E+00  0.2905E-07  0.3574E-11  0.8122E-04  0.0000E+00 -0.2345E+12
   -0.862533    4.01925  0.0000E+00  0.2915E-07  0.3657E-11  0.8005E-04  0.0000E+00 -0.2419E+12
   -0.900036    4.01972  0.0000E+00  0.2921E-07  0.3748E-11  0.7866E-04  0.0000E+00 -0.2506E+12
   -0.937538    4.02020  0.0000E+00  0.2925E-07  0.3847E-11  0.7706E-04  0.0000E+00 -0.2604E+12
   -0.975040    4.02069  0.0000E+00  0.2926E-07  0.3957E-11  0.7521E-04  0.0000E+00 -0.2719E+12
   -1.012542    4.02119  0.0000E+00  0.2924E-07  0.4080E-11  0.7313E-04  0.0000E+00 -0.2853E+12
   -1.050044    4.02171  0.0000E+00  0.2918E-07  0.4219E-11  0.7076E-04  0.0000E+00 -0.3012E+12
   -1.087546    4.02225  0.0000E+00  0.2909E-07  0.4379E-11  0.6811E-04  0.0000E+00 -0.3199E+12
   -1.125048    4.02282  0.0000E+00  0.2895E-07  0.4562E-11  0.6513E-04  0.0000E+00 -0.3412E+12
   -1.162549    4.02342  0.0000E+00  0.2875E-07  0.4777E-11  0.6183E-04  0.0000E+00 -0.3669E+12
   -1.200051    4.02405  0.0000E+00  0.2850E-07  0.5031E-11  0.5815E-04  0.0000E+00 -0.3987E+12
   -1.237552    4.02472  0.0000E+00  0.2818E-07  0.5339E-11  0.5405E-04  0.0000E+00 -0.4390E+12
   -1.275053    4.02544  0.0000E+00  0.2777E-07  0.5728E-11  0.4947E-04  0.0000E+00 -0.4924E+12
   -1.312553    4.02624  0.0000E+00  0.2718E-07  0.6292E-11  0.4389E-04  0.0000E+00 -0.5715E+12
   -1.350053    4.02715  0.0000E+00  0.2622E-07  0.7270E-11  0.2804E-04  0.0000E+00 -0.9297E+12
   -1.387553    4.02859  0.0000E+00  0.2458E-07  0.9131E-11  0.1673E-04  0.0000E+00 -0.1648E+13
   -1.425053    4.03102  0.0000E+00  0.2157E-07  0.1346E-10  0.7533E-05  0.0000E+00 -0.4025E+13
   -1.462552    4.03647  0.0000E+00  0.1354E-07  0.3313E-10  0.9553E-06  0.0000E+00 -0.4237E+14
   -1.500051    4.07541  0.0000E+00  0.0000E+00  0.0000E+00  0.0000E+00  0.0000E+00  0.0000E+00
