 1 - depth, m
 2 - temperature, C
 3 - salinity, kg/kg
 4 - turbulent kinetic energy, m**2/s**2
 5 - dissipation rate, m**2/s**3
 6 - kinematic heat conductance, m**2/s
 7 - modulus of horizontal velocity, m/s
 8 - Richardson number, n/d
   -0.000000    0.00000  0.0000E+00  0.4096E-13  0.8590E-16  0.1000E-09  0.0000E+00  0.1047E+17
   -0.037494    0.16048  0.0000E+00  0.4096E-13  0.8590E-16  0.1000E-09  0.0000E+00  0.9886E+16
   -0.074989    0.31891  0.0000E+00  0.4096E-13  0.8590E-16  0.1000E-09  0.0000E+00  0.9321E+16
   -0.112484    0.47525  0.0000E+00  0.4096E-13  0.8590E-16  0.1000E-09  0.0000E+00  0.8773E+16
   -0.149980    0.62948  0.0000E+00  0.4096E-13  0.8590E-16  0.1000E-09  0.0000E+00  0.8244E+16
   -0.187476    0.78156  0.0000E+00  0.4096E-13  0.8590E-16  0.1000E-09  0.0000E+00  0.7733E+16
   -0.224972    0.93148  0.0000E+00  0.4096E-13  0.8590E-16  0.1000E-09  0.0000E+00  0.7241E+16
   -0.262468    1.07922  0.0000E+00  0.4096E-13  0.8590E-16  0.1000E-09  0.0000E+00  0.6761E+16
   -0.299965    1.22467  0.0000E+00  0.4096E-13  0.8590E-16  0.1000E-09  0.0000E+00  0.6299E+16
   -0.337461    1.36778  0.0000E+00  0.4096E-13  0.8590E-16  0.1000E-09  0.0000E+00  0.5854E+16
   -0.374958    1.50853  0.0000E+00  0.4096E-13  0.8590E-16  0.1000E-09  0.0000E+00  0.5449E+16
   -0.412456    1.64747  0.0000E+00  0.4096E-13  0.8590E-16  0.1000E-09  0.0000E+00  0.5070E+16
   -0.449953    1.78492  0.0000E+00  0.4096E-13  0.8590E-16  0.1000E-09  0.0000E+00  0.4702E+16
   -0.487450    1.92089  0.0000E+00  0.4096E-13  0.8590E-16  0.1000E-09  0.0000E+00  0.4345E+16
   -0.524948    2.05533  0.0000E+00  0.1419E-12  0.8590E-16  0.1000E-09  0.0000E+00  0.3998E+16
   -0.562446    2.18819  0.0000E+00  0.4083E-12  0.1155E-15  0.1000E-09  0.0000E+00  0.3662E+16
   -0.599944    2.31944  0.0000E+00  0.8999E-12  0.2043E-15  0.1000E-09  0.0000E+00  0.3336E+16
   -0.637442    2.44902  0.0000E+00  0.1791E-11  0.3772E-15  0.1000E-09  0.0000E+00  0.3021E+16
   -0.674940    2.57689  0.0000E+00  0.3419E-11  0.6950E-15  0.1000E-09  0.0000E+00  0.2717E+16
   -0.712438    2.70299  0.0000E+00  0.6407E-11  0.1271E-14  0.1000E-09  0.0000E+00  0.2424E+16
   -0.749936    2.82726  0.0000E+00  0.1189E-10  0.2309E-14  0.1000E-09  0.0000E+00  0.2154E+16
   -0.787434    2.95038  0.0000E+00  0.2190E-10  0.4168E-14  0.1000E-09  0.0000E+00  0.1895E+16
   -0.824932    3.07259  0.0000E+00  0.4010E-10  0.7486E-14  0.1000E-09  0.0000E+00  0.1643E+16
   -0.862430    3.19384  0.0000E+00  0.7306E-10  0.1338E-13  0.1000E-09  0.0000E+00  0.1396E+16
   -0.899927    3.31410  0.0000E+00  0.1324E-09  0.2379E-13  0.1000E-09  0.0000E+00  0.1155E+16
   -0.937425    3.43331  0.0000E+00  0.2388E-09  0.4210E-13  0.1268E-09  0.0000E+00  0.9209E+15
   -0.974923    3.55139  0.0000E+00  0.4287E-09  0.7416E-13  0.2968E-09  0.0000E+00  0.6929E+15
   -1.012421    3.66817  0.0000E+00  0.7670E-09  0.1303E-12  0.7648E-09  0.0000E+00  0.4722E+15
   -1.049918    3.78339  0.0000E+00  0.1369E-08  0.2283E-12  0.2439E-08  0.0000E+00  0.2593E+15
   -1.087415    3.89605  0.0000E+00  0.2419E-08  0.3966E-12  0.1732E-07  0.0000E+00  0.6298E+14
   -1.124913    3.99697  0.0000E+00  0.3168E-08  0.5221E-12  0.6949E-05  0.0000E+00 -0.4135E+12
   -1.162410    3.99921  0.0000E+00  0.3548E-08  0.6027E-12  0.7691E-05  0.0000E+00 -0.4452E+12
   -1.199906    4.00125  0.0000E+00  0.3859E-08  0.6891E-12  0.7994E-05  0.0000E+00 -0.4930E+12
   -1.237403    4.00323  0.0000E+00  0.4105E-08  0.7859E-12  0.7890E-05  0.0000E+00 -0.5656E+12
   -1.274899    4.00524  0.0000E+00  0.4284E-08  0.9026E-12  0.7391E-05  0.0000E+00 -0.6810E+12
   -1.312395    4.00741  0.0000E+00  0.4384E-08  0.1055E-11  0.6476E-05  0.0000E+00 -0.8780E+12
   -1.349891    4.00992  0.0000E+00  0.4374E-08  0.1274E-11  0.5147E-05  0.0000E+00 -0.1261E+13
   -1.387387    4.01311  0.0000E+00  0.4190E-08  0.1639E-11  0.3453E-05  0.0000E+00 -0.2202E+13
   -1.424882    4.01793  0.0000E+00  0.3674E-08  0.2423E-11  0.1616E-05  0.0000E+00 -0.5852E+13
   -1.462377    4.02811  0.0000E+00  0.2572E-08  0.4969E-11  0.3065E-06  0.0000E+00 -0.4118E+14
   -1.499871    4.07003  0.0000E+00  0.0000E+00  0.0000E+00  0.0000E+00  0.0000E+00  0.0000E+00
