 1 - depth, m
 2 - temperature, C
 3 - salinity, kg/kg
 4 - turbulent kinetic energy, m**2/s**2
 5 - dissipation rate, m**2/s**3
 6 - kinematic heat conductance, m**2/s
 7 - modulus of horizontal velocity, m/s
 8 - Richardson number, n/d
   -0.000000    0.00000  0.0000E+00  0.4096E-13  0.8590E-16  0.1000E-09  0.0000E+00  0.1776E+17
   -0.037496    0.27660  0.0000E+00  0.4096E-13  0.8590E-16  0.1000E-09  0.0000E+00  0.1422E+17
   -0.074993    0.51509  0.0000E+00  0.4096E-13  0.8590E-16  0.1000E-09  0.0000E+00  0.1141E+17
   -0.112490    0.71972  0.0000E+00  0.4096E-13  0.8590E-16  0.1000E-09  0.0000E+00  0.9176E+16
   -0.149987    0.89473  0.0000E+00  0.4096E-13  0.8590E-16  0.1000E-09  0.0000E+00  0.7416E+16
   -0.187485    1.04419  0.0000E+00  0.4096E-13  0.8590E-16  0.1000E-09  0.0000E+00  0.6034E+16
   -0.224983    1.17199  0.0000E+00  0.4096E-13  0.8590E-16  0.1000E-09  0.0000E+00  0.4957E+16
   -0.262481    1.28171  0.0000E+00  0.4096E-13  0.8590E-16  0.1000E-09  0.0000E+00  0.4057E+16
   -0.299980    1.37512  0.0000E+00  0.4096E-13  0.8590E-16  0.1000E-09  0.0000E+00  0.3347E+16
   -0.337478    1.45490  0.0000E+00  0.4096E-13  0.8590E-16  0.1000E-09  0.0000E+00  0.2800E+16
   -0.374977    1.52374  0.0000E+00  0.4096E-13  0.8590E-16  0.1000E-09  0.0000E+00  0.2498E+16
   -0.412476    1.58689  0.0000E+00  0.4152E-13  0.8590E-16  0.1000E-09  0.0000E+00  0.2362E+16
   -0.449976    1.64823  0.0000E+00  0.8844E-13  0.8739E-16  0.1000E-09  0.0000E+00  0.2300E+16
   -0.487475    1.70961  0.0000E+00  0.2437E-12  0.1324E-15  0.1000E-09  0.0000E+00  0.2288E+16
   -0.524975    1.77243  0.0000E+00  0.6525E-12  0.2686E-15  0.1000E-09  0.0000E+00  0.2272E+16
   -0.562474    1.83669  0.0000E+00  0.1603E-11  0.6167E-15  0.1000E-09  0.0000E+00  0.2298E+16
   -0.599974    1.90378  0.0000E+00  0.3798E-11  0.1414E-14  0.1000E-09  0.0000E+00  0.2358E+16
   -0.637474    1.97506  0.0000E+00  0.8853E-11  0.3206E-14  0.1000E-09  0.0000E+00  0.2448E+16
   -0.674974    2.05193  0.0000E+00  0.2040E-10  0.7198E-14  0.1000E-09  0.0000E+00  0.2563E+16
   -0.712474    2.13598  0.0000E+00  0.4653E-10  0.1600E-13  0.1000E-09  0.0000E+00  0.2701E+16
   -0.749973    2.22913  0.0000E+00  0.1051E-09  0.3523E-13  0.1000E-09  0.0000E+00  0.3048E+16
   -0.787473    2.34084  0.0000E+00  0.2351E-09  0.7682E-13  0.1033E-09  0.0000E+00  0.3426E+16
   -0.824973    2.47667  0.0000E+00  0.5207E-09  0.1659E-12  0.1363E-09  0.0000E+00  0.3728E+16
   -0.862473    2.64057  0.0000E+00  0.1142E-08  0.3549E-12  0.2554E-09  0.0000E+00  0.3892E+16
   -0.899973    2.83733  0.0000E+00  0.2480E-08  0.7518E-12  0.5604E-09  0.0000E+00  0.3828E+16
   -0.937473    3.07277  0.0000E+00  0.5330E-08  0.1577E-11  0.1381E-08  0.0000E+00  0.3394E+16
   -0.974972    3.35355  0.0000E+00  0.1131E-07  0.3271E-11  0.5066E-08  0.0000E+00  0.2375E+16
   -1.012472    3.68199  0.0000E+00  0.2096E-07  0.6025E-11  0.3611E-05  0.0000E+00  0.8975E+15
   -1.049971    3.96045  0.0000E+00  0.2627E-07  0.7665E-11  0.2643E-04  0.0000E+00  0.8876E+14
   -1.087471    4.03617  0.0000E+00  0.2781E-07  0.8212E-11  0.3705E-04  0.0000E+00 -0.1333E+13
   -1.124970    4.03787  0.0000E+00  0.2875E-07  0.8648E-11  0.3713E-04  0.0000E+00 -0.1386E+13
   -1.162469    4.03957  0.0000E+00  0.2949E-07  0.9119E-11  0.3694E-04  0.0000E+00 -0.1441E+13
   -1.199967    4.04129  0.0000E+00  0.3003E-07  0.9645E-11  0.3624E-04  0.0000E+00 -0.1519E+13
   -1.237466    4.04303  0.0000E+00  0.3038E-07  0.1025E-10  0.3493E-04  0.0000E+00 -0.1633E+13
   -1.274964    4.04485  0.0000E+00  0.3051E-07  0.1100E-10  0.3290E-04  0.0000E+00 -0.1804E+13
   -1.312462    4.04680  0.0000E+00  0.3037E-07  0.1202E-10  0.2971E-04  0.0000E+00 -0.2087E+13
   -1.349959    4.04898  0.0000E+00  0.2979E-07  0.1368E-10  0.2266E-04  0.0000E+00 -0.2893E+13
   -1.387457    4.05189  0.0000E+00  0.2843E-07  0.1667E-10  0.1494E-04  0.0000E+00 -0.4738E+13
   -1.424954    4.05638  0.0000E+00  0.2552E-07  0.2332E-10  0.7521E-05  0.0000E+00 -0.1060E+14
   -1.462451    4.06550  0.0000E+00  0.1773E-07  0.5126E-10  0.1293E-05  0.0000E+00 -0.8305E+14
   -1.499947    4.11634  0.0000E+00  0.0000E+00  0.0000E+00  0.0000E+00  0.0000E+00  0.0000E+00
