 1 - depth, m
 2 - temperature, C
 3 - salinity, kg/kg
 4 - turbulent kinetic energy, m**2/s**2
 5 - dissipation rate, m**2/s**3
 6 - kinematic heat conductance, m**2/s
 7 - modulus of horizontal velocity, m/s
 8 - Richardson number, n/d
   -0.000000    0.00000  0.0000E+00  0.4096E-13  0.8591E-16  0.1000E-09  0.6434E-16  0.9102E+16
   -0.037496    0.13923  0.0000E+00  0.4096E-13  0.8591E-16  0.1000E-09  0.3602E-16  0.5928E+16
   -0.074992    0.23302  0.0000E+00  0.4096E-13  0.8591E-16  0.1000E-09  0.1988E-16  0.3791E+16
   -0.112489    0.29447  0.0000E+00  0.4096E-13  0.8591E-16  0.1000E-09  0.1082E-16  0.2422E+16
   -0.149986    0.33442  0.0000E+00  0.4096E-13  0.8591E-16  0.1000E-09  0.5794E-17  0.1605E+16
   -0.187483    0.36119  0.0000E+00  0.4096E-13  0.8591E-16  0.1000E-09  0.3044E-17  0.1172E+16
   -0.224980    0.38086  0.0000E+00  0.4096E-13  0.8591E-16  0.1000E-09  0.1545E-17  0.9970E+15
   -0.262478    0.39765  0.0000E+00  0.4096E-13  0.8591E-16  0.1000E-09  0.7088E-18  0.8426E+15
   -0.299976    0.41187  0.0000E+00  0.4096E-13  0.8591E-16  0.1000E-09  0.3150E-18  0.7747E+15
   -0.337474    0.42497  0.0000E+00  0.4096E-13  0.8591E-16  0.1000E-09  0.1377E-18  0.7849E+15
   -0.374973    0.43828  0.0000E+00  0.4096E-13  0.8591E-16  0.1000E-09  0.5922E-19  0.9141E+15
   -0.412471    0.45383  0.0000E+00  0.4096E-13  0.8591E-16  0.1000E-09  0.2502E-19  0.1120E+16
   -0.449970    0.47300  0.0000E+00  0.4096E-13  0.8591E-16  0.1000E-09  0.1034E-19  0.1355E+16
   -0.487469    0.49634  0.0000E+00  0.4096E-13  0.8591E-16  0.1000E-09  0.4062E-20  0.1583E+16
   -0.524968    0.52384  0.0000E+00  0.4096E-13  0.8591E-16  0.1000E-09  0.1430E-20  0.1670E+16
   -0.562467    0.55313  0.0000E+00  0.4096E-13  0.8591E-16  0.1000E-09  0.4933E-21  0.1803E+16
   -0.599967    0.58507  0.0000E+00  0.4096E-13  0.8591E-16  0.1000E-09  0.1666E-21  0.1990E+16
   -0.637466    0.62070  0.0000E+00  0.4096E-13  0.8591E-16  0.1000E-09  0.5503E-22  0.2230E+16
   -0.674966    0.66112  0.0000E+00  0.4096E-13  0.8591E-16  0.1000E-09  0.1778E-22  0.2523E+16
   -0.712465    0.70747  0.0000E+00  0.4096E-13  0.8591E-16  0.1000E-09  0.5616E-23  0.2858E+16
   -0.749964    0.76081  0.0000E+00  0.4096E-13  0.8591E-16  0.1000E-09  0.1733E-23  0.3425E+16
   -0.787464    0.82595  0.0000E+00  0.4096E-13  0.8591E-16  0.1000E-09  0.5217E-24  0.4050E+16
   -0.824963    0.90480  0.0000E+00  0.4096E-13  0.8591E-16  0.1000E-09  0.1533E-24  0.4631E+16
   -0.862463    0.99761  0.0000E+00  0.4096E-13  0.8591E-16  0.1000E-09  0.4388E-25  0.5141E+16
   -0.899962    1.10427  0.0000E+00  0.4096E-13  0.8591E-16  0.1000E-09  0.1223E-25  0.5558E+16
   -0.937461    1.22440  0.0000E+00  0.4096E-13  0.8591E-16  0.1000E-09  0.3316E-26  0.5865E+16
   -0.974961    1.35740  0.0000E+00  0.4096E-13  0.8591E-16  0.1000E-09  0.8639E-27  0.6055E+16
   -1.012460    1.50249  0.0000E+00  0.4364E-13  0.8706E-16  0.1000E-09  0.1796E-27  0.5872E+16
   -1.049959    1.65221  0.0000E+00  0.6419E-13  0.1093E-15  0.1000E-09  0.3464E-28  0.5581E+16
   -1.087457    1.80450  0.0000E+00  0.1815E-12  0.2460E-15  0.1000E-09  0.6395E-29  0.5263E+16
   -1.124956    1.95915  0.0000E+00  0.7168E-12  0.8928E-15  0.1000E-09  0.1127E-29  0.5538E+16
   -1.162455    2.13642  0.0000E+00  0.2995E-11  0.3601E-14  0.1000E-09  0.1891E-30  0.5741E+16
   -1.199953    2.34114  0.0000E+00  0.1255E-10  0.1475E-13  0.1000E-09  0.3007E-31  0.5733E+16
   -1.237451    2.57647  0.0000E+00  0.5202E-10  0.5991E-13  0.1045E-09  0.4244E-32  0.5447E+16
   -1.274949    2.84686  0.0000E+00  0.2159E-09  0.2441E-12  0.2010E-09  0.4351E-33  0.4750E+16
   -1.312446    3.15780  0.0000E+00  0.8897E-09  0.9902E-12  0.1204E-08  0.4047E-34  0.3517E+16
   -1.349943    3.52216  0.0000E+00  0.3213E-08  0.3653E-11  0.3771E-06  0.3371E-35  0.1746E+16
   -1.387440    3.86009  0.0000E+00  0.8120E-08  0.1037E-10  0.2248E-05  0.2474E-36  0.4805E+15
   -1.424937    4.04220  0.0000E+00  0.1250E-07  0.2175E-10  0.2487E-05  0.1567E-37 -0.2590E+14
   -1.462433    4.10967  0.0000E+00  0.1351E-07  0.4840E-10  0.1081E-05  0.8989E-39 -0.1733E+15
   -1.499929    4.18028  0.0000E+00  0.0000E+00  0.0000E+00  0.0000E+00  0.1307E-38  0.0000E+00
