 1 - depth, m
 2 - temperature, C
 3 - salinity, kg/kg
 4 - turbulent kinetic energy, m**2/s**2
 5 - dissipation rate, m**2/s**3
 6 - kinematic heat conductance, m**2/s
 7 - modulus of horizontal velocity, m/s
 8 - Richardson number, n/d
   -0.000000    0.00000  0.0000E+00  0.1459E-10  0.8575E-14  0.1000E-09  0.0000E+00  0.2350E+17
   -0.037494    0.37089  0.0000E+00  0.3100E-10  0.9368E-14  0.1000E-09  0.0000E+00  0.1901E+17
   -0.074989    0.70356  0.0000E+00  0.6597E-10  0.1538E-13  0.1000E-09  0.0000E+00  0.1548E+17
   -0.112483    1.00343  0.0000E+00  0.1319E-09  0.2813E-13  0.1000E-09  0.0000E+00  0.1273E+17
   -0.149979    1.27618  0.0000E+00  0.2546E-09  0.5219E-13  0.1000E-09  0.0000E+00  0.1061E+17
   -0.187474    1.52761  0.0000E+00  0.4827E-09  0.9642E-13  0.1000E-09  0.0000E+00  0.8981E+16
   -0.224970    1.76374  0.0000E+00  0.9052E-09  0.1769E-12  0.1020E-09  0.0000E+00  0.7750E+16
   -0.262466    1.99096  0.0000E+00  0.1684E-08  0.3223E-12  0.1371E-09  0.0000E+00  0.6802E+16
   -0.299962    2.21545  0.0000E+00  0.3112E-08  0.5835E-12  0.2633E-09  0.0000E+00  0.6078E+16
   -0.337459    2.44495  0.0000E+00  0.5711E-08  0.1049E-11  0.5268E-09  0.0000E+00  0.5487E+16
   -0.374955    2.68861  0.0000E+00  0.1041E-07  0.1873E-11  0.1049E-08  0.0000E+00  0.4987E+16
   -0.412452    2.96214  0.0000E+00  0.1882E-07  0.3320E-11  0.2273E-08  0.0000E+00  0.4259E+16
   -0.449949    3.28013  0.0000E+00  0.3367E-07  0.5826E-11  0.7864E-08  0.0000E+00  0.2913E+16
   -0.487446    3.64474  0.0000E+00  0.5200E-07  0.8939E-11  0.1938E-04  0.0000E+00  0.1184E+16
   -0.524944    3.93448  0.0000E+00  0.6128E-07  0.1056E-10  0.8160E-04  0.0000E+00  0.1632E+15
   -0.562441    4.03717  0.0000E+00  0.6211E-07  0.1073E-10  0.1206E-03  0.0000E+00 -0.4570E+12
   -0.599939    4.03774  0.0000E+00  0.6267E-07  0.1086E-10  0.1199E-03  0.0000E+00 -0.4696E+12
   -0.637436    4.03833  0.0000E+00  0.6319E-07  0.1102E-10  0.1201E-03  0.0000E+00 -0.4786E+12
   -0.674934    4.03892  0.0000E+00  0.6366E-07  0.1118E-10  0.1200E-03  0.0000E+00 -0.4903E+12
   -0.712432    4.03951  0.0000E+00  0.6408E-07  0.1136E-10  0.1197E-03  0.0000E+00 -0.5041E+12
   -0.749929    4.04012  0.0000E+00  0.6444E-07  0.1156E-10  0.1190E-03  0.0000E+00 -0.5136E+12
   -0.787427    4.04073  0.0000E+00  0.6474E-07  0.1177E-10  0.1181E-03  0.0000E+00 -0.5229E+12
   -0.824925    4.04134  0.0000E+00  0.6499E-07  0.1200E-10  0.1168E-03  0.0000E+00 -0.5343E+12
   -0.862422    4.04196  0.0000E+00  0.6517E-07  0.1225E-10  0.1153E-03  0.0000E+00 -0.5479E+12
   -0.899920    4.04258  0.0000E+00  0.6530E-07  0.1253E-10  0.1134E-03  0.0000E+00 -0.5641E+12
   -0.937417    4.04322  0.0000E+00  0.6535E-07  0.1283E-10  0.1111E-03  0.0000E+00 -0.5834E+12
   -0.974915    4.04387  0.0000E+00  0.6534E-07  0.1317E-10  0.1085E-03  0.0000E+00 -0.6061E+12
   -1.012412    4.04454  0.0000E+00  0.6526E-07  0.1355E-10  0.1055E-03  0.0000E+00 -0.6347E+12
   -1.049909    4.04524  0.0000E+00  0.6509E-07  0.1398E-10  0.1021E-03  0.0000E+00 -0.6695E+12
   -1.087406    4.04596  0.0000E+00  0.6484E-07  0.1448E-10  0.9832E-04  0.0000E+00 -0.7113E+12
   -1.124903    4.04671  0.0000E+00  0.6448E-07  0.1505E-10  0.9406E-04  0.0000E+00 -0.7528E+12
   -1.162400    4.04750  0.0000E+00  0.6400E-07  0.1572E-10  0.8934E-04  0.0000E+00 -0.8021E+12
   -1.199896    4.04834  0.0000E+00  0.6339E-07  0.1653E-10  0.8409E-04  0.0000E+00 -0.8631E+12
   -1.237393    4.04922  0.0000E+00  0.6264E-07  0.1750E-10  0.7827E-04  0.0000E+00 -0.9411E+12
   -1.274889    4.05016  0.0000E+00  0.6168E-07  0.1874E-10  0.7167E-04  0.0000E+00 -0.1046E+13
   -1.312384    4.05120  0.0000E+00  0.6046E-07  0.2039E-10  0.6441E-04  0.0000E+00 -0.1190E+13
   -1.349880    4.05236  0.0000E+00  0.5869E-07  0.2296E-10  0.5365E-04  0.0000E+00 -0.1456E+13
   -1.387375    4.05376  0.0000E+00  0.5559E-07  0.2809E-10  0.2858E-04  0.0000E+00 -0.2841E+13
   -1.424870    4.05640  0.0000E+00  0.4959E-07  0.4057E-10  0.1293E-04  0.0000E+00 -0.6723E+13
   -1.462364    4.06229  0.0000E+00  0.3193E-07  0.1015E-09  0.1677E-05  0.0000E+00 -0.6582E+14
   -1.499859    4.10541  0.0000E+00  0.0000E+00  0.0000E+00  0.0000E+00  0.0000E+00  0.0000E+00
