 1 - depth, m
 2 - temperature, C
 3 - salinity, kg/kg
 4 - turbulent kinetic energy, m**2/s**2
 5 - dissipation rate, m**2/s**3
 6 - kinematic heat conductance, m**2/s
 7 - modulus of horizontal velocity, m/s
 8 - Richardson number, n/d
   -0.000000    0.00000  0.0000E+00  0.4096E-13  0.8590E-16  0.1000E-09  0.0000E+00  0.1707E+17
   -0.037497    0.26546  0.0000E+00  0.4096E-13  0.8590E-16  0.1000E-09  0.0000E+00  0.1374E+17
   -0.074995    0.49486  0.0000E+00  0.4096E-13  0.8590E-16  0.1000E-09  0.0000E+00  0.1107E+17
   -0.112493    0.69198  0.0000E+00  0.4096E-13  0.8590E-16  0.1000E-09  0.0000E+00  0.8933E+16
   -0.149991    0.86063  0.0000E+00  0.4096E-13  0.8590E-16  0.1000E-09  0.0000E+00  0.7229E+16
   -0.187490    1.00448  0.0000E+00  0.4096E-13  0.8590E-16  0.1000E-09  0.0000E+00  0.5877E+16
   -0.224989    1.12703  0.0000E+00  0.4096E-13  0.8590E-16  0.1000E-09  0.0000E+00  0.4808E+16
   -0.262488    1.23156  0.0000E+00  0.4096E-13  0.8590E-16  0.1000E-09  0.0000E+00  0.3912E+16
   -0.299988    1.31978  0.0000E+00  0.4096E-13  0.8590E-16  0.1000E-09  0.0000E+00  0.3195E+16
   -0.337487    1.39418  0.0000E+00  0.4096E-13  0.8590E-16  0.1000E-09  0.0000E+00  0.2633E+16
   -0.374987    1.45722  0.0000E+00  0.4096E-13  0.8590E-16  0.1000E-09  0.0000E+00  0.2304E+16
   -0.412487    1.51376  0.0000E+00  0.4096E-13  0.8590E-16  0.1000E-09  0.0000E+00  0.2134E+16
   -0.449987    1.56735  0.0000E+00  0.4096E-13  0.8590E-16  0.1000E-09  0.0000E+00  0.2038E+16
   -0.487488    1.61970  0.0000E+00  0.4096E-13  0.8590E-16  0.1000E-09  0.0000E+00  0.1992E+16
   -0.524988    1.67206  0.0000E+00  0.4096E-13  0.8590E-16  0.1000E-09  0.0000E+00  0.1949E+16
   -0.562489    1.72452  0.0000E+00  0.4096E-13  0.8590E-16  0.1000E-09  0.0000E+00  0.1946E+16
   -0.599990    1.77819  0.0000E+00  0.4096E-13  0.8590E-16  0.1000E-09  0.0000E+00  0.1974E+16
   -0.637490    1.83403  0.0000E+00  0.4096E-13  0.8590E-16  0.1000E-09  0.0000E+00  0.2023E+16
   -0.674991    1.89287  0.0000E+00  0.4096E-13  0.8590E-16  0.1000E-09  0.0000E+00  0.2088E+16
   -0.712492    1.95544  0.0000E+00  0.7363E-13  0.8624E-16  0.1000E-09  0.0000E+00  0.2161E+16
   -0.749993    2.02236  0.0000E+00  0.1795E-12  0.1262E-15  0.1000E-09  0.0000E+00  0.2358E+16
   -0.787494    2.09818  0.0000E+00  0.5154E-12  0.2604E-15  0.1000E-09  0.0000E+00  0.2580E+16
   -0.824995    2.18489  0.0000E+00  0.1366E-11  0.6463E-15  0.1000E-09  0.0000E+00  0.2775E+16
   -0.862496    2.28326  0.0000E+00  0.3493E-11  0.1606E-14  0.1000E-09  0.0000E+00  0.2937E+16
   -0.899996    2.39417  0.0000E+00  0.8795E-11  0.3946E-14  0.1000E-09  0.0000E+00  0.3055E+16
   -0.937497    2.51871  0.0000E+00  0.2190E-10  0.9603E-14  0.1000E-09  0.0000E+00  0.3119E+16
   -0.974998    2.65818  0.0000E+00  0.5402E-10  0.2315E-13  0.1000E-09  0.0000E+00  0.3112E+16
   -1.012498    2.81420  0.0000E+00  0.1323E-09  0.5542E-13  0.1000E-09  0.0000E+00  0.3003E+16
   -1.049999    2.98825  0.0000E+00  0.3221E-09  0.1320E-12  0.1412E-09  0.0000E+00  0.2775E+16
   -1.087499    3.18277  0.0000E+00  0.7781E-09  0.3118E-12  0.3739E-09  0.0000E+00  0.2383E+16
   -1.124999    3.40029  0.0000E+00  0.1863E-08  0.7304E-12  0.1219E-08  0.0000E+00  0.1777E+16
   -1.162499    3.64403  0.0000E+00  0.4406E-08  0.1692E-11  0.7406E-08  0.0000E+00  0.8730E+15
   -1.199999    3.90527  0.0000E+00  0.8116E-08  0.3170E-11  0.3638E-05  0.0000E+00  0.1212E+15
   -1.237498    4.01971  0.0000E+00  0.1071E-07  0.4347E-11  0.9514E-05  0.0000E+00 -0.2459E+13
   -1.274997    4.02425  0.0000E+00  0.1209E-07  0.5260E-11  0.9911E-05  0.0000E+00 -0.2820E+13
   -1.312496    4.02884  0.0000E+00  0.1319E-07  0.6410E-11  0.9514E-05  0.0000E+00 -0.3505E+13
   -1.349995    4.03392  0.0000E+00  0.1397E-07  0.8027E-11  0.8319E-05  0.0000E+00 -0.4859E+13
   -1.387493    4.04015  0.0000E+00  0.1432E-07  0.1067E-10  0.6316E-05  0.0000E+00 -0.8043E+13
   -1.424991    4.04908  0.0000E+00  0.1387E-07  0.1624E-10  0.3613E-05  0.0000E+00 -0.1909E+14
   -1.462489    4.06632  0.0000E+00  0.1157E-07  0.3558E-10  0.9824E-06  0.0000E+00 -0.1173E+15
   -1.499986    4.13270  0.0000E+00  0.0000E+00  0.0000E+00  0.0000E+00  0.0000E+00  0.0000E+00
