 1 - depth, m
 2 - temperature, C
 3 - salinity, kg/kg
 4 - turbulent kinetic energy, m**2/s**2
 5 - dissipation rate, m**2/s**3
 6 - kinematic heat conductance, m**2/s
 7 - modulus of horizontal velocity, m/s
 8 - Richardson number, n/d
   -0.000000   14.24952  0.0000E+00  0.1174E-03  0.6587E-04  0.4813E-04  0.9234E-01 -0.1955E-01
   -0.037497   14.29653  0.0000E+00  0.6761E-04  0.1795E-04  0.8743E-04  0.3307E-01 -0.1049E+00
   -0.074994   14.30612  0.0000E+00  0.5018E-04  0.7193E-05  0.1143E-03  0.2380E-01  0.2356E+02
   -0.112492   14.31202  0.0000E+00  0.4082E-04  0.3751E-05  0.1345E-03  0.1982E-01  0.1490E+02
   -0.149990   14.31612  0.0000E+00  0.3443E-04  0.2174E-05  0.1552E-03  0.1706E-01  0.2486E+01
   -0.187489   14.31936  0.0000E+00  0.2978E-04  0.1348E-05  0.1790E-03  0.1488E-01  0.9831E+01
   -0.224987   14.32205  0.0000E+00  0.2623E-04  0.8796E-06  0.2063E-03  0.1308E-01  0.2267E+01
   -0.262486   14.32435  0.0000E+00  0.2343E-04  0.6013E-06  0.2328E-03  0.1156E-01  0.8650E+01
   -0.299985   14.32635  0.0000E+00  0.2120E-04  0.4295E-06  0.2606E-03  0.1027E-01  0.8262E+01
   -0.337485   14.32812  0.0000E+00  0.1938E-04  0.3190E-06  0.2902E-03  0.9176E-02  0.5889E+02
   -0.374984   14.32970  0.0000E+00  0.1789E-04  0.2451E-06  0.3221E-03  0.8229E-02  0.1009E+03
   -0.412484   14.33113  0.0000E+00  0.1665E-04  0.1937E-06  0.3517E-03  0.7404E-02  0.7068E+02
   -0.449984   14.33242  0.0000E+00  0.1561E-04  0.1568E-06  0.3890E-03  0.6680E-02  0.4501E+02
   -0.487484   14.33359  0.0000E+00  0.1471E-04  0.1295E-06  0.4445E-03  0.6040E-02  0.3938E+02
   -0.524984   14.33461  0.0000E+00  0.1394E-04  0.1086E-06  0.5163E-03  0.5471E-02  0.1749E+03
   -0.562485   14.33547  0.0000E+00  0.1327E-04  0.9240E-07  0.5735E-03  0.4965E-02  0.1240E+03
   -0.599985   14.33621  0.0000E+00  0.1268E-04  0.7956E-07  0.6119E-03  0.4504E-02  0.6888E+02
   -0.637486   14.33687  0.0000E+00  0.1215E-04  0.6919E-07  0.6406E-03  0.4079E-02  0.2519E+02
   -0.674986   14.33749  0.0000E+00  0.1167E-04  0.6068E-07  0.6633E-03  0.3687E-02  0.8484E+01
   -0.712487   14.33809  0.0000E+00  0.1123E-04  0.5361E-07  0.6787E-03  0.3323E-02  0.5607E+01
   -0.749987   14.33869  0.0000E+00  0.1081E-04  0.4768E-07  0.6902E-03  0.2986E-02  0.4049E+01
   -0.787488   14.33927  0.0000E+00  0.1042E-04  0.4268E-07  0.6982E-03  0.2674E-02  0.3766E+01
   -0.824989   14.33986  0.0000E+00  0.1005E-04  0.3844E-07  0.7026E-03  0.2385E-02  0.2841E+01
   -0.862489   14.34046  0.0000E+00  0.9685E-05  0.3484E-07  0.7035E-03  0.2116E-02  0.2713E+01
   -0.899990   14.34106  0.0000E+00  0.9331E-05  0.3179E-07  0.7011E-03  0.1867E-02  0.2644E+01
   -0.937490   14.34168  0.0000E+00  0.8980E-05  0.2922E-07  0.6954E-03  0.1636E-02  0.2503E+01
   -0.974990   14.34231  0.0000E+00  0.8629E-05  0.2708E-07  0.6859E-03  0.1422E-02  0.2283E+01
   -1.012491   14.34295  0.0000E+00  0.8275E-05  0.2532E-07  0.6764E-03  0.1223E-02  0.2034E+01
   -1.049991   14.34362  0.0000E+00  0.7918E-05  0.2393E-07  0.6643E-03  0.1045E-02  0.1844E+01
   -1.087491   14.34431  0.0000E+00  0.7561E-05  0.2291E-07  0.6476E-03  0.8885E-03  0.1713E+01
   -1.124990   14.34502  0.0000E+00  0.7208E-05  0.2227E-07  0.6243E-03  0.7519E-03  0.1653E+01
   -1.162490   14.34577  0.0000E+00  0.6863E-05  0.2202E-07  0.5971E-03  0.6340E-03  0.1657E+01
   -1.199989   14.34657  0.0000E+00  0.6531E-05  0.2218E-07  0.5642E-03  0.5334E-03  0.1789E+01
   -1.237488   14.34742  0.0000E+00  0.6217E-05  0.2278E-07  0.5117E-03  0.4487E-03  0.2104E+01
   -1.274987   14.34839  0.0000E+00  0.5921E-05  0.2389E-07  0.4433E-03  0.3789E-03  0.2887E+01
   -1.312486   14.34952  0.0000E+00  0.5623E-05  0.2573E-07  0.3892E-03  0.3252E-03  0.5086E+01
   -1.349984   14.35083  0.0000E+00  0.5271E-05  0.2913E-07  0.3044E-03  0.2827E-03  0.3191E+02
   -1.387482   14.35266  0.0000E+00  0.4814E-05  0.3546E-07  0.2728E-03  0.2401E-03  0.6980E+02
   -1.424980   14.35462  0.0000E+00  0.4056E-05  0.5466E-07  0.1207E-03  0.2070E-03  0.1934E+03
   -1.462478   14.36347  0.0000E+00  0.2428E-05  0.1339E-06  0.3809E-04  0.1555E-03 -0.6223E+04
   -1.499975   14.37953  0.0000E+00  0.0000E+00  0.0000E+00  0.0000E+00  0.1719E-03  0.0000E+00
