 1 - depth, m
 2 - temperature, C
 3 - salinity, kg/kg
 4 - turbulent kinetic energy, m**2/s**2
 5 - dissipation rate, m**2/s**3
 6 - kinematic heat conductance, m**2/s
 7 - modulus of horizontal velocity, m/s
 8 - Richardson number, n/d
   -0.000000    0.00000  0.0000E+00  0.4096E-13  0.8590E-16  0.1000E-09  0.0000E+00  0.1489E+17
   -0.037494    0.23054  0.0000E+00  0.4096E-13  0.8590E-16  0.1000E-09  0.0000E+00  0.1198E+17
   -0.074988    0.42757  0.0000E+00  0.4096E-13  0.8590E-16  0.1000E-09  0.0000E+00  0.9686E+16
   -0.112482    0.59576  0.0000E+00  0.4096E-13  0.8590E-16  0.1000E-09  0.0000E+00  0.7887E+16
   -0.149977    0.73956  0.0000E+00  0.4096E-13  0.8590E-16  0.1000E-09  0.0000E+00  0.6488E+16
   -0.187472    0.86310  0.0000E+00  0.4096E-13  0.8590E-16  0.1000E-09  0.0000E+00  0.5410E+16
   -0.224967    0.97021  0.0000E+00  0.4096E-13  0.8590E-16  0.1000E-09  0.0000E+00  0.4589E+16
   -0.262463    1.06430  0.0000E+00  0.4096E-13  0.8590E-16  0.1000E-09  0.0000E+00  0.3905E+16
   -0.299959    1.14696  0.0000E+00  0.4096E-13  0.8590E-16  0.1000E-09  0.0000E+00  0.3374E+16
   -0.337455    1.22046  0.0000E+00  0.4096E-13  0.8590E-16  0.1000E-09  0.0000E+00  0.2974E+16
   -0.374951    1.28699  0.0000E+00  0.4096E-13  0.8590E-16  0.1000E-09  0.0000E+00  0.2724E+16
   -0.412447    1.34945  0.0000E+00  0.4096E-13  0.8590E-16  0.1000E-09  0.0000E+00  0.2581E+16
   -0.449944    1.41008  0.0000E+00  0.4096E-13  0.8590E-16  0.1000E-09  0.0000E+00  0.2498E+16
   -0.487441    1.47019  0.0000E+00  0.4096E-13  0.8590E-16  0.1000E-09  0.0000E+00  0.2447E+16
   -0.524938    1.53057  0.0000E+00  0.4096E-13  0.8590E-16  0.1000E-09  0.0000E+00  0.2365E+16
   -0.562435    1.59043  0.0000E+00  0.4096E-13  0.8590E-16  0.1000E-09  0.0000E+00  0.2310E+16
   -0.599932    1.65043  0.0000E+00  0.4096E-13  0.8590E-16  0.1000E-09  0.0000E+00  0.2275E+16
   -0.637429    1.71111  0.0000E+00  0.4096E-13  0.8590E-16  0.1000E-09  0.0000E+00  0.2254E+16
   -0.674926    1.77294  0.0000E+00  0.4096E-13  0.8590E-16  0.1000E-09  0.0000E+00  0.2243E+16
   -0.712424    1.83630  0.0000E+00  0.4096E-13  0.8590E-16  0.1000E-09  0.0000E+00  0.2239E+16
   -0.749921    1.90154  0.0000E+00  0.4096E-13  0.8590E-16  0.1000E-09  0.0000E+00  0.2259E+16
   -0.787418    1.96959  0.0000E+00  0.4096E-13  0.8590E-16  0.1000E-09  0.0000E+00  0.2288E+16
   -0.824915    2.04104  0.0000E+00  0.4096E-13  0.8590E-16  0.1000E-09  0.0000E+00  0.2319E+16
   -0.862413    2.11630  0.0000E+00  0.4096E-13  0.8590E-16  0.1000E-09  0.0000E+00  0.2348E+16
   -0.899910    2.19587  0.0000E+00  0.4096E-13  0.8590E-16  0.1000E-09  0.0000E+00  0.2377E+16
   -0.937407    2.28032  0.0000E+00  0.7589E-13  0.1045E-15  0.1000E-09  0.0000E+00  0.2404E+16
   -0.974904    2.37037  0.0000E+00  0.2065E-12  0.2083E-15  0.1000E-09  0.0000E+00  0.2429E+16
   -1.012401    2.46693  0.0000E+00  0.6864E-12  0.5930E-15  0.1000E-09  0.0000E+00  0.2355E+16
   -1.049898    2.56704  0.0000E+00  0.2325E-11  0.1914E-14  0.1000E-09  0.0000E+00  0.2272E+16
   -1.087394    2.67117  0.0000E+00  0.7819E-11  0.6243E-14  0.1000E-09  0.0000E+00  0.2209E+16
   -1.124891    2.78148  0.0000E+00  0.2597E-10  0.2020E-13  0.1000E-09  0.0000E+00  0.2345E+16
   -1.162387    2.91155  0.0000E+00  0.8523E-10  0.6466E-13  0.1202E-09  0.0000E+00  0.2470E+16
   -1.199883    3.06949  0.0000E+00  0.2765E-09  0.2048E-12  0.2550E-09  0.0000E+00  0.2482E+16
   -1.237379    3.26462  0.0000E+00  0.8868E-09  0.6416E-12  0.9299E-09  0.0000E+00  0.2228E+16
   -1.274874    3.50849  0.0000E+00  0.2815E-08  0.1997E-11  0.9618E-08  0.0000E+00  0.1459E+16
   -1.312370    3.80079  0.0000E+00  0.6530E-08  0.4787E-11  0.2325E-05  0.0000E+00  0.5212E+15
   -1.349865    3.99725  0.0000E+00  0.1080E-07  0.8821E-11  0.4683E-05  0.0000E+00  0.2932E+14
   -1.387359    4.05531  0.0000E+00  0.1387E-07  0.1374E-10  0.5045E-05  0.0000E+00 -0.1531E+14
   -1.424854    4.06859  0.0000E+00  0.1481E-07  0.2093E-10  0.3425E-05  0.0000E+00 -0.2926E+14
   -1.462348    4.08913  0.0000E+00  0.1316E-07  0.4350E-10  0.1075E-05  0.0000E+00 -0.1398E+15
   -1.499842    4.15525  0.0000E+00  0.0000E+00  0.0000E+00  0.0000E+00  0.0000E+00  0.0000E+00
