 1 - depth, m
 2 - temperature, C
 3 - salinity, kg/kg
 4 - turbulent kinetic energy, m**2/s**2
 5 - dissipation rate, m**2/s**3
 6 - kinematic heat conductance, m**2/s
 7 - modulus of horizontal velocity, m/s
 8 - Richardson number, n/d
   -0.000000   12.47167  0.0000E+00  0.2408E-03  0.6027E-03  0.5382E-04  0.1438E+00 -0.4718E-01
   -0.037493   12.53334  0.0000E+00  0.1296E-03  0.2489E-03  0.1030E-03  0.5091E-01  0.6539E+01
   -0.074986   12.55267  0.0000E+00  0.8793E-04  0.5609E-04  0.1428E-03  0.3334E-01  0.1978E+01
   -0.112480   12.56223  0.0000E+00  0.6969E-04  0.2848E-04  0.1601E-03  0.2649E-01  0.4800E+01
   -0.149973   12.56768  0.0000E+00  0.5838E-04  0.1671E-04  0.1790E-03  0.2239E-01  0.1682E+01
   -0.187468   12.57161  0.0000E+00  0.5005E-04  0.1041E-04  0.2018E-03  0.1937E-01  0.4152E+01
   -0.224962   12.57471  0.0000E+00  0.4378E-04  0.6667E-05  0.2329E-03  0.1699E-01  0.3139E+02
   -0.262457   12.57722  0.0000E+00  0.3869E-04  0.4302E-05  0.2622E-03  0.1503E-01  0.4720E+01
   -0.299952   12.57937  0.0000E+00  0.3461E-04  0.2797E-05  0.2921E-03  0.1344E-01  0.5195E+01
   -0.337447   12.58125  0.0000E+00  0.3137E-04  0.1850E-05  0.3192E-03  0.1210E-01  0.4775E+01
   -0.374942   12.58292  0.0000E+00  0.2875E-04  0.1254E-05  0.3443E-03  0.1094E-01  0.9554E+01
   -0.412438   12.58443  0.0000E+00  0.2658E-04  0.8740E-06  0.3695E-03  0.9929E-02  0.2937E+01
   -0.449934   12.58580  0.0000E+00  0.2474E-04  0.6291E-06  0.3964E-03  0.9028E-02  0.1253E+02
   -0.487429   12.58706  0.0000E+00  0.2316E-04  0.4683E-06  0.4249E-03  0.8215E-02  0.2770E+02
   -0.524925   12.58821  0.0000E+00  0.2172E-04  0.3590E-06  0.4584E-03  0.7469E-02  0.4843E+02
   -0.562422   12.58925  0.0000E+00  0.2046E-04  0.2848E-06  0.4905E-03  0.6819E-02  0.7582E+01
   -0.599918   12.59021  0.0000E+00  0.1936E-04  0.2328E-06  0.5209E-03  0.6239E-02  0.9220E+01
   -0.637414   12.59110  0.0000E+00  0.1837E-04  0.1951E-06  0.5494E-03  0.5714E-02  0.1010E+02
   -0.674911   12.59192  0.0000E+00  0.1746E-04  0.1666E-06  0.5800E-03  0.5236E-02  0.9321E+01
   -0.712407   12.59268  0.0000E+00  0.1664E-04  0.1443E-06  0.6048E-03  0.4798E-02  0.6893E+01
   -0.749903   12.59340  0.0000E+00  0.1588E-04  0.1266E-06  0.6307E-03  0.4396E-02  0.3775E+02
   -0.787400   12.59407  0.0000E+00  0.1517E-04  0.1120E-06  0.6588E-03  0.4025E-02  0.1175E+02
   -0.824896   12.59470  0.0000E+00  0.1450E-04  0.9976E-07  0.6811E-03  0.3677E-02  0.7640E+01
   -0.862392   12.59531  0.0000E+00  0.1386E-04  0.8945E-07  0.6980E-03  0.3353E-02  0.1635E+02
   -0.899889   12.59590  0.0000E+00  0.1324E-04  0.8070E-07  0.7077E-03  0.3049E-02  0.7931E+01
   -0.937385   12.59647  0.0000E+00  0.1265E-04  0.7321E-07  0.7119E-03  0.2764E-02  0.4179E+01
   -0.974881   12.59703  0.0000E+00  0.1206E-04  0.6672E-07  0.7089E-03  0.2494E-02  0.2587E+02
   -1.012377   12.59760  0.0000E+00  0.1148E-04  0.6106E-07  0.7023E-03  0.2238E-02  0.3883E+02
   -1.049873   12.59816  0.0000E+00  0.1090E-04  0.5622E-07  0.6911E-03  0.2003E-02  0.4122E+01
   -1.087369   12.59872  0.0000E+00  0.1032E-04  0.5213E-07  0.6721E-03  0.1788E-02  0.1413E+02
   -1.124864   12.59930  0.0000E+00  0.9749E-05  0.4876E-07  0.6442E-03  0.1590E-02  0.3578E+01
   -1.162360   12.59990  0.0000E+00  0.9177E-05  0.4612E-07  0.6099E-03  0.1409E-02  0.3005E+01
   -1.199855   12.60053  0.0000E+00  0.8607E-05  0.4434E-07  0.5662E-03  0.1243E-02  0.5135E+01
   -1.237350   12.60121  0.0000E+00  0.8039E-05  0.4365E-07  0.5117E-03  0.1090E-02  0.1087E+02
   -1.274845   12.60196  0.0000E+00  0.7460E-05  0.4458E-07  0.4506E-03  0.9492E-03  0.5588E+01
   -1.312339   12.60284  0.0000E+00  0.6843E-05  0.4832E-07  0.3888E-03  0.8260E-03  0.1371E+02
   -1.349833   12.60389  0.0000E+00  0.6131E-05  0.5752E-07  0.3008E-03  0.7142E-03  0.3260E+02
   -1.387327   12.60545  0.0000E+00  0.5276E-05  0.7708E-07  0.2481E-03  0.6002E-03  0.1082E+03
   -1.424821   12.60712  0.0000E+00  0.4178E-05  0.1320E-06  0.1209E-03  0.4926E-03 -0.2516E+03
   -1.462314   12.61346  0.0000E+00  0.2504E-05  0.2886E-06  0.3970E-04  0.3736E-03 -0.1741E+05
   -1.499807   12.62596  0.0000E+00  0.0000E+00  0.0000E+00  0.0000E+00  0.4638E-03  0.0000E+00
