 1 - depth, m
 2 - temperature, C
 3 - salinity, kg/kg
 4 - turbulent kinetic energy, m**2/s**2
 5 - dissipation rate, m**2/s**3
 6 - kinematic heat conductance, m**2/s
 7 - modulus of horizontal velocity, m/s
 8 - Richardson number, n/d
   -0.000000    0.00000  0.0000E+00  0.4096E-13  0.8590E-16  0.1000E-09  0.0000E+00  0.7682E+16
   -0.037497    0.11707  0.0000E+00  0.4096E-13  0.8590E-16  0.1000E-09  0.0000E+00  0.7424E+16
   -0.074994    0.23392  0.0000E+00  0.4096E-13  0.8590E-16  0.1000E-09  0.0000E+00  0.7163E+16
   -0.112492    0.35046  0.0000E+00  0.4096E-13  0.8590E-16  0.1000E-09  0.0000E+00  0.6898E+16
   -0.149990    0.46656  0.0000E+00  0.4096E-13  0.8590E-16  0.1000E-09  0.0000E+00  0.6632E+16
   -0.187488    0.58215  0.0000E+00  0.4096E-13  0.8590E-16  0.1000E-09  0.0000E+00  0.6365E+16
   -0.224987    0.69713  0.0000E+00  0.4096E-13  0.8590E-16  0.1000E-09  0.0000E+00  0.6099E+16
   -0.262486    0.81142  0.0000E+00  0.4096E-13  0.8590E-16  0.1000E-09  0.0000E+00  0.5830E+16
   -0.299985    0.92488  0.0000E+00  0.4096E-13  0.8590E-16  0.1000E-09  0.0000E+00  0.5562E+16
   -0.337484    1.03740  0.0000E+00  0.4096E-13  0.8590E-16  0.1000E-09  0.0000E+00  0.5296E+16
   -0.374984    1.14892  0.0000E+00  0.4096E-13  0.8590E-16  0.1000E-09  0.0000E+00  0.5045E+16
   -0.412483    1.25959  0.0000E+00  0.4096E-13  0.8590E-16  0.1000E-09  0.0000E+00  0.4803E+16
   -0.449983    1.36949  0.0000E+00  0.4096E-13  0.8590E-16  0.1000E-09  0.0000E+00  0.4563E+16
   -0.487483    1.47856  0.0000E+00  0.4096E-13  0.8590E-16  0.1000E-09  0.0000E+00  0.4325E+16
   -0.524983    1.58673  0.0000E+00  0.4096E-13  0.8590E-16  0.1000E-09  0.0000E+00  0.4089E+16
   -0.562484    1.69388  0.0000E+00  0.4096E-13  0.8590E-16  0.1000E-09  0.0000E+00  0.3857E+16
   -0.599984    1.79994  0.0000E+00  0.4096E-13  0.8590E-16  0.1000E-09  0.0000E+00  0.3629E+16
   -0.637484    1.90484  0.0000E+00  0.4096E-13  0.8590E-16  0.1000E-09  0.0000E+00  0.3405E+16
   -0.674985    2.00851  0.0000E+00  0.4096E-13  0.8590E-16  0.1000E-09  0.0000E+00  0.3186E+16
   -0.712485    2.11087  0.0000E+00  0.4096E-13  0.8590E-16  0.1000E-09  0.0000E+00  0.2972E+16
   -0.749986    2.21184  0.0000E+00  0.4096E-13  0.8590E-16  0.1000E-09  0.0000E+00  0.2777E+16
   -0.787487    2.31186  0.0000E+00  0.4096E-13  0.8590E-16  0.1000E-09  0.0000E+00  0.2591E+16
   -0.824987    2.41103  0.0000E+00  0.4096E-13  0.8590E-16  0.1000E-09  0.0000E+00  0.2408E+16
   -0.862488    2.50933  0.0000E+00  0.4096E-13  0.8590E-16  0.1000E-09  0.0000E+00  0.2229E+16
   -0.899988    2.60670  0.0000E+00  0.4096E-13  0.8590E-16  0.1000E-09  0.0000E+00  0.2054E+16
   -0.937488    2.70309  0.0000E+00  0.4096E-13  0.8590E-16  0.1000E-09  0.0000E+00  0.1883E+16
   -0.974989    2.79846  0.0000E+00  0.4096E-13  0.8590E-16  0.1000E-09  0.0000E+00  0.1716E+16
   -1.012489    2.89277  0.0000E+00  0.4096E-13  0.8590E-16  0.1000E-09  0.0000E+00  0.1553E+16
   -1.049989    2.98587  0.0000E+00  0.4096E-13  0.8590E-16  0.1000E-09  0.0000E+00  0.1394E+16
   -1.087489    3.07767  0.0000E+00  0.4096E-13  0.8590E-16  0.1000E-09  0.0000E+00  0.1240E+16
   -1.124988    3.16808  0.0000E+00  0.4096E-13  0.8590E-16  0.1000E-09  0.0000E+00  0.1105E+16
   -1.162488    3.25823  0.0000E+00  0.4096E-13  0.8590E-16  0.1000E-09  0.0000E+00  0.9746E+15
   -1.199987    3.34834  0.0000E+00  0.4096E-13  0.8590E-16  0.1000E-09  0.0000E+00  0.8450E+15
   -1.237486    3.43847  0.0000E+00  0.4098E-13  0.8590E-16  0.1000E-09  0.0000E+00  0.7167E+15
   -1.274985    3.52876  0.0000E+00  0.1820E-12  0.2704E-15  0.1000E-09  0.0000E+00  0.5911E+15
   -1.312484    3.61973  0.0000E+00  0.8570E-12  0.1233E-14  0.1000E-09  0.0000E+00  0.4642E+15
   -1.349982    3.71168  0.0000E+00  0.3985E-11  0.5698E-14  0.1000E-09  0.0000E+00  0.3346E+15
   -1.387480    3.80504  0.0000E+00  0.1847E-10  0.2657E-13  0.2952E-09  0.0000E+00  0.1999E+15
   -1.424978    3.90031  0.0000E+00  0.8525E-10  0.1269E-12  0.3221E-08  0.0000E+00  0.5713E+14
   -1.462475    3.99667  0.0000E+00  0.3734E-09  0.6429E-12  0.7854E-07  0.0000E+00 -0.4531E+14
   -1.499972    4.06311  0.0000E+00  0.0000E+00  0.0000E+00  0.0000E+00  0.0000E+00  0.0000E+00
