 1 - depth, m
 2 - temperature, C
 3 - salinity, kg/kg
 4 - turbulent kinetic energy, m**2/s**2
 5 - dissipation rate, m**2/s**3
 6 - kinematic heat conductance, m**2/s
 7 - modulus of horizontal velocity, m/s
 8 - Richardson number, n/d
   -0.000000    0.00000  0.0000E+00  0.4096E-13  0.8590E-16  0.1000E-09  0.0000E+00  0.9940E+16
   -0.037499    0.15221  0.0000E+00  0.4096E-13  0.8590E-16  0.1000E-09  0.0000E+00  0.9425E+16
   -0.074999    0.30273  0.0000E+00  0.4096E-13  0.8590E-16  0.1000E-09  0.0000E+00  0.8924E+16
   -0.112498    0.45154  0.0000E+00  0.4096E-13  0.8590E-16  0.1000E-09  0.0000E+00  0.8438E+16
   -0.149999    0.59863  0.0000E+00  0.4096E-13  0.8590E-16  0.1000E-09  0.0000E+00  0.7967E+16
   -0.187499    0.74399  0.0000E+00  0.4096E-13  0.8590E-16  0.1000E-09  0.0000E+00  0.7510E+16
   -0.225000    0.88761  0.0000E+00  0.4096E-13  0.8590E-16  0.1000E-09  0.0000E+00  0.7068E+16
   -0.262501    1.02949  0.0000E+00  0.4096E-13  0.8590E-16  0.1000E-09  0.0000E+00  0.6629E+16
   -0.300002    1.16939  0.0000E+00  0.4096E-13  0.8590E-16  0.1000E-09  0.0000E+00  0.6203E+16
   -0.337504    1.30723  0.0000E+00  0.4096E-13  0.8590E-16  0.1000E-09  0.0000E+00  0.5791E+16
   -0.375005    1.44295  0.0000E+00  0.4096E-13  0.8590E-16  0.1000E-09  0.0000E+00  0.5423E+16
   -0.412507    1.57729  0.0000E+00  0.4096E-13  0.8590E-16  0.1000E-09  0.0000E+00  0.5082E+16
   -0.450009    1.71067  0.0000E+00  0.4096E-13  0.8590E-16  0.1000E-09  0.0000E+00  0.4749E+16
   -0.487511    1.84309  0.0000E+00  0.4096E-13  0.8590E-16  0.1000E-09  0.0000E+00  0.4422E+16
   -0.525014    1.97451  0.0000E+00  0.1005E-12  0.8590E-16  0.1000E-09  0.0000E+00  0.4098E+16
   -0.562516    2.10475  0.0000E+00  0.3253E-12  0.1056E-15  0.1000E-09  0.0000E+00  0.3781E+16
   -0.600019    2.23378  0.0000E+00  0.7570E-12  0.1878E-15  0.1000E-09  0.0000E+00  0.3473E+16
   -0.637521    2.36159  0.0000E+00  0.1558E-11  0.3549E-15  0.1000E-09  0.0000E+00  0.3173E+16
   -0.675024    2.48814  0.0000E+00  0.3056E-11  0.6702E-15  0.1000E-09  0.0000E+00  0.2882E+16
   -0.712527    2.61339  0.0000E+00  0.5873E-11  0.1256E-14  0.1000E-09  0.0000E+00  0.2599E+16
   -0.750029    2.73732  0.0000E+00  0.1117E-10  0.2337E-14  0.1000E-09  0.0000E+00  0.2350E+16
   -0.787532    2.86133  0.0000E+00  0.2107E-10  0.4321E-14  0.1000E-09  0.0000E+00  0.2110E+16
   -0.825035    2.98596  0.0000E+00  0.3953E-10  0.7944E-14  0.1000E-09  0.0000E+00  0.1868E+16
   -0.862537    3.11127  0.0000E+00  0.7373E-10  0.1453E-13  0.1000E-09  0.0000E+00  0.1624E+16
   -0.900040    3.23732  0.0000E+00  0.1368E-09  0.2644E-13  0.1000E-09  0.0000E+00  0.1377E+16
   -0.937542    3.36415  0.0000E+00  0.2525E-09  0.4786E-13  0.1179E-09  0.0000E+00  0.1126E+16
   -0.975045    3.49180  0.0000E+00  0.4638E-09  0.8624E-13  0.2746E-09  0.0000E+00  0.8713E+15
   -1.012547    3.62018  0.0000E+00  0.8490E-09  0.1549E-12  0.7014E-09  0.0000E+00  0.6125E+15
   -1.050049    3.74919  0.0000E+00  0.1550E-08  0.2777E-12  0.2203E-08  0.0000E+00  0.3494E+15
   -1.087551    3.87793  0.0000E+00  0.2804E-08  0.4934E-12  0.1494E-07  0.0000E+00  0.9119E+14
   -1.125053    3.99716  0.0000E+00  0.3682E-08  0.6517E-12  0.7351E-05  0.0000E+00 -0.4711E+12
   -1.162555    3.99966  0.0000E+00  0.4128E-08  0.7539E-12  0.8208E-05  0.0000E+00 -0.5109E+12
   -1.200056    4.00191  0.0000E+00  0.4499E-08  0.8646E-12  0.8581E-05  0.0000E+00 -0.5687E+12
   -1.237558    4.00409  0.0000E+00  0.4796E-08  0.9896E-12  0.8508E-05  0.0000E+00 -0.6552E+12
   -1.275059    4.00630  0.0000E+00  0.5019E-08  0.1141E-11  0.8005E-05  0.0000E+00 -0.7914E+12
   -1.312559    4.00869  0.0000E+00  0.5155E-08  0.1339E-11  0.7048E-05  0.0000E+00 -0.1023E+13
   -1.350060    4.01144  0.0000E+00  0.5168E-08  0.1624E-11  0.5640E-05  0.0000E+00 -0.1469E+13
   -1.387560    4.01493  0.0000E+00  0.4983E-08  0.2099E-11  0.3826E-05  0.0000E+00 -0.2558E+13
   -1.425060    4.02016  0.0000E+00  0.4421E-08  0.3121E-11  0.1826E-05  0.0000E+00 -0.6734E+13
   -1.462559    4.03110  0.0000E+00  0.3156E-08  0.6498E-11  0.3602E-06  0.0000E+00 -0.4778E+14
   -1.500059    4.07637  0.0000E+00  0.0000E+00  0.0000E+00  0.0000E+00  0.0000E+00  0.0000E+00
