 1 - depth, m
 2 - temperature, C
 3 - salinity, kg/kg
 4 - turbulent kinetic energy, m**2/s**2
 5 - dissipation rate, m**2/s**3
 6 - kinematic heat conductance, m**2/s
 7 - modulus of horizontal velocity, m/s
 8 - Richardson number, n/d
   -0.000000    0.00000  0.0000E+00  0.2455E-04  0.3480E-05  0.1881E-04  0.3496E-01  0.3463E+17
   -0.037501    1.62954  0.0000E+00  0.1904E-04  0.1229E-05  0.6596E-04  0.2396E-01 -0.1427E+14
   -0.075002    1.73672  0.0000E+00  0.1584E-04  0.6496E-06  0.7953E-04  0.1974E-01 -0.1205E+14
   -0.112504    1.84764  0.0000E+00  0.1339E-04  0.4042E-06  0.9303E-04  0.1675E-01 -0.9806E+13
   -0.150006    1.98188  0.0000E+00  0.1139E-04  0.2749E-06  0.1036E-03  0.1431E-01 -0.8259E+13
   -0.187508    2.14610  0.0000E+00  0.9691E-05  0.1971E-06  0.1127E-03  0.1218E-01 -0.7262E+13
   -0.225011    2.33868  0.0000E+00  0.8235E-05  0.1458E-06  0.1210E-03  0.1030E-01 -0.6404E+13
   -0.262513    2.52437  0.0000E+00  0.6917E-05  0.1087E-06  0.1295E-03  0.8655E-02 -0.5825E+13
   -0.300016    2.69877  0.0000E+00  0.5752E-05  0.8143E-07  0.1388E-03  0.7261E-02 -0.5315E+13
   -0.337520    2.86275  0.0000E+00  0.4737E-05  0.6106E-07  0.1481E-03  0.6066E-02 -0.4941E+13
   -0.375023    3.01841  0.0000E+00  0.3858E-05  0.4561E-07  0.1577E-03  0.5023E-02 -0.4579E+13
   -0.412527    3.17130  0.0000E+00  0.3107E-05  0.3378E-07  0.1670E-03  0.4096E-02 -0.4377E+13
   -0.450031    3.32581  0.0000E+00  0.2475E-05  0.2466E-07  0.1765E-03  0.3264E-02 -0.4131E+13
   -0.487534    3.47890  0.0000E+00  0.1950E-05  0.1755E-07  0.1861E-03  0.2518E-02 -0.3965E+13
   -0.525039    3.62605  0.0000E+00  0.1510E-05  0.1172E-07  0.1962E-03  0.1859E-02 -0.3775E+13
   -0.562543    3.77138  0.0000E+00  0.1168E-05  0.7293E-08  0.2065E-03  0.1302E-02 -0.3701E+13
   -0.600047    3.90961  0.0000E+00  0.9189E-06  0.3999E-08  0.2172E-03  0.8298E-03 -0.3570E+13
   -0.637551    4.05394  0.0000E+00  0.7776E-06  0.1687E-08  0.2276E-03  0.4172E-03 -0.3520E+13
   -0.675056    4.19966  0.0000E+00  0.7546E-06  0.9281E-09  0.2376E-03  0.1593E-03 -0.3400E+13
   -0.712560    4.24164  0.0000E+00  0.7596E-06  0.7833E-09  0.2470E-03  0.8070E-04 -0.3390E+13
   -0.750065    4.25393  0.0000E+00  0.7660E-06  0.7453E-09  0.2556E-03  0.5508E-04 -0.3332E+13
   -0.787569    4.25902  0.0000E+00  0.7713E-06  0.7302E-09  0.2618E-03  0.4418E-04 -0.3347E+13
   -0.825074    4.26311  0.0000E+00  0.7753E-06  0.7223E-09  0.2663E-03  0.3709E-04 -0.3313E+13
   -0.862578    4.26680  0.0000E+00  0.7783E-06  0.7184E-09  0.2692E-03  0.3161E-04 -0.3341E+13
   -0.900083    4.27028  0.0000E+00  0.7801E-06  0.7173E-09  0.2705E-03  0.2712E-04 -0.3328E+13
   -0.937587    4.27362  0.0000E+00  0.7807E-06  0.7187E-09  0.2701E-03  0.2330E-04 -0.3411E+13
   -0.975091    4.27687  0.0000E+00  0.7802E-06  0.7225E-09  0.2684E-03  0.1998E-04 -0.3447E+13
   -1.012595    4.28006  0.0000E+00  0.7784E-06  0.7289E-09  0.2649E-03  0.1706E-04 -0.3563E+13
   -1.050099    4.28321  0.0000E+00  0.7753E-06  0.7382E-09  0.2599E-03  0.1454E-04 -0.3643E+13
   -1.087603    4.28636  0.0000E+00  0.7708E-06  0.7509E-09  0.2530E-03  0.1237E-04 -0.3810E+13
   -1.125107    4.28954  0.0000E+00  0.7647E-06  0.7675E-09  0.2443E-03  0.1047E-04 -0.3948E+13
   -1.162610    4.29277  0.0000E+00  0.7570E-06  0.7892E-09  0.2336E-03  0.8818E-05 -0.4201E+13
   -1.200113    4.29609  0.0000E+00  0.7473E-06  0.8173E-09  0.2209E-03  0.7356E-05 -0.4459E+13
   -1.237616    4.29955  0.0000E+00  0.7355E-06  0.8541E-09  0.2060E-03  0.6053E-05 -0.4872E+13
   -1.275119    4.30320  0.0000E+00  0.7209E-06  0.9040E-09  0.1886E-03  0.4889E-05 -0.5360E+13
   -1.312622    4.30714  0.0000E+00  0.7024E-06  0.9746E-09  0.1682E-03  0.3901E-05 -0.6126E+13
   -1.350124    4.31150  0.0000E+00  0.6787E-06  0.1080E-08  0.1440E-03  0.3067E-05 -0.7243E+13
   -1.387626    4.31651  0.0000E+00  0.6474E-06  0.1248E-08  0.1194E-03  0.2372E-05 -0.8959E+13
   -1.425127    4.32249  0.0000E+00  0.5939E-06  0.1627E-08  0.7387E-04  0.1833E-05 -0.1269E+14
   -1.462629    4.33266  0.0000E+00  0.3694E-06  0.4241E-08  0.5521E-05  0.1249E-05 -0.2277E+15
   -1.500130    4.44983  0.0000E+00  0.0000E+00  0.0000E+00  0.0000E+00  0.1251E-05  0.0000E+00
