 1 - depth, m
 2 - temperature, C
 3 - salinity, kg/kg
 4 - turbulent kinetic energy, m**2/s**2
 5 - dissipation rate, m**2/s**3
 6 - kinematic heat conductance, m**2/s
 7 - modulus of horizontal velocity, m/s
 8 - Richardson number, n/d
   -0.000000    0.00000  0.0000E+00  0.1548E-10  0.8249E-14  0.1000E-09  0.0000E+00  0.2325E+17
   -0.037496    0.36674  0.0000E+00  0.3097E-10  0.7420E-14  0.1000E-09  0.0000E+00  0.2006E+17
   -0.074993    0.71821  0.0000E+00  0.6060E-10  0.9704E-14  0.1000E-09  0.0000E+00  0.1719E+17
   -0.112490    1.05477  0.0000E+00  0.1088E-09  0.1475E-13  0.1000E-09  0.0000E+00  0.1462E+17
   -0.149987    1.37678  0.0000E+00  0.1854E-09  0.2336E-13  0.1000E-09  0.0000E+00  0.1232E+17
   -0.187485    1.68461  0.0000E+00  0.3068E-09  0.3724E-13  0.1000E-09  0.0000E+00  0.1027E+17
   -0.224983    1.97863  0.0000E+00  0.4998E-09  0.5924E-13  0.1000E-09  0.0000E+00  0.8458E+16
   -0.262481    2.25925  0.0000E+00  0.8070E-09  0.9390E-13  0.1000E-09  0.0000E+00  0.6852E+16
   -0.299980    2.52687  0.0000E+00  0.1296E-08  0.1483E-12  0.1000E-09  0.0000E+00  0.5436E+16
   -0.337478    2.78191  0.0000E+00  0.2072E-08  0.2335E-12  0.1546E-09  0.0000E+00  0.4192E+16
   -0.374977    3.02478  0.0000E+00  0.3302E-08  0.3664E-12  0.3265E-09  0.0000E+00  0.3115E+16
   -0.412476    3.25682  0.0000E+00  0.5241E-08  0.5730E-12  0.7321E-09  0.0000E+00  0.2173E+16
   -0.449975    3.47889  0.0000E+00  0.8288E-08  0.8929E-12  0.1849E-08  0.0000E+00  0.1341E+16
   -0.487475    3.69061  0.0000E+00  0.1304E-07  0.1385E-11  0.6283E-08  0.0000E+00  0.6117E+15
   -0.524974    3.88837  0.0000E+00  0.1985E-07  0.2086E-11  0.8364E-07  0.0000E+00  0.6914E+14
   -0.562474    4.01418  0.0000E+00  0.2037E-07  0.2143E-11  0.7010E-04  0.0000E+00 -0.1740E+12
   -0.599973    4.01457  0.0000E+00  0.2061E-07  0.2175E-11  0.6853E-04  0.0000E+00 -0.1795E+12
   -0.637473    4.01497  0.0000E+00  0.2083E-07  0.2209E-11  0.6879E-04  0.0000E+00 -0.1806E+12
   -0.674973    4.01537  0.0000E+00  0.2104E-07  0.2245E-11  0.6899E-04  0.0000E+00 -0.1819E+12
   -0.712473    4.01577  0.0000E+00  0.2122E-07  0.2283E-11  0.6901E-04  0.0000E+00 -0.1837E+12
   -0.749973    4.01617  0.0000E+00  0.2138E-07  0.2324E-11  0.6885E-04  0.0000E+00 -0.1862E+12
   -0.787473    4.01656  0.0000E+00  0.2151E-07  0.2368E-11  0.6850E-04  0.0000E+00 -0.1894E+12
   -0.824973    4.01696  0.0000E+00  0.2163E-07  0.2416E-11  0.6796E-04  0.0000E+00 -0.1933E+12
   -0.862472    4.01736  0.0000E+00  0.2172E-07  0.2468E-11  0.6723E-04  0.0000E+00 -0.1979E+12
   -0.899972    4.01776  0.0000E+00  0.2179E-07  0.2524E-11  0.6629E-04  0.0000E+00 -0.2034E+12
   -0.937472    4.01817  0.0000E+00  0.2184E-07  0.2586E-11  0.6515E-04  0.0000E+00 -0.2097E+12
   -0.974971    4.01859  0.0000E+00  0.2186E-07  0.2654E-11  0.6380E-04  0.0000E+00 -0.2172E+12
   -1.012471    4.01902  0.0000E+00  0.2185E-07  0.2730E-11  0.6221E-04  0.0000E+00 -0.2262E+12
   -1.049970    4.01946  0.0000E+00  0.2181E-07  0.2816E-11  0.6037E-04  0.0000E+00 -0.2370E+12
   -1.087470    4.01991  0.0000E+00  0.2174E-07  0.2914E-11  0.5827E-04  0.0000E+00 -0.2498E+12
   -1.124969    4.02038  0.0000E+00  0.2164E-07  0.3027E-11  0.5587E-04  0.0000E+00 -0.2646E+12
   -1.162467    4.02087  0.0000E+00  0.2149E-07  0.3159E-11  0.5315E-04  0.0000E+00 -0.2825E+12
   -1.199966    4.02139  0.0000E+00  0.2130E-07  0.3315E-11  0.5009E-04  0.0000E+00 -0.3049E+12
   -1.237464    4.02194  0.0000E+00  0.2105E-07  0.3505E-11  0.4664E-04  0.0000E+00 -0.3336E+12
   -1.274963    4.02254  0.0000E+00  0.2073E-07  0.3745E-11  0.4290E-04  0.0000E+00 -0.3706E+12
   -1.312461    4.02318  0.0000E+00  0.2025E-07  0.4116E-11  0.3338E-04  0.0000E+00 -0.4887E+12
   -1.349958    4.02402  0.0000E+00  0.1942E-07  0.4783E-11  0.2205E-04  0.0000E+00 -0.7662E+12
   -1.387456    4.02530  0.0000E+00  0.1810E-07  0.5996E-11  0.1362E-04  0.0000E+00 -0.1306E+13
   -1.424953    4.02738  0.0000E+00  0.1570E-07  0.8821E-11  0.6014E-05  0.0000E+00 -0.3224E+13
   -1.462449    4.03212  0.0000E+00  0.9539E-08  0.2144E-10  0.7190E-06  0.0000E+00 -0.3436E+14
   -1.499946    4.06686  0.0000E+00  0.0000E+00  0.0000E+00  0.0000E+00  0.0000E+00  0.0000E+00
