 1 - depth, m
 2 - temperature, C
 3 - salinity, kg/kg
 4 - turbulent kinetic energy, m**2/s**2
 5 - dissipation rate, m**2/s**3
 6 - kinematic heat conductance, m**2/s
 7 - modulus of horizontal velocity, m/s
 8 - Richardson number, n/d
   -0.000000    0.00000  0.0000E+00  0.8189E-08  0.2185E-10  0.9483E-09  0.0000E+00  0.6376E+17
   -0.037495    1.12350  0.0000E+00  0.4875E-07  0.2024E-10  0.1350E-08  0.0000E+00  0.4163E+17
   -0.074991    2.23200  0.0000E+00  0.1284E-06  0.3337E-10  0.4429E-08  0.0000E+00  0.2100E+17
   -0.112487    3.31572  0.0000E+00  0.2649E-06  0.6070E-10  0.5280E-07  0.0000E+00  0.3393E+16
   -0.149983    4.13786  0.0000E+00  0.2672E-06  0.6122E-10  0.3690E-03  0.0000E+00 -0.1028E+13
   -0.187479    4.13828  0.0000E+00  0.2682E-06  0.6150E-10  0.3645E-03  0.0000E+00 -0.9966E+12
   -0.224976    4.13870  0.0000E+00  0.2691E-06  0.6179E-10  0.3652E-03  0.0000E+00 -0.9811E+12
   -0.262473    4.13911  0.0000E+00  0.2698E-06  0.6211E-10  0.3654E-03  0.0000E+00 -0.9668E+12
   -0.299970    4.13952  0.0000E+00  0.2703E-06  0.6244E-10  0.3652E-03  0.0000E+00 -0.9573E+12
   -0.337468    4.13992  0.0000E+00  0.2708E-06  0.6279E-10  0.3645E-03  0.0000E+00 -0.9483E+12
   -0.374966    4.14031  0.0000E+00  0.2711E-06  0.6318E-10  0.3632E-03  0.0000E+00 -0.9427E+12
   -0.412463    4.14071  0.0000E+00  0.2712E-06  0.6359E-10  0.3615E-03  0.0000E+00 -0.9368E+12
   -0.449962    4.14110  0.0000E+00  0.2713E-06  0.6405E-10  0.3593E-03  0.0000E+00 -0.9351E+12
   -0.487460    4.14148  0.0000E+00  0.2712E-06  0.6454E-10  0.3566E-03  0.0000E+00 -0.9338E+12
   -0.524958    4.14187  0.0000E+00  0.2710E-06  0.6508E-10  0.3534E-03  0.0000E+00 -0.9363E+12
   -0.562457    4.14225  0.0000E+00  0.2707E-06  0.6567E-10  0.3497E-03  0.0000E+00 -0.9394E+12
   -0.599955    4.14264  0.0000E+00  0.2703E-06  0.6632E-10  0.3454E-03  0.0000E+00 -0.9466E+12
   -0.637454    4.14303  0.0000E+00  0.2698E-06  0.6703E-10  0.3407E-03  0.0000E+00 -0.9546E+12
   -0.674952    4.14342  0.0000E+00  0.2691E-06  0.6782E-10  0.3353E-03  0.0000E+00 -0.9668E+12
   -0.712451    4.14381  0.0000E+00  0.2683E-06  0.6869E-10  0.3294E-03  0.0000E+00 -0.9801E+12
   -0.749950    4.14421  0.0000E+00  0.2674E-06  0.6966E-10  0.3230E-03  0.0000E+00 -0.9977E+12
   -0.787449    4.14461  0.0000E+00  0.2663E-06  0.7073E-10  0.3160E-03  0.0000E+00 -0.1017E+13
   -0.824947    4.14502  0.0000E+00  0.2651E-06  0.7193E-10  0.3084E-03  0.0000E+00 -0.1041E+13
   -0.862446    4.14544  0.0000E+00  0.2638E-06  0.7326E-10  0.3002E-03  0.0000E+00 -0.1068E+13
   -0.899945    4.14587  0.0000E+00  0.2623E-06  0.7476E-10  0.2914E-03  0.0000E+00 -0.1101E+13
   -0.937443    4.14632  0.0000E+00  0.2606E-06  0.7644E-10  0.2821E-03  0.0000E+00 -0.1137E+13
   -0.974942    4.14677  0.0000E+00  0.2588E-06  0.7834E-10  0.2720E-03  0.0000E+00 -0.1181E+13
   -1.012440    4.14724  0.0000E+00  0.2568E-06  0.8051E-10  0.2613E-03  0.0000E+00 -0.1230E+13
   -1.049938    4.14773  0.0000E+00  0.2546E-06  0.8303E-10  0.2499E-03  0.0000E+00 -0.1290E+13
   -1.087436    4.14824  0.0000E+00  0.2521E-06  0.8596E-10  0.2376E-03  0.0000E+00 -0.1359E+13
   -1.124934    4.14878  0.0000E+00  0.2494E-06  0.8942E-10  0.2245E-03  0.0000E+00 -0.1442E+13
   -1.162432    4.14935  0.0000E+00  0.2463E-06  0.9354E-10  0.2106E-03  0.0000E+00 -0.1542E+13
   -1.199929    4.14995  0.0000E+00  0.2429E-06  0.9853E-10  0.1958E-03  0.0000E+00 -0.1666E+13
   -1.237427    4.15061  0.0000E+00  0.2391E-06  0.1047E-09  0.1801E-03  0.0000E+00 -0.1819E+13
   -1.274924    4.15131  0.0000E+00  0.2346E-06  0.1125E-09  0.1631E-03  0.0000E+00 -0.2019E+13
   -1.312420    4.15210  0.0000E+00  0.2294E-06  0.1231E-09  0.1444E-03  0.0000E+00 -0.2294E+13
   -1.349917    4.15298  0.0000E+00  0.2231E-06  0.1380E-09  0.1262E-03  0.0000E+00 -0.2645E+13
   -1.387413    4.15400  0.0000E+00  0.2136E-06  0.1647E-09  0.9012E-04  0.0000E+00 -0.3738E+13
   -1.424909    4.15543  0.0000E+00  0.1942E-06  0.2349E-09  0.3022E-04  0.0000E+00 -0.1136E+14
   -1.462405    4.15969  0.0000E+00  0.1172E-06  0.6749E-09  0.2925E-05  0.0000E+00 -0.1289E+15
   -1.499900    4.20216  0.0000E+00  0.0000E+00  0.0000E+00  0.0000E+00  0.0000E+00  0.0000E+00
