 1 - depth, m
 2 - temperature, C
 3 - salinity, kg/kg
 4 - turbulent kinetic energy, m**2/s**2
 5 - dissipation rate, m**2/s**3
 6 - kinematic heat conductance, m**2/s
 7 - modulus of horizontal velocity, m/s
 8 - Richardson number, n/d
   -0.000000    0.00000  0.0000E+00  0.3866E-07  0.1484E-09  0.4113E-08  0.0000E+00  0.1000E+18
   -0.037498    2.05059  0.0000E+00  0.2876E-06  0.8702E-10  0.8143E-08  0.0000E+00  0.2988E+17
   -0.074996    4.08923  0.0000E+00  0.2923E-06  0.8675E-10  0.3184E-03  0.0000E+00 -0.1630E+13
   -0.112495    4.09019  0.0000E+00  0.2943E-06  0.8664E-10  0.3130E-03  0.0000E+00 -0.1539E+13
   -0.149994    4.09114  0.0000E+00  0.2962E-06  0.8657E-10  0.3172E-03  0.0000E+00 -0.1498E+13
   -0.187493    4.09205  0.0000E+00  0.2979E-06  0.8653E-10  0.3209E-03  0.0000E+00 -0.1464E+13
   -0.224992    4.09294  0.0000E+00  0.2993E-06  0.8653E-10  0.3240E-03  0.0000E+00 -0.1434E+13
   -0.262492    4.09380  0.0000E+00  0.3005E-06  0.8657E-10  0.3266E-03  0.0000E+00 -0.1410E+13
   -0.299992    4.09464  0.0000E+00  0.3016E-06  0.8665E-10  0.3286E-03  0.0000E+00 -0.1388E+13
   -0.337492    4.09546  0.0000E+00  0.3025E-06  0.8678E-10  0.3301E-03  0.0000E+00 -0.1371E+13
   -0.374992    4.09627  0.0000E+00  0.3032E-06  0.8696E-10  0.3310E-03  0.0000E+00 -0.1355E+13
   -0.412493    4.09706  0.0000E+00  0.3037E-06  0.8718E-10  0.3314E-03  0.0000E+00 -0.1344E+13
   -0.449994    4.09783  0.0000E+00  0.3041E-06  0.8747E-10  0.3313E-03  0.0000E+00 -0.1334E+13
   -0.487495    4.09860  0.0000E+00  0.3043E-06  0.8781E-10  0.3305E-03  0.0000E+00 -0.1329E+13
   -0.524996    4.09936  0.0000E+00  0.3043E-06  0.8822E-10  0.3293E-03  0.0000E+00 -0.1326E+13
   -0.562497    4.10011  0.0000E+00  0.3042E-06  0.8870E-10  0.3274E-03  0.0000E+00 -0.1327E+13
   -0.599998    4.10086  0.0000E+00  0.3040E-06  0.8926E-10  0.3250E-03  0.0000E+00 -0.1330E+13
   -0.637499    4.10160  0.0000E+00  0.3036E-06  0.8991E-10  0.3220E-03  0.0000E+00 -0.1337E+13
   -0.675001    4.10234  0.0000E+00  0.3030E-06  0.9066E-10  0.3184E-03  0.0000E+00 -0.1347E+13
   -0.712502    4.10309  0.0000E+00  0.3023E-06  0.9151E-10  0.3142E-03  0.0000E+00 -0.1361E+13
   -0.750004    4.10383  0.0000E+00  0.3014E-06  0.9249E-10  0.3093E-03  0.0000E+00 -0.1378E+13
   -0.787505    4.10458  0.0000E+00  0.3003E-06  0.9360E-10  0.3038E-03  0.0000E+00 -0.1400E+13
   -0.825006    4.10534  0.0000E+00  0.2991E-06  0.9486E-10  0.2977E-03  0.0000E+00 -0.1425E+13
   -0.862508    4.10611  0.0000E+00  0.2977E-06  0.9630E-10  0.2909E-03  0.0000E+00 -0.1457E+13
   -0.900009    4.10688  0.0000E+00  0.2961E-06  0.9794E-10  0.2834E-03  0.0000E+00 -0.1493E+13
   -0.937510    4.10768  0.0000E+00  0.2943E-06  0.9982E-10  0.2752E-03  0.0000E+00 -0.1537E+13
   -0.975012    4.10849  0.0000E+00  0.2922E-06  0.1020E-09  0.2664E-03  0.0000E+00 -0.1587E+13
   -1.012513    4.10932  0.0000E+00  0.2900E-06  0.1045E-09  0.2567E-03  0.0000E+00 -0.1648E+13
   -1.050013    4.11017  0.0000E+00  0.2875E-06  0.1074E-09  0.2462E-03  0.0000E+00 -0.1720E+13
   -1.087514    4.11106  0.0000E+00  0.2847E-06  0.1108E-09  0.2348E-03  0.0000E+00 -0.1806E+13
   -1.125015    4.11199  0.0000E+00  0.2815E-06  0.1149E-09  0.2225E-03  0.0000E+00 -0.1909E+13
   -1.162515    4.11296  0.0000E+00  0.2780E-06  0.1198E-09  0.2092E-03  0.0000E+00 -0.2035E+13
   -1.200015    4.11399  0.0000E+00  0.2741E-06  0.1257E-09  0.1950E-03  0.0000E+00 -0.2190E+13
   -1.237515    4.11509  0.0000E+00  0.2696E-06  0.1331E-09  0.1797E-03  0.0000E+00 -0.2386E+13
   -1.275015    4.11627  0.0000E+00  0.2645E-06  0.1427E-09  0.1631E-03  0.0000E+00 -0.2642E+13
   -1.312515    4.11757  0.0000E+00  0.2584E-06  0.1556E-09  0.1445E-03  0.0000E+00 -0.3000E+13
   -1.350014    4.11903  0.0000E+00  0.2510E-06  0.1739E-09  0.1258E-03  0.0000E+00 -0.3472E+13
   -1.387513    4.12070  0.0000E+00  0.2402E-06  0.2062E-09  0.1022E-03  0.0000E+00 -0.4300E+13
   -1.425011    4.12275  0.0000E+00  0.2187E-06  0.2892E-09  0.3235E-04  0.0000E+00 -0.1397E+14
   -1.462509    4.12917  0.0000E+00  0.1325E-06  0.8209E-09  0.3167E-05  0.0000E+00 -0.1712E+15
   -1.500007    4.19211  0.0000E+00  0.0000E+00  0.0000E+00  0.0000E+00  0.0000E+00  0.0000E+00
