 1 - depth, m
 2 - temperature, C
 3 - salinity, kg/kg
 4 - turbulent kinetic energy, m**2/s**2
 5 - dissipation rate, m**2/s**3
 6 - kinematic heat conductance, m**2/s
 7 - modulus of horizontal velocity, m/s
 8 - Richardson number, n/d
   -0.000000    0.00000  0.0000E+00  0.4096E-13  0.8589E-16  0.1000E-09  0.0000E+00  0.7500E+16
   -0.037499    0.11425  0.0000E+00  0.4096E-13  0.8589E-16  0.1000E-09  0.0000E+00  0.7288E+16
   -0.074998    0.22883  0.0000E+00  0.4096E-13  0.8589E-16  0.1000E-09  0.0000E+00  0.7059E+16
   -0.112497    0.34347  0.0000E+00  0.4096E-13  0.8589E-16  0.1000E-09  0.0000E+00  0.6818E+16
   -0.149997    0.45796  0.0000E+00  0.4096E-13  0.8589E-16  0.1000E-09  0.0000E+00  0.6570E+16
   -0.187497    0.57214  0.0000E+00  0.4096E-13  0.8589E-16  0.1000E-09  0.0000E+00  0.6318E+16
   -0.224997    0.68588  0.0000E+00  0.4096E-13  0.8589E-16  0.1000E-09  0.0000E+00  0.6063E+16
   -0.262498    0.79906  0.0000E+00  0.4096E-13  0.8589E-16  0.1000E-09  0.0000E+00  0.5803E+16
   -0.299999    0.91152  0.0000E+00  0.4096E-13  0.8589E-16  0.1000E-09  0.0000E+00  0.5544E+16
   -0.337500    1.02314  0.0000E+00  0.4096E-13  0.8589E-16  0.1000E-09  0.0000E+00  0.5286E+16
   -0.375001    1.13385  0.0000E+00  0.4096E-13  0.8589E-16  0.1000E-09  0.0000E+00  0.5040E+16
   -0.412502    1.24378  0.0000E+00  0.4096E-13  0.8589E-16  0.1000E-09  0.0000E+00  0.4803E+16
   -0.450004    1.35300  0.0000E+00  0.4096E-13  0.8589E-16  0.1000E-09  0.0000E+00  0.4568E+16
   -0.487506    1.46145  0.0000E+00  0.4096E-13  0.8589E-16  0.1000E-09  0.0000E+00  0.4335E+16
   -0.525008    1.56906  0.0000E+00  0.4096E-13  0.8589E-16  0.1000E-09  0.0000E+00  0.4102E+16
   -0.562510    1.67570  0.0000E+00  0.4096E-13  0.8589E-16  0.1000E-09  0.0000E+00  0.3873E+16
   -0.600012    1.78130  0.0000E+00  0.4096E-13  0.8589E-16  0.1000E-09  0.0000E+00  0.3648E+16
   -0.637514    1.88578  0.0000E+00  0.4096E-13  0.8589E-16  0.1000E-09  0.0000E+00  0.3426E+16
   -0.675016    1.98908  0.0000E+00  0.4096E-13  0.8589E-16  0.1000E-09  0.0000E+00  0.3209E+16
   -0.712518    2.09112  0.0000E+00  0.4096E-13  0.8589E-16  0.1000E-09  0.0000E+00  0.2997E+16
   -0.750021    2.19180  0.0000E+00  0.4096E-13  0.8589E-16  0.1000E-09  0.0000E+00  0.2804E+16
   -0.787523    2.29157  0.0000E+00  0.4096E-13  0.8589E-16  0.1000E-09  0.0000E+00  0.2619E+16
   -0.825025    2.39054  0.0000E+00  0.4096E-13  0.8589E-16  0.1000E-09  0.0000E+00  0.2437E+16
   -0.862527    2.48868  0.0000E+00  0.4096E-13  0.8589E-16  0.1000E-09  0.0000E+00  0.2259E+16
   -0.900029    2.58593  0.0000E+00  0.4096E-13  0.8589E-16  0.1000E-09  0.0000E+00  0.2085E+16
   -0.937531    2.68225  0.0000E+00  0.4096E-13  0.8589E-16  0.1000E-09  0.0000E+00  0.1915E+16
   -0.975033    2.77760  0.0000E+00  0.4096E-13  0.8589E-16  0.1000E-09  0.0000E+00  0.1749E+16
   -1.012535    2.87194  0.0000E+00  0.4096E-13  0.8589E-16  0.1000E-09  0.0000E+00  0.1585E+16
   -1.050037    2.96510  0.0000E+00  0.4096E-13  0.8589E-16  0.1000E-09  0.0000E+00  0.1426E+16
   -1.087539    3.05698  0.0000E+00  0.4096E-13  0.8589E-16  0.1000E-09  0.0000E+00  0.1271E+16
   -1.125040    3.14748  0.0000E+00  0.4096E-13  0.8589E-16  0.1000E-09  0.0000E+00  0.1137E+16
   -1.162541    3.23777  0.0000E+00  0.4096E-13  0.8589E-16  0.1000E-09  0.0000E+00  0.1006E+16
   -1.200042    3.32807  0.0000E+00  0.4096E-13  0.8589E-16  0.1000E-09  0.0000E+00  0.8764E+15
   -1.237543    3.41844  0.0000E+00  0.4096E-13  0.8589E-16  0.1000E-09  0.0000E+00  0.7478E+15
   -1.275044    3.50903  0.0000E+00  0.1209E-12  0.1760E-15  0.1000E-09  0.0000E+00  0.6215E+15
   -1.312544    3.60032  0.0000E+00  0.5489E-12  0.7603E-15  0.1000E-09  0.0000E+00  0.4940E+15
   -1.350044    3.69260  0.0000E+00  0.2498E-11  0.3420E-14  0.1000E-09  0.0000E+00  0.3638E+15
   -1.387544    3.78631  0.0000E+00  0.1133E-10  0.1550E-13  0.1571E-09  0.0000E+00  0.2287E+15
   -1.425043    3.88205  0.0000E+00  0.5122E-10  0.7151E-13  0.1517E-08  0.0000E+00  0.8492E+14
   -1.462542    3.97991  0.0000E+00  0.2250E-09  0.3448E-12  0.5453E-07  0.0000E+00 -0.3621E+14
   -1.500041    4.05467  0.0000E+00  0.0000E+00  0.0000E+00  0.0000E+00  0.0000E+00  0.0000E+00
