 1 - depth, m
 2 - temperature, C
 3 - salinity, kg/kg
 4 - turbulent kinetic energy, m**2/s**2
 5 - dissipation rate, m**2/s**3
 6 - kinematic heat conductance, m**2/s
 7 - modulus of horizontal velocity, m/s
 8 - Richardson number, n/d
   -0.000000    0.00000  0.0000E+00  0.3687E-10  0.2466E-13  0.1000E-09  0.0000E+00  0.2332E+17
   -0.037494    0.36791  0.0000E+00  0.8328E-10  0.2223E-13  0.1000E-09  0.0000E+00  0.2019E+17
   -0.074989    0.72203  0.0000E+00  0.1722E-09  0.3024E-13  0.1000E-09  0.0000E+00  0.1743E+17
   -0.112484    1.06408  0.0000E+00  0.3195E-09  0.4775E-13  0.1000E-09  0.0000E+00  0.1496E+17
   -0.149979    1.39552  0.0000E+00  0.5589E-09  0.7815E-13  0.1000E-09  0.0000E+00  0.1275E+17
   -0.187474    1.71765  0.0000E+00  0.9496E-09  0.1284E-12  0.1000E-09  0.0000E+00  0.1075E+17
   -0.224970    2.03166  0.0000E+00  0.1589E-08  0.2103E-12  0.1000E-09  0.0000E+00  0.8914E+16
   -0.262466    2.33860  0.0000E+00  0.2638E-08  0.3431E-12  0.1320E-09  0.0000E+00  0.7221E+16
   -0.299962    2.63917  0.0000E+00  0.4356E-08  0.5579E-12  0.2746E-09  0.0000E+00  0.5647E+16
   -0.337459    2.93390  0.0000E+00  0.7166E-08  0.9043E-12  0.6028E-09  0.0000E+00  0.4173E+16
   -0.374955    3.22310  0.0000E+00  0.1174E-07  0.1461E-11  0.1453E-08  0.0000E+00  0.2801E+16
   -0.412452    3.50833  0.0000E+00  0.1915E-07  0.2349E-11  0.4421E-08  0.0000E+00  0.1488E+16
   -0.449949    3.78721  0.0000E+00  0.3071E-07  0.3720E-11  0.3557E-07  0.0000E+00  0.3054E+15
   -0.487446    4.01756  0.0000E+00  0.3138E-07  0.3806E-11  0.9077E-04  0.0000E+00 -0.2180E+12
   -0.524944    4.01801  0.0000E+00  0.3170E-07  0.3854E-11  0.8894E-04  0.0000E+00 -0.2257E+12
   -0.562441    4.01846  0.0000E+00  0.3200E-07  0.3908E-11  0.8923E-04  0.0000E+00 -0.2291E+12
   -0.599939    4.01891  0.0000E+00  0.3228E-07  0.3966E-11  0.8942E-04  0.0000E+00 -0.2331E+12
   -0.637436    4.01937  0.0000E+00  0.3255E-07  0.4030E-11  0.8943E-04  0.0000E+00 -0.2379E+12
   -0.674934    4.01983  0.0000E+00  0.3278E-07  0.4099E-11  0.8921E-04  0.0000E+00 -0.2437E+12
   -0.712432    4.02029  0.0000E+00  0.3300E-07  0.4173E-11  0.8881E-04  0.0000E+00 -0.2503E+12
   -0.749929    4.02076  0.0000E+00  0.3319E-07  0.4254E-11  0.8820E-04  0.0000E+00 -0.2566E+12
   -0.787427    4.02124  0.0000E+00  0.3336E-07  0.4342E-11  0.8738E-04  0.0000E+00 -0.2631E+12
   -0.824925    4.02172  0.0000E+00  0.3350E-07  0.4438E-11  0.8634E-04  0.0000E+00 -0.2709E+12
   -0.862423    4.02220  0.0000E+00  0.3361E-07  0.4543E-11  0.8508E-04  0.0000E+00 -0.2798E+12
   -0.899920    4.02270  0.0000E+00  0.3369E-07  0.4657E-11  0.8358E-04  0.0000E+00 -0.2901E+12
   -0.937418    4.02321  0.0000E+00  0.3374E-07  0.4784E-11  0.8186E-04  0.0000E+00 -0.3020E+12
   -0.974915    4.02373  0.0000E+00  0.3376E-07  0.4923E-11  0.7987E-04  0.0000E+00 -0.3158E+12
   -1.012412    4.02427  0.0000E+00  0.3374E-07  0.5079E-11  0.7763E-04  0.0000E+00 -0.3324E+12
   -1.049910    4.02482  0.0000E+00  0.3368E-07  0.5255E-11  0.7509E-04  0.0000E+00 -0.3523E+12
   -1.087407    4.02541  0.0000E+00  0.3357E-07  0.5457E-11  0.7225E-04  0.0000E+00 -0.3759E+12
   -1.124904    4.02602  0.0000E+00  0.3342E-07  0.5690E-11  0.6907E-04  0.0000E+00 -0.4010E+12
   -1.162400    4.02666  0.0000E+00  0.3320E-07  0.5961E-11  0.6554E-04  0.0000E+00 -0.4308E+12
   -1.199897    4.02734  0.0000E+00  0.3291E-07  0.6284E-11  0.6162E-04  0.0000E+00 -0.4679E+12
   -1.237393    4.02806  0.0000E+00  0.3254E-07  0.6674E-11  0.5725E-04  0.0000E+00 -0.5150E+12
   -1.274889    4.02885  0.0000E+00  0.3207E-07  0.7168E-11  0.5231E-04  0.0000E+00 -0.5784E+12
   -1.312385    4.02971  0.0000E+00  0.3144E-07  0.7840E-11  0.4688E-04  0.0000E+00 -0.6642E+12
   -1.349880    4.03068  0.0000E+00  0.3042E-07  0.8970E-11  0.3172E-04  0.0000E+00 -0.1019E+13
   -1.387375    4.03213  0.0000E+00  0.2860E-07  0.1125E-10  0.1848E-04  0.0000E+00 -0.1847E+13
   -1.424870    4.03465  0.0000E+00  0.2522E-07  0.1654E-10  0.8395E-05  0.0000E+00 -0.4466E+13
   -1.462365    4.04025  0.0000E+00  0.1606E-07  0.4081E-10  0.1093E-05  0.0000E+00 -0.4588E+14
   -1.499859    4.08001  0.0000E+00  0.0000E+00  0.0000E+00  0.0000E+00  0.0000E+00  0.0000E+00
