 1 - depth, m
 2 - temperature, C
 3 - salinity, kg/kg
 4 - turbulent kinetic energy, m**2/s**2
 5 - dissipation rate, m**2/s**3
 6 - kinematic heat conductance, m**2/s
 7 - modulus of horizontal velocity, m/s
 8 - Richardson number, n/d
   -0.000000    0.00000  0.0000E+00  0.3225E-10  0.2098E-13  0.1000E-09  0.0000E+00  0.2214E+17
   -0.037500    0.34834  0.0000E+00  0.7190E-10  0.1913E-13  0.1000E-09  0.0000E+00  0.1934E+17
   -0.075000    0.68463  0.0000E+00  0.1485E-09  0.2631E-13  0.1000E-09  0.0000E+00  0.1684E+17
   -0.112501    1.01014  0.0000E+00  0.2766E-09  0.4191E-13  0.1000E-09  0.0000E+00  0.1460E+17
   -0.150002    1.32615  0.0000E+00  0.4868E-09  0.6906E-13  0.1000E-09  0.0000E+00  0.1258E+17
   -0.187503    1.63392  0.0000E+00  0.8323E-09  0.1141E-12  0.1000E-09  0.0000E+00  0.1075E+17
   -0.225005    1.93480  0.0000E+00  0.1401E-08  0.1876E-12  0.1000E-09  0.0000E+00  0.9085E+16
   -0.262507    2.23028  0.0000E+00  0.2337E-08  0.3069E-12  0.1148E-09  0.0000E+00  0.7547E+16
   -0.300009    2.52192  0.0000E+00  0.3874E-08  0.4997E-12  0.2269E-09  0.0000E+00  0.6114E+16
   -0.337511    2.81163  0.0000E+00  0.6387E-08  0.8098E-12  0.4724E-09  0.0000E+00  0.4752E+16
   -0.375014    3.10169  0.0000E+00  0.1048E-07  0.1306E-11  0.1046E-08  0.0000E+00  0.3447E+16
   -0.412517    3.39714  0.0000E+00  0.1709E-07  0.2095E-11  0.2754E-08  0.0000E+00  0.2090E+16
   -0.450020    3.70005  0.0000E+00  0.2759E-07  0.3329E-11  0.1479E-07  0.0000E+00  0.6465E+15
   -0.487523    3.99151  0.0000E+00  0.2986E-07  0.3628E-11  0.7478E-04  0.0000E+00  0.8592E+13
   -0.525026    4.00994  0.0000E+00  0.3024E-07  0.3683E-11  0.8642E-04  0.0000E+00 -0.2033E+12
   -0.562529    4.01049  0.0000E+00  0.3054E-07  0.3734E-11  0.8628E-04  0.0000E+00 -0.2096E+12
   -0.600033    4.01104  0.0000E+00  0.3082E-07  0.3789E-11  0.8650E-04  0.0000E+00 -0.2140E+12
   -0.637536    4.01158  0.0000E+00  0.3109E-07  0.3849E-11  0.8653E-04  0.0000E+00 -0.2195E+12
   -0.675039    4.01213  0.0000E+00  0.3133E-07  0.3914E-11  0.8639E-04  0.0000E+00 -0.2256E+12
   -0.712543    4.01269  0.0000E+00  0.3155E-07  0.3985E-11  0.8605E-04  0.0000E+00 -0.2327E+12
   -0.750047    4.01324  0.0000E+00  0.3174E-07  0.4060E-11  0.8552E-04  0.0000E+00 -0.2386E+12
   -0.787550    4.01381  0.0000E+00  0.3191E-07  0.4142E-11  0.8478E-04  0.0000E+00 -0.2447E+12
   -0.825054    4.01437  0.0000E+00  0.3205E-07  0.4231E-11  0.8385E-04  0.0000E+00 -0.2515E+12
   -0.862557    4.01494  0.0000E+00  0.3216E-07  0.4327E-11  0.8269E-04  0.0000E+00 -0.2596E+12
   -0.900061    4.01551  0.0000E+00  0.3225E-07  0.4433E-11  0.8132E-04  0.0000E+00 -0.2686E+12
   -0.937564    4.01609  0.0000E+00  0.3230E-07  0.4548E-11  0.7970E-04  0.0000E+00 -0.2792E+12
   -0.975067    4.01669  0.0000E+00  0.3232E-07  0.4676E-11  0.7786E-04  0.0000E+00 -0.2913E+12
   -1.012571    4.01730  0.0000E+00  0.3230E-07  0.4818E-11  0.7574E-04  0.0000E+00 -0.3066E+12
   -1.050074    4.01793  0.0000E+00  0.3225E-07  0.4978E-11  0.7334E-04  0.0000E+00 -0.3247E+12
   -1.087577    4.01858  0.0000E+00  0.3215E-07  0.5161E-11  0.7064E-04  0.0000E+00 -0.3466E+12
   -1.125079    4.01926  0.0000E+00  0.3200E-07  0.5371E-11  0.6762E-04  0.0000E+00 -0.3684E+12
   -1.162582    4.01997  0.0000E+00  0.3179E-07  0.5617E-11  0.6425E-04  0.0000E+00 -0.3944E+12
   -1.200084    4.02071  0.0000E+00  0.3151E-07  0.5908E-11  0.6050E-04  0.0000E+00 -0.4264E+12
   -1.237586    4.02150  0.0000E+00  0.3116E-07  0.6259E-11  0.5630E-04  0.0000E+00 -0.4675E+12
   -1.275088    4.02234  0.0000E+00  0.3071E-07  0.6702E-11  0.5166E-04  0.0000E+00 -0.5218E+12
   -1.312590    4.02326  0.0000E+00  0.3005E-07  0.7352E-11  0.4491E-04  0.0000E+00 -0.6169E+12
   -1.350091    4.02432  0.0000E+00  0.2898E-07  0.8488E-11  0.2879E-04  0.0000E+00 -0.1001E+13
   -1.387592    4.02599  0.0000E+00  0.2718E-07  0.1064E-10  0.1723E-04  0.0000E+00 -0.1772E+13
   -1.425093    4.02877  0.0000E+00  0.2389E-07  0.1563E-10  0.7859E-05  0.0000E+00 -0.4322E+13
   -1.462593    4.03489  0.0000E+00  0.1519E-07  0.3842E-10  0.1044E-05  0.0000E+00 -0.4559E+14
   -1.500093    4.07689  0.0000E+00  0.0000E+00  0.0000E+00  0.0000E+00  0.0000E+00  0.0000E+00
