 1 - depth, m
 2 - temperature, C
 3 - salinity, kg/kg
 4 - turbulent kinetic energy, m**2/s**2
 5 - dissipation rate, m**2/s**3
 6 - kinematic heat conductance, m**2/s
 7 - modulus of horizontal velocity, m/s
 8 - Richardson number, n/d
   -0.000000    0.00000  0.0000E+00  0.2306E-10  0.1331E-13  0.1000E-09  0.0000E+00  0.2356E+17
   -0.037501    0.37181  0.0000E+00  0.4805E-10  0.1124E-13  0.1000E-09  0.0000E+00  0.2040E+17
   -0.075002    0.73017  0.0000E+00  0.9442E-10  0.1374E-13  0.1000E-09  0.0000E+00  0.1752E+17
   -0.112504    1.07506  0.0000E+00  0.1671E-09  0.1976E-13  0.1000E-09  0.0000E+00  0.1490E+17
   -0.150006    1.40648  0.0000E+00  0.2775E-09  0.2991E-13  0.1000E-09  0.0000E+00  0.1254E+17
   -0.187508    1.72445  0.0000E+00  0.4453E-09  0.4579E-13  0.1000E-09  0.0000E+00  0.1041E+17
   -0.225011    2.02903  0.0000E+00  0.7005E-09  0.7002E-13  0.1000E-09  0.0000E+00  0.8510E+16
   -0.262513    2.32032  0.0000E+00  0.1090E-08  0.1067E-12  0.1000E-09  0.0000E+00  0.6818E+16
   -0.300016    2.59851  0.0000E+00  0.1684E-08  0.1621E-12  0.1000E-09  0.0000E+00  0.5322E+16
   -0.337520    2.86380  0.0000E+00  0.2590E-08  0.2452E-12  0.1701E-09  0.0000E+00  0.4004E+16
   -0.375023    3.11634  0.0000E+00  0.3966E-08  0.3698E-12  0.3589E-09  0.0000E+00  0.2863E+16
   -0.412527    3.35733  0.0000E+00  0.6050E-08  0.5557E-12  0.8273E-09  0.0000E+00  0.1868E+16
   -0.450030    3.58737  0.0000E+00  0.9192E-08  0.8320E-12  0.2327E-08  0.0000E+00  0.9952E+15
   -0.487534    3.80548  0.0000E+00  0.1386E-07  0.1237E-11  0.1355E-07  0.0000E+00  0.2553E+15
   -0.525039    3.99968  0.0000E+00  0.1424E-07  0.1273E-11  0.5915E-04  0.0000E+00 -0.1056E+12
   -0.562543    4.00018  0.0000E+00  0.1443E-07  0.1293E-11  0.5801E-04  0.0000E+00 -0.1106E+12
   -0.600047    4.00068  0.0000E+00  0.1461E-07  0.1315E-11  0.5826E-04  0.0000E+00 -0.1134E+12
   -0.637551    4.00118  0.0000E+00  0.1477E-07  0.1339E-11  0.5848E-04  0.0000E+00 -0.1163E+12
   -0.675056    4.00167  0.0000E+00  0.1493E-07  0.1365E-11  0.5856E-04  0.0000E+00 -0.1193E+12
   -0.712560    4.00216  0.0000E+00  0.1507E-07  0.1393E-11  0.5850E-04  0.0000E+00 -0.1226E+12
   -0.750065    4.00265  0.0000E+00  0.1520E-07  0.1423E-11  0.5829E-04  0.0000E+00 -0.1263E+12
   -0.787569    4.00314  0.0000E+00  0.1532E-07  0.1455E-11  0.5793E-04  0.0000E+00 -0.1305E+12
   -0.825074    4.00363  0.0000E+00  0.1542E-07  0.1490E-11  0.5742E-04  0.0000E+00 -0.1351E+12
   -0.862578    4.00412  0.0000E+00  0.1551E-07  0.1528E-11  0.5675E-04  0.0000E+00 -0.1402E+12
   -0.900083    4.00462  0.0000E+00  0.1559E-07  0.1569E-11  0.5591E-04  0.0000E+00 -0.1459E+12
   -0.937587    4.00512  0.0000E+00  0.1565E-07  0.1614E-11  0.5490E-04  0.0000E+00 -0.1524E+12
   -0.975091    4.00564  0.0000E+00  0.1569E-07  0.1663E-11  0.5372E-04  0.0000E+00 -0.1597E+12
   -1.012595    4.00616  0.0000E+00  0.1571E-07  0.1718E-11  0.5235E-04  0.0000E+00 -0.1683E+12
   -1.050099    4.00669  0.0000E+00  0.1572E-07  0.1779E-11  0.5077E-04  0.0000E+00 -0.1784E+12
   -1.087603    4.00725  0.0000E+00  0.1569E-07  0.1849E-11  0.4895E-04  0.0000E+00 -0.1903E+12
   -1.125107    4.00782  0.0000E+00  0.1565E-07  0.1928E-11  0.4689E-04  0.0000E+00 -0.2039E+12
   -1.162610    4.00842  0.0000E+00  0.1557E-07  0.2021E-11  0.4455E-04  0.0000E+00 -0.2204E+12
   -1.200113    4.00905  0.0000E+00  0.1545E-07  0.2130E-11  0.4192E-04  0.0000E+00 -0.2409E+12
   -1.237616    4.00972  0.0000E+00  0.1530E-07  0.2261E-11  0.3903E-04  0.0000E+00 -0.2664E+12
   -1.275119    4.01043  0.0000E+00  0.1506E-07  0.2447E-11  0.3456E-04  0.0000E+00 -0.3113E+12
   -1.312622    4.01125  0.0000E+00  0.1466E-07  0.2749E-11  0.2450E-04  0.0000E+00 -0.4574E+12
   -1.350124    4.01239  0.0000E+00  0.1404E-07  0.3233E-11  0.1714E-04  0.0000E+00 -0.6918E+12
   -1.387626    4.01404  0.0000E+00  0.1304E-07  0.4103E-11  0.1063E-04  0.0000E+00 -0.1209E+13
   -1.425127    4.01670  0.0000E+00  0.1121E-07  0.6141E-11  0.4585E-05  0.0000E+00 -0.3215E+13
   -1.462629    4.02284  0.0000E+00  0.6877E-08  0.1474E-10  0.5835E-06  0.0000E+00 -0.3627E+14
   -1.500130    4.06357  0.0000E+00  0.0000E+00  0.0000E+00  0.0000E+00  0.0000E+00  0.0000E+00
