 1 - depth, m
 2 - temperature, C
 3 - salinity, kg/kg
 4 - turbulent kinetic energy, m**2/s**2
 5 - dissipation rate, m**2/s**3
 6 - kinematic heat conductance, m**2/s
 7 - modulus of horizontal velocity, m/s
 8 - Richardson number, n/d
   -0.000000   10.87954  0.0000E+00  0.2030E-03  0.8445E-02  0.5370E-04  0.1122E+00 -0.2810E-01
   -0.037502   10.93756  0.0000E+00  0.1218E-03  0.7478E-02  0.1061E-03  0.4062E-01 -0.9578E+00
   -0.075004   10.95192  0.0000E+00  0.8633E-04  0.6966E-02  0.1309E-03  0.2812E-01  0.3296E+02
   -0.112507   10.96049  0.0000E+00  0.7247E-04  0.6244E-02  0.1419E-03  0.2316E-01  0.6497E+02
   -0.150010   10.96558  0.0000E+00  0.6165E-04  0.5250E-02  0.1584E-03  0.1990E-01  0.1305E+01
   -0.187513   10.96931  0.0000E+00  0.5222E-04  0.3996E-02  0.1777E-03  0.1739E-01  0.1233E+01
   -0.225017   10.97236  0.0000E+00  0.4355E-04  0.2640E-02  0.1998E-03  0.1531E-01  0.1400E+01
   -0.262520   10.97505  0.0000E+00  0.3575E-04  0.1452E-02  0.2248E-03  0.1349E-01  0.2178E+01
   -0.300024   10.97742  0.0000E+00  0.2940E-04  0.6475E-03  0.2502E-03  0.1196E-01  0.5676E+01
   -0.337529   10.97956  0.0000E+00  0.2482E-04  0.2374E-03  0.2760E-03  0.1065E-01  0.1120E+02
   -0.375033   10.98150  0.0000E+00  0.2178E-04  0.7653E-04  0.3033E-03  0.9519E-02  0.6415E+01
   -0.412538   10.98327  0.0000E+00  0.1974E-04  0.2407E-04  0.3303E-03  0.8535E-02  0.1032E+03
   -0.450043   10.98502  0.0000E+00  0.1822E-04  0.8122E-05  0.3609E-03  0.7659E-02  0.4709E+01
   -0.487547   10.98647  0.0000E+00  0.1702E-04  0.3104E-05  0.3955E-03  0.6917E-02  0.7044E+02
   -0.525053   10.98779  0.0000E+00  0.1600E-04  0.1355E-05  0.4337E-03  0.6262E-02  0.1598E+02
   -0.562558   10.98899  0.0000E+00  0.1512E-04  0.6726E-06  0.4766E-03  0.5692E-02  0.3362E+02
   -0.600063   10.99005  0.0000E+00  0.1434E-04  0.3634E-06  0.5367E-03  0.5187E-02  0.4542E+02
   -0.637568   10.99107  0.0000E+00  0.1366E-04  0.2221E-06  0.6048E-03  0.4731E-02  0.3250E+02
   -0.675074   10.99183  0.0000E+00  0.1304E-04  0.1462E-06  0.6472E-03  0.4317E-02  0.4931E+02
   -0.712579   10.99267  0.0000E+00  0.1248E-04  0.1034E-06  0.6709E-03  0.3928E-02  0.2008E+02
   -0.750085   10.99332  0.0000E+00  0.1196E-04  0.7909E-07  0.6876E-03  0.3568E-02  0.9852E+02
   -0.787590   10.99408  0.0000E+00  0.1147E-04  0.6431E-07  0.6975E-03  0.3229E-02  0.8938E+01
   -0.825096   10.99473  0.0000E+00  0.1100E-04  0.5459E-07  0.7002E-03  0.2914E-02  0.7981E+01
   -0.862601   10.99546  0.0000E+00  0.1056E-04  0.4768E-07  0.6991E-03  0.2618E-02  0.6227E+01
   -0.900107   10.99615  0.0000E+00  0.1013E-04  0.4243E-07  0.6944E-03  0.2340E-02  0.4268E+01
   -0.937612   10.99690  0.0000E+00  0.9709E-05  0.3825E-07  0.6870E-03  0.2079E-02  0.3125E+01
   -0.975117   10.99765  0.0000E+00  0.9290E-05  0.3480E-07  0.6752E-03  0.1834E-02  0.4123E+01
   -1.012622   10.99844  0.0000E+00  0.8868E-05  0.3191E-07  0.6633E-03  0.1603E-02  0.2964E+01
   -1.050127   10.99926  0.0000E+00  0.8440E-05  0.2950E-07  0.6480E-03  0.1392E-02  0.2168E+01
   -1.087632   11.00011  0.0000E+00  0.8009E-05  0.2756E-07  0.6285E-03  0.1201E-02  0.2044E+01
   -1.125137   11.00101  0.0000E+00  0.7575E-05  0.2608E-07  0.6028E-03  0.1030E-02  0.6251E+01
   -1.162641   11.00196  0.0000E+00  0.7143E-05  0.2509E-07  0.5702E-03  0.8765E-03  0.2141E+01
   -1.200145   11.00299  0.0000E+00  0.6717E-05  0.2463E-07  0.5320E-03  0.7407E-03  0.2434E+01
   -1.237649   11.00412  0.0000E+00  0.6306E-05  0.2478E-07  0.4865E-03  0.6216E-03  0.3124E+01
   -1.275153   11.00538  0.0000E+00  0.5913E-05  0.2571E-07  0.4300E-03  0.5194E-03  0.4838E+01
   -1.312657   11.00686  0.0000E+00  0.5516E-05  0.2804E-07  0.3753E-03  0.4382E-03  0.1038E+02
   -1.350160   11.00866  0.0000E+00  0.5047E-05  0.3355E-07  0.2913E-03  0.3719E-03  0.4743E+02
   -1.387663   11.01144  0.0000E+00  0.4472E-05  0.4454E-07  0.2486E-03  0.3040E-03  0.3793E+03
   -1.425166   11.01426  0.0000E+00  0.3661E-05  0.8271E-07  0.1193E-03  0.2521E-03  0.2616E+04
   -1.462668   11.02676  0.0000E+00  0.2226E-05  0.1895E-06  0.4104E-04  0.1819E-03 -0.2691E+05
   -1.500170   11.04832  0.0000E+00  0.0000E+00  0.0000E+00  0.0000E+00  0.2249E-03  0.0000E+00
