 1 - depth, m
 2 - temperature, C
 3 - salinity, kg/kg
 4 - turbulent kinetic energy, m**2/s**2
 5 - dissipation rate, m**2/s**3
 6 - kinematic heat conductance, m**2/s
 7 - modulus of horizontal velocity, m/s
 8 - Richardson number, n/d
   -0.000000    0.00000  0.0000E+00  0.4096E-13  0.8590E-16  0.1000E-09  0.0000E+00  0.9778E+16
   -0.037500    0.14967  0.0000E+00  0.4096E-13  0.8590E-16  0.1000E-09  0.0000E+00  0.9300E+16
   -0.075001    0.29806  0.0000E+00  0.4096E-13  0.8590E-16  0.1000E-09  0.0000E+00  0.8827E+16
   -0.112502    0.44501  0.0000E+00  0.4096E-13  0.8590E-16  0.1000E-09  0.0000E+00  0.8359E+16
   -0.150003    0.59040  0.0000E+00  0.4096E-13  0.8590E-16  0.1000E-09  0.0000E+00  0.7899E+16
   -0.187505    0.73411  0.0000E+00  0.4096E-13  0.8590E-16  0.1000E-09  0.0000E+00  0.7446E+16
   -0.225007    0.87601  0.0000E+00  0.4096E-13  0.8590E-16  0.1000E-09  0.0000E+00  0.7004E+16
   -0.262509    1.01598  0.0000E+00  0.4096E-13  0.8590E-16  0.1000E-09  0.0000E+00  0.6561E+16
   -0.300011    1.15370  0.0000E+00  0.4096E-13  0.8590E-16  0.1000E-09  0.0000E+00  0.6128E+16
   -0.337514    1.28901  0.0000E+00  0.4096E-13  0.8590E-16  0.1000E-09  0.0000E+00  0.5710E+16
   -0.375017    1.42179  0.0000E+00  0.4096E-13  0.8590E-16  0.1000E-09  0.0000E+00  0.5337E+16
   -0.412520    1.55274  0.0000E+00  0.4096E-13  0.8590E-16  0.1000E-09  0.0000E+00  0.4993E+16
   -0.450023    1.68227  0.0000E+00  0.4096E-13  0.8590E-16  0.1000E-09  0.0000E+00  0.4659E+16
   -0.487526    1.81036  0.0000E+00  0.4096E-13  0.8590E-16  0.1000E-09  0.0000E+00  0.4333E+16
   -0.525030    1.93693  0.0000E+00  0.4096E-13  0.8590E-16  0.1000E-09  0.0000E+00  0.4012E+16
   -0.562533    2.06178  0.0000E+00  0.4096E-13  0.8590E-16  0.1000E-09  0.0000E+00  0.3701E+16
   -0.600037    2.18489  0.0000E+00  0.4096E-13  0.8590E-16  0.1000E-09  0.0000E+00  0.3402E+16
   -0.637540    2.30620  0.0000E+00  0.4559E-13  0.8590E-16  0.1000E-09  0.0000E+00  0.3113E+16
   -0.675044    2.42569  0.0000E+00  0.2129E-12  0.9442E-16  0.1000E-09  0.0000E+00  0.2835E+16
   -0.712548    2.54332  0.0000E+00  0.5641E-12  0.1799E-15  0.1000E-09  0.0000E+00  0.2567E+16
   -0.750052    2.65906  0.0000E+00  0.1267E-11  0.3695E-15  0.1000E-09  0.0000E+00  0.2340E+16
   -0.787556    2.77435  0.0000E+00  0.2694E-11  0.7560E-15  0.1000E-09  0.0000E+00  0.2125E+16
   -0.825060    2.88976  0.0000E+00  0.5601E-11  0.1531E-14  0.1000E-09  0.0000E+00  0.1912E+16
   -0.862563    3.00536  0.0000E+00  0.1151E-10  0.3072E-14  0.1000E-09  0.0000E+00  0.1700E+16
   -0.900067    3.12126  0.0000E+00  0.2346E-10  0.6120E-14  0.1000E-09  0.0000E+00  0.1489E+16
   -0.937571    3.23755  0.0000E+00  0.4746E-10  0.1211E-13  0.1000E-09  0.0000E+00  0.1277E+16
   -0.975074    3.35433  0.0000E+00  0.9535E-10  0.2379E-13  0.1000E-09  0.0000E+00  0.1064E+16
   -1.012578    3.47173  0.0000E+00  0.1907E-09  0.4654E-13  0.1520E-09  0.0000E+00  0.8487E+15
   -1.050081    3.58981  0.0000E+00  0.3800E-09  0.9078E-13  0.3989E-09  0.0000E+00  0.6304E+15
   -1.087584    3.70854  0.0000E+00  0.7531E-09  0.1762E-12  0.1193E-08  0.0000E+00  0.4085E+15
   -1.125087    3.82763  0.0000E+00  0.1481E-08  0.3394E-12  0.5075E-08  0.0000E+00  0.1844E+15
   -1.162590    3.94540  0.0000E+00  0.2748E-08  0.6210E-12  0.1513E-06  0.0000E+00  0.1029E+14
   -1.200093    4.00542  0.0000E+00  0.3800E-08  0.8700E-12  0.6599E-05  0.0000E+00 -0.8357E+12
   -1.237595    4.00804  0.0000E+00  0.4316E-08  0.1032E-11  0.6972E-05  0.0000E+00 -0.9012E+12
   -1.275097    4.01054  0.0000E+00  0.4700E-08  0.1210E-11  0.6867E-05  0.0000E+00 -0.1034E+13
   -1.312599    4.01313  0.0000E+00  0.4956E-08  0.1429E-11  0.6274E-05  0.0000E+00 -0.1278E+13
   -1.350101    4.01601  0.0000E+00  0.5061E-08  0.1731E-11  0.5188E-05  0.0000E+00 -0.1762E+13
   -1.387602    4.01959  0.0000E+00  0.4945E-08  0.2221E-11  0.3633E-05  0.0000E+00 -0.2941E+13
   -1.425103    4.02482  0.0000E+00  0.4433E-08  0.3255E-11  0.1793E-05  0.0000E+00 -0.7372E+13
   -1.462604    4.03555  0.0000E+00  0.3194E-08  0.6657E-11  0.3635E-06  0.0000E+00 -0.4941E+14
   -1.500104    4.07979  0.0000E+00  0.0000E+00  0.0000E+00  0.0000E+00  0.0000E+00  0.0000E+00
