 1 - depth, m
 2 - temperature, C
 3 - salinity, kg/kg
 4 - turbulent kinetic energy, m**2/s**2
 5 - dissipation rate, m**2/s**3
 6 - kinematic heat conductance, m**2/s
 7 - modulus of horizontal velocity, m/s
 8 - Richardson number, n/d
   -0.000000    0.00000  0.0000E+00  0.4096E-13  0.8590E-16  0.1000E-09  0.0000E+00  0.1047E+17
   -0.037493    0.16044  0.0000E+00  0.4096E-13  0.8590E-16  0.1000E-09  0.0000E+00  0.9807E+16
   -0.074987    0.31758  0.0000E+00  0.4096E-13  0.8590E-16  0.1000E-09  0.0000E+00  0.9167E+16
   -0.112481    0.47123  0.0000E+00  0.4096E-13  0.8590E-16  0.1000E-09  0.0000E+00  0.8548E+16
   -0.149976    0.62121  0.0000E+00  0.4096E-13  0.8590E-16  0.1000E-09  0.0000E+00  0.7951E+16
   -0.187470    0.76735  0.0000E+00  0.4096E-13  0.8590E-16  0.1000E-09  0.0000E+00  0.7376E+16
   -0.224965    0.90948  0.0000E+00  0.4096E-13  0.8590E-16  0.1000E-09  0.0000E+00  0.6825E+16
   -0.262461    1.04744  0.0000E+00  0.4096E-13  0.8590E-16  0.1000E-09  0.0000E+00  0.6284E+16
   -0.299956    1.18075  0.0000E+00  0.4096E-13  0.8590E-16  0.1000E-09  0.0000E+00  0.5765E+16
   -0.337452    1.30919  0.0000E+00  0.4096E-13  0.8590E-16  0.1000E-09  0.0000E+00  0.5274E+16
   -0.374948    1.43259  0.0000E+00  0.4096E-13  0.8590E-16  0.1000E-09  0.0000E+00  0.4879E+16
   -0.412444    1.55255  0.0000E+00  0.4096E-13  0.8590E-16  0.1000E-09  0.0000E+00  0.4542E+16
   -0.449940    1.67005  0.0000E+00  0.4096E-13  0.8590E-16  0.1000E-09  0.0000E+00  0.4219E+16
   -0.487437    1.78503  0.0000E+00  0.4096E-13  0.8590E-16  0.1000E-09  0.0000E+00  0.3910E+16
   -0.524933    1.89745  0.0000E+00  0.4096E-13  0.8590E-16  0.1000E-09  0.0000E+00  0.3611E+16
   -0.562430    2.00714  0.0000E+00  0.4096E-13  0.8590E-16  0.1000E-09  0.0000E+00  0.3326E+16
   -0.599927    2.11403  0.0000E+00  0.4096E-13  0.8590E-16  0.1000E-09  0.0000E+00  0.3054E+16
   -0.637424    2.21805  0.0000E+00  0.4096E-13  0.8590E-16  0.1000E-09  0.0000E+00  0.2795E+16
   -0.674921    2.31913  0.0000E+00  0.4096E-13  0.8590E-16  0.1000E-09  0.0000E+00  0.2550E+16
   -0.712418    2.41715  0.0000E+00  0.4096E-13  0.8590E-16  0.1000E-09  0.0000E+00  0.2317E+16
   -0.749915    2.51202  0.0000E+00  0.4096E-13  0.8590E-16  0.1000E-09  0.0000E+00  0.2134E+16
   -0.787412    2.60528  0.0000E+00  0.4096E-13  0.8590E-16  0.1000E-09  0.0000E+00  0.1969E+16
   -0.824909    2.69747  0.0000E+00  0.4096E-13  0.8590E-16  0.1000E-09  0.0000E+00  0.1809E+16
   -0.862406    2.78855  0.0000E+00  0.4096E-13  0.8590E-16  0.1000E-09  0.0000E+00  0.1655E+16
   -0.899902    2.87852  0.0000E+00  0.4096E-13  0.8590E-16  0.1000E-09  0.0000E+00  0.1505E+16
   -0.937399    2.96733  0.0000E+00  0.4096E-13  0.8590E-16  0.1000E-09  0.0000E+00  0.1360E+16
   -0.974896    3.05498  0.0000E+00  0.4096E-13  0.8590E-16  0.1000E-09  0.0000E+00  0.1220E+16
   -1.012392    3.14147  0.0000E+00  0.4096E-13  0.8590E-16  0.1000E-09  0.0000E+00  0.1088E+16
   -1.049889    3.22695  0.0000E+00  0.4096E-13  0.8590E-16  0.1000E-09  0.0000E+00  0.9603E+15
   -1.087385    3.31147  0.0000E+00  0.8318E-13  0.8912E-16  0.1000E-09  0.0000E+00  0.8376E+15
   -1.124881    3.39509  0.0000E+00  0.2982E-12  0.2597E-15  0.1000E-09  0.0000E+00  0.7256E+15
   -1.162377    3.47867  0.0000E+00  0.1022E-11  0.8498E-15  0.1000E-09  0.0000E+00  0.6163E+15
   -1.199873    3.56252  0.0000E+00  0.3417E-11  0.2759E-14  0.1000E-09  0.0000E+00  0.5077E+15
   -1.237369    3.64694  0.0000E+00  0.1125E-10  0.8851E-14  0.1000E-09  0.0000E+00  0.3992E+15
   -1.274864    3.73247  0.0000E+00  0.3704E-10  0.2844E-13  0.2590E-09  0.0000E+00  0.2900E+15
   -1.312359    3.82038  0.0000E+00  0.1211E-09  0.9113E-13  0.1362E-08  0.0000E+00  0.1717E+15
   -1.349854    3.91111  0.0000E+00  0.3905E-09  0.2904E-12  0.1432E-07  0.0000E+00  0.4310E+14
   -1.387348    3.99876  0.0000E+00  0.1152E-08  0.8907E-12  0.4903E-06  0.0000E+00 -0.8691E+13
   -1.424842    4.02190  0.0000E+00  0.1721E-08  0.1833E-11  0.5541E-06  0.0000E+00 -0.1691E+14
   -1.462336    4.04485  0.0000E+00  0.1791E-08  0.3805E-11  0.2422E-06  0.0000E+00 -0.6028E+14
   -1.499829    4.09182  0.0000E+00  0.0000E+00  0.0000E+00  0.0000E+00  0.0000E+00  0.0000E+00
