 1 - depth, m
 2 - temperature, C
 3 - salinity, kg/kg
 4 - turbulent kinetic energy, m**2/s**2
 5 - dissipation rate, m**2/s**3
 6 - kinematic heat conductance, m**2/s
 7 - modulus of horizontal velocity, m/s
 8 - Richardson number, n/d
   -0.000000    0.00000  0.0000E+00  0.3984E-10  0.2691E-13  0.1000E-09  0.0000E+00  0.2456E+17
   -0.037496    0.38855  0.0000E+00  0.9042E-10  0.2356E-13  0.1000E-09  0.0000E+00  0.2105E+17
   -0.074993    0.76122  0.0000E+00  0.1860E-09  0.3096E-13  0.1000E-09  0.0000E+00  0.1795E+17
   -0.112490    1.11915  0.0000E+00  0.3410E-09  0.4753E-13  0.1000E-09  0.0000E+00  0.1518E+17
   -0.149988    1.46340  0.0000E+00  0.5877E-09  0.7600E-13  0.1000E-09  0.0000E+00  0.1272E+17
   -0.187486    1.79497  0.0000E+00  0.9808E-09  0.1222E-12  0.1000E-09  0.0000E+00  0.1051E+17
   -0.224984    2.11470  0.0000E+00  0.1610E-08  0.1959E-12  0.1000E-09  0.0000E+00  0.8536E+16
   -0.262482    2.42339  0.0000E+00  0.2618E-08  0.3128E-12  0.1285E-09  0.0000E+00  0.6756E+16
   -0.299980    2.72161  0.0000E+00  0.4234E-08  0.4977E-12  0.2684E-09  0.0000E+00  0.5149E+16
   -0.337479    3.00973  0.0000E+00  0.6818E-08  0.7893E-12  0.5927E-09  0.0000E+00  0.3699E+16
   -0.374978    3.28791  0.0000E+00  0.1093E-07  0.1247E-11  0.1447E-08  0.0000E+00  0.2395E+16
   -0.412477    3.55646  0.0000E+00  0.1745E-07  0.1962E-11  0.4485E-08  0.0000E+00  0.1217E+16
   -0.449977    3.81257  0.0000E+00  0.2738E-07  0.3040E-11  0.3711E-07  0.0000E+00  0.2298E+15
   -0.487476    4.01701  0.0000E+00  0.2796E-07  0.3109E-11  0.8825E-04  0.0000E+00 -0.1960E+12
   -0.524976    4.01742  0.0000E+00  0.2823E-07  0.3146E-11  0.8638E-04  0.0000E+00 -0.2017E+12
   -0.562475    4.01783  0.0000E+00  0.2848E-07  0.3187E-11  0.8666E-04  0.0000E+00 -0.2030E+12
   -0.599975    4.01824  0.0000E+00  0.2871E-07  0.3230E-11  0.8685E-04  0.0000E+00 -0.2046E+12
   -0.637475    4.01864  0.0000E+00  0.2892E-07  0.3277E-11  0.8687E-04  0.0000E+00 -0.2068E+12
   -0.674975    4.01905  0.0000E+00  0.2910E-07  0.3327E-11  0.8668E-04  0.0000E+00 -0.2097E+12
   -0.712475    4.01946  0.0000E+00  0.2926E-07  0.3381E-11  0.8630E-04  0.0000E+00 -0.2131E+12
   -0.749975    4.01987  0.0000E+00  0.2940E-07  0.3440E-11  0.8572E-04  0.0000E+00 -0.2168E+12
   -0.787475    4.02028  0.0000E+00  0.2951E-07  0.3503E-11  0.8494E-04  0.0000E+00 -0.2211E+12
   -0.824975    4.02069  0.0000E+00  0.2960E-07  0.3572E-11  0.8394E-04  0.0000E+00 -0.2262E+12
   -0.862475    4.02111  0.0000E+00  0.2966E-07  0.3647E-11  0.8274E-04  0.0000E+00 -0.2320E+12
   -0.899975    4.02153  0.0000E+00  0.2969E-07  0.3729E-11  0.8131E-04  0.0000E+00 -0.2389E+12
   -0.937474    4.02196  0.0000E+00  0.2970E-07  0.3819E-11  0.7966E-04  0.0000E+00 -0.2468E+12
   -0.974974    4.02240  0.0000E+00  0.2967E-07  0.3919E-11  0.7777E-04  0.0000E+00 -0.2561E+12
   -1.012474    4.02285  0.0000E+00  0.2962E-07  0.4031E-11  0.7563E-04  0.0000E+00 -0.2670E+12
   -1.049973    4.02332  0.0000E+00  0.2952E-07  0.4158E-11  0.7320E-04  0.0000E+00 -0.2801E+12
   -1.087473    4.02380  0.0000E+00  0.2939E-07  0.4303E-11  0.7048E-04  0.0000E+00 -0.2955E+12
   -1.124972    4.02430  0.0000E+00  0.2922E-07  0.4472E-11  0.6744E-04  0.0000E+00 -0.3133E+12
   -1.162471    4.02482  0.0000E+00  0.2900E-07  0.4669E-11  0.6405E-04  0.0000E+00 -0.3349E+12
   -1.199969    4.02537  0.0000E+00  0.2872E-07  0.4904E-11  0.6028E-04  0.0000E+00 -0.3616E+12
   -1.237468    4.02596  0.0000E+00  0.2837E-07  0.5188E-11  0.5609E-04  0.0000E+00 -0.3956E+12
   -1.274966    4.02659  0.0000E+00  0.2793E-07  0.5548E-11  0.5147E-04  0.0000E+00 -0.4400E+12
   -1.312464    4.02728  0.0000E+00  0.2730E-07  0.6088E-11  0.4515E-04  0.0000E+00 -0.5133E+12
   -1.349962    4.02808  0.0000E+00  0.2627E-07  0.7046E-11  0.2772E-04  0.0000E+00 -0.8622E+12
   -1.387459    4.02938  0.0000E+00  0.2458E-07  0.8829E-11  0.1670E-04  0.0000E+00 -0.1500E+13
   -1.424957    4.03155  0.0000E+00  0.2151E-07  0.1298E-10  0.7515E-05  0.0000E+00 -0.3616E+13
   -1.462453    4.03640  0.0000E+00  0.1332E-07  0.3205E-10  0.9227E-06  0.0000E+00 -0.3783E+14
   -1.499950    4.07201  0.0000E+00  0.0000E+00  0.0000E+00  0.0000E+00  0.0000E+00  0.0000E+00
