 1 - depth, m
 2 - temperature, C
 3 - salinity, kg/kg
 4 - turbulent kinetic energy, m**2/s**2
 5 - dissipation rate, m**2/s**3
 6 - kinematic heat conductance, m**2/s
 7 - modulus of horizontal velocity, m/s
 8 - Richardson number, n/d
   -0.000000    0.00000  0.0000E+00  0.1542E-10  0.8189E-14  0.1000E-09  0.0000E+00  0.2337E+17
   -0.037498    0.36866  0.0000E+00  0.3080E-10  0.7329E-14  0.1000E-09  0.0000E+00  0.2014E+17
   -0.074996    0.72194  0.0000E+00  0.6015E-10  0.9526E-14  0.1000E-09  0.0000E+00  0.1725E+17
   -0.112494    1.06029  0.0000E+00  0.1078E-09  0.1440E-13  0.1000E-09  0.0000E+00  0.1466E+17
   -0.149992    1.38406  0.0000E+00  0.1831E-09  0.2272E-13  0.1000E-09  0.0000E+00  0.1234E+17
   -0.187491    1.69354  0.0000E+00  0.3021E-09  0.3611E-13  0.1000E-09  0.0000E+00  0.1027E+17
   -0.224990    1.98895  0.0000E+00  0.4906E-09  0.5726E-13  0.1000E-09  0.0000E+00  0.8435E+16
   -0.262490    2.27046  0.0000E+00  0.7897E-09  0.9049E-13  0.1000E-09  0.0000E+00  0.6806E+16
   -0.299990    2.53825  0.0000E+00  0.1264E-08  0.1425E-12  0.1000E-09  0.0000E+00  0.5374E+16
   -0.337489    2.79254  0.0000E+00  0.2015E-08  0.2237E-12  0.1507E-09  0.0000E+00  0.4123E+16
   -0.374990    3.03361  0.0000E+00  0.3201E-08  0.3501E-12  0.3187E-09  0.0000E+00  0.3050E+16
   -0.412490    3.26279  0.0000E+00  0.5067E-08  0.5461E-12  0.7144E-09  0.0000E+00  0.2122E+16
   -0.449990    3.48113  0.0000E+00  0.7990E-08  0.8488E-12  0.1794E-08  0.0000E+00  0.1313E+16
   -0.487491    3.68862  0.0000E+00  0.1254E-07  0.1313E-11  0.5960E-08  0.0000E+00  0.6116E+15
   -0.524992    3.88238  0.0000E+00  0.1913E-07  0.1982E-11  0.6970E-07  0.0000E+00  0.7897E+14
   -0.562493    4.01339  0.0000E+00  0.1964E-07  0.2038E-11  0.6875E-04  0.0000E+00 -0.1682E+12
   -0.599994    4.01379  0.0000E+00  0.1988E-07  0.2068E-11  0.6721E-04  0.0000E+00 -0.1737E+12
   -0.637495    4.01419  0.0000E+00  0.2009E-07  0.2100E-11  0.6747E-04  0.0000E+00 -0.1748E+12
   -0.674996    4.01458  0.0000E+00  0.2029E-07  0.2135E-11  0.6767E-04  0.0000E+00 -0.1761E+12
   -0.712497    4.01498  0.0000E+00  0.2047E-07  0.2172E-11  0.6769E-04  0.0000E+00 -0.1779E+12
   -0.749998    4.01537  0.0000E+00  0.2063E-07  0.2212E-11  0.6754E-04  0.0000E+00 -0.1805E+12
   -0.787499    4.01577  0.0000E+00  0.2076E-07  0.2254E-11  0.6720E-04  0.0000E+00 -0.1838E+12
   -0.825000    4.01616  0.0000E+00  0.2088E-07  0.2300E-11  0.6668E-04  0.0000E+00 -0.1877E+12
   -0.862501    4.01656  0.0000E+00  0.2097E-07  0.2350E-11  0.6596E-04  0.0000E+00 -0.1923E+12
   -0.900002    4.01697  0.0000E+00  0.2104E-07  0.2405E-11  0.6504E-04  0.0000E+00 -0.1978E+12
   -0.937503    4.01737  0.0000E+00  0.2109E-07  0.2464E-11  0.6393E-04  0.0000E+00 -0.2041E+12
   -0.975004    4.01779  0.0000E+00  0.2111E-07  0.2530E-11  0.6260E-04  0.0000E+00 -0.2116E+12
   -1.012505    4.01822  0.0000E+00  0.2111E-07  0.2603E-11  0.6105E-04  0.0000E+00 -0.2205E+12
   -1.050006    4.01866  0.0000E+00  0.2108E-07  0.2686E-11  0.5924E-04  0.0000E+00 -0.2312E+12
   -1.087506    4.01911  0.0000E+00  0.2101E-07  0.2780E-11  0.5718E-04  0.0000E+00 -0.2440E+12
   -1.125006    4.01958  0.0000E+00  0.2092E-07  0.2889E-11  0.5482E-04  0.0000E+00 -0.2587E+12
   -1.162506    4.02007  0.0000E+00  0.2078E-07  0.3016E-11  0.5216E-04  0.0000E+00 -0.2765E+12
   -1.200006    4.02059  0.0000E+00  0.2060E-07  0.3166E-11  0.4915E-04  0.0000E+00 -0.2987E+12
   -1.237506    4.02114  0.0000E+00  0.2036E-07  0.3348E-11  0.4577E-04  0.0000E+00 -0.3270E+12
   -1.275005    4.02174  0.0000E+00  0.2005E-07  0.3582E-11  0.4205E-04  0.0000E+00 -0.3642E+12
   -1.312505    4.02239  0.0000E+00  0.1957E-07  0.3945E-11  0.3234E-04  0.0000E+00 -0.4866E+12
   -1.350004    4.02324  0.0000E+00  0.1877E-07  0.4588E-11  0.2151E-04  0.0000E+00 -0.7588E+12
   -1.387502    4.02453  0.0000E+00  0.1749E-07  0.5755E-11  0.1331E-04  0.0000E+00 -0.1294E+13
   -1.425000    4.02664  0.0000E+00  0.1515E-07  0.8477E-11  0.5861E-05  0.0000E+00 -0.3215E+13
   -1.462498    4.03144  0.0000E+00  0.9206E-08  0.2057E-10  0.7021E-06  0.0000E+00 -0.3442E+14
   -1.499996    4.06652  0.0000E+00  0.0000E+00  0.0000E+00  0.0000E+00  0.0000E+00  0.0000E+00
