 1 - depth, m
 2 - temperature, C
 3 - salinity, kg/kg
 4 - turbulent kinetic energy, m**2/s**2
 5 - dissipation rate, m**2/s**3
 6 - kinematic heat conductance, m**2/s
 7 - modulus of horizontal velocity, m/s
 8 - Richardson number, n/d
   -0.000000    0.00000  0.0000E+00  0.1018E-06  0.5622E-09  0.1409E-07  0.0000E+00  0.7509E+17
   -0.037501    1.66300  0.0000E+00  0.4784E-06  0.3839E-09  0.1172E-04  0.0000E+00  0.2624E+17
   -0.075002    2.77976  0.0000E+00  0.6137E-06  0.4106E-09  0.2351E-03  0.0000E+00  0.1201E+17
   -0.112503    3.28373  0.0000E+00  0.7048E-06  0.4337E-09  0.3349E-03  0.0000E+00  0.6579E+16
   -0.150005    3.61401  0.0000E+00  0.7755E-06  0.4528E-09  0.4007E-03  0.0000E+00  0.3802E+16
   -0.187507    3.84418  0.0000E+00  0.8336E-06  0.4694E-09  0.4563E-03  0.0000E+00  0.2340E+16
   -0.225010    4.01188  0.0000E+00  0.8824E-06  0.4840E-09  0.5007E-03  0.0000E+00  0.1548E+16
   -0.262512    4.14223  0.0000E+00  0.9227E-06  0.4966E-09  0.5389E-03  0.0000E+00  0.1011E+16
   -0.300015    4.24533  0.0000E+00  0.9512E-06  0.5052E-09  0.5719E-03  0.0000E+00  0.4030E+15
   -0.337518    4.31313  0.0000E+00  0.9582E-06  0.5056E-09  0.6011E-03  0.0000E+00  0.6287E+13
   -0.375022    4.32071  0.0000E+00  0.9614E-06  0.5052E-09  0.6058E-03  0.0000E+00 -0.4699E+13
   -0.412525    4.32163  0.0000E+00  0.9639E-06  0.5054E-09  0.6054E-03  0.0000E+00 -0.4571E+13
   -0.450029    4.32252  0.0000E+00  0.9659E-06  0.5061E-09  0.6040E-03  0.0000E+00 -0.4484E+13
   -0.487533    4.32339  0.0000E+00  0.9673E-06  0.5074E-09  0.6017E-03  0.0000E+00 -0.4452E+13
   -0.525037    4.32425  0.0000E+00  0.9681E-06  0.5092E-09  0.5983E-03  0.0000E+00 -0.4406E+13
   -0.562541    4.32510  0.0000E+00  0.9684E-06  0.5117E-09  0.5940E-03  0.0000E+00 -0.4406E+13
   -0.600045    4.32594  0.0000E+00  0.9682E-06  0.5147E-09  0.5885E-03  0.0000E+00 -0.4392E+13
   -0.637549    4.32678  0.0000E+00  0.9675E-06  0.5183E-09  0.5820E-03  0.0000E+00 -0.4424E+13
   -0.675053    4.32763  0.0000E+00  0.9662E-06  0.5225E-09  0.5744E-03  0.0000E+00 -0.4444E+13
   -0.712558    4.32847  0.0000E+00  0.9645E-06  0.5275E-09  0.5657E-03  0.0000E+00 -0.4507E+13
   -0.750062    4.32933  0.0000E+00  0.9621E-06  0.5333E-09  0.5560E-03  0.0000E+00 -0.4551E+13
   -0.787566    4.33019  0.0000E+00  0.9592E-06  0.5400E-09  0.5446E-03  0.0000E+00 -0.4638E+13
   -0.825071    4.33106  0.0000E+00  0.9557E-06  0.5476E-09  0.5316E-03  0.0000E+00 -0.4718E+13
   -0.862575    4.33195  0.0000E+00  0.9516E-06  0.5563E-09  0.5175E-03  0.0000E+00 -0.4845E+13
   -0.900079    4.33286  0.0000E+00  0.9468E-06  0.5664E-09  0.5024E-03  0.0000E+00 -0.4972E+13
   -0.937583    4.33379  0.0000E+00  0.9414E-06  0.5779E-09  0.4856E-03  0.0000E+00 -0.5150E+13
   -0.975087    4.33475  0.0000E+00  0.9352E-06  0.5911E-09  0.4677E-03  0.0000E+00 -0.5338E+13
   -1.012591    4.33574  0.0000E+00  0.9282E-06  0.6065E-09  0.4485E-03  0.0000E+00 -0.5589E+13
   -1.050095    4.33677  0.0000E+00  0.9202E-06  0.6246E-09  0.4269E-03  0.0000E+00 -0.5868E+13
   -1.087599    4.33786  0.0000E+00  0.9112E-06  0.6458E-09  0.4229E-03  0.0000E+00 -0.5862E+13
   -1.125102    4.33897  0.0000E+00  0.9010E-06  0.6711E-09  0.3730E-03  0.0000E+00 -0.6802E+13
   -1.162606    4.34020  0.0000E+00  0.8894E-06  0.7016E-09  0.3538E-03  0.0000E+00 -0.7176E+13
   -1.200109    4.34151  0.0000E+00  0.8761E-06  0.7393E-09  0.3283E-03  0.0000E+00 -0.7746E+13
   -1.237612    4.34291  0.0000E+00  0.8609E-06  0.7864E-09  0.2994E-03  0.0000E+00 -0.8511E+13
   -1.275114    4.34447  0.0000E+00  0.8430E-06  0.8480E-09  0.2679E-03  0.0000E+00 -0.9602E+13
   -1.312617    4.34620  0.0000E+00  0.8213E-06  0.9325E-09  0.2338E-03  0.0000E+00 -0.1107E+14
   -1.350119    4.34820  0.0000E+00  0.7944E-06  0.1055E-08  0.1955E-03  0.0000E+00 -0.1342E+14
   -1.387621    4.35060  0.0000E+00  0.7596E-06  0.1248E-08  0.1606E-03  0.0000E+00 -0.1657E+14
   -1.425122    4.35356  0.0000E+00  0.6997E-06  0.1680E-08  0.8599E-04  0.0000E+00 -0.3172E+14
   -1.462623    4.35925  0.0000E+00  0.4260E-06  0.4801E-08  0.5675E-05  0.0000E+00 -0.5278E+15
   -1.500124    4.44209  0.0000E+00  0.0000E+00  0.0000E+00  0.0000E+00  0.0000E+00  0.0000E+00
