 1 - depth, m
 2 - temperature, C
 3 - salinity, kg/kg
 4 - turbulent kinetic energy, m**2/s**2
 5 - dissipation rate, m**2/s**3
 6 - kinematic heat conductance, m**2/s
 7 - modulus of horizontal velocity, m/s
 8 - Richardson number, n/d
   -0.000000   17.74235  0.0000E+00  0.2451E-04  0.2634E-05  0.2349E-04  0.3246E-01 -0.2983E-01
   -0.037496   17.77338  0.0000E+00  0.1920E-04  0.8655E-06  0.4818E-04  0.1891E-01 -0.4234E-01
   -0.074993   17.78467  0.0000E+00  0.1676E-04  0.4521E-06  0.7201E-04  0.1454E-01 -0.7209E-01
   -0.112490   17.79205  0.0000E+00  0.1513E-04  0.2833E-06  0.9702E-04  0.1185E-01 -0.1071E+00
   -0.149988   17.79743  0.0000E+00  0.1394E-04  0.1965E-06  0.1262E-03  0.9965E-02 -0.1289E+00
   -0.187486   17.80149  0.0000E+00  0.1306E-04  0.1463E-06  0.2004E-03  0.8585E-02  0.1520E+03
   -0.224984   17.80422  0.0000E+00  0.1244E-04  0.1161E-06  0.3642E-03  0.7566E-02  0.1965E+03
   -0.262482   17.80568  0.0000E+00  0.1201E-04  0.9636E-07  0.4339E-03  0.6804E-02  0.1103E+02
   -0.299981   17.80678  0.0000E+00  0.1167E-04  0.8150E-07  0.4462E-03  0.6122E-02  0.9435E+01
   -0.337479   17.80783  0.0000E+00  0.1139E-04  0.6988E-07  0.4678E-03  0.5500E-02  0.7540E+01
   -0.374978   17.80880  0.0000E+00  0.1116E-04  0.6069E-07  0.4872E-03  0.4942E-02  0.6537E+01
   -0.412478   17.80972  0.0000E+00  0.1095E-04  0.5324E-07  0.5079E-03  0.4435E-02  0.5917E+01
   -0.449977   17.81059  0.0000E+00  0.1075E-04  0.4712E-07  0.5292E-03  0.3971E-02  0.5433E+01
   -0.487476   17.81141  0.0000E+00  0.1057E-04  0.4200E-07  0.5515E-03  0.3543E-02  0.4987E+01
   -0.524976   17.81218  0.0000E+00  0.1038E-04  0.3767E-07  0.5768E-03  0.3150E-02  0.4338E+01
   -0.562476   17.81291  0.0000E+00  0.1019E-04  0.3398E-07  0.6028E-03  0.2792E-02  0.3827E+01
   -0.599976   17.81359  0.0000E+00  0.1000E-04  0.3084E-07  0.6291E-03  0.2466E-02  0.3417E+01
   -0.637476   17.81424  0.0000E+00  0.9802E-05  0.2816E-07  0.6545E-03  0.2171E-02  0.3080E+01
   -0.674976   17.81486  0.0000E+00  0.9593E-05  0.2588E-07  0.6779E-03  0.1905E-02  0.2799E+01
   -0.712476   17.81545  0.0000E+00  0.9373E-05  0.2396E-07  0.6978E-03  0.1664E-02  0.2561E+01
   -0.749976   17.81602  0.0000E+00  0.9141E-05  0.2235E-07  0.7135E-03  0.1449E-02  0.2356E+01
   -0.787476   17.81657  0.0000E+00  0.8897E-05  0.2103E-07  0.7248E-03  0.1257E-02  0.2179E+01
   -0.824976   17.81710  0.0000E+00  0.8642E-05  0.1997E-07  0.7328E-03  0.1087E-02  0.2023E+01
   -0.862476   17.81763  0.0000E+00  0.8377E-05  0.1916E-07  0.7392E-03  0.9373E-03  0.1884E+01
   -0.899976   17.81815  0.0000E+00  0.8104E-05  0.1856E-07  0.7460E-03  0.8055E-03  0.1759E+01
   -0.937475   17.81866  0.0000E+00  0.7827E-05  0.1817E-07  0.7539E-03  0.6899E-03  0.1645E+01
   -0.974975   17.81916  0.0000E+00  0.7549E-05  0.1798E-07  0.7699E-03  0.5885E-03  0.1550E+01
   -1.012475   17.81966  0.0000E+00  0.7274E-05  0.1796E-07  0.7450E-03  0.5001E-03  0.1373E+01
   -1.049974   17.82016  0.0000E+00  0.7114E-05  0.1806E-07  0.9338E-03  0.4218E-03  0.1091E+01
   -1.087474   17.82056  0.0000E+00  0.6988E-05  0.1823E-07  0.7341E-03  0.3948E-03  0.3322E+01
   -1.124973   17.82106  0.0000E+00  0.6821E-05  0.1857E-07  0.7727E-03  0.3669E-03  0.1083E+01
   -1.162472   17.82154  0.0000E+00  0.6595E-05  0.1920E-07  0.6592E-03  0.3233E-03  0.9680E+00
   -1.199971   17.82210  0.0000E+00  0.6387E-05  0.1998E-07  0.6035E-03  0.2882E-03  0.9353E+00
   -1.237469   17.82271  0.0000E+00  0.6178E-05  0.2100E-07  0.5590E-03  0.2587E-03  0.1136E+01
   -1.274968   17.82337  0.0000E+00  0.5940E-05  0.2259E-07  0.4923E-03  0.2325E-03  0.1274E+01
   -1.312466   17.82414  0.0000E+00  0.5646E-05  0.2513E-07  0.4314E-03  0.2063E-03  0.2408E+03
   -1.349963   17.82503  0.0000E+00  0.5267E-05  0.2966E-07  0.3212E-03  0.1820E-03  0.5748E+05
   -1.387461   17.82643  0.0000E+00  0.4769E-05  0.3803E-07  0.2884E-03  0.1544E-03  0.7827E+04
   -1.424958   17.82762  0.0000E+00  0.3985E-05  0.6297E-07  0.1263E-03  0.1342E-03  0.9897E+04
   -1.462455   17.83418  0.0000E+00  0.2376E-05  0.1562E-06  0.4222E-04  0.1007E-03 -0.9288E+04
   -1.499951   17.84386  0.0000E+00  0.0000E+00  0.0000E+00  0.0000E+00  0.1138E-03  0.0000E+00
