 1 - depth, m
 2 - temperature, C
 3 - salinity, kg/kg
 4 - turbulent kinetic energy, m**2/s**2
 5 - dissipation rate, m**2/s**3
 6 - kinematic heat conductance, m**2/s
 7 - modulus of horizontal velocity, m/s
 8 - Richardson number, n/d
   -0.000000    0.00000  0.0000E+00  0.2487E-10  0.1490E-13  0.1000E-09  0.0000E+00  0.2453E+17
   -0.037496    0.38816  0.0000E+00  0.5286E-10  0.1319E-13  0.1000E-09  0.0000E+00  0.2099E+17
   -0.074992    0.75964  0.0000E+00  0.1060E-09  0.1724E-13  0.1000E-09  0.0000E+00  0.1782E+17
   -0.112488    1.11478  0.0000E+00  0.1922E-09  0.2628E-13  0.1000E-09  0.0000E+00  0.1500E+17
   -0.149985    1.45390  0.0000E+00  0.3289E-09  0.4175E-13  0.1000E-09  0.0000E+00  0.1248E+17
   -0.187481    1.77735  0.0000E+00  0.5461E-09  0.6677E-13  0.1000E-09  0.0000E+00  0.1025E+17
   -0.224979    2.08553  0.0000E+00  0.8918E-09  0.1065E-12  0.1000E-09  0.0000E+00  0.8292E+16
   -0.262476    2.37893  0.0000E+00  0.1443E-08  0.1693E-12  0.1000E-09  0.0000E+00  0.6571E+16
   -0.299974    2.65808  0.0000E+00  0.2324E-08  0.2682E-12  0.1469E-09  0.0000E+00  0.5067E+16
   -0.337472    2.92356  0.0000E+00  0.3725E-08  0.4235E-12  0.3127E-09  0.0000E+00  0.3759E+16
   -0.374970    3.17594  0.0000E+00  0.5951E-08  0.6666E-12  0.7026E-09  0.0000E+00  0.2633E+16
   -0.412468    3.41694  0.0000E+00  0.9469E-08  0.1046E-11  0.1758E-08  0.0000E+00  0.1651E+16
   -0.449967    3.64730  0.0000E+00  0.1499E-07  0.1633E-11  0.5770E-08  0.0000E+00  0.7859E+15
   -0.487465    3.86403  0.0000E+00  0.2311E-07  0.2489E-11  0.6350E-07  0.0000E+00  0.1106E+15
   -0.524964    4.01612  0.0000E+00  0.2366E-07  0.2552E-11  0.7876E-04  0.0000E+00 -0.1824E+12
   -0.562463    4.01651  0.0000E+00  0.2392E-07  0.2586E-11  0.7655E-04  0.0000E+00 -0.1889E+12
   -0.599962    4.01690  0.0000E+00  0.2415E-07  0.2623E-11  0.7679E-04  0.0000E+00 -0.1904E+12
   -0.637461    4.01730  0.0000E+00  0.2437E-07  0.2662E-11  0.7699E-04  0.0000E+00 -0.1919E+12
   -0.674960    4.01769  0.0000E+00  0.2457E-07  0.2705E-11  0.7701E-04  0.0000E+00 -0.1941E+12
   -0.712459    4.01808  0.0000E+00  0.2474E-07  0.2750E-11  0.7685E-04  0.0000E+00 -0.1967E+12
   -0.749959    4.01848  0.0000E+00  0.2489E-07  0.2799E-11  0.7649E-04  0.0000E+00 -0.2000E+12
   -0.787458    4.01887  0.0000E+00  0.2502E-07  0.2852E-11  0.7594E-04  0.0000E+00 -0.2038E+12
   -0.824957    4.01927  0.0000E+00  0.2512E-07  0.2909E-11  0.7519E-04  0.0000E+00 -0.2084E+12
   -0.862456    4.01967  0.0000E+00  0.2520E-07  0.2971E-11  0.7424E-04  0.0000E+00 -0.2137E+12
   -0.899955    4.02008  0.0000E+00  0.2526E-07  0.3039E-11  0.7308E-04  0.0000E+00 -0.2200E+12
   -0.937454    4.02049  0.0000E+00  0.2529E-07  0.3114E-11  0.7170E-04  0.0000E+00 -0.2273E+12
   -0.974953    4.02091  0.0000E+00  0.2529E-07  0.3197E-11  0.7010E-04  0.0000E+00 -0.2358E+12
   -1.012452    4.02134  0.0000E+00  0.2527E-07  0.3289E-11  0.6827E-04  0.0000E+00 -0.2459E+12
   -1.049950    4.02179  0.0000E+00  0.2521E-07  0.3393E-11  0.6616E-04  0.0000E+00 -0.2581E+12
   -1.087449    4.02225  0.0000E+00  0.2511E-07  0.3512E-11  0.6377E-04  0.0000E+00 -0.2724E+12
   -1.124947    4.02273  0.0000E+00  0.2498E-07  0.3650E-11  0.6108E-04  0.0000E+00 -0.2889E+12
   -1.162445    4.02324  0.0000E+00  0.2480E-07  0.3811E-11  0.5807E-04  0.0000E+00 -0.3087E+12
   -1.199943    4.02377  0.0000E+00  0.2458E-07  0.4003E-11  0.5469E-04  0.0000E+00 -0.3335E+12
   -1.237441    4.02433  0.0000E+00  0.2429E-07  0.4234E-11  0.5090E-04  0.0000E+00 -0.3650E+12
   -1.274938    4.02494  0.0000E+00  0.2392E-07  0.4527E-11  0.4676E-04  0.0000E+00 -0.4060E+12
   -1.312436    4.02560  0.0000E+00  0.2337E-07  0.4973E-11  0.3863E-04  0.0000E+00 -0.5038E+12
   -1.349933    4.02642  0.0000E+00  0.2245E-07  0.5769E-11  0.2463E-04  0.0000E+00 -0.8170E+12
   -1.387429    4.02770  0.0000E+00  0.2097E-07  0.7232E-11  0.1506E-04  0.0000E+00 -0.1404E+13
   -1.424926    4.02981  0.0000E+00  0.1827E-07  0.1063E-10  0.6714E-05  0.0000E+00 -0.3426E+13
   -1.462421    4.03458  0.0000E+00  0.1121E-07  0.2606E-10  0.8118E-06  0.0000E+00 -0.3620E+14
   -1.499917    4.06971  0.0000E+00  0.0000E+00  0.0000E+00  0.0000E+00  0.0000E+00  0.0000E+00
