 1 - depth, m
 2 - temperature, C
 3 - salinity, kg/kg
 4 - turbulent kinetic energy, m**2/s**2
 5 - dissipation rate, m**2/s**3
 6 - kinematic heat conductance, m**2/s
 7 - modulus of horizontal velocity, m/s
 8 - Richardson number, n/d
   -0.000000    0.00000  0.0000E+00  0.4096E-13  0.8590E-16  0.1000E-09  0.0000E+00  0.7501E+16
   -0.037498    0.11427  0.0000E+00  0.4096E-13  0.8590E-16  0.1000E-09  0.0000E+00  0.7255E+16
   -0.074996    0.22832  0.0000E+00  0.4096E-13  0.8590E-16  0.1000E-09  0.0000E+00  0.7008E+16
   -0.112495    0.34210  0.0000E+00  0.4096E-13  0.8590E-16  0.1000E-09  0.0000E+00  0.6761E+16
   -0.149994    0.45557  0.0000E+00  0.4096E-13  0.8590E-16  0.1000E-09  0.0000E+00  0.6514E+16
   -0.187493    0.56869  0.0000E+00  0.4096E-13  0.8590E-16  0.1000E-09  0.0000E+00  0.6268E+16
   -0.224993    0.68139  0.0000E+00  0.4096E-13  0.8590E-16  0.1000E-09  0.0000E+00  0.6022E+16
   -0.262492    0.79364  0.0000E+00  0.4096E-13  0.8590E-16  0.1000E-09  0.0000E+00  0.5775E+16
   -0.299992    0.90534  0.0000E+00  0.4096E-13  0.8590E-16  0.1000E-09  0.0000E+00  0.5529E+16
   -0.337493    1.01642  0.0000E+00  0.4096E-13  0.8590E-16  0.1000E-09  0.0000E+00  0.5285E+16
   -0.374993    1.12682  0.0000E+00  0.4096E-13  0.8590E-16  0.1000E-09  0.0000E+00  0.5050E+16
   -0.412494    1.23666  0.0000E+00  0.4096E-13  0.8590E-16  0.1000E-09  0.0000E+00  0.4821E+16
   -0.449995    1.34598  0.0000E+00  0.4096E-13  0.8590E-16  0.1000E-09  0.0000E+00  0.4593E+16
   -0.487495    1.45474  0.0000E+00  0.4096E-13  0.8590E-16  0.1000E-09  0.0000E+00  0.4368E+16
   -0.524997    1.56287  0.0000E+00  0.4096E-13  0.8590E-16  0.1000E-09  0.0000E+00  0.4142E+16
   -0.562498    1.67028  0.0000E+00  0.4096E-13  0.8590E-16  0.1000E-09  0.0000E+00  0.3920E+16
   -0.599999    1.77691  0.0000E+00  0.4096E-13  0.8590E-16  0.1000E-09  0.0000E+00  0.3699E+16
   -0.637500    1.88269  0.0000E+00  0.4096E-13  0.8590E-16  0.1000E-09  0.0000E+00  0.3482E+16
   -0.675002    1.98756  0.0000E+00  0.4096E-13  0.8590E-16  0.1000E-09  0.0000E+00  0.3269E+16
   -0.712503    2.09145  0.0000E+00  0.4096E-13  0.8590E-16  0.1000E-09  0.0000E+00  0.3058E+16
   -0.750005    2.19428  0.0000E+00  0.4096E-13  0.8590E-16  0.1000E-09  0.0000E+00  0.2861E+16
   -0.787506    2.29631  0.0000E+00  0.4096E-13  0.8590E-16  0.1000E-09  0.0000E+00  0.2670E+16
   -0.825008    2.39760  0.0000E+00  0.4096E-13  0.8590E-16  0.1000E-09  0.0000E+00  0.2482E+16
   -0.862509    2.49809  0.0000E+00  0.4096E-13  0.8590E-16  0.1000E-09  0.0000E+00  0.2297E+16
   -0.900011    2.59771  0.0000E+00  0.4096E-13  0.8590E-16  0.1000E-09  0.0000E+00  0.2115E+16
   -0.937512    2.69640  0.0000E+00  0.4096E-13  0.8590E-16  0.1000E-09  0.0000E+00  0.1937E+16
   -0.975013    2.79411  0.0000E+00  0.4096E-13  0.8590E-16  0.1000E-09  0.0000E+00  0.1763E+16
   -1.012514    2.89074  0.0000E+00  0.4096E-13  0.8590E-16  0.1000E-09  0.0000E+00  0.1592E+16
   -1.050015    2.98611  0.0000E+00  0.4096E-13  0.8590E-16  0.1000E-09  0.0000E+00  0.1424E+16
   -1.087516    3.08007  0.0000E+00  0.4096E-13  0.8590E-16  0.1000E-09  0.0000E+00  0.1262E+16
   -1.125017    3.17249  0.0000E+00  0.4096E-13  0.8590E-16  0.1000E-09  0.0000E+00  0.1119E+16
   -1.162517    3.26442  0.0000E+00  0.4096E-13  0.8590E-16  0.1000E-09  0.0000E+00  0.9804E+15
   -1.200017    3.35600  0.0000E+00  0.4096E-13  0.8590E-16  0.1000E-09  0.0000E+00  0.8435E+15
   -1.237517    3.44725  0.0000E+00  0.4096E-13  0.8590E-16  0.1000E-09  0.0000E+00  0.7086E+15
   -1.275017    3.53818  0.0000E+00  0.1486E-12  0.2099E-15  0.1000E-09  0.0000E+00  0.5765E+15
   -1.312517    3.62897  0.0000E+00  0.6719E-12  0.9069E-15  0.1000E-09  0.0000E+00  0.4456E+15
   -1.350016    3.71970  0.0000E+00  0.3008E-11  0.4020E-14  0.1000E-09  0.0000E+00  0.3156E+15
   -1.387515    3.81044  0.0000E+00  0.1340E-10  0.1796E-13  0.2173E-09  0.0000E+00  0.1860E+15
   -1.425014    3.90126  0.0000E+00  0.5945E-10  0.8201E-13  0.2243E-08  0.0000E+00  0.5651E+14
   -1.462512    3.99119  0.0000E+00  0.2524E-09  0.3956E-12  0.5937E-07  0.0000E+00 -0.3786E+14
   -1.500010    4.05604  0.0000E+00  0.0000E+00  0.0000E+00  0.0000E+00  0.0000E+00  0.0000E+00
