 1 - depth, m
 2 - temperature, C
 3 - salinity, kg/kg
 4 - turbulent kinetic energy, m**2/s**2
 5 - dissipation rate, m**2/s**3
 6 - kinematic heat conductance, m**2/s
 7 - modulus of horizontal velocity, m/s
 8 - Richardson number, n/d
   -0.000000    0.00000  0.0000E+00  0.5227E-10  0.3714E-13  0.1000E-09  0.0000E+00  0.2525E+17
   -0.037493    0.40011  0.0000E+00  0.1220E-09  0.3035E-13  0.1000E-09  0.0000E+00  0.2168E+17
   -0.074986    0.78594  0.0000E+00  0.2495E-09  0.3668E-13  0.1000E-09  0.0000E+00  0.1847E+17
   -0.112480    1.15843  0.0000E+00  0.4470E-09  0.5245E-13  0.1000E-09  0.0000E+00  0.1559E+17
   -0.149974    1.51849  0.0000E+00  0.7448E-09  0.7908E-13  0.1000E-09  0.0000E+00  0.1299E+17
   -0.187468    1.86690  0.0000E+00  0.1193E-08  0.1205E-12  0.1000E-09  0.0000E+00  0.1064E+17
   -0.224962    2.20431  0.0000E+00  0.1871E-08  0.1835E-12  0.1000E-09  0.0000E+00  0.8506E+16
   -0.262457    2.53119  0.0000E+00  0.2899E-08  0.2782E-12  0.1177E-09  0.0000E+00  0.6568E+16
   -0.299952    2.84785  0.0000E+00  0.4459E-08  0.4203E-12  0.2429E-09  0.0000E+00  0.4803E+16
   -0.337447    3.15415  0.0000E+00  0.6820E-08  0.6325E-12  0.5480E-09  0.0000E+00  0.3203E+16
   -0.374943    3.44966  0.0000E+00  0.1038E-07  0.9480E-12  0.1490E-08  0.0000E+00  0.1767E+16
   -0.412438    3.73353  0.0000E+00  0.1570E-07  0.1413E-11  0.7849E-08  0.0000E+00  0.5010E+15
   -0.449934    3.99625  0.0000E+00  0.1611E-07  0.1451E-11  0.6392E-04  0.0000E+00 -0.9579E+11
   -0.487430    3.99685  0.0000E+00  0.1631E-07  0.1473E-11  0.6442E-04  0.0000E+00 -0.9929E+11
   -0.524926    3.99744  0.0000E+00  0.1650E-07  0.1497E-11  0.6467E-04  0.0000E+00 -0.1036E+12
   -0.562422    3.99803  0.0000E+00  0.1668E-07  0.1523E-11  0.6490E-04  0.0000E+00 -0.1079E+12
   -0.599918    3.99860  0.0000E+00  0.1686E-07  0.1552E-11  0.6500E-04  0.0000E+00 -0.1124E+12
   -0.637415    3.99918  0.0000E+00  0.1703E-07  0.1583E-11  0.6497E-04  0.0000E+00 -0.1171E+12
   -0.674911    3.99975  0.0000E+00  0.1719E-07  0.1617E-11  0.6481E-04  0.0000E+00 -0.1221E+12
   -0.712407    4.00032  0.0000E+00  0.1735E-07  0.1654E-11  0.6451E-04  0.0000E+00 -0.1274E+12
   -0.749904    4.00089  0.0000E+00  0.1749E-07  0.1694E-11  0.6406E-04  0.0000E+00 -0.1328E+12
   -0.787400    4.00147  0.0000E+00  0.1762E-07  0.1737E-11  0.6347E-04  0.0000E+00 -0.1386E+12
   -0.824897    4.00204  0.0000E+00  0.1773E-07  0.1783E-11  0.6273E-04  0.0000E+00 -0.1448E+12
   -0.862393    4.00262  0.0000E+00  0.1784E-07  0.1833E-11  0.6182E-04  0.0000E+00 -0.1517E+12
   -0.899889    4.00321  0.0000E+00  0.1792E-07  0.1888E-11  0.6076E-04  0.0000E+00 -0.1592E+12
   -0.937386    4.00380  0.0000E+00  0.1799E-07  0.1947E-11  0.5953E-04  0.0000E+00 -0.1676E+12
   -0.974882    4.00440  0.0000E+00  0.1804E-07  0.2012E-11  0.5812E-04  0.0000E+00 -0.1770E+12
   -1.012378    4.00502  0.0000E+00  0.1807E-07  0.2084E-11  0.5652E-04  0.0000E+00 -0.1878E+12
   -1.049874    4.00565  0.0000E+00  0.1808E-07  0.2165E-11  0.5469E-04  0.0000E+00 -0.2003E+12
   -1.087370    4.00630  0.0000E+00  0.1807E-07  0.2257E-11  0.5264E-04  0.0000E+00 -0.2150E+12
   -1.124865    4.00698  0.0000E+00  0.1802E-07  0.2361E-11  0.5034E-04  0.0000E+00 -0.2319E+12
   -1.162361    4.00769  0.0000E+00  0.1794E-07  0.2483E-11  0.4775E-04  0.0000E+00 -0.2523E+12
   -1.199856    4.00843  0.0000E+00  0.1782E-07  0.2625E-11  0.4486E-04  0.0000E+00 -0.2775E+12
   -1.237351    4.00922  0.0000E+00  0.1765E-07  0.2796E-11  0.4166E-04  0.0000E+00 -0.3092E+12
   -1.274845    4.01007  0.0000E+00  0.1740E-07  0.3028E-11  0.3793E-04  0.0000E+00 -0.3525E+12
   -1.312340    4.01100  0.0000E+00  0.1698E-07  0.3394E-11  0.2782E-04  0.0000E+00 -0.5032E+12
   -1.349834    4.01227  0.0000E+00  0.1631E-07  0.4004E-11  0.1894E-04  0.0000E+00 -0.7851E+12
   -1.387328    4.01414  0.0000E+00  0.1522E-07  0.5103E-11  0.1173E-04  0.0000E+00 -0.1384E+13
   -1.424822    4.01715  0.0000E+00  0.1318E-07  0.7664E-11  0.5132E-05  0.0000E+00 -0.3671E+13
   -1.462315    4.02400  0.0000E+00  0.8243E-08  0.1858E-10  0.6794E-06  0.0000E+00 -0.4169E+14
   -1.499808    4.06846  0.0000E+00  0.0000E+00  0.0000E+00  0.0000E+00  0.0000E+00  0.0000E+00
