 1 - depth, m
 2 - temperature, C
 3 - salinity, kg/kg
 4 - turbulent kinetic energy, m**2/s**2
 5 - dissipation rate, m**2/s**3
 6 - kinematic heat conductance, m**2/s
 7 - modulus of horizontal velocity, m/s
 8 - Richardson number, n/d
   -0.000000    0.00000  0.0000E+00  0.4096E-13  0.8590E-16  0.1000E-09  0.0000E+00  0.9897E+16
   -0.037499    0.15154  0.0000E+00  0.4096E-13  0.8590E-16  0.1000E-09  0.0000E+00  0.9407E+16
   -0.074999    0.30175  0.0000E+00  0.4096E-13  0.8590E-16  0.1000E-09  0.0000E+00  0.8924E+16
   -0.112499    0.45051  0.0000E+00  0.4096E-13  0.8590E-16  0.1000E-09  0.0000E+00  0.8448E+16
   -0.149999    0.59773  0.0000E+00  0.4096E-13  0.8590E-16  0.1000E-09  0.0000E+00  0.7981E+16
   -0.187499    0.74331  0.0000E+00  0.4096E-13  0.8590E-16  0.1000E-09  0.0000E+00  0.7523E+16
   -0.225000    0.88715  0.0000E+00  0.4096E-13  0.8590E-16  0.1000E-09  0.0000E+00  0.7076E+16
   -0.262501    1.02916  0.0000E+00  0.4096E-13  0.8590E-16  0.1000E-09  0.0000E+00  0.6629E+16
   -0.300003    1.16903  0.0000E+00  0.4096E-13  0.8590E-16  0.1000E-09  0.0000E+00  0.6193E+16
   -0.337504    1.30660  0.0000E+00  0.4096E-13  0.8590E-16  0.1000E-09  0.0000E+00  0.5771E+16
   -0.375006    1.44180  0.0000E+00  0.4096E-13  0.8590E-16  0.1000E-09  0.0000E+00  0.5395E+16
   -0.412508    1.57537  0.0000E+00  0.4096E-13  0.8590E-16  0.1000E-09  0.0000E+00  0.5050E+16
   -0.450010    1.70777  0.0000E+00  0.4096E-13  0.8590E-16  0.1000E-09  0.0000E+00  0.4713E+16
   -0.487512    1.83898  0.0000E+00  0.4096E-13  0.8590E-16  0.1000E-09  0.0000E+00  0.4384E+16
   -0.525015    1.96896  0.0000E+00  0.4096E-13  0.8590E-16  0.1000E-09  0.0000E+00  0.4059E+16
   -0.562517    2.09754  0.0000E+00  0.1155E-12  0.8590E-16  0.1000E-09  0.0000E+00  0.3743E+16
   -0.600020    2.22469  0.0000E+00  0.3556E-12  0.1093E-15  0.1000E-09  0.0000E+00  0.3438E+16
   -0.637523    2.35041  0.0000E+00  0.8098E-12  0.1937E-15  0.1000E-09  0.0000E+00  0.3142E+16
   -0.675025    2.47470  0.0000E+00  0.1645E-11  0.3626E-15  0.1000E-09  0.0000E+00  0.2856E+16
   -0.712528    2.59755  0.0000E+00  0.3193E-11  0.6783E-15  0.1000E-09  0.0000E+00  0.2580E+16
   -0.750031    2.71897  0.0000E+00  0.6078E-11  0.1259E-14  0.1000E-09  0.0000E+00  0.2343E+16
   -0.787534    2.84059  0.0000E+00  0.1145E-10  0.2321E-14  0.1000E-09  0.0000E+00  0.2117E+16
   -0.825036    2.96305  0.0000E+00  0.2140E-10  0.4254E-14  0.1000E-09  0.0000E+00  0.1888E+16
   -0.862539    3.08651  0.0000E+00  0.3979E-10  0.7752E-14  0.1000E-09  0.0000E+00  0.1657E+16
   -0.900042    3.21112  0.0000E+00  0.7357E-10  0.1406E-13  0.1000E-09  0.0000E+00  0.1420E+16
   -0.937544    3.33699  0.0000E+00  0.1353E-09  0.2536E-13  0.1000E-09  0.0000E+00  0.1178E+16
   -0.975047    3.46423  0.0000E+00  0.2477E-09  0.4554E-13  0.1360E-09  0.0000E+00  0.9291E+15
   -1.012549    3.59285  0.0000E+00  0.4520E-09  0.8153E-13  0.3363E-09  0.0000E+00  0.6723E+15
   -1.050051    3.72283  0.0000E+00  0.8232E-09  0.1457E-12  0.9914E-09  0.0000E+00  0.4075E+15
   -1.087554    3.85379  0.0000E+00  0.1491E-08  0.2592E-12  0.5208E-08  0.0000E+00  0.1376E+15
   -1.125056    3.98252  0.0000E+00  0.2253E-08  0.3913E-12  0.1915E-05  0.0000E+00 -0.1223E+12
   -1.162557    3.99192  0.0000E+00  0.2822E-08  0.5187E-12  0.4686E-05  0.0000E+00 -0.4702E+12
   -1.200059    3.99587  0.0000E+00  0.3282E-08  0.6470E-12  0.5696E-05  0.0000E+00 -0.5779E+12
   -1.237560    3.99916  0.0000E+00  0.3674E-08  0.7894E-12  0.6091E-05  0.0000E+00 -0.7012E+12
   -1.275061    4.00227  0.0000E+00  0.3998E-08  0.9583E-12  0.6006E-05  0.0000E+00 -0.8770E+12
   -1.312562    4.00546  0.0000E+00  0.4243E-08  0.1174E-11  0.5471E-05  0.0000E+00 -0.1163E+13
   -1.350063    4.00900  0.0000E+00  0.4376E-08  0.1476E-11  0.4505E-05  0.0000E+00 -0.1704E+13
   -1.387563    4.01338  0.0000E+00  0.4328E-08  0.1964E-11  0.3147E-05  0.0000E+00 -0.3003E+13
   -1.425063    4.01972  0.0000E+00  0.3944E-08  0.2975E-11  0.1573E-05  0.0000E+00 -0.7844E+13
   -1.462562    4.03233  0.0000E+00  0.2949E-08  0.6146E-11  0.3459E-06  0.0000E+00 -0.5088E+14
   -1.500062    4.07915  0.0000E+00  0.0000E+00  0.0000E+00  0.0000E+00  0.0000E+00  0.0000E+00
