 1 - depth, m
 2 - temperature, C
 3 - salinity, kg/kg
 4 - turbulent kinetic energy, m**2/s**2
 5 - dissipation rate, m**2/s**3
 6 - kinematic heat conductance, m**2/s
 7 - modulus of horizontal velocity, m/s
 8 - Richardson number, n/d
   -0.000000    0.00000  0.0000E+00  0.4096E-13  0.8591E-16  0.1000E-09  0.5207E-76  0.1344E+17
   -0.037493    0.20742  0.0000E+00  0.4096E-13  0.8591E-16  0.1000E-09  0.2915E-76  0.1033E+17
   -0.074986    0.37540  0.0000E+00  0.4096E-13  0.8591E-16  0.1000E-09  0.1609E-76  0.7909E+16
   -0.112480    0.50991  0.0000E+00  0.4096E-13  0.8591E-16  0.1000E-09  0.8756E-77  0.6051E+16
   -0.149974    0.61669  0.0000E+00  0.4096E-13  0.8591E-16  0.1000E-09  0.4690E-77  0.4642E+16
   -0.187469    0.70112  0.0000E+00  0.4096E-13  0.8591E-16  0.1000E-09  0.2464E-77  0.3593E+16
   -0.224963    0.76812  0.0000E+00  0.4096E-13  0.8591E-16  0.1000E-09  0.1251E-77  0.2835E+16
   -0.262458    0.82205  0.0000E+00  0.4096E-13  0.8591E-16  0.1000E-09  0.5738E-78  0.2219E+16
   -0.299953    0.86497  0.0000E+00  0.4096E-13  0.8591E-16  0.1000E-09  0.2550E-78  0.1775E+16
   -0.337449    0.89977  0.0000E+00  0.4096E-13  0.8591E-16  0.1000E-09  0.1115E-78  0.1484E+16
   -0.374944    0.92920  0.0000E+00  0.4096E-13  0.8591E-16  0.1000E-09  0.4795E-79  0.1414E+16
   -0.412440    0.95751  0.0000E+00  0.4096E-13  0.8591E-16  0.1000E-09  0.2026E-79  0.1495E+16
   -0.449936    0.98773  0.0000E+00  0.4096E-13  0.8591E-16  0.1000E-09  0.8370E-80  0.1642E+16
   -0.487432    1.02129  0.0000E+00  0.4096E-13  0.8591E-16  0.1000E-09  0.3290E-80  0.1822E+16
   -0.524928    1.05899  0.0000E+00  0.4096E-13  0.8591E-16  0.1000E-09  0.1158E-80  0.1950E+16
   -0.562424    1.09991  0.0000E+00  0.4096E-13  0.8591E-16  0.1000E-09  0.3996E-81  0.2113E+16
   -0.599921    1.14492  0.0000E+00  0.4096E-13  0.8591E-16  0.1000E-09  0.1349E-81  0.2301E+16
   -0.637417    1.19480  0.0000E+00  0.4096E-13  0.8591E-16  0.1000E-09  0.4458E-82  0.2508E+16
   -0.674914    1.25026  0.0000E+00  0.4096E-13  0.8591E-16  0.1000E-09  0.1441E-82  0.2727E+16
   -0.712410    1.31191  0.0000E+00  0.4096E-13  0.8591E-16  0.1000E-09  0.4551E-83  0.2951E+16
   -0.749907    1.38035  0.0000E+00  0.4096E-13  0.8591E-16  0.1000E-09  0.1404E-83  0.3358E+16
   -0.787404    1.46059  0.0000E+00  0.4096E-13  0.8591E-16  0.1000E-09  0.4228E-84  0.3798E+16
   -0.824900    1.55467  0.0000E+00  0.4779E-13  0.8591E-16  0.1000E-09  0.1242E-84  0.4192E+16
   -0.862397    1.66310  0.0000E+00  0.1501E-12  0.1265E-15  0.1000E-09  0.3556E-85  0.4528E+16
   -0.899893    1.78645  0.0000E+00  0.4634E-12  0.3037E-15  0.1000E-09  0.9915E-86  0.4793E+16
   -0.937390    1.92537  0.0000E+00  0.1372E-11  0.8489E-15  0.1000E-09  0.2688E-86  0.4973E+16
   -0.974886    2.08057  0.0000E+00  0.3947E-11  0.2369E-14  0.1000E-09  0.7003E-87  0.5051E+16
   -1.012382    2.25289  0.0000E+00  0.1121E-10  0.6548E-14  0.1000E-09  0.1456E-87  0.4944E+16
   -1.049878    2.44066  0.0000E+00  0.3157E-10  0.1796E-13  0.1000E-09  0.2808E-88  0.4708E+16
   -1.087374    2.64435  0.0000E+00  0.8796E-10  0.4876E-13  0.1000E-09  0.5185E-89  0.4334E+16
   -1.124870    2.86491  0.0000E+00  0.2426E-09  0.1311E-12  0.1226E-09  0.9141E-90  0.3900E+16
   -1.162365    3.11046  0.0000E+00  0.6623E-09  0.3490E-12  0.3333E-09  0.1534E-90  0.3190E+16
   -1.199861    3.38202  0.0000E+00  0.1789E-08  0.9201E-12  0.1420E-08  0.2439E-91  0.2141E+16
   -1.237356    3.67752  0.0000E+00  0.4717E-08  0.2373E-11  0.1856E-07  0.3444E-92  0.7913E+15
   -1.274851    3.97089  0.0000E+00  0.8684E-08  0.4454E-11  0.5137E-05  0.3530E-93  0.3694E+14
   -1.312345    4.03222  0.0000E+00  0.1131E-07  0.6247E-11  0.7871E-05  0.2819E-94 -0.4676E+13
   -1.349840    4.03879  0.0000E+00  0.1265E-07  0.7889E-11  0.7457E-05  0.7259E-95 -0.5880E+13
   -1.387334    4.04588  0.0000E+00  0.1330E-07  0.1026E-10  0.5975E-05  0.1755E-95 -0.8822E+13
   -1.424828    4.05503  0.0000E+00  0.1293E-07  0.1492E-10  0.3522E-05  0.3558E-96 -0.1886E+14
   -1.462321    4.07116  0.0000E+00  0.1041E-07  0.3092E-10  0.8978E-06  0.5285E-97 -0.1075E+15
   -1.499814    4.13132  0.0000E+00  0.0000E+00  0.0000E+00  0.0000E+00  0.7187E-97  0.0000E+00
