 1 - depth, m
 2 - temperature, C
 3 - salinity, kg/kg
 4 - turbulent kinetic energy, m**2/s**2
 5 - dissipation rate, m**2/s**3
 6 - kinematic heat conductance, m**2/s
 7 - modulus of horizontal velocity, m/s
 8 - Richardson number, n/d
   -0.000000    0.00000  0.0000E+00  0.4096E-13  0.8590E-16  0.1000E-09  0.0000E+00  0.1021E+17
   -0.037499    0.15647  0.0000E+00  0.4096E-13  0.8590E-16  0.1000E-09  0.0000E+00  0.9663E+16
   -0.074999    0.31106  0.0000E+00  0.4096E-13  0.8590E-16  0.1000E-09  0.0000E+00  0.9118E+16
   -0.112499    0.46357  0.0000E+00  0.4096E-13  0.8590E-16  0.1000E-09  0.0000E+00  0.8581E+16
   -0.150000    0.61377  0.0000E+00  0.4096E-13  0.8590E-16  0.1000E-09  0.0000E+00  0.8052E+16
   -0.187501    0.76146  0.0000E+00  0.4096E-13  0.8590E-16  0.1000E-09  0.0000E+00  0.7535E+16
   -0.225002    0.90644  0.0000E+00  0.4096E-13  0.8590E-16  0.1000E-09  0.0000E+00  0.7032E+16
   -0.262503    1.04853  0.0000E+00  0.4096E-13  0.8590E-16  0.1000E-09  0.0000E+00  0.6528E+16
   -0.300005    1.18721  0.0000E+00  0.4096E-13  0.8590E-16  0.1000E-09  0.0000E+00  0.6039E+16
   -0.337506    1.32225  0.0000E+00  0.4096E-13  0.8590E-16  0.1000E-09  0.0000E+00  0.5570E+16
   -0.375008    1.45347  0.0000E+00  0.4096E-13  0.8590E-16  0.1000E-09  0.0000E+00  0.5171E+16
   -0.412510    1.58197  0.0000E+00  0.4096E-13  0.8590E-16  0.1000E-09  0.0000E+00  0.4816E+16
   -0.450013    1.70843  0.0000E+00  0.4096E-13  0.8590E-16  0.1000E-09  0.0000E+00  0.4473E+16
   -0.487515    1.83279  0.0000E+00  0.4096E-13  0.8590E-16  0.1000E-09  0.0000E+00  0.4142E+16
   -0.525018    1.95498  0.0000E+00  0.4096E-13  0.8590E-16  0.1000E-09  0.0000E+00  0.3817E+16
   -0.562521    2.07472  0.0000E+00  0.4096E-13  0.8590E-16  0.1000E-09  0.0000E+00  0.3506E+16
   -0.600024    2.19197  0.0000E+00  0.4096E-13  0.8590E-16  0.1000E-09  0.0000E+00  0.3209E+16
   -0.637526    2.30669  0.0000E+00  0.4096E-13  0.8590E-16  0.1000E-09  0.0000E+00  0.2927E+16
   -0.675029    2.41883  0.0000E+00  0.4096E-13  0.8590E-16  0.1000E-09  0.0000E+00  0.2659E+16
   -0.712532    2.52836  0.0000E+00  0.4096E-13  0.8590E-16  0.1000E-09  0.0000E+00  0.2405E+16
   -0.750035    2.63523  0.0000E+00  0.1751E-12  0.9009E-16  0.1000E-09  0.0000E+00  0.2199E+16
   -0.787538    2.74115  0.0000E+00  0.4851E-12  0.1787E-15  0.1000E-09  0.0000E+00  0.2011E+16
   -0.825041    2.84677  0.0000E+00  0.1145E-11  0.3872E-15  0.1000E-09  0.0000E+00  0.1827E+16
   -0.862544    2.95222  0.0000E+00  0.2565E-11  0.8356E-15  0.1000E-09  0.0000E+00  0.1646E+16
   -0.900047    3.05766  0.0000E+00  0.5627E-11  0.1784E-14  0.1000E-09  0.0000E+00  0.1469E+16
   -0.937550    3.16322  0.0000E+00  0.1220E-10  0.3775E-14  0.1000E-09  0.0000E+00  0.1293E+16
   -0.975053    3.26910  0.0000E+00  0.2622E-10  0.7922E-14  0.1000E-09  0.0000E+00  0.1118E+16
   -1.012555    3.37548  0.0000E+00  0.5603E-10  0.1653E-13  0.1000E-09  0.0000E+00  0.9423E+15
   -1.050058    3.48246  0.0000E+00  0.1192E-09  0.3437E-13  0.1244E-09  0.0000E+00  0.7650E+15
   -1.087560    3.59022  0.0000E+00  0.2520E-09  0.7103E-13  0.3360E-09  0.0000E+00  0.5850E+15
   -1.125062    3.69892  0.0000E+00  0.5292E-09  0.1458E-12  0.9992E-09  0.0000E+00  0.4037E+15
   -1.162564    3.80958  0.0000E+00  0.1102E-08  0.2973E-12  0.3879E-08  0.0000E+00  0.2117E+15
   -1.200066    3.92113  0.0000E+00  0.2229E-08  0.5903E-12  0.5408E-07  0.0000E+00  0.3021E+14
   -1.237568    4.00700  0.0000E+00  0.3384E-08  0.9039E-12  0.5052E-05  0.0000E+00 -0.1138E+13
   -1.275069    4.01026  0.0000E+00  0.3936E-08  0.1113E-11  0.5358E-05  0.0000E+00 -0.1258E+13
   -1.312570    4.01341  0.0000E+00  0.4325E-08  0.1353E-11  0.5142E-05  0.0000E+00 -0.1517E+13
   -1.350071    4.01678  0.0000E+00  0.4543E-08  0.1669E-11  0.4416E-05  0.0000E+00 -0.2051E+13
   -1.387571    4.02081  0.0000E+00  0.4534E-08  0.2164E-11  0.3197E-05  0.0000E+00 -0.3359E+13
   -1.425072    4.02655  0.0000E+00  0.4140E-08  0.3179E-11  0.1639E-05  0.0000E+00 -0.8185E+13
   -1.462571    4.03793  0.0000E+00  0.3060E-08  0.6420E-11  0.3537E-06  0.0000E+00 -0.5118E+14
   -1.500071    4.08226  0.0000E+00  0.0000E+00  0.0000E+00  0.0000E+00  0.0000E+00  0.0000E+00
