 1 - depth, m
 2 - temperature, C
 3 - salinity, kg/kg
 4 - turbulent kinetic energy, m**2/s**2
 5 - dissipation rate, m**2/s**3
 6 - kinematic heat conductance, m**2/s
 7 - modulus of horizontal velocity, m/s
 8 - Richardson number, n/d
   -0.000000    0.00000  0.0000E+00  0.5455E-09  0.7261E-12  0.1000E-09  0.0000E+00  0.3301E+17
   -0.037497    0.53303  0.0000E+00  0.1916E-08  0.6362E-12  0.1000E-09  0.0000E+00  0.2761E+17
   -0.074994    1.05739  0.0000E+00  0.4511E-08  0.9179E-12  0.1124E-09  0.0000E+00  0.2267E+17
   -0.112492    1.57658  0.0000E+00  0.8886E-08  0.1535E-11  0.2365E-09  0.0000E+00  0.1803E+17
   -0.149990    2.09328  0.0000E+00  0.1624E-07  0.2634E-11  0.5392E-09  0.0000E+00  0.1357E+17
   -0.187488    2.60945  0.0000E+00  0.2870E-07  0.4508E-11  0.1362E-08  0.0000E+00  0.9207E+16
   -0.224987    3.12535  0.0000E+00  0.4982E-07  0.7663E-11  0.4376E-08  0.0000E+00  0.4888E+16
   -0.262486    3.63487  0.0000E+00  0.8434E-07  0.1277E-10  0.3907E-07  0.0000E+00  0.9428E+15
   -0.299985    4.05110  0.0000E+00  0.8539E-07  0.1294E-10  0.1844E-03  0.0000E+00 -0.4125E+12
   -0.337484    4.05150  0.0000E+00  0.8586E-07  0.1303E-10  0.1813E-03  0.0000E+00 -0.4119E+12
   -0.374984    4.05190  0.0000E+00  0.8629E-07  0.1312E-10  0.1817E-03  0.0000E+00 -0.4089E+12
   -0.412483    4.05230  0.0000E+00  0.8666E-07  0.1323E-10  0.1819E-03  0.0000E+00 -0.4063E+12
   -0.449983    4.05269  0.0000E+00  0.8697E-07  0.1334E-10  0.1818E-03  0.0000E+00 -0.4050E+12
   -0.487483    4.05308  0.0000E+00  0.8724E-07  0.1346E-10  0.1815E-03  0.0000E+00 -0.4044E+12
   -0.524983    4.05347  0.0000E+00  0.8746E-07  0.1359E-10  0.1808E-03  0.0000E+00 -0.4051E+12
   -0.562484    4.05386  0.0000E+00  0.8763E-07  0.1372E-10  0.1798E-03  0.0000E+00 -0.4065E+12
   -0.599984    4.05424  0.0000E+00  0.8775E-07  0.1387E-10  0.1785E-03  0.0000E+00 -0.4093E+12
   -0.637484    4.05463  0.0000E+00  0.8782E-07  0.1404E-10  0.1769E-03  0.0000E+00 -0.4128E+12
   -0.674985    4.05501  0.0000E+00  0.8784E-07  0.1422E-10  0.1750E-03  0.0000E+00 -0.4178E+12
   -0.712485    4.05540  0.0000E+00  0.8781E-07  0.1441E-10  0.1727E-03  0.0000E+00 -0.4236E+12
   -0.749986    4.05579  0.0000E+00  0.8774E-07  0.1462E-10  0.1702E-03  0.0000E+00 -0.4308E+12
   -0.787487    4.05619  0.0000E+00  0.8761E-07  0.1486E-10  0.1673E-03  0.0000E+00 -0.4389E+12
   -0.824987    4.05659  0.0000E+00  0.8742E-07  0.1512E-10  0.1640E-03  0.0000E+00 -0.4488E+12
   -0.862488    4.05700  0.0000E+00  0.8719E-07  0.1540E-10  0.1605E-03  0.0000E+00 -0.4601E+12
   -0.899988    4.05741  0.0000E+00  0.8689E-07  0.1572E-10  0.1565E-03  0.0000E+00 -0.4736E+12
   -0.937488    4.05784  0.0000E+00  0.8653E-07  0.1608E-10  0.1522E-03  0.0000E+00 -0.4888E+12
   -0.974989    4.05827  0.0000E+00  0.8611E-07  0.1648E-10  0.1476E-03  0.0000E+00 -0.5069E+12
   -1.012489    4.05872  0.0000E+00  0.8561E-07  0.1693E-10  0.1425E-03  0.0000E+00 -0.5276E+12
   -1.049989    4.05919  0.0000E+00  0.8504E-07  0.1745E-10  0.1370E-03  0.0000E+00 -0.5525E+12
   -1.087489    4.05967  0.0000E+00  0.8438E-07  0.1805E-10  0.1311E-03  0.0000E+00 -0.5815E+12
   -1.124988    4.06018  0.0000E+00  0.8361E-07  0.1875E-10  0.1246E-03  0.0000E+00 -0.6160E+12
   -1.162488    4.06071  0.0000E+00  0.8273E-07  0.1959E-10  0.1176E-03  0.0000E+00 -0.6572E+12
   -1.199987    4.06127  0.0000E+00  0.8173E-07  0.2059E-10  0.1101E-03  0.0000E+00 -0.7081E+12
   -1.237486    4.06187  0.0000E+00  0.8057E-07  0.2181E-10  0.1020E-03  0.0000E+00 -0.7716E+12
   -1.274985    4.06253  0.0000E+00  0.7921E-07  0.2337E-10  0.9298E-04  0.0000E+00 -0.8554E+12
   -1.312484    4.06324  0.0000E+00  0.7756E-07  0.2545E-10  0.8343E-04  0.0000E+00 -0.9649E+12
   -1.349982    4.06404  0.0000E+00  0.7527E-07  0.2871E-10  0.7156E-04  0.0000E+00 -0.1140E+13
   -1.387480    4.06497  0.0000E+00  0.7134E-07  0.3529E-10  0.3425E-04  0.0000E+00 -0.2436E+13
   -1.424978    4.06693  0.0000E+00  0.6373E-07  0.5162E-10  0.1521E-04  0.0000E+00 -0.5726E+13
   -1.462475    4.07136  0.0000E+00  0.3986E-07  0.1362E-09  0.1774E-05  0.0000E+00 -0.5777E+14
   -1.499972    4.10725  0.0000E+00  0.0000E+00  0.0000E+00  0.0000E+00  0.0000E+00  0.0000E+00
