 1 - depth, m
 2 - temperature, C
 3 - salinity, kg/kg
 4 - turbulent kinetic energy, m**2/s**2
 5 - dissipation rate, m**2/s**3
 6 - kinematic heat conductance, m**2/s
 7 - modulus of horizontal velocity, m/s
 8 - Richardson number, n/d
   -0.000000    0.00000  0.0000E+00  0.3856E-10  0.2537E-13  0.1000E-09  0.0000E+00  0.2528E+17
   -0.037502    0.40072  0.0000E+00  0.8609E-10  0.2058E-13  0.1000E-09  0.0000E+00  0.2173E+17
   -0.075004    0.78758  0.0000E+00  0.1725E-09  0.2425E-13  0.1000E-09  0.0000E+00  0.1851E+17
   -0.112507    1.16116  0.0000E+00  0.3046E-09  0.3382E-13  0.1000E-09  0.0000E+00  0.1560E+17
   -0.150010    1.52203  0.0000E+00  0.5003E-09  0.4995E-13  0.1000E-09  0.0000E+00  0.1298E+17
   -0.187513    1.87066  0.0000E+00  0.7900E-09  0.7481E-13  0.1000E-09  0.0000E+00  0.1060E+17
   -0.225017    2.20739  0.0000E+00  0.1220E-08  0.1122E-12  0.1000E-09  0.0000E+00  0.8445E+16
   -0.262520    2.53239  0.0000E+00  0.1863E-08  0.1678E-12  0.1000E-09  0.0000E+00  0.6497E+16
   -0.300024    2.84552  0.0000E+00  0.2824E-08  0.2505E-12  0.1474E-09  0.0000E+00  0.4735E+16
   -0.337529    3.14586  0.0000E+00  0.4263E-08  0.3733E-12  0.3285E-09  0.0000E+00  0.3154E+16
   -0.375033    3.43142  0.0000E+00  0.6415E-08  0.5553E-12  0.8698E-09  0.0000E+00  0.1770E+16
   -0.412538    3.69907  0.0000E+00  0.9622E-08  0.8239E-12  0.3861E-08  0.0000E+00  0.6112E+15
   -0.450042    3.94051  0.0000E+00  0.1165E-07  0.1005E-11  0.1732E-04  0.0000E+00  0.4697E+14
   -0.487547    3.99511  0.0000E+00  0.1200E-07  0.1039E-11  0.4225E-04  0.0000E+00 -0.8861E+11
   -0.525053    3.99596  0.0000E+00  0.1224E-07  0.1066E-11  0.4563E-04  0.0000E+00 -0.9388E+11
   -0.562558    3.99671  0.0000E+00  0.1247E-07  0.1095E-11  0.4844E-04  0.0000E+00 -0.9715E+11
   -0.600063    3.99738  0.0000E+00  0.1268E-07  0.1125E-11  0.5054E-04  0.0000E+00 -0.1003E+12
   -0.637568    3.99802  0.0000E+00  0.1288E-07  0.1157E-11  0.5177E-04  0.0000E+00 -0.1043E+12
   -0.675074    3.99862  0.0000E+00  0.1307E-07  0.1190E-11  0.5211E-04  0.0000E+00 -0.1099E+12
   -0.712579    3.99923  0.0000E+00  0.1326E-07  0.1225E-11  0.5220E-04  0.0000E+00 -0.1160E+12
   -0.750085    3.99983  0.0000E+00  0.1343E-07  0.1264E-11  0.5203E-04  0.0000E+00 -0.1227E+12
   -0.787590    4.00044  0.0000E+00  0.1360E-07  0.1305E-11  0.5169E-04  0.0000E+00 -0.1300E+12
   -0.825096    4.00105  0.0000E+00  0.1376E-07  0.1350E-11  0.5122E-04  0.0000E+00 -0.1379E+12
   -0.862601    4.00167  0.0000E+00  0.1391E-07  0.1399E-11  0.5062E-04  0.0000E+00 -0.1464E+12
   -0.900107    4.00229  0.0000E+00  0.1405E-07  0.1451E-11  0.4986E-04  0.0000E+00 -0.1558E+12
   -0.937612    4.00293  0.0000E+00  0.1417E-07  0.1508E-11  0.4896E-04  0.0000E+00 -0.1662E+12
   -0.975117    4.00358  0.0000E+00  0.1428E-07  0.1571E-11  0.4790E-04  0.0000E+00 -0.1778E+12
   -1.012622    4.00425  0.0000E+00  0.1437E-07  0.1639E-11  0.4668E-04  0.0000E+00 -0.1910E+12
   -1.050127    4.00494  0.0000E+00  0.1445E-07  0.1716E-11  0.4525E-04  0.0000E+00 -0.2062E+12
   -1.087632    4.00565  0.0000E+00  0.1450E-07  0.1802E-11  0.4363E-04  0.0000E+00 -0.2240E+12
   -1.125137    4.00640  0.0000E+00  0.1452E-07  0.1900E-11  0.4176E-04  0.0000E+00 -0.2445E+12
   -1.162641    4.00718  0.0000E+00  0.1452E-07  0.2012E-11  0.3965E-04  0.0000E+00 -0.2693E+12
   -1.200145    4.00800  0.0000E+00  0.1448E-07  0.2144E-11  0.3726E-04  0.0000E+00 -0.3000E+12
   -1.237649    4.00888  0.0000E+00  0.1439E-07  0.2301E-11  0.3459E-04  0.0000E+00 -0.3388E+12
   -1.275153    4.00984  0.0000E+00  0.1423E-07  0.2514E-11  0.3083E-04  0.0000E+00 -0.4005E+12
   -1.312657    4.01092  0.0000E+00  0.1393E-07  0.2846E-11  0.2343E-04  0.0000E+00 -0.5611E+12
   -1.350160    4.01237  0.0000E+00  0.1343E-07  0.3383E-11  0.1625E-04  0.0000E+00 -0.8703E+12
   -1.387663    4.01445  0.0000E+00  0.1256E-07  0.4342E-11  0.1006E-04  0.0000E+00 -0.1560E+13
   -1.425165    4.01783  0.0000E+00  0.1089E-07  0.6561E-11  0.4386E-05  0.0000E+00 -0.4252E+13
   -1.462668    4.02556  0.0000E+00  0.6972E-08  0.1558E-10  0.6183E-06  0.0000E+00 -0.4557E+14
   -1.500170    4.07215  0.0000E+00  0.0000E+00  0.0000E+00  0.0000E+00  0.0000E+00  0.0000E+00
