 1 - depth, m
 2 - temperature, C
 3 - salinity, kg/kg
 4 - turbulent kinetic energy, m**2/s**2
 5 - dissipation rate, m**2/s**3
 6 - kinematic heat conductance, m**2/s
 7 - modulus of horizontal velocity, m/s
 8 - Richardson number, n/d
   -0.000000   16.51586  0.0000E+00  0.3259E-04  0.4694E-05  0.2707E-04  0.3987E-01 -0.5542E-01
   -0.037499   16.55582  0.0000E+00  0.2340E-04  0.1408E-05  0.4992E-04  0.2120E-01 -0.4145E-01
   -0.074998   16.56858  0.0000E+00  0.1988E-04  0.6888E-06  0.7338E-04  0.1636E-01 -0.6729E-01
   -0.112497   16.57692  0.0000E+00  0.1766E-04  0.4093E-06  0.9850E-04  0.1339E-01 -0.9672E-01
   -0.149997   16.58307  0.0000E+00  0.1611E-04  0.2732E-06  0.1355E-03  0.1128E-01  0.1075E+02
   -0.187497   16.58766  0.0000E+00  0.1497E-04  0.1974E-06  0.2023E-03  0.9725E-02  0.5688E+02
   -0.224998   16.59101  0.0000E+00  0.1413E-04  0.1516E-06  0.3006E-03  0.8534E-02  0.1629E+04
   -0.262498   16.59330  0.0000E+00  0.1352E-04  0.1222E-06  0.3980E-03  0.7600E-02  0.1015E+03
   -0.299999   16.59488  0.0000E+00  0.1307E-04  0.1018E-06  0.4562E-03  0.6826E-02  0.6761E+02
   -0.337500   16.59611  0.0000E+00  0.1271E-04  0.8654E-07  0.4787E-03  0.6144E-02  0.1511E+02
   -0.375002   16.59724  0.0000E+00  0.1240E-04  0.7463E-07  0.4998E-03  0.5521E-02  0.8596E+01
   -0.412503   16.59830  0.0000E+00  0.1213E-04  0.6509E-07  0.5195E-03  0.4954E-02  0.7136E+01
   -0.450005   16.59930  0.0000E+00  0.1189E-04  0.5729E-07  0.5404E-03  0.4434E-02  0.6530E+01
   -0.487507   16.60025  0.0000E+00  0.1165E-04  0.5077E-07  0.5620E-03  0.3952E-02  0.6065E+01
   -0.525009   16.60115  0.0000E+00  0.1141E-04  0.4523E-07  0.5856E-03  0.3505E-02  0.5365E+01
   -0.562511   16.60200  0.0000E+00  0.1117E-04  0.4045E-07  0.6108E-03  0.3094E-02  0.4901E+01
   -0.600013   16.60280  0.0000E+00  0.1090E-04  0.3625E-07  0.6337E-03  0.2715E-02  0.4599E+01
   -0.637515   16.60357  0.0000E+00  0.1062E-04  0.3253E-07  0.6632E-03  0.2359E-02  0.4559E+01
   -0.675017   16.60429  0.0000E+00  0.1029E-04  0.2901E-07  0.6986E-03  0.2038E-02  0.4517E+01
   -0.712520   16.60497  0.0000E+00  0.1005E-04  0.2701E-07  0.1115E-02  0.1697E-02  0.2173E+01
   -0.750022   16.60539  0.0000E+00  0.9893E-05  0.2581E-07  0.1115E-02  0.1574E-02  0.2135E+01
   -0.787524   16.60581  0.0000E+00  0.9730E-05  0.2478E-07  0.1090E-02  0.1462E-02  0.1551E+01
   -0.825027   16.60624  0.0000E+00  0.9583E-05  0.2400E-07  0.1187E-02  0.1351E-02  0.1815E+01
   -0.862529   16.60662  0.0000E+00  0.9392E-05  0.2320E-07  0.7168E-03  0.1274E-02  0.2024E+01
   -0.900031   16.60725  0.0000E+00  0.9019E-05  0.2200E-07  0.7267E-03  0.1068E-02  0.2213E+01
   -0.937534   16.60787  0.0000E+00  0.8638E-05  0.2110E-07  0.6734E-03  0.9045E-03  0.1987E+01
   -0.975036   16.60854  0.0000E+00  0.8425E-05  0.2074E-07  0.1100E-02  0.7403E-03  0.1447E+01
   -1.012538   16.60894  0.0000E+00  0.8291E-05  0.2062E-07  0.9860E-03  0.6895E-03  0.1505E+01
   -1.050039   16.60939  0.0000E+00  0.8101E-05  0.2059E-07  0.7559E-03  0.6519E-03  0.1356E+01
   -1.087541   16.60997  0.0000E+00  0.7743E-05  0.2077E-07  0.7731E-03  0.5496E-03  0.1313E+01
   -1.125043   16.61053  0.0000E+00  0.7428E-05  0.2115E-07  0.7512E-03  0.4730E-03  0.1165E+01
   -1.162544   16.61111  0.0000E+00  0.7134E-05  0.2174E-07  0.6766E-03  0.4100E-03  0.1034E+01
   -1.200045   16.61175  0.0000E+00  0.6865E-05  0.2254E-07  0.6044E-03  0.3590E-03  0.9376E+00
   -1.237546   16.61246  0.0000E+00  0.6611E-05  0.2360E-07  0.5520E-03  0.3173E-03  0.9641E+00
   -1.275047   16.61324  0.0000E+00  0.6345E-05  0.2516E-07  0.4914E-03  0.2830E-03  0.5433E+01
   -1.312547   16.61414  0.0000E+00  0.6030E-05  0.2765E-07  0.4373E-03  0.2517E-03  0.2580E+02
   -1.350047   16.61515  0.0000E+00  0.5624E-05  0.3228E-07  0.3272E-03  0.2226E-03  0.1721E+04
   -1.387547   16.61674  0.0000E+00  0.5087E-05  0.4084E-07  0.2930E-03  0.1901E-03  0.1461E+04
   -1.425046   16.61816  0.0000E+00  0.4230E-05  0.6594E-07  0.1289E-03  0.1655E-03  0.4503E+05
   -1.462545   16.62575  0.0000E+00  0.2521E-05  0.1639E-06  0.4314E-04  0.1251E-03 -0.2155E+05
   -1.500044   16.63669  0.0000E+00  0.0000E+00  0.0000E+00  0.0000E+00  0.1393E-03  0.0000E+00
