 1 - depth, m
 2 - temperature, C
 3 - salinity, kg/kg
 4 - turbulent kinetic energy, m**2/s**2
 5 - dissipation rate, m**2/s**3
 6 - kinematic heat conductance, m**2/s
 7 - modulus of horizontal velocity, m/s
 8 - Richardson number, n/d
   -0.000000    0.00000  0.0000E+00  0.4992E-08  0.1162E-10  0.5328E-09  0.0000E+00  0.6042E+17
   -0.037495    1.05322  0.0000E+00  0.2674E-07  0.9625E-11  0.6562E-09  0.0000E+00  0.4074E+17
   -0.074989    2.08805  0.0000E+00  0.6710E-07  0.1371E-10  0.1686E-08  0.0000E+00  0.2261E+17
   -0.112485    3.10148  0.0000E+00  0.1334E-06  0.2276E-10  0.1032E-07  0.0000E+00  0.6162E+16
   -0.149980    4.04681  0.0000E+00  0.1348E-06  0.2298E-10  0.2543E-03  0.0000E+00 -0.5442E+12
   -0.187476    4.04737  0.0000E+00  0.1355E-06  0.2310E-10  0.2509E-03  0.0000E+00 -0.5260E+12
   -0.224972    4.04792  0.0000E+00  0.1360E-06  0.2323E-10  0.2516E-03  0.0000E+00 -0.5205E+12
   -0.262469    4.04846  0.0000E+00  0.1365E-06  0.2337E-10  0.2520E-03  0.0000E+00 -0.5159E+12
   -0.299965    4.04899  0.0000E+00  0.1370E-06  0.2352E-10  0.2521E-03  0.0000E+00 -0.5136E+12
   -0.337462    4.04951  0.0000E+00  0.1373E-06  0.2368E-10  0.2518E-03  0.0000E+00 -0.5114E+12
   -0.374959    4.05003  0.0000E+00  0.1376E-06  0.2385E-10  0.2512E-03  0.0000E+00 -0.5108E+12
   -0.412457    4.05054  0.0000E+00  0.1378E-06  0.2403E-10  0.2502E-03  0.0000E+00 -0.5100E+12
   -0.449954    4.05105  0.0000E+00  0.1380E-06  0.2423E-10  0.2489E-03  0.0000E+00 -0.5112E+12
   -0.487452    4.05156  0.0000E+00  0.1381E-06  0.2445E-10  0.2473E-03  0.0000E+00 -0.5128E+12
   -0.524949    4.05206  0.0000E+00  0.1382E-06  0.2469E-10  0.2453E-03  0.0000E+00 -0.5162E+12
   -0.562447    4.05256  0.0000E+00  0.1382E-06  0.2494E-10  0.2429E-03  0.0000E+00 -0.5201E+12
   -0.599945    4.05306  0.0000E+00  0.1381E-06  0.2522E-10  0.2402E-03  0.0000E+00 -0.5260E+12
   -0.637443    4.05357  0.0000E+00  0.1380E-06  0.2553E-10  0.2371E-03  0.0000E+00 -0.5325E+12
   -0.674941    4.05407  0.0000E+00  0.1378E-06  0.2586E-10  0.2336E-03  0.0000E+00 -0.5412E+12
   -0.712439    4.05458  0.0000E+00  0.1375E-06  0.2623E-10  0.2297E-03  0.0000E+00 -0.5507E+12
   -0.749937    4.05510  0.0000E+00  0.1372E-06  0.2664E-10  0.2255E-03  0.0000E+00 -0.5625E+12
   -0.787435    4.05562  0.0000E+00  0.1368E-06  0.2709E-10  0.2208E-03  0.0000E+00 -0.5752E+12
   -0.824934    4.05615  0.0000E+00  0.1363E-06  0.2758E-10  0.2157E-03  0.0000E+00 -0.5909E+12
   -0.862432    4.05669  0.0000E+00  0.1357E-06  0.2813E-10  0.2102E-03  0.0000E+00 -0.6080E+12
   -0.899930    4.05724  0.0000E+00  0.1351E-06  0.2875E-10  0.2043E-03  0.0000E+00 -0.6286E+12
   -0.937428    4.05781  0.0000E+00  0.1344E-06  0.2943E-10  0.1979E-03  0.0000E+00 -0.6514E+12
   -0.974925    4.05839  0.0000E+00  0.1336E-06  0.3020E-10  0.1911E-03  0.0000E+00 -0.6785E+12
   -1.012423    4.05899  0.0000E+00  0.1327E-06  0.3108E-10  0.1839E-03  0.0000E+00 -0.7091E+12
   -1.049921    4.05961  0.0000E+00  0.1317E-06  0.3209E-10  0.1760E-03  0.0000E+00 -0.7459E+12
   -1.087418    4.06026  0.0000E+00  0.1305E-06  0.3326E-10  0.1677E-03  0.0000E+00 -0.7884E+12
   -1.124915    4.06094  0.0000E+00  0.1292E-06  0.3464E-10  0.1587E-03  0.0000E+00 -0.8397E+12
   -1.162412    4.06166  0.0000E+00  0.1278E-06  0.3627E-10  0.1491E-03  0.0000E+00 -0.9007E+12
   -1.199909    4.06242  0.0000E+00  0.1261E-06  0.3824E-10  0.1389E-03  0.0000E+00 -0.9763E+12
   -1.237406    4.06324  0.0000E+00  0.1242E-06  0.4066E-10  0.1280E-03  0.0000E+00 -0.1070E+13
   -1.274902    4.06412  0.0000E+00  0.1220E-06  0.4375E-10  0.1161E-03  0.0000E+00 -0.1194E+13
   -1.312399    4.06510  0.0000E+00  0.1194E-06  0.4788E-10  0.1029E-03  0.0000E+00 -0.1364E+13
   -1.349894    4.06620  0.0000E+00  0.1162E-06  0.5369E-10  0.9021E-04  0.0000E+00 -0.1578E+13
   -1.387390    4.06746  0.0000E+00  0.1110E-06  0.6470E-10  0.4927E-04  0.0000E+00 -0.2954E+13
   -1.424885    4.06976  0.0000E+00  0.9991E-07  0.9485E-10  0.2009E-04  0.0000E+00 -0.7598E+13
   -1.462380    4.07540  0.0000E+00  0.6172E-07  0.2623E-09  0.2197E-05  0.0000E+00 -0.8710E+14
   -1.499875    4.12443  0.0000E+00  0.0000E+00  0.0000E+00  0.0000E+00  0.0000E+00  0.0000E+00
