 1 - depth, m
 2 - temperature, C
 3 - salinity, kg/kg
 4 - turbulent kinetic energy, m**2/s**2
 5 - dissipation rate, m**2/s**3
 6 - kinematic heat conductance, m**2/s
 7 - modulus of horizontal velocity, m/s
 8 - Richardson number, n/d
   -0.000000    0.00000  0.0000E+00  0.4096E-13  0.8591E-16  0.1000E-09  0.2194E-11  0.8184E+16
   -0.037497    0.12586  0.0000E+00  0.4096E-13  0.8591E-16  0.1000E-09  0.1228E-11  0.5205E+16
   -0.074995    0.20804  0.0000E+00  0.4096E-13  0.8591E-16  0.1000E-09  0.6779E-12  0.3256E+16
   -0.112493    0.26046  0.0000E+00  0.4096E-13  0.8591E-16  0.1000E-09  0.3688E-12  0.2053E+16
   -0.149991    0.29402  0.0000E+00  0.4096E-13  0.8591E-16  0.1000E-09  0.1975E-12  0.1370E+16
   -0.187489    0.31662  0.0000E+00  0.4096E-13  0.8591E-16  0.1000E-09  0.1038E-12  0.1032E+16
   -0.224988    0.33370  0.0000E+00  0.4096E-13  0.8591E-16  0.1000E-09  0.5267E-13  0.9165E+15
   -0.262487    0.34890  0.0000E+00  0.4096E-13  0.8591E-16  0.1000E-09  0.2416E-13  0.7929E+15
   -0.299986    0.36208  0.0000E+00  0.4096E-13  0.8591E-16  0.1000E-09  0.1074E-13  0.7429E+15
   -0.337486    0.37446  0.0000E+00  0.4096E-13  0.8591E-16  0.1000E-09  0.4696E-14  0.7691E+15
   -0.374986    0.38730  0.0000E+00  0.4096E-13  0.8591E-16  0.1000E-09  0.2019E-14  0.9116E+15
   -0.412486    0.40259  0.0000E+00  0.4096E-13  0.8591E-16  0.1000E-09  0.8531E-15  0.1130E+16
   -0.449986    0.42163  0.0000E+00  0.4096E-13  0.8591E-16  0.1000E-09  0.3525E-15  0.1375E+16
   -0.487486    0.44496  0.0000E+00  0.4096E-13  0.8591E-16  0.1000E-09  0.1386E-15  0.1606E+16
   -0.524986    0.47241  0.0000E+00  0.4096E-13  0.8591E-16  0.1000E-09  0.4880E-16  0.1675E+16
   -0.562487    0.50130  0.0000E+00  0.4096E-13  0.8591E-16  0.1000E-09  0.1683E-16  0.1778E+16
   -0.599987    0.53227  0.0000E+00  0.4096E-13  0.8591E-16  0.1000E-09  0.5686E-17  0.1923E+16
   -0.637488    0.56612  0.0000E+00  0.4096E-13  0.8591E-16  0.1000E-09  0.1879E-17  0.2118E+16
   -0.674989    0.60385  0.0000E+00  0.4096E-13  0.8591E-16  0.1000E-09  0.6074E-18  0.2371E+16
   -0.712489    0.64662  0.0000E+00  0.4096E-13  0.8591E-16  0.1000E-09  0.1919E-18  0.2681E+16
   -0.749990    0.69571  0.0000E+00  0.4096E-13  0.8591E-16  0.1000E-09  0.5922E-19  0.3263E+16
   -0.787491    0.75648  0.0000E+00  0.4096E-13  0.8591E-16  0.1000E-09  0.1784E-19  0.3937E+16
   -0.824992    0.83139  0.0000E+00  0.4096E-13  0.8591E-16  0.1000E-09  0.5243E-20  0.4597E+16
   -0.862492    0.92124  0.0000E+00  0.4096E-13  0.8591E-16  0.1000E-09  0.1502E-20  0.5209E+16
   -0.899993    1.02647  0.0000E+00  0.4096E-13  0.8591E-16  0.1000E-09  0.4188E-21  0.5741E+16
   -0.937494    1.14713  0.0000E+00  0.4096E-13  0.8591E-16  0.1000E-09  0.1136E-21  0.6162E+16
   -0.974994    1.28287  0.0000E+00  0.4096E-13  0.8591E-16  0.1000E-09  0.2959E-22  0.6451E+16
   -1.012494    1.43304  0.0000E+00  0.4829E-13  0.9030E-16  0.1000E-09  0.6152E-23  0.6329E+16
   -1.049995    1.58994  0.0000E+00  0.9229E-13  0.1379E-15  0.1000E-09  0.1187E-23  0.6070E+16
   -1.087495    1.75125  0.0000E+00  0.3017E-12  0.3726E-15  0.1000E-09  0.2191E-24  0.5757E+16
   -1.124995    1.91648  0.0000E+00  0.1193E-11  0.1385E-14  0.1000E-09  0.3862E-25  0.6032E+16
   -1.162494    2.10581  0.0000E+00  0.4822E-11  0.5435E-14  0.1000E-09  0.6480E-26  0.6203E+16
   -1.199994    2.32396  0.0000E+00  0.1942E-10  0.2143E-13  0.1000E-09  0.1030E-26  0.6132E+16
   -1.237493    2.57414  0.0000E+00  0.7741E-10  0.8386E-13  0.1089E-09  0.1454E-27  0.5749E+16
   -1.274992    2.86130  0.0000E+00  0.3094E-09  0.3298E-12  0.2487E-09  0.1491E-28  0.4907E+16
   -1.312491    3.19155  0.0000E+00  0.1230E-08  0.1294E-11  0.1804E-08  0.1386E-29  0.3452E+16
   -1.349990    3.57565  0.0000E+00  0.4069E-08  0.4435E-11  0.7122E-06  0.1154E-30  0.1572E+16
   -1.387488    3.89862  0.0000E+00  0.9248E-08  0.1163E-10  0.2616E-05  0.8471E-32  0.3539E+15
   -1.424986    4.06085  0.0000E+00  0.1368E-07  0.2354E-10  0.2749E-05  0.5364E-33 -0.4188E+14
   -1.462483    4.10846  0.0000E+00  0.1416E-07  0.5074E-10  0.1123E-05  0.3109E-34 -0.1716E+15
   -1.499980    4.17901  0.0000E+00  0.0000E+00  0.0000E+00  0.0000E+00  0.4431E-34  0.0000E+00
