 1 - depth, m
 2 - temperature, C
 3 - salinity, kg/kg
 4 - turbulent kinetic energy, m**2/s**2
 5 - dissipation rate, m**2/s**3
 6 - kinematic heat conductance, m**2/s
 7 - modulus of horizontal velocity, m/s
 8 - Richardson number, n/d
   -0.000000   12.87833  0.0000E+00  0.1605E-02  0.1813E-01  0.1789E-03  0.6738E+00  0.4375E-01
   -0.037493   13.01362  0.0000E+00  0.8381E-03  0.1061E-01  0.2599E-03  0.2325E+00 -0.6461E-01
   -0.074987   13.08645  0.0000E+00  0.5247E-03  0.2973E-02  0.4047E-03  0.1307E+00 -0.5062E-02
   -0.112481   13.11693  0.0000E+00  0.4120E-03  0.1933E-02  0.4538E-03  0.9425E-01  0.3897E+01
   -0.149975   13.12887  0.0000E+00  0.3409E-03  0.1331E-02  0.4649E-03  0.7592E-01  0.8082E-01
   -0.187469   13.13574  0.0000E+00  0.2895E-03  0.9222E-03  0.4701E-03  0.6463E-01  0.3577E+00
   -0.224964   13.14069  0.0000E+00  0.2517E-03  0.6544E-03  0.4615E-03  0.5726E-01  0.9425E-01
   -0.262459   13.14467  0.0000E+00  0.2192E-03  0.4590E-03  0.4732E-03  0.5096E-01 -0.2858E-01
   -0.299955   13.14754  0.0000E+00  0.1945E-03  0.3228E-03  0.4774E-03  0.4671E-01  0.2870E+01
   -0.337450   13.14994  0.0000E+00  0.1741E-03  0.2250E-03  0.4806E-03  0.4314E-01  0.5681E+00
   -0.374946   13.15231  0.0000E+00  0.1582E-03  0.1578E-03  0.4945E-03  0.3997E-01  0.8942E+00
   -0.412442   13.15451  0.0000E+00  0.1450E-03  0.1100E-03  0.5090E-03  0.3700E-01  0.1316E+01
   -0.449938   13.15795  0.0000E+00  0.1337E-03  0.7680E-04  0.5175E-03  0.3412E-01  0.9144E+00
   -0.487434   13.15961  0.0000E+00  0.1254E-03  0.5408E-04  0.4881E-03  0.3200E-01  0.7587E+00
   -0.524930   13.16560  0.0000E+00  0.1137E-03  0.3805E-04  0.5411E-03  0.2682E-01  0.3893E+01
   -0.562427   13.16704  0.0000E+00  0.1050E-03  0.2703E-04  0.5533E-03  0.2510E-01  0.1102E+03
   -0.599923   13.16859  0.0000E+00  0.9771E-04  0.1926E-04  0.5675E-03  0.2353E-01  0.1348E+02
   -0.637420   13.16994  0.0000E+00  0.9111E-04  0.1374E-04  0.5663E-03  0.2190E-01  0.8710E+02
   -0.674917   13.17293  0.0000E+00  0.8501E-04  0.9983E-05  0.5834E-03  0.2022E-01  0.2935E+02
   -0.712414   13.17504  0.0000E+00  0.7969E-04  0.7344E-05  0.6036E-03  0.1871E-01  0.1676E+03
   -0.749910   13.17650  0.0000E+00  0.7497E-04  0.5440E-05  0.6176E-03  0.1755E-01  0.1013E+02
   -0.787407   13.17746  0.0000E+00  0.7064E-04  0.4062E-05  0.6371E-03  0.1646E-01  0.3529E+02
   -0.824904   13.17887  0.0000E+00  0.6675E-04  0.3066E-05  0.6622E-03  0.1544E-01  0.1336E+03
   -0.862401   13.17960  0.0000E+00  0.6318E-04  0.2343E-05  0.6805E-03  0.1449E-01  0.2369E+02
   -0.899897   13.18109  0.0000E+00  0.5988E-04  0.1798E-05  0.7025E-03  0.1357E-01  0.3248E+02
   -0.937394   13.18177  0.0000E+00  0.5682E-04  0.1401E-05  0.7197E-03  0.1270E-01  0.3666E+02
   -0.974890   13.18314  0.0000E+00  0.5391E-04  0.1123E-05  0.7398E-03  0.1184E-01  0.8590E+03
   -1.012387   13.18403  0.0000E+00  0.5108E-04  0.9216E-06  0.7573E-03  0.1097E-01  0.7785E+02
   -1.049883   13.18522  0.0000E+00  0.4835E-04  0.7726E-06  0.7642E-03  0.1019E-01  0.3305E+02
   -1.087379   13.18617  0.0000E+00  0.4566E-04  0.6620E-06  0.7471E-03  0.9457E-02  0.7026E+02
   -1.124875   13.18724  0.0000E+00  0.4298E-04  0.5840E-06  0.7286E-03  0.8759E-02  0.6731E+02
   -1.162371   13.18833  0.0000E+00  0.4031E-04  0.5287E-06  0.6835E-03  0.8090E-02  0.1621E+02
   -1.199866   13.18947  0.0000E+00  0.3761E-04  0.4930E-06  0.6276E-03  0.7444E-02  0.5997E+02
   -1.237361   13.19073  0.0000E+00  0.3483E-04  0.4802E-06  0.5564E-03  0.6812E-02  0.1124E+04
   -1.274857   13.19213  0.0000E+00  0.3182E-04  0.4933E-06  0.4832E-03  0.6182E-02  0.6794E+02
   -1.312351   13.19372  0.0000E+00  0.2846E-04  0.5460E-06  0.4089E-03  0.5578E-02  0.9014E+03
   -1.349846   13.19558  0.0000E+00  0.2459E-04  0.6709E-06  0.3164E-03  0.4974E-02  0.6617E+02
   -1.387340   13.19805  0.0000E+00  0.1997E-04  0.9530E-06  0.2458E-03  0.4305E-02  0.7415E+03
   -1.424834   13.20132  0.0000E+00  0.1459E-04  0.1731E-05  0.1524E-03  0.3522E-02  0.6129E+06
   -1.462328   13.20785  0.0000E+00  0.9213E-05  0.3713E-05  0.8446E-04  0.2709E-02 -0.9201E+05
   -1.499821   13.22978  0.0000E+00  0.0000E+00  0.0000E+00  0.0000E+00  0.3451E-02  0.0000E+00
