 1 - depth, m
 2 - temperature, C
 3 - salinity, kg/kg
 4 - turbulent kinetic energy, m**2/s**2
 5 - dissipation rate, m**2/s**3
 6 - kinematic heat conductance, m**2/s
 7 - modulus of horizontal velocity, m/s
 8 - Richardson number, n/d
   -0.000000    0.70498  0.0000E+00  0.8575E-03  0.4076E-02  0.1478E-03  0.4093E+00 -0.9883E-02
   -0.037494    0.79649  0.0000E+00  0.4516E-03  0.1916E-02  0.2101E-03  0.1384E+00 -0.4332E-02
   -0.074989    0.84043  0.0000E+00  0.2965E-03  0.8020E-03  0.3020E-03  0.8103E-01  0.7172E-02
   -0.112484    0.85417  0.0000E+00  0.2362E-03  0.5317E-03  0.3100E-03  0.6357E-01  0.4828E-01
   -0.149980    0.86132  0.0000E+00  0.1969E-03  0.3611E-03  0.3158E-03  0.5353E-01  0.6470E-02
   -0.187476    0.86551  0.0000E+00  0.1692E-03  0.2445E-03  0.3201E-03  0.4720E-01  0.3091E-01
   -0.224972    0.86877  0.0000E+00  0.1476E-03  0.1635E-03  0.3289E-03  0.4211E-01  0.3960E-01
   -0.262468    0.87140  0.0000E+00  0.1304E-03  0.1067E-03  0.3350E-03  0.3814E-01  0.1119E-01
   -0.299965    0.87387  0.0000E+00  0.1164E-03  0.6853E-04  0.3437E-03  0.3467E-01  0.7462E-02
   -0.337462    0.87617  0.0000E+00  0.1045E-03  0.4376E-04  0.3558E-03  0.3146E-01  0.8578E-02
   -0.374959    0.87815  0.0000E+00  0.9504E-04  0.2826E-04  0.3653E-03  0.2894E-01  0.6303E-02
   -0.412456    0.88007  0.0000E+00  0.8722E-04  0.1816E-04  0.3735E-03  0.2668E-01  0.1986E-01
   -0.449953    0.88189  0.0000E+00  0.8055E-04  0.1105E-04  0.3816E-03  0.2463E-01  0.1590E-01
   -0.487451    0.88361  0.0000E+00  0.7476E-04  0.6456E-05  0.3880E-03  0.2271E-01  0.2119E-01
   -0.524948    0.88532  0.0000E+00  0.6963E-04  0.3995E-05  0.3981E-03  0.2088E-01  0.3434E-01
   -0.562446    0.88692  0.0000E+00  0.6516E-04  0.2731E-05  0.4043E-03  0.1932E-01  0.5354E-01
   -0.599944    0.88851  0.0000E+00  0.6115E-04  0.1940E-05  0.4088E-03  0.1791E-01  0.8121E-01
   -0.637442    0.88998  0.0000E+00  0.5748E-04  0.1463E-05  0.4153E-03  0.1661E-01  0.1265E+00
   -0.674940    0.89140  0.0000E+00  0.5413E-04  0.1141E-05  0.4193E-03  0.1544E-01  0.1933E+00
   -0.712438    0.89279  0.0000E+00  0.5107E-04  0.9171E-06  0.4219E-03  0.1435E-01  0.2789E+00
   -0.749936    0.89414  0.0000E+00  0.4824E-04  0.7553E-06  0.4226E-03  0.1334E-01  0.4393E+00
   -0.787434    0.89548  0.0000E+00  0.4558E-04  0.6341E-06  0.4230E-03  0.1239E-01  0.6251E+00
   -0.824932    0.89679  0.0000E+00  0.4311E-04  0.5421E-06  0.4218E-03  0.1150E-01  0.8919E+00
   -0.862430    0.89810  0.0000E+00  0.4077E-04  0.4699E-06  0.4193E-03  0.1067E-01  0.1228E+01
   -0.899928    0.89940  0.0000E+00  0.3858E-04  0.4121E-06  0.4152E-03  0.9873E-02  0.1726E+01
   -0.937426    0.90070  0.0000E+00  0.3648E-04  0.3648E-06  0.4078E-03  0.9119E-02  0.2378E+01
   -0.974924    0.90203  0.0000E+00  0.3447E-04  0.3252E-06  0.3994E-03  0.8398E-02  0.3273E+01
   -1.012421    0.90341  0.0000E+00  0.3253E-04  0.2917E-06  0.3919E-03  0.7702E-02  0.7456E+01
   -1.049919    0.90480  0.0000E+00  0.3065E-04  0.2630E-06  0.3826E-03  0.7056E-02  0.1891E+02
   -1.087416    0.90621  0.0000E+00  0.2882E-04  0.2383E-06  0.3712E-03  0.6455E-02  0.4738E+02
   -1.124913    0.90764  0.0000E+00  0.2704E-04  0.2173E-06  0.3566E-03  0.5892E-02  0.1502E+03
   -1.162410    0.90916  0.0000E+00  0.2530E-04  0.1993E-06  0.3390E-03  0.5360E-02  0.5255E+03
   -1.199907    0.91081  0.0000E+00  0.2360E-04  0.1843E-06  0.3181E-03  0.4854E-02  0.2245E+04
   -1.237404    0.91266  0.0000E+00  0.2190E-04  0.1723E-06  0.2936E-03  0.4368E-02  0.1757E+05
   -1.274900    0.91494  0.0000E+00  0.2016E-04  0.1635E-06  0.2676E-03  0.3898E-02  0.3149E+06
   -1.312396    0.91734  0.0000E+00  0.1836E-04  0.1591E-06  0.2351E-03  0.3465E-02  0.1108E+08
   -1.349892    0.92011  0.0000E+00  0.1642E-04  0.1621E-06  0.1952E-03  0.3061E-02  0.1491E+10
   -1.387387    0.92356  0.0000E+00  0.1420E-04  0.1803E-06  0.1467E-03  0.2682E-02  0.6177E+09
   -1.424883    0.92838  0.0000E+00  0.1140E-04  0.2408E-06  0.8936E-04  0.2320E-02  0.9358E+08
   -1.462377    0.93798  0.0000E+00  0.6041E-05  0.5653E-06  0.1539E-04  0.1973E-02  0.6597E+06
   -1.499872    0.99812  0.0000E+00  0.0000E+00  0.0000E+00  0.0000E+00  0.2039E-02  0.0000E+00
