 1 - depth, m
 2 - temperature, C
 3 - salinity, kg/kg
 4 - turbulent kinetic energy, m**2/s**2
 5 - dissipation rate, m**2/s**3
 6 - kinematic heat conductance, m**2/s
 7 - modulus of horizontal velocity, m/s
 8 - Richardson number, n/d
   -0.000000    0.00000  0.0000E+00  0.4096E-13  0.8590E-16  0.1000E-09  0.0000E+00  0.9544E+16
   -0.037502    0.14603  0.0000E+00  0.4096E-13  0.8590E-16  0.1000E-09  0.0000E+00  0.9083E+16
   -0.075005    0.29071  0.0000E+00  0.4096E-13  0.8590E-16  0.1000E-09  0.0000E+00  0.8633E+16
   -0.112508    0.43406  0.0000E+00  0.4096E-13  0.8590E-16  0.1000E-09  0.0000E+00  0.8195E+16
   -0.150011    0.57605  0.0000E+00  0.4096E-13  0.8590E-16  0.1000E-09  0.0000E+00  0.7769E+16
   -0.187515    0.71669  0.0000E+00  0.4096E-13  0.8590E-16  0.1000E-09  0.0000E+00  0.7354E+16
   -0.225018    0.85595  0.0000E+00  0.4096E-13  0.8590E-16  0.1000E-09  0.0000E+00  0.6948E+16
   -0.262522    0.99382  0.0000E+00  0.4096E-13  0.8590E-16  0.1000E-09  0.0000E+00  0.6550E+16
   -0.300027    1.13019  0.0000E+00  0.4096E-13  0.8590E-16  0.1000E-09  0.0000E+00  0.6161E+16
   -0.337531    1.26500  0.0000E+00  0.4096E-13  0.8590E-16  0.1000E-09  0.0000E+00  0.5781E+16
   -0.375036    1.39818  0.0000E+00  0.4096E-13  0.8590E-16  0.1000E-09  0.0000E+00  0.5426E+16
   -0.412541    1.53003  0.0000E+00  0.4096E-13  0.8590E-16  0.1000E-09  0.0000E+00  0.5086E+16
   -0.450046    1.66069  0.0000E+00  0.4096E-13  0.8590E-16  0.1000E-09  0.0000E+00  0.4753E+16
   -0.487551    1.79011  0.0000E+00  0.4096E-13  0.8590E-16  0.1000E-09  0.0000E+00  0.4428E+16
   -0.525057    1.91821  0.0000E+00  0.4096E-13  0.8590E-16  0.1000E-09  0.0000E+00  0.4108E+16
   -0.562562    2.04486  0.0000E+00  0.4096E-13  0.8590E-16  0.1000E-09  0.0000E+00  0.3796E+16
   -0.600068    2.17000  0.0000E+00  0.4096E-13  0.8590E-16  0.1000E-09  0.0000E+00  0.3492E+16
   -0.637574    2.29351  0.0000E+00  0.4096E-13  0.8590E-16  0.1000E-09  0.0000E+00  0.3196E+16
   -0.675079    2.41532  0.0000E+00  0.4096E-13  0.8590E-16  0.1000E-09  0.0000E+00  0.2910E+16
   -0.712585    2.53533  0.0000E+00  0.5146E-13  0.8590E-16  0.1000E-09  0.0000E+00  0.2633E+16
   -0.750091    2.65342  0.0000E+00  0.2248E-12  0.9903E-16  0.1000E-09  0.0000E+00  0.2375E+16
   -0.787597    2.77000  0.0000E+00  0.5910E-12  0.1920E-15  0.1000E-09  0.0000E+00  0.2129E+16
   -0.825102    2.88515  0.0000E+00  0.1333E-11  0.3984E-15  0.1000E-09  0.0000E+00  0.1890E+16
   -0.862608    2.99879  0.0000E+00  0.2854E-11  0.8223E-15  0.1000E-09  0.0000E+00  0.1659E+16
   -0.900114    3.11083  0.0000E+00  0.5986E-11  0.1680E-14  0.1000E-09  0.0000E+00  0.1436E+16
   -0.937619    3.22116  0.0000E+00  0.1241E-10  0.3403E-14  0.1000E-09  0.0000E+00  0.1222E+16
   -0.975125    3.32970  0.0000E+00  0.2554E-10  0.6843E-14  0.1000E-09  0.0000E+00  0.1017E+16
   -1.012630    3.43634  0.0000E+00  0.5225E-10  0.1369E-13  0.1000E-09  0.0000E+00  0.8209E+15
   -1.050136    3.54079  0.0000E+00  0.1065E-09  0.2730E-13  0.1191E-09  0.0000E+00  0.6347E+15
   -1.087641    3.64287  0.0000E+00  0.2160E-09  0.5417E-13  0.3263E-09  0.0000E+00  0.4594E+15
   -1.125146    3.74223  0.0000E+00  0.4354E-09  0.1069E-12  0.9838E-09  0.0000E+00  0.3001E+15
   -1.162650    3.84010  0.0000E+00  0.8710E-09  0.2094E-12  0.3914E-08  0.0000E+00  0.1472E+15
   -1.200155    3.93520  0.0000E+00  0.1693E-08  0.4002E-12  0.5768E-07  0.0000E+00  0.1803E+14
   -1.237659    4.00406  0.0000E+00  0.2562E-08  0.6108E-12  0.4373E-05  0.0000E+00 -0.9156E+12
   -1.275163    4.00709  0.0000E+00  0.2985E-08  0.7525E-12  0.4641E-05  0.0000E+00 -0.1009E+13
   -1.312667    4.00999  0.0000E+00  0.3274E-08  0.9113E-12  0.4442E-05  0.0000E+00 -0.1210E+13
   -1.350171    4.01305  0.0000E+00  0.3420E-08  0.1116E-11  0.3788E-05  0.0000E+00 -0.1627E+13
   -1.387674    4.01669  0.0000E+00  0.3378E-08  0.1430E-11  0.2704E-05  0.0000E+00 -0.2651E+13
   -1.425177    4.02183  0.0000E+00  0.3023E-08  0.2063E-11  0.1344E-05  0.0000E+00 -0.6457E+13
   -1.462679    4.03198  0.0000E+00  0.2147E-08  0.4025E-11  0.2676E-06  0.0000E+00 -0.3932E+14
   -1.500182    4.07064  0.0000E+00  0.0000E+00  0.0000E+00  0.0000E+00  0.0000E+00  0.0000E+00
