 1 - depth, m
 2 - temperature, C
 3 - salinity, kg/kg
 4 - turbulent kinetic energy, m**2/s**2
 5 - dissipation rate, m**2/s**3
 6 - kinematic heat conductance, m**2/s
 7 - modulus of horizontal velocity, m/s
 8 - Richardson number, n/d
   -0.000000    0.00000  0.0000E+00  0.4096E-13  0.8590E-16  0.1000E-09  0.0000E+00  0.1783E+17
   -0.037498    0.27781  0.0000E+00  0.4096E-13  0.8590E-16  0.1000E-09  0.0000E+00  0.1467E+17
   -0.074996    0.52415  0.0000E+00  0.4096E-13  0.8590E-16  0.1000E-09  0.0000E+00  0.1203E+17
   -0.112495    0.74096  0.0000E+00  0.4096E-13  0.8590E-16  0.1000E-09  0.0000E+00  0.9856E+16
   -0.149994    0.93070  0.0000E+00  0.4096E-13  0.8590E-16  0.1000E-09  0.0000E+00  0.8086E+16
   -0.187493    1.09618  0.0000E+00  0.4096E-13  0.8590E-16  0.1000E-09  0.0000E+00  0.6658E+16
   -0.224993    1.24029  0.0000E+00  0.4096E-13  0.8590E-16  0.1000E-09  0.0000E+00  0.5515E+16
   -0.262492    1.36595  0.0000E+00  0.4096E-13  0.8590E-16  0.1000E-09  0.0000E+00  0.4558E+16
   -0.299992    1.47479  0.0000E+00  0.4096E-13  0.8590E-16  0.1000E-09  0.0000E+00  0.3790E+16
   -0.337493    1.56919  0.0000E+00  0.4096E-13  0.8590E-16  0.1000E-09  0.0000E+00  0.3185E+16
   -0.374993    1.65160  0.0000E+00  0.1120E-12  0.8590E-16  0.1000E-09  0.0000E+00  0.2832E+16
   -0.412494    1.72751  0.0000E+00  0.3439E-12  0.1312E-15  0.1000E-09  0.0000E+00  0.2647E+16
   -0.449995    1.80095  0.0000E+00  0.8314E-12  0.2675E-15  0.1000E-09  0.0000E+00  0.2540E+16
   -0.487496    1.87393  0.0000E+00  0.1840E-11  0.5603E-15  0.1000E-09  0.0000E+00  0.2491E+16
   -0.524997    1.94814  0.0000E+00  0.3944E-11  0.1164E-14  0.1000E-09  0.0000E+00  0.2468E+16
   -0.562498    2.02454  0.0000E+00  0.8324E-11  0.2395E-14  0.1000E-09  0.0000E+00  0.2495E+16
   -0.599999    2.10505  0.0000E+00  0.1738E-10  0.4883E-14  0.1000E-09  0.0000E+00  0.2566E+16
   -0.637501    2.19176  0.0000E+00  0.3598E-10  0.9868E-14  0.1000E-09  0.0000E+00  0.2672E+16
   -0.675002    2.28692  0.0000E+00  0.7382E-10  0.1977E-13  0.1000E-09  0.0000E+00  0.2802E+16
   -0.712504    2.39305  0.0000E+00  0.1502E-09  0.3931E-13  0.1000E-09  0.0000E+00  0.2941E+16
   -0.750005    2.51292  0.0000E+00  0.3033E-09  0.7751E-13  0.1000E-09  0.0000E+00  0.3181E+16
   -0.787507    2.65495  0.0000E+00  0.6074E-09  0.1517E-12  0.1255E-09  0.0000E+00  0.3357E+16
   -0.825008    2.82384  0.0000E+00  0.1207E-08  0.2945E-12  0.2451E-09  0.0000E+00  0.3351E+16
   -0.862510    3.02176  0.0000E+00  0.2380E-08  0.5677E-12  0.5173E-09  0.0000E+00  0.3085E+16
   -0.900011    3.24962  0.0000E+00  0.4658E-08  0.1086E-11  0.1249E-08  0.0000E+00  0.2486E+16
   -0.937512    3.50576  0.0000E+00  0.9034E-08  0.2061E-11  0.4018E-08  0.0000E+00  0.1517E+16
   -0.975014    3.78185  0.0000E+00  0.1709E-07  0.3824E-11  0.3911E-07  0.0000E+00  0.3389E+15
   -1.012515    4.02098  0.0000E+00  0.1881E-07  0.4227E-11  0.3143E-04  0.0000E+00 -0.7371E+12
   -1.050016    4.02232  0.0000E+00  0.1957E-07  0.4447E-11  0.3353E-04  0.0000E+00 -0.7475E+12
   -1.087517    4.02363  0.0000E+00  0.2018E-07  0.4672E-11  0.3400E-04  0.0000E+00 -0.7932E+12
   -1.125017    4.02497  0.0000E+00  0.2068E-07  0.4911E-11  0.3388E-04  0.0000E+00 -0.8310E+12
   -1.162518    4.02632  0.0000E+00  0.2107E-07  0.5178E-11  0.3337E-04  0.0000E+00 -0.8774E+12
   -1.200018    4.02771  0.0000E+00  0.2135E-07  0.5483E-11  0.3242E-04  0.0000E+00 -0.9396E+12
   -1.237518    4.02914  0.0000E+00  0.2151E-07  0.5838E-11  0.3101E-04  0.0000E+00 -0.1025E+13
   -1.275018    4.03064  0.0000E+00  0.2154E-07  0.6297E-11  0.2906E-04  0.0000E+00 -0.1148E+13
   -1.312517    4.03227  0.0000E+00  0.2137E-07  0.6984E-11  0.2419E-04  0.0000E+00 -0.1458E+13
   -1.350017    4.03426  0.0000E+00  0.2087E-07  0.8093E-11  0.1774E-04  0.0000E+00 -0.2134E+13
   -1.387516    4.03703  0.0000E+00  0.1981E-07  0.1002E-10  0.1183E-04  0.0000E+00 -0.3522E+13
   -1.425014    4.04129  0.0000E+00  0.1762E-07  0.1434E-10  0.5783E-05  0.0000E+00 -0.8357E+13
   -1.462512    4.05027  0.0000E+00  0.1204E-07  0.3204E-10  0.9666E-06  0.0000E+00 -0.7131E+14
   -1.500010    4.10122  0.0000E+00  0.0000E+00  0.0000E+00  0.0000E+00  0.0000E+00  0.0000E+00
