 1 - depth, m
 2 - temperature, C
 3 - salinity, kg/kg
 4 - turbulent kinetic energy, m**2/s**2
 5 - dissipation rate, m**2/s**3
 6 - kinematic heat conductance, m**2/s
 7 - modulus of horizontal velocity, m/s
 8 - Richardson number, n/d
   -0.000000    0.00000  0.0000E+00  0.3666E-10  0.2385E-13  0.1000E-09  0.0000E+00  0.2665E+17
   -0.037501    0.42365  0.0000E+00  0.8151E-10  0.2002E-13  0.1000E-09  0.0000E+00  0.2246E+17
   -0.075002    0.82759  0.0000E+00  0.1648E-09  0.2489E-13  0.1000E-09  0.0000E+00  0.1878E+17
   -0.112503    1.21267  0.0000E+00  0.2963E-09  0.3655E-13  0.1000E-09  0.0000E+00  0.1552E+17
   -0.150005    1.57946  0.0000E+00  0.4992E-09  0.5647E-13  0.1000E-09  0.0000E+00  0.1264E+17
   -0.187507    1.92817  0.0000E+00  0.8126E-09  0.8816E-13  0.1000E-09  0.0000E+00  0.1010E+17
   -0.225010    2.25869  0.0000E+00  0.1299E-08  0.1376E-12  0.1000E-09  0.0000E+00  0.7874E+16
   -0.262513    2.57059  0.0000E+00  0.2056E-08  0.2141E-12  0.1058E-09  0.0000E+00  0.5939E+16
   -0.300015    2.86331  0.0000E+00  0.3237E-08  0.3322E-12  0.2152E-09  0.0000E+00  0.4282E+16
   -0.337519    3.13607  0.0000E+00  0.5075E-08  0.5142E-12  0.4915E-09  0.0000E+00  0.2896E+16
   -0.375022    3.38847  0.0000E+00  0.7931E-08  0.7936E-12  0.1238E-08  0.0000E+00  0.1772E+16
   -0.412525    3.62162  0.0000E+00  0.1234E-07  0.1220E-11  0.3880E-08  0.0000E+00  0.8686E+15
   -0.450029    3.83578  0.0000E+00  0.1896E-07  0.1854E-11  0.2950E-07  0.0000E+00  0.1738E+15
   -0.487533    4.00872  0.0000E+00  0.1942E-07  0.1902E-11  0.7166E-04  0.0000E+00 -0.1426E+12
   -0.525037    4.00912  0.0000E+00  0.1964E-07  0.1928E-11  0.7014E-04  0.0000E+00 -0.1481E+12
   -0.562541    4.00953  0.0000E+00  0.1985E-07  0.1958E-11  0.7041E-04  0.0000E+00 -0.1503E+12
   -0.600045    4.00994  0.0000E+00  0.2005E-07  0.1989E-11  0.7062E-04  0.0000E+00 -0.1527E+12
   -0.637550    4.01035  0.0000E+00  0.2023E-07  0.2023E-11  0.7068E-04  0.0000E+00 -0.1554E+12
   -0.675054    4.01076  0.0000E+00  0.2040E-07  0.2060E-11  0.7057E-04  0.0000E+00 -0.1587E+12
   -0.712558    4.01117  0.0000E+00  0.2055E-07  0.2100E-11  0.7031E-04  0.0000E+00 -0.1624E+12
   -0.750063    4.01159  0.0000E+00  0.2069E-07  0.2143E-11  0.6988E-04  0.0000E+00 -0.1666E+12
   -0.787567    4.01201  0.0000E+00  0.2080E-07  0.2189E-11  0.6928E-04  0.0000E+00 -0.1711E+12
   -0.825071    4.01243  0.0000E+00  0.2091E-07  0.2239E-11  0.6851E-04  0.0000E+00 -0.1764E+12
   -0.862576    4.01286  0.0000E+00  0.2099E-07  0.2294E-11  0.6756E-04  0.0000E+00 -0.1823E+12
   -0.900080    4.01329  0.0000E+00  0.2106E-07  0.2353E-11  0.6641E-04  0.0000E+00 -0.1892E+12
   -0.937584    4.01374  0.0000E+00  0.2110E-07  0.2419E-11  0.6509E-04  0.0000E+00 -0.1970E+12
   -0.975088    4.01420  0.0000E+00  0.2113E-07  0.2491E-11  0.6356E-04  0.0000E+00 -0.2060E+12
   -1.012592    4.01467  0.0000E+00  0.2113E-07  0.2571E-11  0.6183E-04  0.0000E+00 -0.2166E+12
   -1.050096    4.01515  0.0000E+00  0.2110E-07  0.2662E-11  0.5984E-04  0.0000E+00 -0.2292E+12
   -1.087600    4.01566  0.0000E+00  0.2105E-07  0.2765E-11  0.5762E-04  0.0000E+00 -0.2441E+12
   -1.125103    4.01618  0.0000E+00  0.2096E-07  0.2884E-11  0.5511E-04  0.0000E+00 -0.2609E+12
   -1.162607    4.01674  0.0000E+00  0.2083E-07  0.3022E-11  0.5230E-04  0.0000E+00 -0.2812E+12
   -1.200110    4.01732  0.0000E+00  0.2066E-07  0.3186E-11  0.4916E-04  0.0000E+00 -0.3065E+12
   -1.237613    4.01795  0.0000E+00  0.2043E-07  0.3384E-11  0.4565E-04  0.0000E+00 -0.3388E+12
   -1.275115    4.01863  0.0000E+00  0.2014E-07  0.3633E-11  0.4184E-04  0.0000E+00 -0.3808E+12
   -1.312618    4.01938  0.0000E+00  0.1969E-07  0.4015E-11  0.3339E-04  0.0000E+00 -0.4938E+12
   -1.350120    4.02032  0.0000E+00  0.1891E-07  0.4695E-11  0.2184E-04  0.0000E+00 -0.7893E+12
   -1.387622    4.02178  0.0000E+00  0.1766E-07  0.5934E-11  0.1340E-04  0.0000E+00 -0.1374E+13
   -1.425123    4.02418  0.0000E+00  0.1534E-07  0.8818E-11  0.5897E-05  0.0000E+00 -0.3493E+13
   -1.462624    4.02968  0.0000E+00  0.9458E-08  0.2151E-10  0.7324E-06  0.0000E+00 -0.3835E+14
   -1.500125    4.06866  0.0000E+00  0.0000E+00  0.0000E+00  0.0000E+00  0.0000E+00  0.0000E+00
