 1 - depth, m
 2 - temperature, C
 3 - salinity, kg/kg
 4 - turbulent kinetic energy, m**2/s**2
 5 - dissipation rate, m**2/s**3
 6 - kinematic heat conductance, m**2/s
 7 - modulus of horizontal velocity, m/s
 8 - Richardson number, n/d
   -0.000000    0.00000  0.0000E+00  0.4063E-10  0.2755E-13  0.1000E-09  0.0000E+00  0.2447E+17
   -0.037501    0.38710  0.0000E+00  0.9243E-10  0.2400E-13  0.1000E-09  0.0000E+00  0.2114E+17
   -0.075002    0.76121  0.0000E+00  0.1901E-09  0.3135E-13  0.1000E-09  0.0000E+00  0.1810E+17
   -0.112503    1.12250  0.0000E+00  0.3479E-09  0.4786E-13  0.1000E-09  0.0000E+00  0.1534E+17
   -0.150005    1.47117  0.0000E+00  0.5977E-09  0.7611E-13  0.1000E-09  0.0000E+00  0.1284E+17
   -0.187507    1.80742  0.0000E+00  0.9940E-09  0.1217E-12  0.1000E-09  0.0000E+00  0.1058E+17
   -0.225009    2.13150  0.0000E+00  0.1624E-08  0.1939E-12  0.1000E-09  0.0000E+00  0.8535E+16
   -0.262511    2.44362  0.0000E+00  0.2628E-08  0.3077E-12  0.1275E-09  0.0000E+00  0.6699E+16
   -0.300014    2.74397  0.0000E+00  0.4225E-08  0.4863E-12  0.2673E-09  0.0000E+00  0.5051E+16
   -0.337517    3.03251  0.0000E+00  0.6761E-08  0.7655E-12  0.5939E-09  0.0000E+00  0.3579E+16
   -0.375020    3.30904  0.0000E+00  0.1077E-07  0.1200E-11  0.1463E-08  0.0000E+00  0.2278E+16
   -0.412524    3.57359  0.0000E+00  0.1706E-07  0.1872E-11  0.4603E-08  0.0000E+00  0.1131E+16
   -0.450027    3.82299  0.0000E+00  0.2653E-07  0.2872E-11  0.3984E-07  0.0000E+00  0.2023E+15
   -0.487531    4.01684  0.0000E+00  0.2709E-07  0.2935E-11  0.8777E-04  0.0000E+00 -0.1887E+12
   -0.525035    4.01724  0.0000E+00  0.2735E-07  0.2970E-11  0.8588E-04  0.0000E+00 -0.1936E+12
   -0.562539    4.01763  0.0000E+00  0.2758E-07  0.3006E-11  0.8616E-04  0.0000E+00 -0.1941E+12
   -0.600043    4.01803  0.0000E+00  0.2779E-07  0.3046E-11  0.8636E-04  0.0000E+00 -0.1950E+12
   -0.637547    4.01842  0.0000E+00  0.2798E-07  0.3087E-11  0.8638E-04  0.0000E+00 -0.1964E+12
   -0.675051    4.01881  0.0000E+00  0.2815E-07  0.3132E-11  0.8620E-04  0.0000E+00 -0.1982E+12
   -0.712555    4.01919  0.0000E+00  0.2829E-07  0.3180E-11  0.8583E-04  0.0000E+00 -0.2006E+12
   -0.750059    4.01958  0.0000E+00  0.2840E-07  0.3231E-11  0.8526E-04  0.0000E+00 -0.2034E+12
   -0.787564    4.01997  0.0000E+00  0.2849E-07  0.3287E-11  0.8448E-04  0.0000E+00 -0.2068E+12
   -0.825068    4.02036  0.0000E+00  0.2856E-07  0.3348E-11  0.8350E-04  0.0000E+00 -0.2108E+12
   -0.862572    4.02075  0.0000E+00  0.2860E-07  0.3414E-11  0.8231E-04  0.0000E+00 -0.2156E+12
   -0.900076    4.02115  0.0000E+00  0.2862E-07  0.3486E-11  0.8090E-04  0.0000E+00 -0.2212E+12
   -0.937580    4.02155  0.0000E+00  0.2860E-07  0.3566E-11  0.7927E-04  0.0000E+00 -0.2277E+12
   -0.975084    4.02196  0.0000E+00  0.2856E-07  0.3654E-11  0.7740E-04  0.0000E+00 -0.2353E+12
   -1.012588    4.02238  0.0000E+00  0.2849E-07  0.3753E-11  0.7529E-04  0.0000E+00 -0.2445E+12
   -1.050092    4.02281  0.0000E+00  0.2839E-07  0.3866E-11  0.7289E-04  0.0000E+00 -0.2555E+12
   -1.087595    4.02326  0.0000E+00  0.2824E-07  0.3995E-11  0.7019E-04  0.0000E+00 -0.2686E+12
   -1.125098    4.02372  0.0000E+00  0.2806E-07  0.4144E-11  0.6718E-04  0.0000E+00 -0.2837E+12
   -1.162602    4.02420  0.0000E+00  0.2783E-07  0.4320E-11  0.6383E-04  0.0000E+00 -0.3020E+12
   -1.200105    4.02471  0.0000E+00  0.2754E-07  0.4529E-11  0.6009E-04  0.0000E+00 -0.3247E+12
   -1.237607    4.02524  0.0000E+00  0.2719E-07  0.4783E-11  0.5594E-04  0.0000E+00 -0.3536E+12
   -1.275110    4.02582  0.0000E+00  0.2676E-07  0.5104E-11  0.5145E-04  0.0000E+00 -0.3909E+12
   -1.312612    4.02645  0.0000E+00  0.2614E-07  0.5596E-11  0.4213E-04  0.0000E+00 -0.4867E+12
   -1.350114    4.02721  0.0000E+00  0.2510E-07  0.6483E-11  0.2643E-04  0.0000E+00 -0.7975E+12
   -1.387616    4.02844  0.0000E+00  0.2344E-07  0.8121E-11  0.1612E-04  0.0000E+00 -0.1365E+13
   -1.425117    4.03046  0.0000E+00  0.2046E-07  0.1193E-10  0.7224E-05  0.0000E+00 -0.3281E+13
   -1.462618    4.03498  0.0000E+00  0.1252E-07  0.2952E-10  0.8669E-06  0.0000E+00 -0.3442E+14
   -1.500119    4.06858  0.0000E+00  0.0000E+00  0.0000E+00  0.0000E+00  0.0000E+00  0.0000E+00
