 1 - depth, m
 2 - temperature, C
 3 - salinity, kg/kg
 4 - turbulent kinetic energy, m**2/s**2
 5 - dissipation rate, m**2/s**3
 6 - kinematic heat conductance, m**2/s
 7 - modulus of horizontal velocity, m/s
 8 - Richardson number, n/d
   -0.000000    0.00000  0.0000E+00  0.4096E-13  0.8590E-16  0.1000E-09  0.0000E+00  0.8990E+16
   -0.037501    0.13739  0.0000E+00  0.4096E-13  0.8590E-16  0.1000E-09  0.0000E+00  0.8563E+16
   -0.075002    0.27329  0.0000E+00  0.4096E-13  0.8590E-16  0.1000E-09  0.0000E+00  0.8147E+16
   -0.112504    0.40771  0.0000E+00  0.4096E-13  0.8590E-16  0.1000E-09  0.0000E+00  0.7742E+16
   -0.150006    0.54060  0.0000E+00  0.4096E-13  0.8590E-16  0.1000E-09  0.0000E+00  0.7348E+16
   -0.187508    0.67195  0.0000E+00  0.4096E-13  0.8590E-16  0.1000E-09  0.0000E+00  0.6964E+16
   -0.225011    0.80173  0.0000E+00  0.4096E-13  0.8590E-16  0.1000E-09  0.0000E+00  0.6590E+16
   -0.262514    0.92989  0.0000E+00  0.4096E-13  0.8590E-16  0.1000E-09  0.0000E+00  0.6217E+16
   -0.300017    1.05620  0.0000E+00  0.4096E-13  0.8590E-16  0.1000E-09  0.0000E+00  0.5853E+16
   -0.337520    1.18057  0.0000E+00  0.4096E-13  0.8590E-16  0.1000E-09  0.0000E+00  0.5499E+16
   -0.375024    1.30292  0.0000E+00  0.4096E-13  0.8590E-16  0.1000E-09  0.0000E+00  0.5182E+16
   -0.412528    1.42381  0.0000E+00  0.4096E-13  0.8590E-16  0.1000E-09  0.0000E+00  0.4888E+16
   -0.450032    1.54355  0.0000E+00  0.4096E-13  0.8590E-16  0.1000E-09  0.0000E+00  0.4600E+16
   -0.487536    1.66211  0.0000E+00  0.4096E-13  0.8590E-16  0.1000E-09  0.0000E+00  0.4318E+16
   -0.525040    1.77942  0.0000E+00  0.4096E-13  0.8590E-16  0.1000E-09  0.0000E+00  0.4038E+16
   -0.562544    1.89529  0.0000E+00  0.4096E-13  0.8590E-16  0.1000E-09  0.0000E+00  0.3765E+16
   -0.600048    2.00966  0.0000E+00  0.4096E-13  0.8590E-16  0.1000E-09  0.0000E+00  0.3500E+16
   -0.637553    2.12248  0.0000E+00  0.4096E-13  0.8590E-16  0.1000E-09  0.0000E+00  0.3242E+16
   -0.675057    2.23369  0.0000E+00  0.4096E-13  0.8590E-16  0.1000E-09  0.0000E+00  0.2993E+16
   -0.712562    2.34320  0.0000E+00  0.4096E-13  0.8590E-16  0.1000E-09  0.0000E+00  0.2752E+16
   -0.750067    2.45097  0.0000E+00  0.4096E-13  0.8590E-16  0.1000E-09  0.0000E+00  0.2544E+16
   -0.787571    2.55800  0.0000E+00  0.4096E-13  0.8590E-16  0.1000E-09  0.0000E+00  0.2348E+16
   -0.825076    2.66467  0.0000E+00  0.4096E-13  0.8590E-16  0.1000E-09  0.0000E+00  0.2155E+16
   -0.862580    2.77096  0.0000E+00  0.4096E-13  0.8590E-16  0.1000E-09  0.0000E+00  0.1965E+16
   -0.900085    2.87689  0.0000E+00  0.1028E-12  0.8590E-16  0.1000E-09  0.0000E+00  0.1777E+16
   -0.937589    2.98244  0.0000E+00  0.3305E-12  0.1767E-15  0.1000E-09  0.0000E+00  0.1591E+16
   -0.975093    3.08760  0.0000E+00  0.9020E-12  0.4391E-15  0.1000E-09  0.0000E+00  0.1408E+16
   -1.012597    3.19237  0.0000E+00  0.2336E-11  0.1094E-14  0.1000E-09  0.0000E+00  0.1226E+16
   -1.050102    3.29664  0.0000E+00  0.5938E-11  0.2701E-14  0.1000E-09  0.0000E+00  0.1047E+16
   -1.087605    3.40034  0.0000E+00  0.1492E-10  0.6601E-14  0.1000E-09  0.0000E+00  0.8704E+15
   -1.125109    3.50344  0.0000E+00  0.3708E-10  0.1597E-13  0.1000E-09  0.0000E+00  0.7067E+15
   -1.162613    3.60743  0.0000E+00  0.9128E-10  0.3830E-13  0.1952E-09  0.0000E+00  0.5404E+15
   -1.200116    3.71260  0.0000E+00  0.2226E-09  0.9102E-13  0.6784E-09  0.0000E+00  0.3683E+15
   -1.237619    3.81880  0.0000E+00  0.5370E-09  0.2143E-12  0.3057E-08  0.0000E+00  0.1906E+15
   -1.275122    3.92492  0.0000E+00  0.1273E-08  0.4978E-12  0.4690E-07  0.0000E+00  0.2572E+14
   -1.312625    4.00834  0.0000E+00  0.2463E-08  0.9776E-12  0.2415E-05  0.0000E+00 -0.2492E+13
   -1.350127    4.01465  0.0000E+00  0.3065E-08  0.1372E-11  0.2534E-05  0.0000E+00 -0.3100E+13
   -1.387629    4.02094  0.0000E+00  0.3388E-08  0.1906E-11  0.2106E-05  0.0000E+00 -0.4762E+13
   -1.425131    4.02882  0.0000E+00  0.3337E-08  0.2884E-11  0.1233E-05  0.0000E+00 -0.1069E+14
   -1.462632    4.04264  0.0000E+00  0.2679E-08  0.5708E-11  0.3232E-06  0.0000E+00 -0.5560E+14
   -1.500133    4.08769  0.0000E+00  0.0000E+00  0.0000E+00  0.0000E+00  0.0000E+00  0.0000E+00
