 1 - depth, m
 2 - temperature, C
 3 - salinity, kg/kg
 4 - turbulent kinetic energy, m**2/s**2
 5 - dissipation rate, m**2/s**3
 6 - kinematic heat conductance, m**2/s
 7 - modulus of horizontal velocity, m/s
 8 - Richardson number, n/d
   -0.000000    0.00000  0.0000E+00  0.4096E-13  0.8590E-16  0.1000E-09  0.0000E+00  0.9504E+16
   -0.037498    0.14540  0.0000E+00  0.4096E-13  0.8590E-16  0.1000E-09  0.0000E+00  0.9079E+16
   -0.074996    0.29000  0.0000E+00  0.4096E-13  0.8590E-16  0.1000E-09  0.0000E+00  0.8658E+16
   -0.112494    0.43374  0.0000E+00  0.4096E-13  0.8590E-16  0.1000E-09  0.0000E+00  0.8241E+16
   -0.149993    0.57653  0.0000E+00  0.4096E-13  0.8590E-16  0.1000E-09  0.0000E+00  0.7828E+16
   -0.187492    0.71829  0.0000E+00  0.4096E-13  0.8590E-16  0.1000E-09  0.0000E+00  0.7421E+16
   -0.224991    0.85894  0.0000E+00  0.4096E-13  0.8590E-16  0.1000E-09  0.0000E+00  0.7019E+16
   -0.262491    0.99838  0.0000E+00  0.4096E-13  0.8590E-16  0.1000E-09  0.0000E+00  0.6619E+16
   -0.299990    1.13646  0.0000E+00  0.4096E-13  0.8590E-16  0.1000E-09  0.0000E+00  0.6226E+16
   -0.337490    1.27305  0.0000E+00  0.4096E-13  0.8590E-16  0.1000E-09  0.0000E+00  0.5840E+16
   -0.374991    1.40807  0.0000E+00  0.4096E-13  0.8590E-16  0.1000E-09  0.0000E+00  0.5478E+16
   -0.412491    1.54179  0.0000E+00  0.4096E-13  0.8590E-16  0.1000E-09  0.0000E+00  0.5130E+16
   -0.449992    1.67432  0.0000E+00  0.4096E-13  0.8590E-16  0.1000E-09  0.0000E+00  0.4790E+16
   -0.487492    1.80561  0.0000E+00  0.4096E-13  0.8590E-16  0.1000E-09  0.0000E+00  0.4456E+16
   -0.524993    1.93556  0.0000E+00  0.4096E-13  0.8590E-16  0.1000E-09  0.0000E+00  0.4127E+16
   -0.562494    2.06403  0.0000E+00  0.4096E-13  0.8590E-16  0.1000E-09  0.0000E+00  0.3807E+16
   -0.599995    2.19094  0.0000E+00  0.4096E-13  0.8590E-16  0.1000E-09  0.0000E+00  0.3495E+16
   -0.637496    2.31618  0.0000E+00  0.4096E-13  0.8590E-16  0.1000E-09  0.0000E+00  0.3193E+16
   -0.674998    2.43968  0.0000E+00  0.7695E-13  0.8590E-16  0.1000E-09  0.0000E+00  0.2899E+16
   -0.712499    2.56133  0.0000E+00  0.2762E-12  0.1015E-15  0.1000E-09  0.0000E+00  0.2616E+16
   -0.750000    2.68103  0.0000E+00  0.6720E-12  0.1851E-15  0.1000E-09  0.0000E+00  0.2355E+16
   -0.787501    2.79927  0.0000E+00  0.1428E-11  0.3607E-15  0.1000E-09  0.0000E+00  0.2104E+16
   -0.825003    2.91619  0.0000E+00  0.2884E-11  0.7017E-15  0.1000E-09  0.0000E+00  0.1862E+16
   -0.862504    3.03171  0.0000E+00  0.5707E-11  0.1353E-14  0.1000E-09  0.0000E+00  0.1627E+16
   -0.900005    3.14577  0.0000E+00  0.1117E-10  0.2589E-14  0.1000E-09  0.0000E+00  0.1400E+16
   -0.937506    3.25829  0.0000E+00  0.2169E-10  0.4920E-14  0.1000E-09  0.0000E+00  0.1181E+16
   -0.975007    3.36918  0.0000E+00  0.4183E-10  0.9294E-14  0.1000E-09  0.0000E+00  0.9707E+15
   -1.012508    3.47835  0.0000E+00  0.8037E-10  0.1749E-13  0.1000E-09  0.0000E+00  0.7684E+15
   -1.050009    3.58553  0.0000E+00  0.1540E-09  0.3283E-13  0.1581E-09  0.0000E+00  0.5757E+15
   -1.087509    3.69046  0.0000E+00  0.2938E-09  0.6138E-13  0.4322E-09  0.0000E+00  0.3937E+15
   -1.125010    3.79278  0.0000E+00  0.5577E-09  0.1142E-12  0.1398E-08  0.0000E+00  0.2264E+15
   -1.162510    3.89348  0.0000E+00  0.1050E-08  0.2109E-12  0.8639E-08  0.0000E+00  0.6752E+14
   -1.200010    3.98863  0.0000E+00  0.1661E-08  0.3333E-12  0.2226E-05  0.0000E+00 -0.4987E+12
   -1.237510    3.99487  0.0000E+00  0.2082E-08  0.4455E-12  0.3328E-05  0.0000E+00 -0.6810E+12
   -1.275009    3.99899  0.0000E+00  0.2423E-08  0.5708E-12  0.3708E-05  0.0000E+00 -0.8478E+12
   -1.312508    4.00272  0.0000E+00  0.2688E-08  0.7228E-12  0.3616E-05  0.0000E+00 -0.1107E+13
   -1.350008    4.00657  0.0000E+00  0.2853E-08  0.9259E-12  0.3112E-05  0.0000E+00 -0.1595E+13
   -1.387506    4.01110  0.0000E+00  0.2871E-08  0.1240E-11  0.2241E-05  0.0000E+00 -0.2757E+13
   -1.425005    4.01740  0.0000E+00  0.2630E-08  0.1858E-11  0.1145E-05  0.0000E+00 -0.6985E+13
   -1.462503    4.02942  0.0000E+00  0.1956E-08  0.3667E-11  0.2531E-06  0.0000E+00 -0.4084E+14
   -1.500000    4.07043  0.0000E+00  0.0000E+00  0.0000E+00  0.0000E+00  0.0000E+00  0.0000E+00
