 1 - depth, m
 2 - temperature, C
 3 - salinity, kg/kg
 4 - turbulent kinetic energy, m**2/s**2
 5 - dissipation rate, m**2/s**3
 6 - kinematic heat conductance, m**2/s
 7 - modulus of horizontal velocity, m/s
 8 - Richardson number, n/d
   -0.000000    0.00000  0.0000E+00  0.5005E-08  0.1166E-10  0.5335E-09  0.0000E+00  0.6056E+17
   -0.037502    1.05605  0.0000E+00  0.2680E-07  0.9638E-11  0.6565E-09  0.0000E+00  0.4077E+17
   -0.075005    2.09367  0.0000E+00  0.6708E-07  0.1363E-10  0.1683E-08  0.0000E+00  0.2251E+17
   -0.112508    3.10668  0.0000E+00  0.1328E-06  0.2241E-10  0.1028E-07  0.0000E+00  0.6089E+16
   -0.150011    4.04620  0.0000E+00  0.1341E-06  0.2263E-10  0.2555E-03  0.0000E+00 -0.5317E+12
   -0.187515    4.04675  0.0000E+00  0.1347E-06  0.2274E-10  0.2520E-03  0.0000E+00 -0.5140E+12
   -0.225019    4.04729  0.0000E+00  0.1353E-06  0.2286E-10  0.2528E-03  0.0000E+00 -0.5077E+12
   -0.262523    4.04782  0.0000E+00  0.1358E-06  0.2299E-10  0.2532E-03  0.0000E+00 -0.5034E+12
   -0.300027    4.04835  0.0000E+00  0.1362E-06  0.2313E-10  0.2532E-03  0.0000E+00 -0.5001E+12
   -0.337532    4.04886  0.0000E+00  0.1365E-06  0.2327E-10  0.2530E-03  0.0000E+00 -0.4980E+12
   -0.375037    4.04937  0.0000E+00  0.1367E-06  0.2343E-10  0.2524E-03  0.0000E+00 -0.4959E+12
   -0.412542    4.04988  0.0000E+00  0.1369E-06  0.2360E-10  0.2514E-03  0.0000E+00 -0.4949E+12
   -0.450047    4.05037  0.0000E+00  0.1371E-06  0.2378E-10  0.2501E-03  0.0000E+00 -0.4943E+12
   -0.487553    4.05087  0.0000E+00  0.1371E-06  0.2398E-10  0.2485E-03  0.0000E+00 -0.4953E+12
   -0.525058    4.05136  0.0000E+00  0.1371E-06  0.2419E-10  0.2465E-03  0.0000E+00 -0.4969E+12
   -0.562564    4.05185  0.0000E+00  0.1371E-06  0.2442E-10  0.2442E-03  0.0000E+00 -0.5000E+12
   -0.600069    4.05233  0.0000E+00  0.1369E-06  0.2468E-10  0.2415E-03  0.0000E+00 -0.5038E+12
   -0.637575    4.05282  0.0000E+00  0.1368E-06  0.2496E-10  0.2384E-03  0.0000E+00 -0.5091E+12
   -0.675081    4.05331  0.0000E+00  0.1365E-06  0.2526E-10  0.2349E-03  0.0000E+00 -0.5153E+12
   -0.712587    4.05380  0.0000E+00  0.1362E-06  0.2560E-10  0.2310E-03  0.0000E+00 -0.5232E+12
   -0.750093    4.05430  0.0000E+00  0.1358E-06  0.2597E-10  0.2268E-03  0.0000E+00 -0.5320E+12
   -0.787599    4.05480  0.0000E+00  0.1353E-06  0.2637E-10  0.2221E-03  0.0000E+00 -0.5427E+12
   -0.825104    4.05531  0.0000E+00  0.1348E-06  0.2683E-10  0.2171E-03  0.0000E+00 -0.5548E+12
   -0.862610    4.05582  0.0000E+00  0.1342E-06  0.2733E-10  0.2116E-03  0.0000E+00 -0.5691E+12
   -0.900116    4.05634  0.0000E+00  0.1335E-06  0.2789E-10  0.2057E-03  0.0000E+00 -0.5854E+12
   -0.937622    4.05688  0.0000E+00  0.1327E-06  0.2852E-10  0.1994E-03  0.0000E+00 -0.6045E+12
   -0.975127    4.05743  0.0000E+00  0.1319E-06  0.2923E-10  0.1927E-03  0.0000E+00 -0.6263E+12
   -1.012633    4.05799  0.0000E+00  0.1309E-06  0.3004E-10  0.1854E-03  0.0000E+00 -0.6521E+12
   -1.050138    4.05857  0.0000E+00  0.1299E-06  0.3097E-10  0.1776E-03  0.0000E+00 -0.6824E+12
   -1.087643    4.05918  0.0000E+00  0.1287E-06  0.3205E-10  0.1693E-03  0.0000E+00 -0.7185E+12
   -1.125148    4.05981  0.0000E+00  0.1273E-06  0.3333E-10  0.1603E-03  0.0000E+00 -0.7609E+12
   -1.162653    4.06047  0.0000E+00  0.1258E-06  0.3485E-10  0.1508E-03  0.0000E+00 -0.8125E+12
   -1.200158    4.06117  0.0000E+00  0.1241E-06  0.3668E-10  0.1406E-03  0.0000E+00 -0.8753E+12
   -1.237662    4.06191  0.0000E+00  0.1222E-06  0.3892E-10  0.1297E-03  0.0000E+00 -0.9544E+12
   -1.275166    4.06272  0.0000E+00  0.1201E-06  0.4180E-10  0.1178E-03  0.0000E+00 -0.1058E+13
   -1.312670    4.06360  0.0000E+00  0.1175E-06  0.4566E-10  0.1047E-03  0.0000E+00 -0.1201E+13
   -1.350174    4.06459  0.0000E+00  0.1143E-06  0.5112E-10  0.9194E-04  0.0000E+00 -0.1379E+13
   -1.387677    4.06572  0.0000E+00  0.1091E-06  0.6167E-10  0.4648E-04  0.0000E+00 -0.2778E+13
   -1.425180    4.06794  0.0000E+00  0.9799E-07  0.9070E-10  0.1957E-04  0.0000E+00 -0.6879E+13
   -1.462683    4.07317  0.0000E+00  0.6025E-07  0.2510E-09  0.2142E-05  0.0000E+00 -0.7727E+14
   -1.500185    4.11837  0.0000E+00  0.0000E+00  0.0000E+00  0.0000E+00  0.0000E+00  0.0000E+00
