 1 - depth, m
 2 - temperature, C
 3 - salinity, kg/kg
 4 - turbulent kinetic energy, m**2/s**2
 5 - dissipation rate, m**2/s**3
 6 - kinematic heat conductance, m**2/s
 7 - modulus of horizontal velocity, m/s
 8 - Richardson number, n/d
   -0.000000    7.66255  0.0000E+00  0.2879E-03  0.3529E-03  0.6878E-04  0.1870E+00 -0.9384E-02
   -0.037498    7.67139  0.0000E+00  0.1612E-03  0.1114E-03  0.1340E-03  0.6337E-01 -0.9434E-03
   -0.074996    7.67278  0.0000E+00  0.1129E-03  0.3808E-04  0.1601E-03  0.4358E-01 -0.1069E-02
   -0.112494    7.67358  0.0000E+00  0.9034E-04  0.2044E-04  0.1684E-03  0.3583E-01 -0.1267E-02
   -0.149993    7.67418  0.0000E+00  0.7544E-04  0.1215E-04  0.1748E-03  0.3092E-01 -0.1322E-02
   -0.187492    7.67467  0.0000E+00  0.6448E-04  0.7600E-05  0.1822E-03  0.2714E-01 -0.1749E-02
   -0.224991    7.67510  0.0000E+00  0.5615E-04  0.4877E-05  0.1899E-03  0.2407E-01 -0.1951E-02
   -0.262491    7.67550  0.0000E+00  0.4944E-04  0.3168E-05  0.1988E-03  0.2143E-01 -0.2471E-02
   -0.299991    7.67588  0.0000E+00  0.4405E-04  0.2095E-05  0.2074E-03  0.1918E-01 -0.3126E-02
   -0.337491    7.67623  0.0000E+00  0.3964E-04  0.1374E-05  0.2159E-03  0.1723E-01 -0.3985E-02
   -0.374991    7.67658  0.0000E+00  0.3597E-04  0.9268E-06  0.2241E-03  0.1551E-01 -0.5060E-02
   -0.412492    7.67692  0.0000E+00  0.3292E-04  0.6725E-06  0.2315E-03  0.1399E-01 -0.6444E-02
   -0.449992    7.67726  0.0000E+00  0.3028E-04  0.5125E-06  0.2383E-03  0.1264E-01 -0.8197E-02
   -0.487493    7.67760  0.0000E+00  0.2796E-04  0.4050E-06  0.2443E-03  0.1142E-01 -0.1047E-01
   -0.524994    7.67794  0.0000E+00  0.2589E-04  0.3290E-06  0.2511E-03  0.1032E-01 -0.1394E-01
   -0.562495    7.67829  0.0000E+00  0.2402E-04  0.2726E-06  0.2571E-03  0.9345E-02 -0.1922E-01
   -0.599996    7.67863  0.0000E+00  0.2234E-04  0.2291E-06  0.2626E-03  0.8476E-02 -0.2717E-01
   -0.637497    7.67898  0.0000E+00  0.2081E-04  0.1944E-06  0.2677E-03  0.7692E-02  0.4572E-01
   -0.674998    7.67934  0.0000E+00  0.1941E-04  0.1664E-06  0.2723E-03  0.6982E-02 -0.2831E-01
   -0.712500    7.67969  0.0000E+00  0.1812E-04  0.1434E-06  0.2764E-03  0.6337E-02 -0.1660E-01
   -0.750001    7.68006  0.0000E+00  0.1694E-04  0.1243E-06  0.2802E-03  0.5748E-02  0.6778E-02
   -0.787502    7.68043  0.0000E+00  0.1586E-04  0.1084E-06  0.2841E-03  0.5210E-02  0.1584E+00
   -0.825003    7.68081  0.0000E+00  0.1485E-04  0.9491E-07  0.2890E-03  0.4717E-02  0.6574E+00
   -0.862505    7.68120  0.0000E+00  0.1393E-04  0.8352E-07  0.2965E-03  0.4265E-02  0.2310E+02
   -0.900006    7.68158  0.0000E+00  0.1307E-04  0.7382E-07  0.3123E-03  0.3849E-02  0.3011E+02
   -0.937507    7.68196  0.0000E+00  0.1227E-04  0.6552E-07  0.3301E-03  0.3465E-02  0.3390E+02
   -0.975008    7.68233  0.0000E+00  0.1153E-04  0.5839E-07  0.3434E-03  0.3111E-02  0.8915E+01
   -1.012509    7.68270  0.0000E+00  0.1083E-04  0.5223E-07  0.3517E-03  0.2780E-02  0.3323E+02
   -1.050010    7.68307  0.0000E+00  0.1018E-04  0.4691E-07  0.3572E-03  0.2478E-02  0.1339E+02
   -1.087510    7.68344  0.0000E+00  0.9557E-05  0.4234E-07  0.3583E-03  0.2205E-02  0.7461E+01
   -1.125011    7.68382  0.0000E+00  0.8974E-05  0.3843E-07  0.3557E-03  0.1957E-02  0.2437E+01
   -1.162511    7.68421  0.0000E+00  0.8424E-05  0.3513E-07  0.3480E-03  0.1730E-02  0.1108E+02
   -1.200011    7.68463  0.0000E+00  0.7903E-05  0.3241E-07  0.3365E-03  0.1523E-02  0.3389E+02
   -1.237511    7.68507  0.0000E+00  0.7407E-05  0.3024E-07  0.3212E-03  0.1331E-02  0.1712E+02
   -1.275010    7.68554  0.0000E+00  0.6923E-05  0.2863E-07  0.3002E-03  0.1154E-02  0.6947E+02
   -1.312510    7.68606  0.0000E+00  0.6438E-05  0.2766E-07  0.2734E-03  0.9979E-03  0.3129E+02
   -1.350009    7.68664  0.0000E+00  0.5930E-05  0.2758E-07  0.2366E-03  0.8585E-03  0.9219E+02
   -1.387508    7.68733  0.0000E+00  0.5361E-05  0.2907E-07  0.1914E-03  0.7329E-03  0.1033E+03
   -1.425006    7.68823  0.0000E+00  0.4617E-05  0.3466E-07  0.1067E-03  0.6197E-03  0.8995E+04
   -1.462504    7.68985  0.0000E+00  0.2512E-05  0.7701E-07  0.1167E-04  0.5170E-03 -0.7760E+05
   -1.500002    7.70582  0.0000E+00  0.0000E+00  0.0000E+00  0.0000E+00  0.5140E-03  0.0000E+00
