 1 - depth, m
 2 - temperature, C
 3 - salinity, kg/kg
 4 - turbulent kinetic energy, m**2/s**2
 5 - dissipation rate, m**2/s**3
 6 - kinematic heat conductance, m**2/s
 7 - modulus of horizontal velocity, m/s
 8 - Richardson number, n/d
   -0.000000    0.00000  0.0000E+00  0.3668E-10  0.2400E-13  0.1000E-09  0.0000E+00  0.2391E+17
   -0.037498    0.37770  0.0000E+00  0.8181E-10  0.2041E-13  0.1000E-09  0.0000E+00  0.2059E+17
   -0.074995    0.74044  0.0000E+00  0.1660E-09  0.2576E-13  0.1000E-09  0.0000E+00  0.1766E+17
   -0.112494    1.08961  0.0000E+00  0.2997E-09  0.3822E-13  0.1000E-09  0.0000E+00  0.1505E+17
   -0.149992    1.42647  0.0000E+00  0.5073E-09  0.5945E-13  0.1000E-09  0.0000E+00  0.1271E+17
   -0.187491    1.75212  0.0000E+00  0.8299E-09  0.9326E-13  0.1000E-09  0.0000E+00  0.1061E+17
   -0.224990    2.06754  0.0000E+00  0.1333E-08  0.1461E-12  0.1000E-09  0.0000E+00  0.8707E+16
   -0.262490    2.37353  0.0000E+00  0.2120E-08  0.2280E-12  0.1000E-09  0.0000E+00  0.6977E+16
   -0.299989    2.67066  0.0000E+00  0.3352E-08  0.3549E-12  0.1827E-09  0.0000E+00  0.5394E+16
   -0.337489    2.95916  0.0000E+00  0.5277E-08  0.5505E-12  0.3878E-09  0.0000E+00  0.3945E+16
   -0.374989    3.23898  0.0000E+00  0.8278E-08  0.8514E-12  0.9011E-09  0.0000E+00  0.2626E+16
   -0.412490    3.51040  0.0000E+00  0.1293E-07  0.1312E-11  0.2567E-08  0.0000E+00  0.1422E+16
   -0.449990    3.77174  0.0000E+00  0.2004E-07  0.2007E-11  0.1561E-07  0.0000E+00  0.3588E+15
   -0.487491    4.00502  0.0000E+00  0.2052E-07  0.2058E-11  0.7366E-04  0.0000E+00 -0.1443E+12
   -0.524991    4.00551  0.0000E+00  0.2075E-07  0.2086E-11  0.7215E-04  0.0000E+00 -0.1502E+12
   -0.562492    4.00600  0.0000E+00  0.2097E-07  0.2118E-11  0.7241E-04  0.0000E+00 -0.1529E+12
   -0.599993    4.00649  0.0000E+00  0.2117E-07  0.2151E-11  0.7261E-04  0.0000E+00 -0.1559E+12
   -0.637494    4.00698  0.0000E+00  0.2136E-07  0.2188E-11  0.7266E-04  0.0000E+00 -0.1592E+12
   -0.674995    4.00747  0.0000E+00  0.2154E-07  0.2228E-11  0.7254E-04  0.0000E+00 -0.1631E+12
   -0.712496    4.00795  0.0000E+00  0.2170E-07  0.2271E-11  0.7226E-04  0.0000E+00 -0.1674E+12
   -0.749997    4.00844  0.0000E+00  0.2184E-07  0.2317E-11  0.7181E-04  0.0000E+00 -0.1719E+12
   -0.787498    4.00893  0.0000E+00  0.2197E-07  0.2367E-11  0.7119E-04  0.0000E+00 -0.1769E+12
   -0.825000    4.00943  0.0000E+00  0.2208E-07  0.2422E-11  0.7039E-04  0.0000E+00 -0.1826E+12
   -0.862501    4.00993  0.0000E+00  0.2217E-07  0.2481E-11  0.6941E-04  0.0000E+00 -0.1890E+12
   -0.900002    4.01043  0.0000E+00  0.2224E-07  0.2545E-11  0.6824E-04  0.0000E+00 -0.1963E+12
   -0.937503    4.01095  0.0000E+00  0.2228E-07  0.2616E-11  0.6687E-04  0.0000E+00 -0.2045E+12
   -0.975003    4.01147  0.0000E+00  0.2231E-07  0.2694E-11  0.6530E-04  0.0000E+00 -0.2140E+12
   -1.012504    4.01201  0.0000E+00  0.2231E-07  0.2781E-11  0.6352E-04  0.0000E+00 -0.2250E+12
   -1.050005    4.01256  0.0000E+00  0.2228E-07  0.2879E-11  0.6148E-04  0.0000E+00 -0.2380E+12
   -1.087505    4.01314  0.0000E+00  0.2222E-07  0.2991E-11  0.5919E-04  0.0000E+00 -0.2532E+12
   -1.125005    4.01373  0.0000E+00  0.2213E-07  0.3120E-11  0.5661E-04  0.0000E+00 -0.2710E+12
   -1.162505    4.01436  0.0000E+00  0.2200E-07  0.3269E-11  0.5373E-04  0.0000E+00 -0.2923E+12
   -1.200005    4.01502  0.0000E+00  0.2182E-07  0.3447E-11  0.5051E-04  0.0000E+00 -0.3188E+12
   -1.237505    4.01572  0.0000E+00  0.2158E-07  0.3661E-11  0.4691E-04  0.0000E+00 -0.3526E+12
   -1.275004    4.01648  0.0000E+00  0.2127E-07  0.3931E-11  0.4300E-04  0.0000E+00 -0.3962E+12
   -1.312504    4.01730  0.0000E+00  0.2080E-07  0.4344E-11  0.3459E-04  0.0000E+00 -0.5097E+12
   -1.350002    4.01834  0.0000E+00  0.1999E-07  0.5080E-11  0.2249E-04  0.0000E+00 -0.8207E+12
   -1.387501    4.01994  0.0000E+00  0.1867E-07  0.6424E-11  0.1379E-04  0.0000E+00 -0.1433E+13
   -1.424999    4.02256  0.0000E+00  0.1625E-07  0.9553E-11  0.6104E-05  0.0000E+00 -0.3637E+13
   -1.462497    4.02848  0.0000E+00  0.1010E-07  0.2337E-10  0.7747E-06  0.0000E+00 -0.4040E+14
   -1.499995    4.06963  0.0000E+00  0.0000E+00  0.0000E+00  0.0000E+00  0.0000E+00  0.0000E+00
