 1 - depth, m
 2 - temperature, C
 3 - salinity, kg/kg
 4 - turbulent kinetic energy, m**2/s**2
 5 - dissipation rate, m**2/s**3
 6 - kinematic heat conductance, m**2/s
 7 - modulus of horizontal velocity, m/s
 8 - Richardson number, n/d
   -0.000000   12.87225  0.0000E+00  0.1585E-02  0.1579E-01  0.1804E-03  0.6646E+00  0.2345E-01
   -0.037499   13.00661  0.0000E+00  0.8314E-03  0.9470E-02  0.2550E-03  0.2293E+00  0.3327E-01
   -0.074999   13.08398  0.0000E+00  0.5211E-03  0.2349E-02  0.3943E-03  0.1310E+00  0.1073E+02
   -0.112499   13.11078  0.0000E+00  0.4109E-03  0.1408E-02  0.4467E-03  0.9544E-01 -0.7644E-01
   -0.149999   13.12242  0.0000E+00  0.3398E-03  0.9508E-03  0.4563E-03  0.7577E-01 -0.1520E+00
   -0.187500   13.12905  0.0000E+00  0.2900E-03  0.6539E-03  0.4547E-03  0.6459E-01  0.4702E-01
   -0.225001   13.13433  0.0000E+00  0.2504E-03  0.4511E-03  0.4633E-03  0.5680E-01  0.2344E-01
   -0.262502   13.13761  0.0000E+00  0.2186E-03  0.3116E-03  0.4706E-03  0.5086E-01  0.9594E-01
   -0.300004   13.14012  0.0000E+00  0.1941E-03  0.2162E-03  0.4659E-03  0.4655E-01  0.2823E+00
   -0.337505   13.14227  0.0000E+00  0.1729E-03  0.1495E-03  0.4783E-03  0.4258E-01  0.1040E+00
   -0.375007   13.14411  0.0000E+00  0.1554E-03  0.1029E-03  0.4839E-03  0.3934E-01  0.1344E+01
   -0.412509   13.14610  0.0000E+00  0.1413E-03  0.7157E-04  0.4882E-03  0.3656E-01  0.1974E+01
   -0.450012   13.14778  0.0000E+00  0.1295E-03  0.5067E-04  0.5088E-03  0.3389E-01  0.1764E+01
   -0.487514   13.14916  0.0000E+00  0.1200E-03  0.3162E-04  0.4949E-03  0.3148E-01  0.3885E+01
   -0.525016   13.15266  0.0000E+00  0.1104E-03  0.2035E-04  0.5298E-03  0.2790E-01  0.3576E+00
   -0.562519   13.15489  0.0000E+00  0.1029E-03  0.1425E-04  0.5370E-03  0.2592E-01  0.8997E+02
   -0.600022   13.15912  0.0000E+00  0.9607E-04  0.1000E-04  0.5547E-03  0.2362E-01  0.2115E+02
   -0.637525   13.16094  0.0000E+00  0.9007E-04  0.6946E-05  0.5711E-03  0.2205E-01  0.4770E+02
   -0.675027   13.16221  0.0000E+00  0.8486E-04  0.4808E-05  0.5838E-03  0.2067E-01  0.9019E+02
   -0.712530   13.16387  0.0000E+00  0.8007E-04  0.3482E-05  0.6058E-03  0.1931E-01  0.6336E+01
   -0.750033   13.16501  0.0000E+00  0.7574E-04  0.2492E-05  0.6238E-03  0.1812E-01  0.1938E+02
   -0.787536   13.16624  0.0000E+00  0.7178E-04  0.1839E-05  0.6394E-03  0.1700E-01  0.1938E+02
   -0.825039   13.16732  0.0000E+00  0.6818E-04  0.1446E-05  0.6632E-03  0.1595E-01  0.1154E+03
   -0.862542   13.16839  0.0000E+00  0.6482E-04  0.1176E-05  0.6698E-03  0.1497E-01  0.4643E+02
   -0.900045   13.16956  0.0000E+00  0.6170E-04  0.9879E-06  0.7051E-03  0.1403E-01  0.4617E+01
   -0.937547   13.17046  0.0000E+00  0.5876E-04  0.8559E-06  0.7298E-03  0.1314E-01  0.2390E+03
   -0.975050   13.17150  0.0000E+00  0.5594E-04  0.7531E-06  0.7345E-03  0.1229E-01  0.1334E+03
   -1.012553   13.17257  0.0000E+00  0.5320E-04  0.6767E-06  0.7637E-03  0.1146E-01  0.1660E+03
   -1.050055   13.17348  0.0000E+00  0.5050E-04  0.6165E-06  0.7829E-03  0.1069E-01  0.1377E+03
   -1.087557   13.17448  0.0000E+00  0.4780E-04  0.5694E-06  0.7660E-03  0.9947E-02  0.2523E+03
   -1.125059   13.17543  0.0000E+00  0.4508E-04  0.5342E-06  0.7353E-03  0.9240E-02  0.3382E+02
   -1.162561   13.17647  0.0000E+00  0.4235E-04  0.5114E-06  0.7075E-03  0.8565E-02  0.1434E+03
   -1.200063   13.17753  0.0000E+00  0.3953E-04  0.5027E-06  0.6338E-03  0.7906E-02  0.9114E+02
   -1.237564   13.17871  0.0000E+00  0.3657E-04  0.5124E-06  0.5709E-03  0.7251E-02  0.7278E+02
   -1.275066   13.18003  0.0000E+00  0.3335E-04  0.5506E-06  0.5041E-03  0.6588E-02  0.1439E+04
   -1.312566   13.18155  0.0000E+00  0.2978E-04  0.6378E-06  0.4191E-03  0.5942E-02  0.7915E+04
   -1.350067   13.18338  0.0000E+00  0.2568E-04  0.8191E-06  0.3225E-03  0.5282E-02  0.4854E+03
   -1.387567   13.18589  0.0000E+00  0.2088E-04  0.1210E-05  0.2506E-03  0.4541E-02  0.2302E+05
   -1.425068   13.18922  0.0000E+00  0.1541E-04  0.2179E-05  0.1569E-03  0.3712E-02  0.1693E+03
   -1.462567   13.19586  0.0000E+00  0.9827E-05  0.4434E-05  0.9221E-04  0.2874E-02 -0.8615E+06
   -1.500067   13.21701  0.0000E+00  0.0000E+00  0.0000E+00  0.0000E+00  0.3695E-02  0.0000E+00
