 1 - depth, m
 2 - temperature, C
 3 - salinity, kg/kg
 4 - turbulent kinetic energy, m**2/s**2
 5 - dissipation rate, m**2/s**3
 6 - kinematic heat conductance, m**2/s
 7 - modulus of horizontal velocity, m/s
 8 - Richardson number, n/d
   -0.000000    0.00000  0.0000E+00  0.2571E-08  0.5180E-11  0.3252E-09  0.0000E+00  0.4372E+17
   -0.037500    0.72607  0.0000E+00  0.1233E-07  0.4735E-11  0.3769E-09  0.0000E+00  0.3458E+17
   -0.075000    1.45357  0.0000E+00  0.3132E-07  0.7526E-11  0.7974E-09  0.0000E+00  0.2600E+17
   -0.112501    2.19702  0.0000E+00  0.6503E-07  0.1361E-10  0.2200E-08  0.0000E+00  0.1722E+17
   -0.150002    2.97010  0.0000E+00  0.1246E-06  0.2477E-10  0.1128E-07  0.0000E+00  0.7526E+16
   -0.187503    3.74874  0.0000E+00  0.1723E-06  0.3368E-10  0.1038E-03  0.0000E+00  0.8328E+15
   -0.225005    4.08869  0.0000E+00  0.1737E-06  0.3397E-10  0.2824E-03  0.0000E+00 -0.7202E+12
   -0.262507    4.08913  0.0000E+00  0.1744E-06  0.3416E-10  0.2802E-03  0.0000E+00 -0.7054E+12
   -0.300009    4.08957  0.0000E+00  0.1750E-06  0.3436E-10  0.2806E-03  0.0000E+00 -0.6985E+12
   -0.337511    4.09000  0.0000E+00  0.1755E-06  0.3457E-10  0.2806E-03  0.0000E+00 -0.6934E+12
   -0.375013    4.09043  0.0000E+00  0.1759E-06  0.3479E-10  0.2802E-03  0.0000E+00 -0.6889E+12
   -0.412516    4.09086  0.0000E+00  0.1762E-06  0.3504E-10  0.2795E-03  0.0000E+00 -0.6843E+12
   -0.450019    4.09128  0.0000E+00  0.1765E-06  0.3529E-10  0.2783E-03  0.0000E+00 -0.6817E+12
   -0.487522    4.09170  0.0000E+00  0.1766E-06  0.3557E-10  0.2768E-03  0.0000E+00 -0.6803E+12
   -0.525025    4.09211  0.0000E+00  0.1767E-06  0.3588E-10  0.2748E-03  0.0000E+00 -0.6809E+12
   -0.562528    4.09252  0.0000E+00  0.1766E-06  0.3621E-10  0.2724E-03  0.0000E+00 -0.6827E+12
   -0.600032    4.09293  0.0000E+00  0.1765E-06  0.3657E-10  0.2695E-03  0.0000E+00 -0.6865E+12
   -0.637535    4.09335  0.0000E+00  0.1763E-06  0.3696E-10  0.2662E-03  0.0000E+00 -0.6915E+12
   -0.675039    4.09376  0.0000E+00  0.1760E-06  0.3739E-10  0.2625E-03  0.0000E+00 -0.6989E+12
   -0.712542    4.09418  0.0000E+00  0.1756E-06  0.3787E-10  0.2584E-03  0.0000E+00 -0.7076E+12
   -0.750046    4.09460  0.0000E+00  0.1751E-06  0.3840E-10  0.2537E-03  0.0000E+00 -0.7185E+12
   -0.787549    4.09502  0.0000E+00  0.1745E-06  0.3898E-10  0.2487E-03  0.0000E+00 -0.7311E+12
   -0.825053    4.09545  0.0000E+00  0.1738E-06  0.3963E-10  0.2431E-03  0.0000E+00 -0.7466E+12
   -0.862556    4.09589  0.0000E+00  0.1731E-06  0.4035E-10  0.2371E-03  0.0000E+00 -0.7642E+12
   -0.900060    4.09633  0.0000E+00  0.1722E-06  0.4115E-10  0.2305E-03  0.0000E+00 -0.7854E+12
   -0.937563    4.09679  0.0000E+00  0.1712E-06  0.4206E-10  0.2235E-03  0.0000E+00 -0.8095E+12
   -0.975066    4.09726  0.0000E+00  0.1701E-06  0.4308E-10  0.2160E-03  0.0000E+00 -0.8381E+12
   -1.012569    4.09774  0.0000E+00  0.1688E-06  0.4424E-10  0.2079E-03  0.0000E+00 -0.8711E+12
   -1.050072    4.09824  0.0000E+00  0.1674E-06  0.4559E-10  0.1992E-03  0.0000E+00 -0.9108E+12
   -1.087575    4.09876  0.0000E+00  0.1659E-06  0.4716E-10  0.1898E-03  0.0000E+00 -0.9573E+12
   -1.125078    4.09931  0.0000E+00  0.1641E-06  0.4901E-10  0.1798E-03  0.0000E+00 -0.1013E+13
   -1.162580    4.09988  0.0000E+00  0.1622E-06  0.5121E-10  0.1691E-03  0.0000E+00 -0.1080E+13
   -1.200083    4.10049  0.0000E+00  0.1600E-06  0.5387E-10  0.1576E-03  0.0000E+00 -0.1162E+13
   -1.237585    4.10114  0.0000E+00  0.1575E-06  0.5713E-10  0.1454E-03  0.0000E+00 -0.1265E+13
   -1.275087    4.10184  0.0000E+00  0.1547E-06  0.6132E-10  0.1321E-03  0.0000E+00 -0.1399E+13
   -1.312588    4.10261  0.0000E+00  0.1513E-06  0.6693E-10  0.1173E-03  0.0000E+00 -0.1585E+13
   -1.350089    4.10348  0.0000E+00  0.1472E-06  0.7483E-10  0.1032E-03  0.0000E+00 -0.1815E+13
   -1.387590    4.10447  0.0000E+00  0.1407E-06  0.8974E-10  0.5827E-04  0.0000E+00 -0.3243E+13
   -1.425091    4.10622  0.0000E+00  0.1269E-06  0.1303E-09  0.2305E-04  0.0000E+00 -0.8408E+13
   -1.462591    4.11064  0.0000E+00  0.7731E-07  0.3642E-09  0.2397E-05  0.0000E+00 -0.9136E+14
   -1.500091    4.15112  0.0000E+00  0.0000E+00  0.0000E+00  0.0000E+00  0.0000E+00  0.0000E+00
