 1 - depth, m
 2 - temperature, C
 3 - salinity, kg/kg
 4 - turbulent kinetic energy, m**2/s**2
 5 - dissipation rate, m**2/s**3
 6 - kinematic heat conductance, m**2/s
 7 - modulus of horizontal velocity, m/s
 8 - Richardson number, n/d
   -0.000000    0.00000  0.0000E+00  0.5960E-08  0.1456E-10  0.6580E-09  0.0000E+00  0.6132E+17
   -0.037500    1.07201  0.0000E+00  0.3312E-07  0.1246E-10  0.8447E-09  0.0000E+00  0.4097E+17
   -0.075001    2.12548  0.0000E+00  0.8419E-07  0.1850E-10  0.2322E-08  0.0000E+00  0.2215E+17
   -0.112501    3.15140  0.0000E+00  0.1692E-06  0.3152E-10  0.1615E-07  0.0000E+00  0.5452E+16
   -0.150002    4.07156  0.0000E+00  0.1709E-06  0.3181E-10  0.2927E-03  0.0000E+00 -0.6676E+12
   -0.187504    4.07204  0.0000E+00  0.1716E-06  0.3196E-10  0.2890E-03  0.0000E+00 -0.6467E+12
   -0.225006    4.07252  0.0000E+00  0.1722E-06  0.3212E-10  0.2897E-03  0.0000E+00 -0.6370E+12
   -0.262507    4.07300  0.0000E+00  0.1727E-06  0.3229E-10  0.2901E-03  0.0000E+00 -0.6299E+12
   -0.300010    4.07346  0.0000E+00  0.1731E-06  0.3247E-10  0.2900E-03  0.0000E+00 -0.6240E+12
   -0.337512    4.07392  0.0000E+00  0.1735E-06  0.3266E-10  0.2896E-03  0.0000E+00 -0.6198E+12
   -0.375015    4.07437  0.0000E+00  0.1737E-06  0.3286E-10  0.2888E-03  0.0000E+00 -0.6157E+12
   -0.412517    4.07482  0.0000E+00  0.1739E-06  0.3308E-10  0.2876E-03  0.0000E+00 -0.6127E+12
   -0.450020    4.07526  0.0000E+00  0.1740E-06  0.3332E-10  0.2860E-03  0.0000E+00 -0.6105E+12
   -0.487524    4.07570  0.0000E+00  0.1740E-06  0.3357E-10  0.2840E-03  0.0000E+00 -0.6101E+12
   -0.525027    4.07614  0.0000E+00  0.1739E-06  0.3385E-10  0.2817E-03  0.0000E+00 -0.6106E+12
   -0.562530    4.07657  0.0000E+00  0.1737E-06  0.3415E-10  0.2789E-03  0.0000E+00 -0.6129E+12
   -0.600034    4.07700  0.0000E+00  0.1735E-06  0.3448E-10  0.2756E-03  0.0000E+00 -0.6161E+12
   -0.637537    4.07744  0.0000E+00  0.1731E-06  0.3485E-10  0.2720E-03  0.0000E+00 -0.6212E+12
   -0.675041    4.07787  0.0000E+00  0.1727E-06  0.3525E-10  0.2679E-03  0.0000E+00 -0.6273E+12
   -0.712544    4.07831  0.0000E+00  0.1722E-06  0.3569E-10  0.2634E-03  0.0000E+00 -0.6355E+12
   -0.750048    4.07875  0.0000E+00  0.1716E-06  0.3618E-10  0.2585E-03  0.0000E+00 -0.6447E+12
   -0.787552    4.07920  0.0000E+00  0.1710E-06  0.3672E-10  0.2531E-03  0.0000E+00 -0.6561E+12
   -0.825055    4.07965  0.0000E+00  0.1702E-06  0.3732E-10  0.2473E-03  0.0000E+00 -0.6692E+12
   -0.862559    4.08011  0.0000E+00  0.1694E-06  0.3800E-10  0.2409E-03  0.0000E+00 -0.6849E+12
   -0.900063    4.08058  0.0000E+00  0.1684E-06  0.3875E-10  0.2341E-03  0.0000E+00 -0.7028E+12
   -0.937566    4.08105  0.0000E+00  0.1673E-06  0.3960E-10  0.2268E-03  0.0000E+00 -0.7240E+12
   -0.975069    4.08154  0.0000E+00  0.1662E-06  0.4055E-10  0.2191E-03  0.0000E+00 -0.7483E+12
   -1.012573    4.08204  0.0000E+00  0.1649E-06  0.4164E-10  0.2107E-03  0.0000E+00 -0.7774E+12
   -1.050076    4.08256  0.0000E+00  0.1635E-06  0.4291E-10  0.2018E-03  0.0000E+00 -0.8116E+12
   -1.087579    4.08310  0.0000E+00  0.1619E-06  0.4438E-10  0.1922E-03  0.0000E+00 -0.8524E+12
   -1.125082    4.08366  0.0000E+00  0.1601E-06  0.4612E-10  0.1820E-03  0.0000E+00 -0.9004E+12
   -1.162584    4.08425  0.0000E+00  0.1582E-06  0.4819E-10  0.1711E-03  0.0000E+00 -0.9588E+12
   -1.200087    4.08488  0.0000E+00  0.1560E-06  0.5069E-10  0.1594E-03  0.0000E+00 -0.1030E+13
   -1.237589    4.08554  0.0000E+00  0.1536E-06  0.5376E-10  0.1470E-03  0.0000E+00 -0.1119E+13
   -1.275091    4.08626  0.0000E+00  0.1508E-06  0.5770E-10  0.1335E-03  0.0000E+00 -0.1237E+13
   -1.312592    4.08705  0.0000E+00  0.1475E-06  0.6298E-10  0.1186E-03  0.0000E+00 -0.1400E+13
   -1.350094    4.08794  0.0000E+00  0.1435E-06  0.7038E-10  0.1046E-03  0.0000E+00 -0.1594E+13
   -1.387595    4.08894  0.0000E+00  0.1372E-06  0.8449E-10  0.5535E-04  0.0000E+00 -0.3046E+13
   -1.425096    4.09083  0.0000E+00  0.1235E-06  0.1235E-09  0.2245E-04  0.0000E+00 -0.7721E+13
   -1.462596    4.09545  0.0000E+00  0.7517E-07  0.3469E-09  0.2353E-05  0.0000E+00 -0.8531E+14
   -1.500096    4.13740  0.0000E+00  0.0000E+00  0.0000E+00  0.0000E+00  0.0000E+00  0.0000E+00
