 1 - depth, m
 2 - temperature, C
 3 - salinity, kg/kg
 4 - turbulent kinetic energy, m**2/s**2
 5 - dissipation rate, m**2/s**3
 6 - kinematic heat conductance, m**2/s
 7 - modulus of horizontal velocity, m/s
 8 - Richardson number, n/d
   -0.000000    0.00000  0.0000E+00  0.4096E-13  0.8590E-16  0.1000E-09  0.0000E+00  0.8268E+16
   -0.037494    0.12617  0.0000E+00  0.4096E-13  0.8590E-16  0.1000E-09  0.0000E+00  0.7981E+16
   -0.074988    0.25227  0.0000E+00  0.4096E-13  0.8590E-16  0.1000E-09  0.0000E+00  0.7692E+16
   -0.112482    0.37824  0.0000E+00  0.4096E-13  0.8590E-16  0.1000E-09  0.0000E+00  0.7400E+16
   -0.149977    0.50401  0.0000E+00  0.4096E-13  0.8590E-16  0.1000E-09  0.0000E+00  0.7108E+16
   -0.187472    0.62951  0.0000E+00  0.4096E-13  0.8590E-16  0.1000E-09  0.0000E+00  0.6814E+16
   -0.224967    0.75467  0.0000E+00  0.4096E-13  0.8590E-16  0.1000E-09  0.0000E+00  0.6520E+16
   -0.262463    0.87942  0.0000E+00  0.4096E-13  0.8590E-16  0.1000E-09  0.0000E+00  0.6223E+16
   -0.299958    1.00360  0.0000E+00  0.4096E-13  0.8590E-16  0.1000E-09  0.0000E+00  0.5926E+16
   -0.337454    1.12712  0.0000E+00  0.4096E-13  0.8590E-16  0.1000E-09  0.0000E+00  0.5630E+16
   -0.374951    1.24989  0.0000E+00  0.4096E-13  0.8590E-16  0.1000E-09  0.0000E+00  0.5344E+16
   -0.412447    1.37200  0.0000E+00  0.4096E-13  0.8590E-16  0.1000E-09  0.0000E+00  0.5064E+16
   -0.449944    1.49348  0.0000E+00  0.4096E-13  0.8590E-16  0.1000E-09  0.0000E+00  0.4786E+16
   -0.487440    1.61426  0.0000E+00  0.4096E-13  0.8590E-16  0.1000E-09  0.0000E+00  0.4510E+16
   -0.524937    1.73422  0.0000E+00  0.4096E-13  0.8590E-16  0.1000E-09  0.0000E+00  0.4233E+16
   -0.562434    1.85320  0.0000E+00  0.4096E-13  0.8590E-16  0.1000E-09  0.0000E+00  0.3961E+16
   -0.599931    1.97111  0.0000E+00  0.4096E-13  0.8590E-16  0.1000E-09  0.0000E+00  0.3692E+16
   -0.637428    2.08785  0.0000E+00  0.4096E-13  0.8590E-16  0.1000E-09  0.0000E+00  0.3429E+16
   -0.674925    2.20331  0.0000E+00  0.4096E-13  0.8590E-16  0.1000E-09  0.0000E+00  0.3171E+16
   -0.712423    2.31738  0.0000E+00  0.4096E-13  0.8590E-16  0.1000E-09  0.0000E+00  0.2918E+16
   -0.749920    2.42995  0.0000E+00  0.4096E-13  0.8590E-16  0.1000E-09  0.0000E+00  0.2682E+16
   -0.787417    2.54133  0.0000E+00  0.4096E-13  0.8590E-16  0.1000E-09  0.0000E+00  0.2454E+16
   -0.824914    2.65156  0.0000E+00  0.4096E-13  0.8590E-16  0.1000E-09  0.0000E+00  0.2231E+16
   -0.862411    2.76055  0.0000E+00  0.4096E-13  0.8590E-16  0.1000E-09  0.0000E+00  0.2013E+16
   -0.899909    2.86820  0.0000E+00  0.4096E-13  0.8590E-16  0.1000E-09  0.0000E+00  0.1802E+16
   -0.937406    2.97441  0.0000E+00  0.4096E-13  0.8590E-16  0.1000E-09  0.0000E+00  0.1597E+16
   -0.974903    3.07906  0.0000E+00  0.1150E-12  0.8719E-16  0.1000E-09  0.0000E+00  0.1399E+16
   -1.012399    3.18203  0.0000E+00  0.3585E-12  0.2012E-15  0.1000E-09  0.0000E+00  0.1206E+16
   -1.049896    3.28292  0.0000E+00  0.9991E-12  0.5234E-15  0.1000E-09  0.0000E+00  0.1020E+16
   -1.087393    3.38147  0.0000E+00  0.2676E-11  0.1355E-14  0.1000E-09  0.0000E+00  0.8445E+15
   -1.124889    3.47742  0.0000E+00  0.7044E-11  0.3467E-14  0.1000E-09  0.0000E+00  0.6924E+15
   -1.162385    3.57253  0.0000E+00  0.1833E-10  0.8780E-14  0.1000E-09  0.0000E+00  0.5458E+15
   -1.199881    3.66703  0.0000E+00  0.4720E-10  0.2202E-13  0.1501E-09  0.0000E+00  0.4021E+15
   -1.237377    3.76087  0.0000E+00  0.1204E-09  0.5476E-13  0.5708E-09  0.0000E+00  0.2613E+15
   -1.274873    3.85382  0.0000E+00  0.3070E-09  0.1364E-12  0.2939E-08  0.0000E+00  0.1241E+15
   -1.312368    3.94475  0.0000E+00  0.7651E-09  0.3344E-12  0.6532E-07  0.0000E+00  0.9937E+13
   -1.349863    4.00794  0.0000E+00  0.1613E-08  0.7394E-12  0.1422E-05  0.0000E+00 -0.3382E+13
   -1.387358    4.01630  0.0000E+00  0.2013E-08  0.1105E-11  0.1373E-05  0.0000E+00 -0.4682E+13
   -1.424852    4.02501  0.0000E+00  0.2060E-08  0.1646E-11  0.8650E-06  0.0000E+00 -0.9405E+13
   -1.462346    4.03826  0.0000E+00  0.1619E-08  0.3010E-11  0.2196E-06  0.0000E+00 -0.4169E+14
   -1.499840    4.07590  0.0000E+00  0.0000E+00  0.0000E+00  0.0000E+00  0.0000E+00  0.0000E+00
