 1 - depth, m
 2 - temperature, C
 3 - salinity, kg/kg
 4 - turbulent kinetic energy, m**2/s**2
 5 - dissipation rate, m**2/s**3
 6 - kinematic heat conductance, m**2/s
 7 - modulus of horizontal velocity, m/s
 8 - Richardson number, n/d
   -0.000000    0.00000  0.0000E+00  0.5551E-10  0.4060E-13  0.1000E-09  0.0000E+00  0.2496E+17
   -0.037499    0.39532  0.0000E+00  0.1318E-09  0.3471E-13  0.1000E-09  0.0000E+00  0.2126E+17
   -0.074998    0.77262  0.0000E+00  0.2746E-09  0.4487E-13  0.1000E-09  0.0000E+00  0.1806E+17
   -0.112498    1.13446  0.0000E+00  0.5040E-09  0.6809E-13  0.1000E-09  0.0000E+00  0.1527E+17
   -0.149998    1.48311  0.0000E+00  0.8651E-09  0.1078E-12  0.1000E-09  0.0000E+00  0.1282E+17
   -0.187499    1.82067  0.0000E+00  0.1434E-08  0.1715E-12  0.1000E-09  0.0000E+00  0.1063E+17
   -0.224999    2.14915  0.0000E+00  0.2334E-08  0.2720E-12  0.1037E-09  0.0000E+00  0.8667E+16
   -0.262500    2.47046  0.0000E+00  0.3757E-08  0.4291E-12  0.1732E-09  0.0000E+00  0.6866E+16
   -0.300001    2.78636  0.0000E+00  0.6007E-08  0.6738E-12  0.3588E-09  0.0000E+00  0.5187E+16
   -0.337503    3.09836  0.0000E+00  0.9548E-08  0.1053E-11  0.8042E-09  0.0000E+00  0.3594E+16
   -0.375004    3.40739  0.0000E+00  0.1509E-07  0.1636E-11  0.2158E-08  0.0000E+00  0.2062E+16
   -0.412506    3.71379  0.0000E+00  0.2363E-07  0.2522E-11  0.1168E-07  0.0000E+00  0.5851E+15
   -0.450008    4.00180  0.0000E+00  0.2420E-07  0.2586E-11  0.8105E-04  0.0000E+00 -0.5724E+11
   -0.487510    4.00289  0.0000E+00  0.2445E-07  0.2619E-11  0.8003E-04  0.0000E+00 -0.1447E+12
   -0.525013    4.00344  0.0000E+00  0.2469E-07  0.2655E-11  0.8021E-04  0.0000E+00 -0.1493E+12
   -0.562515    4.00399  0.0000E+00  0.2492E-07  0.2694E-11  0.8041E-04  0.0000E+00 -0.1535E+12
   -0.600017    4.00454  0.0000E+00  0.2514E-07  0.2736E-11  0.8047E-04  0.0000E+00 -0.1580E+12
   -0.637520    4.00508  0.0000E+00  0.2534E-07  0.2782E-11  0.8035E-04  0.0000E+00 -0.1632E+12
   -0.675022    4.00563  0.0000E+00  0.2552E-07  0.2831E-11  0.8008E-04  0.0000E+00 -0.1686E+12
   -0.712525    4.00618  0.0000E+00  0.2569E-07  0.2885E-11  0.7963E-04  0.0000E+00 -0.1748E+12
   -0.750028    4.00673  0.0000E+00  0.2584E-07  0.2942E-11  0.7902E-04  0.0000E+00 -0.1803E+12
   -0.787530    4.00729  0.0000E+00  0.2597E-07  0.3004E-11  0.7823E-04  0.0000E+00 -0.1861E+12
   -0.825033    4.00785  0.0000E+00  0.2608E-07  0.3072E-11  0.7727E-04  0.0000E+00 -0.1924E+12
   -0.862536    4.00842  0.0000E+00  0.2617E-07  0.3145E-11  0.7611E-04  0.0000E+00 -0.1996E+12
   -0.900038    4.00899  0.0000E+00  0.2624E-07  0.3225E-11  0.7476E-04  0.0000E+00 -0.2075E+12
   -0.937541    4.00957  0.0000E+00  0.2628E-07  0.3312E-11  0.7320E-04  0.0000E+00 -0.2167E+12
   -0.975043    4.01016  0.0000E+00  0.2629E-07  0.3408E-11  0.7144E-04  0.0000E+00 -0.2269E+12
   -1.012545    4.01076  0.0000E+00  0.2628E-07  0.3515E-11  0.6944E-04  0.0000E+00 -0.2394E+12
   -1.050047    4.01138  0.0000E+00  0.2624E-07  0.3635E-11  0.6718E-04  0.0000E+00 -0.2540E+12
   -1.087549    4.01202  0.0000E+00  0.2616E-07  0.3772E-11  0.6465E-04  0.0000E+00 -0.2714E+12
   -1.125051    4.01269  0.0000E+00  0.2604E-07  0.3930E-11  0.6183E-04  0.0000E+00 -0.2900E+12
   -1.162553    4.01339  0.0000E+00  0.2587E-07  0.4114E-11  0.5868E-04  0.0000E+00 -0.3122E+12
   -1.200054    4.01412  0.0000E+00  0.2565E-07  0.4331E-11  0.5519E-04  0.0000E+00 -0.3395E+12
   -1.237555    4.01490  0.0000E+00  0.2537E-07  0.4593E-11  0.5129E-04  0.0000E+00 -0.3745E+12
   -1.275056    4.01573  0.0000E+00  0.2500E-07  0.4924E-11  0.4709E-04  0.0000E+00 -0.4194E+12
   -1.312557    4.01663  0.0000E+00  0.2445E-07  0.5428E-11  0.3757E-04  0.0000E+00 -0.5436E+12
   -1.350057    4.01777  0.0000E+00  0.2352E-07  0.6331E-11  0.2436E-04  0.0000E+00 -0.8775E+12
   -1.387557    4.01952  0.0000E+00  0.2199E-07  0.7991E-11  0.1490E-04  0.0000E+00 -0.1535E+13
   -1.425057    4.02238  0.0000E+00  0.1922E-07  0.1185E-10  0.6700E-05  0.0000E+00 -0.3867E+13
   -1.462556    4.02871  0.0000E+00  0.1206E-07  0.2913E-10  0.8772E-06  0.0000E+00 -0.4271E+14
   -1.500055    4.07153  0.0000E+00  0.0000E+00  0.0000E+00  0.0000E+00  0.0000E+00  0.0000E+00
