 1 - depth, m
 2 - temperature, C
 3 - salinity, kg/kg
 4 - turbulent kinetic energy, m**2/s**2
 5 - dissipation rate, m**2/s**3
 6 - kinematic heat conductance, m**2/s
 7 - modulus of horizontal velocity, m/s
 8 - Richardson number, n/d
   -0.000000    0.00000  0.0000E+00  0.4096E-13  0.8590E-16  0.1000E-09  0.0000E+00  0.7529E+16
   -0.037499    0.11471  0.0000E+00  0.4096E-13  0.8590E-16  0.1000E-09  0.0000E+00  0.7257E+16
   -0.074997    0.22880  0.0000E+00  0.4096E-13  0.8590E-16  0.1000E-09  0.0000E+00  0.6990E+16
   -0.112497    0.34230  0.0000E+00  0.4096E-13  0.8590E-16  0.1000E-09  0.0000E+00  0.6728E+16
   -0.149996    0.45521  0.0000E+00  0.4096E-13  0.8590E-16  0.1000E-09  0.0000E+00  0.6472E+16
   -0.187496    0.56756  0.0000E+00  0.4096E-13  0.8590E-16  0.1000E-09  0.0000E+00  0.6222E+16
   -0.224996    0.67937  0.0000E+00  0.4096E-13  0.8590E-16  0.1000E-09  0.0000E+00  0.5976E+16
   -0.262497    0.79066  0.0000E+00  0.4096E-13  0.8590E-16  0.1000E-09  0.0000E+00  0.5732E+16
   -0.299997    0.90139  0.0000E+00  0.4096E-13  0.8590E-16  0.1000E-09  0.0000E+00  0.5491E+16
   -0.337498    1.01154  0.0000E+00  0.4096E-13  0.8590E-16  0.1000E-09  0.0000E+00  0.5254E+16
   -0.374999    1.12109  0.0000E+00  0.4096E-13  0.8590E-16  0.1000E-09  0.0000E+00  0.5026E+16
   -0.412500    1.23017  0.0000E+00  0.4096E-13  0.8590E-16  0.1000E-09  0.0000E+00  0.4804E+16
   -0.450002    1.33882  0.0000E+00  0.4096E-13  0.8590E-16  0.1000E-09  0.0000E+00  0.4583E+16
   -0.487503    1.44700  0.0000E+00  0.4096E-13  0.8590E-16  0.1000E-09  0.0000E+00  0.4364E+16
   -0.525005    1.55467  0.0000E+00  0.4096E-13  0.8590E-16  0.1000E-09  0.0000E+00  0.4145E+16
   -0.562507    1.66174  0.0000E+00  0.4096E-13  0.8590E-16  0.1000E-09  0.0000E+00  0.3927E+16
   -0.600009    1.76816  0.0000E+00  0.4096E-13  0.8590E-16  0.1000E-09  0.0000E+00  0.3713E+16
   -0.637511    1.87387  0.0000E+00  0.4096E-13  0.8590E-16  0.1000E-09  0.0000E+00  0.3500E+16
   -0.675013    1.97881  0.0000E+00  0.4096E-13  0.8590E-16  0.1000E-09  0.0000E+00  0.3290E+16
   -0.712515    2.08290  0.0000E+00  0.4096E-13  0.8590E-16  0.1000E-09  0.0000E+00  0.3083E+16
   -0.750017    2.18607  0.0000E+00  0.4096E-13  0.8590E-16  0.1000E-09  0.0000E+00  0.2887E+16
   -0.787519    2.28852  0.0000E+00  0.4096E-13  0.8590E-16  0.1000E-09  0.0000E+00  0.2695E+16
   -0.825021    2.39026  0.0000E+00  0.4096E-13  0.8590E-16  0.1000E-09  0.0000E+00  0.2506E+16
   -0.862523    2.49123  0.0000E+00  0.4096E-13  0.8590E-16  0.1000E-09  0.0000E+00  0.2320E+16
   -0.900025    2.59137  0.0000E+00  0.4096E-13  0.8590E-16  0.1000E-09  0.0000E+00  0.2137E+16
   -0.937527    2.69061  0.0000E+00  0.4096E-13  0.8590E-16  0.1000E-09  0.0000E+00  0.1957E+16
   -0.975029    2.78887  0.0000E+00  0.4096E-13  0.8590E-16  0.1000E-09  0.0000E+00  0.1782E+16
   -1.012531    2.88608  0.0000E+00  0.4096E-13  0.8590E-16  0.1000E-09  0.0000E+00  0.1608E+16
   -1.050032    2.98203  0.0000E+00  0.4096E-13  0.8590E-16  0.1000E-09  0.0000E+00  0.1439E+16
   -1.087534    3.07657  0.0000E+00  0.4096E-13  0.8590E-16  0.1000E-09  0.0000E+00  0.1275E+16
   -1.125035    3.16958  0.0000E+00  0.4096E-13  0.8590E-16  0.1000E-09  0.0000E+00  0.1129E+16
   -1.162536    3.26197  0.0000E+00  0.4096E-13  0.8590E-16  0.1000E-09  0.0000E+00  0.9872E+15
   -1.200037    3.35388  0.0000E+00  0.4096E-13  0.8590E-16  0.1000E-09  0.0000E+00  0.8477E+15
   -1.237538    3.44526  0.0000E+00  0.4096E-13  0.8590E-16  0.1000E-09  0.0000E+00  0.7107E+15
   -1.275038    3.53607  0.0000E+00  0.1069E-12  0.1447E-15  0.1000E-09  0.0000E+00  0.5768E+15
   -1.312538    3.62639  0.0000E+00  0.4594E-12  0.5803E-15  0.1000E-09  0.0000E+00  0.4453E+15
   -1.350038    3.71617  0.0000E+00  0.1979E-11  0.2462E-14  0.1000E-09  0.0000E+00  0.3162E+15
   -1.387538    3.80537  0.0000E+00  0.8475E-11  0.1052E-13  0.1284E-09  0.0000E+00  0.1899E+15
   -1.425037    3.89388  0.0000E+00  0.3615E-10  0.4570E-13  0.1211E-08  0.0000E+00  0.6674E+14
   -1.462536    3.98099  0.0000E+00  0.1498E-09  0.2077E-12  0.4089E-07  0.0000E+00 -0.2998E+14
   -1.500034    4.04843  0.0000E+00  0.0000E+00  0.0000E+00  0.0000E+00  0.0000E+00  0.0000E+00
