 1 - depth, m
 2 - temperature, C
 3 - salinity, kg/kg
 4 - turbulent kinetic energy, m**2/s**2
 5 - dissipation rate, m**2/s**3
 6 - kinematic heat conductance, m**2/s
 7 - modulus of horizontal velocity, m/s
 8 - Richardson number, n/d
   -0.000000    0.00000  0.0000E+00  0.6469E-08  0.1616E-10  0.7267E-09  0.0000E+00  0.6161E+17
   -0.037494    1.07813  0.0000E+00  0.3658E-07  0.1409E-10  0.9527E-09  0.0000E+00  0.4110E+17
   -0.074989    2.13940  0.0000E+00  0.9382E-07  0.2149E-10  0.2709E-08  0.0000E+00  0.2204E+17
   -0.112483    3.17467  0.0000E+00  0.1903E-06  0.3733E-10  0.2027E-07  0.0000E+00  0.5126E+16
   -0.149979    4.08610  0.0000E+00  0.1921E-06  0.3766E-10  0.3115E-03  0.0000E+00 -0.7466E+12
   -0.187474    4.08656  0.0000E+00  0.1929E-06  0.3784E-10  0.3076E-03  0.0000E+00 -0.7236E+12
   -0.224970    4.08702  0.0000E+00  0.1935E-06  0.3803E-10  0.3083E-03  0.0000E+00 -0.7128E+12
   -0.262466    4.08747  0.0000E+00  0.1941E-06  0.3822E-10  0.3086E-03  0.0000E+00 -0.7043E+12
   -0.299962    4.08792  0.0000E+00  0.1945E-06  0.3843E-10  0.3085E-03  0.0000E+00 -0.6978E+12
   -0.337458    4.08836  0.0000E+00  0.1949E-06  0.3865E-10  0.3080E-03  0.0000E+00 -0.6928E+12
   -0.374955    4.08879  0.0000E+00  0.1952E-06  0.3889E-10  0.3071E-03  0.0000E+00 -0.6883E+12
   -0.412452    4.08922  0.0000E+00  0.1953E-06  0.3915E-10  0.3058E-03  0.0000E+00 -0.6847E+12
   -0.449949    4.08965  0.0000E+00  0.1954E-06  0.3943E-10  0.3041E-03  0.0000E+00 -0.6825E+12
   -0.487446    4.09007  0.0000E+00  0.1954E-06  0.3973E-10  0.3019E-03  0.0000E+00 -0.6819E+12
   -0.524943    4.09049  0.0000E+00  0.1953E-06  0.4006E-10  0.2993E-03  0.0000E+00 -0.6827E+12
   -0.562441    4.09091  0.0000E+00  0.1951E-06  0.4042E-10  0.2963E-03  0.0000E+00 -0.6852E+12
   -0.599938    4.09132  0.0000E+00  0.1948E-06  0.4082E-10  0.2928E-03  0.0000E+00 -0.6892E+12
   -0.637436    4.09174  0.0000E+00  0.1944E-06  0.4125E-10  0.2889E-03  0.0000E+00 -0.6949E+12
   -0.674933    4.09216  0.0000E+00  0.1940E-06  0.4173E-10  0.2845E-03  0.0000E+00 -0.7022E+12
   -0.712431    4.09259  0.0000E+00  0.1934E-06  0.4226E-10  0.2797E-03  0.0000E+00 -0.7115E+12
   -0.749929    4.09301  0.0000E+00  0.1927E-06  0.4284E-10  0.2744E-03  0.0000E+00 -0.7224E+12
   -0.787426    4.09345  0.0000E+00  0.1920E-06  0.4349E-10  0.2686E-03  0.0000E+00 -0.7355E+12
   -0.824924    4.09388  0.0000E+00  0.1911E-06  0.4421E-10  0.2623E-03  0.0000E+00 -0.7509E+12
   -0.862422    4.09433  0.0000E+00  0.1902E-06  0.4501E-10  0.2556E-03  0.0000E+00 -0.7690E+12
   -0.899919    4.09478  0.0000E+00  0.1891E-06  0.4591E-10  0.2483E-03  0.0000E+00 -0.7901E+12
   -0.937417    4.09525  0.0000E+00  0.1879E-06  0.4692E-10  0.2405E-03  0.0000E+00 -0.8145E+12
   -0.974914    4.09573  0.0000E+00  0.1866E-06  0.4806E-10  0.2322E-03  0.0000E+00 -0.8429E+12
   -1.012412    4.09622  0.0000E+00  0.1852E-06  0.4937E-10  0.2233E-03  0.0000E+00 -0.8763E+12
   -1.049909    4.09673  0.0000E+00  0.1836E-06  0.5087E-10  0.2137E-03  0.0000E+00 -0.9159E+12
   -1.087406    4.09726  0.0000E+00  0.1818E-06  0.5263E-10  0.2035E-03  0.0000E+00 -0.9628E+12
   -1.124903    4.09781  0.0000E+00  0.1798E-06  0.5471E-10  0.1926E-03  0.0000E+00 -0.1018E+13
   -1.162399    4.09839  0.0000E+00  0.1776E-06  0.5718E-10  0.1809E-03  0.0000E+00 -0.1085E+13
   -1.199896    4.09901  0.0000E+00  0.1752E-06  0.6017E-10  0.1685E-03  0.0000E+00 -0.1168E+13
   -1.237392    4.09967  0.0000E+00  0.1725E-06  0.6384E-10  0.1554E-03  0.0000E+00 -0.1270E+13
   -1.274888    4.10039  0.0000E+00  0.1693E-06  0.6854E-10  0.1410E-03  0.0000E+00 -0.1405E+13
   -1.312384    4.10117  0.0000E+00  0.1656E-06  0.7484E-10  0.1252E-03  0.0000E+00 -0.1592E+13
   -1.349879    4.10205  0.0000E+00  0.1612E-06  0.8369E-10  0.1103E-03  0.0000E+00 -0.1816E+13
   -1.387374    4.10305  0.0000E+00  0.1541E-06  0.1004E-09  0.6198E-04  0.0000E+00 -0.3265E+13
   -1.424869    4.10483  0.0000E+00  0.1391E-06  0.1460E-09  0.2423E-04  0.0000E+00 -0.8566E+13
   -1.462363    4.10937  0.0000E+00  0.8441E-07  0.4122E-09  0.2491E-05  0.0000E+00 -0.9497E+14
   -1.499858    4.15152  0.0000E+00  0.0000E+00  0.0000E+00  0.0000E+00  0.0000E+00  0.0000E+00
