 1 - depth, m
 2 - temperature, C
 3 - salinity, kg/kg
 4 - turbulent kinetic energy, m**2/s**2
 5 - dissipation rate, m**2/s**3
 6 - kinematic heat conductance, m**2/s
 7 - modulus of horizontal velocity, m/s
 8 - Richardson number, n/d
   -0.000000    0.00000  0.0000E+00  0.3913E-10  0.2598E-13  0.1000E-09  0.0000E+00  0.2659E+17
   -0.037493    0.42278  0.0000E+00  0.8782E-10  0.2191E-13  0.1000E-09  0.0000E+00  0.2234E+17
   -0.074985    0.82424  0.0000E+00  0.1781E-09  0.2738E-13  0.1000E-09  0.0000E+00  0.1861E+17
   -0.112479    1.20516  0.0000E+00  0.3207E-09  0.4026E-13  0.1000E-09  0.0000E+00  0.1535E+17
   -0.149972    1.56633  0.0000E+00  0.5402E-09  0.6208E-13  0.1000E-09  0.0000E+00  0.1250E+17
   -0.187466    1.90852  0.0000E+00  0.8783E-09  0.9656E-13  0.1000E-09  0.0000E+00  0.1003E+17
   -0.224960    2.23248  0.0000E+00  0.1401E-08  0.1499E-12  0.1000E-09  0.0000E+00  0.7883E+16
   -0.262455    2.53890  0.0000E+00  0.2210E-08  0.2317E-12  0.1069E-09  0.0000E+00  0.6034E+16
   -0.299949    2.82853  0.0000E+00  0.3463E-08  0.3568E-12  0.2230E-09  0.0000E+00  0.4443E+16
   -0.337444    3.10177  0.0000E+00  0.5399E-08  0.5473E-12  0.4931E-09  0.0000E+00  0.3082E+16
   -0.374939    3.35889  0.0000E+00  0.8381E-08  0.8364E-12  0.1202E-08  0.0000E+00  0.1933E+16
   -0.412434    3.60050  0.0000E+00  0.1295E-07  0.1272E-11  0.3660E-08  0.0000E+00  0.9663E+15
   -0.449930    3.82495  0.0000E+00  0.1973E-07  0.1913E-11  0.2668E-07  0.0000E+00  0.2006E+15
   -0.487425    4.00835  0.0000E+00  0.2018E-07  0.1959E-11  0.7472E-04  0.0000E+00 -0.1394E+12
   -0.524921    4.00875  0.0000E+00  0.2040E-07  0.1984E-11  0.7313E-04  0.0000E+00 -0.1443E+12
   -0.562417    4.00916  0.0000E+00  0.2060E-07  0.2012E-11  0.7338E-04  0.0000E+00 -0.1459E+12
   -0.599913    4.00956  0.0000E+00  0.2078E-07  0.2041E-11  0.7358E-04  0.0000E+00 -0.1478E+12
   -0.637409    4.00997  0.0000E+00  0.2095E-07  0.2073E-11  0.7363E-04  0.0000E+00 -0.1500E+12
   -0.674905    4.01037  0.0000E+00  0.2110E-07  0.2106E-11  0.7351E-04  0.0000E+00 -0.1525E+12
   -0.712401    4.01077  0.0000E+00  0.2123E-07  0.2143E-11  0.7322E-04  0.0000E+00 -0.1556E+12
   -0.749897    4.01117  0.0000E+00  0.2135E-07  0.2182E-11  0.7277E-04  0.0000E+00 -0.1588E+12
   -0.787393    4.01158  0.0000E+00  0.2144E-07  0.2224E-11  0.7214E-04  0.0000E+00 -0.1624E+12
   -0.824889    4.01198  0.0000E+00  0.2152E-07  0.2270E-11  0.7133E-04  0.0000E+00 -0.1665E+12
   -0.862385    4.01240  0.0000E+00  0.2158E-07  0.2320E-11  0.7034E-04  0.0000E+00 -0.1713E+12
   -0.899881    4.01281  0.0000E+00  0.2163E-07  0.2374E-11  0.6916E-04  0.0000E+00 -0.1768E+12
   -0.937377    4.01324  0.0000E+00  0.2164E-07  0.2433E-11  0.6779E-04  0.0000E+00 -0.1831E+12
   -0.974873    4.01367  0.0000E+00  0.2164E-07  0.2499E-11  0.6622E-04  0.0000E+00 -0.1903E+12
   -1.012369    4.01411  0.0000E+00  0.2161E-07  0.2572E-11  0.6442E-04  0.0000E+00 -0.1990E+12
   -1.049864    4.01456  0.0000E+00  0.2156E-07  0.2655E-11  0.6238E-04  0.0000E+00 -0.2093E+12
   -1.087360    4.01503  0.0000E+00  0.2148E-07  0.2749E-11  0.6008E-04  0.0000E+00 -0.2215E+12
   -1.124855    4.01552  0.0000E+00  0.2136E-07  0.2858E-11  0.5750E-04  0.0000E+00 -0.2353E+12
   -1.162350    4.01603  0.0000E+00  0.2121E-07  0.2986E-11  0.5461E-04  0.0000E+00 -0.2520E+12
   -1.199845    4.01657  0.0000E+00  0.2101E-07  0.3136E-11  0.5138E-04  0.0000E+00 -0.2727E+12
   -1.237340    4.01714  0.0000E+00  0.2076E-07  0.3319E-11  0.4780E-04  0.0000E+00 -0.2989E+12
   -1.274834    4.01775  0.0000E+00  0.2043E-07  0.3559E-11  0.4380E-04  0.0000E+00 -0.3338E+12
   -1.312328    4.01842  0.0000E+00  0.1992E-07  0.3935E-11  0.3258E-04  0.0000E+00 -0.4616E+12
   -1.349822    4.01933  0.0000E+00  0.1910E-07  0.4593E-11  0.2168E-04  0.0000E+00 -0.7215E+12
   -1.387315    4.02070  0.0000E+00  0.1779E-07  0.5787E-11  0.1339E-04  0.0000E+00 -0.1238E+13
   -1.424809    4.02293  0.0000E+00  0.1541E-07  0.8575E-11  0.5885E-05  0.0000E+00 -0.3111E+13
   -1.462302    4.02800  0.0000E+00  0.9364E-08  0.2099E-10  0.7102E-06  0.0000E+00 -0.3440E+14
   -1.499794    4.06464  0.0000E+00  0.0000E+00  0.0000E+00  0.0000E+00  0.0000E+00  0.0000E+00
