 1 - depth, m
 2 - temperature, C
 3 - salinity, kg/kg
 4 - turbulent kinetic energy, m**2/s**2
 5 - dissipation rate, m**2/s**3
 6 - kinematic heat conductance, m**2/s
 7 - modulus of horizontal velocity, m/s
 8 - Richardson number, n/d
   -0.000000    0.00000  0.0000E+00  0.4069E-10  0.2778E-13  0.1000E-09  0.0000E+00  0.2473E+17
   -0.037494    0.39145  0.0000E+00  0.9292E-10  0.2468E-13  0.1000E-09  0.0000E+00  0.2119E+17
   -0.074989    0.76708  0.0000E+00  0.1923E-09  0.3306E-13  0.1000E-09  0.0000E+00  0.1805E+17
   -0.112483    1.12792  0.0000E+00  0.3551E-09  0.5157E-13  0.1000E-09  0.0000E+00  0.1524E+17
   -0.149978    1.47493  0.0000E+00  0.6173E-09  0.8352E-13  0.1000E-09  0.0000E+00  0.1274E+17
   -0.187474    1.80901  0.0000E+00  0.1040E-08  0.1358E-12  0.1000E-09  0.0000E+00  0.1051E+17
   -0.224969    2.13103  0.0000E+00  0.1726E-08  0.2201E-12  0.1000E-09  0.0000E+00  0.8504E+16
   -0.262465    2.44180  0.0000E+00  0.2837E-08  0.3553E-12  0.1472E-09  0.0000E+00  0.6705E+16
   -0.299962    2.74197  0.0000E+00  0.4638E-08  0.5716E-12  0.3122E-09  0.0000E+00  0.5084E+16
   -0.337458    3.03205  0.0000E+00  0.7549E-08  0.9160E-12  0.7023E-09  0.0000E+00  0.3622E+16
   -0.374955    3.31241  0.0000E+00  0.1224E-07  0.1462E-11  0.1762E-08  0.0000E+00  0.2306E+16
   -0.412451    3.58350  0.0000E+00  0.1972E-07  0.2323E-11  0.5816E-08  0.0000E+00  0.1112E+16
   -0.449948    3.84165  0.0000E+00  0.3089E-07  0.3597E-11  0.6679E-07  0.0000E+00  0.1550E+15
   -0.487445    4.02223  0.0000E+00  0.3153E-07  0.3676E-11  0.9411E-04  0.0000E+00 -0.2213E+12
   -0.524943    4.02262  0.0000E+00  0.3183E-07  0.3718E-11  0.9213E-04  0.0000E+00 -0.2269E+12
   -0.562440    4.02302  0.0000E+00  0.3210E-07  0.3765E-11  0.9243E-04  0.0000E+00 -0.2277E+12
   -0.599938    4.02341  0.0000E+00  0.3234E-07  0.3814E-11  0.9264E-04  0.0000E+00 -0.2290E+12
   -0.637435    4.02381  0.0000E+00  0.3256E-07  0.3867E-11  0.9264E-04  0.0000E+00 -0.2309E+12
   -0.674933    4.02420  0.0000E+00  0.3275E-07  0.3923E-11  0.9243E-04  0.0000E+00 -0.2335E+12
   -0.712430    4.02459  0.0000E+00  0.3292E-07  0.3984E-11  0.9201E-04  0.0000E+00 -0.2367E+12
   -0.749928    4.02498  0.0000E+00  0.3306E-07  0.4050E-11  0.9138E-04  0.0000E+00 -0.2403E+12
   -0.787426    4.02538  0.0000E+00  0.3317E-07  0.4122E-11  0.9053E-04  0.0000E+00 -0.2444E+12
   -0.824923    4.02577  0.0000E+00  0.3325E-07  0.4199E-11  0.8946E-04  0.0000E+00 -0.2495E+12
   -0.862421    4.02618  0.0000E+00  0.3330E-07  0.4284E-11  0.8816E-04  0.0000E+00 -0.2553E+12
   -0.899918    4.02658  0.0000E+00  0.3332E-07  0.4377E-11  0.8662E-04  0.0000E+00 -0.2623E+12
   -0.937416    4.02700  0.0000E+00  0.3331E-07  0.4479E-11  0.8485E-04  0.0000E+00 -0.2703E+12
   -0.974913    4.02742  0.0000E+00  0.3327E-07  0.4593E-11  0.8283E-04  0.0000E+00 -0.2799E+12
   -1.012410    4.02785  0.0000E+00  0.3319E-07  0.4720E-11  0.8054E-04  0.0000E+00 -0.2911E+12
   -1.049907    4.02830  0.0000E+00  0.3307E-07  0.4864E-11  0.7794E-04  0.0000E+00 -0.3046E+12
   -1.087404    4.02876  0.0000E+00  0.3291E-07  0.5030E-11  0.7504E-04  0.0000E+00 -0.3205E+12
   -1.124901    4.02924  0.0000E+00  0.3270E-07  0.5223E-11  0.7180E-04  0.0000E+00 -0.3391E+12
   -1.162398    4.02974  0.0000E+00  0.3243E-07  0.5448E-11  0.6820E-04  0.0000E+00 -0.3615E+12
   -1.199894    4.03027  0.0000E+00  0.3211E-07  0.5717E-11  0.6420E-04  0.0000E+00 -0.3892E+12
   -1.237390    4.03083  0.0000E+00  0.3171E-07  0.6044E-11  0.5975E-04  0.0000E+00 -0.4245E+12
   -1.274886    4.03144  0.0000E+00  0.3121E-07  0.6458E-11  0.5483E-04  0.0000E+00 -0.4709E+12
   -1.312382    4.03210  0.0000E+00  0.3052E-07  0.7067E-11  0.4892E-04  0.0000E+00 -0.5382E+12
   -1.349877    4.03284  0.0000E+00  0.2940E-07  0.8134E-11  0.3025E-04  0.0000E+00 -0.8939E+12
   -1.387372    4.03405  0.0000E+00  0.2754E-07  0.1016E-10  0.1802E-04  0.0000E+00 -0.1564E+13
   -1.424867    4.03610  0.0000E+00  0.2417E-07  0.1489E-10  0.8156E-05  0.0000E+00 -0.3705E+13
   -1.462362    4.04065  0.0000E+00  0.1502E-07  0.3688E-10  0.1001E-05  0.0000E+00 -0.3753E+14
   -1.499856    4.07435  0.0000E+00  0.0000E+00  0.0000E+00  0.0000E+00  0.0000E+00  0.0000E+00
