 1 - depth, m
 2 - temperature, C
 3 - salinity, kg/kg
 4 - turbulent kinetic energy, m**2/s**2
 5 - dissipation rate, m**2/s**3
 6 - kinematic heat conductance, m**2/s
 7 - modulus of horizontal velocity, m/s
 8 - Richardson number, n/d
   -0.000000    0.00000  0.0000E+00  0.9297E-10  0.7750E-13  0.1000E-09  0.0000E+00  0.2502E+17
   -0.037493    0.39635  0.0000E+00  0.2393E-09  0.6392E-13  0.1000E-09  0.0000E+00  0.2228E+17
   -0.074987    0.79312  0.0000E+00  0.5084E-09  0.8007E-13  0.1000E-09  0.0000E+00  0.1955E+17
   -0.112481    1.19001  0.0000E+00  0.9323E-09  0.1187E-12  0.1000E-09  0.0000E+00  0.1682E+17
   -0.149975    1.58616  0.0000E+00  0.1586E-08  0.1850E-12  0.1000E-09  0.0000E+00  0.1409E+17
   -0.187469    1.98019  0.0000E+00  0.2600E-08  0.2913E-12  0.1000E-09  0.0000E+00  0.1139E+17
   -0.224964    2.37019  0.0000E+00  0.4180E-08  0.4585E-12  0.1490E-09  0.0000E+00  0.8743E+16
   -0.262459    2.75343  0.0000E+00  0.6659E-08  0.7204E-12  0.3225E-09  0.0000E+00  0.6196E+16
   -0.299954    3.12578  0.0000E+00  0.1056E-07  0.1130E-11  0.8099E-09  0.0000E+00  0.3825E+16
   -0.337450    3.48164  0.0000E+00  0.1669E-07  0.1770E-11  0.2803E-08  0.0000E+00  0.1731E+16
   -0.374946    3.81128  0.0000E+00  0.2468E-07  0.2629E-11  0.7019E-05  0.0000E+00  0.3190E+15
   -0.412442    4.00659  0.0000E+00  0.2521E-07  0.2690E-11  0.7836E-04  0.0000E+00 -0.1592E+12
   -0.449938    4.00724  0.0000E+00  0.2549E-07  0.2727E-11  0.7914E-04  0.0000E+00 -0.1650E+12
   -0.487434    4.00784  0.0000E+00  0.2576E-07  0.2767E-11  0.8102E-04  0.0000E+00 -0.1669E+12
   -0.524930    4.00840  0.0000E+00  0.2601E-07  0.2810E-11  0.8240E-04  0.0000E+00 -0.1692E+12
   -0.562427    4.00893  0.0000E+00  0.2624E-07  0.2855E-11  0.8294E-04  0.0000E+00 -0.1725E+12
   -0.599923    4.00946  0.0000E+00  0.2645E-07  0.2905E-11  0.8306E-04  0.0000E+00 -0.1767E+12
   -0.637420    4.00999  0.0000E+00  0.2665E-07  0.2958E-11  0.8284E-04  0.0000E+00 -0.1815E+12
   -0.674917    4.01051  0.0000E+00  0.2684E-07  0.3016E-11  0.8241E-04  0.0000E+00 -0.1871E+12
   -0.712413    4.01104  0.0000E+00  0.2701E-07  0.3078E-11  0.8181E-04  0.0000E+00 -0.1931E+12
   -0.749910    4.01158  0.0000E+00  0.2717E-07  0.3146E-11  0.8103E-04  0.0000E+00 -0.2000E+12
   -0.787407    4.01211  0.0000E+00  0.2731E-07  0.3220E-11  0.8009E-04  0.0000E+00 -0.2073E+12
   -0.824904    4.01266  0.0000E+00  0.2743E-07  0.3300E-11  0.7895E-04  0.0000E+00 -0.2157E+12
   -0.862400    4.01321  0.0000E+00  0.2753E-07  0.3387E-11  0.7763E-04  0.0000E+00 -0.2249E+12
   -0.899897    4.01378  0.0000E+00  0.2761E-07  0.3483E-11  0.7611E-04  0.0000E+00 -0.2355E+12
   -0.937394    4.01435  0.0000E+00  0.2767E-07  0.3588E-11  0.7440E-04  0.0000E+00 -0.2472E+12
   -0.974890    4.01495  0.0000E+00  0.2770E-07  0.3704E-11  0.7247E-04  0.0000E+00 -0.2607E+12
   -1.012386    4.01555  0.0000E+00  0.2770E-07  0.3833E-11  0.7032E-04  0.0000E+00 -0.2760E+12
   -1.049883    4.01618  0.0000E+00  0.2767E-07  0.3979E-11  0.6790E-04  0.0000E+00 -0.2940E+12
   -1.087379    4.01684  0.0000E+00  0.2761E-07  0.4146E-11  0.6523E-04  0.0000E+00 -0.3149E+12
   -1.124875    4.01752  0.0000E+00  0.2750E-07  0.4337E-11  0.6226E-04  0.0000E+00 -0.3395E+12
   -1.162370    4.01824  0.0000E+00  0.2735E-07  0.4561E-11  0.5897E-04  0.0000E+00 -0.3690E+12
   -1.199866    4.01901  0.0000E+00  0.2714E-07  0.4826E-11  0.5533E-04  0.0000E+00 -0.4056E+12
   -1.237361    4.01982  0.0000E+00  0.2686E-07  0.5145E-11  0.5130E-04  0.0000E+00 -0.4519E+12
   -1.274856    4.02071  0.0000E+00  0.2649E-07  0.5549E-11  0.4678E-04  0.0000E+00 -0.5134E+12
   -1.312351    4.02169  0.0000E+00  0.2597E-07  0.6114E-11  0.4063E-04  0.0000E+00 -0.6188E+12
   -1.349846    4.02284  0.0000E+00  0.2513E-07  0.7070E-11  0.2735E-04  0.0000E+00 -0.9644E+12
   -1.387340    4.02456  0.0000E+00  0.2361E-07  0.8950E-11  0.1609E-04  0.0000E+00 -0.1751E+13
   -1.424834    4.02747  0.0000E+00  0.2078E-07  0.1332E-10  0.7216E-05  0.0000E+00 -0.4425E+13
   -1.462327    4.03399  0.0000E+00  0.1328E-07  0.3295E-10  0.9589E-06  0.0000E+00 -0.4721E+14
   -1.499820    4.07758  0.0000E+00  0.0000E+00  0.0000E+00  0.0000E+00  0.0000E+00  0.0000E+00
