 1 - depth, m
 2 - temperature, C
 3 - salinity, kg/kg
 4 - turbulent kinetic energy, m**2/s**2
 5 - dissipation rate, m**2/s**3
 6 - kinematic heat conductance, m**2/s
 7 - modulus of horizontal velocity, m/s
 8 - Richardson number, n/d
   -0.000000    0.00000  0.0000E+00  0.2276E-10  0.1335E-13  0.1000E-09  0.0000E+00  0.2123E+17
   -0.037494    0.33326  0.0000E+00  0.4794E-10  0.1185E-13  0.1000E-09  0.0000E+00  0.1896E+17
   -0.074989    0.66089  0.0000E+00  0.9584E-10  0.1549E-13  0.1000E-09  0.0000E+00  0.1679E+17
   -0.112483    0.98265  0.0000E+00  0.1737E-09  0.2360E-13  0.1000E-09  0.0000E+00  0.1473E+17
   -0.149978    1.29807  0.0000E+00  0.2973E-09  0.3750E-13  0.1000E-09  0.0000E+00  0.1276E+17
   -0.187474    1.60655  0.0000E+00  0.4937E-09  0.5997E-13  0.1000E-09  0.0000E+00  0.1089E+17
   -0.224969    1.90747  0.0000E+00  0.8065E-09  0.9567E-13  0.1000E-09  0.0000E+00  0.9144E+16
   -0.262465    2.20034  0.0000E+00  0.1306E-08  0.1521E-12  0.1000E-09  0.0000E+00  0.7515E+16
   -0.299962    2.48457  0.0000E+00  0.2102E-08  0.2409E-12  0.1112E-09  0.0000E+00  0.6015E+16
   -0.337458    2.76002  0.0000E+00  0.3370E-08  0.3804E-12  0.2273E-09  0.0000E+00  0.4646E+16
   -0.374955    3.02665  0.0000E+00  0.5384E-08  0.5987E-12  0.4854E-09  0.0000E+00  0.3424E+16
   -0.412451    3.28657  0.0000E+00  0.8570E-08  0.9393E-12  0.1132E-08  0.0000E+00  0.2304E+16
   -0.449948    3.54112  0.0000E+00  0.1358E-07  0.1468E-11  0.3249E-08  0.0000E+00  0.1254E+16
   -0.487445    3.78896  0.0000E+00  0.2130E-07  0.2272E-11  0.2088E-07  0.0000E+00  0.3019E+15
   -0.524943    4.00825  0.0000E+00  0.2183E-07  0.2332E-11  0.7416E-04  0.0000E+00 -0.1659E+12
   -0.562440    4.00872  0.0000E+00  0.2208E-07  0.2365E-11  0.7210E-04  0.0000E+00 -0.1731E+12
   -0.599937    4.00921  0.0000E+00  0.2232E-07  0.2402E-11  0.7234E-04  0.0000E+00 -0.1759E+12
   -0.637435    4.00970  0.0000E+00  0.2255E-07  0.2442E-11  0.7254E-04  0.0000E+00 -0.1789E+12
   -0.674933    4.01018  0.0000E+00  0.2275E-07  0.2485E-11  0.7257E-04  0.0000E+00 -0.1824E+12
   -0.712430    4.01066  0.0000E+00  0.2294E-07  0.2531E-11  0.7243E-04  0.0000E+00 -0.1864E+12
   -0.749928    4.01115  0.0000E+00  0.2310E-07  0.2581E-11  0.7210E-04  0.0000E+00 -0.1908E+12
   -0.787425    4.01163  0.0000E+00  0.2325E-07  0.2635E-11  0.7160E-04  0.0000E+00 -0.1959E+12
   -0.824923    4.01212  0.0000E+00  0.2338E-07  0.2694E-11  0.7090E-04  0.0000E+00 -0.2017E+12
   -0.862421    4.01262  0.0000E+00  0.2349E-07  0.2759E-11  0.7001E-04  0.0000E+00 -0.2084E+12
   -0.899918    4.01312  0.0000E+00  0.2357E-07  0.2829E-11  0.6892E-04  0.0000E+00 -0.2160E+12
   -0.937416    4.01363  0.0000E+00  0.2364E-07  0.2906E-11  0.6763E-04  0.0000E+00 -0.2247E+12
   -0.974913    4.01415  0.0000E+00  0.2367E-07  0.2991E-11  0.6613E-04  0.0000E+00 -0.2348E+12
   -1.012410    4.01468  0.0000E+00  0.2368E-07  0.3085E-11  0.6440E-04  0.0000E+00 -0.2468E+12
   -1.049907    4.01523  0.0000E+00  0.2366E-07  0.3192E-11  0.6241E-04  0.0000E+00 -0.2610E+12
   -1.087404    4.01580  0.0000E+00  0.2361E-07  0.3313E-11  0.6015E-04  0.0000E+00 -0.2778E+12
   -1.124901    4.01640  0.0000E+00  0.2351E-07  0.3453E-11  0.5760E-04  0.0000E+00 -0.2965E+12
   -1.162398    4.01702  0.0000E+00  0.2338E-07  0.3616E-11  0.5474E-04  0.0000E+00 -0.3189E+12
   -1.199894    4.01767  0.0000E+00  0.2319E-07  0.3809E-11  0.5152E-04  0.0000E+00 -0.3468E+12
   -1.237390    4.01837  0.0000E+00  0.2294E-07  0.4041E-11  0.4792E-04  0.0000E+00 -0.3823E+12
   -1.274886    4.01913  0.0000E+00  0.2262E-07  0.4334E-11  0.4396E-04  0.0000E+00 -0.4286E+12
   -1.312382    4.01995  0.0000E+00  0.2212E-07  0.4780E-11  0.3631E-04  0.0000E+00 -0.5357E+12
   -1.349877    4.02095  0.0000E+00  0.2127E-07  0.5572E-11  0.2341E-04  0.0000E+00 -0.8677E+12
   -1.387372    4.02252  0.0000E+00  0.1989E-07  0.7020E-11  0.1435E-04  0.0000E+00 -0.1510E+13
   -1.424867    4.02509  0.0000E+00  0.1734E-07  0.1039E-10  0.6397E-05  0.0000E+00 -0.3778E+13
   -1.462362    4.03088  0.0000E+00  0.1081E-07  0.2537E-10  0.8146E-06  0.0000E+00 -0.4120E+14
   -1.499856    4.07147  0.0000E+00  0.0000E+00  0.0000E+00  0.0000E+00  0.0000E+00  0.0000E+00
