 1 - depth, m
 2 - temperature, C
 3 - salinity, kg/kg
 4 - turbulent kinetic energy, m**2/s**2
 5 - dissipation rate, m**2/s**3
 6 - kinematic heat conductance, m**2/s
 7 - modulus of horizontal velocity, m/s
 8 - Richardson number, n/d
   -0.000000   12.69420  0.0000E+00  0.6891E-03  0.2470E-02  0.9459E-04  0.3354E+00 -0.4385E-01
   -0.037499   12.80046  0.0000E+00  0.3462E-03  0.9271E-03  0.1531E-03  0.1160E+00  0.1197E+00
   -0.074998   12.84120  0.0000E+00  0.2273E-03  0.3069E-03  0.2401E-03  0.7035E-01  0.1425E+01
   -0.112498   12.85834  0.0000E+00  0.1805E-03  0.1879E-03  0.2562E-03  0.5435E-01  0.4896E-01
   -0.149997   12.86706  0.0000E+00  0.1492E-03  0.1207E-03  0.2626E-03  0.4511E-01  0.2652E+01
   -0.187498   12.87263  0.0000E+00  0.1272E-03  0.7754E-04  0.2706E-03  0.3919E-01  0.3181E-01
   -0.224998   12.87693  0.0000E+00  0.1107E-03  0.4913E-04  0.2826E-03  0.3488E-01  0.3010E+00
   -0.262499   12.88014  0.0000E+00  0.9728E-04  0.3080E-04  0.2932E-03  0.3116E-01  0.1956E+00
   -0.300000   12.88290  0.0000E+00  0.8668E-04  0.1905E-04  0.3068E-03  0.2818E-01 -0.1994E-01
   -0.337501   12.88531  0.0000E+00  0.7828E-04  0.1186E-04  0.3230E-03  0.2561E-01  0.6082E+00
   -0.375002   12.88753  0.0000E+00  0.7144E-04  0.7465E-05  0.3355E-03  0.2336E-01  0.5347E+00
   -0.412504   12.88962  0.0000E+00  0.6575E-04  0.4804E-05  0.3483E-03  0.2139E-01  0.1922E+02
   -0.450006   12.89164  0.0000E+00  0.6097E-04  0.3189E-05  0.3690E-03  0.1961E-01  0.1705E+02
   -0.487507   12.89345  0.0000E+00  0.5697E-04  0.2202E-05  0.3891E-03  0.1806E-01  0.6154E+01
   -0.525010   12.89507  0.0000E+00  0.5341E-04  0.1587E-05  0.4214E-03  0.1660E-01  0.9463E+02
   -0.562512   12.89662  0.0000E+00  0.5028E-04  0.1195E-05  0.4503E-03  0.1536E-01  0.5956E+02
   -0.600014   12.89794  0.0000E+00  0.4748E-04  0.9344E-06  0.4811E-03  0.1425E-01  0.1565E+02
   -0.637516   12.89920  0.0000E+00  0.4497E-04  0.7544E-06  0.5152E-03  0.1325E-01  0.2852E+02
   -0.675019   12.90031  0.0000E+00  0.4268E-04  0.6259E-06  0.5553E-03  0.1233E-01  0.3004E+03
   -0.712521   12.90137  0.0000E+00  0.4057E-04  0.5311E-06  0.5947E-03  0.1148E-01  0.2426E+02
   -0.750023   12.90233  0.0000E+00  0.3863E-04  0.4584E-06  0.6364E-03  0.1069E-01  0.2497E+02
   -0.787526   12.90323  0.0000E+00  0.3681E-04  0.4015E-06  0.6823E-03  0.9952E-02  0.5244E+02
   -0.825028   12.90404  0.0000E+00  0.3510E-04  0.3554E-06  0.7168E-03  0.9258E-02  0.2476E+02
   -0.862530   12.90483  0.0000E+00  0.3347E-04  0.3170E-06  0.7559E-03  0.8598E-02  0.3886E+02
   -0.900033   12.90556  0.0000E+00  0.3190E-04  0.2849E-06  0.7901E-03  0.7969E-02  0.4128E+02
   -0.937535   12.90625  0.0000E+00  0.3039E-04  0.2578E-06  0.8171E-03  0.7365E-02  0.2578E+02
   -0.975037   12.90691  0.0000E+00  0.2891E-04  0.2347E-06  0.8367E-03  0.6786E-02  0.1104E+03
   -1.012539   12.90754  0.0000E+00  0.2744E-04  0.2148E-06  0.8510E-03  0.6225E-02  0.3194E+02
   -1.050041   12.90815  0.0000E+00  0.2597E-04  0.1976E-06  0.8494E-03  0.5694E-02  0.5514E+02
   -1.087543   12.90875  0.0000E+00  0.2449E-04  0.1829E-06  0.8323E-03  0.5192E-02  0.1613E+02
   -1.125044   12.90935  0.0000E+00  0.2299E-04  0.1708E-06  0.8069E-03  0.4716E-02  0.2588E+02
   -1.162546   12.90995  0.0000E+00  0.2148E-04  0.1614E-06  0.7627E-03  0.4266E-02  0.2674E+02
   -1.200047   12.91059  0.0000E+00  0.1994E-04  0.1554E-06  0.6948E-03  0.3838E-02  0.2539E+02
   -1.237548   12.91128  0.0000E+00  0.1837E-04  0.1541E-06  0.6116E-03  0.3431E-02  0.1850E+02
   -1.275049   12.91208  0.0000E+00  0.1673E-04  0.1602E-06  0.5179E-03  0.3042E-02  0.3462E+02
   -1.312549   12.91305  0.0000E+00  0.1496E-04  0.1792E-06  0.4214E-03  0.2685E-02  0.5281E+02
   -1.350049   12.91428  0.0000E+00  0.1296E-04  0.2207E-06  0.3217E-03  0.2345E-02  0.2850E+02
   -1.387549   12.91601  0.0000E+00  0.1063E-04  0.3062E-06  0.2433E-03  0.1996E-02  0.2866E+03
   -1.425049   12.91814  0.0000E+00  0.7913E-05  0.5367E-06  0.1393E-03  0.1634E-02  0.2195E+04
   -1.462548   12.92383  0.0000E+00  0.4810E-05  0.1126E-05  0.6132E-04  0.1259E-02 -0.6550E+05
   -1.500047   12.93722  0.0000E+00  0.0000E+00  0.0000E+00  0.0000E+00  0.1596E-02  0.0000E+00
