 1 - depth, m
 2 - temperature, C
 3 - salinity, kg/kg
 4 - turbulent kinetic energy, m**2/s**2
 5 - dissipation rate, m**2/s**3
 6 - kinematic heat conductance, m**2/s
 7 - modulus of horizontal velocity, m/s
 8 - Richardson number, n/d
   -0.000000    0.00000  0.0000E+00  0.1291E-09  0.1236E-12  0.1000E-09  0.0000E+00  0.2540E+17
   -0.034998    0.40265  0.0000E+00  0.3306E-09  0.9610E-13  0.1000E-09  0.0000E+00  0.2217E+17
   -0.069995    0.79819  0.0000E+00  0.6894E-09  0.1095E-12  0.1000E-09  0.0000E+00  0.1913E+17
   -0.104994    1.18669  0.0000E+00  0.1225E-08  0.1482E-12  0.1000E-09  0.0000E+00  0.1622E+17
   -0.139992    1.56703  0.0000E+00  0.1995E-08  0.2125E-12  0.1000E-09  0.0000E+00  0.1349E+17
   -0.174991    1.93900  0.0000E+00  0.3097E-08  0.3091E-12  0.1128E-09  0.0000E+00  0.1096E+17
   -0.209990    2.30308  0.0000E+00  0.4676E-08  0.4491E-12  0.1634E-09  0.0000E+00  0.8593E+16
   -0.244989    2.65884  0.0000E+00  0.6936E-08  0.6491E-12  0.2766E-09  0.0000E+00  0.6363E+16
   -0.279989    3.00440  0.0000E+00  0.1017E-07  0.9325E-12  0.5556E-09  0.0000E+00  0.4279E+16
   -0.314988    3.33554  0.0000E+00  0.1485E-07  0.1337E-11  0.1459E-08  0.0000E+00  0.2399E+16
   -0.349988    3.64567  0.0000E+00  0.2157E-07  0.1909E-11  0.8457E-08  0.0000E+00  0.8279E+15
   -0.384988    3.91337  0.0000E+00  0.2277E-07  0.1985E-11  0.6558E-04  0.0000E+00  0.1245E+15
   -0.419989    3.99471  0.0000E+00  0.2310E-07  0.2009E-11  0.8192E-04  0.0000E+00  0.2731E+13
   -0.454989    4.00164  0.0000E+00  0.2326E-07  0.2025E-11  0.8704E-04  0.0000E+00 -0.8240E+11
   -0.489990    4.00209  0.0000E+00  0.2339E-07  0.2040E-11  0.8829E-04  0.0000E+00 -0.8439E+11
   -0.524990    4.00251  0.0000E+00  0.2353E-07  0.2059E-11  0.8937E-04  0.0000E+00 -0.8703E+11
   -0.559991    4.00292  0.0000E+00  0.2369E-07  0.2083E-11  0.8996E-04  0.0000E+00 -0.9243E+11
   -0.594992    4.00332  0.0000E+00  0.2390E-07  0.2117E-11  0.9038E-04  0.0000E+00 -0.9710E+11
   -0.629992    4.00373  0.0000E+00  0.2411E-07  0.2155E-11  0.9085E-04  0.0000E+00 -0.9922E+11
   -0.664993    4.00413  0.0000E+00  0.2430E-07  0.2194E-11  0.9107E-04  0.0000E+00 -0.1010E+12
   -0.699994    4.00453  0.0000E+00  0.2448E-07  0.2236E-11  0.9101E-04  0.0000E+00 -0.1036E+12
   -0.734995    4.00493  0.0000E+00  0.2465E-07  0.2280E-11  0.9079E-04  0.0000E+00 -0.1061E+12
   -0.769996    4.00533  0.0000E+00  0.2481E-07  0.2327E-11  0.9032E-04  0.0000E+00 -0.1090E+12
   -0.804997    4.00573  0.0000E+00  0.2497E-07  0.2378E-11  0.8970E-04  0.0000E+00 -0.1119E+12
   -0.839997    4.00613  0.0000E+00  0.2511E-07  0.2434E-11  0.8880E-04  0.0000E+00 -0.1156E+12
   -0.874998    4.00653  0.0000E+00  0.2523E-07  0.2494E-11  0.8773E-04  0.0000E+00 -0.1194E+12
   -0.909999    4.00694  0.0000E+00  0.2535E-07  0.2561E-11  0.8638E-04  0.0000E+00 -0.1240E+12
   -0.944999    4.00736  0.0000E+00  0.2545E-07  0.2635E-11  0.8488E-04  0.0000E+00 -0.1287E+12
   -0.980000    4.00778  0.0000E+00  0.2554E-07  0.2716E-11  0.8312E-04  0.0000E+00 -0.1346E+12
   -1.015000    4.00822  0.0000E+00  0.2561E-07  0.2808E-11  0.8113E-04  0.0000E+00 -0.1419E+12
   -1.050000    4.00867  0.0000E+00  0.2567E-07  0.2916E-11  0.7874E-04  0.0000E+00 -0.1510E+12
   -1.085000    4.00913  0.0000E+00  0.2571E-07  0.3045E-11  0.7601E-04  0.0000E+00 -0.1596E+12
   -1.120000    4.00962  0.0000E+00  0.2573E-07  0.3200E-11  0.7284E-04  0.0000E+00 -0.1703E+12
   -1.154999    4.01012  0.0000E+00  0.2572E-07  0.3387E-11  0.6930E-04  0.0000E+00 -0.1830E+12
   -1.189998    4.01065  0.0000E+00  0.2568E-07  0.3622E-11  0.6510E-04  0.0000E+00 -0.2007E+12
   -1.224997    4.01122  0.0000E+00  0.2560E-07  0.3956E-11  0.5969E-04  0.0000E+00 -0.2280E+12
   -1.259996    4.01185  0.0000E+00  0.2543E-07  0.4522E-11  0.5169E-04  0.0000E+00 -0.2833E+12
   -1.294995    4.01262  0.0000E+00  0.2494E-07  0.6061E-11  0.3444E-04  0.0000E+00 -0.5095E+12
   -1.329993    4.01401  0.0000E+00  0.2346E-07  0.1081E-10  0.1043E-04  0.0000E+00 -0.1935E+13
   -1.364991    4.01854  0.0000E+00  0.1663E-07  0.4056E-10  0.1101E-05  0.0000E+00 -0.2856E+14
   -1.399988    4.05508  0.0000E+00  0.0000E+00  0.0000E+00  0.0000E+00  0.0000E+00  0.0000E+00
