 1 - depth, m
 2 - temperature, C
 3 - salinity, kg/kg
 4 - turbulent kinetic energy, m**2/s**2
 5 - dissipation rate, m**2/s**3
 6 - kinematic heat conductance, m**2/s
 7 - modulus of horizontal velocity, m/s
 8 - Richardson number, n/d
   -0.000000    0.00000  0.0000E+00  0.4702E-13  0.1132E-15  0.1000E-09  0.0000E+00  0.8062E+16
   -0.034998    0.12297  0.0000E+00  0.4702E-13  0.1132E-15  0.1000E-09  0.0000E+00  0.7940E+16
   -0.069996    0.24829  0.0000E+00  0.4702E-13  0.1132E-15  0.1000E-09  0.0000E+00  0.7801E+16
   -0.104994    0.37593  0.0000E+00  0.4702E-13  0.1132E-15  0.1000E-09  0.0000E+00  0.7535E+16
   -0.139993    0.50395  0.0000E+00  0.4702E-13  0.1132E-15  0.1000E-09  0.0000E+00  0.7203E+16
   -0.174992    0.63116  0.0000E+00  0.4702E-13  0.1132E-15  0.1000E-09  0.0000E+00  0.6872E+16
   -0.209992    0.75747  0.0000E+00  0.4702E-13  0.1132E-15  0.1000E-09  0.0000E+00  0.6542E+16
   -0.244991    0.88276  0.0000E+00  0.4702E-13  0.1132E-15  0.1000E-09  0.0000E+00  0.6217E+16
   -0.279991    1.00696  0.0000E+00  0.4702E-13  0.1132E-15  0.1000E-09  0.0000E+00  0.5895E+16
   -0.314991    1.12999  0.0000E+00  0.4702E-13  0.1132E-15  0.1000E-09  0.0000E+00  0.5563E+16
   -0.349991    1.25141  0.0000E+00  0.4702E-13  0.1132E-15  0.1000E-09  0.0000E+00  0.5234E+16
   -0.384992    1.37103  0.0000E+00  0.4702E-13  0.1132E-15  0.1000E-09  0.0000E+00  0.4910E+16
   -0.419992    1.48867  0.0000E+00  0.4702E-13  0.1132E-15  0.1000E-09  0.0000E+00  0.4616E+16
   -0.454993    1.60480  0.0000E+00  0.4702E-13  0.1132E-15  0.1000E-09  0.0000E+00  0.4345E+16
   -0.489994    1.71976  0.0000E+00  0.4702E-13  0.1132E-15  0.1000E-09  0.0000E+00  0.4074E+16
   -0.524994    1.83334  0.0000E+00  0.4702E-13  0.1132E-15  0.1000E-09  0.0000E+00  0.3778E+16
   -0.559995    1.94453  0.0000E+00  0.4702E-13  0.1132E-15  0.1000E-09  0.0000E+00  0.3454E+16
   -0.594997    2.05194  0.0000E+00  0.4702E-13  0.1132E-15  0.1000E-09  0.0000E+00  0.3122E+16
   -0.629998    2.15464  0.0000E+00  0.4702E-13  0.1132E-15  0.1000E-09  0.0000E+00  0.2896E+16
   -0.664999    2.25550  0.0000E+00  0.4702E-13  0.1132E-15  0.1000E-09  0.0000E+00  0.2675E+16
   -0.700000    2.35436  0.0000E+00  0.4702E-13  0.1132E-15  0.1000E-09  0.0000E+00  0.2457E+16
   -0.735001    2.45093  0.0000E+00  0.4702E-13  0.1132E-15  0.1000E-09  0.0000E+00  0.2256E+16
   -0.770002    2.54544  0.0000E+00  0.4702E-13  0.1132E-15  0.1000E-09  0.0000E+00  0.2087E+16
   -0.805003    2.63889  0.0000E+00  0.4702E-13  0.1132E-15  0.1000E-09  0.0000E+00  0.1921E+16
   -0.840004    2.73120  0.0000E+00  0.4702E-13  0.1132E-15  0.1000E-09  0.0000E+00  0.1759E+16
   -0.875005    2.82227  0.0000E+00  0.4702E-13  0.1132E-15  0.1000E-09  0.0000E+00  0.1601E+16
   -0.910006    2.91199  0.0000E+00  0.4702E-13  0.1132E-15  0.1000E-09  0.0000E+00  0.1448E+16
   -0.945007    3.00029  0.0000E+00  0.4702E-13  0.1132E-15  0.1000E-09  0.0000E+00  0.1301E+16
   -0.980008    3.08705  0.0000E+00  0.4702E-13  0.1132E-15  0.1000E-09  0.0000E+00  0.1157E+16
   -1.015008    3.17212  0.0000E+00  0.4702E-13  0.1132E-15  0.1000E-09  0.0000E+00  0.1016E+16
   -1.050009    3.25501  0.0000E+00  0.4702E-13  0.1132E-15  0.1000E-09  0.0000E+00  0.8829E+15
   -1.085009    3.33569  0.0000E+00  0.4702E-13  0.1132E-15  0.1000E-09  0.0000E+00  0.7770E+15
   -1.120009    3.41618  0.0000E+00  0.4702E-13  0.1132E-15  0.1000E-09  0.0000E+00  0.6711E+15
   -1.155009    3.49632  0.0000E+00  0.4702E-13  0.1132E-15  0.1000E-09  0.0000E+00  0.5671E+15
   -1.190008    3.57618  0.0000E+00  0.1396E-12  0.2055E-15  0.1000E-09  0.0000E+00  0.4654E+15
   -1.225008    3.65595  0.0000E+00  0.6334E-12  0.8734E-15  0.1000E-09  0.0000E+00  0.3673E+15
   -1.260007    3.73639  0.0000E+00  0.3049E-11  0.4176E-14  0.1000E-09  0.0000E+00  0.2707E+15
   -1.295005    3.81892  0.0000E+00  0.1705E-10  0.2355E-13  0.2869E-09  0.0000E+00  0.1696E+15
   -1.330004    3.90630  0.0000E+00  0.7685E-10  0.1095E-12  0.3008E-08  0.0000E+00  0.4959E+14
   -1.365002    3.99494  0.0000E+00  0.3255E-09  0.5301E-12  0.7736E-07  0.0000E+00 -0.3902E+14
   -1.400000    4.05746  0.0000E+00  0.0000E+00  0.0000E+00  0.0000E+00  0.0000E+00  0.0000E+00
