 1 - depth, m
 2 - temperature, C
 3 - salinity, kg/kg
 4 - turbulent kinetic energy, m**2/s**2
 5 - dissipation rate, m**2/s**3
 6 - kinematic heat conductance, m**2/s
 7 - modulus of horizontal velocity, m/s
 8 - Richardson number, n/d
   -0.000000    0.00000  0.0000E+00  0.4702E-13  0.1132E-15  0.1000E-09  0.0000E+00  0.1813E+17
   -0.034997    0.28258  0.0000E+00  0.4702E-13  0.1132E-15  0.1000E-09  0.0000E+00  0.1591E+17
   -0.069995    0.55108  0.0000E+00  0.4702E-13  0.1132E-15  0.1000E-09  0.0000E+00  0.1395E+17
   -0.104992    0.80616  0.0000E+00  0.4702E-13  0.1132E-15  0.1000E-09  0.0000E+00  0.1215E+17
   -0.139990    1.04744  0.0000E+00  0.4702E-13  0.1132E-15  0.1000E-09  0.0000E+00  0.1054E+17
   -0.174989    1.27505  0.0000E+00  0.4702E-13  0.1132E-15  0.1000E-09  0.0000E+00  0.9135E+16
   -0.209987    1.48980  0.0000E+00  0.4702E-13  0.1132E-15  0.1000E-09  0.0000E+00  0.7906E+16
   -0.244986    1.69253  0.0000E+00  0.4702E-13  0.1132E-15  0.1000E-09  0.0000E+00  0.6833E+16
   -0.279985    1.88409  0.0000E+00  0.4702E-13  0.1132E-15  0.1000E-09  0.0000E+00  0.5897E+16
   -0.314985    2.06528  0.0000E+00  0.4702E-13  0.1132E-15  0.1000E-09  0.0000E+00  0.4981E+16
   -0.349984    2.23336  0.0000E+00  0.4702E-13  0.1132E-15  0.1000E-09  0.0000E+00  0.4173E+16
   -0.384984    2.38817  0.0000E+00  0.4702E-13  0.1132E-15  0.1000E-09  0.0000E+00  0.3472E+16
   -0.419984    2.52980  0.0000E+00  0.4702E-13  0.1132E-15  0.1000E-09  0.0000E+00  0.2966E+16
   -0.454983    2.66304  0.0000E+00  0.4702E-13  0.1132E-15  0.1000E-09  0.0000E+00  0.2580E+16
   -0.489984    2.79125  0.0000E+00  0.4702E-13  0.1132E-15  0.1000E-09  0.0000E+00  0.2210E+16
   -0.524984    2.91341  0.0000E+00  0.4702E-13  0.1132E-15  0.1000E-09  0.0000E+00  0.1769E+16
   -0.559984    3.02253  0.0000E+00  0.4702E-13  0.1132E-15  0.1000E-09  0.0000E+00  0.1298E+16
   -0.594984    3.11136  0.0000E+00  0.7842E-13  0.1132E-15  0.1000E-09  0.0000E+00  0.8739E+15
   -0.629985    3.17675  0.0000E+00  0.2038E-12  0.1282E-15  0.1000E-09  0.0000E+00  0.7610E+15
   -0.664985    3.23839  0.0000E+00  0.4917E-12  0.1885E-15  0.1000E-09  0.0000E+00  0.6622E+15
   -0.699986    3.29654  0.0000E+00  0.1103E-11  0.3368E-15  0.1000E-09  0.0000E+00  0.5687E+15
   -0.734986    3.35074  0.0000E+00  0.2347E-11  0.6611E-15  0.1000E-09  0.0000E+00  0.4933E+15
   -0.769986    3.40186  0.0000E+00  0.4847E-11  0.1321E-14  0.1000E-09  0.0000E+00  0.4540E+15
   -0.804987    3.45329  0.0000E+00  0.9868E-11  0.2631E-14  0.1000E-09  0.0000E+00  0.4162E+15
   -0.839987    3.50529  0.0000E+00  0.1990E-10  0.5203E-14  0.1000E-09  0.0000E+00  0.3800E+15
   -0.874987    3.55834  0.0000E+00  0.3994E-10  0.1025E-13  0.1046E-09  0.0000E+00  0.3453E+15
   -0.909988    3.61316  0.0000E+00  0.7964E-10  0.2006E-13  0.1723E-09  0.0000E+00  0.3125E+15
   -0.944988    3.67107  0.0000E+00  0.1574E-09  0.3892E-13  0.3640E-09  0.0000E+00  0.2773E+15
   -0.979988    3.73359  0.0000E+00  0.3094E-09  0.7514E-13  0.8520E-09  0.0000E+00  0.2334E+15
   -1.014987    3.80246  0.0000E+00  0.6088E-09  0.1452E-12  0.2386E-08  0.0000E+00  0.1723E+15
   -1.049987    3.87953  0.0000E+00  0.1194E-08  0.2803E-12  0.1558E-07  0.0000E+00  0.8442E+14
   -1.084987    3.96114  0.0000E+00  0.1999E-08  0.4728E-12  0.1998E-05  0.0000E+00  0.1683E+14
   -1.119986    3.99789  0.0000E+00  0.2718E-08  0.6721E-12  0.3778E-05  0.0000E+00 -0.7645E+12
   -1.154985    4.00300  0.0000E+00  0.3265E-08  0.8711E-12  0.4334E-05  0.0000E+00 -0.1012E+13
   -1.189984    4.00659  0.0000E+00  0.3746E-08  0.1113E-11  0.4405E-05  0.0000E+00 -0.1244E+13
   -1.224982    4.01022  0.0000E+00  0.4219E-08  0.1468E-11  0.4192E-05  0.0000E+00 -0.1695E+13
   -1.259981    4.01440  0.0000E+00  0.4743E-08  0.2097E-11  0.3732E-05  0.0000E+00 -0.2745E+13
   -1.294979    4.02008  0.0000E+00  0.5458E-08  0.3652E-11  0.2820E-05  0.0000E+00 -0.6253E+13
   -1.329977    4.03034  0.0000E+00  0.6014E-08  0.6862E-11  0.1647E-05  0.0000E+00 -0.1716E+14
   -1.364974    4.05057  0.0000E+00  0.6152E-08  0.1625E-10  0.6662E-06  0.0000E+00 -0.8670E+14
   -1.399971    4.10965  0.0000E+00  0.0000E+00  0.0000E+00  0.0000E+00  0.0000E+00  0.0000E+00
