 1 - depth, m
 2 - temperature, C
 3 - salinity, kg/kg
 4 - turbulent kinetic energy, m**2/s**2
 5 - dissipation rate, m**2/s**3
 6 - kinematic heat conductance, m**2/s
 7 - modulus of horizontal velocity, m/s
 8 - Richardson number, n/d
   -0.000000    0.00000  0.0000E+00  0.6754E-08  0.1763E-10  0.8654E-09  0.0000E+00  0.5216E+17
   -0.034998    0.88712  0.0000E+00  0.3542E-07  0.1383E-10  0.9347E-09  0.0000E+00  0.3807E+17
   -0.069996    1.76263  0.0000E+00  0.8799E-07  0.1831E-10  0.1881E-08  0.0000E+00  0.2521E+17
   -0.104995    2.64317  0.0000E+00  0.1719E-06  0.2879E-10  0.6510E-08  0.0000E+00  0.1247E+17
   -0.139994    3.53356  0.0000E+00  0.2675E-06  0.4201E-10  0.7433E-04  0.0000E+00  0.1955E+16
   -0.174993    4.09496  0.0000E+00  0.2686E-06  0.4219E-10  0.5361E-03  0.0000E+00 -0.4639E+12
   -0.209993    4.09523  0.0000E+00  0.2692E-06  0.4228E-10  0.5329E-03  0.0000E+00 -0.4293E+12
   -0.244992    4.09548  0.0000E+00  0.2697E-06  0.4239E-10  0.5327E-03  0.0000E+00 -0.4098E+12
   -0.279992    4.09573  0.0000E+00  0.2701E-06  0.4250E-10  0.5332E-03  0.0000E+00 -0.4135E+12
   -0.314993    4.09597  0.0000E+00  0.2705E-06  0.4261E-10  0.5332E-03  0.0000E+00 -0.4010E+12
   -0.349993    4.09621  0.0000E+00  0.2708E-06  0.4274E-10  0.5400E-03  0.0000E+00 -0.3660E+12
   -0.384993    4.09645  0.0000E+00  0.2711E-06  0.4289E-10  0.5369E-03  0.0000E+00 -0.4364E+12
   -0.419994    4.09669  0.0000E+00  0.2714E-06  0.4305E-10  0.5305E-03  0.0000E+00 -0.4108E+12
   -0.454995    4.09693  0.0000E+00  0.2716E-06  0.4322E-10  0.5302E-03  0.0000E+00 -0.4048E+12
   -0.489996    4.09717  0.0000E+00  0.2718E-06  0.4342E-10  0.5286E-03  0.0000E+00 -0.4070E+12
   -0.524997    4.09740  0.0000E+00  0.2720E-06  0.4366E-10  0.5264E-03  0.0000E+00 -0.4056E+12
   -0.559998    4.09764  0.0000E+00  0.2721E-06  0.4398E-10  0.5230E-03  0.0000E+00 -0.4205E+12
   -0.594999    4.09787  0.0000E+00  0.2723E-06  0.4447E-10  0.5181E-03  0.0000E+00 -0.4096E+12
   -0.630001    4.09812  0.0000E+00  0.2724E-06  0.4502E-10  0.5128E-03  0.0000E+00 -0.4159E+12
   -0.665002    4.09836  0.0000E+00  0.2725E-06  0.4562E-10  0.5067E-03  0.0000E+00 -0.4187E+12
   -0.700003    4.09860  0.0000E+00  0.2726E-06  0.4628E-10  0.4995E-03  0.0000E+00 -0.4242E+12
   -0.735005    4.09884  0.0000E+00  0.2726E-06  0.4700E-10  0.4908E-03  0.0000E+00 -0.4288E+12
   -0.770006    4.09909  0.0000E+00  0.2726E-06  0.4780E-10  0.4821E-03  0.0000E+00 -0.4333E+12
   -0.805007    4.09934  0.0000E+00  0.2725E-06  0.4870E-10  0.4730E-03  0.0000E+00 -0.4390E+12
   -0.840008    4.09959  0.0000E+00  0.2724E-06  0.4970E-10  0.4670E-03  0.0000E+00 -0.4392E+12
   -0.875010    4.09984  0.0000E+00  0.2722E-06  0.5082E-10  0.4515E-03  0.0000E+00 -0.4583E+12
   -0.910011    4.10010  0.0000E+00  0.2720E-06  0.5207E-10  0.4756E-03  0.0000E+00 -0.3958E+12
   -0.945012    4.10035  0.0000E+00  0.2718E-06  0.5345E-10  0.4148E-03  0.0000E+00 -0.5242E+12
   -0.980013    4.10063  0.0000E+00  0.2715E-06  0.5500E-10  0.4524E-03  0.0000E+00 -0.4199E+12
   -1.015013    4.10088  0.0000E+00  0.2711E-06  0.5681E-10  0.3871E-03  0.0000E+00 -0.5557E+12
   -1.050014    4.10118  0.0000E+00  0.2707E-06  0.5898E-10  0.3906E-03  0.0000E+00 -0.5206E+12
   -1.085014    4.10147  0.0000E+00  0.2702E-06  0.6163E-10  0.4058E-03  0.0000E+00 -0.4747E+12
   -1.120014    4.10175  0.0000E+00  0.2696E-06  0.6483E-10  0.3396E-03  0.0000E+00 -0.6247E+12
   -1.155014    4.10209  0.0000E+00  0.2689E-06  0.6868E-10  0.3649E-03  0.0000E+00 -0.5382E+12
   -1.190014    4.10240  0.0000E+00  0.2680E-06  0.7364E-10  0.2928E-03  0.0000E+00 -0.7224E+12
   -1.225013    4.10278  0.0000E+00  0.2669E-06  0.8072E-10  0.2799E-03  0.0000E+00 -0.7363E+12
   -1.260013    4.10319  0.0000E+00  0.2652E-06  0.9295E-10  0.2426E-03  0.0000E+00 -0.8660E+12
   -1.295012    4.10366  0.0000E+00  0.2614E-06  0.1223E-09  0.2025E-03  0.0000E+00 -0.1035E+13
   -1.330010    4.10424  0.0000E+00  0.2521E-06  0.2038E-09  0.8064E-04  0.0000E+00 -0.2660E+13
   -1.365009    4.10571  0.0000E+00  0.1729E-06  0.1067E-08  0.3666E-05  0.0000E+00 -0.6616E+14
   -1.400007    4.13725  0.0000E+00  0.0000E+00  0.0000E+00  0.0000E+00  0.0000E+00  0.0000E+00
