 1 - depth, m
 2 - temperature, C
 3 - salinity, kg/kg
 4 - turbulent kinetic energy, m**2/s**2
 5 - dissipation rate, m**2/s**3
 6 - kinematic heat conductance, m**2/s
 7 - modulus of horizontal velocity, m/s
 8 - Richardson number, n/d
   -0.000000    0.00000  0.0000E+00  0.4702E-13  0.1132E-15  0.1000E-09  0.0000E+00  0.8653E+16
   -0.034998    0.13215  0.0000E+00  0.4702E-13  0.1132E-15  0.1000E-09  0.0000E+00  0.8509E+16
   -0.069996    0.26699  0.0000E+00  0.4702E-13  0.1132E-15  0.1000E-09  0.0000E+00  0.8351E+16
   -0.104995    0.40457  0.0000E+00  0.4702E-13  0.1132E-15  0.1000E-09  0.0000E+00  0.8051E+16
   -0.139993    0.54273  0.0000E+00  0.4702E-13  0.1132E-15  0.1000E-09  0.0000E+00  0.7678E+16
   -0.174992    0.68020  0.0000E+00  0.4702E-13  0.1132E-15  0.1000E-09  0.0000E+00  0.7307E+16
   -0.209992    0.81688  0.0000E+00  0.4702E-13  0.1132E-15  0.1000E-09  0.0000E+00  0.6940E+16
   -0.244991    0.95271  0.0000E+00  0.4702E-13  0.1132E-15  0.1000E-09  0.0000E+00  0.6577E+16
   -0.279991    1.08762  0.0000E+00  0.4702E-13  0.1132E-15  0.1000E-09  0.0000E+00  0.6218E+16
   -0.314991    1.22151  0.0000E+00  0.4702E-13  0.1132E-15  0.1000E-09  0.0000E+00  0.5833E+16
   -0.349991    1.35360  0.0000E+00  0.4702E-13  0.1132E-15  0.1000E-09  0.0000E+00  0.5450E+16
   -0.384992    1.48358  0.0000E+00  0.4702E-13  0.1132E-15  0.1000E-09  0.0000E+00  0.5071E+16
   -0.419992    1.61120  0.0000E+00  0.4702E-13  0.1132E-15  0.1000E-09  0.0000E+00  0.4735E+16
   -0.454993    1.73715  0.0000E+00  0.4702E-13  0.1132E-15  0.1000E-09  0.0000E+00  0.4426E+16
   -0.489994    1.86189  0.0000E+00  0.4702E-13  0.1132E-15  0.1000E-09  0.0000E+00  0.4112E+16
   -0.524995    1.98498  0.0000E+00  0.4702E-13  0.1132E-15  0.1000E-09  0.0000E+00  0.3749E+16
   -0.559996    2.10446  0.0000E+00  0.4702E-13  0.1132E-15  0.1000E-09  0.0000E+00  0.3340E+16
   -0.594997    2.21791  0.0000E+00  0.4702E-13  0.1132E-15  0.1000E-09  0.0000E+00  0.2926E+16
   -0.629998    2.32384  0.0000E+00  0.4702E-13  0.1132E-15  0.1000E-09  0.0000E+00  0.2682E+16
   -0.664999    2.42745  0.0000E+00  0.4702E-13  0.1132E-15  0.1000E-09  0.0000E+00  0.2447E+16
   -0.700000    2.52854  0.0000E+00  0.4702E-13  0.1132E-15  0.1000E-09  0.0000E+00  0.2215E+16
   -0.735001    2.62670  0.0000E+00  0.4702E-13  0.1132E-15  0.1000E-09  0.0000E+00  0.2005E+16
   -0.770002    2.72224  0.0000E+00  0.4702E-13  0.1132E-15  0.1000E-09  0.0000E+00  0.1834E+16
   -0.805004    2.81661  0.0000E+00  0.4702E-13  0.1132E-15  0.1000E-09  0.0000E+00  0.1668E+16
   -0.840005    2.90971  0.0000E+00  0.4702E-13  0.1132E-15  0.1000E-09  0.0000E+00  0.1506E+16
   -0.875006    3.00146  0.0000E+00  0.4702E-13  0.1132E-15  0.1000E-09  0.0000E+00  0.1348E+16
   -0.910007    3.09169  0.0000E+00  0.4702E-13  0.1132E-15  0.1000E-09  0.0000E+00  0.1197E+16
   -0.945007    3.18037  0.0000E+00  0.4702E-13  0.1132E-15  0.1000E-09  0.0000E+00  0.1052E+16
   -0.980008    3.26740  0.0000E+00  0.4702E-13  0.1132E-15  0.1000E-09  0.0000E+00  0.9120E+15
   -1.015009    3.35257  0.0000E+00  0.4702E-13  0.1132E-15  0.1000E-09  0.0000E+00  0.7742E+15
   -1.050009    3.43521  0.0000E+00  0.1579E-12  0.1586E-15  0.1000E-09  0.0000E+00  0.6462E+15
   -1.085009    3.51527  0.0000E+00  0.5598E-12  0.4772E-15  0.1000E-09  0.0000E+00  0.5442E+15
   -1.120009    3.59532  0.0000E+00  0.1835E-11  0.1502E-14  0.1000E-09  0.0000E+00  0.4420E+15
   -1.155009    3.67525  0.0000E+00  0.5871E-11  0.4687E-14  0.1000E-09  0.0000E+00  0.3408E+15
   -1.190009    3.75514  0.0000E+00  0.1869E-10  0.1460E-13  0.1486E-09  0.0000E+00  0.2404E+15
   -1.225008    3.83520  0.0000E+00  0.6219E-10  0.4773E-13  0.8039E-09  0.0000E+00  0.1404E+15
   -1.260007    3.91600  0.0000E+00  0.2184E-09  0.1663E-12  0.8454E-08  0.0000E+00  0.3810E+14
   -1.295006    3.99545  0.0000E+00  0.8287E-09  0.6577E-12  0.3607E-06  0.0000E+00 -0.8782E+13
   -1.330004    4.02105  0.0000E+00  0.1385E-08  0.1455E-11  0.4748E-06  0.0000E+00 -0.1572E+14
   -1.365002    4.04301  0.0000E+00  0.1530E-08  0.2968E-11  0.2333E-06  0.0000E+00 -0.4784E+14
   -1.400000    4.08290  0.0000E+00  0.0000E+00  0.0000E+00  0.0000E+00  0.0000E+00  0.0000E+00
