 1 - depth, m
 2 - temperature, C
 3 - salinity, kg/kg
 4 - turbulent kinetic energy, m**2/s**2
 5 - dissipation rate, m**2/s**3
 6 - kinematic heat conductance, m**2/s
 7 - modulus of horizontal velocity, m/s
 8 - Richardson number, n/d
   -0.000000    0.00000  0.0000E+00  0.6093E-11  0.2480E-14  0.1000E-09  0.0000E+00  0.2029E+17
   -0.034998    0.31785  0.0000E+00  0.1018E-10  0.2036E-14  0.1000E-09  0.0000E+00  0.1865E+17
   -0.069996    0.63841  0.0000E+00  0.1769E-10  0.2208E-14  0.1000E-09  0.0000E+00  0.1687E+17
   -0.104995    0.95929  0.0000E+00  0.2900E-10  0.2804E-14  0.1000E-09  0.0000E+00  0.1484E+17
   -0.139993    1.27456  0.0000E+00  0.4517E-10  0.3830E-14  0.1000E-09  0.0000E+00  0.1276E+17
   -0.174992    1.57993  0.0000E+00  0.6802E-10  0.5378E-14  0.1000E-09  0.0000E+00  0.1077E+17
   -0.209992    1.87333  0.0000E+00  0.1003E-09  0.7620E-14  0.1000E-09  0.0000E+00  0.8919E+16
   -0.244991    2.15295  0.0000E+00  0.1458E-09  0.1081E-13  0.1000E-09  0.0000E+00  0.7237E+16
   -0.279991    2.41729  0.0000E+00  0.2104E-09  0.1532E-13  0.1000E-09  0.0000E+00  0.5741E+16
   -0.314991    2.66515  0.0000E+00  0.3033E-09  0.2177E-13  0.1000E-09  0.0000E+00  0.4418E+16
   -0.349991    2.89448  0.0000E+00  0.4389E-09  0.3110E-13  0.1000E-09  0.0000E+00  0.3288E+16
   -0.384992    3.10380  0.0000E+00  0.6362E-09  0.4456E-13  0.1000E-09  0.0000E+00  0.2352E+16
   -0.419992    3.29179  0.0000E+00  0.9206E-09  0.6377E-13  0.1096E-09  0.0000E+00  0.1643E+16
   -0.454993    3.46212  0.0000E+00  0.1329E-08  0.9106E-13  0.2155E-09  0.0000E+00  0.1102E+16
   -0.489994    3.61839  0.0000E+00  0.1915E-08  0.1298E-12  0.5117E-09  0.0000E+00  0.6694E+15
   -0.524995    3.76100  0.0000E+00  0.2847E-08  0.1909E-12  0.1577E-08  0.0000E+00  0.3289E+15
   -0.559996    3.88934  0.0000E+00  0.4405E-08  0.2921E-12  0.1195E-07  0.0000E+00  0.7604E+14
   -0.594997    3.99576  0.0000E+00  0.4737E-08  0.3150E-12  0.2917E-04  0.0000E+00 -0.3776E+11
   -0.629998    3.99672  0.0000E+00  0.4906E-08  0.3275E-12  0.2919E-04  0.0000E+00 -0.7300E+11
   -0.664999    3.99723  0.0000E+00  0.5061E-08  0.3399E-12  0.2960E-04  0.0000E+00 -0.7352E+11
   -0.700000    3.99770  0.0000E+00  0.5205E-08  0.3524E-12  0.2994E-04  0.0000E+00 -0.7296E+11
   -0.735002    3.99813  0.0000E+00  0.5342E-08  0.3653E-12  0.3025E-04  0.0000E+00 -0.7270E+11
   -0.770003    3.99855  0.0000E+00  0.5473E-08  0.3789E-12  0.3072E-04  0.0000E+00 -0.7472E+11
   -0.805004    3.99895  0.0000E+00  0.5598E-08  0.3932E-12  0.3105E-04  0.0000E+00 -0.7703E+11
   -0.840005    3.99935  0.0000E+00  0.5716E-08  0.4083E-12  0.3124E-04  0.0000E+00 -0.7973E+11
   -0.875006    3.99975  0.0000E+00  0.5828E-08  0.4244E-12  0.3129E-04  0.0000E+00 -0.8296E+11
   -0.910007    4.00016  0.0000E+00  0.5933E-08  0.4417E-12  0.3120E-04  0.0000E+00 -0.8652E+11
   -0.945008    4.00056  0.0000E+00  0.6030E-08  0.4603E-12  0.3100E-04  0.0000E+00 -0.9060E+11
   -0.980008    4.00097  0.0000E+00  0.6119E-08  0.4803E-12  0.3065E-04  0.0000E+00 -0.9546E+11
   -1.015009    4.00139  0.0000E+00  0.6199E-08  0.5025E-12  0.3020E-04  0.0000E+00 -0.1019E+12
   -1.050009    4.00183  0.0000E+00  0.6271E-08  0.5279E-12  0.2955E-04  0.0000E+00 -0.1097E+12
   -1.085009    4.00228  0.0000E+00  0.6334E-08  0.5576E-12  0.2860E-04  0.0000E+00 -0.1175E+12
   -1.120009    4.00275  0.0000E+00  0.6386E-08  0.5927E-12  0.2741E-04  0.0000E+00 -0.1271E+12
   -1.155009    4.00325  0.0000E+00  0.6425E-08  0.6349E-12  0.2597E-04  0.0000E+00 -0.1395E+12
   -1.190009    4.00377  0.0000E+00  0.6448E-08  0.6881E-12  0.2413E-04  0.0000E+00 -0.1574E+12
   -1.225008    4.00435  0.0000E+00  0.6449E-08  0.7671E-12  0.2150E-04  0.0000E+00 -0.1902E+12
   -1.260007    4.00502  0.0000E+00  0.6409E-08  0.9190E-12  0.1677E-04  0.0000E+00 -0.2766E+12
   -1.295006    4.00596  0.0000E+00  0.6212E-08  0.1369E-11  0.8943E-05  0.0000E+00 -0.6506E+12
   -1.330005    4.00800  0.0000E+00  0.5601E-08  0.2620E-11  0.3008E-05  0.0000E+00 -0.2500E+13
   -1.365003    4.01444  0.0000E+00  0.4027E-08  0.7261E-11  0.4591E-06  0.0000E+00 -0.2925E+14
   -1.400001    4.05359  0.0000E+00  0.0000E+00  0.0000E+00  0.0000E+00  0.0000E+00  0.0000E+00
