 1 - depth, m
 2 - temperature, C
 3 - salinity, kg/kg
 4 - turbulent kinetic energy, m**2/s**2
 5 - dissipation rate, m**2/s**3
 6 - kinematic heat conductance, m**2/s
 7 - modulus of horizontal velocity, m/s
 8 - Richardson number, n/d
   -0.000000    3.36865  0.0000E+00  0.1218E-03  0.4807E-04  0.4849E-04  0.1022E+00  0.3776E-03
   -0.034998    3.45396  0.0000E+00  0.7074E-04  0.1359E-04  0.8352E-04  0.3577E-01  0.2579E-02
   -0.069996    3.46669  0.0000E+00  0.5231E-04  0.5972E-05  0.8629E-04  0.2558E-01  0.8851E-02
   -0.104994    3.47615  0.0000E+00  0.4216E-04  0.3240E-05  0.9318E-04  0.2087E-01  0.2694E-02
   -0.139993    3.48384  0.0000E+00  0.3511E-04  0.1905E-05  0.1010E-03  0.1747E-01  0.4242E-02
   -0.174992    3.49047  0.0000E+00  0.2994E-04  0.1186E-05  0.1087E-03  0.1474E-01  0.4028E-02
   -0.209991    3.49639  0.0000E+00  0.2600E-04  0.7746E-06  0.1151E-03  0.1245E-01  0.4416E-02
   -0.244991    3.50178  0.0000E+00  0.2288E-04  0.5321E-06  0.1196E-03  0.1047E-01  0.4959E-02
   -0.279991    3.50683  0.0000E+00  0.2020E-04  0.3808E-06  0.1204E-03  0.8698E-02  0.5304E-02
   -0.314991    3.51173  0.0000E+00  0.1764E-04  0.2773E-06  0.1252E-03  0.7044E-02  0.8432E-02
   -0.349991    3.51635  0.0000E+00  0.1539E-04  0.2061E-06  0.1277E-03  0.5720E-02  0.1409E-01
   -0.384991    3.52082  0.0000E+00  0.1347E-04  0.1561E-06  0.1285E-03  0.4640E-02  0.2607E-01
   -0.419992    3.52520  0.0000E+00  0.1186E-04  0.1208E-06  0.1267E-03  0.3745E-02  0.4597E-01
   -0.454992    3.52960  0.0000E+00  0.1050E-04  0.9528E-07  0.1236E-03  0.2952E-02  0.9584E-01
   -0.489993    3.53409  0.0000E+00  0.9321E-05  0.7650E-07  0.1213E-03  0.2231E-02  0.3767E+00
   -0.524994    3.53868  0.0000E+00  0.8229E-05  0.6159E-07  0.1226E-03  0.1605E-02  0.3725E+01
   -0.559995    3.54307  0.0000E+00  0.7201E-05  0.4939E-07  0.1213E-03  0.1168E-02 -0.8054E+01
   -0.594996    3.54731  0.0000E+00  0.6117E-05  0.3805E-07  0.1155E-03  0.8992E-03 -0.2522E+05
   -0.629997    3.55166  0.0000E+00  0.5173E-05  0.2918E-07  0.1064E-03  0.7593E-03 -0.6539E+04
   -0.664998    3.55632  0.0000E+00  0.4384E-05  0.2249E-07  0.9764E-04  0.6325E-03 -0.3682E+04
   -0.699999    3.56132  0.0000E+00  0.3721E-05  0.1742E-07  0.8936E-04  0.5186E-03 -0.2621E+04
   -0.735000    3.56670  0.0000E+00  0.3158E-05  0.1354E-07  0.8139E-04  0.4186E-03  0.3586E+04
   -0.770001    3.57253  0.0000E+00  0.2678E-05  0.1055E-07  0.7365E-04  0.3334E-03  0.3555E+05
   -0.805003    3.57888  0.0000E+00  0.2266E-05  0.8216E-08  0.6609E-04  0.2622E-03  0.1977E+06
   -0.840004    3.58591  0.0000E+00  0.1912E-05  0.6402E-08  0.5877E-04  0.2032E-03  0.1085E+07
   -0.875005    3.59378  0.0000E+00  0.1606E-05  0.4978E-08  0.5172E-04  0.1548E-03  0.7898E+07
   -0.910005    3.60270  0.0000E+00  0.1341E-05  0.3854E-08  0.4490E-04  0.1165E-03  0.5547E+08
   -0.945006    3.61337  0.0000E+00  0.1113E-05  0.2974E-08  0.3856E-04  0.8530E-04  0.4800E+09
   -0.980007    3.62708  0.0000E+00  0.9155E-06  0.2279E-08  0.3283E-04  0.5962E-04  0.6690E+10
   -1.015007    3.64746  0.0000E+00  0.7431E-06  0.1721E-08  0.2804E-04  0.3839E-04  0.2328E+12
   -1.050008    3.68584  0.0000E+00  0.5942E-06  0.1272E-08  0.2440E-04  0.2282E-04  0.1430E+13
   -1.085008    3.76849  0.0000E+00  0.4780E-06  0.9343E-09  0.2238E-04  0.1265E-04  0.7451E+13
   -1.120008    3.86916  0.0000E+00  0.3973E-06  0.7068E-09  0.2329E-04  0.7134E-05  0.6864E+13
   -1.155008    3.93753  0.0000E+00  0.3465E-06  0.5676E-09  0.2517E-04  0.4018E-05  0.3809E+12
   -1.190007    3.97695  0.0000E+00  0.3154E-06  0.4876E-09  0.2747E-04  0.2260E-05 -0.6661E+12
   -1.225006    4.00088  0.0000E+00  0.2943E-06  0.4431E-09  0.2923E-04  0.1220E-05 -0.9877E+12
   -1.260005    4.01812  0.0000E+00  0.2765E-06  0.4234E-09  0.2920E-04  0.6354E-06 -0.1696E+13
   -1.295004    4.03291  0.0000E+00  0.2527E-06  0.4360E-09  0.2502E-04  0.3277E-06 -0.3796E+13
   -1.330003    4.04854  0.0000E+00  0.2203E-06  0.5237E-09  0.1592E-04  0.1909E-06 -0.1136E+14
   -1.365001    4.07225  0.0000E+00  0.1413E-06  0.1150E-08  0.3275E-05  0.9721E-07 -0.1108E+15
   -1.399999    4.17001  0.0000E+00  0.0000E+00  0.0000E+00  0.0000E+00  0.9764E-07  0.0000E+00
