 1 - depth, m
 2 - temperature, C
 3 - salinity, kg/kg
 4 - turbulent kinetic energy, m**2/s**2
 5 - dissipation rate, m**2/s**3
 6 - kinematic heat conductance, m**2/s
 7 - modulus of horizontal velocity, m/s
 8 - Richardson number, n/d
   -0.000000   10.28693  0.0000E+00  0.1263E-04  0.7955E-06  0.1970E-04  0.1882E-01 -0.1546E-01
   -0.034998   10.30841  0.0000E+00  0.1053E-04  0.3218E-06  0.3588E-04  0.1165E-01 -0.3818E-01
   -0.069996   10.31948  0.0000E+00  0.9083E-05  0.1792E-06  0.5037E-04  0.8449E-02 -0.6832E-01
   -0.104995   10.32713  0.0000E+00  0.8007E-05  0.1147E-06  0.6492E-04  0.6446E-02 -0.1074E+00
   -0.139994   10.33290  0.0000E+00  0.7182E-05  0.7967E-07  0.8233E-04  0.5053E-02 -0.1041E+00
   -0.174993   10.33734  0.0000E+00  0.6542E-05  0.5872E-07  0.1142E-03  0.4031E-02  0.1795E+03
   -0.209992   10.34068  0.0000E+00  0.6045E-05  0.4534E-07  0.1514E-03  0.3264E-02  0.1620E+03
   -0.244992   10.34320  0.0000E+00  0.5654E-05  0.3639E-07  0.2129E-03  0.2659E-02  0.3162E+03
   -0.279992   10.34496  0.0000E+00  0.5342E-05  0.3014E-07  0.2717E-03  0.2177E-02  0.8298E+03
   -0.314992   10.34621  0.0000E+00  0.5075E-05  0.2547E-07  0.3229E-03  0.1763E-02  0.4077E+01
   -0.349992   10.34719  0.0000E+00  0.4845E-05  0.2180E-07  0.3355E-03  0.1432E-02  0.2709E+01
   -0.384992   10.34811  0.0000E+00  0.4647E-05  0.1887E-07  0.3581E-03  0.1153E-02  0.2096E+01
   -0.419993   10.34895  0.0000E+00  0.4485E-05  0.1659E-07  0.3727E-03  0.9257E-03  0.1913E+01
   -0.454994   10.34974  0.0000E+00  0.4352E-05  0.1480E-07  0.3898E-03  0.7276E-03  0.1812E+01
   -0.489994   10.35047  0.0000E+00  0.4242E-05  0.1340E-07  0.4071E-03  0.5537E-03  0.1618E+01
   -0.524995   10.35116  0.0000E+00  0.4147E-05  0.1225E-07  0.4454E-03  0.4039E-03  0.1167E+01
   -0.559996   10.35180  0.0000E+00  0.4063E-05  0.1126E-07  0.4661E-03  0.3001E-03  0.9174E+00
   -0.594998   10.35242  0.0000E+00  0.3988E-05  0.1039E-07  0.4857E-03  0.2384E-03  0.7341E+00
   -0.629999   10.35305  0.0000E+00  0.3932E-05  0.9776E-08  0.4958E-03  0.2076E-03  0.8454E+00
   -0.665000   10.35365  0.0000E+00  0.3889E-05  0.9306E-08  0.5047E-03  0.1851E-03  0.8586E+00
   -0.700001   10.35422  0.0000E+00  0.3850E-05  0.8912E-08  0.5156E-03  0.1651E-03  0.9145E+00
   -0.735002   10.35478  0.0000E+00  0.3815E-05  0.8578E-08  0.5250E-03  0.1475E-03  0.1008E+01
   -0.770004   10.35531  0.0000E+00  0.3783E-05  0.8292E-08  0.5331E-03  0.1321E-03  0.1142E+01
   -0.805005   10.35583  0.0000E+00  0.3752E-05  0.8044E-08  0.5399E-03  0.1183E-03  0.1327E+01
   -0.840006   10.35634  0.0000E+00  0.3721E-05  0.7833E-08  0.5452E-03  0.1059E-03  0.1547E+01
   -0.875007   10.35683  0.0000E+00  0.3691E-05  0.7654E-08  0.5486E-03  0.9479E-04  0.1803E+01
   -0.910008   10.35731  0.0000E+00  0.3661E-05  0.7507E-08  0.5501E-03  0.8474E-04  0.2118E+01
   -0.945009   10.35778  0.0000E+00  0.3630E-05  0.7393E-08  0.5494E-03  0.7554E-04  0.2454E+01
   -0.980009   10.35824  0.0000E+00  0.3600E-05  0.7315E-08  0.5462E-03  0.6704E-04  0.2848E+01
   -1.015010   10.35869  0.0000E+00  0.3569E-05  0.7273E-08  0.5402E-03  0.5916E-04  0.3355E+01
   -1.050010   10.35914  0.0000E+00  0.3536E-05  0.7271E-08  0.5309E-03  0.5199E-04  0.4187E+01
   -1.085011   10.35959  0.0000E+00  0.3501E-05  0.7319E-08  0.5178E-03  0.4550E-04  0.5336E+01
   -1.120011   10.36004  0.0000E+00  0.3464E-05  0.7427E-08  0.5005E-03  0.3964E-04  0.7021E+01
   -1.155011   10.36050  0.0000E+00  0.3424E-05  0.7615E-08  0.4788E-03  0.3416E-04  0.8947E+01
   -1.190010   10.36098  0.0000E+00  0.3382E-05  0.7914E-08  0.4508E-03  0.2901E-04  0.1147E+02
   -1.225010   10.36147  0.0000E+00  0.3332E-05  0.8422E-08  0.4176E-03  0.2416E-04  0.1499E+02
   -1.260009   10.36200  0.0000E+00  0.3262E-05  0.9401E-08  0.3538E-03  0.2000E-04  0.2517E+02
   -1.295008   10.36264  0.0000E+00  0.3124E-05  0.1198E-07  0.3010E-03  0.1621E-04  0.5314E+02
   -1.330006   10.36340  0.0000E+00  0.2848E-05  0.1925E-07  0.1767E-03  0.1351E-04 -0.2679E+04
   -1.365004   10.36613  0.0000E+00  0.1877E-05  0.5709E-07  0.2465E-04  0.1029E-04 -0.4024E+05
   -1.400002   10.37794  0.0000E+00  0.0000E+00  0.0000E+00  0.0000E+00  0.1083E-04  0.0000E+00
