 1 - depth, m
 2 - temperature, C
 3 - salinity, kg/kg
 4 - turbulent kinetic energy, m**2/s**2
 5 - dissipation rate, m**2/s**3
 6 - kinematic heat conductance, m**2/s
 7 - modulus of horizontal velocity, m/s
 8 - Richardson number, n/d
   -0.000000    0.00000  0.0000E+00  0.4702E-13  0.1132E-15  0.1000E-09  0.0000E+00  0.9457E+16
   -0.034998    0.14467  0.0000E+00  0.4702E-13  0.1132E-15  0.1000E-09  0.0000E+00  0.9233E+16
   -0.069996    0.29175  0.0000E+00  0.4702E-13  0.1132E-15  0.1000E-09  0.0000E+00  0.9000E+16
   -0.104994    0.44136  0.0000E+00  0.4702E-13  0.1132E-15  0.1000E-09  0.0000E+00  0.8615E+16
   -0.139993    0.59113  0.0000E+00  0.4702E-13  0.1132E-15  0.1000E-09  0.0000E+00  0.8156E+16
   -0.174992    0.73966  0.0000E+00  0.4702E-13  0.1132E-15  0.1000E-09  0.0000E+00  0.7705E+16
   -0.209991    0.88688  0.0000E+00  0.4702E-13  0.1132E-15  0.1000E-09  0.0000E+00  0.7262E+16
   -0.244990    1.03271  0.0000E+00  0.4702E-13  0.1132E-15  0.1000E-09  0.0000E+00  0.6827E+16
   -0.279990    1.17708  0.0000E+00  0.4702E-13  0.1132E-15  0.1000E-09  0.0000E+00  0.6401E+16
   -0.314990    1.31986  0.0000E+00  0.4702E-13  0.1132E-15  0.1000E-09  0.0000E+00  0.5942E+16
   -0.349990    1.45996  0.0000E+00  0.4702E-13  0.1132E-15  0.1000E-09  0.0000E+00  0.5488E+16
   -0.384990    1.59696  0.0000E+00  0.4702E-13  0.1132E-15  0.1000E-09  0.0000E+00  0.5044E+16
   -0.419991    1.73051  0.0000E+00  0.4702E-13  0.1132E-15  0.1000E-09  0.0000E+00  0.4662E+16
   -0.454991    1.86168  0.0000E+00  0.4702E-13  0.1132E-15  0.1000E-09  0.0000E+00  0.4320E+16
   -0.489992    1.99121  0.0000E+00  0.4702E-13  0.1132E-15  0.1000E-09  0.0000E+00  0.3973E+16
   -0.524993    2.11851  0.0000E+00  0.4702E-13  0.1132E-15  0.1000E-09  0.0000E+00  0.3567E+16
   -0.559993    2.24095  0.0000E+00  0.4702E-13  0.1132E-15  0.1000E-09  0.0000E+00  0.3108E+16
   -0.594994    2.35535  0.0000E+00  0.4702E-13  0.1132E-15  0.1000E-09  0.0000E+00  0.2649E+16
   -0.629995    2.45979  0.0000E+00  0.4702E-13  0.1132E-15  0.1000E-09  0.0000E+00  0.2403E+16
   -0.664996    2.56131  0.0000E+00  0.4702E-13  0.1132E-15  0.1000E-09  0.0000E+00  0.2168E+16
   -0.699997    2.65970  0.0000E+00  0.4702E-13  0.1132E-15  0.1000E-09  0.0000E+00  0.1939E+16
   -0.734998    2.75451  0.0000E+00  0.4702E-13  0.1132E-15  0.1000E-09  0.0000E+00  0.1736E+16
   -0.769999    2.84619  0.0000E+00  0.4702E-13  0.1132E-15  0.1000E-09  0.0000E+00  0.1579E+16
   -0.805000    2.93665  0.0000E+00  0.4702E-13  0.1132E-15  0.1000E-09  0.0000E+00  0.1427E+16
   -0.840001    3.02584  0.0000E+00  0.4702E-13  0.1132E-15  0.1000E-09  0.0000E+00  0.1280E+16
   -0.875002    3.11369  0.0000E+00  0.4702E-13  0.1132E-15  0.1000E-09  0.0000E+00  0.1137E+16
   -0.910003    3.20005  0.0000E+00  0.4702E-13  0.1132E-15  0.1000E-09  0.0000E+00  0.1001E+16
   -0.945004    3.28496  0.0000E+00  0.4702E-13  0.1132E-15  0.1000E-09  0.0000E+00  0.8705E+15
   -0.980004    3.36832  0.0000E+00  0.1824E-12  0.1477E-15  0.1000E-09  0.0000E+00  0.7449E+15
   -1.015005    3.44995  0.0000E+00  0.5841E-12  0.3826E-15  0.1000E-09  0.0000E+00  0.6215E+15
   -1.050005    3.52920  0.0000E+00  0.1698E-11  0.1056E-14  0.1000E-09  0.0000E+00  0.5073E+15
   -1.085005    3.60604  0.0000E+00  0.4818E-11  0.2907E-14  0.1000E-09  0.0000E+00  0.4151E+15
   -1.120005    3.68318  0.0000E+00  0.1338E-10  0.7872E-14  0.1000E-09  0.0000E+00  0.3219E+15
   -1.155005    3.76055  0.0000E+00  0.3674E-10  0.2111E-13  0.2319E-09  0.0000E+00  0.2281E+15
   -1.190004    3.83824  0.0000E+00  0.1006E-09  0.5660E-13  0.1041E-08  0.0000E+00  0.1335E+15
   -1.225003    3.91619  0.0000E+00  0.2866E-09  0.1586E-12  0.9075E-08  0.0000E+00  0.3828E+14
   -1.260002    3.99188  0.0000E+00  0.8104E-09  0.4538E-12  0.5020E-06  0.0000E+00 -0.4384E+13
   -1.295001    4.01061  0.0000E+00  0.1473E-08  0.1030E-11  0.8005E-06  0.0000E+00 -0.7145E+13
   -1.329999    4.02508  0.0000E+00  0.1913E-08  0.1896E-11  0.6661E-06  0.0000E+00 -0.1370E+14
   -1.364997    4.04334  0.0000E+00  0.1935E-08  0.3844E-11  0.2775E-06  0.0000E+00 -0.4892E+14
   -1.399995    4.08380  0.0000E+00  0.0000E+00  0.0000E+00  0.0000E+00  0.0000E+00  0.0000E+00
