 1 - depth, m
 2 - temperature, C
 3 - salinity, kg/kg
 4 - turbulent kinetic energy, m**2/s**2
 5 - dissipation rate, m**2/s**3
 6 - kinematic heat conductance, m**2/s
 7 - modulus of horizontal velocity, m/s
 8 - Richardson number, n/d
   -0.000000    0.00000  0.0000E+00  0.4702E-13  0.1132E-15  0.1000E-09  0.0000E+00  0.8462E+16
   -0.034998    0.12918  0.0000E+00  0.4702E-13  0.1132E-15  0.1000E-09  0.0000E+00  0.8248E+16
   -0.069996    0.25969  0.0000E+00  0.4702E-13  0.1132E-15  0.1000E-09  0.0000E+00  0.8033E+16
   -0.104994    0.39164  0.0000E+00  0.4702E-13  0.1132E-15  0.1000E-09  0.0000E+00  0.7706E+16
   -0.139992    0.52325  0.0000E+00  0.4702E-13  0.1132E-15  0.1000E-09  0.0000E+00  0.7326E+16
   -0.174991    0.65347  0.0000E+00  0.4702E-13  0.1132E-15  0.1000E-09  0.0000E+00  0.6956E+16
   -0.209990    0.78231  0.0000E+00  0.4702E-13  0.1132E-15  0.1000E-09  0.0000E+00  0.6597E+16
   -0.244990    0.90974  0.0000E+00  0.4702E-13  0.1132E-15  0.1000E-09  0.0000E+00  0.6246E+16
   -0.279989    1.03574  0.0000E+00  0.4702E-13  0.1132E-15  0.1000E-09  0.0000E+00  0.5904E+16
   -0.314989    1.16028  0.0000E+00  0.4702E-13  0.1132E-15  0.1000E-09  0.0000E+00  0.5561E+16
   -0.349989    1.28307  0.0000E+00  0.4702E-13  0.1132E-15  0.1000E-09  0.0000E+00  0.5223E+16
   -0.384989    1.40396  0.0000E+00  0.4702E-13  0.1132E-15  0.1000E-09  0.0000E+00  0.4891E+16
   -0.419989    1.52277  0.0000E+00  0.4702E-13  0.1132E-15  0.1000E-09  0.0000E+00  0.4587E+16
   -0.454990    1.63989  0.0000E+00  0.4702E-13  0.1132E-15  0.1000E-09  0.0000E+00  0.4305E+16
   -0.489990    1.75563  0.0000E+00  0.4702E-13  0.1132E-15  0.1000E-09  0.0000E+00  0.4025E+16
   -0.524991    1.86978  0.0000E+00  0.4702E-13  0.1132E-15  0.1000E-09  0.0000E+00  0.3733E+16
   -0.559992    1.98166  0.0000E+00  0.4702E-13  0.1132E-15  0.1000E-09  0.0000E+00  0.3418E+16
   -0.594993    2.09009  0.0000E+00  0.4702E-13  0.1132E-15  0.1000E-09  0.0000E+00  0.3098E+16
   -0.629994    2.19422  0.0000E+00  0.4702E-13  0.1132E-15  0.1000E-09  0.0000E+00  0.2862E+16
   -0.664995    2.29627  0.0000E+00  0.4702E-13  0.1132E-15  0.1000E-09  0.0000E+00  0.2633E+16
   -0.699995    2.39610  0.0000E+00  0.4702E-13  0.1132E-15  0.1000E-09  0.0000E+00  0.2410E+16
   -0.734996    2.49346  0.0000E+00  0.4702E-13  0.1132E-15  0.1000E-09  0.0000E+00  0.2205E+16
   -0.769997    2.58862  0.0000E+00  0.4702E-13  0.1132E-15  0.1000E-09  0.0000E+00  0.2033E+16
   -0.804998    2.68267  0.0000E+00  0.4702E-13  0.1132E-15  0.1000E-09  0.0000E+00  0.1866E+16
   -0.839999    2.77552  0.0000E+00  0.4702E-13  0.1132E-15  0.1000E-09  0.0000E+00  0.1702E+16
   -0.875000    2.86708  0.0000E+00  0.4702E-13  0.1132E-15  0.1000E-09  0.0000E+00  0.1543E+16
   -0.910001    2.95725  0.0000E+00  0.4702E-13  0.1132E-15  0.1000E-09  0.0000E+00  0.1389E+16
   -0.945001    3.04591  0.0000E+00  0.4702E-13  0.1132E-15  0.1000E-09  0.0000E+00  0.1240E+16
   -0.980002    3.13296  0.0000E+00  0.4702E-13  0.1132E-15  0.1000E-09  0.0000E+00  0.1097E+16
   -1.015002    3.21822  0.0000E+00  0.4702E-13  0.1132E-15  0.1000E-09  0.0000E+00  0.9566E+15
   -1.050002    3.30131  0.0000E+00  0.4702E-13  0.1132E-15  0.1000E-09  0.0000E+00  0.8251E+15
   -1.085002    3.38220  0.0000E+00  0.4702E-13  0.1132E-15  0.1000E-09  0.0000E+00  0.7184E+15
   -1.120002    3.46281  0.0000E+00  0.4702E-13  0.1132E-15  0.1000E-09  0.0000E+00  0.6113E+15
   -1.155001    3.54292  0.0000E+00  0.1113E-12  0.1585E-15  0.1000E-09  0.0000E+00  0.5067E+15
   -1.190001    3.62255  0.0000E+00  0.4569E-12  0.5926E-15  0.1000E-09  0.0000E+00  0.4049E+15
   -1.225000    3.70189  0.0000E+00  0.1983E-11  0.2532E-14  0.1000E-09  0.0000E+00  0.3072E+15
   -1.259999    3.78180  0.0000E+00  0.9115E-11  0.1161E-13  0.1215E-09  0.0000E+00  0.2106E+15
   -1.294997    3.86381  0.0000E+00  0.4865E-10  0.6278E-13  0.1122E-08  0.0000E+00  0.1076E+15
   -1.329995    3.95036  0.0000E+00  0.2076E-09  0.2812E-12  0.2042E-07  0.0000E+00 -0.4081E+13
   -1.364993    4.02891  0.0000E+00  0.6983E-09  0.1327E-11  0.1348E-06  0.0000E+00 -0.5189E+14
   -1.399991    4.07821  0.0000E+00  0.0000E+00  0.0000E+00  0.0000E+00  0.0000E+00  0.0000E+00
