 1 - depth, m
 2 - temperature, C
 3 - salinity, kg/kg
 4 - turbulent kinetic energy, m**2/s**2
 5 - dissipation rate, m**2/s**3
 6 - kinematic heat conductance, m**2/s
 7 - modulus of horizontal velocity, m/s
 8 - Richardson number, n/d
   -0.000000    1.09925  0.0000E+00  0.2417E-03  0.2509E-03  0.6857E-04  0.1732E+00  0.4567E+00
   -0.034995    1.18553  0.0000E+00  0.1388E-03  0.8343E-04  0.1079E-03  0.5577E-01  0.1199E-01
   -0.069989    1.20325  0.0000E+00  0.9884E-04  0.3009E-04  0.1284E-03  0.3656E-01  0.8893E-02
   -0.104985    1.21436  0.0000E+00  0.7907E-04  0.1588E-04  0.1349E-03  0.2931E-01  0.1065E-01
   -0.139980    1.22134  0.0000E+00  0.6603E-04  0.9100E-05  0.1425E-03  0.2461E-01  0.9696E-02
   -0.174976    1.22671  0.0000E+00  0.5650E-04  0.5337E-05  0.1507E-03  0.2097E-01  0.1107E-01
   -0.209972    1.23108  0.0000E+00  0.4939E-04  0.3216E-05  0.1582E-03  0.1797E-01  0.1290E-01
   -0.244968    1.23495  0.0000E+00  0.4381E-04  0.2042E-05  0.1637E-03  0.1536E-01  0.1163E-01
   -0.279965    1.23852  0.0000E+00  0.3915E-04  0.1374E-05  0.1649E-03  0.1303E-01  0.1238E-01
   -0.314961    1.24195  0.0000E+00  0.3480E-04  0.9600E-06  0.1713E-03  0.1078E-01  0.2443E-01
   -0.349958    1.24507  0.0000E+00  0.3101E-04  0.6980E-06  0.1747E-03  0.9035E-02  0.1150E+00
   -0.384955    1.24804  0.0000E+00  0.2774E-04  0.5265E-06  0.1760E-03  0.7598E-02  0.5149E+01
   -0.419952    1.25088  0.0000E+00  0.2496E-04  0.4111E-06  0.1735E-03  0.6388E-02  0.3273E+01
   -0.454950    1.25378  0.0000E+00  0.2251E-04  0.3298E-06  0.1688E-03  0.5276E-02  0.1124E+02
   -0.489947    1.25690  0.0000E+00  0.2030E-04  0.2702E-06  0.1646E-03  0.4233E-02  0.2489E+03
   -0.524945    1.26040  0.0000E+00  0.1816E-04  0.2222E-06  0.1665E-03  0.3300E-02  0.1276E+04
   -0.559943    1.26334  0.0000E+00  0.1607E-04  0.1820E-06  0.1660E-03  0.2625E-02  0.4095E+08
   -0.594940    1.26600  0.0000E+00  0.1383E-04  0.1438E-06  0.1582E-03  0.2188E-02  0.5643E+06
   -0.629938    1.26879  0.0000E+00  0.1184E-04  0.1131E-06  0.1435E-03  0.1938E-02  0.1321E+07
   -0.664936    1.27184  0.0000E+00  0.1013E-04  0.8930E-07  0.1290E-03  0.1698E-02 -0.1028E+07
   -0.699934    1.27522  0.0000E+00  0.8655E-05  0.7067E-07  0.1148E-03  0.1472E-02  0.7610E+07
   -0.734932    1.27900  0.0000E+00  0.7367E-05  0.5592E-07  0.1009E-03  0.1261E-02  0.6732E+08
   -0.769930    1.28328  0.0000E+00  0.6237E-05  0.4415E-07  0.8725E-04  0.1069E-02  0.1110E+08
   -0.804927    1.28816  0.0000E+00  0.5239E-05  0.3472E-07  0.7383E-04  0.8975E-03  0.3233E+08
   -0.839925    1.29387  0.0000E+00  0.4359E-05  0.2716E-07  0.6079E-04  0.7444E-03  0.7397E+08
   -0.874923    1.30074  0.0000E+00  0.3580E-05  0.2108E-07  0.4818E-04  0.6090E-03  0.2664E+10
   -0.909920    1.30918  0.0000E+00  0.2889E-05  0.1618E-07  0.3602E-04  0.4931E-03  0.4261E+10
   -0.944918    1.32084  0.0000E+00  0.2277E-05  0.1223E-07  0.2479E-04  0.3895E-03  0.2612E+11
   -0.979915    1.34079  0.0000E+00  0.1720E-05  0.8990E-08  0.1485E-04  0.2949E-03  0.5047E+12
   -1.014912    1.40056  0.0000E+00  0.1193E-05  0.6190E-08  0.7431E-05  0.2026E-03  0.2231E+14
   -1.049909    1.60792  0.0000E+00  0.7258E-06  0.3804E-08  0.2737E-05  0.1213E-03  0.7245E+14
   -1.084906    2.03606  0.0000E+00  0.3564E-06  0.1899E-08  0.3497E-06  0.6272E-04  0.1312E+15
   -1.119903    2.69203  0.0000E+00  0.9960E-07  0.5322E-09  0.3898E-07  0.1977E-04  0.2074E+15
   -1.154900    3.46806  0.0000E+00  0.2596E-07  0.9555E-10  0.2844E-05  0.2661E-05  0.1780E+15
   -1.189896    3.92495  0.0000E+00  0.2176E-07  0.3092E-10  0.8722E-05  0.2083E-06  0.3184E+14
   -1.224892    4.05968  0.0000E+00  0.2649E-07  0.2710E-10  0.1244E-04  0.1081E-07 -0.1342E+13
   -1.259888    4.06950  0.0000E+00  0.2858E-07  0.2760E-10  0.1312E-04  0.1300E-08 -0.4343E+13
   -1.294883    4.07802  0.0000E+00  0.2931E-07  0.3030E-10  0.1087E-04  0.1809E-09 -0.8326E+13
   -1.329878    4.08721  0.0000E+00  0.2804E-07  0.3763E-10  0.6694E-05  0.3985E-10 -0.1789E+14
   -1.364873    4.10120  0.0000E+00  0.2184E-07  0.6875E-10  0.1586E-05  0.6647E-11 -0.9544E+14
   -1.399868    4.14837  0.0000E+00  0.0000E+00  0.0000E+00  0.0000E+00  0.6606E-11  0.0000E+00
