 1 - depth, m
 2 - temperature, C
 3 - salinity, kg/kg
 4 - turbulent kinetic energy, m**2/s**2
 5 - dissipation rate, m**2/s**3
 6 - kinematic heat conductance, m**2/s
 7 - modulus of horizontal velocity, m/s
 8 - Richardson number, n/d
   -0.000000   16.06949  0.0000E+00  0.5465E-04  0.1288E-04  0.3512E-04  0.5547E-01 -0.4548E-01
   -0.034998   16.10860  0.0000E+00  0.3455E-04  0.3865E-05  0.5279E-04  0.2297E-01 -0.1633E-01
   -0.069996   16.11670  0.0000E+00  0.2703E-04  0.1807E-05  0.6659E-04  0.1690E-01 -0.1538E+00
   -0.104994   16.12236  0.0000E+00  0.2249E-04  0.9946E-06  0.8003E-04  0.1350E-01 -0.4768E-01
   -0.139993   16.12683  0.0000E+00  0.1930E-04  0.5996E-06  0.9379E-04  0.1102E-01 -0.6527E-01
   -0.174992   16.13058  0.0000E+00  0.1695E-04  0.3884E-06  0.1078E-03  0.9080E-02 -0.8609E-01
   -0.209991   16.13382  0.0000E+00  0.1515E-04  0.2675E-06  0.1222E-03  0.7515E-02 -0.1053E+00
   -0.244991   16.13666  0.0000E+00  0.1372E-04  0.1943E-06  0.1422E-03  0.6214E-02  0.4099E+01
   -0.279991   16.13914  0.0000E+00  0.1253E-04  0.1475E-06  0.2081E-03  0.5107E-02  0.6247E+02
   -0.314990   16.14116  0.0000E+00  0.1147E-04  0.1149E-06  0.2522E-03  0.4164E-02  0.9554E+02
   -0.349991   16.14281  0.0000E+00  0.1058E-04  0.9184E-07  0.3289E-03  0.3410E-02  0.5461E+02
   -0.384991   16.14404  0.0000E+00  0.9844E-05  0.7532E-07  0.3725E-03  0.2813E-02  0.1591E+03
   -0.419991   16.14502  0.0000E+00  0.9229E-05  0.6305E-07  0.3889E-03  0.2308E-02  0.3362E+02
   -0.454992   16.14591  0.0000E+00  0.8703E-05  0.5373E-07  0.3987E-03  0.1853E-02  0.1349E+02
   -0.489993   16.14674  0.0000E+00  0.8242E-05  0.4653E-07  0.4033E-03  0.1438E-02  0.8381E+01
   -0.524994   16.14755  0.0000E+00  0.7795E-05  0.4043E-07  0.4319E-03  0.1067E-02  0.1425E+01
   -0.559994   16.14827  0.0000E+00  0.7365E-05  0.3509E-07  0.4832E-03  0.7954E-03  0.8965E+00
   -0.594995   16.14888  0.0000E+00  0.6950E-05  0.3024E-07  0.5219E-03  0.6252E-03  0.2859E+02
   -0.629997   16.14939  0.0000E+00  0.6646E-05  0.2678E-07  0.5350E-03  0.5375E-03  0.9847E+00
   -0.664998   16.14990  0.0000E+00  0.6409E-05  0.2417E-07  0.5450E-03  0.4700E-03  0.7913E+00
   -0.699999   16.15039  0.0000E+00  0.6212E-05  0.2207E-07  0.5572E-03  0.4089E-03  0.1409E+01
   -0.735000   16.15087  0.0000E+00  0.6047E-05  0.2037E-07  0.5689E-03  0.3555E-03  0.8150E+00
   -0.770001   16.15135  0.0000E+00  0.5908E-05  0.1902E-07  0.5788E-03  0.3095E-03  0.7662E+00
   -0.805002   16.15181  0.0000E+00  0.5792E-05  0.1796E-07  0.5863E-03  0.2707E-03  0.7872E+00
   -0.840003   16.15227  0.0000E+00  0.5692E-05  0.1713E-07  0.5912E-03  0.2378E-03  0.8148E+00
   -0.875004   16.15272  0.0000E+00  0.5607E-05  0.1650E-07  0.5933E-03  0.2100E-03  0.8720E+00
   -0.910005   16.15318  0.0000E+00  0.5531E-05  0.1602E-07  0.5929E-03  0.1865E-03  0.9825E+00
   -0.945005   16.15364  0.0000E+00  0.5463E-05  0.1569E-07  0.5898E-03  0.1660E-03  0.1129E+01
   -0.980006   16.15411  0.0000E+00  0.5400E-05  0.1548E-07  0.5837E-03  0.1476E-03  0.1333E+01
   -1.015006   16.15458  0.0000E+00  0.5338E-05  0.1539E-07  0.5742E-03  0.1308E-03  0.1618E+01
   -1.050007   16.15507  0.0000E+00  0.5273E-05  0.1543E-07  0.5599E-03  0.1156E-03  0.2106E+01
   -1.085007   16.15557  0.0000E+00  0.5204E-05  0.1563E-07  0.5416E-03  0.1018E-03  0.2831E+01
   -1.120007   16.15610  0.0000E+00  0.5128E-05  0.1603E-07  0.5148E-03  0.8924E-04  0.4011E+01
   -1.155007   16.15666  0.0000E+00  0.5045E-05  0.1673E-07  0.4895E-03  0.7725E-04  0.5573E+01
   -1.190006   16.15726  0.0000E+00  0.4949E-05  0.1797E-07  0.4451E-03  0.6590E-04 -0.1193E+03
   -1.225005   16.15798  0.0000E+00  0.4822E-05  0.2024E-07  0.4167E-03  0.5471E-04 -0.1652E+04
   -1.260004   16.15876  0.0000E+00  0.4626E-05  0.2525E-07  0.3238E-03  0.4435E-04 -0.1739E+05
   -1.295003   16.16018  0.0000E+00  0.4249E-05  0.3820E-07  0.3140E-03  0.3399E-04  0.1790E+05
   -1.330002   16.16085  0.0000E+00  0.3589E-05  0.7665E-07  0.1300E-03  0.2877E-04 -0.3698E+06
   -1.365000   16.16793  0.0000E+00  0.2329E-05  0.1948E-06  0.5635E-04  0.1866E-04 -0.1617E+07
   -1.399997   16.17416  0.0000E+00  0.0000E+00  0.0000E+00  0.0000E+00  0.2348E-04  0.0000E+00
