 1 - depth, m
 2 - temperature, C
 3 - salinity, kg/kg
 4 - turbulent kinetic energy, m**2/s**2
 5 - dissipation rate, m**2/s**3
 6 - kinematic heat conductance, m**2/s
 7 - modulus of horizontal velocity, m/s
 8 - Richardson number, n/d
   -0.000000    0.00000  0.0000E+00  0.4702E-13  0.1132E-15  0.1000E-09  0.0000E+00  0.8129E+16
   -0.034998    0.12400  0.0000E+00  0.4702E-13  0.1132E-15  0.1000E-09  0.0000E+00  0.7994E+16
   -0.069996    0.25023  0.0000E+00  0.4702E-13  0.1132E-15  0.1000E-09  0.0000E+00  0.7861E+16
   -0.104994    0.37895  0.0000E+00  0.4702E-13  0.1132E-15  0.1000E-09  0.0000E+00  0.7606E+16
   -0.139993    0.50832  0.0000E+00  0.4702E-13  0.1132E-15  0.1000E-09  0.0000E+00  0.7287E+16
   -0.174992    0.63722  0.0000E+00  0.4702E-13  0.1132E-15  0.1000E-09  0.0000E+00  0.6972E+16
   -0.209991    0.76567  0.0000E+00  0.4702E-13  0.1132E-15  0.1000E-09  0.0000E+00  0.6660E+16
   -0.244990    0.89363  0.0000E+00  0.4702E-13  0.1132E-15  0.1000E-09  0.0000E+00  0.6350E+16
   -0.279990    1.02104  0.0000E+00  0.4702E-13  0.1132E-15  0.1000E-09  0.0000E+00  0.6041E+16
   -0.314990    1.14783  0.0000E+00  0.4702E-13  0.1132E-15  0.1000E-09  0.0000E+00  0.5710E+16
   -0.349990    1.27339  0.0000E+00  0.4702E-13  0.1132E-15  0.1000E-09  0.0000E+00  0.5378E+16
   -0.384990    1.39748  0.0000E+00  0.4702E-13  0.1132E-15  0.1000E-09  0.0000E+00  0.5048E+16
   -0.419991    1.51989  0.0000E+00  0.4702E-13  0.1132E-15  0.1000E-09  0.0000E+00  0.4748E+16
   -0.454991    1.64107  0.0000E+00  0.4702E-13  0.1132E-15  0.1000E-09  0.0000E+00  0.4466E+16
   -0.489992    1.76133  0.0000E+00  0.4702E-13  0.1132E-15  0.1000E-09  0.0000E+00  0.4176E+16
   -0.524992    1.88023  0.0000E+00  0.4702E-13  0.1132E-15  0.1000E-09  0.0000E+00  0.3843E+16
   -0.559993    1.99613  0.0000E+00  0.4702E-13  0.1132E-15  0.1000E-09  0.0000E+00  0.3466E+16
   -0.594994    2.10701  0.0000E+00  0.4702E-13  0.1132E-15  0.1000E-09  0.0000E+00  0.3083E+16
   -0.629995    2.21162  0.0000E+00  0.4702E-13  0.1132E-15  0.1000E-09  0.0000E+00  0.2848E+16
   -0.664996    2.31424  0.0000E+00  0.4702E-13  0.1132E-15  0.1000E-09  0.0000E+00  0.2620E+16
   -0.699997    2.41472  0.0000E+00  0.4702E-13  0.1132E-15  0.1000E-09  0.0000E+00  0.2396E+16
   -0.734998    2.51275  0.0000E+00  0.4702E-13  0.1132E-15  0.1000E-09  0.0000E+00  0.2189E+16
   -0.769999    2.60859  0.0000E+00  0.4702E-13  0.1132E-15  0.1000E-09  0.0000E+00  0.2019E+16
   -0.805000    2.70343  0.0000E+00  0.4702E-13  0.1132E-15  0.1000E-09  0.0000E+00  0.1852E+16
   -0.840001    2.79720  0.0000E+00  0.4702E-13  0.1132E-15  0.1000E-09  0.0000E+00  0.1688E+16
   -0.875002    2.88979  0.0000E+00  0.4702E-13  0.1132E-15  0.1000E-09  0.0000E+00  0.1528E+16
   -0.910003    2.98104  0.0000E+00  0.4702E-13  0.1132E-15  0.1000E-09  0.0000E+00  0.1373E+16
   -0.945003    3.07092  0.0000E+00  0.4702E-13  0.1132E-15  0.1000E-09  0.0000E+00  0.1223E+16
   -0.980004    3.15929  0.0000E+00  0.4702E-13  0.1132E-15  0.1000E-09  0.0000E+00  0.1077E+16
   -1.015004    3.24595  0.0000E+00  0.4702E-13  0.1132E-15  0.1000E-09  0.0000E+00  0.9330E+15
   -1.050005    3.33032  0.0000E+00  0.4702E-13  0.1132E-15  0.1000E-09  0.0000E+00  0.7978E+15
   -1.085005    3.41233  0.0000E+00  0.4702E-13  0.1132E-15  0.1000E-09  0.0000E+00  0.6900E+15
   -1.120005    3.49427  0.0000E+00  0.1123E-12  0.1482E-15  0.1000E-09  0.0000E+00  0.5818E+15
   -1.155004    3.57600  0.0000E+00  0.4394E-12  0.5148E-15  0.1000E-09  0.0000E+00  0.4749E+15
   -1.190004    3.65756  0.0000E+00  0.1704E-11  0.1946E-14  0.1000E-09  0.0000E+00  0.3695E+15
   -1.225003    3.73910  0.0000E+00  0.6900E-11  0.7773E-14  0.1000E-09  0.0000E+00  0.2663E+15
   -1.260002    3.82133  0.0000E+00  0.2961E-10  0.3318E-13  0.4505E-09  0.0000E+00  0.1623E+15
   -1.295000    3.90543  0.0000E+00  0.1467E-09  0.1664E-12  0.5420E-08  0.0000E+00  0.5107E+14
   -1.329999    3.99134  0.0000E+00  0.5624E-09  0.6903E-12  0.1436E-06  0.0000E+00 -0.1988E+14
   -1.364997    4.03697  0.0000E+00  0.9834E-09  0.1896E-11  0.1710E-06  0.0000E+00 -0.5104E+14
   -1.399995    4.08165  0.0000E+00  0.0000E+00  0.0000E+00  0.0000E+00  0.0000E+00  0.0000E+00
