 1 - depth, m
 2 - temperature, C
 3 - salinity, kg/kg
 4 - turbulent kinetic energy, m**2/s**2
 5 - dissipation rate, m**2/s**3
 6 - kinematic heat conductance, m**2/s
 7 - modulus of horizontal velocity, m/s
 8 - Richardson number, n/d
   -0.000000    0.00000  0.0000E+00  0.4702E-13  0.1132E-15  0.1000E-09  0.0000E+00  0.9990E+16
   -0.034998    0.15299  0.0000E+00  0.4702E-13  0.1132E-15  0.1000E-09  0.0000E+00  0.9700E+16
   -0.069996    0.30804  0.0000E+00  0.4702E-13  0.1132E-15  0.1000E-09  0.0000E+00  0.9403E+16
   -0.104994    0.46528  0.0000E+00  0.4702E-13  0.1132E-15  0.1000E-09  0.0000E+00  0.8945E+16
   -0.139993    0.62211  0.0000E+00  0.4702E-13  0.1132E-15  0.1000E-09  0.0000E+00  0.8412E+16
   -0.174992    0.77698  0.0000E+00  0.4702E-13  0.1132E-15  0.1000E-09  0.0000E+00  0.7895E+16
   -0.209991    0.92987  0.0000E+00  0.4702E-13  0.1132E-15  0.1000E-09  0.0000E+00  0.7396E+16
   -0.244990    1.08078  0.0000E+00  0.4702E-13  0.1132E-15  0.1000E-09  0.0000E+00  0.6912E+16
   -0.279990    1.22965  0.0000E+00  0.4702E-13  0.1132E-15  0.1000E-09  0.0000E+00  0.6443E+16
   -0.314990    1.37643  0.0000E+00  0.4702E-13  0.1132E-15  0.1000E-09  0.0000E+00  0.5928E+16
   -0.349990    1.51954  0.0000E+00  0.4702E-13  0.1132E-15  0.1000E-09  0.0000E+00  0.5422E+16
   -0.384990    1.65845  0.0000E+00  0.4702E-13  0.1132E-15  0.1000E-09  0.0000E+00  0.4932E+16
   -0.419990    1.79275  0.0000E+00  0.4702E-13  0.1132E-15  0.1000E-09  0.0000E+00  0.4530E+16
   -0.454991    1.92408  0.0000E+00  0.4702E-13  0.1132E-15  0.1000E-09  0.0000E+00  0.4182E+16
   -0.489991    2.05352  0.0000E+00  0.4702E-13  0.1132E-15  0.1000E-09  0.0000E+00  0.3825E+16
   -0.524992    2.18028  0.0000E+00  0.4702E-13  0.1132E-15  0.1000E-09  0.0000E+00  0.3379E+16
   -0.559993    2.30044  0.0000E+00  0.4702E-13  0.1132E-15  0.1000E-09  0.0000E+00  0.2861E+16
   -0.594994    2.40950  0.0000E+00  0.4702E-13  0.1132E-15  0.1000E-09  0.0000E+00  0.2342E+16
   -0.629995    2.50491  0.0000E+00  0.4702E-13  0.1132E-15  0.1000E-09  0.0000E+00  0.2121E+16
   -0.664996    2.59710  0.0000E+00  0.4702E-13  0.1132E-15  0.1000E-09  0.0000E+00  0.1910E+16
   -0.699997    2.68584  0.0000E+00  0.4702E-13  0.1132E-15  0.1000E-09  0.0000E+00  0.1704E+16
   -0.734998    2.77061  0.0000E+00  0.4702E-13  0.1132E-15  0.1000E-09  0.0000E+00  0.1525E+16
   -0.769999    2.85192  0.0000E+00  0.4702E-13  0.1132E-15  0.1000E-09  0.0000E+00  0.1400E+16
   -0.805000    2.93216  0.0000E+00  0.4702E-13  0.1132E-15  0.1000E-09  0.0000E+00  0.1279E+16
   -0.840000    3.01135  0.0000E+00  0.4702E-13  0.1132E-15  0.1000E-09  0.0000E+00  0.1162E+16
   -0.875001    3.08943  0.0000E+00  0.4702E-13  0.1132E-15  0.1000E-09  0.0000E+00  0.1048E+16
   -0.910002    3.16629  0.0000E+00  0.4702E-13  0.1132E-15  0.1000E-09  0.0000E+00  0.9402E+15
   -0.945003    3.24208  0.0000E+00  0.4702E-13  0.1132E-15  0.1000E-09  0.0000E+00  0.8365E+15
   -0.980003    3.31678  0.0000E+00  0.4702E-13  0.1132E-15  0.1000E-09  0.0000E+00  0.7357E+15
   -1.015004    3.39026  0.0000E+00  0.4702E-13  0.1132E-15  0.1000E-09  0.0000E+00  0.6330E+15
   -1.050004    3.46174  0.0000E+00  0.8778E-13  0.1153E-15  0.1000E-09  0.0000E+00  0.5374E+15
   -1.085004    3.53124  0.0000E+00  0.3327E-12  0.3205E-15  0.1000E-09  0.0000E+00  0.4662E+15
   -1.120004    3.60166  0.0000E+00  0.1159E-11  0.1060E-14  0.1000E-09  0.0000E+00  0.3927E+15
   -1.155003    3.67311  0.0000E+00  0.3920E-11  0.3502E-14  0.1000E-09  0.0000E+00  0.3168E+15
   -1.190003    3.74585  0.0000E+00  0.1319E-10  0.1156E-13  0.1173E-09  0.0000E+00  0.2379E+15
   -1.225002    3.82036  0.0000E+00  0.4644E-10  0.4016E-13  0.6060E-09  0.0000E+00  0.1549E+15
   -1.260001    3.89799  0.0000E+00  0.1730E-09  0.1489E-12  0.5013E-08  0.0000E+00  0.6088E+14
   -1.294999    3.98020  0.0000E+00  0.7140E-09  0.6345E-12  0.2079E-06  0.0000E+00 -0.9005E+13
   -1.329998    4.02094  0.0000E+00  0.1499E-08  0.1767E-11  0.4504E-06  0.0000E+00 -0.1963E+14
   -1.364996    4.04720  0.0000E+00  0.1856E-08  0.3920E-11  0.2695E-06  0.0000E+00 -0.5805E+14
   -1.399993    4.09180  0.0000E+00  0.0000E+00  0.0000E+00  0.0000E+00  0.0000E+00  0.0000E+00
