 1 - depth, m
 2 - temperature, C
 3 - salinity, kg/kg
 4 - turbulent kinetic energy, m**2/s**2
 5 - dissipation rate, m**2/s**3
 6 - kinematic heat conductance, m**2/s
 7 - modulus of horizontal velocity, m/s
 8 - Richardson number, n/d
   -0.000000   17.54586  0.0000E+00  0.1249E-04  0.9830E-06  0.1932E-04  0.1662E-01 -0.7979E-01
   -0.034998   17.58105  0.0000E+00  0.1063E-04  0.3543E-06  0.5379E-04  0.9317E-02  0.6566E+01
   -0.069996   17.59307  0.0000E+00  0.9679E-05  0.1947E-06  0.1116E-03  0.6745E-02  0.3880E+02
   -0.104995   17.59936  0.0000E+00  0.9143E-05  0.1289E-06  0.1683E-03  0.5331E-02  0.1661E+02
   -0.139994   17.60341  0.0000E+00  0.8866E-05  0.9503E-07  0.2371E-03  0.4387E-02  0.4226E+02
   -0.174993   17.60615  0.0000E+00  0.8752E-05  0.7550E-07  0.3098E-03  0.3694E-02  0.1346E+02
   -0.209992   17.60804  0.0000E+00  0.8737E-05  0.6312E-07  0.3585E-03  0.3151E-02  0.1361E+02
   -0.244992   17.60958  0.0000E+00  0.8763E-05  0.5426E-07  0.3804E-03  0.2679E-02  0.5868E+01
   -0.279992   17.61101  0.0000E+00  0.8790E-05  0.4738E-07  0.4046E-03  0.2244E-02  0.6802E+01
   -0.314992   17.61235  0.0000E+00  0.8794E-05  0.4184E-07  0.4429E-03  0.1841E-02  0.4008E+01
   -0.349992   17.61356  0.0000E+00  0.8781E-05  0.3739E-07  0.4844E-03  0.1504E-02  0.2946E+01
   -0.384993   17.61465  0.0000E+00  0.8759E-05  0.3384E-07  0.5275E-03  0.1225E-02  0.2399E+01
   -0.419993   17.61566  0.0000E+00  0.8728E-05  0.3101E-07  0.5637E-03  0.9941E-03  0.2238E+01
   -0.454994   17.61659  0.0000E+00  0.8685E-05  0.2875E-07  0.5994E-03  0.7911E-03  0.2139E+01
   -0.489995   17.61747  0.0000E+00  0.8624E-05  0.2694E-07  0.6348E-03  0.6112E-03  0.1931E+01
   -0.524996   17.61830  0.0000E+00  0.8538E-05  0.2539E-07  0.7101E-03  0.4557E-03  0.1439E+01
   -0.559997   17.61901  0.0000E+00  0.8438E-05  0.2409E-07  0.8292E-03  0.3473E-03  0.1126E+01
   -0.594998   17.61957  0.0000E+00  0.8332E-05  0.2298E-07  0.9303E-03  0.2822E-03  0.9198E+00
   -0.629999   17.62002  0.0000E+00  0.8251E-05  0.2226E-07  0.9385E-03  0.2487E-03  0.9647E+00
   -0.665001   17.62047  0.0000E+00  0.8182E-05  0.2176E-07  0.9387E-03  0.2246E-03  0.9407E+00
   -0.700002   17.62091  0.0000E+00  0.8117E-05  0.2140E-07  0.9365E-03  0.2030E-03  0.9379E+00
   -0.735003   17.62135  0.0000E+00  0.8053E-05  0.2117E-07  0.9303E-03  0.1842E-03  0.9490E+00
   -0.770004   17.62180  0.0000E+00  0.7990E-05  0.2104E-07  0.9205E-03  0.1679E-03  0.9901E+00
   -0.805005   17.62225  0.0000E+00  0.7926E-05  0.2103E-07  0.9066E-03  0.1538E-03  0.1079E+01
   -0.840007   17.62271  0.0000E+00  0.7859E-05  0.2111E-07  0.8885E-03  0.1413E-03  0.1226E+01
   -0.875008   17.62318  0.0000E+00  0.7786E-05  0.2131E-07  0.8659E-03  0.1301E-03  0.1438E+01
   -0.910009   17.62366  0.0000E+00  0.7706E-05  0.2164E-07  0.8375E-03  0.1198E-03  0.1758E+01
   -0.945010   17.62416  0.0000E+00  0.7618E-05  0.2212E-07  0.8055E-03  0.1101E-03  0.2169E+01
   -0.980010   17.62469  0.0000E+00  0.7519E-05  0.2281E-07  0.7648E-03  0.1008E-03  0.2754E+01
   -1.015011   17.62526  0.0000E+00  0.7404E-05  0.2377E-07  0.7249E-03  0.9160E-04  0.3611E+01
   -1.050011   17.62587  0.0000E+00  0.7268E-05  0.2516E-07  0.6698E-03  0.8284E-04  0.5272E+01
   -1.085012   17.62655  0.0000E+00  0.7102E-05  0.2723E-07  0.6283E-03  0.7432E-04  0.8299E+01
   -1.120012   17.62729  0.0000E+00  0.6897E-05  0.3049E-07  0.5638E-03  0.6627E-04  0.1487E+02
   -1.155012   17.62822  0.0000E+00  0.6635E-05  0.3566E-07  0.5260E-03  0.5771E-04 -0.1842E+04
   -1.190011   17.62936  0.0000E+00  0.6277E-05  0.4465E-07  0.4483E-03  0.4895E-04 -0.1378E+04
   -1.225011   17.63132  0.0000E+00  0.5823E-05  0.5910E-07  0.4085E-03  0.3816E-04  0.4566E+05
   -1.260010   17.63321  0.0000E+00  0.5144E-05  0.9635E-07  0.2942E-03  0.2916E-04 -0.1177E+06
   -1.295009   17.64069  0.0000E+00  0.4293E-05  0.1792E-06  0.2888E-03  0.1881E-04 -0.1071E+07
   -1.330007   17.63626  0.0000E+00  0.3378E-05  0.4114E-06  0.1327E-03  0.1685E-04 -0.7696E+05
   -1.365006   17.65978  0.0000E+00  0.2422E-05  0.8912E-06  0.1293E-03  0.9726E-05 -0.2114E+06
   -1.400004   17.66089  0.0000E+00  0.0000E+00  0.0000E+00  0.0000E+00  0.1825E-04  0.0000E+00
