 1 - depth, m
 2 - temperature, C
 3 - salinity, kg/kg
 4 - turbulent kinetic energy, m**2/s**2
 5 - dissipation rate, m**2/s**3
 6 - kinematic heat conductance, m**2/s
 7 - modulus of horizontal velocity, m/s
 8 - Richardson number, n/d
   -0.000000   10.58015  0.0000E+00  0.2106E-04  0.3394E-05  0.2243E-04  0.2531E-01 -0.1985E-01
   -0.034998   10.60178  0.0000E+00  0.1472E-04  0.1057E-05  0.3677E-04  0.1269E-01 -0.4197E-01
   -0.069997   10.61062  0.0000E+00  0.1201E-04  0.5155E-06  0.5012E-04  0.9229E-02 -0.7845E-01
   -0.104996   10.61668  0.0000E+00  0.1025E-04  0.2964E-06  0.6427E-04  0.7154E-02 -0.1239E+00
   -0.139995   10.62122  0.0000E+00  0.8983E-05  0.1886E-06  0.8170E-04  0.5700E-02 -0.1541E+00
   -0.174995   10.62471  0.0000E+00  0.8053E-05  0.1292E-06  0.1282E-03  0.4615E-02  0.1993E+03
   -0.209995   10.62709  0.0000E+00  0.7357E-05  0.9399E-07  0.1840E-03  0.3798E-02  0.1831E+03
   -0.244995   10.62881  0.0000E+00  0.6806E-05  0.7151E-07  0.2081E-03  0.3153E-02  0.4846E+01
   -0.279995   10.63030  0.0000E+00  0.6331E-05  0.5595E-07  0.2325E-03  0.2584E-02  0.2182E+02
   -0.314996   10.63161  0.0000E+00  0.5889E-05  0.4438E-07  0.2593E-03  0.2075E-02  0.4832E+01
   -0.349997   10.63277  0.0000E+00  0.5505E-05  0.3582E-07  0.2871E-03  0.1671E-02  0.1276E+02
   -0.384998   10.63378  0.0000E+00  0.5182E-05  0.2946E-07  0.3139E-03  0.1348E-02  0.2249E+02
   -0.419999   10.63469  0.0000E+00  0.4916E-05  0.2475E-07  0.3392E-03  0.1086E-02  0.7346E+02
   -0.455000   10.63552  0.0000E+00  0.4695E-05  0.2121E-07  0.3625E-03  0.8600E-03  0.5322E+01
   -0.490001   10.63627  0.0000E+00  0.4509E-05  0.1854E-07  0.3875E-03  0.6611E-03  0.4085E+01
   -0.525003   10.63695  0.0000E+00  0.4339E-05  0.1634E-07  0.4125E-03  0.4912E-03  0.5322E+02
   -0.560004   10.63757  0.0000E+00  0.4181E-05  0.1448E-07  0.4413E-03  0.3702E-03  0.9332E+01
   -0.595006   10.63813  0.0000E+00  0.4031E-05  0.1280E-07  0.4613E-03  0.2970E-03  0.4738E+01
   -0.630008   10.63865  0.0000E+00  0.3914E-05  0.1156E-07  0.4695E-03  0.2594E-03  0.1265E+01
   -0.665009   10.63915  0.0000E+00  0.3821E-05  0.1060E-07  0.4793E-03  0.2287E-03  0.1095E+01
   -0.700011   10.63964  0.0000E+00  0.3742E-05  0.9808E-08  0.4890E-03  0.2010E-03  0.1189E+01
   -0.735013   10.64011  0.0000E+00  0.3675E-05  0.9164E-08  0.4979E-03  0.1766E-03  0.1343E+01
   -0.770014   10.64057  0.0000E+00  0.3617E-05  0.8636E-08  0.5057E-03  0.1553E-03  0.1535E+01
   -0.805016   10.64102  0.0000E+00  0.3568E-05  0.8203E-08  0.5125E-03  0.1368E-03  0.1788E+01
   -0.840018   10.64146  0.0000E+00  0.3525E-05  0.7849E-08  0.5179E-03  0.1207E-03  0.2093E+01
   -0.875019   10.64189  0.0000E+00  0.3486E-05  0.7560E-08  0.5220E-03  0.1066E-03  0.2459E+01
   -0.910021   10.64231  0.0000E+00  0.3451E-05  0.7326E-08  0.5244E-03  0.9424E-04  0.2919E+01
   -0.945022   10.64273  0.0000E+00  0.3419E-05  0.7144E-08  0.5250E-03  0.8316E-04  0.3427E+01
   -0.980023   10.64315  0.0000E+00  0.3390E-05  0.7008E-08  0.5235E-03  0.7312E-04  0.4024E+01
   -1.015024   10.64357  0.0000E+00  0.3361E-05  0.6917E-08  0.5196E-03  0.6395E-04  0.4792E+01
   -1.050025   10.64398  0.0000E+00  0.3333E-05  0.6868E-08  0.5127E-03  0.5576E-04  0.6022E+01
   -1.085026   10.64440  0.0000E+00  0.3304E-05  0.6867E-08  0.5027E-03  0.4846E-04  0.7732E+01
   -1.120027   10.64483  0.0000E+00  0.3274E-05  0.6921E-08  0.4889E-03  0.4196E-04  0.1023E+02
   -1.155027   10.64527  0.0000E+00  0.3243E-05  0.7043E-08  0.4710E-03  0.3594E-04  0.1308E+02
   -1.190027   10.64572  0.0000E+00  0.3210E-05  0.7255E-08  0.4481E-03  0.3035E-04  0.1666E+02
   -1.225027   10.64619  0.0000E+00  0.3171E-05  0.7626E-08  0.4165E-03  0.2531E-04  0.2143E+02
   -1.260026   10.64670  0.0000E+00  0.3118E-05  0.8336E-08  0.3721E-03  0.2091E-04  0.3258E+02
   -1.295026   10.64729  0.0000E+00  0.3011E-05  0.1017E-07  0.2804E-03  0.1704E-04  0.8447E+02
   -1.330025   10.64809  0.0000E+00  0.2831E-05  0.1412E-07  0.2160E-03  0.1385E-04  0.9355E+03
   -1.365024   10.64915  0.0000E+00  0.1932E-05  0.4400E-07  0.1381E-04  0.1160E-04 -0.1143E+06
   -1.400022   10.66642  0.0000E+00  0.0000E+00  0.0000E+00  0.0000E+00  0.1160E-04  0.0000E+00
