 1 - depth, m
 2 - temperature, C
 3 - salinity, kg/kg
 4 - turbulent kinetic energy, m**2/s**2
 5 - dissipation rate, m**2/s**3
 6 - kinematic heat conductance, m**2/s
 7 - modulus of horizontal velocity, m/s
 8 - Richardson number, n/d
   -0.000000   14.31019  0.0000E+00  0.1869E-04  0.1661E-05  0.2106E-04  0.2507E-01 -0.9928E-02
   -0.034998   14.32205  0.0000E+00  0.1487E-04  0.5992E-06  0.3869E-04  0.1491E-01 -0.1790E-01
   -0.069996   14.32754  0.0000E+00  0.1268E-04  0.3194E-06  0.5361E-04  0.1095E-01 -0.3259E-01
   -0.104994   14.33151  0.0000E+00  0.1112E-04  0.1997E-06  0.6771E-04  0.8460E-02 -0.5295E-01
   -0.139993   14.33472  0.0000E+00  0.9943E-05  0.1368E-06  0.8225E-04  0.6697E-02 -0.8170E-01
   -0.174992   14.33744  0.0000E+00  0.9029E-05  0.9962E-07  0.9817E-04  0.5383E-02 -0.1196E+00
   -0.209991   14.33980  0.0000E+00  0.8308E-05  0.7599E-07  0.1201E-03  0.4370E-02 -0.7069E-01
   -0.244991   14.34182  0.0000E+00  0.7735E-05  0.6028E-07  0.1896E-03  0.3568E-02  0.2505E+02
   -0.279990   14.34333  0.0000E+00  0.7286E-05  0.4969E-07  0.3016E-03  0.2940E-02  0.2885E+03
   -0.314990   14.34428  0.0000E+00  0.6912E-05  0.4196E-07  0.3479E-03  0.2431E-02  0.5389E+01
   -0.349990   14.34505  0.0000E+00  0.6580E-05  0.3579E-07  0.3595E-03  0.2000E-02  0.3354E+01
   -0.384991   14.34580  0.0000E+00  0.6289E-05  0.3083E-07  0.3746E-03  0.1633E-02  0.2556E+01
   -0.419991   14.34652  0.0000E+00  0.6042E-05  0.2691E-07  0.3821E-03  0.1324E-02  0.2477E+01
   -0.454992   14.34726  0.0000E+00  0.5824E-05  0.2376E-07  0.3910E-03  0.1048E-02  0.2512E+01
   -0.489993   14.34800  0.0000E+00  0.5625E-05  0.2121E-07  0.4015E-03  0.7990E-03  0.2238E+01
   -0.524993   14.34874  0.0000E+00  0.5424E-05  0.1900E-07  0.4504E-03  0.5800E-03  0.1381E+01
   -0.559994   14.34934  0.0000E+00  0.5232E-05  0.1708E-07  0.5078E-03  0.4277E-03  0.8421E+00
   -0.594995   14.34978  0.0000E+00  0.5058E-05  0.1539E-07  0.5371E-03  0.3380E-03  0.5538E+00
   -0.629996   14.35008  0.0000E+00  0.4940E-05  0.1424E-07  0.5489E-03  0.2933E-03  0.5603E+00
   -0.664997   14.35040  0.0000E+00  0.4856E-05  0.1339E-07  0.5573E-03  0.2603E-03  0.5976E+00
   -0.699998   14.35073  0.0000E+00  0.4789E-05  0.1270E-07  0.5682E-03  0.2306E-03  0.6529E+00
   -0.735000   14.35106  0.0000E+00  0.4737E-05  0.1215E-07  0.5782E-03  0.2043E-03  0.7127E+00
   -0.770001   14.35140  0.0000E+00  0.4697E-05  0.1173E-07  0.5867E-03  0.1816E-03  0.7806E+00
   -0.805002   14.35175  0.0000E+00  0.4667E-05  0.1141E-07  0.5932E-03  0.1621E-03  0.8785E+00
   -0.840003   14.35211  0.0000E+00  0.4644E-05  0.1117E-07  0.5977E-03  0.1451E-03  0.1021E+01
   -0.875003   14.35248  0.0000E+00  0.4626E-05  0.1101E-07  0.6002E-03  0.1303E-03  0.1217E+01
   -0.910004   14.35286  0.0000E+00  0.4613E-05  0.1091E-07  0.6003E-03  0.1171E-03  0.1490E+01
   -0.945005   14.35326  0.0000E+00  0.4602E-05  0.1088E-07  0.5978E-03  0.1051E-03  0.1829E+01
   -0.980006   14.35369  0.0000E+00  0.4591E-05  0.1091E-07  0.5923E-03  0.9398E-04  0.2248E+01
   -1.015006   14.35414  0.0000E+00  0.4579E-05  0.1100E-07  0.5833E-03  0.8357E-04  0.2793E+01
   -1.050006   14.35462  0.0000E+00  0.4565E-05  0.1117E-07  0.5703E-03  0.7400E-04  0.3655E+01
   -1.085007   14.35512  0.0000E+00  0.4547E-05  0.1144E-07  0.5523E-03  0.6524E-04  0.4915E+01
   -1.120006   14.35566  0.0000E+00  0.4524E-05  0.1183E-07  0.5286E-03  0.5723E-04  0.6863E+01
   -1.155006   14.35625  0.0000E+00  0.4494E-05  0.1237E-07  0.4998E-03  0.4965E-04  0.9367E+01
   -1.190006   14.35691  0.0000E+00  0.4454E-05  0.1314E-07  0.4605E-03  0.4242E-04  0.1285E+02
   -1.225005   14.35765  0.0000E+00  0.4396E-05  0.1435E-07  0.4250E-03  0.3605E-04  0.1772E+02
   -1.260004   14.35848  0.0000E+00  0.4298E-05  0.1664E-07  0.3276E-03  0.2960E-04  0.3262E+02
   -1.295003   14.35958  0.0000E+00  0.4083E-05  0.2261E-07  0.3310E-03  0.2374E-04  0.6363E+02
   -1.330001   14.36066  0.0000E+00  0.3578E-05  0.4170E-07  0.1261E-03  0.2001E-04 -0.8327E+04
   -1.364999   14.36760  0.0000E+00  0.2315E-05  0.1150E-06  0.4469E-04  0.1325E-04 -0.3680E+05
   -1.399997   14.37699  0.0000E+00  0.0000E+00  0.0000E+00  0.0000E+00  0.1500E-04  0.0000E+00
