 1 - depth, m
 2 - temperature, C
 3 - salinity, kg/kg
 4 - turbulent kinetic energy, m**2/s**2
 5 - dissipation rate, m**2/s**3
 6 - kinematic heat conductance, m**2/s
 7 - modulus of horizontal velocity, m/s
 8 - Richardson number, n/d
   -0.000000    0.00000  0.0000E+00  0.4702E-13  0.1132E-15  0.1000E-09  0.0000E+00  0.9912E+16
   -0.034998    0.15177  0.0000E+00  0.4702E-13  0.1132E-15  0.1000E-09  0.0000E+00  0.9642E+16
   -0.069996    0.30582  0.0000E+00  0.4702E-13  0.1132E-15  0.1000E-09  0.0000E+00  0.9364E+16
   -0.104994    0.46229  0.0000E+00  0.4702E-13  0.1132E-15  0.1000E-09  0.0000E+00  0.8920E+16
   -0.139993    0.61851  0.0000E+00  0.4702E-13  0.1132E-15  0.1000E-09  0.0000E+00  0.8397E+16
   -0.174992    0.77292  0.0000E+00  0.4702E-13  0.1132E-15  0.1000E-09  0.0000E+00  0.7889E+16
   -0.209991    0.92548  0.0000E+00  0.4702E-13  0.1132E-15  0.1000E-09  0.0000E+00  0.7398E+16
   -0.244990    1.07619  0.0000E+00  0.4702E-13  0.1132E-15  0.1000E-09  0.0000E+00  0.6921E+16
   -0.279990    1.22502  0.0000E+00  0.4702E-13  0.1132E-15  0.1000E-09  0.0000E+00  0.6459E+16
   -0.314990    1.37190  0.0000E+00  0.4702E-13  0.1132E-15  0.1000E-09  0.0000E+00  0.5943E+16
   -0.349990    1.51511  0.0000E+00  0.4702E-13  0.1132E-15  0.1000E-09  0.0000E+00  0.5436E+16
   -0.384990    1.65411  0.0000E+00  0.4702E-13  0.1132E-15  0.1000E-09  0.0000E+00  0.4944E+16
   -0.419990    1.78847  0.0000E+00  0.4702E-13  0.1132E-15  0.1000E-09  0.0000E+00  0.4543E+16
   -0.454991    1.91990  0.0000E+00  0.4702E-13  0.1132E-15  0.1000E-09  0.0000E+00  0.4198E+16
   -0.489992    2.04956  0.0000E+00  0.4702E-13  0.1132E-15  0.1000E-09  0.0000E+00  0.3840E+16
   -0.524992    2.17656  0.0000E+00  0.4702E-13  0.1132E-15  0.1000E-09  0.0000E+00  0.3384E+16
   -0.559993    2.29662  0.0000E+00  0.4702E-13  0.1132E-15  0.1000E-09  0.0000E+00  0.2848E+16
   -0.594994    2.40492  0.0000E+00  0.4702E-13  0.1132E-15  0.1000E-09  0.0000E+00  0.2311E+16
   -0.629995    2.49871  0.0000E+00  0.4702E-13  0.1132E-15  0.1000E-09  0.0000E+00  0.2094E+16
   -0.664996    2.58928  0.0000E+00  0.4702E-13  0.1132E-15  0.1000E-09  0.0000E+00  0.1887E+16
   -0.699997    2.67638  0.0000E+00  0.4702E-13  0.1132E-15  0.1000E-09  0.0000E+00  0.1684E+16
   -0.734998    2.75945  0.0000E+00  0.4702E-13  0.1132E-15  0.1000E-09  0.0000E+00  0.1508E+16
   -0.769999    2.83904  0.0000E+00  0.4702E-13  0.1132E-15  0.1000E-09  0.0000E+00  0.1388E+16
   -0.805000    2.91759  0.0000E+00  0.4702E-13  0.1132E-15  0.1000E-09  0.0000E+00  0.1272E+16
   -0.840001    2.99513  0.0000E+00  0.4702E-13  0.1132E-15  0.1000E-09  0.0000E+00  0.1159E+16
   -0.875002    3.07162  0.0000E+00  0.4702E-13  0.1132E-15  0.1000E-09  0.0000E+00  0.1049E+16
   -0.910003    3.14695  0.0000E+00  0.4702E-13  0.1132E-15  0.1000E-09  0.0000E+00  0.9462E+15
   -0.945003    3.22130  0.0000E+00  0.4702E-13  0.1132E-15  0.1000E-09  0.0000E+00  0.8467E+15
   -0.980004    3.29466  0.0000E+00  0.4702E-13  0.1132E-15  0.1000E-09  0.0000E+00  0.7495E+15
   -1.015004    3.36689  0.0000E+00  0.4702E-13  0.1132E-15  0.1000E-09  0.0000E+00  0.6494E+15
   -1.050005    3.43719  0.0000E+00  0.4702E-13  0.1132E-15  0.1000E-09  0.0000E+00  0.5558E+15
   -1.085005    3.50554  0.0000E+00  0.1566E-12  0.1780E-15  0.1000E-09  0.0000E+00  0.4880E+15
   -1.120004    3.57488  0.0000E+00  0.5842E-12  0.5877E-15  0.1000E-09  0.0000E+00  0.4180E+15
   -1.155004    3.64539  0.0000E+00  0.2078E-11  0.2031E-14  0.1000E-09  0.0000E+00  0.3453E+15
   -1.190004    3.71733  0.0000E+00  0.7318E-11  0.7025E-14  0.1000E-09  0.0000E+00  0.2694E+15
   -1.225003    3.79117  0.0000E+00  0.2700E-10  0.2558E-13  0.3158E-09  0.0000E+00  0.1897E+15
   -1.260002    3.86833  0.0000E+00  0.1056E-09  0.9954E-13  0.2164E-08  0.0000E+00  0.9966E+14
   -1.295000    3.95150  0.0000E+00  0.4700E-09  0.4509E-12  0.6026E-07  0.0000E+00  0.8624E+11
   -1.329999    4.02127  0.0000E+00  0.1375E-08  0.1692E-11  0.4037E-06  0.0000E+00 -0.2164E+14
   -1.364997    4.04945  0.0000E+00  0.1802E-08  0.3840E-11  0.2633E-06  0.0000E+00 -0.5972E+14
   -1.399994    4.09411  0.0000E+00  0.0000E+00  0.0000E+00  0.0000E+00  0.0000E+00  0.0000E+00
