 1 - depth, m
 2 - temperature, C
 3 - salinity, kg/kg
 4 - turbulent kinetic energy, m**2/s**2
 5 - dissipation rate, m**2/s**3
 6 - kinematic heat conductance, m**2/s
 7 - modulus of horizontal velocity, m/s
 8 - Richardson number, n/d
   -0.000000    3.82937  0.0000E+00  0.4035E-03  0.9644E-03  0.9241E-04  0.2112E+00  0.7879E-03
   -0.034998    3.91317  0.0000E+00  0.2190E-03  0.3692E-03  0.1252E-03  0.6423E-01  0.9080E-03
   -0.069996    3.93360  0.0000E+00  0.1469E-03  0.1316E-03  0.1638E-03  0.4024E-01  0.3337E-02
   -0.104995    3.94475  0.0000E+00  0.1154E-03  0.7929E-04  0.1658E-03  0.3187E-01 -0.4919E-02
   -0.139993    3.95201  0.0000E+00  0.9555E-04  0.5069E-04  0.1718E-03  0.2676E-01  0.9082E-03
   -0.174992    3.95748  0.0000E+00  0.8089E-04  0.3270E-04  0.1797E-03  0.2273E-01  0.6083E-03
   -0.209992    3.96183  0.0000E+00  0.7022E-04  0.2097E-04  0.1859E-03  0.1961E-01  0.1005E-01
   -0.244991    3.96577  0.0000E+00  0.6204E-04  0.1339E-04  0.1904E-03  0.1691E-01  0.4899E-02
   -0.279991    3.96942  0.0000E+00  0.5540E-04  0.8498E-05  0.1908E-03  0.1450E-01  0.5985E-02
   -0.314991    3.97317  0.0000E+00  0.4931E-04  0.5413E-05  0.1988E-03  0.1204E-01  0.1137E-01
   -0.349991    3.97658  0.0000E+00  0.4425E-04  0.3505E-05  0.2032E-03  0.1026E-01  0.2204E-01
   -0.384992    3.97989  0.0000E+00  0.3998E-04  0.2329E-05  0.2061E-03  0.8800E-02  0.3015E+00
   -0.419992    3.98309  0.0000E+00  0.3640E-04  0.1601E-05  0.2051E-03  0.7594E-02  0.8865E-01
   -0.454993    3.98654  0.0000E+00  0.3328E-04  0.1143E-05  0.2021E-03  0.6454E-02  0.1706E+00
   -0.489994    3.99048  0.0000E+00  0.3050E-04  0.8547E-06  0.2008E-03  0.5353E-02  0.4025E+00
   -0.524995    3.99528  0.0000E+00  0.2784E-04  0.6624E-06  0.2066E-03  0.4374E-02 -0.4456E+01
   -0.559996    3.99955  0.0000E+00  0.2528E-04  0.5232E-06  0.2111E-03  0.3677E-02  0.7166E+03
   -0.594997    4.00267  0.0000E+00  0.2252E-04  0.4033E-06  0.2097E-03  0.3215E-02  0.9637E+03
   -0.629998    4.00418  0.0000E+00  0.2005E-04  0.3124E-06  0.2021E-03  0.2955E-02  0.1306E+05
   -0.664999    4.00698  0.0000E+00  0.1793E-04  0.2463E-06  0.1956E-03  0.2667E-02  0.1600E+06
   -0.700000    4.01029  0.0000E+00  0.1611E-04  0.1977E-06  0.1898E-03  0.2386E-02  0.2442E+07
   -0.735001    4.01442  0.0000E+00  0.1453E-04  0.1611E-06  0.1848E-03  0.2125E-02  0.1313E+08
   -0.770002    4.02026  0.0000E+00  0.1315E-04  0.1330E-06  0.1809E-03  0.1886E-02 -0.1450E+09
   -0.805004    4.02637  0.0000E+00  0.1193E-04  0.1110E-06  0.1774E-03  0.1672E-02  0.1417E+10
   -0.840005    4.03252  0.0000E+00  0.1086E-04  0.9351E-07  0.1743E-03  0.1477E-02  0.4859E+10
   -0.875006    4.03863  0.0000E+00  0.9924E-05  0.7940E-07  0.1715E-03  0.1300E-02  0.8221E+10
   -0.910007    4.04459  0.0000E+00  0.9094E-05  0.6788E-07  0.1687E-03  0.1143E-02  0.1217E+11
   -0.945007    4.05050  0.0000E+00  0.8369E-05  0.5853E-07  0.1661E-03  0.9993E-03  0.1474E+11
   -0.980008    4.05628  0.0000E+00  0.7735E-05  0.5093E-07  0.1636E-03  0.8672E-03  0.1581E+11
   -1.015009    4.06183  0.0000E+00  0.7181E-05  0.4474E-07  0.1614E-03  0.7460E-03  0.8983E+10
   -1.050009    4.06708  0.0000E+00  0.6687E-05  0.3966E-07  0.1591E-03  0.6387E-03 -0.1406E+11
   -1.085009    4.07208  0.0000E+00  0.6244E-05  0.3550E-07  0.1563E-03  0.5446E-03 -0.6443E+11
   -1.120009    4.07689  0.0000E+00  0.5851E-05  0.3220E-07  0.1527E-03  0.4628E-03 -0.1159E+12
   -1.155009    4.08155  0.0000E+00  0.5508E-05  0.2977E-07  0.1484E-03  0.3889E-03 -0.1833E+12
   -1.190009    4.08608  0.0000E+00  0.5214E-05  0.2825E-07  0.1429E-03  0.3217E-03 -0.2698E+12
   -1.225008    4.09056  0.0000E+00  0.4944E-05  0.2775E-07  0.1350E-03  0.2610E-03 -0.4085E+12
   -1.260007    4.09508  0.0000E+00  0.4661E-05  0.2892E-07  0.1223E-03  0.2088E-03 -0.6406E+12
   -1.295006    4.09985  0.0000E+00  0.4229E-05  0.3498E-07  0.9639E-04  0.1669E-03 -0.1191E+13
   -1.330004    4.10556  0.0000E+00  0.3608E-05  0.5308E-07  0.5931E-04  0.1381E-03 -0.3167E+13
   -1.365002    4.11504  0.0000E+00  0.2142E-05  0.1358E-06  0.1035E-04  0.1089E-03 -0.3500E+14
   -1.400000    4.16886  0.0000E+00  0.0000E+00  0.0000E+00  0.0000E+00  0.1192E-03  0.0000E+00
