 1 - depth, m
 2 - temperature, C
 3 - salinity, kg/kg
 4 - turbulent kinetic energy, m**2/s**2
 5 - dissipation rate, m**2/s**3
 6 - kinematic heat conductance, m**2/s
 7 - modulus of horizontal velocity, m/s
 8 - Richardson number, n/d
   -0.000000    0.00000  0.0000E+00  0.1619E-09  0.1608E-12  0.1000E-09  0.0000E+00  0.3087E+17
   -0.034999    0.49598  0.0000E+00  0.4247E-09  0.1172E-12  0.1000E-09  0.0000E+00  0.2645E+17
   -0.069997    0.99038  0.0000E+00  0.8793E-09  0.1201E-12  0.1000E-09  0.0000E+00  0.2178E+17
   -0.104997    1.47386  0.0000E+00  0.1527E-08  0.1461E-12  0.1000E-09  0.0000E+00  0.1715E+17
   -0.139996    1.93722  0.0000E+00  0.2402E-08  0.1914E-12  0.1000E-09  0.0000E+00  0.1286E+17
   -0.174996    2.37343  0.0000E+00  0.3569E-08  0.2573E-12  0.1117E-09  0.0000E+00  0.9117E+16
   -0.209996    2.77749  0.0000E+00  0.5119E-08  0.3480E-12  0.1711E-09  0.0000E+00  0.5988E+16
   -0.244996    3.14524  0.0000E+00  0.7179E-08  0.4696E-12  0.3914E-09  0.0000E+00  0.3501E+16
   -0.279996    3.47289  0.0000E+00  0.9914E-08  0.6307E-12  0.1452E-08  0.0000E+00  0.1647E+16
   -0.314997    3.75529  0.0000E+00  0.1249E-07  0.7808E-12  0.1408E-04  0.0000E+00  0.5131E+15
   -0.349998    3.93604  0.0000E+00  0.1365E-07  0.8486E-12  0.4883E-04  0.0000E+00  0.7421E+14
   -0.384999    3.99527  0.0000E+00  0.1380E-07  0.8589E-12  0.7157E-04  0.0000E+00 -0.5494E+11
   -0.420000    3.99570  0.0000E+00  0.1391E-07  0.8674E-12  0.7232E-04  0.0000E+00 -0.5645E+11
   -0.455002    3.99610  0.0000E+00  0.1402E-07  0.8765E-12  0.7366E-04  0.0000E+00 -0.5778E+11
   -0.490003    3.99649  0.0000E+00  0.1411E-07  0.8860E-12  0.7481E-04  0.0000E+00 -0.5940E+11
   -0.525005    3.99687  0.0000E+00  0.1422E-07  0.8973E-12  0.7579E-04  0.0000E+00 -0.6143E+11
   -0.560006    3.99724  0.0000E+00  0.1434E-07  0.9120E-12  0.7596E-04  0.0000E+00 -0.6520E+11
   -0.595008    3.99761  0.0000E+00  0.1450E-07  0.9331E-12  0.7591E-04  0.0000E+00 -0.6871E+11
   -0.630010    3.99800  0.0000E+00  0.1466E-07  0.9566E-12  0.7602E-04  0.0000E+00 -0.7122E+11
   -0.665012    3.99839  0.0000E+00  0.1482E-07  0.9812E-12  0.7584E-04  0.0000E+00 -0.7385E+11
   -0.700014    3.99877  0.0000E+00  0.1497E-07  0.1007E-11  0.7545E-04  0.0000E+00 -0.7696E+11
   -0.735015    3.99916  0.0000E+00  0.1512E-07  0.1035E-11  0.7494E-04  0.0000E+00 -0.8018E+11
   -0.770017    3.99956  0.0000E+00  0.1526E-07  0.1064E-11  0.7430E-04  0.0000E+00 -0.8350E+11
   -0.805019    3.99996  0.0000E+00  0.1539E-07  0.1096E-11  0.7351E-04  0.0000E+00 -0.8709E+11
   -0.840021    4.00036  0.0000E+00  0.1553E-07  0.1131E-11  0.7257E-04  0.0000E+00 -0.9116E+11
   -0.875022    4.00077  0.0000E+00  0.1565E-07  0.1169E-11  0.7148E-04  0.0000E+00 -0.9574E+11
   -0.910024    4.00119  0.0000E+00  0.1577E-07  0.1210E-11  0.7022E-04  0.0000E+00 -0.1008E+12
   -0.945026    4.00162  0.0000E+00  0.1588E-07  0.1255E-11  0.6882E-04  0.0000E+00 -0.1065E+12
   -0.980027    4.00206  0.0000E+00  0.1598E-07  0.1305E-11  0.6723E-04  0.0000E+00 -0.1131E+12
   -1.015028    4.00251  0.0000E+00  0.1606E-07  0.1361E-11  0.6543E-04  0.0000E+00 -0.1213E+12
   -1.050029    4.00298  0.0000E+00  0.1614E-07  0.1425E-11  0.6334E-04  0.0000E+00 -0.1311E+12
   -1.085030    4.00348  0.0000E+00  0.1620E-07  0.1502E-11  0.6097E-04  0.0000E+00 -0.1405E+12
   -1.120031    4.00399  0.0000E+00  0.1625E-07  0.1594E-11  0.5825E-04  0.0000E+00 -0.1518E+12
   -1.155031    4.00453  0.0000E+00  0.1628E-07  0.1704E-11  0.5523E-04  0.0000E+00 -0.1656E+12
   -1.190031    4.00511  0.0000E+00  0.1628E-07  0.1840E-11  0.5166E-04  0.0000E+00 -0.1842E+12
   -1.225031    4.00572  0.0000E+00  0.1626E-07  0.2033E-11  0.4721E-04  0.0000E+00 -0.2123E+12
   -1.260031    4.00641  0.0000E+00  0.1617E-07  0.2357E-11  0.4103E-04  0.0000E+00 -0.2655E+12
   -1.295031    4.00723  0.0000E+00  0.1585E-07  0.3290E-11  0.2607E-04  0.0000E+00 -0.4749E+12
   -1.330030    4.00865  0.0000E+00  0.1478E-07  0.6324E-11  0.7855E-05  0.0000E+00 -0.1890E+13
   -1.365029    4.01355  0.0000E+00  0.1059E-07  0.2184E-10  0.9154E-06  0.0000E+00 -0.3018E+14
   -1.400027    4.05409  0.0000E+00  0.0000E+00  0.0000E+00  0.0000E+00  0.0000E+00  0.0000E+00
