 1 - depth, m
 2 - temperature, C
 3 - salinity, kg/kg
 4 - turbulent kinetic energy, m**2/s**2
 5 - dissipation rate, m**2/s**3
 6 - kinematic heat conductance, m**2/s
 7 - modulus of horizontal velocity, m/s
 8 - Richardson number, n/d
   -0.000000    7.25184  0.0000E+00  0.4075E-04  0.9116E-05  0.2744E-04  0.4208E-01 -0.1162E-01
   -0.034998    7.28752  0.0000E+00  0.2603E-04  0.2736E-05  0.4375E-04  0.1840E-01 -0.1138E-01
   -0.069996    7.29814  0.0000E+00  0.2033E-04  0.1306E-05  0.5492E-04  0.1353E-01 -0.3562E-01
   -0.104994    7.30578  0.0000E+00  0.1683E-04  0.7282E-06  0.6580E-04  0.1074E-01 -0.5851E-01
   -0.139993    7.31184  0.0000E+00  0.1434E-04  0.4453E-06  0.7697E-04  0.8710E-02 -0.8856E-01
   -0.174992    7.31685  0.0000E+00  0.1249E-04  0.2921E-06  0.9007E-04  0.7142E-02 -0.9050E-01
   -0.209991    7.32102  0.0000E+00  0.1107E-04  0.2028E-06  0.1196E-03  0.5882E-02  0.6250E+02
   -0.244991    7.32434  0.0000E+00  0.9925E-05  0.1474E-06  0.1388E-03  0.4849E-02  0.1223E+02
   -0.279991    7.32723  0.0000E+00  0.8936E-05  0.1104E-06  0.1554E-03  0.3959E-02  0.8080E+01
   -0.314991    7.32983  0.0000E+00  0.8007E-05  0.8363E-07  0.1744E-03  0.3162E-02  0.6382E+01
   -0.349991    7.33213  0.0000E+00  0.7198E-05  0.6441E-07  0.1930E-03  0.2532E-02  0.7005E+01
   -0.384991    7.33420  0.0000E+00  0.6516E-05  0.5054E-07  0.2113E-03  0.2031E-02  0.6288E+01
   -0.419992    7.33608  0.0000E+00  0.5956E-05  0.4053E-07  0.2292E-03  0.1625E-02  0.1877E+02
   -0.454992    7.33780  0.0000E+00  0.5491E-05  0.3321E-07  0.2502E-03  0.1276E-02  0.3453E+02
   -0.489993    7.33937  0.0000E+00  0.5103E-05  0.2783E-07  0.2748E-03  0.9694E-03  0.4041E+03
   -0.524994    7.34077  0.0000E+00  0.4752E-05  0.2354E-07  0.2992E-03  0.7089E-03  0.3275E+02
   -0.559995    7.34203  0.0000E+00  0.4429E-05  0.1997E-07  0.3293E-03  0.5252E-03  0.1644E+02
   -0.594996    7.34313  0.0000E+00  0.4112E-05  0.1673E-07  0.3491E-03  0.4138E-03  0.8805E+02
   -0.629997    7.34414  0.0000E+00  0.3866E-05  0.1432E-07  0.3666E-03  0.3540E-03  0.1218E+03
   -0.664998    7.34505  0.0000E+00  0.3676E-05  0.1256E-07  0.3813E-03  0.3059E-03  0.2794E+02
   -0.699999    7.34591  0.0000E+00  0.3522E-05  0.1121E-07  0.3910E-03  0.2648E-03  0.2250E+01
   -0.735000    7.34672  0.0000E+00  0.3394E-05  0.1013E-07  0.3977E-03  0.2297E-03  0.2170E+01
   -0.770002    7.34751  0.0000E+00  0.3287E-05  0.9267E-08  0.4037E-03  0.1995E-03  0.1768E+01
   -0.805003    7.34828  0.0000E+00  0.3195E-05  0.8560E-08  0.4089E-03  0.1737E-03  0.2081E+01
   -0.840004    7.34904  0.0000E+00  0.3117E-05  0.7979E-08  0.4134E-03  0.1515E-03  0.2453E+01
   -0.875005    7.34977  0.0000E+00  0.3048E-05  0.7497E-08  0.4171E-03  0.1322E-03  0.2949E+01
   -0.910006    7.35050  0.0000E+00  0.2987E-05  0.7097E-08  0.4197E-03  0.1154E-03  0.3566E+01
   -0.945006    7.35122  0.0000E+00  0.2933E-05  0.6771E-08  0.4212E-03  0.1005E-03  0.4271E+01
   -0.980007    7.35193  0.0000E+00  0.2884E-05  0.6509E-08  0.4211E-03  0.8709E-04  0.5098E+01
   -1.015007    7.35263  0.0000E+00  0.2840E-05  0.6303E-08  0.4194E-03  0.7495E-04  0.6211E+01
   -1.050008    7.35333  0.0000E+00  0.2798E-05  0.6148E-08  0.4155E-03  0.6426E-04  0.7985E+01
   -1.085008    7.35403  0.0000E+00  0.2758E-05  0.6042E-08  0.4091E-03  0.5484E-04  0.1053E+02
   -1.120008    7.35474  0.0000E+00  0.2718E-05  0.5991E-08  0.3996E-03  0.4663E-04  0.1426E+02
   -1.155008    7.35546  0.0000E+00  0.2680E-05  0.6006E-08  0.3870E-03  0.3916E-04  0.1866E+02
   -1.190007    7.35619  0.0000E+00  0.2642E-05  0.6103E-08  0.3700E-03  0.3235E-04  0.2423E+02
   -1.225007    7.35696  0.0000E+00  0.2600E-05  0.6331E-08  0.3466E-03  0.2610E-04  0.3181E+02
   -1.260006    7.35777  0.0000E+00  0.2545E-05  0.6829E-08  0.3104E-03  0.2071E-04  0.4579E+02
   -1.295004    7.35868  0.0000E+00  0.2442E-05  0.8199E-08  0.2435E-03  0.1628E-04 -0.6891E+03
   -1.330003    7.35985  0.0000E+00  0.2266E-05  0.1148E-07  0.1791E-03  0.1326E-04  0.7199E+04
   -1.365001    7.36171  0.0000E+00  0.1524E-05  0.3374E-07  0.1359E-04  0.1035E-04 -0.1890E+06
   -1.399999    7.38383  0.0000E+00  0.0000E+00  0.0000E+00  0.0000E+00  0.1066E-04  0.0000E+00
