 1 - depth, m
 2 - temperature, C
 3 - salinity, kg/kg
 4 - turbulent kinetic energy, m**2/s**2
 5 - dissipation rate, m**2/s**3
 6 - kinematic heat conductance, m**2/s
 7 - modulus of horizontal velocity, m/s
 8 - Richardson number, n/d
   -0.000000   12.79540  0.0000E+00  0.1239E-02  0.1367E-01  0.1224E-03  0.5374E+00  0.7494E-02
   -0.034999   12.95724  0.0000E+00  0.6787E-03  0.9830E-02  0.2175E-03  0.1686E+00  0.1575E+00
   -0.069998   13.03789  0.0000E+00  0.4265E-03  0.1729E-02  0.2955E-03  0.9160E-01 -0.7595E-01
   -0.104998   13.06926  0.0000E+00  0.3331E-03  0.1051E-02  0.3229E-03  0.6470E-01  0.4519E+00
   -0.139998   13.08669  0.0000E+00  0.2707E-03  0.7070E-03  0.3332E-03  0.4975E-01 -0.9038E-01
   -0.174998   13.09488  0.0000E+00  0.2302E-03  0.5026E-03  0.3365E-03  0.4141E-01 -0.1326E+00
   -0.209998   13.10014  0.0000E+00  0.2002E-03  0.3603E-03  0.3424E-03  0.3552E-01  0.4833E-01
   -0.244999   13.10432  0.0000E+00  0.1767E-03  0.2612E-03  0.3522E-03  0.3079E-01  0.1295E-01
   -0.280000   13.10774  0.0000E+00  0.1573E-03  0.1891E-03  0.3524E-03  0.2697E-01  0.8881E+00
   -0.315001   13.11213  0.0000E+00  0.1400E-03  0.1364E-03  0.3740E-03  0.2269E-01  0.1298E+03
   -0.350002   13.11517  0.0000E+00  0.1257E-03  0.9818E-04  0.3818E-03  0.1988E-01  0.1484E+02
   -0.385004   13.11782  0.0000E+00  0.1148E-03  0.7158E-04  0.3906E-03  0.1767E-01  0.6168E+01
   -0.420005   13.12007  0.0000E+00  0.1059E-03  0.5263E-04  0.3984E-03  0.1588E-01  0.7397E+02
   -0.455007   13.12265  0.0000E+00  0.9801E-04  0.3923E-04  0.3972E-03  0.1401E-01  0.6147E+03
   -0.490009   13.12605  0.0000E+00  0.9128E-04  0.3005E-04  0.4088E-03  0.1217E-01  0.3396E+03
   -0.525011   13.13057  0.0000E+00  0.8497E-04  0.2343E-04  0.4375E-03  0.1051E-01 -0.2874E+02
   -0.560013   13.13393  0.0000E+00  0.7889E-04  0.1825E-04  0.4720E-03  0.9367E-02 -0.4693E+05
   -0.595015   13.13529  0.0000E+00  0.7215E-04  0.1350E-04  0.4963E-03  0.8604E-02  0.2453E+04
   -0.630017   13.13224  0.0000E+00  0.6598E-04  0.9810E-05  0.5024E-03  0.8264E-02  0.3794E+04
   -0.665020   13.13351  0.0000E+00  0.6069E-04  0.7147E-05  0.5094E-03  0.7733E-02  0.2992E+04
   -0.700022   13.13488  0.0000E+00  0.5610E-04  0.5231E-05  0.5324E-03  0.7168E-02  0.2917E+03
   -0.735024   13.13630  0.0000E+00  0.5203E-04  0.3843E-05  0.5494E-03  0.6629E-02  0.6642E+03
   -0.770026   13.13773  0.0000E+00  0.4833E-04  0.2837E-05  0.5698E-03  0.6118E-02  0.2944E+03
   -0.805028   13.13892  0.0000E+00  0.4501E-04  0.2095E-05  0.5822E-03  0.5647E-02  0.3693E+03
   -0.840031   13.14027  0.0000E+00  0.4199E-04  0.1588E-05  0.5988E-03  0.5202E-02  0.1459E+04
   -0.875033   13.14134  0.0000E+00  0.3921E-04  0.1218E-05  0.6061E-03  0.4782E-02  0.7160E+04
   -0.910035   13.14260  0.0000E+00  0.3664E-04  0.9474E-06  0.6112E-03  0.4388E-02  0.7226E+03
   -0.945037   13.14359  0.0000E+00  0.3430E-04  0.7567E-06  0.6109E-03  0.4013E-02  0.4981E+03
   -0.980038   13.14485  0.0000E+00  0.3216E-04  0.6241E-06  0.6076E-03  0.3647E-02  0.5631E+03
   -1.015040   13.14597  0.0000E+00  0.3018E-04  0.5325E-06  0.5971E-03  0.3297E-02  0.2889E+04
   -1.050041   13.14717  0.0000E+00  0.2827E-04  0.4686E-06  0.5842E-03  0.2973E-02  0.8448E+03
   -1.085043   13.14831  0.0000E+00  0.2641E-04  0.4283E-06  0.5603E-03  0.2671E-02  0.1338E+06
   -1.120044   13.14954  0.0000E+00  0.2461E-04  0.4125E-06  0.5283E-03  0.2397E-02  0.8749E+04
   -1.155045   13.15087  0.0000E+00  0.2285E-04  0.4264E-06  0.4780E-03  0.2128E-02  0.1307E+06
   -1.190045   13.15256  0.0000E+00  0.2110E-04  0.4814E-06  0.4332E-03  0.1854E-02  0.3557E+05
   -1.225046   13.15454  0.0000E+00  0.1922E-04  0.6103E-06  0.3827E-03  0.1557E-02  0.9100E+06
   -1.260046   13.15713  0.0000E+00  0.1711E-04  0.8972E-06  0.3262E-03  0.1260E-02 -0.3311E+09
   -1.295046   13.16142  0.0000E+00  0.1450E-04  0.1658E-05  0.2804E-03  0.1005E-02 -0.2515E+07
   -1.330045   13.16104  0.0000E+00  0.1137E-04  0.3687E-05  0.1561E-03  0.9059E-03 -0.9716E+08
   -1.365045   13.17542  0.0000E+00  0.7978E-05  0.7313E-05  0.1325E-03  0.6666E-03 -0.1922E+11
   -1.400044   13.18612  0.0000E+00  0.0000E+00  0.0000E+00  0.0000E+00  0.1094E-02  0.0000E+00
