 1 - depth, m
 2 - temperature, C
 3 - salinity, kg/kg
 4 - turbulent kinetic energy, m**2/s**2
 5 - dissipation rate, m**2/s**3
 6 - kinematic heat conductance, m**2/s
 7 - modulus of horizontal velocity, m/s
 8 - Richardson number, n/d
   -0.000000    0.00000  0.0000E+00  0.5853E-04  0.1473E-04  0.3296E-04  0.6180E-01  0.1653E-01
   -0.034997    0.01221  0.0000E+00  0.3847E-04  0.4452E-05  0.5051E-04  0.2853E-01  0.4856E-02
   -0.069994    0.01817  0.0000E+00  0.3031E-04  0.2067E-05  0.6438E-04  0.2144E-01  0.7864E-02
   -0.104991    0.02260  0.0000E+00  0.2526E-04  0.1136E-05  0.7540E-04  0.1733E-01  0.1116E-01
   -0.139989    0.02627  0.0000E+00  0.2161E-04  0.6835E-06  0.8424E-04  0.1431E-01  0.1556E-01
   -0.174987    0.02950  0.0000E+00  0.1882E-04  0.4442E-06  0.9098E-04  0.1193E-01  0.2053E-01
   -0.209985    0.03245  0.0000E+00  0.1660E-04  0.3091E-06  0.9535E-04  0.9968E-02  0.2618E-01
   -0.244983    0.03523  0.0000E+00  0.1473E-04  0.2268E-06  0.9691E-04  0.8296E-02  0.3205E-01
   -0.279982    0.03793  0.0000E+00  0.1302E-04  0.1714E-06  0.9426E-04  0.6817E-02  0.3671E-01
   -0.314981    0.04068  0.0000E+00  0.1125E-04  0.1291E-06  0.9453E-04  0.5430E-02  0.5816E-01
   -0.349980    0.04337  0.0000E+00  0.9635E-05  0.9766E-07  0.9190E-04  0.4329E-02  0.9341E-01
   -0.384979    0.04610  0.0000E+00  0.8220E-05  0.7450E-07  0.8726E-04  0.3442E-02  0.1528E+00
   -0.419978    0.04896  0.0000E+00  0.7020E-05  0.5757E-07  0.7975E-04  0.2717E-02  0.2206E+00
   -0.454978    0.05210  0.0000E+00  0.5988E-05  0.4491E-07  0.7096E-04  0.2069E-02  0.3148E+00
   -0.489977    0.05574  0.0000E+00  0.5088E-05  0.3525E-07  0.6294E-04  0.1467E-02  0.5846E+00
   -0.524977    0.06010  0.0000E+00  0.4265E-05  0.2741E-07  0.5871E-04  0.9366E-03  0.2438E+01
   -0.559977    0.06478  0.0000E+00  0.3537E-05  0.2114E-07  0.5468E-04  0.5934E-03  0.7292E+00
   -0.594977    0.06876  0.0000E+00  0.2828E-05  0.1560E-07  0.5011E-04  0.4068E-03  0.1809E+04
   -0.629977    0.07143  0.0000E+00  0.2225E-05  0.1139E-07  0.3974E-04  0.3304E-03 -0.9644E+03
   -0.664977    0.07496  0.0000E+00  0.1721E-05  0.8249E-08  0.3016E-04  0.2618E-03 -0.6927E+04
   -0.699977    0.08076  0.0000E+00  0.1283E-05  0.5837E-08  0.2189E-04  0.2004E-03 -0.3193E+04
   -0.734977    0.10343  0.0000E+00  0.9301E-06  0.4046E-08  0.1669E-04  0.1425E-03  0.1129E+06
   -0.769977    0.17316  0.0000E+00  0.6995E-06  0.2889E-08  0.1253E-04  0.1015E-03  0.7312E+07
   -0.804977    0.24275  0.0000E+00  0.5288E-06  0.2076E-08  0.8927E-05  0.7390E-04  0.3451E+09
   -0.839976    0.30180  0.0000E+00  0.3886E-06  0.1462E-08  0.5924E-05  0.5267E-04  0.1908E+11
   -0.874976    0.35841  0.0000E+00  0.2707E-06  0.9874E-09  0.3767E-05  0.3573E-04  0.1422E+13
   -0.909976    0.42144  0.0000E+00  0.1773E-06  0.6350E-09  0.2228E-05  0.2335E-04  0.9431E+14
   -0.944976    0.51021  0.0000E+00  0.1111E-06  0.3945E-09  0.1241E-05  0.1441E-04  0.7469E+15
   -0.979975    0.62626  0.0000E+00  0.6829E-07  0.2418E-09  0.6719E-06  0.8385E-05  0.3876E+16
   -1.014975    0.76592  0.0000E+00  0.4290E-07  0.1508E-09  0.3225E-06  0.4563E-05  0.4015E+16
   -1.049974    0.89223  0.0000E+00  0.2535E-07  0.8834E-10  0.8383E-07  0.2462E-05  0.3549E+16
   -1.084973    1.00430  0.0000E+00  0.1073E-07  0.3716E-10  0.1032E-07  0.9552E-06  0.5070E+16
   -1.119972    1.17649  0.0000E+00  0.2396E-08  0.8404E-11  0.1598E-08  0.1864E-06  0.8337E+16
   -1.154970    1.43947  0.0000E+00  0.3812E-09  0.1362E-11  0.2841E-09  0.1841E-07  0.1132E+17
   -1.189969    1.79558  0.0000E+00  0.1182E-09  0.3080E-12  0.1326E-09  0.1226E-08  0.1296E+17
   -1.224967    2.24164  0.0000E+00  0.3609E-09  0.5961E-12  0.3310E-09  0.5094E-10  0.1109E+17
   -1.259965    2.73865  0.0000E+00  0.1810E-08  0.2837E-11  0.4788E-07  0.1557E-11  0.7087E+16
   -1.294962    3.21022  0.0000E+00  0.6318E-08  0.1061E-10  0.1436E-05  0.4099E-13  0.2987E+16
   -1.329960    3.45158  0.0000E+00  0.9546E-08  0.2053E-10  0.1584E-05  0.1915E-14  0.2303E+16
   -1.364957    3.66992  0.0000E+00  0.1080E-07  0.4416E-10  0.7826E-06  0.7078E-16  0.1310E+16
   -1.399953    3.86181  0.0000E+00  0.0000E+00  0.0000E+00  0.0000E+00  0.7094E-16  0.0000E+00
