 1 - depth, m
 2 - temperature, C
 3 - salinity, kg/kg
 4 - turbulent kinetic energy, m**2/s**2
 5 - dissipation rate, m**2/s**3
 6 - kinematic heat conductance, m**2/s
 7 - modulus of horizontal velocity, m/s
 8 - Richardson number, n/d
   -0.000000    0.00000  0.0000E+00  0.4702E-13  0.1132E-15  0.1000E-09  0.0000E+00  0.1093E+17
   -0.034998    0.16768  0.0000E+00  0.4702E-13  0.1132E-15  0.1000E-09  0.0000E+00  0.1048E+17
   -0.069996    0.33615  0.0000E+00  0.4702E-13  0.1132E-15  0.1000E-09  0.0000E+00  0.1003E+17
   -0.104994    0.50554  0.0000E+00  0.4702E-13  0.1132E-15  0.1000E-09  0.0000E+00  0.9474E+16
   -0.139993    0.67402  0.0000E+00  0.4702E-13  0.1132E-15  0.1000E-09  0.0000E+00  0.8874E+16
   -0.174991    0.84049  0.0000E+00  0.4702E-13  0.1132E-15  0.1000E-09  0.0000E+00  0.8292E+16
   -0.209991    1.00488  0.0000E+00  0.4702E-13  0.1132E-15  0.1000E-09  0.0000E+00  0.7725E+16
   -0.244990    1.16710  0.0000E+00  0.4702E-13  0.1132E-15  0.1000E-09  0.0000E+00  0.7173E+16
   -0.279990    1.32703  0.0000E+00  0.4702E-13  0.1132E-15  0.1000E-09  0.0000E+00  0.6638E+16
   -0.314989    1.48453  0.0000E+00  0.4702E-13  0.1132E-15  0.1000E-09  0.0000E+00  0.6112E+16
   -0.349989    1.63931  0.0000E+00  0.4702E-13  0.1132E-15  0.1000E-09  0.0000E+00  0.5601E+16
   -0.384990    1.79109  0.0000E+00  0.4702E-13  0.1132E-15  0.1000E-09  0.0000E+00  0.5105E+16
   -0.419990    1.93959  0.0000E+00  0.4702E-13  0.1132E-15  0.1000E-09  0.0000E+00  0.4643E+16
   -0.454991    2.08506  0.0000E+00  0.4702E-13  0.1132E-15  0.1000E-09  0.0000E+00  0.4209E+16
   -0.489991    2.22765  0.0000E+00  0.4702E-13  0.1132E-15  0.1000E-09  0.0000E+00  0.3785E+16
   -0.524992    2.36689  0.0000E+00  0.4702E-13  0.1132E-15  0.1000E-09  0.0000E+00  0.3345E+16
   -0.559993    2.50110  0.0000E+00  0.4702E-13  0.1132E-15  0.1000E-09  0.0000E+00  0.2884E+16
   -0.594994    2.62766  0.0000E+00  0.4702E-13  0.1132E-15  0.1000E-09  0.0000E+00  0.2435E+16
   -0.629994    2.74478  0.0000E+00  0.4702E-13  0.1132E-15  0.1000E-09  0.0000E+00  0.2133E+16
   -0.664995    2.85750  0.0000E+00  0.4702E-13  0.1132E-15  0.1000E-09  0.0000E+00  0.1851E+16
   -0.699996    2.96555  0.0000E+00  0.4702E-13  0.1132E-15  0.1000E-09  0.0000E+00  0.1586E+16
   -0.734997    3.06843  0.0000E+00  0.1384E-12  0.1132E-15  0.1000E-09  0.0000E+00  0.1353E+16
   -0.769998    3.16645  0.0000E+00  0.4264E-12  0.1517E-15  0.1000E-09  0.0000E+00  0.1161E+16
   -0.804999    3.26126  0.0000E+00  0.9906E-12  0.2798E-15  0.1000E-09  0.0000E+00  0.9835E+15
   -0.840000    3.35269  0.0000E+00  0.2066E-11  0.5416E-15  0.1000E-09  0.0000E+00  0.8188E+15
   -0.875001    3.44050  0.0000E+00  0.4141E-11  0.1048E-14  0.1000E-09  0.0000E+00  0.6674E+15
   -0.910002    3.52438  0.0000E+00  0.8146E-11  0.2013E-14  0.1000E-09  0.0000E+00  0.5319E+15
   -0.945002    3.60432  0.0000E+00  0.1582E-10  0.3827E-14  0.1000E-09  0.0000E+00  0.4107E+15
   -0.980003    3.68010  0.0000E+00  0.3053E-10  0.7241E-14  0.1000E-09  0.0000E+00  0.3033E+15
   -1.015003    3.75135  0.0000E+00  0.5902E-10  0.1373E-13  0.1707E-09  0.0000E+00  0.2077E+15
   -1.050003    3.81670  0.0000E+00  0.1147E-09  0.2619E-13  0.5186E-09  0.0000E+00  0.1302E+15
   -1.085003    3.87591  0.0000E+00  0.2238E-09  0.5016E-13  0.1738E-08  0.0000E+00  0.7410E+14
   -1.120003    3.93395  0.0000E+00  0.4314E-09  0.9515E-13  0.1117E-07  0.0000E+00  0.2150E+14
   -1.155003    3.98768  0.0000E+00  0.7582E-09  0.1667E-12  0.9746E-06  0.0000E+00 -0.5808E+12
   -1.190002    3.99528  0.0000E+00  0.1041E-08  0.2485E-12  0.1631E-05  0.0000E+00 -0.8268E+12
   -1.225001    3.99996  0.0000E+00  0.1289E-08  0.3500E-12  0.1828E-05  0.0000E+00 -0.1085E+13
   -1.260000    4.00434  0.0000E+00  0.1515E-08  0.5033E-12  0.1736E-05  0.0000E+00 -0.1618E+13
   -1.294999    4.00936  0.0000E+00  0.1741E-08  0.8338E-12  0.1310E-05  0.0000E+00 -0.3270E+13
   -1.329997    4.01712  0.0000E+00  0.1834E-08  0.1448E-11  0.7468E-06  0.0000E+00 -0.8369E+13
   -1.364995    4.03123  0.0000E+00  0.1679E-08  0.3018E-11  0.2519E-06  0.0000E+00 -0.3847E+14
   -1.399993    4.06957  0.0000E+00  0.0000E+00  0.0000E+00  0.0000E+00  0.0000E+00  0.0000E+00
