 1 - depth, m
 2 - temperature, C
 3 - salinity, kg/kg
 4 - turbulent kinetic energy, m**2/s**2
 5 - dissipation rate, m**2/s**3
 6 - kinematic heat conductance, m**2/s
 7 - modulus of horizontal velocity, m/s
 8 - Richardson number, n/d
   -0.000000    0.00000  0.0000E+00  0.4702E-13  0.1132E-15  0.1000E-09  0.0000E+00  0.1621E+17
   -0.034997    0.25157  0.0000E+00  0.4702E-13  0.1132E-15  0.1000E-09  0.0000E+00  0.1426E+17
   -0.069994    0.48895  0.0000E+00  0.4702E-13  0.1132E-15  0.1000E-09  0.0000E+00  0.1258E+17
   -0.104992    0.71343  0.0000E+00  0.4702E-13  0.1132E-15  0.1000E-09  0.0000E+00  0.1107E+17
   -0.139990    0.92533  0.0000E+00  0.4702E-13  0.1132E-15  0.1000E-09  0.0000E+00  0.9732E+16
   -0.174989    1.12531  0.0000E+00  0.4702E-13  0.1132E-15  0.1000E-09  0.0000E+00  0.8569E+16
   -0.209987    1.31440  0.0000E+00  0.4702E-13  0.1132E-15  0.1000E-09  0.0000E+00  0.7559E+16
   -0.244986    1.49366  0.0000E+00  0.4702E-13  0.1132E-15  0.1000E-09  0.0000E+00  0.6680E+16
   -0.279985    1.66405  0.0000E+00  0.4702E-13  0.1132E-15  0.1000E-09  0.0000E+00  0.5912E+16
   -0.314984    1.82651  0.0000E+00  0.4702E-13  0.1132E-15  0.1000E-09  0.0000E+00  0.5148E+16
   -0.349984    1.97906  0.0000E+00  0.4702E-13  0.1132E-15  0.1000E-09  0.0000E+00  0.4467E+16
   -0.384983    2.12189  0.0000E+00  0.4702E-13  0.1132E-15  0.1000E-09  0.0000E+00  0.3869E+16
   -0.419983    2.25542  0.0000E+00  0.4702E-13  0.1132E-15  0.1000E-09  0.0000E+00  0.3432E+16
   -0.454983    2.38342  0.0000E+00  0.4702E-13  0.1132E-15  0.1000E-09  0.0000E+00  0.3093E+16
   -0.489983    2.50851  0.0000E+00  0.4702E-13  0.1132E-15  0.1000E-09  0.0000E+00  0.2756E+16
   -0.524983    2.62992  0.0000E+00  0.4702E-13  0.1132E-15  0.1000E-09  0.0000E+00  0.2314E+16
   -0.559983    2.74114  0.0000E+00  0.4702E-13  0.1132E-15  0.1000E-09  0.0000E+00  0.1815E+16
   -0.594984    2.83602  0.0000E+00  0.4702E-13  0.1132E-15  0.1000E-09  0.0000E+00  0.1349E+16
   -0.629984    2.91207  0.0000E+00  0.4702E-13  0.1132E-15  0.1000E-09  0.0000E+00  0.1234E+16
   -0.664984    2.98678  0.0000E+00  0.4702E-13  0.1132E-15  0.1000E-09  0.0000E+00  0.1120E+16
   -0.699985    3.05986  0.0000E+00  0.4702E-13  0.1132E-15  0.1000E-09  0.0000E+00  0.1001E+16
   -0.734985    3.13053  0.0000E+00  0.4702E-13  0.1132E-15  0.1000E-09  0.0000E+00  0.8874E+15
   -0.769985    3.19855  0.0000E+00  0.4702E-13  0.1132E-15  0.1000E-09  0.0000E+00  0.7947E+15
   -0.804986    3.26497  0.0000E+00  0.6415E-13  0.1132E-15  0.1000E-09  0.0000E+00  0.7062E+15
   -0.839986    3.32969  0.0000E+00  0.1669E-12  0.1403E-15  0.1000E-09  0.0000E+00  0.6224E+15
   -0.874986    3.39263  0.0000E+00  0.4356E-12  0.2476E-15  0.1000E-09  0.0000E+00  0.5427E+15
   -0.909986    3.45361  0.0000E+00  0.1112E-11  0.5354E-15  0.1000E-09  0.0000E+00  0.4748E+15
   -0.944986    3.51346  0.0000E+00  0.2756E-11  0.1255E-14  0.1000E-09  0.0000E+00  0.4131E+15
   -0.979986    3.57262  0.0000E+00  0.6710E-11  0.2980E-14  0.1000E-09  0.0000E+00  0.3554E+15
   -1.014986    3.63144  0.0000E+00  0.1630E-10  0.7097E-14  0.1033E-09  0.0000E+00  0.2948E+15
   -1.049986    3.68916  0.0000E+00  0.3967E-10  0.1697E-13  0.1989E-09  0.0000E+00  0.2409E+15
   -1.084985    3.74681  0.0000E+00  0.9671E-10  0.4067E-13  0.5355E-09  0.0000E+00  0.2020E+15
   -1.119984    3.80965  0.0000E+00  0.2328E-09  0.9645E-13  0.1858E-08  0.0000E+00  0.1519E+15
   -1.154983    3.87988  0.0000E+00  0.5515E-09  0.2259E-12  0.1529E-07  0.0000E+00  0.8024E+14
   -1.189982    3.95419  0.0000E+00  0.1181E-08  0.4907E-12  0.7211E-06  0.0000E+00  0.2171E+14
   -1.224981    3.99583  0.0000E+00  0.1994E-08  0.9321E-12  0.1411E-05  0.0000E+00 -0.2077E+13
   -1.259979    4.01190  0.0000E+00  0.2911E-08  0.1666E-11  0.1814E-05  0.0000E+00 -0.4768E+13
   -1.294977    4.02194  0.0000E+00  0.4039E-08  0.3207E-11  0.1801E-05  0.0000E+00 -0.8976E+13
   -1.329975    4.03545  0.0000E+00  0.4919E-08  0.6030E-11  0.1296E-05  0.0000E+00 -0.2022E+14
   -1.364972    4.05699  0.0000E+00  0.5268E-08  0.1377E-10  0.5870E-06  0.0000E+00 -0.8588E+14
   -1.399969    4.11270  0.0000E+00  0.0000E+00  0.0000E+00  0.0000E+00  0.0000E+00  0.0000E+00
