 1 - depth, m
 2 - temperature, C
 3 - salinity, kg/kg
 4 - turbulent kinetic energy, m**2/s**2
 5 - dissipation rate, m**2/s**3
 6 - kinematic heat conductance, m**2/s
 7 - modulus of horizontal velocity, m/s
 8 - Richardson number, n/d
   -0.000000   12.69519  0.0000E+00  0.1018E-04  0.5753E-06  0.1735E-04  0.1717E-01 -0.8502E-02
   -0.034998   12.70289  0.0000E+00  0.8409E-05  0.2333E-06  0.3032E-04  0.1068E-01 -0.2078E-01
   -0.069996   12.70705  0.0000E+00  0.7113E-05  0.1282E-06  0.4082E-04  0.7668E-02 -0.3778E-01
   -0.104995   12.71004  0.0000E+00  0.6129E-05  0.8036E-07  0.5041E-04  0.5769E-02 -0.6205E-01
   -0.139993   12.71242  0.0000E+00  0.5369E-05  0.5451E-07  0.6005E-04  0.4441E-02 -0.9626E-01
   -0.174992   12.71441  0.0000E+00  0.4775E-05  0.3908E-07  0.7042E-04  0.3461E-02 -0.1414E+00
   -0.209992   12.71611  0.0000E+00  0.4307E-05  0.2923E-07  0.8372E-04  0.2713E-02 -0.1534E+00
   -0.244991   12.71757  0.0000E+00  0.3936E-05  0.2268E-07  0.1161E-03  0.2125E-02  0.2061E+03
   -0.279991   12.71873  0.0000E+00  0.3635E-05  0.1814E-07  0.1526E-03  0.1664E-02  0.8171E+02
   -0.314991   12.71966  0.0000E+00  0.3391E-05  0.1495E-07  0.2264E-03  0.1287E-02  0.5836E+04
   -0.349992   12.72023  0.0000E+00  0.3204E-05  0.1270E-07  0.2702E-03  0.1025E-02  0.2066E+01
   -0.384992   12.72070  0.0000E+00  0.3051E-05  0.1098E-07  0.2797E-03  0.8225E-03  0.1631E+01
   -0.419993   12.72115  0.0000E+00  0.2923E-05  0.9619E-08  0.2899E-03  0.6532E-03  0.1601E+01
   -0.454993   12.72159  0.0000E+00  0.2816E-05  0.8556E-08  0.2998E-03  0.5087E-03  0.1600E+01
   -0.489994   12.72203  0.0000E+00  0.2725E-05  0.7720E-08  0.3093E-03  0.3822E-03  0.1449E+01
   -0.524995   12.72246  0.0000E+00  0.2641E-05  0.7026E-08  0.3196E-03  0.2754E-03  0.9651E+00
   -0.559996   12.72284  0.0000E+00  0.2568E-05  0.6460E-08  0.3297E-03  0.2048E-03  0.6125E+00
   -0.594997   12.72314  0.0000E+00  0.2501E-05  0.5953E-08  0.3398E-03  0.1669E-03  0.6364E+00
   -0.629998   12.72336  0.0000E+00  0.2450E-05  0.5549E-08  0.3491E-03  0.1467E-03  0.1250E+01
   -0.664999   12.72359  0.0000E+00  0.2409E-05  0.5215E-08  0.3570E-03  0.1288E-03  0.1507E+01
   -0.700001   12.72381  0.0000E+00  0.2376E-05  0.4940E-08  0.3649E-03  0.1129E-03  0.1785E+01
   -0.735002   12.72404  0.0000E+00  0.2350E-05  0.4711E-08  0.3727E-03  0.9887E-04  0.2153E+01
   -0.770003   12.72427  0.0000E+00  0.2331E-05  0.4521E-08  0.3802E-03  0.8655E-04  0.2620E+01
   -0.805004   12.72450  0.0000E+00  0.2315E-05  0.4366E-08  0.3872E-03  0.7576E-04  0.3250E+01
   -0.840005   12.72473  0.0000E+00  0.2304E-05  0.4241E-08  0.3933E-03  0.6630E-04  0.4045E+01
   -0.875006   12.72497  0.0000E+00  0.2296E-05  0.4144E-08  0.3985E-03  0.5797E-04  0.5054E+01
   -0.910007   12.72521  0.0000E+00  0.2290E-05  0.4072E-08  0.4023E-03  0.5067E-04  0.6381E+01
   -0.945008   12.72546  0.0000E+00  0.2286E-05  0.4025E-08  0.4046E-03  0.4414E-04  0.7973E+01
   -0.980009   12.72573  0.0000E+00  0.2283E-05  0.4001E-08  0.4051E-03  0.3824E-04  0.9948E+01
   -1.015009   12.72600  0.0000E+00  0.2281E-05  0.3999E-08  0.4037E-03  0.3289E-04  0.1259E+02
   -1.050010   12.72629  0.0000E+00  0.2278E-05  0.4023E-08  0.3999E-03  0.2816E-04  0.1688E+02
   -1.085010   12.72658  0.0000E+00  0.2274E-05  0.4074E-08  0.3934E-03  0.2399E-04  0.2320E+02
   -1.120010   12.72690  0.0000E+00  0.2270E-05  0.4159E-08  0.3835E-03  0.2036E-04  0.3300E+02
   -1.155010   12.72723  0.0000E+00  0.2262E-05  0.4284E-08  0.3700E-03  0.1704E-04  0.4534E+02
   -1.190009   12.72760  0.0000E+00  0.2252E-05  0.4463E-08  0.3521E-03  0.1401E-04  0.6203E+02
   -1.225009   12.72800  0.0000E+00  0.2236E-05  0.4743E-08  0.3274E-03  0.1123E-04  0.8547E+02
   -1.260008   12.72845  0.0000E+00  0.2208E-05  0.5244E-08  0.2911E-03  0.8818E-05  0.1403E+03
   -1.295007   12.72897  0.0000E+00  0.2142E-05  0.6499E-08  0.2206E-03  0.6909E-05  0.3836E+03
   -1.330005   12.72970  0.0000E+00  0.2021E-05  0.9171E-08  0.1653E-03  0.5477E-05  0.5095E+04
   -1.365003   12.73075  0.0000E+00  0.1405E-05  0.2804E-07  0.1247E-04  0.4380E-05 -0.5830E+06
   -1.400001   12.74630  0.0000E+00  0.0000E+00  0.0000E+00  0.0000E+00  0.4378E-05  0.0000E+00
