 1 - depth, m
 2 - temperature, C
 3 - salinity, kg/kg
 4 - turbulent kinetic energy, m**2/s**2
 5 - dissipation rate, m**2/s**3
 6 - kinematic heat conductance, m**2/s
 7 - modulus of horizontal velocity, m/s
 8 - Richardson number, n/d
   -0.000000    0.00000  0.0000E+00  0.7630E-05  0.4111E-06  0.1332E-04  0.1734E-01  0.6422E-02
   -0.034998    0.00964  0.0000E+00  0.5933E-05  0.1612E-06  0.2026E-04  0.1124E-01  0.1715E-01
   -0.069997    0.01592  0.0000E+00  0.4535E-05  0.8244E-07  0.2279E-04  0.8214E-02  0.3699E-01
   -0.104995    0.02150  0.0000E+00  0.3404E-05  0.4653E-07  0.2209E-04  0.6253E-02  0.7631E-01
   -0.139994    0.02737  0.0000E+00  0.2481E-05  0.2730E-07  0.1897E-04  0.4828E-02  0.1724E+00
   -0.174994    0.03504  0.0000E+00  0.1716E-05  0.1601E-07  0.1424E-04  0.3717E-02  0.7339E+00
   -0.209993    0.06725  0.0000E+00  0.1120E-05  0.9197E-08  0.9468E-05  0.2734E-02  0.6907E+01
   -0.244993    0.16953  0.0000E+00  0.6817E-06  0.5101E-08  0.5184E-05  0.1891E-02  0.6863E+02
   -0.279993    0.32923  0.0000E+00  0.3573E-06  0.2587E-08  0.1752E-05  0.1197E-02  0.6413E+03
   -0.314993    0.54671  0.0000E+00  0.7741E-07  0.5459E-09  0.5552E-07  0.5003E-03  0.2014E+05
   -0.349994    0.89740  0.0000E+00  0.6902E-08  0.4950E-10  0.4207E-08  0.9108E-04  0.7585E+06
   -0.384995    1.25836  0.0000E+00  0.5365E-09  0.3914E-11  0.5505E-09  0.1344E-04  0.3277E+08
   -0.419995    1.53685  0.0000E+00  0.5202E-10  0.3141E-12  0.1202E-09  0.2215E-05  0.1198E+10
   -0.454996    1.77274  0.0000E+00  0.4660E-10  0.6264E-13  0.1000E-09  0.3484E-06  0.4642E+11
   -0.489997    2.00347  0.0000E+00  0.1455E-09  0.6022E-13  0.1000E-09  0.3887E-07  0.3234E+13
   -0.524999    2.23549  0.0000E+00  0.3758E-09  0.1049E-12  0.1000E-09  0.2061E-08  0.8212E+15
   -0.560000    2.44148  0.0000E+00  0.8840E-09  0.2175E-12  0.1531E-09  0.8802E-10  0.1770E+16
   -0.595001    2.60156  0.0000E+00  0.2079E-08  0.4861E-12  0.5245E-09  0.4031E-11  0.2346E+16
   -0.630003    2.71559  0.0000E+00  0.4262E-08  0.9723E-12  0.8699E-09  0.6955E-12  0.2871E+16
   -0.665004    2.87112  0.0000E+00  0.8260E-08  0.1848E-11  0.1512E-08  0.1157E-12  0.3283E+16
   -0.700005    3.08154  0.0000E+00  0.1569E-07  0.3448E-11  0.3159E-08  0.1765E-13  0.3262E+16
   -0.735007    3.35847  0.0000E+00  0.2938E-07  0.6349E-11  0.1575E-07  0.2443E-14  0.2439E+16
   -0.770008    3.69420  0.0000E+00  0.4423E-07  0.9598E-11  0.2218E-04  0.1956E-15  0.1057E+16
   -0.805010    3.95944  0.0000E+00  0.5191E-07  0.1145E-10  0.6200E-04  0.6797E-16  0.1222E+15
   -0.840011    4.03649  0.0000E+00  0.5304E-07  0.1175E-10  0.8236E-04  0.4990E-16 -0.6999E+12
   -0.875012    4.03738  0.0000E+00  0.5389E-07  0.1202E-10  0.8213E-04  0.3656E-16 -0.7392E+12
   -0.910013    4.03830  0.0000E+00  0.5473E-07  0.1233E-10  0.8235E-04  0.2690E-16 -0.7734E+12
   -0.945014    4.03925  0.0000E+00  0.5551E-07  0.1268E-10  0.8228E-04  0.1959E-16 -0.8154E+12
   -0.980015    4.04023  0.0000E+00  0.5624E-07  0.1306E-10  0.8182E-04  0.1401E-16 -0.8685E+12
   -1.015016    4.04125  0.0000E+00  0.5691E-07  0.1350E-10  0.8097E-04  0.9700E-17 -0.9493E+12
   -1.050017    4.04235  0.0000E+00  0.5751E-07  0.1400E-10  0.7973E-04  0.6603E-17 -0.1044E+13
   -1.085017    4.04353  0.0000E+00  0.5802E-07  0.1459E-10  0.7803E-04  0.4436E-17 -0.1087E+13
   -1.120018    4.04474  0.0000E+00  0.5843E-07  0.1528E-10  0.7589E-04  0.2986E-17 -0.1141E+13
   -1.155018    4.04598  0.0000E+00  0.5870E-07  0.1609E-10  0.7317E-04  0.1935E-17 -0.1208E+13
   -1.190017    4.04726  0.0000E+00  0.5883E-07  0.1710E-10  0.6967E-04  0.1177E-17 -0.1300E+13
   -1.225017    4.04861  0.0000E+00  0.5878E-07  0.1850E-10  0.6496E-04  0.6415E-18 -0.1436E+13
   -1.260016    4.05007  0.0000E+00  0.5845E-07  0.2084E-10  0.5761E-04  0.3165E-18 -0.1700E+13
   -1.295015    4.05175  0.0000E+00  0.5739E-07  0.2638E-10  0.4637E-04  0.1458E-18 -0.2265E+13
   -1.330014    4.05394  0.0000E+00  0.5445E-07  0.4101E-10  0.1924E-04  0.7817E-19 -0.5940E+13
   -1.365013    4.05938  0.0000E+00  0.3955E-07  0.1327E-09  0.2085E-05  0.2365E-19 -0.7687E+14
   -1.400011    4.10950  0.0000E+00  0.0000E+00  0.0000E+00  0.0000E+00  0.2348E-19  0.0000E+00
