 1 - depth, m
 2 - temperature, C
 3 - salinity, kg/kg
 4 - turbulent kinetic energy, m**2/s**2
 5 - dissipation rate, m**2/s**3
 6 - kinematic heat conductance, m**2/s
 7 - modulus of horizontal velocity, m/s
 8 - Richardson number, n/d
   -0.000000    0.00000  0.0000E+00  0.4702E-13  0.1132E-15  0.1000E-09  0.0000E+00  0.9896E+16
   -0.034998    0.15152  0.0000E+00  0.4702E-13  0.1132E-15  0.1000E-09  0.0000E+00  0.9626E+16
   -0.069996    0.30530  0.0000E+00  0.4702E-13  0.1132E-15  0.1000E-09  0.0000E+00  0.9346E+16
   -0.104994    0.46143  0.0000E+00  0.4702E-13  0.1132E-15  0.1000E-09  0.0000E+00  0.8905E+16
   -0.139993    0.61733  0.0000E+00  0.4702E-13  0.1132E-15  0.1000E-09  0.0000E+00  0.8387E+16
   -0.174992    0.77149  0.0000E+00  0.4702E-13  0.1132E-15  0.1000E-09  0.0000E+00  0.7882E+16
   -0.209991    0.92382  0.0000E+00  0.4702E-13  0.1132E-15  0.1000E-09  0.0000E+00  0.7390E+16
   -0.244990    1.07429  0.0000E+00  0.4702E-13  0.1132E-15  0.1000E-09  0.0000E+00  0.6913E+16
   -0.279990    1.22281  0.0000E+00  0.4702E-13  0.1132E-15  0.1000E-09  0.0000E+00  0.6448E+16
   -0.314990    1.36931  0.0000E+00  0.4702E-13  0.1132E-15  0.1000E-09  0.0000E+00  0.5942E+16
   -0.349990    1.51233  0.0000E+00  0.4702E-13  0.1132E-15  0.1000E-09  0.0000E+00  0.5445E+16
   -0.384990    1.65139  0.0000E+00  0.4702E-13  0.1132E-15  0.1000E-09  0.0000E+00  0.4963E+16
   -0.419991    1.78609  0.0000E+00  0.4702E-13  0.1132E-15  0.1000E-09  0.0000E+00  0.4561E+16
   -0.454991    1.91790  0.0000E+00  0.4702E-13  0.1132E-15  0.1000E-09  0.0000E+00  0.4211E+16
   -0.489992    2.04783  0.0000E+00  0.4702E-13  0.1132E-15  0.1000E-09  0.0000E+00  0.3854E+16
   -0.524993    2.17517  0.0000E+00  0.4702E-13  0.1132E-15  0.1000E-09  0.0000E+00  0.3421E+16
   -0.559994    2.29648  0.0000E+00  0.4702E-13  0.1132E-15  0.1000E-09  0.0000E+00  0.2923E+16
   -0.594994    2.40772  0.0000E+00  0.4702E-13  0.1132E-15  0.1000E-09  0.0000E+00  0.2426E+16
   -0.629995    2.50655  0.0000E+00  0.4702E-13  0.1132E-15  0.1000E-09  0.0000E+00  0.2195E+16
   -0.664996    2.60222  0.0000E+00  0.4702E-13  0.1132E-15  0.1000E-09  0.0000E+00  0.1976E+16
   -0.699998    2.69450  0.0000E+00  0.4702E-13  0.1132E-15  0.1000E-09  0.0000E+00  0.1762E+16
   -0.734999    2.78289  0.0000E+00  0.4702E-13  0.1132E-15  0.1000E-09  0.0000E+00  0.1575E+16
   -0.770000    2.86790  0.0000E+00  0.4702E-13  0.1132E-15  0.1000E-09  0.0000E+00  0.1439E+16
   -0.805001    2.95177  0.0000E+00  0.4702E-13  0.1132E-15  0.1000E-09  0.0000E+00  0.1307E+16
   -0.840002    3.03449  0.0000E+00  0.4702E-13  0.1132E-15  0.1000E-09  0.0000E+00  0.1180E+16
   -0.875002    3.11600  0.0000E+00  0.4702E-13  0.1132E-15  0.1000E-09  0.0000E+00  0.1057E+16
   -0.910003    3.19620  0.0000E+00  0.4702E-13  0.1132E-15  0.1000E-09  0.0000E+00  0.9398E+15
   -0.945004    3.27517  0.0000E+00  0.4702E-13  0.1132E-15  0.1000E-09  0.0000E+00  0.8272E+15
   -0.980004    3.35288  0.0000E+00  0.4702E-13  0.1132E-15  0.1000E-09  0.0000E+00  0.7182E+15
   -1.015005    3.42918  0.0000E+00  0.1402E-12  0.1344E-15  0.1000E-09  0.0000E+00  0.6092E+15
   -1.050005    3.50336  0.0000E+00  0.4772E-12  0.3736E-15  0.1000E-09  0.0000E+00  0.5080E+15
   -1.085005    3.57540  0.0000E+00  0.1514E-11  0.1131E-14  0.1000E-09  0.0000E+00  0.4294E+15
   -1.120005    3.64816  0.0000E+00  0.4637E-11  0.3372E-14  0.1000E-09  0.0000E+00  0.3488E+15
   -1.155005    3.72169  0.0000E+00  0.1401E-10  0.9956E-14  0.1000E-09  0.0000E+00  0.2664E+15
   -1.190004    3.79623  0.0000E+00  0.4221E-10  0.2937E-13  0.3956E-09  0.0000E+00  0.1812E+15
   -1.225003    3.87209  0.0000E+00  0.1328E-09  0.9090E-13  0.2296E-08  0.0000E+00  0.9195E+14
   -1.260002    3.94996  0.0000E+00  0.4361E-09  0.2978E-12  0.5184E-07  0.0000E+00  0.4895E+13
   -1.295001    4.01281  0.0000E+00  0.1385E-08  0.1098E-11  0.6838E-06  0.0000E+00 -0.9303E+13
   -1.329999    4.02979  0.0000E+00  0.1993E-08  0.2137E-11  0.6509E-06  0.0000E+00 -0.1615E+14
   -1.364997    4.04919  0.0000E+00  0.2107E-08  0.4372E-11  0.2949E-06  0.0000E+00 -0.5406E+14
   -1.399995    4.09054  0.0000E+00  0.0000E+00  0.0000E+00  0.0000E+00  0.0000E+00  0.0000E+00
