 1 - depth, m
 2 - temperature, C
 3 - salinity, kg/kg
 4 - turbulent kinetic energy, m**2/s**2
 5 - dissipation rate, m**2/s**3
 6 - kinematic heat conductance, m**2/s
 7 - modulus of horizontal velocity, m/s
 8 - Richardson number, n/d
   -0.000000   11.11044  0.0000E+00  0.1902E-03  0.2411E-03  0.4802E-04  0.1233E+00 -0.4114E-02
   -0.034998   11.15394  0.0000E+00  0.1054E-03  0.7023E-04  0.8980E-04  0.4089E-01 -0.3211E-01
   -0.069996   11.16433  0.0000E+00  0.7438E-04  0.2576E-04  0.1087E-03  0.2716E-01 -0.1273E-01
   -0.104994   11.17081  0.0000E+00  0.5905E-04  0.1418E-04  0.1173E-03  0.2151E-01 -0.2604E-01
   -0.139993   11.17511  0.0000E+00  0.4931E-04  0.8637E-05  0.1264E-03  0.1792E-01 -0.5538E-01
   -0.174992   11.17848  0.0000E+00  0.4207E-04  0.5344E-05  0.1357E-03  0.1515E-01 -0.3889E-01
   -0.209991   11.18137  0.0000E+00  0.3657E-04  0.3404E-05  0.1450E-03  0.1288E-01 -0.4394E-01
   -0.244991   11.18394  0.0000E+00  0.3226E-04  0.2192E-05  0.1529E-03  0.1095E-01 -0.5036E-01
   -0.279991   11.18631  0.0000E+00  0.2872E-04  0.1434E-05  0.1587E-03  0.9224E-02 -0.5802E-01
   -0.314991   11.18863  0.0000E+00  0.2557E-04  0.9586E-06  0.1708E-03  0.7566E-02 -0.6034E-01
   -0.349991   11.19070  0.0000E+00  0.2291E-04  0.6608E-06  0.1978E-03  0.6293E-02  0.1615E+03
   -0.384991   11.19250  0.0000E+00  0.2068E-04  0.4727E-06  0.2320E-03  0.5270E-02  0.3763E+02
   -0.419992   11.19409  0.0000E+00  0.1883E-04  0.3524E-06  0.2526E-03  0.4428E-02  0.2186E+03
   -0.454992   11.19559  0.0000E+00  0.1726E-04  0.2739E-06  0.2725E-03  0.3664E-02  0.4762E+02
   -0.489993   11.19702  0.0000E+00  0.1589E-04  0.2215E-06  0.2861E-03  0.2962E-02  0.4312E+02
   -0.524994   11.19841  0.0000E+00  0.1461E-04  0.1829E-06  0.3105E-03  0.2344E-02  0.1779E+02
   -0.559995   11.19959  0.0000E+00  0.1337E-04  0.1518E-06  0.3374E-03  0.1893E-02 -0.3171E+02
   -0.594996   11.20054  0.0000E+00  0.1206E-04  0.1231E-06  0.3635E-03  0.1597E-02  0.5159E+03
   -0.629997   11.20116  0.0000E+00  0.1095E-04  0.1006E-06  0.3822E-03  0.1425E-02  0.1252E+04
   -0.664998   11.20191  0.0000E+00  0.1002E-04  0.8328E-07  0.3972E-03  0.1266E-02  0.2357E+04
   -0.699999   11.20264  0.0000E+00  0.9229E-05  0.6980E-07  0.4149E-03  0.1118E-02  0.1875E+03
   -0.735000   11.20335  0.0000E+00  0.8553E-05  0.5909E-07  0.4325E-03  0.9836E-03  0.2876E+03
   -0.770001   11.20402  0.0000E+00  0.7969E-05  0.5049E-07  0.4509E-03  0.8636E-03  0.1908E+03
   -0.805002   11.20466  0.0000E+00  0.7459E-05  0.4352E-07  0.4661E-03  0.7573E-03 -0.3058E+02
   -0.840003   11.20527  0.0000E+00  0.7014E-05  0.3786E-07  0.4789E-03  0.6626E-03  0.9168E+02
   -0.875004   11.20585  0.0000E+00  0.6623E-05  0.3324E-07  0.4861E-03  0.5784E-03  0.9514E+04
   -0.910005   11.20642  0.0000E+00  0.6277E-05  0.2946E-07  0.4901E-03  0.5042E-03  0.3880E+02
   -0.945006   11.20698  0.0000E+00  0.5974E-05  0.2642E-07  0.4898E-03  0.4372E-03  0.5685E+02
   -0.980006   11.20753  0.0000E+00  0.5707E-05  0.2401E-07  0.4863E-03  0.3763E-03  0.2885E+02
   -1.015007   11.20809  0.0000E+00  0.5470E-05  0.2214E-07  0.4802E-03  0.3209E-03  0.3220E+02
   -1.050007   11.20866  0.0000E+00  0.5256E-05  0.2073E-07  0.4710E-03  0.2726E-03  0.5880E+02
   -1.085007   11.20925  0.0000E+00  0.5061E-05  0.1976E-07  0.4581E-03  0.2313E-03  0.8772E+02
   -1.120007   11.20985  0.0000E+00  0.4883E-05  0.1926E-07  0.4403E-03  0.1965E-03  0.7506E+02
   -1.155007   11.21048  0.0000E+00  0.4716E-05  0.1937E-07  0.4198E-03  0.1656E-03  0.1621E+03
   -1.190007   11.21117  0.0000E+00  0.4549E-05  0.2041E-07  0.3877E-03  0.1374E-03  0.1797E+03
   -1.225006   11.21198  0.0000E+00  0.4361E-05  0.2297E-07  0.3587E-03  0.1097E-03  0.3557E+03
   -1.260005   11.21288  0.0000E+00  0.4103E-05  0.2999E-07  0.2924E-03  0.8547E-04  0.9656E+03
   -1.295004   11.21433  0.0000E+00  0.3695E-05  0.4608E-07  0.2651E-03  0.6217E-04 -0.8375E+04
   -1.330002   11.21511  0.0000E+00  0.3094E-05  0.9207E-07  0.1313E-03  0.5260E-04  0.1377E+06
   -1.365000   11.22135  0.0000E+00  0.2004E-05  0.2174E-06  0.4708E-04  0.3513E-04 -0.1433E+08
   -1.399998   11.22955  0.0000E+00  0.0000E+00  0.0000E+00  0.0000E+00  0.5144E-04  0.0000E+00
