 1 - depth, m
 2 - temperature, C
 3 - salinity, kg/kg
 4 - turbulent kinetic energy, m**2/s**2
 5 - dissipation rate, m**2/s**3
 6 - kinematic heat conductance, m**2/s
 7 - modulus of horizontal velocity, m/s
 8 - Richardson number, n/d
   -0.000000    0.00000  0.0000E+00  0.4702E-13  0.1132E-15  0.1000E-09  0.0000E+00  0.9934E+16
   -0.034998    0.15212  0.0000E+00  0.4702E-13  0.1132E-15  0.1000E-09  0.0000E+00  0.9673E+16
   -0.069996    0.30669  0.0000E+00  0.4702E-13  0.1132E-15  0.1000E-09  0.0000E+00  0.9395E+16
   -0.104994    0.46373  0.0000E+00  0.4702E-13  0.1132E-15  0.1000E-09  0.0000E+00  0.8948E+16
   -0.139993    0.62052  0.0000E+00  0.4702E-13  0.1132E-15  0.1000E-09  0.0000E+00  0.8420E+16
   -0.174992    0.77548  0.0000E+00  0.4702E-13  0.1132E-15  0.1000E-09  0.0000E+00  0.7905E+16
   -0.209991    0.92849  0.0000E+00  0.4702E-13  0.1132E-15  0.1000E-09  0.0000E+00  0.7404E+16
   -0.244991    1.07951  0.0000E+00  0.4702E-13  0.1132E-15  0.1000E-09  0.0000E+00  0.6918E+16
   -0.279990    1.22845  0.0000E+00  0.4702E-13  0.1132E-15  0.1000E-09  0.0000E+00  0.6447E+16
   -0.314990    1.37526  0.0000E+00  0.4702E-13  0.1132E-15  0.1000E-09  0.0000E+00  0.5933E+16
   -0.349990    1.51841  0.0000E+00  0.4702E-13  0.1132E-15  0.1000E-09  0.0000E+00  0.5428E+16
   -0.384991    1.65742  0.0000E+00  0.4702E-13  0.1132E-15  0.1000E-09  0.0000E+00  0.4940E+16
   -0.419991    1.79188  0.0000E+00  0.4702E-13  0.1132E-15  0.1000E-09  0.0000E+00  0.4538E+16
   -0.454992    1.92338  0.0000E+00  0.4702E-13  0.1132E-15  0.1000E-09  0.0000E+00  0.4190E+16
   -0.489992    2.05302  0.0000E+00  0.4702E-13  0.1132E-15  0.1000E-09  0.0000E+00  0.3834E+16
   -0.524993    2.18006  0.0000E+00  0.4702E-13  0.1132E-15  0.1000E-09  0.0000E+00  0.3397E+16
   -0.559994    2.30085  0.0000E+00  0.4702E-13  0.1132E-15  0.1000E-09  0.0000E+00  0.2892E+16
   -0.594995    2.41119  0.0000E+00  0.4702E-13  0.1132E-15  0.1000E-09  0.0000E+00  0.2387E+16
   -0.629996    2.50861  0.0000E+00  0.4702E-13  0.1132E-15  0.1000E-09  0.0000E+00  0.2162E+16
   -0.664997    2.60290  0.0000E+00  0.4702E-13  0.1132E-15  0.1000E-09  0.0000E+00  0.1947E+16
   -0.699998    2.69382  0.0000E+00  0.4702E-13  0.1132E-15  0.1000E-09  0.0000E+00  0.1737E+16
   -0.734999    2.78083  0.0000E+00  0.4702E-13  0.1132E-15  0.1000E-09  0.0000E+00  0.1553E+16
   -0.770000    2.86445  0.0000E+00  0.4702E-13  0.1132E-15  0.1000E-09  0.0000E+00  0.1421E+16
   -0.805001    2.94695  0.0000E+00  0.4702E-13  0.1132E-15  0.1000E-09  0.0000E+00  0.1293E+16
   -0.840002    3.02833  0.0000E+00  0.4702E-13  0.1132E-15  0.1000E-09  0.0000E+00  0.1170E+16
   -0.875003    3.10854  0.0000E+00  0.4702E-13  0.1132E-15  0.1000E-09  0.0000E+00  0.1050E+16
   -0.910004    3.18745  0.0000E+00  0.4702E-13  0.1132E-15  0.1000E-09  0.0000E+00  0.9368E+15
   -0.945005    3.26519  0.0000E+00  0.4702E-13  0.1132E-15  0.1000E-09  0.0000E+00  0.8276E+15
   -0.980005    3.34173  0.0000E+00  0.4702E-13  0.1132E-15  0.1000E-09  0.0000E+00  0.7218E+15
   -1.015006    3.41692  0.0000E+00  0.5967E-13  0.1132E-15  0.1000E-09  0.0000E+00  0.6153E+15
   -1.050006    3.49001  0.0000E+00  0.2617E-12  0.2404E-15  0.1000E-09  0.0000E+00  0.5162E+15
   -1.085006    3.56100  0.0000E+00  0.9102E-12  0.7542E-15  0.1000E-09  0.0000E+00  0.4405E+15
   -1.120006    3.63276  0.0000E+00  0.2942E-11  0.2361E-14  0.1000E-09  0.0000E+00  0.3628E+15
   -1.155006    3.70540  0.0000E+00  0.9322E-11  0.7310E-14  0.1000E-09  0.0000E+00  0.2830E+15
   -1.190005    3.77914  0.0000E+00  0.2941E-10  0.2261E-13  0.2739E-09  0.0000E+00  0.2004E+15
   -1.225005    3.85438  0.0000E+00  0.9702E-10  0.7347E-13  0.1505E-08  0.0000E+00  0.1135E+15
   -1.260004    3.93211  0.0000E+00  0.3364E-09  0.2539E-12  0.2049E-07  0.0000E+00  0.1981E+14
   -1.295002    4.00666  0.0000E+00  0.1206E-08  0.9859E-12  0.5497E-06  0.0000E+00 -0.9672E+13
   -1.330001    4.02694  0.0000E+00  0.1847E-08  0.2025E-11  0.5900E-06  0.0000E+00 -0.1688E+14
   -1.364999    4.04801  0.0000E+00  0.2028E-08  0.4218E-11  0.2870E-06  0.0000E+00 -0.5492E+14
   -1.399997    4.09037  0.0000E+00  0.0000E+00  0.0000E+00  0.0000E+00  0.0000E+00  0.0000E+00
