 1 - depth, m
 2 - temperature, C
 3 - salinity, kg/kg
 4 - turbulent kinetic energy, m**2/s**2
 5 - dissipation rate, m**2/s**3
 6 - kinematic heat conductance, m**2/s
 7 - modulus of horizontal velocity, m/s
 8 - Richardson number, n/d
   -0.000000    9.01527  0.0000E+00  0.1600E-03  0.1490E-03  0.4799E-04  0.1145E+00 -0.1119E-01
   -0.034998    9.08828  0.0000E+00  0.8815E-04  0.4217E-04  0.9011E-04  0.3792E-01 -0.1577E+00
   -0.069996    9.10344  0.0000E+00  0.6256E-04  0.1782E-04  0.1017E-03  0.2521E-01 -0.8131E-02
   -0.104994    9.11336  0.0000E+00  0.4905E-04  0.9191E-05  0.1047E-03  0.1995E-01 -0.3374E-01
   -0.139993    9.12037  0.0000E+00  0.4018E-04  0.5292E-05  0.1117E-03  0.1655E-01 -0.4981E-01
   -0.174992    9.12598  0.0000E+00  0.3383E-04  0.3184E-05  0.1196E-03  0.1390E-01 -0.4375E-01
   -0.209991    9.13084  0.0000E+00  0.2908E-04  0.1960E-05  0.1276E-03  0.1168E-01 -0.5263E-01
   -0.244991    9.13518  0.0000E+00  0.2543E-04  0.1237E-05  0.1349E-03  0.9779E-02 -0.5847E-01
   -0.279991    9.13913  0.0000E+00  0.2245E-04  0.8017E-06  0.1440E-03  0.8100E-02  0.2384E+00
   -0.314991    9.14286  0.0000E+00  0.1979E-04  0.5336E-06  0.1683E-03  0.6534E-02  0.1023E+02
   -0.349991    9.14610  0.0000E+00  0.1755E-04  0.3690E-06  0.1872E-03  0.5344E-02  0.1164E+03
   -0.384991    9.14900  0.0000E+00  0.1570E-04  0.2664E-06  0.2057E-03  0.4392E-02  0.2367E+02
   -0.419992    9.15162  0.0000E+00  0.1419E-04  0.2011E-06  0.2197E-03  0.3613E-02  0.4551E+03
   -0.454992    9.15404  0.0000E+00  0.1294E-04  0.1579E-06  0.2379E-03  0.2925E-02  0.8824E+02
   -0.489993    9.15627  0.0000E+00  0.1188E-04  0.1286E-06  0.2603E-03  0.2308E-02  0.9039E+02
   -0.524994    9.15830  0.0000E+00  0.1091E-04  0.1064E-06  0.2978E-03  0.1774E-02  0.1425E+03
   -0.559995    9.16003  0.0000E+00  0.9986E-05  0.8846E-07  0.3376E-03  0.1388E-02  0.2532E+02
   -0.594996    9.16149  0.0000E+00  0.9039E-05  0.7183E-07  0.3740E-03  0.1138E-02  0.4449E+03
   -0.629997    9.16270  0.0000E+00  0.8256E-05  0.5903E-07  0.3985E-03  0.9967E-03  0.2846E+03
   -0.664998    9.16384  0.0000E+00  0.7612E-05  0.4924E-07  0.4158E-03  0.8735E-03  0.2349E+03
   -0.699999    9.16491  0.0000E+00  0.7071E-05  0.4162E-07  0.4318E-03  0.7607E-03  0.1775E+03
   -0.735000    9.16591  0.0000E+00  0.6612E-05  0.3559E-07  0.4432E-03  0.6601E-03  0.1895E+03
   -0.770002    9.16685  0.0000E+00  0.6221E-05  0.3080E-07  0.4529E-03  0.5717E-03  0.4412E+04
   -0.805003    9.16776  0.0000E+00  0.5886E-05  0.2696E-07  0.4590E-03  0.4948E-03  0.2412E+02
   -0.840004    9.16863  0.0000E+00  0.5598E-05  0.2388E-07  0.4633E-03  0.4276E-03  0.2336E+02
   -0.875005    9.16948  0.0000E+00  0.5349E-05  0.2139E-07  0.4666E-03  0.3692E-03  0.2709E+02
   -0.910006    9.17032  0.0000E+00  0.5132E-05  0.1939E-07  0.4684E-03  0.3190E-03  0.3325E+02
   -0.945006    9.17114  0.0000E+00  0.4944E-05  0.1780E-07  0.4682E-03  0.2747E-03  0.4129E+02
   -0.980007    9.17195  0.0000E+00  0.4780E-05  0.1655E-07  0.4660E-03  0.2354E-03  0.5232E+02
   -1.015007    9.17276  0.0000E+00  0.4635E-05  0.1561E-07  0.4610E-03  0.2004E-03  0.6731E+02
   -1.050008    9.17357  0.0000E+00  0.4505E-05  0.1491E-07  0.4532E-03  0.1705E-03  0.9284E+02
   -1.085008    9.17438  0.0000E+00  0.4386E-05  0.1445E-07  0.4425E-03  0.1451E-03  0.1319E+03
   -1.120008    9.17520  0.0000E+00  0.4275E-05  0.1423E-07  0.4281E-03  0.1238E-03  0.1953E+03
   -1.155008    9.17605  0.0000E+00  0.4170E-05  0.1430E-07  0.4118E-03  0.1049E-03  0.2770E+03
   -1.190007    9.17693  0.0000E+00  0.4064E-05  0.1480E-07  0.3835E-03  0.8783E-04  0.3948E+03
   -1.225007    9.17789  0.0000E+00  0.3944E-05  0.1600E-07  0.3597E-03  0.7140E-04  0.5739E+03
   -1.260006    9.17894  0.0000E+00  0.3776E-05  0.1900E-07  0.2990E-03  0.5715E-04 -0.1519E+04
   -1.295004    9.18053  0.0000E+00  0.3466E-05  0.2700E-07  0.2660E-03  0.4308E-04  0.4752E+04
   -1.330003    9.18170  0.0000E+00  0.2963E-05  0.5020E-07  0.1376E-03  0.3594E-04  0.5471E+05
   -1.365001    9.18840  0.0000E+00  0.1901E-05  0.1308E-06  0.3910E-04  0.2461E-04 -0.6801E+08
   -1.399999    9.20038  0.0000E+00  0.0000E+00  0.0000E+00  0.0000E+00  0.3134E-04  0.0000E+00
