 1 - depth, m
 2 - temperature, C
 3 - salinity, kg/kg
 4 - turbulent kinetic energy, m**2/s**2
 5 - dissipation rate, m**2/s**3
 6 - kinematic heat conductance, m**2/s
 7 - modulus of horizontal velocity, m/s
 8 - Richardson number, n/d
   -0.000000    0.00000  0.0000E+00  0.4702E-13  0.1132E-15  0.1000E-09  0.0000E+00  0.1511E+17
   -0.034998    0.23399  0.0000E+00  0.4702E-13  0.1132E-15  0.1000E-09  0.0000E+00  0.1407E+17
   -0.069995    0.46683  0.0000E+00  0.4702E-13  0.1132E-15  0.1000E-09  0.0000E+00  0.1302E+17
   -0.104994    0.69777  0.0000E+00  0.4702E-13  0.1132E-15  0.1000E-09  0.0000E+00  0.1186E+17
   -0.139992    0.92414  0.0000E+00  0.4702E-13  0.1132E-15  0.1000E-09  0.0000E+00  0.1068E+17
   -0.174991    1.14423  0.0000E+00  0.7634E-13  0.1132E-15  0.1000E-09  0.0000E+00  0.9555E+16
   -0.209990    1.35757  0.0000E+00  0.2544E-12  0.1132E-15  0.1000E-09  0.0000E+00  0.8496E+16
   -0.244989    1.56373  0.0000E+00  0.6091E-12  0.1194E-15  0.1000E-09  0.0000E+00  0.7506E+16
   -0.279988    1.76241  0.0000E+00  0.1161E-11  0.1503E-15  0.1000E-09  0.0000E+00  0.6588E+16
   -0.314988    1.95336  0.0000E+00  0.1972E-11  0.2105E-15  0.1000E-09  0.0000E+00  0.5771E+16
   -0.349988    2.13734  0.0000E+00  0.3168E-11  0.3089E-15  0.1000E-09  0.0000E+00  0.5014E+16
   -0.384988    2.31410  0.0000E+00  0.4937E-11  0.4594E-15  0.1000E-09  0.0000E+00  0.4315E+16
   -0.419988    2.48326  0.0000E+00  0.7545E-11  0.6831E-15  0.1000E-09  0.0000E+00  0.3685E+16
   -0.454989    2.64494  0.0000E+00  0.1140E-10  0.1013E-14  0.1000E-09  0.0000E+00  0.3124E+16
   -0.489989    2.79958  0.0000E+00  0.1710E-10  0.1497E-14  0.1000E-09  0.0000E+00  0.2623E+16
   -0.524990    2.94739  0.0000E+00  0.2651E-10  0.2289E-14  0.1000E-09  0.0000E+00  0.2193E+16
   -0.559990    3.08983  0.0000E+00  0.4298E-10  0.3662E-14  0.1000E-09  0.0000E+00  0.1790E+16
   -0.594991    3.22602  0.0000E+00  0.7394E-10  0.6218E-14  0.1000E-09  0.0000E+00  0.1412E+16
   -0.629992    3.35414  0.0000E+00  0.1184E-09  0.9855E-14  0.1000E-09  0.0000E+00  0.1075E+16
   -0.664993    3.47290  0.0000E+00  0.1811E-09  0.1492E-13  0.1000E-09  0.0000E+00  0.7867E+15
   -0.699993    3.58153  0.0000E+00  0.2712E-09  0.2212E-13  0.1199E-09  0.0000E+00  0.5476E+15
   -0.734994    3.67917  0.0000E+00  0.4033E-09  0.3255E-13  0.2399E-09  0.0000E+00  0.3617E+15
   -0.769995    3.76636  0.0000E+00  0.5978E-09  0.4774E-13  0.5744E-09  0.0000E+00  0.2251E+15
   -0.804996    3.84576  0.0000E+00  0.8844E-09  0.6990E-13  0.1665E-08  0.0000E+00  0.1175E+15
   -0.839997    3.91704  0.0000E+00  0.1301E-08  0.1018E-12  0.9570E-08  0.0000E+00  0.3700E+14
   -0.874997    3.97773  0.0000E+00  0.1613E-08  0.1268E-12  0.5057E-05  0.0000E+00  0.2689E+13
   -0.909998    3.99245  0.0000E+00  0.1791E-08  0.1425E-12  0.8701E-05  0.0000E+00 -0.9234E+11
   -0.944998    3.99341  0.0000E+00  0.1918E-08  0.1555E-12  0.9339E-05  0.0000E+00 -0.9726E+11
   -0.979999    3.99426  0.0000E+00  0.2031E-08  0.1690E-12  0.9668E-05  0.0000E+00 -0.1028E+12
   -1.014999    3.99507  0.0000E+00  0.2133E-08  0.1836E-12  0.9664E-05  0.0000E+00 -0.1095E+12
   -1.049999    3.99585  0.0000E+00  0.2227E-08  0.2003E-12  0.9409E-05  0.0000E+00 -0.1184E+12
   -1.084999    3.99662  0.0000E+00  0.2315E-08  0.2202E-12  0.9216E-05  0.0000E+00 -0.1325E+12
   -1.119998    3.99742  0.0000E+00  0.2394E-08  0.2442E-12  0.8794E-05  0.0000E+00 -0.1517E+12
   -1.154998    3.99826  0.0000E+00  0.2462E-08  0.2735E-12  0.8170E-05  0.0000E+00 -0.1789E+12
   -1.189997    3.99919  0.0000E+00  0.2515E-08  0.3113E-12  0.7353E-05  0.0000E+00 -0.2202E+12
   -1.224996    4.00024  0.0000E+00  0.2554E-08  0.3674E-12  0.6304E-05  0.0000E+00 -0.2953E+12
   -1.259995    4.00154  0.0000E+00  0.2571E-08  0.4683E-12  0.4916E-05  0.0000E+00 -0.4699E+12
   -1.294993    4.00340  0.0000E+00  0.2523E-08  0.7364E-12  0.2830E-05  0.0000E+00 -0.1167E+13
   -1.329992    4.00731  0.0000E+00  0.2310E-08  0.1358E-11  0.1113E-05  0.0000E+00 -0.4302E+13
   -1.364989    4.01776  0.0000E+00  0.1873E-08  0.3147E-11  0.2724E-06  0.0000E+00 -0.3088E+14
   -1.399987    4.05656  0.0000E+00  0.0000E+00  0.0000E+00  0.0000E+00  0.0000E+00  0.0000E+00
