 1 - depth, m
 2 - temperature, C
 3 - salinity, kg/kg
 4 - turbulent kinetic energy, m**2/s**2
 5 - dissipation rate, m**2/s**3
 6 - kinematic heat conductance, m**2/s
 7 - modulus of horizontal velocity, m/s
 8 - Richardson number, n/d
   -0.000000    0.00000  0.0000E+00  0.4702E-13  0.1132E-15  0.1000E-09  0.0000E+00  0.8133E+16
   -0.034998    0.12407  0.0000E+00  0.4702E-13  0.1132E-15  0.1000E-09  0.0000E+00  0.8048E+16
   -0.069996    0.25117  0.0000E+00  0.4702E-13  0.1132E-15  0.1000E-09  0.0000E+00  0.7950E+16
   -0.104995    0.38140  0.0000E+00  0.4702E-13  0.1132E-15  0.1000E-09  0.0000E+00  0.7713E+16
   -0.139993    0.51272  0.0000E+00  0.4702E-13  0.1132E-15  0.1000E-09  0.0000E+00  0.7402E+16
   -0.174993    0.64388  0.0000E+00  0.4702E-13  0.1132E-15  0.1000E-09  0.0000E+00  0.7091E+16
   -0.209992    0.77484  0.0000E+00  0.4702E-13  0.1132E-15  0.1000E-09  0.0000E+00  0.6780E+16
   -0.244992    0.90555  0.0000E+00  0.4702E-13  0.1132E-15  0.1000E-09  0.0000E+00  0.6468E+16
   -0.279991    1.03595  0.0000E+00  0.4702E-13  0.1132E-15  0.1000E-09  0.0000E+00  0.6157E+16
   -0.314992    1.16595  0.0000E+00  0.4702E-13  0.1132E-15  0.1000E-09  0.0000E+00  0.5814E+16
   -0.349992    1.29474  0.0000E+00  0.4702E-13  0.1132E-15  0.1000E-09  0.0000E+00  0.5467E+16
   -0.384992    1.42204  0.0000E+00  0.4702E-13  0.1132E-15  0.1000E-09  0.0000E+00  0.5122E+16
   -0.419993    1.54758  0.0000E+00  0.4702E-13  0.1132E-15  0.1000E-09  0.0000E+00  0.4812E+16
   -0.454994    1.67199  0.0000E+00  0.4702E-13  0.1132E-15  0.1000E-09  0.0000E+00  0.4523E+16
   -0.489994    1.79562  0.0000E+00  0.4702E-13  0.1132E-15  0.1000E-09  0.0000E+00  0.4223E+16
   -0.524995    1.91795  0.0000E+00  0.4702E-13  0.1132E-15  0.1000E-09  0.0000E+00  0.3863E+16
   -0.559996    2.03680  0.0000E+00  0.4702E-13  0.1132E-15  0.1000E-09  0.0000E+00  0.3449E+16
   -0.594997    2.14963  0.0000E+00  0.4702E-13  0.1132E-15  0.1000E-09  0.0000E+00  0.3028E+16
   -0.629999    2.25492  0.0000E+00  0.4702E-13  0.1132E-15  0.1000E-09  0.0000E+00  0.2791E+16
   -0.665000    2.35817  0.0000E+00  0.4702E-13  0.1132E-15  0.1000E-09  0.0000E+00  0.2560E+16
   -0.700001    2.45920  0.0000E+00  0.4702E-13  0.1132E-15  0.1000E-09  0.0000E+00  0.2333E+16
   -0.735002    2.55760  0.0000E+00  0.4702E-13  0.1132E-15  0.1000E-09  0.0000E+00  0.2123E+16
   -0.770003    2.65363  0.0000E+00  0.4702E-13  0.1132E-15  0.1000E-09  0.0000E+00  0.1952E+16
   -0.805005    2.74861  0.0000E+00  0.4702E-13  0.1132E-15  0.1000E-09  0.0000E+00  0.1784E+16
   -0.840006    2.84247  0.0000E+00  0.4702E-13  0.1132E-15  0.1000E-09  0.0000E+00  0.1621E+16
   -0.875007    2.93510  0.0000E+00  0.4702E-13  0.1132E-15  0.1000E-09  0.0000E+00  0.1460E+16
   -0.910008    3.02634  0.0000E+00  0.4702E-13  0.1132E-15  0.1000E-09  0.0000E+00  0.1307E+16
   -0.945009    3.11617  0.0000E+00  0.4702E-13  0.1132E-15  0.1000E-09  0.0000E+00  0.1158E+16
   -0.980009    3.20448  0.0000E+00  0.4702E-13  0.1132E-15  0.1000E-09  0.0000E+00  0.1013E+16
   -1.015010    3.29105  0.0000E+00  0.4702E-13  0.1132E-15  0.1000E-09  0.0000E+00  0.8697E+15
   -1.050010    3.37517  0.0000E+00  0.4702E-13  0.1132E-15  0.1000E-09  0.0000E+00  0.7355E+15
   -1.085011    3.45675  0.0000E+00  0.1306E-12  0.1492E-15  0.1000E-09  0.0000E+00  0.6296E+15
   -1.120011    3.53834  0.0000E+00  0.4804E-12  0.4724E-15  0.1000E-09  0.0000E+00  0.5234E+15
   -1.155010    3.61986  0.0000E+00  0.1689E-11  0.1604E-14  0.1000E-09  0.0000E+00  0.4180E+15
   -1.190010    3.70137  0.0000E+00  0.5868E-11  0.5451E-14  0.1000E-09  0.0000E+00  0.3135E+15
   -1.225009    3.78304  0.0000E+00  0.2132E-10  0.1947E-13  0.2203E-09  0.0000E+00  0.2098E+15
   -1.260009    3.86548  0.0000E+00  0.8203E-10  0.7422E-13  0.1572E-08  0.0000E+00  0.1038E+15
   -1.295007    3.94935  0.0000E+00  0.3600E-09  0.3297E-12  0.4154E-07  0.0000E+00  0.2482E+13
   -1.330006    4.01876  0.0000E+00  0.1079E-08  0.1234E-11  0.3551E-06  0.0000E+00 -0.1905E+14
   -1.365004    4.04535  0.0000E+00  0.1349E-08  0.2638E-11  0.2127E-06  0.0000E+00 -0.5004E+14
   -1.400002    4.08572  0.0000E+00  0.0000E+00  0.0000E+00  0.0000E+00  0.0000E+00  0.0000E+00
