 1 - depth, m
 2 - temperature, C
 3 - salinity, kg/kg
 4 - turbulent kinetic energy, m**2/s**2
 5 - dissipation rate, m**2/s**3
 6 - kinematic heat conductance, m**2/s
 7 - modulus of horizontal velocity, m/s
 8 - Richardson number, n/d
   -0.000000   13.05149  0.0000E+00  0.2302E-03  0.8849E-03  0.6653E-04  0.1563E+00 -0.1092E+00
   -0.034998   13.15520  0.0000E+00  0.1278E-03  0.5597E-03  0.1043E-03  0.4983E-01 -0.2031E-01
   -0.069996   13.18501  0.0000E+00  0.9106E-04  0.4274E-03  0.1329E-03  0.3179E-01 -0.3425E+00
   -0.104994   13.20056  0.0000E+00  0.7328E-04  0.3273E-03  0.1347E-03  0.2503E-01 -0.1831E+00
   -0.139993   13.20899  0.0000E+00  0.6087E-04  0.2300E-03  0.1417E-03  0.2081E-01 -0.4034E-01
   -0.174992   13.21547  0.0000E+00  0.5123E-04  0.1404E-03  0.1503E-03  0.1759E-01 -0.4308E-01
   -0.209991   13.22115  0.0000E+00  0.4365E-04  0.7089E-04  0.1608E-03  0.1492E-01  0.4761E-01
   -0.244990   13.22576  0.0000E+00  0.3779E-04  0.2880E-04  0.1712E-03  0.1266E-01  0.9201E+01
   -0.279990   13.23006  0.0000E+00  0.3323E-04  0.9728E-05  0.1796E-03  0.1065E-01  0.7844E+00
   -0.314990   13.23440  0.0000E+00  0.2944E-04  0.3141E-05  0.1972E-03  0.8708E-02  0.7771E+02
   -0.349990   13.23791  0.0000E+00  0.2640E-04  0.1187E-05  0.2156E-03  0.7270E-02  0.1040E+03
   -0.384990   13.24105  0.0000E+00  0.2392E-04  0.5993E-06  0.2448E-03  0.6112E-02  0.1738E+03
   -0.419991   13.24380  0.0000E+00  0.2190E-04  0.3861E-06  0.2824E-03  0.5152E-02  0.4071E+02
   -0.454991   13.24628  0.0000E+00  0.2021E-04  0.2860E-06  0.3183E-03  0.4289E-02  0.1584E+03
   -0.489992   13.24869  0.0000E+00  0.1875E-04  0.2287E-06  0.3562E-03  0.3494E-02  0.5489E+04
   -0.524993   13.25086  0.0000E+00  0.1734E-04  0.1885E-06  0.4023E-03  0.2786E-02  0.3325E+03
   -0.559994   13.25266  0.0000E+00  0.1592E-04  0.1568E-06  0.4428E-03  0.2244E-02  0.2668E+02
   -0.594995   13.25397  0.0000E+00  0.1443E-04  0.1276E-06  0.4764E-03  0.1870E-02  0.1859E+04
   -0.629996   13.25473  0.0000E+00  0.1321E-04  0.1054E-06  0.5083E-03  0.1658E-02  0.4035E+04
   -0.664997   13.25568  0.0000E+00  0.1218E-04  0.8850E-07  0.5196E-03  0.1468E-02  0.8789E+04
   -0.699998   13.25663  0.0000E+00  0.1127E-04  0.7466E-07  0.5289E-03  0.1282E-02  0.1610E+04
   -0.734999   13.25754  0.0000E+00  0.1049E-04  0.6366E-07  0.5321E-03  0.1110E-02  0.2394E+03
   -0.770000   13.25844  0.0000E+00  0.9878E-05  0.5560E-07  0.5647E-03  0.9551E-03  0.4864E+04
   -0.805001   13.25929  0.0000E+00  0.9374E-05  0.4943E-07  0.5694E-03  0.8410E-03  0.5569E+02
   -0.840002   13.26014  0.0000E+00  0.8890E-05  0.4402E-07  0.5468E-03  0.7362E-03  0.5277E+03
   -0.875003   13.26100  0.0000E+00  0.8453E-05  0.3958E-07  0.5705E-03  0.6235E-03  0.8220E+02
   -0.910003   13.26185  0.0000E+00  0.8090E-05  0.3628E-07  0.5612E-03  0.5411E-03  0.2914E+03
   -0.945004   13.26270  0.0000E+00  0.7789E-05  0.3388E-07  0.5735E-03  0.4678E-03  0.4066E+04
   -0.980005   13.26356  0.0000E+00  0.7507E-05  0.3202E-07  0.5479E-03  0.4034E-03  0.8643E+02
   -1.015005   13.26445  0.0000E+00  0.7247E-05  0.3075E-07  0.5363E-03  0.3463E-03 -0.2358E+02
   -1.050005   13.26538  0.0000E+00  0.6996E-05  0.3006E-07  0.5140E-03  0.2928E-03  0.1228E+03
   -1.085005   13.26636  0.0000E+00  0.6767E-05  0.3005E-07  0.4940E-03  0.2494E-03  0.1694E+03
   -1.120005   13.26739  0.0000E+00  0.6545E-05  0.3096E-07  0.4641E-03  0.2142E-03  0.2008E+03
   -1.155005   13.26856  0.0000E+00  0.6315E-05  0.3310E-07  0.4421E-03  0.1826E-03  0.3416E+03
   -1.190004   13.26984  0.0000E+00  0.6049E-05  0.3765E-07  0.3927E-03  0.1535E-03  0.4762E+03
   -1.225004   13.27168  0.0000E+00  0.5727E-05  0.4610E-07  0.3717E-03  0.1213E-03  0.5037E+03
   -1.260003   13.27348  0.0000E+00  0.5249E-05  0.6847E-07  0.2873E-03  0.9463E-04 -0.4583E+03
   -1.295001   13.27872  0.0000E+00  0.4521E-05  0.1209E-06  0.2673E-03  0.6446E-04  0.1473E+06
   -1.330000   13.27772  0.0000E+00  0.3620E-05  0.2692E-06  0.1265E-03  0.5553E-04  0.1098E+07
   -1.364998   13.29635  0.0000E+00  0.2460E-05  0.6088E-06  0.8598E-04  0.3320E-04 -0.1324E+09
   -1.399995   13.30341  0.0000E+00  0.0000E+00  0.0000E+00  0.0000E+00  0.5647E-04  0.0000E+00
