 1 - depth, m
 2 - temperature, C
 3 - salinity, kg/kg
 4 - turbulent kinetic energy, m**2/s**2
 5 - dissipation rate, m**2/s**3
 6 - kinematic heat conductance, m**2/s
 7 - modulus of horizontal velocity, m/s
 8 - Richardson number, n/d
   -0.000000   12.37608  0.0000E+00  0.6217E-04  0.1607E-04  0.3914E-04  0.5843E-01  0.8349E-01
   -0.034998   12.41477  0.0000E+00  0.3815E-04  0.4637E-05  0.5657E-04  0.2299E-01 -0.6739E-01
   -0.069996   12.42276  0.0000E+00  0.2928E-04  0.2157E-05  0.6766E-04  0.1692E-01 -0.2936E-01
   -0.104994   12.42833  0.0000E+00  0.2398E-04  0.1186E-05  0.7874E-04  0.1359E-01 -0.4463E-01
   -0.139993   12.43276  0.0000E+00  0.2029E-04  0.7158E-06  0.9053E-04  0.1115E-01 -0.6349E-01
   -0.174992   12.43651  0.0000E+00  0.1759E-04  0.4626E-06  0.1033E-03  0.9233E-02 -0.7262E-01
   -0.209991   12.43975  0.0000E+00  0.1554E-04  0.3167E-06  0.1260E-03  0.7666E-02  0.1658E+02
   -0.244991   12.44251  0.0000E+00  0.1392E-04  0.2277E-06  0.1519E-03  0.6356E-02  0.3412E+01
   -0.279991   12.44494  0.0000E+00  0.1255E-04  0.1697E-06  0.1716E-03  0.5226E-02  0.4665E+01
   -0.314991   12.44714  0.0000E+00  0.1130E-04  0.1288E-06  0.1967E-03  0.4216E-02  0.5999E+01
   -0.349991   12.44908  0.0000E+00  0.1022E-04  0.9987E-07  0.2217E-03  0.3414E-02  0.3908E+02
   -0.384991   12.45080  0.0000E+00  0.9315E-05  0.7915E-07  0.2502E-03  0.2769E-02  0.1046E+02
   -0.419992   12.45234  0.0000E+00  0.8581E-05  0.6430E-07  0.2946E-03  0.2243E-02  0.3992E+03
   -0.454992   12.45362  0.0000E+00  0.7980E-05  0.5358E-07  0.3498E-03  0.1791E-02  0.1505E+04
   -0.489993   12.45465  0.0000E+00  0.7471E-05  0.4561E-07  0.3729E-03  0.1395E-02  0.4561E+02
   -0.524994   12.45556  0.0000E+00  0.6986E-05  0.3900E-07  0.4078E-03  0.1041E-02  0.1368E+02
   -0.559995   12.45633  0.0000E+00  0.6520E-05  0.3330E-07  0.4338E-03  0.7809E-03  0.7192E+01
   -0.594996   12.45699  0.0000E+00  0.6065E-05  0.2813E-07  0.4532E-03  0.6163E-03  0.2936E+01
   -0.629997   12.45754  0.0000E+00  0.5723E-05  0.2440E-07  0.4622E-03  0.5306E-03  0.1501E+01
   -0.664998   12.45809  0.0000E+00  0.5455E-05  0.2159E-07  0.4689E-03  0.4632E-03  0.1526E+01
   -0.699999   12.45862  0.0000E+00  0.5231E-05  0.1933E-07  0.4760E-03  0.4028E-03  0.6339E+00
   -0.735000   12.45915  0.0000E+00  0.5043E-05  0.1752E-07  0.4829E-03  0.3495E-03  0.6706E+00
   -0.770001   12.45967  0.0000E+00  0.4887E-05  0.1606E-07  0.4894E-03  0.3035E-03  0.7327E+00
   -0.805002   12.46018  0.0000E+00  0.4755E-05  0.1489E-07  0.4953E-03  0.2641E-03  0.8221E+00
   -0.840003   12.46069  0.0000E+00  0.4644E-05  0.1395E-07  0.5000E-03  0.2305E-03  0.9275E+00
   -0.875004   12.46119  0.0000E+00  0.4549E-05  0.1322E-07  0.5033E-03  0.2017E-03  0.1065E+01
   -0.910005   12.46170  0.0000E+00  0.4467E-05  0.1264E-07  0.5047E-03  0.1772E-03  0.1248E+01
   -0.945006   12.46221  0.0000E+00  0.4396E-05  0.1220E-07  0.5041E-03  0.1557E-03  0.1474E+01
   -0.980006   12.46272  0.0000E+00  0.4332E-05  0.1188E-07  0.5011E-03  0.1366E-03  0.1747E+01
   -1.015007   12.46324  0.0000E+00  0.4273E-05  0.1166E-07  0.4956E-03  0.1194E-03  0.2135E+01
   -1.050007   12.46377  0.0000E+00  0.4215E-05  0.1155E-07  0.4865E-03  0.1042E-03  0.2768E+01
   -1.085007   12.46432  0.0000E+00  0.4156E-05  0.1155E-07  0.4737E-03  0.9052E-04  0.3721E+01
   -1.120007   12.46488  0.0000E+00  0.4094E-05  0.1168E-07  0.4549E-03  0.7834E-04  0.5188E+01
   -1.155007   12.46548  0.0000E+00  0.4029E-05  0.1199E-07  0.4342E-03  0.6692E-04  0.7082E+01
   -1.190007   12.46612  0.0000E+00  0.3958E-05  0.1260E-07  0.4018E-03  0.5629E-04  0.1021E+02
   -1.225006   12.46684  0.0000E+00  0.3869E-05  0.1377E-07  0.3736E-03  0.4588E-04  0.9622E+01
   -1.260005   12.46763  0.0000E+00  0.3735E-05  0.1636E-07  0.2979E-03  0.3678E-04 -0.8566E+03
   -1.295004   12.46888  0.0000E+00  0.3465E-05  0.2326E-07  0.2869E-03  0.2805E-04 -0.1024E+05
   -1.330002   12.46970  0.0000E+00  0.2973E-05  0.4439E-07  0.1182E-03  0.2364E-04 -0.1774E+04
   -1.365000   12.47605  0.0000E+00  0.1895E-05  0.1165E-06  0.4426E-04  0.1519E-04 -0.4777E+05
   -1.399998   12.48342  0.0000E+00  0.0000E+00  0.0000E+00  0.0000E+00  0.1861E-04  0.0000E+00
