 1 - depth, m
 2 - temperature, C
 3 - salinity, kg/kg
 4 - turbulent kinetic energy, m**2/s**2
 5 - dissipation rate, m**2/s**3
 6 - kinematic heat conductance, m**2/s
 7 - modulus of horizontal velocity, m/s
 8 - Richardson number, n/d
   -0.000000   17.01512  0.0000E+00  0.1976E-04  0.3362E-05  0.2061E-04  0.2236E-01 -0.1899E+01
   -0.034998   17.04617  0.0000E+00  0.1421E-04  0.1023E-05  0.5984E-04  0.1088E-01  0.5016E+02
   -0.069996   17.05467  0.0000E+00  0.1196E-04  0.4921E-06  0.9425E-04  0.7970E-02  0.1319E+02
   -0.104994   17.05981  0.0000E+00  0.1059E-04  0.2831E-06  0.1301E-03  0.6289E-02  0.1470E+02
   -0.139993   17.06345  0.0000E+00  0.9657E-05  0.1823E-06  0.1699E-03  0.5113E-02  0.2479E+02
   -0.174992   17.06621  0.0000E+00  0.8992E-05  0.1275E-06  0.2141E-03  0.4227E-02  0.1106E+02
   -0.209991   17.06836  0.0000E+00  0.8501E-05  0.9493E-07  0.2621E-03  0.3526E-02  0.1330E+02
   -0.244991   17.07007  0.0000E+00  0.8123E-05  0.7423E-07  0.3061E-03  0.2949E-02  0.2773E+02
   -0.279990   17.07147  0.0000E+00  0.7810E-05  0.6014E-07  0.3436E-03  0.2458E-02  0.5797E+02
   -0.314990   17.07265  0.0000E+00  0.7522E-05  0.4981E-07  0.3872E-03  0.2020E-02  0.1763E+02
   -0.349991   17.07362  0.0000E+00  0.7269E-05  0.4210E-07  0.4288E-03  0.1664E-02  0.6711E+02
   -0.384991   17.07445  0.0000E+00  0.7049E-05  0.3623E-07  0.4620E-03  0.1370E-02  0.4454E+01
   -0.419991   17.07519  0.0000E+00  0.6857E-05  0.3169E-07  0.4861E-03  0.1122E-02  0.3272E+01
   -0.454992   17.07588  0.0000E+00  0.6686E-05  0.2814E-07  0.5081E-03  0.9014E-03  0.4529E+01
   -0.489993   17.07652  0.0000E+00  0.6529E-05  0.2533E-07  0.5286E-03  0.7021E-03  0.3191E+01
   -0.524994   17.07714  0.0000E+00  0.6368E-05  0.2292E-07  0.5713E-03  0.5259E-03  0.2079E+01
   -0.559994   17.07768  0.0000E+00  0.6209E-05  0.2079E-07  0.6239E-03  0.3985E-03  0.2387E+01
   -0.594995   17.07816  0.0000E+00  0.6053E-05  0.1884E-07  0.6641E-03  0.3191E-03  0.2250E+01
   -0.629996   17.07857  0.0000E+00  0.5937E-05  0.1744E-07  0.6763E-03  0.2777E-03  0.5076E+01
   -0.664998   17.07897  0.0000E+00  0.5844E-05  0.1638E-07  0.6860E-03  0.2460E-03  0.4181E+01
   -0.699999   17.07936  0.0000E+00  0.5764E-05  0.1552E-07  0.6963E-03  0.2174E-03  0.5665E+01
   -0.735000   17.07973  0.0000E+00  0.5694E-05  0.1482E-07  0.7044E-03  0.1922E-03  0.4738E+01
   -0.770001   17.08010  0.0000E+00  0.5631E-05  0.1427E-07  0.7099E-03  0.1704E-03  0.6684E+01
   -0.805002   17.08046  0.0000E+00  0.5575E-05  0.1384E-07  0.7127E-03  0.1516E-03  0.5747E+01
   -0.840003   17.08082  0.0000E+00  0.5523E-05  0.1352E-07  0.7126E-03  0.1353E-03  0.8323E+01
   -0.875004   17.08117  0.0000E+00  0.5474E-05  0.1329E-07  0.7095E-03  0.1213E-03  0.7264E+01
   -0.910005   17.08152  0.0000E+00  0.5428E-05  0.1315E-07  0.7033E-03  0.1090E-03  0.1065E+02
   -0.945005   17.08187  0.0000E+00  0.5382E-05  0.1308E-07  0.6937E-03  0.9813E-04  0.9492E+01
   -0.980006   17.08223  0.0000E+00  0.5336E-05  0.1310E-07  0.6806E-03  0.8818E-04  0.1369E+02
   -1.015006   17.08259  0.0000E+00  0.5288E-05  0.1321E-07  0.6635E-03  0.7897E-04  0.1266E+02
   -1.050007   17.08296  0.0000E+00  0.5236E-05  0.1342E-07  0.6407E-03  0.7048E-04  0.1957E+02
   -1.085007   17.08335  0.0000E+00  0.5176E-05  0.1379E-07  0.6136E-03  0.6262E-04  0.2035E+02
   -1.120007   17.08376  0.0000E+00  0.5110E-05  0.1436E-07  0.5770E-03  0.5535E-04  0.3329E+02
   -1.155007   17.08419  0.0000E+00  0.5035E-05  0.1521E-07  0.5436E-03  0.4831E-04  0.3763E+02
   -1.190006   17.08466  0.0000E+00  0.4946E-05  0.1661E-07  0.4878E-03  0.4157E-04 -0.1283E+04
   -1.225005   17.08525  0.0000E+00  0.4829E-05  0.1907E-07  0.4545E-03  0.3518E-04 -0.1659E+02
   -1.260004   17.08589  0.0000E+00  0.4644E-05  0.2442E-07  0.3403E-03  0.2855E-04 -0.1288E+05
   -1.295003   17.08721  0.0000E+00  0.4292E-05  0.3788E-07  0.3381E-03  0.2193E-04  0.3291E+05
   -1.330001   17.08782  0.0000E+00  0.3659E-05  0.7808E-07  0.1329E-03  0.1857E-04  0.3631E+06
   -1.365000   17.09571  0.0000E+00  0.2415E-05  0.1984E-06  0.5833E-04  0.1212E-04 -0.6306E+06
   -1.399997   17.10290  0.0000E+00  0.0000E+00  0.0000E+00  0.0000E+00  0.1530E-04  0.0000E+00
