 1 - depth, m
 2 - temperature, C
 3 - salinity, kg/kg
 4 - turbulent kinetic energy, m**2/s**2
 5 - dissipation rate, m**2/s**3
 6 - kinematic heat conductance, m**2/s
 7 - modulus of horizontal velocity, m/s
 8 - Richardson number, n/d
   -0.000000    7.46503  0.0000E+00  0.5401E-04  0.1644E-04  0.3022E-04  0.5403E-01 -0.3011E-02
   -0.034998    7.48595  0.0000E+00  0.3358E-04  0.4867E-05  0.5242E-04  0.2273E-01 -0.8079E-02
   -0.069996    7.49194  0.0000E+00  0.2576E-04  0.1996E-05  0.6182E-04  0.1657E-01 -0.1154E-01
   -0.104995    7.49639  0.0000E+00  0.2111E-04  0.1067E-05  0.7104E-04  0.1319E-01 -0.1787E-01
   -0.139993    7.49997  0.0000E+00  0.1784E-04  0.6327E-06  0.7992E-04  0.1075E-01 -0.2555E-01
   -0.174993    7.50303  0.0000E+00  0.1543E-04  0.4048E-06  0.8831E-04  0.8861E-02 -0.3604E-01
   -0.209992    7.50576  0.0000E+00  0.1357E-04  0.2754E-06  0.9587E-04  0.7322E-02 -0.4847E-01
   -0.244992    7.50827  0.0000E+00  0.1206E-04  0.1970E-06  0.1024E-03  0.6029E-02 -0.6251E-01
   -0.279991    7.51061  0.0000E+00  0.1076E-04  0.1459E-06  0.1076E-03  0.4909E-02 -0.6957E-01
   -0.314992    7.51285  0.0000E+00  0.9521E-05  0.1095E-06  0.1214E-03  0.3900E-02  0.1320E+02
   -0.349992    7.51485  0.0000E+00  0.8447E-05  0.8355E-07  0.1412E-03  0.3111E-02  0.3493E+03
   -0.384992    7.51665  0.0000E+00  0.7542E-05  0.6494E-07  0.1593E-03  0.2489E-02  0.9560E+02
   -0.419993    7.51828  0.0000E+00  0.6796E-05  0.5155E-07  0.1758E-03  0.1988E-02  0.1345E+04
   -0.454993    7.51980  0.0000E+00  0.6176E-05  0.4179E-07  0.1927E-03  0.1557E-02  0.5408E+02
   -0.489994    7.52123  0.0000E+00  0.5657E-05  0.3463E-07  0.2075E-03  0.1179E-02  0.9373E+02
   -0.524995    7.52257  0.0000E+00  0.5185E-05  0.2893E-07  0.2220E-03  0.8568E-03  0.1040E+03
   -0.559996    7.52377  0.0000E+00  0.4742E-05  0.2416E-07  0.2367E-03  0.6304E-03  0.2737E+02
   -0.594997    7.52482  0.0000E+00  0.4286E-05  0.1966E-07  0.2517E-03  0.4905E-03  0.1024E+04
   -0.629999    7.52570  0.0000E+00  0.3915E-05  0.1621E-07  0.2793E-03  0.4139E-03  0.1173E+03
   -0.665000    7.52649  0.0000E+00  0.3627E-05  0.1368E-07  0.3000E-03  0.3505E-03  0.3898E+03
   -0.700001    7.52721  0.0000E+00  0.3400E-05  0.1178E-07  0.3160E-03  0.2976E-03  0.3550E+03
   -0.735002    7.52788  0.0000E+00  0.3220E-05  0.1036E-07  0.3324E-03  0.2533E-03  0.1277E+02
   -0.770003    7.52851  0.0000E+00  0.3075E-05  0.9259E-08  0.3441E-03  0.2170E-03  0.2357E+02
   -0.805005    7.52910  0.0000E+00  0.2955E-05  0.8395E-08  0.3522E-03  0.1867E-03  0.2760E+01
   -0.840006    7.52968  0.0000E+00  0.2855E-05  0.7703E-08  0.3571E-03  0.1612E-03  0.3279E+01
   -0.875007    7.53026  0.0000E+00  0.2770E-05  0.7139E-08  0.3603E-03  0.1394E-03  0.3675E+01
   -0.910008    7.53083  0.0000E+00  0.2697E-05  0.6677E-08  0.3628E-03  0.1207E-03  0.4812E+01
   -0.945009    7.53140  0.0000E+00  0.2634E-05  0.6303E-08  0.3643E-03  0.1043E-03  0.5805E+01
   -0.980009    7.53199  0.0000E+00  0.2579E-05  0.6004E-08  0.3646E-03  0.8958E-04  0.7317E+01
   -1.015010    7.53258  0.0000E+00  0.2531E-05  0.5766E-08  0.3637E-03  0.7643E-04  0.9333E+01
   -1.050010    7.53318  0.0000E+00  0.2487E-05  0.5582E-08  0.3612E-03  0.6491E-04  0.1283E+02
   -1.085011    7.53379  0.0000E+00  0.2446E-05  0.5449E-08  0.3567E-03  0.5492E-04  0.1797E+02
   -1.120011    7.53442  0.0000E+00  0.2408E-05  0.5369E-08  0.3496E-03  0.4627E-04  0.2636E+02
   -1.155010    7.53506  0.0000E+00  0.2371E-05  0.5351E-08  0.3397E-03  0.3852E-04  0.3689E+02
   -1.190010    7.53575  0.0000E+00  0.2336E-05  0.5408E-08  0.3260E-03  0.3147E-04  0.5187E+02
   -1.225009    7.53647  0.0000E+00  0.2298E-05  0.5575E-08  0.3069E-03  0.2510E-04  0.7266E+02
   -1.260009    7.53724  0.0000E+00  0.2249E-05  0.5961E-08  0.2765E-03  0.1964E-04  0.1211E+03
   -1.295007    7.53811  0.0000E+00  0.2158E-05  0.7039E-08  0.2206E-03  0.1527E-04  0.3226E+03
   -1.330006    7.53920  0.0000E+00  0.2004E-05  0.9609E-08  0.1615E-03  0.1232E-04  0.4754E+04
   -1.365004    7.54085  0.0000E+00  0.1351E-05  0.2760E-07  0.1210E-04  0.9522E-05 -0.9943E+07
   -1.400002    7.56231  0.0000E+00  0.0000E+00  0.0000E+00  0.0000E+00  0.9745E-05  0.0000E+00
