 1 - depth, m
 2 - temperature, C
 3 - salinity, kg/kg
 4 - turbulent kinetic energy, m**2/s**2
 5 - dissipation rate, m**2/s**3
 6 - kinematic heat conductance, m**2/s
 7 - modulus of horizontal velocity, m/s
 8 - Richardson number, n/d
   -0.000000   14.53789  0.0000E+00  0.9702E-04  0.3923E-04  0.4007E-04  0.7704E-01 -0.3844E-01
   -0.034998   14.58883  0.0000E+00  0.5775E-04  0.1040E-04  0.7463E-04  0.2713E-01 -0.1916E-01
   -0.069996   14.59846  0.0000E+00  0.4378E-04  0.4688E-05  0.8895E-04  0.1938E-01 -0.6638E-01
   -0.104994   14.60492  0.0000E+00  0.3592E-04  0.2629E-05  0.1031E-03  0.1574E-01 -0.3076E-01
   -0.139993   14.60969  0.0000E+00  0.3047E-04  0.1596E-05  0.1257E-03  0.1312E-01  0.1942E+02
   -0.174992   14.61342  0.0000E+00  0.2648E-04  0.1030E-05  0.1490E-03  0.1106E-01  0.3709E+01
   -0.209992   14.61651  0.0000E+00  0.2347E-04  0.7004E-06  0.1725E-03  0.9372E-02  0.4678E+01
   -0.244991   14.61915  0.0000E+00  0.2109E-04  0.4989E-06  0.1964E-03  0.7927E-02  0.1381E+02
   -0.279991   14.62145  0.0000E+00  0.1911E-04  0.3687E-06  0.2168E-03  0.6660E-02  0.2712E+02
   -0.314991   14.62351  0.0000E+00  0.1732E-04  0.2790E-06  0.2428E-03  0.5509E-02  0.8724E+01
   -0.349991   14.62531  0.0000E+00  0.1577E-04  0.2163E-06  0.2699E-03  0.4577E-02  0.1736E+03
   -0.384991   14.62690  0.0000E+00  0.1446E-04  0.1715E-06  0.2991E-03  0.3812E-02  0.1011E+04
   -0.419992   14.62831  0.0000E+00  0.1336E-04  0.1394E-06  0.3260E-03  0.3169E-02  0.1738E+03
   -0.454992   14.62958  0.0000E+00  0.1243E-04  0.1157E-06  0.3564E-03  0.2598E-02  0.1150E+02
   -0.489993   14.63072  0.0000E+00  0.1163E-04  0.9813E-07  0.3837E-03  0.2081E-02  0.3405E+02
   -0.524994   14.63173  0.0000E+00  0.1086E-04  0.8372E-07  0.4327E-03  0.1622E-02  0.1426E+03
   -0.559995   14.63260  0.0000E+00  0.1011E-04  0.7118E-07  0.4991E-03  0.1277E-02  0.1977E+02
   -0.594996   14.63333  0.0000E+00  0.9320E-05  0.5920E-07  0.5440E-03  0.1045E-02  0.8219E+00
   -0.629997   14.63396  0.0000E+00  0.8671E-05  0.4990E-07  0.5575E-03  0.9134E-03  0.7376E+01
   -0.664998   14.63457  0.0000E+00  0.8134E-05  0.4271E-07  0.5641E-03  0.8011E-03  0.4457E+02
   -0.699999   14.63514  0.0000E+00  0.7678E-05  0.3700E-07  0.5720E-03  0.6978E-03  0.9670E+00
   -0.735001   14.63570  0.0000E+00  0.7289E-05  0.3244E-07  0.5790E-03  0.6050E-03  0.1010E+01
   -0.770002   14.63625  0.0000E+00  0.6956E-05  0.2878E-07  0.5850E-03  0.5236E-03  0.9036E+01
   -0.805003   14.63678  0.0000E+00  0.6668E-05  0.2585E-07  0.5894E-03  0.4526E-03  0.1027E+01
   -0.840004   14.63730  0.0000E+00  0.6420E-05  0.2350E-07  0.5925E-03  0.3912E-03  0.1320E+01
   -0.875005   14.63781  0.0000E+00  0.6204E-05  0.2163E-07  0.5938E-03  0.3381E-03  0.1207E+01
   -0.910006   14.63832  0.0000E+00  0.6014E-05  0.2017E-07  0.5927E-03  0.2930E-03  0.1345E+01
   -0.945006   14.63882  0.0000E+00  0.5848E-05  0.1905E-07  0.5887E-03  0.2535E-03  0.1617E+01
   -0.980007   14.63932  0.0000E+00  0.5702E-05  0.1823E-07  0.5812E-03  0.2190E-03  0.1725E+01
   -1.015008   14.63982  0.0000E+00  0.5571E-05  0.1768E-07  0.5701E-03  0.1885E-03  0.2013E+01
   -1.050008   14.64033  0.0000E+00  0.5451E-05  0.1736E-07  0.5547E-03  0.1627E-03  0.2503E+01
   -1.085008   14.64085  0.0000E+00  0.5336E-05  0.1729E-07  0.5360E-03  0.1408E-03  0.3260E+01
   -1.120008   14.64138  0.0000E+00  0.5224E-05  0.1751E-07  0.5113E-03  0.1222E-03  0.4428E+01
   -1.155008   14.64195  0.0000E+00  0.5109E-05  0.1812E-07  0.4854E-03  0.1051E-03  0.5894E+01
   -1.190007   14.64255  0.0000E+00  0.4983E-05  0.1942E-07  0.4427E-03  0.8907E-04  0.9585E+01
   -1.225007   14.64325  0.0000E+00  0.4829E-05  0.2192E-07  0.4120E-03  0.7268E-04 -0.6739E+01
   -1.260006   14.64404  0.0000E+00  0.4604E-05  0.2771E-07  0.3189E-03  0.5799E-04 -0.9010E+03
   -1.295005   14.64546  0.0000E+00  0.4213E-05  0.4253E-07  0.3104E-03  0.4325E-04  0.1587E+05
   -1.330003   14.64615  0.0000E+00  0.3545E-05  0.8691E-07  0.1278E-03  0.3688E-04 -0.5655E+03
   -1.365001   14.65397  0.0000E+00  0.2305E-05  0.2159E-06  0.5708E-04  0.2350E-04 -0.1054E+07
   -1.399999   14.66105  0.0000E+00  0.0000E+00  0.0000E+00  0.0000E+00  0.3198E-04  0.0000E+00
