 1 - depth, m
 2 - temperature, C
 3 - salinity, kg/kg
 4 - turbulent kinetic energy, m**2/s**2
 5 - dissipation rate, m**2/s**3
 6 - kinematic heat conductance, m**2/s
 7 - modulus of horizontal velocity, m/s
 8 - Richardson number, n/d
   -0.000000    0.00000  0.0000E+00  0.4702E-13  0.1132E-15  0.1000E-09  0.0000E+00  0.1201E+17
   -0.034997    0.18473  0.0000E+00  0.4702E-13  0.1132E-15  0.1000E-09  0.0000E+00  0.1121E+17
   -0.069995    0.36631  0.0000E+00  0.4702E-13  0.1132E-15  0.1000E-09  0.0000E+00  0.1046E+17
   -0.104993    0.54493  0.0000E+00  0.4702E-13  0.1132E-15  0.1000E-09  0.0000E+00  0.9686E+16
   -0.139991    0.71949  0.0000E+00  0.4702E-13  0.1132E-15  0.1000E-09  0.0000E+00  0.8920E+16
   -0.174990    0.88943  0.0000E+00  0.4702E-13  0.1132E-15  0.1000E-09  0.0000E+00  0.8206E+16
   -0.209989    1.05495  0.0000E+00  0.4702E-13  0.1132E-15  0.1000E-09  0.0000E+00  0.7540E+16
   -0.244988    1.21617  0.0000E+00  0.4702E-13  0.1132E-15  0.1000E-09  0.0000E+00  0.6916E+16
   -0.279987    1.37321  0.0000E+00  0.4702E-13  0.1132E-15  0.1000E-09  0.0000E+00  0.6331E+16
   -0.314987    1.52615  0.0000E+00  0.4702E-13  0.1132E-15  0.1000E-09  0.0000E+00  0.5789E+16
   -0.349987    1.67522  0.0000E+00  0.4702E-13  0.1132E-15  0.1000E-09  0.0000E+00  0.5276E+16
   -0.384987    1.82035  0.0000E+00  0.4702E-13  0.1132E-15  0.1000E-09  0.0000E+00  0.4788E+16
   -0.419987    1.96138  0.0000E+00  0.4702E-13  0.1132E-15  0.1000E-09  0.0000E+00  0.4336E+16
   -0.454987    2.09849  0.0000E+00  0.4702E-13  0.1132E-15  0.1000E-09  0.0000E+00  0.3918E+16
   -0.489987    2.23187  0.0000E+00  0.4702E-13  0.1132E-15  0.1000E-09  0.0000E+00  0.3521E+16
   -0.524988    2.36136  0.0000E+00  0.4702E-13  0.1132E-15  0.1000E-09  0.0000E+00  0.3147E+16
   -0.559988    2.48678  0.0000E+00  0.4702E-13  0.1132E-15  0.1000E-09  0.0000E+00  0.2773E+16
   -0.594989    2.60695  0.0000E+00  0.4702E-13  0.1132E-15  0.1000E-09  0.0000E+00  0.2410E+16
   -0.629989    2.72087  0.0000E+00  0.4702E-13  0.1132E-15  0.1000E-09  0.0000E+00  0.2117E+16
   -0.664990    2.83037  0.0000E+00  0.7133E-13  0.1132E-15  0.1000E-09  0.0000E+00  0.1850E+16
   -0.699991    2.93555  0.0000E+00  0.2451E-12  0.1200E-15  0.1000E-09  0.0000E+00  0.1605E+16
   -0.734992    3.03633  0.0000E+00  0.6292E-12  0.1872E-15  0.1000E-09  0.0000E+00  0.1390E+16
   -0.769992    3.13334  0.0000E+00  0.1351E-11  0.3477E-15  0.1000E-09  0.0000E+00  0.1214E+16
   -0.804993    3.22832  0.0000E+00  0.2704E-11  0.6607E-15  0.1000E-09  0.0000E+00  0.1048E+16
   -0.839994    3.32128  0.0000E+00  0.5257E-11  0.1249E-14  0.1000E-09  0.0000E+00  0.8907E+15
   -0.874994    3.41215  0.0000E+00  0.1010E-10  0.2353E-14  0.1000E-09  0.0000E+00  0.7423E+15
   -0.909994    3.50083  0.0000E+00  0.1927E-10  0.4406E-14  0.1000E-09  0.0000E+00  0.6020E+15
   -0.944995    3.58710  0.0000E+00  0.3646E-10  0.8190E-14  0.1000E-09  0.0000E+00  0.4703E+15
   -0.979995    3.67063  0.0000E+00  0.6870E-10  0.1517E-13  0.1126E-09  0.0000E+00  0.3480E+15
   -1.014995    3.75093  0.0000E+00  0.1299E-09  0.2820E-13  0.3084E-09  0.0000E+00  0.2358E+15
   -1.049995    3.82702  0.0000E+00  0.2472E-09  0.5277E-13  0.9857E-09  0.0000E+00  0.1377E+15
   -1.084995    3.89803  0.0000E+00  0.4720E-09  0.9918E-13  0.4513E-08  0.0000E+00  0.5706E+14
   -1.119994    3.96439  0.0000E+00  0.8621E-09  0.1795E-12  0.2234E-06  0.0000E+00  0.3654E+13
   -1.154994    3.99705  0.0000E+00  0.1322E-08  0.2842E-12  0.2458E-05  0.0000E+00 -0.6881E+12
   -1.189993    4.00062  0.0000E+00  0.1619E-08  0.3732E-12  0.2802E-05  0.0000E+00 -0.7932E+12
   -1.224992    4.00383  0.0000E+00  0.1865E-08  0.4835E-12  0.2820E-05  0.0000E+00 -0.9960E+12
   -1.259990    4.00716  0.0000E+00  0.2076E-08  0.6529E-12  0.2525E-05  0.0000E+00 -0.1451E+13
   -1.294989    4.01122  0.0000E+00  0.2267E-08  0.1032E-11  0.1788E-05  0.0000E+00 -0.2949E+13
   -1.329987    4.01790  0.0000E+00  0.2292E-08  0.1770E-11  0.9378E-06  0.0000E+00 -0.7924E+13
   -1.364984    4.03114  0.0000E+00  0.2026E-08  0.3750E-11  0.2889E-06  0.0000E+00 -0.4005E+14
   -1.399982    4.07073  0.0000E+00  0.0000E+00  0.0000E+00  0.0000E+00  0.0000E+00  0.0000E+00
