 1 - depth, m
 2 - temperature, C
 3 - salinity, kg/kg
 4 - turbulent kinetic energy, m**2/s**2
 5 - dissipation rate, m**2/s**3
 6 - kinematic heat conductance, m**2/s
 7 - modulus of horizontal velocity, m/s
 8 - Richardson number, n/d
   -0.000000    0.00000  0.0000E+00  0.2255E-10  0.1309E-13  0.1000E-09  0.0000E+00  0.2281E+17
   -0.034997    0.35937  0.0000E+00  0.4417E-10  0.1063E-13  0.1000E-09  0.0000E+00  0.1981E+17
   -0.069995    0.70546  0.0000E+00  0.8396E-10  0.1211E-13  0.1000E-09  0.0000E+00  0.1714E+17
   -0.104993    1.03961  0.0000E+00  0.1450E-09  0.1641E-13  0.1000E-09  0.0000E+00  0.1470E+17
   -0.139991    1.36171  0.0000E+00  0.2353E-09  0.2377E-13  0.1000E-09  0.0000E+00  0.1249E+17
   -0.174990    1.67209  0.0000E+00  0.3683E-09  0.3520E-13  0.1000E-09  0.0000E+00  0.1052E+17
   -0.209989    1.97164  0.0000E+00  0.5651E-09  0.5240E-13  0.1000E-09  0.0000E+00  0.8738E+16
   -0.244988    2.26113  0.0000E+00  0.8571E-09  0.7801E-13  0.1000E-09  0.0000E+00  0.7133E+16
   -0.279987    2.54118  0.0000E+00  0.1292E-08  0.1160E-12  0.1000E-09  0.0000E+00  0.5679E+16
   -0.314987    2.81225  0.0000E+00  0.1950E-08  0.1732E-12  0.1158E-09  0.0000E+00  0.4324E+16
   -0.349987    3.07222  0.0000E+00  0.2959E-08  0.2603E-12  0.2177E-09  0.0000E+00  0.3111E+16
   -0.384987    3.32049  0.0000E+00  0.4504E-08  0.3928E-12  0.5013E-09  0.0000E+00  0.2042E+16
   -0.419987    3.55638  0.0000E+00  0.6850E-08  0.5925E-12  0.1373E-08  0.0000E+00  0.1130E+16
   -0.454987    3.78296  0.0000E+00  0.1037E-07  0.8903E-12  0.7499E-08  0.0000E+00  0.3241E+15
   -0.489987    3.99618  0.0000E+00  0.1077E-07  0.9261E-12  0.4364E-04  0.0000E+00 -0.1052E+12
   -0.524988    3.99698  0.0000E+00  0.1099E-07  0.9485E-12  0.4549E-04  0.0000E+00 -0.1107E+12
   -0.559988    3.99770  0.0000E+00  0.1124E-07  0.9767E-12  0.4645E-04  0.0000E+00 -0.1185E+12
   -0.594989    3.99842  0.0000E+00  0.1158E-07  0.1017E-11  0.4720E-04  0.0000E+00 -0.1270E+12
   -0.629989    3.99914  0.0000E+00  0.1192E-07  0.1061E-11  0.4811E-04  0.0000E+00 -0.1339E+12
   -0.664990    3.99985  0.0000E+00  0.1227E-07  0.1108E-11  0.4871E-04  0.0000E+00 -0.1414E+12
   -0.699991    4.00056  0.0000E+00  0.1260E-07  0.1156E-11  0.4919E-04  0.0000E+00 -0.1495E+12
   -0.734992    4.00126  0.0000E+00  0.1293E-07  0.1207E-11  0.4952E-04  0.0000E+00 -0.1580E+12
   -0.769992    4.00197  0.0000E+00  0.1325E-07  0.1261E-11  0.4974E-04  0.0000E+00 -0.1662E+12
   -0.804993    4.00267  0.0000E+00  0.1356E-07  0.1318E-11  0.4984E-04  0.0000E+00 -0.1752E+12
   -0.839993    4.00338  0.0000E+00  0.1387E-07  0.1380E-11  0.4982E-04  0.0000E+00 -0.1848E+12
   -0.874994    4.00409  0.0000E+00  0.1416E-07  0.1445E-11  0.4963E-04  0.0000E+00 -0.1959E+12
   -0.909994    4.00481  0.0000E+00  0.1445E-07  0.1516E-11  0.4932E-04  0.0000E+00 -0.2078E+12
   -0.944995    4.00555  0.0000E+00  0.1472E-07  0.1592E-11  0.4884E-04  0.0000E+00 -0.2215E+12
   -0.979995    4.00629  0.0000E+00  0.1497E-07  0.1673E-11  0.4821E-04  0.0000E+00 -0.2370E+12
   -1.014995    4.00706  0.0000E+00  0.1521E-07  0.1763E-11  0.4738E-04  0.0000E+00 -0.2566E+12
   -1.049995    4.00786  0.0000E+00  0.1542E-07  0.1864E-11  0.4633E-04  0.0000E+00 -0.2796E+12
   -1.084995    4.00870  0.0000E+00  0.1562E-07  0.1982E-11  0.4497E-04  0.0000E+00 -0.3007E+12
   -1.119994    4.00956  0.0000E+00  0.1579E-07  0.2119E-11  0.4333E-04  0.0000E+00 -0.3260E+12
   -1.154994    4.01046  0.0000E+00  0.1592E-07  0.2279E-11  0.4137E-04  0.0000E+00 -0.3573E+12
   -1.189993    4.01141  0.0000E+00  0.1601E-07  0.2475E-11  0.3894E-04  0.0000E+00 -0.3989E+12
   -1.224992    4.01242  0.0000E+00  0.1605E-07  0.2746E-11  0.3574E-04  0.0000E+00 -0.4621E+12
   -1.259990    4.01355  0.0000E+00  0.1602E-07  0.3197E-11  0.3095E-04  0.0000E+00 -0.5838E+12
   -1.294989    4.01490  0.0000E+00  0.1576E-07  0.4406E-11  0.2165E-04  0.0000E+00 -0.9783E+12
   -1.329987    4.01706  0.0000E+00  0.1480E-07  0.7972E-11  0.7398E-05  0.0000E+00 -0.3494E+13
   -1.364984    4.02372  0.0000E+00  0.1112E-07  0.2468E-10  0.1019E-05  0.0000E+00 -0.4392E+14
   -1.399982    4.07008  0.0000E+00  0.0000E+00  0.0000E+00  0.0000E+00  0.0000E+00  0.0000E+00
