 1 - depth, m
 2 - temperature, C
 3 - salinity, kg/kg
 4 - turbulent kinetic energy, m**2/s**2
 5 - dissipation rate, m**2/s**3
 6 - kinematic heat conductance, m**2/s
 7 - modulus of horizontal velocity, m/s
 8 - Richardson number, n/d
   -0.000000   13.76755  0.0000E+00  0.1247E-04  0.9061E-06  0.1755E-04  0.1888E-01 -0.1312E-01
   -0.034998   13.77773  0.0000E+00  0.1011E-04  0.3437E-06  0.3187E-04  0.1138E-01 -0.3232E-01
   -0.069996   13.78253  0.0000E+00  0.8600E-05  0.1860E-06  0.4415E-04  0.8211E-02 -0.5886E-01
   -0.104994   13.78575  0.0000E+00  0.7506E-05  0.1168E-06  0.5643E-04  0.6226E-02 -0.9816E-01
   -0.139993   13.78823  0.0000E+00  0.6678E-05  0.7994E-07  0.7293E-04  0.4843E-02 -0.2230E-01
   -0.174992   13.79023  0.0000E+00  0.6039E-05  0.5810E-07  0.9571E-04  0.3831E-02  0.7886E+01
   -0.209991   13.79191  0.0000E+00  0.5540E-05  0.4420E-07  0.1176E-03  0.3071E-02  0.1993E+02
   -0.244991   13.79336  0.0000E+00  0.5144E-05  0.3495E-07  0.1594E-03  0.2473E-02  0.5394E+02
   -0.279991   13.79450  0.0000E+00  0.4831E-05  0.2865E-07  0.2319E-03  0.2000E-02  0.2403E+03
   -0.314991   13.79532  0.0000E+00  0.4570E-05  0.2409E-07  0.2811E-03  0.1619E-02  0.1044E+03
   -0.349991   13.79595  0.0000E+00  0.4347E-05  0.2054E-07  0.3054E-03  0.1317E-02  0.2613E+01
   -0.384991   13.79653  0.0000E+00  0.4152E-05  0.1773E-07  0.3178E-03  0.1067E-02  0.2103E+01
   -0.419992   13.79709  0.0000E+00  0.3984E-05  0.1549E-07  0.3266E-03  0.8581E-03  0.2084E+01
   -0.454992   13.79767  0.0000E+00  0.3833E-05  0.1370E-07  0.3343E-03  0.6746E-03  0.2141E+01
   -0.489993   13.79825  0.0000E+00  0.3692E-05  0.1224E-07  0.3424E-03  0.5104E-03  0.1921E+01
   -0.524994   13.79883  0.0000E+00  0.3549E-05  0.1098E-07  0.3674E-03  0.3686E-03  0.1196E+01
   -0.559995   13.79929  0.0000E+00  0.3414E-05  0.9906E-08  0.3900E-03  0.2732E-03  0.8076E+00
   -0.594996   13.79958  0.0000E+00  0.3284E-05  0.8932E-08  0.3598E-03  0.2196E-03  0.2124E+01
   -0.629997   13.79970  0.0000E+00  0.3182E-05  0.8167E-08  0.3453E-03  0.1890E-03  0.5676E+03
   -0.664998   13.79984  0.0000E+00  0.3114E-05  0.7621E-08  0.4038E-03  0.1633E-03  0.6858E+01
   -0.699999   13.80000  0.0000E+00  0.3067E-05  0.7219E-08  0.4361E-03  0.1437E-03  0.1864E+01
   -0.735000   13.80018  0.0000E+00  0.3032E-05  0.6903E-08  0.4399E-03  0.1273E-03  0.2255E+01
   -0.770001   13.80036  0.0000E+00  0.3008E-05  0.6656E-08  0.4453E-03  0.1130E-03  0.2970E+01
   -0.805002   13.80057  0.0000E+00  0.2993E-05  0.6468E-08  0.4503E-03  0.1004E-03  0.3987E+01
   -0.840003   13.80078  0.0000E+00  0.2986E-05  0.6331E-08  0.4547E-03  0.8924E-04  0.5328E+01
   -0.875004   13.80102  0.0000E+00  0.2984E-05  0.6241E-08  0.4580E-03  0.7927E-04  0.7211E+01
   -0.910005   13.80127  0.0000E+00  0.2986E-05  0.6193E-08  0.4598E-03  0.7040E-04  0.9785E+01
   -0.945006   13.80155  0.0000E+00  0.2993E-05  0.6187E-08  0.4597E-03  0.6228E-04  0.1323E+02
   -0.980006   13.80186  0.0000E+00  0.3001E-05  0.6221E-08  0.4576E-03  0.5486E-04  0.1758E+02
   -1.015007   13.80220  0.0000E+00  0.3010E-05  0.6298E-08  0.4531E-03  0.4799E-04  0.2370E+02
   -1.050007   13.80257  0.0000E+00  0.3018E-05  0.6422E-08  0.4457E-03  0.4182E-04  0.3356E+02
   -1.085007   13.80297  0.0000E+00  0.3026E-05  0.6604E-08  0.4346E-03  0.3625E-04  0.4908E+02
   -1.120007   13.80341  0.0000E+00  0.3031E-05  0.6857E-08  0.4193E-03  0.3130E-04  0.7424E+02
   -1.155007   13.80390  0.0000E+00  0.3032E-05  0.7196E-08  0.3994E-03  0.2667E-04  0.1093E+03
   -1.190007   13.80446  0.0000E+00  0.3027E-05  0.7657E-08  0.3737E-03  0.2235E-04  0.1599E+03
   -1.225006   13.80510  0.0000E+00  0.3010E-05  0.8355E-08  0.3427E-03  0.1829E-04  0.2392E+03
   -1.260005   13.80586  0.0000E+00  0.2972E-05  0.9617E-08  0.2836E-03  0.1473E-04  0.4410E+03
   -1.295004   13.80684  0.0000E+00  0.2871E-05  0.1285E-07  0.2404E-03  0.1168E-04  0.1327E+04
   -1.330002   13.80817  0.0000E+00  0.2633E-05  0.2191E-07  0.1263E-03  0.9535E-05  0.9360E+06
   -1.365000   13.81235  0.0000E+00  0.1796E-05  0.6214E-07  0.2676E-04  0.6568E-05 -0.4564E+07
   -1.399998   13.83148  0.0000E+00  0.0000E+00  0.0000E+00  0.0000E+00  0.7092E-05  0.0000E+00
