 1 - depth, m
 2 - temperature, C
 3 - salinity, kg/kg
 4 - turbulent kinetic energy, m**2/s**2
 5 - dissipation rate, m**2/s**3
 6 - kinematic heat conductance, m**2/s
 7 - modulus of horizontal velocity, m/s
 8 - Richardson number, n/d
   -0.000000    0.00000  0.0000E+00  0.1621E-07  0.5292E-10  0.1806E-08  0.0000E+00  0.7524E+17
   -0.034998    1.38002  0.0000E+00  0.1000E-06  0.3754E-10  0.2287E-08  0.0000E+00  0.4264E+17
   -0.069997    2.75407  0.0000E+00  0.2502E-06  0.4343E-10  0.9944E-08  0.0000E+00  0.1201E+17
   -0.104996    4.06832  0.0000E+00  0.2518E-06  0.4356E-10  0.4638E-03  0.0000E+00 -0.5702E+12
   -0.139996    4.06879  0.0000E+00  0.2525E-06  0.4363E-10  0.4578E-03  0.0000E+00 -0.5121E+12
   -0.174995    4.06925  0.0000E+00  0.2532E-06  0.4371E-10  0.4594E-03  0.0000E+00 -0.5076E+12
   -0.209995    4.06970  0.0000E+00  0.2538E-06  0.4379E-10  0.4610E-03  0.0000E+00 -0.4993E+12
   -0.244995    4.07014  0.0000E+00  0.2543E-06  0.4388E-10  0.4621E-03  0.0000E+00 -0.4955E+12
   -0.279996    4.07058  0.0000E+00  0.2548E-06  0.4397E-10  0.4686E-03  0.0000E+00 -0.4241E+12
   -0.314996    4.07100  0.0000E+00  0.2552E-06  0.4408E-10  0.4723E-03  0.0000E+00 -0.5406E+12
   -0.349997    4.07142  0.0000E+00  0.2556E-06  0.4419E-10  0.4638E-03  0.0000E+00 -0.4899E+12
   -0.384998    4.07184  0.0000E+00  0.2560E-06  0.4433E-10  0.4638E-03  0.0000E+00 -0.4818E+12
   -0.419999    4.07225  0.0000E+00  0.2563E-06  0.4448E-10  0.4721E-03  0.0000E+00 -0.4184E+12
   -0.455000    4.07265  0.0000E+00  0.2565E-06  0.4464E-10  0.4687E-03  0.0000E+00 -0.5318E+12
   -0.490002    4.07305  0.0000E+00  0.2567E-06  0.4482E-10  0.4618E-03  0.0000E+00 -0.4855E+12
   -0.525003    4.07346  0.0000E+00  0.2569E-06  0.4505E-10  0.4601E-03  0.0000E+00 -0.4770E+12
   -0.560005    4.07386  0.0000E+00  0.2571E-06  0.4536E-10  0.4576E-03  0.0000E+00 -0.4803E+12
   -0.595006    4.07425  0.0000E+00  0.2573E-06  0.4584E-10  0.4538E-03  0.0000E+00 -0.4595E+12
   -0.630008    4.07464  0.0000E+00  0.2575E-06  0.4638E-10  0.4499E-03  0.0000E+00 -0.4702E+12
   -0.665010    4.07502  0.0000E+00  0.2576E-06  0.4696E-10  0.4654E-03  0.0000E+00 -0.4108E+12
   -0.700011    4.07540  0.0000E+00  0.2577E-06  0.4759E-10  0.4350E-03  0.0000E+00 -0.5344E+12
   -0.735013    4.07579  0.0000E+00  0.2578E-06  0.4828E-10  0.4563E-03  0.0000E+00 -0.4233E+12
   -0.770015    4.07617  0.0000E+00  0.2578E-06  0.4905E-10  0.4207E-03  0.0000E+00 -0.5497E+12
   -0.805017    4.07657  0.0000E+00  0.2578E-06  0.4991E-10  0.4451E-03  0.0000E+00 -0.4381E+12
   -0.840018    4.07695  0.0000E+00  0.2577E-06  0.5087E-10  0.4036E-03  0.0000E+00 -0.5727E+12
   -0.875020    4.07737  0.0000E+00  0.2576E-06  0.5195E-10  0.4315E-03  0.0000E+00 -0.4557E+12
   -0.910021    4.07776  0.0000E+00  0.2575E-06  0.5318E-10  0.3835E-03  0.0000E+00 -0.6042E+12
   -0.945023    4.07820  0.0000E+00  0.2573E-06  0.5458E-10  0.3831E-03  0.0000E+00 -0.5692E+12
   -0.980024    4.07864  0.0000E+00  0.2570E-06  0.5621E-10  0.3730E-03  0.0000E+00 -0.5833E+12
   -1.015025    4.07909  0.0000E+00  0.2567E-06  0.5809E-10  0.3602E-03  0.0000E+00 -0.6081E+12
   -1.050026    4.07955  0.0000E+00  0.2563E-06  0.6028E-10  0.3811E-03  0.0000E+00 -0.5366E+12
   -1.085027    4.07999  0.0000E+00  0.2558E-06  0.6293E-10  0.3166E-03  0.0000E+00 -0.7382E+12
   -1.120027    4.08052  0.0000E+00  0.2553E-06  0.6619E-10  0.3132E-03  0.0000E+00 -0.7172E+12
   -1.155028    4.08105  0.0000E+00  0.2546E-06  0.7029E-10  0.2966E-03  0.0000E+00 -0.7571E+12
   -1.190028    4.08161  0.0000E+00  0.2537E-06  0.7549E-10  0.2760E-03  0.0000E+00 -0.8248E+12
   -1.225028    4.08222  0.0000E+00  0.2526E-06  0.8290E-10  0.2515E-03  0.0000E+00 -0.9106E+12
   -1.260027    4.08289  0.0000E+00  0.2509E-06  0.9547E-10  0.2161E-03  0.0000E+00 -0.1086E+13
   -1.295027    4.08366  0.0000E+00  0.2472E-06  0.1257E-09  0.1771E-03  0.0000E+00 -0.1318E+13
   -1.330026    4.08462  0.0000E+00  0.2380E-06  0.2079E-09  0.7881E-04  0.0000E+00 -0.3144E+13
   -1.365024    4.08692  0.0000E+00  0.1644E-06  0.1043E-08  0.3600E-05  0.0000E+00 -0.8359E+14
   -1.400023    4.13200  0.0000E+00  0.0000E+00  0.0000E+00  0.0000E+00  0.0000E+00  0.0000E+00
