 1 - depth, m
 2 - temperature, C
 3 - salinity, kg/kg
 4 - turbulent kinetic energy, m**2/s**2
 5 - dissipation rate, m**2/s**3
 6 - kinematic heat conductance, m**2/s
 7 - modulus of horizontal velocity, m/s
 8 - Richardson number, n/d
   -0.000000    0.00000  0.0000E+00  0.4702E-13  0.1132E-15  0.1000E-09  0.0000E+00  0.1595E+17
   -0.034997    0.24753  0.0000E+00  0.8840E-13  0.1132E-15  0.1000E-09  0.0000E+00  0.1469E+17
   -0.069995    0.49197  0.0000E+00  0.3144E-12  0.1132E-15  0.1000E-09  0.0000E+00  0.1347E+17
   -0.104993    0.73316  0.0000E+00  0.7334E-12  0.1301E-15  0.1000E-09  0.0000E+00  0.1219E+17
   -0.139992    0.96899  0.0000E+00  0.1379E-11  0.1838E-15  0.1000E-09  0.0000E+00  0.1092E+17
   -0.174991    1.19814  0.0000E+00  0.2345E-11  0.2768E-15  0.1000E-09  0.0000E+00  0.9733E+16
   -0.209990    1.42041  0.0000E+00  0.3797E-11  0.4230E-15  0.1000E-09  0.0000E+00  0.8622E+16
   -0.244989    1.63560  0.0000E+00  0.5989E-11  0.6465E-15  0.1000E-09  0.0000E+00  0.7588E+16
   -0.279988    1.84355  0.0000E+00  0.9315E-11  0.9849E-15  0.1000E-09  0.0000E+00  0.6632E+16
   -0.314988    2.04416  0.0000E+00  0.1444E-10  0.1503E-14  0.1000E-09  0.0000E+00  0.5745E+16
   -0.349988    2.23706  0.0000E+00  0.2246E-10  0.2303E-14  0.1000E-09  0.0000E+00  0.4926E+16
   -0.384988    2.42188  0.0000E+00  0.3494E-10  0.3534E-14  0.1000E-09  0.0000E+00  0.4176E+16
   -0.419988    2.59827  0.0000E+00  0.5420E-10  0.5411E-14  0.1000E-09  0.0000E+00  0.3526E+16
   -0.454988    2.76738  0.0000E+00  0.8378E-10  0.8258E-14  0.1000E-09  0.0000E+00  0.2956E+16
   -0.489989    2.93029  0.0000E+00  0.1293E-09  0.1258E-13  0.1000E-09  0.0000E+00  0.2436E+16
   -0.524989    3.08686  0.0000E+00  0.2067E-09  0.1984E-13  0.1000E-09  0.0000E+00  0.1955E+16
   -0.559990    3.23620  0.0000E+00  0.3462E-09  0.3279E-13  0.1000E-09  0.0000E+00  0.1504E+16
   -0.594991    3.37578  0.0000E+00  0.6156E-09  0.5750E-13  0.1350E-09  0.0000E+00  0.1103E+16
   -0.629991    3.50347  0.0000E+00  0.1013E-08  0.9356E-13  0.3022E-09  0.0000E+00  0.8018E+15
   -0.664992    3.62375  0.0000E+00  0.1590E-08  0.1452E-12  0.6927E-09  0.0000E+00  0.5428E+15
   -0.699993    3.73630  0.0000E+00  0.2444E-08  0.2206E-12  0.1762E-08  0.0000E+00  0.3243E+15
   -0.734994    3.84055  0.0000E+00  0.3723E-08  0.3321E-12  0.5859E-08  0.0000E+00  0.1470E+15
   -0.769995    3.93603  0.0000E+00  0.5521E-08  0.4881E-12  0.6995E-07  0.0000E+00  0.1816E+14
   -0.804995    4.00109  0.0000E+00  0.5852E-08  0.5190E-12  0.2756E-04  0.0000E+00 -0.1157E+12
   -0.839996    4.00158  0.0000E+00  0.6016E-08  0.5363E-12  0.2723E-04  0.0000E+00 -0.1209E+12
   -0.874997    4.00208  0.0000E+00  0.6170E-08  0.5547E-12  0.2754E-04  0.0000E+00 -0.1235E+12
   -0.909997    4.00257  0.0000E+00  0.6313E-08  0.5743E-12  0.2778E-04  0.0000E+00 -0.1264E+12
   -0.944998    4.00306  0.0000E+00  0.6442E-08  0.5951E-12  0.2788E-04  0.0000E+00 -0.1299E+12
   -0.979998    4.00355  0.0000E+00  0.6558E-08  0.6175E-12  0.2783E-04  0.0000E+00 -0.1343E+12
   -1.014998    4.00404  0.0000E+00  0.6662E-08  0.6420E-12  0.2762E-04  0.0000E+00 -0.1401E+12
   -1.049998    4.00453  0.0000E+00  0.6754E-08  0.6700E-12  0.2723E-04  0.0000E+00 -0.1474E+12
   -1.084998    4.00504  0.0000E+00  0.6834E-08  0.7028E-12  0.2661E-04  0.0000E+00 -0.1558E+12
   -1.119998    4.00557  0.0000E+00  0.6900E-08  0.7413E-12  0.2574E-04  0.0000E+00 -0.1664E+12
   -1.154997    4.00611  0.0000E+00  0.6948E-08  0.7873E-12  0.2463E-04  0.0000E+00 -0.1802E+12
   -1.189996    4.00668  0.0000E+00  0.6976E-08  0.8441E-12  0.2320E-04  0.0000E+00 -0.1994E+12
   -1.224995    4.00730  0.0000E+00  0.6979E-08  0.9321E-12  0.2120E-04  0.0000E+00 -0.2323E+12
   -1.259994    4.00799  0.0000E+00  0.6930E-08  0.1105E-11  0.1596E-04  0.0000E+00 -0.3437E+12
   -1.294993    4.00898  0.0000E+00  0.6704E-08  0.1591E-11  0.8959E-05  0.0000E+00 -0.7467E+12
   -1.329991    4.01099  0.0000E+00  0.6031E-08  0.2904E-11  0.3172E-05  0.0000E+00 -0.2620E+13
   -1.364988    4.01703  0.0000E+00  0.4291E-08  0.7818E-11  0.4770E-06  0.0000E+00 -0.2919E+14
   -1.399986    4.05466  0.0000E+00  0.0000E+00  0.0000E+00  0.0000E+00  0.0000E+00  0.0000E+00
