 1 - depth, m
 2 - temperature, C
 3 - salinity, kg/kg
 4 - turbulent kinetic energy, m**2/s**2
 5 - dissipation rate, m**2/s**3
 6 - kinematic heat conductance, m**2/s
 7 - modulus of horizontal velocity, m/s
 8 - Richardson number, n/d
   -0.000000    3.31187  0.0000E+00  0.4862E-04  0.1502E-04  0.3456E-04  0.5154E-01  0.3697E-02
   -0.034998    3.34459  0.0000E+00  0.3011E-04  0.4480E-05  0.4412E-04  0.2190E-01  0.4430E-02
   -0.069996    3.35614  0.0000E+00  0.2284E-04  0.1894E-05  0.5056E-04  0.1611E-01  0.8226E-02
   -0.104995    3.36548  0.0000E+00  0.1841E-04  0.9637E-06  0.5677E-04  0.1284E-01  0.1397E-01
   -0.139993    3.37378  0.0000E+00  0.1530E-04  0.5390E-06  0.6187E-04  0.1045E-01  0.2339E-01
   -0.174992    3.38166  0.0000E+00  0.1301E-04  0.3293E-06  0.6572E-04  0.8577E-02  0.3917E-01
   -0.209992    3.38955  0.0000E+00  0.1125E-04  0.2184E-06  0.6808E-04  0.7045E-02  0.6547E-01
   -0.244991    3.39795  0.0000E+00  0.9847E-05  0.1546E-06  0.6880E-04  0.5749E-02  0.1108E+00
   -0.279991    3.40773  0.0000E+00  0.8618E-05  0.1138E-06  0.6712E-04  0.4618E-02  0.1787E+00
   -0.314991    3.42196  0.0000E+00  0.7410E-05  0.8405E-07  0.6781E-04  0.3569E-02  0.1092E+01
   -0.349991    3.45918  0.0000E+00  0.6357E-05  0.6278E-07  0.6743E-04  0.2765E-02  0.1230E+02
   -0.384992    3.52540  0.0000E+00  0.5477E-05  0.4754E-07  0.6766E-04  0.2155E-02  0.1094E+03
   -0.419992    3.55995  0.0000E+00  0.4752E-05  0.3666E-07  0.6929E-04  0.1684E-02  0.4732E+06
   -0.454993    3.58795  0.0000E+00  0.4149E-05  0.2874E-07  0.7091E-04  0.1281E-02  0.8502E+07
   -0.489994    3.61356  0.0000E+00  0.3642E-05  0.2294E-07  0.7205E-04  0.9252E-03  0.1561E+06
   -0.524995    3.63515  0.0000E+00  0.3188E-05  0.1839E-07  0.7431E-04  0.6264E-03 -0.5845E+07
   -0.559996    3.64943  0.0000E+00  0.2771E-05  0.1471E-07  0.7497E-04  0.4284E-03  0.5501E+09
   -0.594997    3.65922  0.0000E+00  0.2334E-05  0.1129E-07  0.7314E-04  0.3128E-03  0.1711E+09
   -0.629998    3.66796  0.0000E+00  0.1953E-05  0.8608E-08  0.7049E-04  0.2574E-03  0.1942E+10
   -0.664999    3.67704  0.0000E+00  0.1635E-05  0.6581E-08  0.6794E-04  0.2083E-03  0.8030E+10
   -0.700000    3.68686  0.0000E+00  0.1368E-05  0.5046E-08  0.6557E-04  0.1652E-03  0.6595E+10
   -0.735001    3.69654  0.0000E+00  0.1141E-05  0.3868E-08  0.6327E-04  0.1283E-03  0.1215E+11
   -0.770002    3.70503  0.0000E+00  0.9477E-06  0.2958E-08  0.6044E-04  0.9778E-04  0.2048E+11
   -0.805004    3.71402  0.0000E+00  0.7818E-06  0.2252E-08  0.5751E-04  0.7317E-04  0.2898E+11
   -0.840005    3.72371  0.0000E+00  0.6397E-06  0.1702E-08  0.5463E-04  0.5349E-04  0.3551E+11
   -0.875006    3.73436  0.0000E+00  0.5170E-06  0.1272E-08  0.5188E-04  0.3805E-04  0.3871E+11
   -0.910007    3.74669  0.0000E+00  0.4106E-06  0.9326E-09  0.4926E-04  0.2656E-04  0.3691E+11
   -0.945007    3.76208  0.0000E+00  0.3188E-06  0.6655E-09  0.4700E-04  0.1766E-04  0.2567E+11
   -0.980008    3.78271  0.0000E+00  0.2383E-06  0.4495E-09  0.4530E-04  0.1074E-04 -0.2434E+10
   -1.015009    3.81894  0.0000E+00  0.1694E-06  0.2735E-09  0.4471E-04  0.5191E-05 -0.3581E+11
   -1.050009    3.89533  0.0000E+00  0.1258E-06  0.1593E-09  0.4517E-04  0.1788E-05 -0.3284E+11
   -1.085009    3.97751  0.0000E+00  0.1065E-06  0.1027E-09  0.4766E-04  0.5149E-06 -0.3893E+11
   -1.120009    4.02573  0.0000E+00  0.9979E-07  0.7842E-10  0.5019E-04  0.1754E-06 -0.3494E+12
   -1.155009    4.04617  0.0000E+00  0.9791E-07  0.6884E-10  0.5194E-04  0.6144E-07 -0.4845E+12
   -1.190009    4.05668  0.0000E+00  0.9755E-07  0.6601E-10  0.5243E-04  0.2085E-07 -0.6743E+12
   -1.225008    4.06446  0.0000E+00  0.9748E-07  0.6691E-10  0.5125E-04  0.6240E-08 -0.1221E+13
   -1.260007    4.07127  0.0000E+00  0.9704E-07  0.7132E-10  0.4735E-04  0.1760E-08 -0.2356E+13
   -1.295006    4.07801  0.0000E+00  0.9509E-07  0.8437E-10  0.3916E-04  0.5110E-09 -0.5300E+13
   -1.330004    4.08595  0.0000E+00  0.8969E-07  0.1189E-09  0.2041E-04  0.1997E-09 -0.1340E+14
   -1.365002    4.10013  0.0000E+00  0.6597E-07  0.3184E-09  0.2731E-05  0.5751E-10 -0.1762E+15
   -1.400000    4.17850  0.0000E+00  0.0000E+00  0.0000E+00  0.0000E+00  0.5733E-10  0.0000E+00
