 1 - depth, m
 2 - temperature, C
 3 - salinity, kg/kg
 4 - turbulent kinetic energy, m**2/s**2
 5 - dissipation rate, m**2/s**3
 6 - kinematic heat conductance, m**2/s
 7 - modulus of horizontal velocity, m/s
 8 - Richardson number, n/d
   -0.000000    0.00000  0.0000E+00  0.4702E-13  0.1132E-15  0.1000E-09  0.0000E+00  0.1691E+17
   -0.034997    0.26285  0.0000E+00  0.4702E-13  0.1132E-15  0.1000E-09  0.0000E+00  0.1508E+17
   -0.069994    0.51525  0.0000E+00  0.2002E-12  0.1132E-15  0.1000E-09  0.0000E+00  0.1347E+17
   -0.104992    0.75827  0.0000E+00  0.5427E-12  0.1142E-15  0.1000E-09  0.0000E+00  0.1195E+17
   -0.139990    0.99131  0.0000E+00  0.1079E-11  0.1531E-15  0.1000E-09  0.0000E+00  0.1056E+17
   -0.174988    1.21438  0.0000E+00  0.1878E-11  0.2261E-15  0.1000E-09  0.0000E+00  0.9322E+16
   -0.209986    1.42827  0.0000E+00  0.3065E-11  0.3421E-15  0.1000E-09  0.0000E+00  0.8218E+16
   -0.244985    1.63363  0.0000E+00  0.4836E-11  0.5186E-15  0.1000E-09  0.0000E+00  0.7226E+16
   -0.279984    1.83098  0.0000E+00  0.7494E-11  0.7835E-15  0.1000E-09  0.0000E+00  0.6330E+16
   -0.314983    2.02070  0.0000E+00  0.1155E-10  0.1184E-14  0.1000E-09  0.0000E+00  0.5515E+16
   -0.349982    2.20294  0.0000E+00  0.1782E-10  0.1797E-14  0.1000E-09  0.0000E+00  0.4770E+16
   -0.384981    2.37766  0.0000E+00  0.2748E-10  0.2729E-14  0.1000E-09  0.0000E+00  0.4089E+16
   -0.419981    2.54469  0.0000E+00  0.4222E-10  0.4132E-14  0.1000E-09  0.0000E+00  0.3497E+16
   -0.454981    2.70514  0.0000E+00  0.6462E-10  0.6233E-14  0.1000E-09  0.0000E+00  0.2977E+16
   -0.489981    2.86004  0.0000E+00  0.9864E-10  0.9383E-14  0.1000E-09  0.0000E+00  0.2502E+16
   -0.524981    3.00942  0.0000E+00  0.1559E-09  0.1461E-13  0.1000E-09  0.0000E+00  0.2073E+16
   -0.559981    3.15362  0.0000E+00  0.2580E-09  0.2382E-13  0.1000E-09  0.0000E+00  0.1672E+16
   -0.594981    3.29171  0.0000E+00  0.4529E-09  0.4120E-13  0.1000E-09  0.0000E+00  0.1306E+16
   -0.629981    3.42295  0.0000E+00  0.7375E-09  0.6626E-13  0.1723E-09  0.0000E+00  0.9959E+15
   -0.664981    3.54902  0.0000E+00  0.1145E-08  0.1017E-12  0.3662E-09  0.0000E+00  0.7186E+15
   -0.699982    3.67002  0.0000E+00  0.1742E-08  0.1528E-12  0.8413E-09  0.0000E+00  0.4698E+15
   -0.734982    3.78549  0.0000E+00  0.2629E-08  0.2278E-12  0.2344E-08  0.0000E+00  0.2513E+15
   -0.769982    3.89496  0.0000E+00  0.3937E-08  0.3370E-12  0.1338E-07  0.0000E+00  0.6504E+14
   -0.804982    3.99353  0.0000E+00  0.4322E-08  0.3715E-12  0.1756E-04  0.0000E+00 -0.1010E+12
   -0.839982    3.99437  0.0000E+00  0.4521E-08  0.3919E-12  0.1978E-04  0.0000E+00 -0.9971E+11
   -0.874982    3.99513  0.0000E+00  0.4703E-08  0.4130E-12  0.2145E-04  0.0000E+00 -0.1006E+12
   -0.909982    3.99583  0.0000E+00  0.4863E-08  0.4342E-12  0.2201E-04  0.0000E+00 -0.1062E+12
   -0.944982    3.99651  0.0000E+00  0.5004E-08  0.4555E-12  0.2227E-04  0.0000E+00 -0.1132E+12
   -0.979982    3.99720  0.0000E+00  0.5130E-08  0.4779E-12  0.2241E-04  0.0000E+00 -0.1211E+12
   -1.014982    3.99789  0.0000E+00  0.5246E-08  0.5024E-12  0.2242E-04  0.0000E+00 -0.1308E+12
   -1.049981    3.99859  0.0000E+00  0.5354E-08  0.5303E-12  0.2226E-04  0.0000E+00 -0.1423E+12
   -1.084980    3.99930  0.0000E+00  0.5452E-08  0.5627E-12  0.2181E-04  0.0000E+00 -0.1542E+12
   -1.119979    4.00004  0.0000E+00  0.5537E-08  0.6005E-12  0.2113E-04  0.0000E+00 -0.1687E+12
   -1.154978    4.00080  0.0000E+00  0.5607E-08  0.6459E-12  0.2020E-04  0.0000E+00 -0.1874E+12
   -1.189977    4.00161  0.0000E+00  0.5660E-08  0.7061E-12  0.1888E-04  0.0000E+00 -0.2139E+12
   -1.224975    4.00247  0.0000E+00  0.5689E-08  0.8006E-12  0.1598E-04  0.0000E+00 -0.2753E+12
   -1.259973    4.00353  0.0000E+00  0.5673E-08  0.9737E-12  0.1207E-04  0.0000E+00 -0.4157E+12
   -1.294971    4.00501  0.0000E+00  0.5512E-08  0.1448E-11  0.6792E-05  0.0000E+00 -0.9287E+12
   -1.329969    4.00795  0.0000E+00  0.4984E-08  0.2690E-11  0.2458E-05  0.0000E+00 -0.3432E+13
   -1.364966    4.01642  0.0000E+00  0.3734E-08  0.6952E-11  0.4463E-06  0.0000E+00 -0.3436E+14
   -1.399963    4.05909  0.0000E+00  0.0000E+00  0.0000E+00  0.0000E+00  0.0000E+00  0.0000E+00
