 1 - depth, m
 2 - temperature, C
 3 - salinity, kg/kg
 4 - turbulent kinetic energy, m**2/s**2
 5 - dissipation rate, m**2/s**3
 6 - kinematic heat conductance, m**2/s
 7 - modulus of horizontal velocity, m/s
 8 - Richardson number, n/d
   -0.000000    0.00000  0.0000E+00  0.5351E-12  0.1359E-15  0.1000E-09  0.0000E+00  0.1647E+17
   -0.034997    0.25588  0.0000E+00  0.7546E-12  0.1344E-15  0.1000E-09  0.0000E+00  0.1494E+17
   -0.069995    0.50526  0.0000E+00  0.1195E-11  0.1661E-15  0.1000E-09  0.0000E+00  0.1350E+17
   -0.104993    0.74806  0.0000E+00  0.1911E-11  0.2331E-15  0.1000E-09  0.0000E+00  0.1208E+17
   -0.139991    0.98292  0.0000E+00  0.3015E-11  0.3440E-15  0.1000E-09  0.0000E+00  0.1074E+17
   -0.174989    1.20929  0.0000E+00  0.4691E-11  0.5155E-15  0.1000E-09  0.0000E+00  0.9521E+16
   -0.209988    1.42750  0.0000E+00  0.7225E-11  0.7744E-15  0.1000E-09  0.0000E+00  0.8410E+16
   -0.244987    1.63781  0.0000E+00  0.1104E-10  0.1161E-14  0.1000E-09  0.0000E+00  0.7395E+16
   -0.279986    1.84042  0.0000E+00  0.1678E-10  0.1735E-14  0.1000E-09  0.0000E+00  0.6465E+16
   -0.314986    2.03537  0.0000E+00  0.2550E-10  0.2597E-14  0.1000E-09  0.0000E+00  0.5637E+16
   -0.349985    2.22349  0.0000E+00  0.3889E-10  0.3902E-14  0.1000E-09  0.0000E+00  0.4874E+16
   -0.384985    2.40463  0.0000E+00  0.5936E-10  0.5868E-14  0.1000E-09  0.0000E+00  0.4169E+16
   -0.419985    2.57848  0.0000E+00  0.9029E-10  0.8799E-14  0.1000E-09  0.0000E+00  0.3536E+16
   -0.454985    2.74537  0.0000E+00  0.1368E-09  0.1314E-13  0.1000E-09  0.0000E+00  0.2971E+16
   -0.489985    2.90581  0.0000E+00  0.2065E-09  0.1957E-13  0.1000E-09  0.0000E+00  0.2461E+16
   -0.524986    3.05993  0.0000E+00  0.3225E-09  0.3012E-13  0.1000E-09  0.0000E+00  0.2037E+16
   -0.559986    3.21077  0.0000E+00  0.5267E-09  0.4845E-13  0.1078E-09  0.0000E+00  0.1649E+16
   -0.594987    3.35915  0.0000E+00  0.9118E-09  0.8263E-13  0.1912E-09  0.0000E+00  0.1275E+16
   -0.629987    3.50455  0.0000E+00  0.1466E-08  0.1312E-12  0.3961E-09  0.0000E+00  0.8911E+15
   -0.664988    3.64125  0.0000E+00  0.2246E-08  0.1986E-12  0.9298E-09  0.0000E+00  0.5631E+15
   -0.699988    3.76869  0.0000E+00  0.3362E-08  0.2938E-12  0.2756E-08  0.0000E+00  0.2874E+15
   -0.734989    3.88448  0.0000E+00  0.4936E-08  0.4264E-12  0.2122E-07  0.0000E+00  0.7784E+14
   -0.769989    3.97661  0.0000E+00  0.5319E-08  0.4563E-12  0.1971E-04  0.0000E+00  0.8324E+13
   -0.804990    3.99554  0.0000E+00  0.5506E-08  0.4724E-12  0.2224E-04  0.0000E+00 -0.7882E+11
   -0.839990    3.99648  0.0000E+00  0.5653E-08  0.4876E-12  0.2331E-04  0.0000E+00 -0.8948E+11
   -0.874991    3.99715  0.0000E+00  0.5788E-08  0.5036E-12  0.2400E-04  0.0000E+00 -0.9315E+11
   -0.909991    3.99778  0.0000E+00  0.5912E-08  0.5207E-12  0.2446E-04  0.0000E+00 -0.9660E+11
   -0.944991    3.99837  0.0000E+00  0.6024E-08  0.5390E-12  0.2470E-04  0.0000E+00 -0.1004E+12
   -0.979991    3.99894  0.0000E+00  0.6123E-08  0.5587E-12  0.2474E-04  0.0000E+00 -0.1048E+12
   -1.014991    3.99950  0.0000E+00  0.6212E-08  0.5805E-12  0.2458E-04  0.0000E+00 -0.1106E+12
   -1.049991    4.00006  0.0000E+00  0.6290E-08  0.6056E-12  0.2421E-04  0.0000E+00 -0.1178E+12
   -1.084991    4.00063  0.0000E+00  0.6357E-08  0.6354E-12  0.2355E-04  0.0000E+00 -0.1265E+12
   -1.119990    4.00121  0.0000E+00  0.6412E-08  0.6713E-12  0.2252E-04  0.0000E+00 -0.1380E+12
   -1.154989    4.00183  0.0000E+00  0.6450E-08  0.7154E-12  0.2097E-04  0.0000E+00 -0.1546E+12
   -1.189988    4.00249  0.0000E+00  0.6468E-08  0.7719E-12  0.1914E-04  0.0000E+00 -0.1790E+12
   -1.224987    4.00322  0.0000E+00  0.6459E-08  0.8541E-12  0.1705E-04  0.0000E+00 -0.2199E+12
   -1.259985    4.00409  0.0000E+00  0.6403E-08  0.1005E-11  0.1422E-04  0.0000E+00 -0.3093E+12
   -1.294984    4.00525  0.0000E+00  0.6179E-08  0.1438E-11  0.7897E-05  0.0000E+00 -0.7086E+12
   -1.329982    4.00763  0.0000E+00  0.5548E-08  0.2611E-11  0.2837E-05  0.0000E+00 -0.2594E+13
   -1.364979    4.01450  0.0000E+00  0.3926E-08  0.7097E-11  0.4293E-06  0.0000E+00 -0.2679E+14
   -1.399976    4.05121  0.0000E+00  0.0000E+00  0.0000E+00  0.0000E+00  0.0000E+00  0.0000E+00
