 1 - depth, m
 2 - temperature, C
 3 - salinity, kg/kg
 4 - turbulent kinetic energy, m**2/s**2
 5 - dissipation rate, m**2/s**3
 6 - kinematic heat conductance, m**2/s
 7 - modulus of horizontal velocity, m/s
 8 - Richardson number, n/d
   -0.000000    7.23239  0.0000E+00  0.4736E-03  0.1597E-02  0.8628E-04  0.2481E+00 -0.2526E-02
   -0.034998    7.30346  0.0000E+00  0.2514E-03  0.6977E-03  0.1368E-03  0.7647E-01 -0.1507E-01
   -0.069996    7.32789  0.0000E+00  0.1631E-03  0.2380E-03  0.1800E-03  0.4388E-01 -0.3465E-01
   -0.104994    7.33988  0.0000E+00  0.1280E-03  0.1470E-03  0.1915E-03  0.3296E-01  0.6957E+01
   -0.139993    7.34661  0.0000E+00  0.1068E-03  0.9852E-04  0.2012E-03  0.2678E-01  0.2674E+02
   -0.174992    7.35133  0.0000E+00  0.9143E-04  0.6648E-04  0.2098E-03  0.2260E-01  0.9120E+00
   -0.209991    7.35505  0.0000E+00  0.7970E-04  0.4505E-04  0.2216E-03  0.1946E-01  0.1525E+02
   -0.244991    7.35810  0.0000E+00  0.7053E-04  0.3039E-04  0.2319E-03  0.1696E-01  0.4811E+02
   -0.279991    7.36087  0.0000E+00  0.6291E-04  0.2043E-04  0.2390E-03  0.1469E-01  0.1373E+01
   -0.314991    7.36403  0.0000E+00  0.5614E-04  0.1374E-04  0.2546E-03  0.1223E-01  0.2456E+01
   -0.349991    7.36658  0.0000E+00  0.5052E-04  0.9228E-05  0.2677E-03  0.1051E-01  0.8742E+00
   -0.384991    7.36892  0.0000E+00  0.4579E-04  0.6197E-05  0.2792E-03  0.9126E-02  0.8640E+01
   -0.419992    7.37099  0.0000E+00  0.4177E-04  0.4177E-05  0.2886E-03  0.7980E-02  0.9843E+01
   -0.454992    7.37327  0.0000E+00  0.3832E-04  0.2859E-05  0.2960E-03  0.6865E-02  0.1192E+02
   -0.489993    7.37591  0.0000E+00  0.3532E-04  0.2033E-05  0.3051E-03  0.5772E-02  0.7339E+00
   -0.524994    7.37928  0.0000E+00  0.3248E-04  0.1491E-05  0.3197E-03  0.4791E-02 -0.1435E+03
   -0.559995    7.38177  0.0000E+00  0.2973E-04  0.1111E-05  0.3334E-03  0.4097E-02 -0.1931E+04
   -0.594996    7.38316  0.0000E+00  0.2676E-04  0.7988E-06  0.3349E-03  0.3635E-02  0.6615E+04
   -0.629997    7.38162  0.0000E+00  0.2407E-04  0.5767E-06  0.3367E-03  0.3390E-02  0.1646E+05
   -0.664998    7.38274  0.0000E+00  0.2178E-04  0.4282E-06  0.3420E-03  0.3089E-02  0.1793E+04
   -0.699999    7.38398  0.0000E+00  0.1982E-04  0.3274E-06  0.3502E-03  0.2789E-02  0.5368E+05
   -0.735000    7.38525  0.0000E+00  0.1812E-04  0.2567E-06  0.3585E-03  0.2507E-02  0.2521E+04
   -0.770001    7.38650  0.0000E+00  0.1664E-04  0.2059E-06  0.3684E-03  0.2252E-02  0.2040E+04
   -0.805003    7.38770  0.0000E+00  0.1533E-04  0.1684E-06  0.3720E-03  0.2020E-02  0.9060E+03
   -0.840004    7.38889  0.0000E+00  0.1418E-04  0.1400E-06  0.3771E-03  0.1807E-02  0.2226E+04
   -0.875004    7.39008  0.0000E+00  0.1316E-04  0.1182E-06  0.3841E-03  0.1614E-02  0.2985E+04
   -0.910005    7.39125  0.0000E+00  0.1225E-04  0.1011E-06  0.3918E-03  0.1441E-02  0.1904E+04
   -0.945006    7.39241  0.0000E+00  0.1145E-04  0.8766E-07  0.3972E-03  0.1280E-02  0.2344E+04
   -0.980007    7.39358  0.0000E+00  0.1074E-04  0.7705E-07  0.4017E-03  0.1129E-02  0.2350E+04
   -1.015007    7.39475  0.0000E+00  0.1011E-04  0.6870E-07  0.4029E-03  0.9887E-03  0.3510E+04
   -1.050008    7.39592  0.0000E+00  0.9528E-05  0.6215E-07  0.4005E-03  0.8626E-03  0.1065E+05
   -1.085008    7.39708  0.0000E+00  0.8991E-05  0.5722E-07  0.3967E-03  0.7500E-03  0.1854E+06
   -1.120008    7.39826  0.0000E+00  0.8492E-05  0.5399E-07  0.3865E-03  0.6496E-03  0.1162E+05
   -1.155007    7.39950  0.0000E+00  0.8028E-05  0.5288E-07  0.3726E-03  0.5559E-03  0.3373E+06
   -1.190007    7.40081  0.0000E+00  0.7586E-05  0.5473E-07  0.3471E-03  0.4670E-03  0.8979E+05
   -1.225006    7.40228  0.0000E+00  0.7125E-05  0.6188E-07  0.3236E-03  0.3804E-03  0.4163E+05
   -1.260005    7.40392  0.0000E+00  0.6584E-05  0.8188E-07  0.2754E-03  0.3009E-03  0.6044E+05
   -1.295004    7.40605  0.0000E+00  0.5785E-05  0.1394E-06  0.2351E-03  0.2325E-03  0.3068E+06
   -1.330002    7.40789  0.0000E+00  0.4727E-05  0.2933E-06  0.1331E-03  0.1974E-03  0.3214E+07
   -1.365001    7.41482  0.0000E+00  0.3052E-05  0.5763E-06  0.4784E-04  0.1459E-03 -0.2285E+10
   -1.399998    7.43561  0.0000E+00  0.0000E+00  0.0000E+00  0.0000E+00  0.2044E-03  0.0000E+00
