 1 - depth, m
 2 - temperature, C
 3 - salinity, kg/kg
 4 - turbulent kinetic energy, m**2/s**2
 5 - dissipation rate, m**2/s**3
 6 - kinematic heat conductance, m**2/s
 7 - modulus of horizontal velocity, m/s
 8 - Richardson number, n/d
   -0.000000   13.99143  0.0000E+00  0.1715E-04  0.1414E-05  0.2005E-04  0.2437E-01 -0.6287E-02
   -0.034998   14.00001  0.0000E+00  0.1366E-04  0.5176E-06  0.3662E-04  0.1467E-01 -0.1614E-01
   -0.069996   14.00416  0.0000E+00  0.1155E-04  0.2758E-06  0.5000E-04  0.1078E-01 -0.2830E-01
   -0.104995   14.00710  0.0000E+00  0.1003E-04  0.1717E-06  0.6198E-04  0.8321E-02 -0.4478E-01
   -0.139994   14.00944  0.0000E+00  0.8865E-05  0.1167E-06  0.7355E-04  0.6572E-02 -0.6725E-01
   -0.174993   14.01144  0.0000E+00  0.7942E-05  0.8421E-07  0.8548E-04  0.5258E-02 -0.9328E-01
   -0.209992   14.01318  0.0000E+00  0.7197E-05  0.6348E-07  0.1018E-03  0.4233E-02  0.1066E+00
   -0.244992   14.01471  0.0000E+00  0.6583E-05  0.4954E-07  0.1340E-03  0.3410E-02  0.1755E+02
   -0.279992   14.01601  0.0000E+00  0.6057E-05  0.3962E-07  0.1603E-03  0.2740E-02  0.2226E+02
   -0.314992   14.01717  0.0000E+00  0.5585E-05  0.3214E-07  0.1999E-03  0.2164E-02  0.9140E+02
   -0.349992   14.01811  0.0000E+00  0.5198E-05  0.2673E-07  0.2841E-03  0.1725E-02  0.4465E+03
   -0.384992   14.01874  0.0000E+00  0.4891E-05  0.2279E-07  0.3454E-03  0.1400E-02  0.1950E+01
   -0.419993   14.01923  0.0000E+00  0.4630E-05  0.1970E-07  0.3468E-03  0.1137E-02  0.1939E+01
   -0.454994   14.01974  0.0000E+00  0.4397E-05  0.1717E-07  0.3552E-03  0.8931E-03  0.2058E+01
   -0.489994   14.02024  0.0000E+00  0.4190E-05  0.1515E-07  0.3615E-03  0.6758E-03  0.1846E+01
   -0.524995   14.02075  0.0000E+00  0.3990E-05  0.1341E-07  0.3819E-03  0.4858E-03  0.1101E+01
   -0.559996   14.02117  0.0000E+00  0.3806E-05  0.1194E-07  0.3927E-03  0.3561E-03  0.6287E+00
   -0.594998   14.02149  0.0000E+00  0.3642E-05  0.1068E-07  0.4061E-03  0.2821E-03  0.3852E+00
   -0.629999   14.02169  0.0000E+00  0.3527E-05  0.9801E-08  0.4143E-03  0.2467E-03  0.4527E+00
   -0.665000   14.02190  0.0000E+00  0.3440E-05  0.9126E-08  0.4188E-03  0.2193E-03  0.5227E+00
   -0.700001   14.02213  0.0000E+00  0.3369E-05  0.8569E-08  0.4248E-03  0.1945E-03  0.6204E+00
   -0.735002   14.02236  0.0000E+00  0.3311E-05  0.8105E-08  0.4311E-03  0.1722E-03  0.7438E+00
   -0.770004   14.02259  0.0000E+00  0.3264E-05  0.7721E-08  0.4375E-03  0.1524E-03  0.9040E+00
   -0.805005   14.02284  0.0000E+00  0.3226E-05  0.7406E-08  0.4434E-03  0.1349E-03  0.1111E+01
   -0.840006   14.02309  0.0000E+00  0.3196E-05  0.7153E-08  0.4487E-03  0.1192E-03  0.1377E+01
   -0.875007   14.02336  0.0000E+00  0.3172E-05  0.6955E-08  0.4530E-03  0.1053E-03  0.1705E+01
   -0.910008   14.02363  0.0000E+00  0.3154E-05  0.6807E-08  0.4559E-03  0.9296E-04  0.2143E+01
   -0.945009   14.02393  0.0000E+00  0.3140E-05  0.6707E-08  0.4570E-03  0.8179E-04  0.2659E+01
   -0.980010   14.02424  0.0000E+00  0.3128E-05  0.6653E-08  0.4561E-03  0.7159E-04  0.3303E+01
   -1.015010   14.02457  0.0000E+00  0.3118E-05  0.6643E-08  0.4531E-03  0.6224E-04  0.4140E+01
   -1.050011   14.02492  0.0000E+00  0.3108E-05  0.6680E-08  0.4472E-03  0.5387E-04  0.5503E+01
   -1.085011   14.02529  0.0000E+00  0.3098E-05  0.6771E-08  0.4378E-03  0.4641E-04  0.7481E+01
   -1.120011   14.02569  0.0000E+00  0.3085E-05  0.6927E-08  0.4244E-03  0.3981E-04  0.1058E+02
   -1.155011   14.02612  0.0000E+00  0.3070E-05  0.7161E-08  0.4065E-03  0.3372E-04  0.1450E+02
   -1.190010   14.02659  0.0000E+00  0.3049E-05  0.7502E-08  0.3831E-03  0.2806E-04  0.1990E+02
   -1.225010   14.02713  0.0000E+00  0.3018E-05  0.8044E-08  0.3537E-03  0.2280E-04  0.2756E+02
   -1.260009   14.02773  0.0000E+00  0.2966E-05  0.9048E-08  0.2975E-03  0.1820E-04  0.4752E+02
   -1.295008   14.02848  0.0000E+00  0.2847E-05  0.1164E-07  0.2608E-03  0.1438E-04  0.1096E+03
   -1.330006   14.02936  0.0000E+00  0.2589E-05  0.1929E-07  0.1335E-03  0.1176E-04 -0.5212E+04
   -1.365004   14.03273  0.0000E+00  0.1713E-05  0.5538E-07  0.2647E-04  0.8253E-05 -0.1130E+06
   -1.400002   14.04465  0.0000E+00  0.0000E+00  0.0000E+00  0.0000E+00  0.8819E-05  0.0000E+00
