 1 - depth, m
 2 - temperature, C
 3 - salinity, kg/kg
 4 - turbulent kinetic energy, m**2/s**2
 5 - dissipation rate, m**2/s**3
 6 - kinematic heat conductance, m**2/s
 7 - modulus of horizontal velocity, m/s
 8 - Richardson number, n/d
   -0.000000   15.67028  0.0000E+00  0.1143E-03  0.6610E-04  0.3949E-04  0.9700E-01  0.1322E-01
   -0.034998   15.69263  0.0000E+00  0.6725E-04  0.1936E-04  0.7166E-04  0.3423E-01  0.4165E-02
   -0.069996   15.69738  0.0000E+00  0.4951E-04  0.8215E-05  0.8594E-04  0.2380E-01 -0.1559E-01
   -0.104994   15.70067  0.0000E+00  0.3991E-04  0.4366E-05  0.9531E-04  0.1917E-01 -0.2184E-01
   -0.139993   15.70317  0.0000E+00  0.3347E-04  0.2518E-05  0.1060E-03  0.1594E-01 -0.2905E-01
   -0.174992   15.70528  0.0000E+00  0.2878E-04  0.1518E-05  0.1167E-03  0.1339E-01 -0.3740E-01
   -0.209991   15.70714  0.0000E+00  0.2525E-04  0.9562E-06  0.1270E-03  0.1126E-01 -0.4732E-01
   -0.244991   15.70884  0.0000E+00  0.2247E-04  0.6309E-06  0.1382E-03  0.9448E-02  0.4128E-01
   -0.279991   15.71041  0.0000E+00  0.2012E-04  0.4351E-06  0.1561E-03  0.7853E-02  0.2675E+03
   -0.314991   15.71188  0.0000E+00  0.1795E-04  0.3102E-06  0.1760E-03  0.6390E-02  0.3395E+02
   -0.349991   15.71318  0.0000E+00  0.1607E-04  0.2290E-06  0.1951E-03  0.5239E-02  0.1247E+02
   -0.384991   15.71435  0.0000E+00  0.1448E-04  0.1748E-06  0.2140E-03  0.4305E-02  0.2079E+01
   -0.419992   15.71544  0.0000E+00  0.1316E-04  0.1378E-06  0.2275E-03  0.3533E-02  0.6053E+02
   -0.454992   15.71646  0.0000E+00  0.1204E-04  0.1118E-06  0.2380E-03  0.2852E-02  0.3403E+01
   -0.489993   15.71745  0.0000E+00  0.1108E-04  0.9300E-07  0.2502E-03  0.2240E-02  0.1579E+03
   -0.524994   15.71839  0.0000E+00  0.1017E-04  0.7802E-07  0.2729E-03  0.1708E-02  0.1728E+02
   -0.559995   15.71919  0.0000E+00  0.9295E-05  0.6528E-07  0.3057E-03  0.1320E-02  0.5411E+02
   -0.594996   15.71982  0.0000E+00  0.8371E-05  0.5313E-07  0.3252E-03  0.1067E-02  0.3506E+04
   -0.629997   15.72027  0.0000E+00  0.7604E-05  0.4369E-07  0.3507E-03  0.9199E-03  0.1072E+04
   -0.664998   15.72071  0.0000E+00  0.6990E-05  0.3659E-07  0.3813E-03  0.7938E-03  0.3021E+04
   -0.699999   15.72113  0.0000E+00  0.6491E-05  0.3117E-07  0.4107E-03  0.6829E-03  0.2245E+04
   -0.735000   15.72151  0.0000E+00  0.6083E-05  0.2698E-07  0.4422E-03  0.5868E-03  0.1443E+03
   -0.770002   15.72186  0.0000E+00  0.5747E-05  0.2372E-07  0.4647E-03  0.5052E-03  0.1446E+03
   -0.805003   15.72220  0.0000E+00  0.5465E-05  0.2113E-07  0.4745E-03  0.4361E-03  0.2178E+05
   -0.840004   15.72253  0.0000E+00  0.5228E-05  0.1906E-07  0.4774E-03  0.3766E-03 -0.1723E+02
   -0.875005   15.72287  0.0000E+00  0.5026E-05  0.1739E-07  0.4790E-03  0.3253E-03  0.2724E+02
   -0.910005   15.72321  0.0000E+00  0.4855E-05  0.1607E-07  0.4795E-03  0.2814E-03  0.3481E+02
   -0.945006   15.72355  0.0000E+00  0.4710E-05  0.1503E-07  0.4785E-03  0.2430E-03  0.4493E+02
   -0.980007   15.72391  0.0000E+00  0.4586E-05  0.1424E-07  0.4756E-03  0.2090E-03  0.5844E+02
   -1.015007   15.72427  0.0000E+00  0.4479E-05  0.1365E-07  0.4705E-03  0.1789E-03  0.7700E+02
   -1.050008   15.72465  0.0000E+00  0.4384E-05  0.1324E-07  0.4628E-03  0.1532E-03  0.1083E+03
   -1.085008   15.72503  0.0000E+00  0.4298E-05  0.1301E-07  0.4525E-03  0.1314E-03  0.1559E+03
   -1.120008   15.72544  0.0000E+00  0.4217E-05  0.1294E-07  0.4380E-03  0.1128E-03  0.2344E+03
   -1.155008   15.72587  0.0000E+00  0.4140E-05  0.1308E-07  0.4213E-03  0.9612E-04  0.3366E+03
   -1.190007   15.72632  0.0000E+00  0.4061E-05  0.1351E-07  0.3944E-03  0.8079E-04  0.4811E+03
   -1.225006   15.72684  0.0000E+00  0.3969E-05  0.1443E-07  0.3698E-03  0.6614E-04  0.6574E+03
   -1.260005   15.72739  0.0000E+00  0.3839E-05  0.1656E-07  0.3077E-03  0.5346E-04  0.9406E+03
   -1.295004   15.72818  0.0000E+00  0.3587E-05  0.2243E-07  0.2773E-03  0.4136E-04  0.6215E+04
   -1.330003   15.72885  0.0000E+00  0.3135E-05  0.3942E-07  0.1435E-03  0.3449E-04  0.1333E+06
   -1.365001   15.73238  0.0000E+00  0.2030E-05  0.1044E-06  0.3635E-04  0.2406E-04 -0.9065E+08
   -1.399999   15.74011  0.0000E+00  0.0000E+00  0.0000E+00  0.0000E+00  0.2820E-04  0.0000E+00
