 1 - depth, m
 2 - temperature, C
 3 - salinity, kg/kg
 4 - turbulent kinetic energy, m**2/s**2
 5 - dissipation rate, m**2/s**3
 6 - kinematic heat conductance, m**2/s
 7 - modulus of horizontal velocity, m/s
 8 - Richardson number, n/d
   -0.000000    2.23118  0.0000E+00  0.6333E-04  0.1602E-04  0.3628E-04  0.6257E-01 -0.2446E-02
   -0.034998    2.18540  0.0000E+00  0.4068E-04  0.4784E-05  0.5414E-04  0.2721E-01 -0.1123E-01
   -0.069997    2.17736  0.0000E+00  0.3176E-04  0.2240E-05  0.6678E-04  0.2040E-01 -0.2888E-02
   -0.104996    2.17200  0.0000E+00  0.2636E-04  0.1239E-05  0.7786E-04  0.1656E-01 -0.2926E-01
   -0.139995    2.16797  0.0000E+00  0.2253E-04  0.7557E-06  0.8761E-04  0.1373E-01 -0.4458E-02
   -0.174994    2.16482  0.0000E+00  0.1964E-04  0.4966E-06  0.9574E-04  0.1150E-01 -0.4878E-02
   -0.209994    2.16234  0.0000E+00  0.1737E-04  0.3474E-06  0.1019E-03  0.9653E-02 -0.4921E-02
   -0.244994    2.16043  0.0000E+00  0.1548E-04  0.2552E-06  0.1055E-03  0.8080E-02 -0.4499E-02
   -0.279994    2.15901  0.0000E+00  0.1378E-04  0.1932E-06  0.1056E-03  0.6689E-02 -0.3665E-02
   -0.314994    2.15810  0.0000E+00  0.1205E-04  0.1464E-06  0.1087E-03  0.5398E-02 -0.2985E-02
   -0.349995    2.15771  0.0000E+00  0.1047E-04  0.1117E-06  0.1093E-03  0.4366E-02  0.3563E-03
   -0.384996    2.15791  0.0000E+00  0.9087E-05  0.8601E-07  0.1080E-03  0.3530E-02  0.1096E-01
   -0.419997    2.15891  0.0000E+00  0.7904E-05  0.6722E-07  0.1040E-03  0.2841E-02  0.2807E-01
   -0.454998    2.16116  0.0000E+00  0.6877E-05  0.5317E-07  0.9860E-04  0.2224E-02  0.5675E-01
   -0.489999    2.16600  0.0000E+00  0.5946E-05  0.4218E-07  0.9335E-04  0.1643E-02  0.1445E+00
   -0.525000    2.19713  0.0000E+00  0.4996E-05  0.3213E-07  0.9048E-04  0.1075E-02  0.3586E+01
   -0.560001    2.32781  0.0000E+00  0.4149E-05  0.2415E-07  0.8567E-04  0.6845E-03  0.2188E+04
   -0.595003    2.50906  0.0000E+00  0.3361E-05  0.1763E-07  0.7818E-04  0.4754E-03  0.1133E+08
   -0.630004    2.71337  0.0000E+00  0.2685E-05  0.1266E-07  0.7084E-04  0.3861E-03  0.2560E+05
   -0.665006    2.90806  0.0000E+00  0.2157E-05  0.9158E-08  0.6636E-04  0.2995E-03 -0.5122E+05
   -0.700007    3.03181  0.0000E+00  0.1745E-05  0.6681E-08  0.6210E-04  0.2272E-03  0.7545E+07
   -0.735009    3.14644  0.0000E+00  0.1410E-05  0.4861E-08  0.5851E-04  0.1673E-03  0.1355E+09
   -0.770010    3.23620  0.0000E+00  0.1139E-05  0.3531E-08  0.5569E-04  0.1192E-03  0.3094E+09
   -0.805012    3.30788  0.0000E+00  0.9161E-06  0.2544E-08  0.5357E-04  0.8349E-04  0.2810E+08
   -0.840013    3.40041  0.0000E+00  0.7400E-06  0.1834E-08  0.5204E-04  0.5601E-04  0.2633E+08
   -0.875015    3.48203  0.0000E+00  0.6022E-06  0.1325E-08  0.4952E-04  0.3691E-04  0.2367E+08
   -0.910016    3.54299  0.0000E+00  0.4916E-06  0.9567E-09  0.4807E-04  0.2389E-04  0.2072E+09
   -0.945017    3.59245  0.0000E+00  0.3998E-06  0.6833E-09  0.4612E-04  0.1457E-04  0.1381E+08
   -0.980018    3.64207  0.0000E+00  0.3256E-06  0.4908E-09  0.4233E-04  0.8081E-05  0.1729E+09
   -1.015019    3.69503  0.0000E+00  0.2670E-06  0.3588E-09  0.3909E-04  0.4062E-05  0.4998E+09
   -1.050020    3.74636  0.0000E+00  0.2198E-06  0.2662E-09  0.3549E-04  0.1983E-05  0.1116E+10
   -1.085020    3.79205  0.0000E+00  0.1782E-06  0.1949E-09  0.3265E-04  0.8752E-06  0.1915E+10
   -1.120021    3.84317  0.0000E+00  0.1391E-06  0.1364E-09  0.3038E-04  0.3127E-06  0.1627E+10
   -1.155021    3.90519  0.0000E+00  0.1080E-06  0.9677E-10  0.2909E-04  0.7357E-07  0.2299E+11
   -1.190021    3.97067  0.0000E+00  0.8881E-07  0.7688E-10  0.2832E-04  0.1025E-07 -0.2399E+12
   -1.225021    4.01939  0.0000E+00  0.8212E-07  0.7423E-10  0.2722E-04  0.1562E-08 -0.1924E+13
   -1.260020    4.05067  0.0000E+00  0.8239E-07  0.8512E-10  0.2528E-04  0.5377E-09 -0.5762E+13
   -1.295019    4.07040  0.0000E+00  0.8612E-07  0.1210E-09  0.2139E-04  0.2425E-09 -0.2186E+14
   -1.330018    4.09610  0.0000E+00  0.8963E-07  0.2067E-09  0.1373E-04  0.1321E-09 -0.6078E+14
   -1.365017    4.13761  0.0000E+00  0.8468E-07  0.5880E-09  0.3355E-05  0.4909E-10 -0.4559E+15
   -1.400015    4.28288  0.0000E+00  0.0000E+00  0.0000E+00  0.0000E+00  0.4935E-10  0.0000E+00
