 1 - depth, m
 2 - temperature, C
 3 - salinity, kg/kg
 4 - turbulent kinetic energy, m**2/s**2
 5 - dissipation rate, m**2/s**3
 6 - kinematic heat conductance, m**2/s
 7 - modulus of horizontal velocity, m/s
 8 - Richardson number, n/d
   -0.000000   15.28541  0.0000E+00  0.1310E-03  0.8714E-04  0.4202E-04  0.9329E-01 -0.2914E-01
   -0.034998   15.31382  0.0000E+00  0.7291E-04  0.2193E-04  0.8114E-04  0.3124E-01 -0.6115E-01
   -0.069997   15.31993  0.0000E+00  0.5286E-04  0.9606E-05  0.9921E-04  0.2119E-01  0.1299E+03
   -0.104996   15.32395  0.0000E+00  0.4269E-04  0.5439E-05  0.1131E-03  0.1714E-01  0.3872E+01
   -0.139995   15.32682  0.0000E+00  0.3571E-04  0.3250E-05  0.1298E-03  0.1436E-01  0.3751E+02
   -0.174995   15.32912  0.0000E+00  0.3053E-04  0.2003E-05  0.1490E-03  0.1216E-01  0.9560E+01
   -0.209995   15.33110  0.0000E+00  0.2660E-04  0.1274E-05  0.1684E-03  0.1032E-01  0.1886E+03
   -0.244995   15.33285  0.0000E+00  0.2356E-04  0.8414E-06  0.1885E-03  0.8717E-02  0.4260E+01
   -0.279995   15.33446  0.0000E+00  0.2105E-04  0.5779E-06  0.2051E-03  0.7294E-02  0.1480E+03
   -0.314996   15.33599  0.0000E+00  0.1879E-04  0.4097E-06  0.2278E-03  0.5972E-02  0.1249E+04
   -0.349996   15.33736  0.0000E+00  0.1687E-04  0.3002E-06  0.2501E-03  0.4929E-02  0.8307E+03
   -0.384997   15.33861  0.0000E+00  0.1525E-04  0.2269E-06  0.2728E-03  0.4085E-02  0.6235E+01
   -0.419998   15.33976  0.0000E+00  0.1392E-04  0.1769E-06  0.2898E-03  0.3384E-02  0.1094E+02
   -0.454999   15.34086  0.0000E+00  0.1279E-04  0.1419E-06  0.3024E-03  0.2762E-02  0.2265E+02
   -0.490001   15.34193  0.0000E+00  0.1182E-04  0.1171E-06  0.3167E-03  0.2200E-02  0.9040E+04
   -0.525002   15.34293  0.0000E+00  0.1090E-04  0.9765E-07  0.3406E-03  0.1709E-02  0.1320E+03
   -0.560003   15.34381  0.0000E+00  0.1001E-04  0.8134E-07  0.3644E-03  0.1349E-02  0.9076E+02
   -0.595005   15.34452  0.0000E+00  0.9069E-05  0.6587E-07  0.3935E-03  0.1112E-02  0.2580E+03
   -0.630007   15.34505  0.0000E+00  0.8276E-05  0.5383E-07  0.4283E-03  0.9708E-03  0.1243E+03
   -0.665008   15.34553  0.0000E+00  0.7634E-05  0.4474E-07  0.4648E-03  0.8462E-03  0.3103E+04
   -0.700010   15.34597  0.0000E+00  0.7105E-05  0.3779E-07  0.4968E-03  0.7345E-03  0.3169E+02
   -0.735012   15.34638  0.0000E+00  0.6663E-05  0.3237E-07  0.5117E-03  0.6358E-03  0.5883E+02
   -0.770013   15.34677  0.0000E+00  0.6290E-05  0.2810E-07  0.5219E-03  0.5488E-03  0.9427E+01
   -0.805015   15.34715  0.0000E+00  0.5975E-05  0.2473E-07  0.5283E-03  0.4732E-03  0.2601E+01
   -0.840016   15.34752  0.0000E+00  0.5710E-05  0.2207E-07  0.5320E-03  0.4078E-03  0.4280E+01
   -0.875018   15.34790  0.0000E+00  0.5486E-05  0.1998E-07  0.5333E-03  0.3510E-03  0.3355E+01
   -0.910019   15.34828  0.0000E+00  0.5294E-05  0.1833E-07  0.5320E-03  0.3023E-03  0.4086E+01
   -0.945021   15.34868  0.0000E+00  0.5131E-05  0.1706E-07  0.5284E-03  0.2595E-03  0.5021E+01
   -0.980022   15.34909  0.0000E+00  0.4991E-05  0.1612E-07  0.5222E-03  0.2217E-03  0.6155E+01
   -1.015023   15.34951  0.0000E+00  0.4870E-05  0.1546E-07  0.5132E-03  0.1882E-03  0.7751E+01
   -1.050024   15.34995  0.0000E+00  0.4764E-05  0.1504E-07  0.5010E-03  0.1600E-03  0.1027E+02
   -1.085024   15.35042  0.0000E+00  0.4668E-05  0.1487E-07  0.4854E-03  0.1365E-03  0.1416E+02
   -1.120025   15.35090  0.0000E+00  0.4578E-05  0.1495E-07  0.4652E-03  0.1172E-03  0.2021E+02
   -1.155025   15.35143  0.0000E+00  0.4489E-05  0.1536E-07  0.4427E-03  0.9980E-04  0.2723E+02
   -1.190025   15.35200  0.0000E+00  0.4392E-05  0.1626E-07  0.4080E-03  0.8375E-04  0.4189E+02
   -1.225025   15.35266  0.0000E+00  0.4274E-05  0.1802E-07  0.3798E-03  0.6815E-04  0.4857E+02
   -1.260025   15.35341  0.0000E+00  0.4099E-05  0.2217E-07  0.3026E-03  0.5430E-04 -0.4165E+04
   -1.295024   15.35461  0.0000E+00  0.3766E-05  0.3311E-07  0.2846E-03  0.4051E-04  0.3707E+04
   -1.330023   15.35534  0.0000E+00  0.3194E-05  0.6576E-07  0.1252E-03  0.3382E-04  0.1390E+07
   -1.365021   15.36129  0.0000E+00  0.2069E-05  0.1639E-06  0.4862E-04  0.2178E-04 -0.1318E+08
   -1.400020   15.36820  0.0000E+00  0.0000E+00  0.0000E+00  0.0000E+00  0.2914E-04  0.0000E+00
