 1 - depth, m
 2 - temperature, C
 3 - salinity, kg/kg
 4 - turbulent kinetic energy, m**2/s**2
 5 - dissipation rate, m**2/s**3
 6 - kinematic heat conductance, m**2/s
 7 - modulus of horizontal velocity, m/s
 8 - Richardson number, n/d
   -0.000000   17.56883  0.0000E+00  0.6540E-04  0.1610E-04  0.3798E-04  0.6405E-01 -0.8183E-01
   -0.034998   17.61984  0.0000E+00  0.3941E-04  0.4659E-05  0.5572E-04  0.2447E-01 -0.2047E-01
   -0.069996   17.63019  0.0000E+00  0.3020E-04  0.2085E-05  0.6727E-04  0.1803E-01 -0.4135E-01
   -0.104995   17.63721  0.0000E+00  0.2475E-04  0.1120E-05  0.8054E-04  0.1442E-01 -0.5849E-01
   -0.139994   17.64268  0.0000E+00  0.2104E-04  0.6698E-06  0.9454E-04  0.1179E-01 -0.4798E-01
   -0.174993   17.64724  0.0000E+00  0.1837E-04  0.4345E-06  0.1088E-03  0.9735E-02 -0.6762E-01
   -0.209992   17.65111  0.0000E+00  0.1637E-04  0.3006E-06  0.1244E-03  0.8062E-02 -0.8375E-02
   -0.244992   17.65444  0.0000E+00  0.1480E-04  0.2193E-06  0.1542E-03  0.6669E-02  0.1077E+03
   -0.279992   17.65722  0.0000E+00  0.1350E-04  0.1665E-06  0.1956E-03  0.5492E-02  0.8899E+03
   -0.314992   17.65951  0.0000E+00  0.1235E-04  0.1296E-06  0.2544E-03  0.4471E-02  0.3919E+03
   -0.349992   17.66129  0.0000E+00  0.1139E-04  0.1036E-06  0.3367E-03  0.3668E-02  0.4268E+03
   -0.384993   17.66258  0.0000E+00  0.1060E-04  0.8477E-07  0.3755E-03  0.3027E-02  0.3071E+02
   -0.419993   17.66362  0.0000E+00  0.9943E-05  0.7080E-07  0.3903E-03  0.2481E-02  0.2505E+02
   -0.454994   17.66457  0.0000E+00  0.9384E-05  0.6025E-07  0.4011E-03  0.1989E-02  0.2988E+02
   -0.489995   17.66545  0.0000E+00  0.8899E-05  0.5216E-07  0.4060E-03  0.1543E-02  0.3102E+01
   -0.524996   17.66629  0.0000E+00  0.8435E-05  0.4535E-07  0.4319E-03  0.1143E-02  0.1475E+01
   -0.559997   17.66707  0.0000E+00  0.7991E-05  0.3943E-07  0.4780E-03  0.8507E-03  0.9384E+00
   -0.594998   17.66777  0.0000E+00  0.7563E-05  0.3407E-07  0.5329E-03  0.6663E-03  0.6859E+00
   -0.629999   17.66839  0.0000E+00  0.7245E-05  0.3024E-07  0.5475E-03  0.5715E-03  0.1780E+00
   -0.665001   17.66899  0.0000E+00  0.6994E-05  0.2737E-07  0.5588E-03  0.4988E-03  0.8178E+00
   -0.700002   17.66956  0.0000E+00  0.6781E-05  0.2504E-07  0.5717E-03  0.4335E-03  0.8072E+00
   -0.735003   17.67011  0.0000E+00  0.6598E-05  0.2317E-07  0.5826E-03  0.3766E-03  0.8208E+00
   -0.770004   17.67064  0.0000E+00  0.6440E-05  0.2168E-07  0.5911E-03  0.3279E-03  0.8307E+00
   -0.805006   17.67116  0.0000E+00  0.6302E-05  0.2049E-07  0.5967E-03  0.2868E-03  0.8412E+00
   -0.840007   17.67167  0.0000E+00  0.6180E-05  0.1958E-07  0.5992E-03  0.2522E-03  0.8531E+00
   -0.875008   17.67216  0.0000E+00  0.6071E-05  0.1887E-07  0.5987E-03  0.2231E-03  0.8737E+00
   -0.910009   17.67265  0.0000E+00  0.5972E-05  0.1835E-07  0.5954E-03  0.1986E-03  0.9454E+00
   -0.945010   17.67314  0.0000E+00  0.5878E-05  0.1799E-07  0.5891E-03  0.1772E-03  0.1058E+01
   -0.980011   17.67363  0.0000E+00  0.5787E-05  0.1777E-07  0.5791E-03  0.1580E-03  0.1239E+01
   -1.015011   17.67411  0.0000E+00  0.5694E-05  0.1770E-07  0.5655E-03  0.1404E-03  0.1511E+01
   -1.050012   17.67461  0.0000E+00  0.5595E-05  0.1780E-07  0.5445E-03  0.1243E-03  0.2002E+01
   -1.085012   17.67512  0.0000E+00  0.5486E-05  0.1813E-07  0.5227E-03  0.1095E-03  0.2751E+01
   -1.120012   17.67565  0.0000E+00  0.5366E-05  0.1881E-07  0.4857E-03  0.9590E-04  0.4108E+01
   -1.155012   17.67622  0.0000E+00  0.5232E-05  0.1998E-07  0.4643E-03  0.8273E-04  0.6051E+01
   -1.190012   17.67682  0.0000E+00  0.5073E-05  0.2224E-07  0.4062E-03  0.7036E-04 -0.9937E+02
   -1.225011   17.67764  0.0000E+00  0.4861E-05  0.2644E-07  0.3890E-03  0.5678E-04  0.4339E+04
   -1.260010   17.67847  0.0000E+00  0.4533E-05  0.3622E-07  0.2968E-03  0.4513E-04 -0.1316E+05
   -1.295009   17.68069  0.0000E+00  0.3932E-05  0.6151E-07  0.2747E-03  0.3200E-04  0.6051E+05
   -1.330008   17.68079  0.0000E+00  0.3144E-05  0.1334E-06  0.1232E-03  0.2703E-04 -0.2843E+06
   -1.365006   17.68957  0.0000E+00  0.2071E-05  0.3197E-06  0.7547E-04  0.1662E-04 -0.5263E+06
   -1.400004   17.69302  0.0000E+00  0.0000E+00  0.0000E+00  0.0000E+00  0.2462E-04  0.0000E+00
