 1 - depth, m
 2 - temperature, C
 3 - salinity, kg/kg
 4 - turbulent kinetic energy, m**2/s**2
 5 - dissipation rate, m**2/s**3
 6 - kinematic heat conductance, m**2/s
 7 - modulus of horizontal velocity, m/s
 8 - Richardson number, n/d
   -0.000000   11.09234  0.0000E+00  0.1901E-03  0.2133E-03  0.5764E-04  0.1331E+00  0.6880E-01
   -0.034998   11.19677  0.0000E+00  0.1045E-03  0.6226E-04  0.9600E-04  0.4352E-01 -0.6333E+00
   -0.069996   11.22082  0.0000E+00  0.7371E-04  0.2216E-04  0.1151E-03  0.2864E-01 -0.2778E-01
   -0.104995   11.23626  0.0000E+00  0.5838E-04  0.1205E-04  0.1194E-03  0.2263E-01 -0.3386E-01
   -0.139993   11.24622  0.0000E+00  0.4813E-04  0.6403E-05  0.1291E-03  0.1867E-01 -0.4342E-01
   -0.174993   11.25367  0.0000E+00  0.4092E-04  0.3703E-05  0.1391E-03  0.1564E-01 -0.5165E-01
   -0.209992   11.25990  0.0000E+00  0.3556E-04  0.2248E-05  0.1493E-03  0.1318E-01 -0.6091E-01
   -0.244991   11.26565  0.0000E+00  0.3143E-04  0.1432E-05  0.1595E-03  0.1110E-01 -0.7050E-01
   -0.279991   11.27052  0.0000E+00  0.2807E-04  0.9515E-06  0.1684E-03  0.9310E-02  0.1523E+02
   -0.314991   11.27516  0.0000E+00  0.2508E-04  0.6553E-06  0.1900E-03  0.7644E-02  0.1973E+02
   -0.349992   11.27901  0.0000E+00  0.2258E-04  0.4696E-06  0.2369E-03  0.6365E-02  0.1776E+03
   -0.384992   11.28234  0.0000E+00  0.2052E-04  0.3518E-06  0.2788E-03  0.5337E-02  0.2288E+02
   -0.419993   11.28512  0.0000E+00  0.1883E-04  0.2737E-06  0.3175E-03  0.4481E-02  0.4915E+02
   -0.454993   11.28765  0.0000E+00  0.1740E-04  0.2199E-06  0.3460E-03  0.3710E-02  0.4374E+02
   -0.489994   11.28992  0.0000E+00  0.1618E-04  0.1827E-06  0.3723E-03  0.2999E-02  0.1131E+04
   -0.524995   11.29199  0.0000E+00  0.1502E-04  0.1537E-06  0.4131E-03  0.2366E-02  0.9494E+02
   -0.559996   11.29377  0.0000E+00  0.1387E-04  0.1292E-06  0.4608E-03  0.1887E-02  0.4309E+03
   -0.594997   11.29525  0.0000E+00  0.1263E-04  0.1057E-06  0.5083E-03  0.1558E-02  0.5107E+03
   -0.629998   11.29648  0.0000E+00  0.1162E-04  0.8764E-07  0.5285E-03  0.1368E-02  0.1833E+03
   -0.664999   11.29766  0.0000E+00  0.1078E-04  0.7395E-07  0.5334E-03  0.1205E-02  0.6393E+02
   -0.700001   11.29880  0.0000E+00  0.1007E-04  0.6312E-07  0.5403E-03  0.1053E-02  0.7940E+02
   -0.735002   11.29991  0.0000E+00  0.9456E-05  0.5450E-07  0.5484E-03  0.9154E-03  0.4906E+03
   -0.770003   11.30099  0.0000E+00  0.8930E-05  0.4761E-07  0.5537E-03  0.7936E-03  0.3028E+02
   -0.805004   11.30205  0.0000E+00  0.8468E-05  0.4200E-07  0.5602E-03  0.6859E-03  0.4034E+02
   -0.840005   11.30308  0.0000E+00  0.8063E-05  0.3749E-07  0.5651E-03  0.5912E-03  0.1649E+02
   -0.875006   11.30409  0.0000E+00  0.7709E-05  0.3392E-07  0.5679E-03  0.5090E-03  0.2321E+02
   -0.910007   11.30509  0.0000E+00  0.7397E-05  0.3111E-07  0.5670E-03  0.4387E-03  0.1549E+02
   -0.945008   11.30609  0.0000E+00  0.7120E-05  0.2897E-07  0.5619E-03  0.3774E-03  0.2506E+02
   -0.980009   11.30708  0.0000E+00  0.6874E-05  0.2742E-07  0.5519E-03  0.3234E-03  0.3128E+02
   -1.015009   11.30809  0.0000E+00  0.6653E-05  0.2639E-07  0.5370E-03  0.2761E-03  0.9444E+02
   -1.050010   11.30912  0.0000E+00  0.6450E-05  0.2584E-07  0.5176E-03  0.2362E-03  0.5750E+03
   -1.085010   11.31018  0.0000E+00  0.6257E-05  0.2580E-07  0.4987E-03  0.2031E-03  0.5149E+02
   -1.120010   11.31129  0.0000E+00  0.6065E-05  0.2645E-07  0.4674E-03  0.1756E-03  0.7937E+02
   -1.155010   11.31250  0.0000E+00  0.5864E-05  0.2806E-07  0.4477E-03  0.1501E-03  0.1031E+03
   -1.190010   11.31380  0.0000E+00  0.5629E-05  0.3165E-07  0.3964E-03  0.1265E-03  0.4441E+03
   -1.225009   11.31563  0.0000E+00  0.5337E-05  0.3844E-07  0.3743E-03  0.1003E-03  0.6781E+03
   -1.260008   11.31748  0.0000E+00  0.4912E-05  0.5553E-07  0.2893E-03  0.7809E-04 -0.3008E+04
   -1.295007   11.32262  0.0000E+00  0.4248E-05  0.9638E-07  0.2676E-03  0.5385E-04  0.5795E+05
   -1.330005   11.32195  0.0000E+00  0.3395E-05  0.2117E-06  0.1247E-03  0.4634E-04  0.1599E+06
   -1.365004   11.34095  0.0000E+00  0.2280E-05  0.4849E-06  0.8061E-04  0.2780E-04 -0.5389E+08
   -1.400001   11.34863  0.0000E+00  0.0000E+00  0.0000E+00  0.0000E+00  0.4635E-04  0.0000E+00
