 1 - depth, m
 2 - temperature, C
 3 - salinity, kg/kg
 4 - turbulent kinetic energy, m**2/s**2
 5 - dissipation rate, m**2/s**3
 6 - kinematic heat conductance, m**2/s
 7 - modulus of horizontal velocity, m/s
 8 - Richardson number, n/d
   -0.000000    7.13469  0.0000E+00  0.2414E-03  0.2406E-03  0.6971E-04  0.1690E+00  0.9218E-02
   -0.034998    7.22015  0.0000E+00  0.1379E-03  0.7935E-04  0.1101E-03  0.5339E-01 -0.1817E-01
   -0.069996    7.24203  0.0000E+00  0.9714E-04  0.2733E-04  0.1360E-03  0.3472E-01 -0.1672E+00
   -0.104994    7.25338  0.0000E+00  0.7750E-04  0.1453E-04  0.1395E-03  0.2776E-01 -0.3330E-01
   -0.139993    7.26031  0.0000E+00  0.6458E-04  0.8441E-05  0.1469E-03  0.2327E-01 -0.1085E-01
   -0.174992    7.26558  0.0000E+00  0.5503E-04  0.5031E-05  0.1552E-03  0.1975E-01 -0.1259E-01
   -0.209991    7.27007  0.0000E+00  0.4793E-04  0.3089E-05  0.1634E-03  0.1683E-01 -0.6785E+00
   -0.244991    7.27409  0.0000E+00  0.4234E-04  0.1949E-05  0.1704E-03  0.1434E-01 -0.1587E-01
   -0.279991    7.27780  0.0000E+00  0.3777E-04  0.1289E-05  0.1742E-03  0.1212E-01 -0.1697E-01
   -0.314991    7.28142  0.0000E+00  0.3363E-04  0.8930E-06  0.1838E-03  0.1002E-01  0.4002E+01
   -0.349991    7.28469  0.0000E+00  0.3010E-04  0.6498E-06  0.1915E-03  0.8389E-02  0.6663E+00
   -0.384991    7.28768  0.0000E+00  0.2711E-04  0.4929E-06  0.1981E-03  0.7053E-02  0.7736E+01
   -0.419992    7.29045  0.0000E+00  0.2460E-04  0.3875E-06  0.2016E-03  0.5931E-02  0.9555E+01
   -0.454992    7.29310  0.0000E+00  0.2245E-04  0.3134E-06  0.2043E-03  0.4919E-02  0.1148E+02
   -0.489993    7.29564  0.0000E+00  0.2055E-04  0.2598E-06  0.2080E-03  0.3991E-02  0.3423E+03
   -0.524994    7.29808  0.0000E+00  0.1875E-04  0.2172E-06  0.2185E-03  0.3170E-02  0.7939E+02
   -0.559995    7.30032  0.0000E+00  0.1700E-04  0.1811E-06  0.2285E-03  0.2564E-02  0.2498E+02
   -0.594996    7.30243  0.0000E+00  0.1511E-04  0.1464E-06  0.2400E-03  0.2158E-02  0.3100E+04
   -0.629997    7.30442  0.0000E+00  0.1346E-04  0.1185E-06  0.2576E-03  0.1910E-02  0.1903E+04
   -0.664998    7.30632  0.0000E+00  0.1207E-04  0.9693E-07  0.2861E-03  0.1680E-02  0.2415E+04
   -0.699999    7.30808  0.0000E+00  0.1091E-04  0.8008E-07  0.3136E-03  0.1470E-02  0.2601E+04
   -0.735000    7.30968  0.0000E+00  0.9910E-05  0.6676E-07  0.3446E-03  0.1280E-02  0.4947E+03
   -0.770001    7.31113  0.0000E+00  0.9055E-05  0.5614E-07  0.3782E-03  0.1111E-02  0.3936E+03
   -0.805002    7.31243  0.0000E+00  0.8315E-05  0.4760E-07  0.4115E-03  0.9631E-03  0.2309E+03
   -0.840003    7.31361  0.0000E+00  0.7677E-05  0.4073E-07  0.4394E-03  0.8319E-03  0.1708E+04
   -0.875004    7.31467  0.0000E+00  0.7123E-05  0.3520E-07  0.4597E-03  0.7168E-03  0.5931E+03
   -0.910005    7.31565  0.0000E+00  0.6640E-05  0.3073E-07  0.4665E-03  0.6169E-03  0.1926E+03
   -0.945006    7.31659  0.0000E+00  0.6222E-05  0.2716E-07  0.4672E-03  0.5279E-03  0.2744E+03
   -0.980007    7.31750  0.0000E+00  0.5861E-05  0.2434E-07  0.4657E-03  0.4481E-03  0.2792E+03
   -1.015007    7.31839  0.0000E+00  0.5548E-05  0.2215E-07  0.4612E-03  0.3771E-03  0.3603E+03
   -1.050008    7.31928  0.0000E+00  0.5276E-05  0.2050E-07  0.4526E-03  0.3166E-03  0.5059E+03
   -1.085008    7.32016  0.0000E+00  0.5038E-05  0.1932E-07  0.4403E-03  0.2662E-03  0.7335E+03
   -1.120008    7.32104  0.0000E+00  0.4829E-05  0.1859E-07  0.4231E-03  0.2251E-03  0.1123E+04
   -1.155007    7.32196  0.0000E+00  0.4641E-05  0.1838E-07  0.4040E-03  0.1893E-03  0.1653E+04
   -1.190007    7.32292  0.0000E+00  0.4461E-05  0.1890E-07  0.3720E-03  0.1571E-03  0.2441E+04
   -1.225006    7.32404  0.0000E+00  0.4262E-05  0.2054E-07  0.3443E-03  0.1259E-03  0.3631E+04
   -1.260005    7.32530  0.0000E+00  0.3997E-05  0.2496E-07  0.2883E-03  0.9845E-04  0.6409E+04
   -1.295004    7.32724  0.0000E+00  0.3552E-05  0.3642E-07  0.2400E-03  0.7236E-04  0.3261E+05
   -1.330002    7.32857  0.0000E+00  0.2910E-05  0.7017E-07  0.1388E-03  0.5927E-04  0.1188E+07
   -1.365001    7.33543  0.0000E+00  0.1861E-05  0.1706E-06  0.4045E-04  0.3997E-04 -0.5636E+09
   -1.399998    7.34995  0.0000E+00  0.0000E+00  0.0000E+00  0.0000E+00  0.5561E-04  0.0000E+00
