 1 - depth, m
 2 - temperature, C
 3 - salinity, kg/kg
 4 - turbulent kinetic energy, m**2/s**2
 5 - dissipation rate, m**2/s**3
 6 - kinematic heat conductance, m**2/s
 7 - modulus of horizontal velocity, m/s
 8 - Richardson number, n/d
   -0.000000    0.00000  0.0000E+00  0.1551E-12  0.1244E-15  0.1000E-09  0.0000E+00  0.2381E+17
   -0.034997    0.37609  0.0000E+00  0.2488E-12  0.1325E-15  0.1000E-09  0.0000E+00  0.1930E+17
   -0.069995    0.71472  0.0000E+00  0.4846E-12  0.1690E-15  0.1000E-09  0.0000E+00  0.1572E+17
   -0.104992    1.02062  0.0000E+00  0.9870E-12  0.2570E-15  0.1000E-09  0.0000E+00  0.1289E+17
   -0.139991    1.29879  0.0000E+00  0.1917E-11  0.4470E-15  0.1000E-09  0.0000E+00  0.1066E+17
   -0.174989    1.55387  0.0000E+00  0.3601E-11  0.8037E-15  0.1000E-09  0.0000E+00  0.8878E+16
   -0.209988    1.78993  0.0000E+00  0.6658E-11  0.1448E-14  0.1000E-09  0.0000E+00  0.7465E+16
   -0.244986    2.01103  0.0000E+00  0.1222E-10  0.2604E-14  0.1000E-09  0.0000E+00  0.6326E+16
   -0.279986    2.22074  0.0000E+00  0.2233E-10  0.4667E-14  0.1000E-09  0.0000E+00  0.5392E+16
   -0.314985    2.42226  0.0000E+00  0.4093E-10  0.8392E-14  0.1000E-09  0.0000E+00  0.4318E+16
   -0.349984    2.60535  0.0000E+00  0.7542E-10  0.1517E-13  0.1000E-09  0.0000E+00  0.3418E+16
   -0.384984    2.77017  0.0000E+00  0.1390E-09  0.2743E-13  0.1000E-09  0.0000E+00  0.2685E+16
   -0.419984    2.91776  0.0000E+00  0.2549E-09  0.4934E-13  0.1048E-09  0.0000E+00  0.2266E+16
   -0.454984    3.06087  0.0000E+00  0.4649E-09  0.8828E-13  0.1357E-09  0.0000E+00  0.1976E+16
   -0.489984    3.20716  0.0000E+00  0.8446E-09  0.1574E-12  0.2603E-09  0.0000E+00  0.1619E+16
   -0.524984    3.35221  0.0000E+00  0.1600E-08  0.2923E-12  0.7461E-09  0.0000E+00  0.1038E+16
   -0.559985    3.46721  0.0000E+00  0.3173E-08  0.5681E-12  0.3049E-08  0.0000E+00  0.4648E+15
   -0.594985    3.53152  0.0000E+00  0.5552E-08  0.9687E-12  0.5615E-05  0.0000E+00  0.8040E+14
   -0.629985    3.55334  0.0000E+00  0.8528E-08  0.1442E-11  0.2255E-05  0.0000E+00  0.1194E+15
   -0.664986    3.59318  0.0000E+00  0.1150E-07  0.1944E-11  0.7740E-05  0.0000E+00  0.1955E+15
   -0.699986    3.64396  0.0000E+00  0.1464E-07  0.2504E-11  0.1457E-04  0.0000E+00  0.2637E+15
   -0.734987    3.70608  0.0000E+00  0.1814E-07  0.3155E-11  0.2158E-04  0.0000E+00  0.3097E+15
   -0.769987    3.77757  0.0000E+00  0.2188E-07  0.3877E-11  0.2892E-04  0.0000E+00  0.3272E+15
   -0.804988    3.85706  0.0000E+00  0.2563E-07  0.4626E-11  0.3662E-04  0.0000E+00  0.2676E+15
   -0.839988    3.93512  0.0000E+00  0.2894E-07  0.5312E-11  0.4489E-04  0.0000E+00  0.1394E+15
   -0.874988    3.99661  0.0000E+00  0.3101E-07  0.5774E-11  0.5347E-04  0.0000E+00  0.2110E+14
   -0.909989    4.02176  0.0000E+00  0.3178E-07  0.5989E-11  0.5969E-04  0.0000E+00 -0.5429E+12
   -0.944989    4.02274  0.0000E+00  0.3241E-07  0.6202E-11  0.5963E-04  0.0000E+00 -0.5811E+12
   -0.979989    4.02376  0.0000E+00  0.3301E-07  0.6438E-11  0.6019E-04  0.0000E+00 -0.6145E+12
   -1.014989    4.02480  0.0000E+00  0.3356E-07  0.6700E-11  0.6061E-04  0.0000E+00 -0.6678E+12
   -1.049988    4.02589  0.0000E+00  0.3407E-07  0.6996E-11  0.5988E-04  0.0000E+00 -0.7435E+12
   -1.084988    4.02708  0.0000E+00  0.3451E-07  0.7338E-11  0.5861E-04  0.0000E+00 -0.7847E+12
   -1.119987    4.02829  0.0000E+00  0.3489E-07  0.7735E-11  0.5700E-04  0.0000E+00 -0.8326E+12
   -1.154986    4.02954  0.0000E+00  0.3517E-07  0.8201E-11  0.5529E-04  0.0000E+00 -0.8889E+12
   -1.189985    4.03084  0.0000E+00  0.3536E-07  0.8768E-11  0.5241E-04  0.0000E+00 -0.9726E+12
   -1.224984    4.03221  0.0000E+00  0.3543E-07  0.9560E-11  0.4766E-04  0.0000E+00 -0.1109E+13
   -1.259982    4.03372  0.0000E+00  0.3532E-07  0.1088E-10  0.4201E-04  0.0000E+00 -0.1352E+13
   -1.294980    4.03551  0.0000E+00  0.3478E-07  0.1407E-10  0.3299E-04  0.0000E+00 -0.1937E+13
   -1.329978    4.03796  0.0000E+00  0.3302E-07  0.2263E-10  0.1320E-04  0.0000E+00 -0.5502E+13
   -1.364976    4.04437  0.0000E+00  0.2497E-07  0.6911E-10  0.1756E-05  0.0000E+00 -0.6306E+14
   -1.399973    4.09324  0.0000E+00  0.0000E+00  0.0000E+00  0.0000E+00  0.0000E+00  0.0000E+00
