 1 - depth, m
 2 - temperature, C
 3 - salinity, kg/kg
 4 - turbulent kinetic energy, m**2/s**2
 5 - dissipation rate, m**2/s**3
 6 - kinematic heat conductance, m**2/s
 7 - modulus of horizontal velocity, m/s
 8 - Richardson number, n/d
   -0.000000   18.78302  0.0000E+00  0.8101E-04  0.5073E-04  0.3611E-04  0.6880E-01 -0.1091E-01
   -0.034998   18.81605  0.0000E+00  0.4900E-04  0.1476E-04  0.6551E-04  0.2570E-01 -0.4384E-01
   -0.069996   18.82574  0.0000E+00  0.3689E-04  0.6715E-05  0.8327E-04  0.1763E-01 -0.7171E-01
   -0.104994   18.83196  0.0000E+00  0.3031E-04  0.3802E-05  0.9840E-04  0.1397E-01 -0.7928E-01
   -0.139993   18.83643  0.0000E+00  0.2579E-04  0.2237E-05  0.1213E-03  0.1151E-01 -0.1465E-01
   -0.174992   18.83975  0.0000E+00  0.2247E-04  0.1341E-05  0.1894E-03  0.9646E-02  0.1475E+02
   -0.209991   18.84206  0.0000E+00  0.2003E-04  0.8270E-06  0.2241E-03  0.8183E-02  0.1736E+02
   -0.244991   18.84398  0.0000E+00  0.1815E-04  0.5326E-06  0.2590E-03  0.6926E-02  0.1096E+03
   -0.279990   18.84567  0.0000E+00  0.1662E-04  0.3622E-06  0.2771E-03  0.5820E-02  0.8147E+01
   -0.314990   18.84727  0.0000E+00  0.1525E-04  0.2584E-06  0.3068E-03  0.4791E-02  0.1145E+02
   -0.349990   18.84867  0.0000E+00  0.1408E-04  0.1928E-06  0.3305E-03  0.3967E-02  0.1349E+02
   -0.384991   18.84994  0.0000E+00  0.1309E-04  0.1492E-06  0.3551E-03  0.3286E-02  0.3183E+02
   -0.419991   18.85110  0.0000E+00  0.1226E-04  0.1194E-06  0.3740E-03  0.2713E-02  0.5770E+02
   -0.454992   18.85220  0.0000E+00  0.1154E-04  0.9828E-07  0.3919E-03  0.2200E-02  0.8866E+01
   -0.489992   18.85324  0.0000E+00  0.1091E-04  0.8298E-07  0.4056E-03  0.1732E-02  0.5939E+01
   -0.524993   18.85423  0.0000E+00  0.1028E-04  0.7071E-07  0.4435E-03  0.1316E-02  0.2900E+01
   -0.559994   18.85507  0.0000E+00  0.9664E-05  0.6029E-07  0.5084E-03  0.1015E-02  0.7163E+01
   -0.594995   18.85569  0.0000E+00  0.9036E-05  0.5058E-07  0.5970E-03  0.8246E-03  0.9421E+03
   -0.629996   18.85609  0.0000E+00  0.8540E-05  0.4324E-07  0.6163E-03  0.7202E-03  0.7557E+02
   -0.664997   18.85649  0.0000E+00  0.8146E-05  0.3775E-07  0.6316E-03  0.6342E-03  0.3856E+03
   -0.699998   18.85689  0.0000E+00  0.7819E-05  0.3349E-07  0.6474E-03  0.5565E-03  0.3425E+02
   -0.734999   18.85728  0.0000E+00  0.7543E-05  0.3013E-07  0.6565E-03  0.4873E-03  0.5663E+01
   -0.770000   18.85767  0.0000E+00  0.7309E-05  0.2748E-07  0.6626E-03  0.4265E-03  0.2529E+02
   -0.805001   18.85805  0.0000E+00  0.7110E-05  0.2540E-07  0.6644E-03  0.3735E-03  0.1688E+02
   -0.840002   18.85844  0.0000E+00  0.6940E-05  0.2378E-07  0.6643E-03  0.3274E-03  0.1536E+02
   -0.875003   18.85884  0.0000E+00  0.6794E-05  0.2255E-07  0.6618E-03  0.2872E-03  0.3389E+02
   -0.910004   18.85925  0.0000E+00  0.6665E-05  0.2164E-07  0.6557E-03  0.2527E-03  0.8044E+01
   -0.945005   18.85968  0.0000E+00  0.6551E-05  0.2102E-07  0.6455E-03  0.2219E-03  0.8004E+01
   -0.980005   18.86012  0.0000E+00  0.6446E-05  0.2066E-07  0.6312E-03  0.1945E-03  0.9283E+01
   -1.015006   18.86060  0.0000E+00  0.6346E-05  0.2057E-07  0.6132E-03  0.1695E-03  0.1141E+02
   -1.050006   18.86110  0.0000E+00  0.6248E-05  0.2075E-07  0.5887E-03  0.1478E-03  0.1554E+02
   -1.085006   18.86163  0.0000E+00  0.6146E-05  0.2128E-07  0.5626E-03  0.1288E-03  0.2135E+02
   -1.120006   18.86221  0.0000E+00  0.6036E-05  0.2227E-07  0.5257E-03  0.1123E-03  0.2993E+02
   -1.155006   18.86285  0.0000E+00  0.5912E-05  0.2395E-07  0.4960E-03  0.9693E-04  0.3794E+03
   -1.190005   18.86359  0.0000E+00  0.5757E-05  0.2693E-07  0.4424E-03  0.8242E-04 -0.4423E+02
   -1.225004   18.86457  0.0000E+00  0.5550E-05  0.3216E-07  0.4125E-03  0.6825E-04  0.9150E+04
   -1.260003   18.86570  0.0000E+00  0.5218E-05  0.4491E-07  0.3168E-03  0.5450E-04 -0.2880E+05
   -1.295002   18.86829  0.0000E+00  0.4670E-05  0.7431E-07  0.2986E-03  0.4018E-04 -0.3265E+05
   -1.330000   18.86847  0.0000E+00  0.3850E-05  0.1595E-06  0.1302E-03  0.3386E-04  0.2362E+06
   -1.364999   18.88056  0.0000E+00  0.2610E-05  0.3761E-06  0.7683E-04  0.2154E-04 -0.1074E+08
   -1.399996   18.88809  0.0000E+00  0.0000E+00  0.0000E+00  0.0000E+00  0.2990E-04  0.0000E+00
