 1 - depth, m
 2 - temperature, C
 3 - salinity, kg/kg
 4 - turbulent kinetic energy, m**2/s**2
 5 - dissipation rate, m**2/s**3
 6 - kinematic heat conductance, m**2/s
 7 - modulus of horizontal velocity, m/s
 8 - Richardson number, n/d
   -0.000000    8.14926  0.0000E+00  0.1698E-04  0.2065E-05  0.1849E-04  0.2227E-01 -0.5197E-01
   -0.034998    8.18410  0.0000E+00  0.1263E-04  0.6481E-06  0.3810E-04  0.1220E-01 -0.1127E+00
   -0.069996    8.19785  0.0000E+00  0.1058E-04  0.3202E-06  0.6226E-04  0.8911E-02  0.3126E+03
   -0.104994    8.20669  0.0000E+00  0.9207E-05  0.1900E-06  0.8165E-04  0.6900E-02  0.1463E+04
   -0.139993    8.21328  0.0000E+00  0.8211E-05  0.1258E-06  0.1026E-03  0.5488E-02  0.4866E+01
   -0.174992    8.21846  0.0000E+00  0.7453E-05  0.8963E-07  0.1263E-03  0.4432E-02  0.2453E+01
   -0.209992    8.22261  0.0000E+00  0.6859E-05  0.6737E-07  0.1601E-03  0.3610E-02  0.1777E+02
   -0.244991    8.22591  0.0000E+00  0.6376E-05  0.5269E-07  0.1947E-03  0.2953E-02  0.3619E+02
   -0.279991    8.22860  0.0000E+00  0.5960E-05  0.4229E-07  0.2281E-03  0.2404E-02  0.4387E+02
   -0.314991    8.23086  0.0000E+00  0.5579E-05  0.3442E-07  0.2650E-03  0.1926E-02  0.9368E+01
   -0.349991    8.23272  0.0000E+00  0.5252E-05  0.2854E-07  0.3025E-03  0.1552E-02  0.1828E+02
   -0.384991    8.23428  0.0000E+00  0.4980E-05  0.2413E-07  0.3392E-03  0.1256E-02  0.1249E+04
   -0.419992    8.23559  0.0000E+00  0.4758E-05  0.2082E-07  0.3707E-03  0.1016E-02  0.4958E+03
   -0.454993    8.23672  0.0000E+00  0.4575E-05  0.1828E-07  0.3979E-03  0.8092E-03  0.2257E+02
   -0.489993    8.23771  0.0000E+00  0.4418E-05  0.1630E-07  0.4122E-03  0.6261E-03  0.1558E+01
   -0.524994    8.23865  0.0000E+00  0.4272E-05  0.1461E-07  0.4351E-03  0.4641E-03  0.1090E+01
   -0.559995    8.23953  0.0000E+00  0.4135E-05  0.1313E-07  0.4535E-03  0.3483E-03  0.8776E+00
   -0.594996    8.24039  0.0000E+00  0.4006E-05  0.1179E-07  0.4667E-03  0.2773E-03  0.8269E+00
   -0.629997    8.24123  0.0000E+00  0.3910E-05  0.1082E-07  0.4758E-03  0.2410E-03  0.1353E+01
   -0.664998    8.24205  0.0000E+00  0.3834E-05  0.1006E-07  0.4855E-03  0.2127E-03  0.1461E+01
   -0.700000    8.24283  0.0000E+00  0.3768E-05  0.9439E-08  0.4954E-03  0.1872E-03  0.1619E+01
   -0.735001    8.24359  0.0000E+00  0.3712E-05  0.8922E-08  0.5043E-03  0.1649E-03  0.1805E+01
   -0.770002    8.24433  0.0000E+00  0.3663E-05  0.8496E-08  0.5121E-03  0.1454E-03  0.2063E+01
   -0.805003    8.24505  0.0000E+00  0.3620E-05  0.8143E-08  0.5184E-03  0.1287E-03  0.2372E+01
   -0.840004    8.24575  0.0000E+00  0.3581E-05  0.7854E-08  0.5233E-03  0.1141E-03  0.2786E+01
   -0.875005    8.24643  0.0000E+00  0.3544E-05  0.7617E-08  0.5265E-03  0.1014E-03  0.3238E+01
   -0.910006    8.24711  0.0000E+00  0.3510E-05  0.7424E-08  0.5279E-03  0.9008E-04  0.3859E+01
   -0.945007    8.24777  0.0000E+00  0.3477E-05  0.7274E-08  0.5272E-03  0.7990E-04  0.4479E+01
   -0.980007    8.24842  0.0000E+00  0.3445E-05  0.7165E-08  0.5242E-03  0.7058E-04  0.5283E+01
   -1.015008    8.24907  0.0000E+00  0.3414E-05  0.7098E-08  0.5185E-03  0.6200E-04  0.6247E+01
   -1.050008    8.24972  0.0000E+00  0.3381E-05  0.7073E-08  0.5096E-03  0.5424E-04  0.7934E+01
   -1.085008    8.25037  0.0000E+00  0.3346E-05  0.7099E-08  0.4971E-03  0.4726E-04  0.1017E+02
   -1.120008    8.25103  0.0000E+00  0.3309E-05  0.7186E-08  0.4804E-03  0.4098E-04  0.1366E+02
   -1.155008    8.25171  0.0000E+00  0.3270E-05  0.7352E-08  0.4597E-03  0.3515E-04  0.1757E+02
   -1.190008    8.25240  0.0000E+00  0.3228E-05  0.7632E-08  0.4325E-03  0.2969E-04  0.2301E+02
   -1.225007    8.25314  0.0000E+00  0.3178E-05  0.8119E-08  0.4010E-03  0.2455E-04 -0.6828E+02
   -1.260006    8.25392  0.0000E+00  0.3108E-05  0.9093E-08  0.3395E-03  0.2007E-04  0.1654E+02
   -1.295005    8.25489  0.0000E+00  0.2966E-05  0.1167E-07  0.2908E-03  0.1609E-04  0.2545E+03
   -1.330003    8.25596  0.0000E+00  0.2690E-05  0.1899E-07  0.1676E-03  0.1338E-04  0.2764E+05
   -1.365001    8.25983  0.0000E+00  0.1764E-05  0.5565E-07  0.2484E-04  0.1010E-04 -0.8207E+05
   -1.399999    8.27515  0.0000E+00  0.0000E+00  0.0000E+00  0.0000E+00  0.1078E-04  0.0000E+00
