 1 - depth, m
 2 - temperature, C
 3 - salinity, kg/kg
 4 - turbulent kinetic energy, m**2/s**2
 5 - dissipation rate, m**2/s**3
 6 - kinematic heat conductance, m**2/s
 7 - modulus of horizontal velocity, m/s
 8 - Richardson number, n/d
   -0.000000    0.00000  0.0000E+00  0.4702E-13  0.1132E-15  0.1000E-09  0.0000E+00  0.9847E+16
   -0.034998    0.15077  0.0000E+00  0.4702E-13  0.1132E-15  0.1000E-09  0.0000E+00  0.9647E+16
   -0.069996    0.30486  0.0000E+00  0.4702E-13  0.1132E-15  0.1000E-09  0.0000E+00  0.9422E+16
   -0.104995    0.46228  0.0000E+00  0.4702E-13  0.1132E-15  0.1000E-09  0.0000E+00  0.8998E+16
   -0.139993    0.61990  0.0000E+00  0.4702E-13  0.1132E-15  0.1000E-09  0.0000E+00  0.8475E+16
   -0.174993    0.77586  0.0000E+00  0.4702E-13  0.1132E-15  0.1000E-09  0.0000E+00  0.7960E+16
   -0.209992    0.93000  0.0000E+00  0.4702E-13  0.1132E-15  0.1000E-09  0.0000E+00  0.7458E+16
   -0.244991    1.08221  0.0000E+00  0.4702E-13  0.1132E-15  0.1000E-09  0.0000E+00  0.6968E+16
   -0.279991    1.23241  0.0000E+00  0.4702E-13  0.1132E-15  0.1000E-09  0.0000E+00  0.6492E+16
   -0.314991    1.38051  0.0000E+00  0.4702E-13  0.1132E-15  0.1000E-09  0.0000E+00  0.5939E+16
   -0.349992    1.52412  0.0000E+00  0.4702E-13  0.1132E-15  0.1000E-09  0.0000E+00  0.5393E+16
   -0.384992    1.66256  0.0000E+00  0.4702E-13  0.1132E-15  0.1000E-09  0.0000E+00  0.4867E+16
   -0.419993    1.79529  0.0000E+00  0.4702E-13  0.1132E-15  0.1000E-09  0.0000E+00  0.4459E+16
   -0.454993    1.92467  0.0000E+00  0.4702E-13  0.1132E-15  0.1000E-09  0.0000E+00  0.4124E+16
   -0.489994    2.05231  0.0000E+00  0.4702E-13  0.1132E-15  0.1000E-09  0.0000E+00  0.3771E+16
   -0.524995    2.17711  0.0000E+00  0.4702E-13  0.1132E-15  0.1000E-09  0.0000E+00  0.3281E+16
   -0.559996    2.29341  0.0000E+00  0.4702E-13  0.1132E-15  0.1000E-09  0.0000E+00  0.2683E+16
   -0.594997    2.39500  0.0000E+00  0.4702E-13  0.1132E-15  0.1000E-09  0.0000E+00  0.2076E+16
   -0.629998    2.47841  0.0000E+00  0.4702E-13  0.1132E-15  0.1000E-09  0.0000E+00  0.1885E+16
   -0.665000    2.55851  0.0000E+00  0.4702E-13  0.1132E-15  0.1000E-09  0.0000E+00  0.1704E+16
   -0.700001    2.63507  0.0000E+00  0.4702E-13  0.1132E-15  0.1000E-09  0.0000E+00  0.1523E+16
   -0.735002    2.70746  0.0000E+00  0.4702E-13  0.1132E-15  0.1000E-09  0.0000E+00  0.1368E+16
   -0.770003    2.77628  0.0000E+00  0.4702E-13  0.1132E-15  0.1000E-09  0.0000E+00  0.1278E+16
   -0.805004    2.84436  0.0000E+00  0.4702E-13  0.1132E-15  0.1000E-09  0.0000E+00  0.1191E+16
   -0.840005    2.91179  0.0000E+00  0.4702E-13  0.1132E-15  0.1000E-09  0.0000E+00  0.1108E+16
   -0.875006    2.97863  0.0000E+00  0.4702E-13  0.1132E-15  0.1000E-09  0.0000E+00  0.1026E+16
   -0.910007    3.04478  0.0000E+00  0.4702E-13  0.1132E-15  0.1000E-09  0.0000E+00  0.9505E+15
   -0.945008    3.11060  0.0000E+00  0.4702E-13  0.1132E-15  0.1000E-09  0.0000E+00  0.8776E+15
   -0.980009    3.17618  0.0000E+00  0.4702E-13  0.1132E-15  0.1000E-09  0.0000E+00  0.8046E+15
   -1.015009    3.24144  0.0000E+00  0.4702E-13  0.1132E-15  0.1000E-09  0.0000E+00  0.7231E+15
   -1.050010    3.30546  0.0000E+00  0.4702E-13  0.1132E-15  0.1000E-09  0.0000E+00  0.6448E+15
   -1.085010    3.36819  0.0000E+00  0.4702E-13  0.1132E-15  0.1000E-09  0.0000E+00  0.5934E+15
   -1.120010    3.43222  0.0000E+00  0.4702E-13  0.1132E-15  0.1000E-09  0.0000E+00  0.5414E+15
   -1.155010    3.49799  0.0000E+00  0.4702E-13  0.1132E-15  0.1000E-09  0.0000E+00  0.4857E+15
   -1.190010    3.56574  0.0000E+00  0.1062E-12  0.1622E-15  0.1000E-09  0.0000E+00  0.4258E+15
   -1.225009    3.63582  0.0000E+00  0.4779E-12  0.6754E-15  0.1000E-09  0.0000E+00  0.3618E+15
   -1.260008    3.70905  0.0000E+00  0.2333E-11  0.3283E-14  0.1000E-09  0.0000E+00  0.2948E+15
   -1.295007    3.78788  0.0000E+00  0.1331E-10  0.1889E-13  0.1890E-09  0.0000E+00  0.2162E+15
   -1.330005    3.87755  0.0000E+00  0.6151E-10  0.8941E-13  0.1715E-08  0.0000E+00  0.9193E+14
   -1.365004    3.97602  0.0000E+00  0.2741E-09  0.4360E-12  0.6801E-07  0.0000E+00 -0.3633E+14
   -1.400001    4.05560  0.0000E+00  0.0000E+00  0.0000E+00  0.0000E+00  0.0000E+00  0.0000E+00
