 1 - depth, m
 2 - temperature, C
 3 - salinity, kg/kg
 4 - turbulent kinetic energy, m**2/s**2
 5 - dissipation rate, m**2/s**3
 6 - kinematic heat conductance, m**2/s
 7 - modulus of horizontal velocity, m/s
 8 - Richardson number, n/d
   -0.000000    0.00000  0.0000E+00  0.4702E-13  0.1132E-15  0.1000E-09  0.0000E+00  0.1157E+17
   -0.034997    0.17783  0.0000E+00  0.4702E-13  0.1132E-15  0.1000E-09  0.0000E+00  0.1089E+17
   -0.069995    0.35360  0.0000E+00  0.4702E-13  0.1132E-15  0.1000E-09  0.0000E+00  0.1024E+17
   -0.104993    0.52753  0.0000E+00  0.4702E-13  0.1132E-15  0.1000E-09  0.0000E+00  0.9536E+16
   -0.139992    0.69835  0.0000E+00  0.4702E-13  0.1132E-15  0.1000E-09  0.0000E+00  0.8833E+16
   -0.174991    0.86539  0.0000E+00  0.4702E-13  0.1132E-15  0.1000E-09  0.0000E+00  0.8173E+16
   -0.209990    1.02880  0.0000E+00  0.4702E-13  0.1132E-15  0.1000E-09  0.0000E+00  0.7550E+16
   -0.244989    1.18867  0.0000E+00  0.4702E-13  0.1132E-15  0.1000E-09  0.0000E+00  0.6964E+16
   -0.279988    1.34511  0.0000E+00  0.4702E-13  0.1132E-15  0.1000E-09  0.0000E+00  0.6410E+16
   -0.314988    1.49819  0.0000E+00  0.4702E-13  0.1132E-15  0.1000E-09  0.0000E+00  0.5878E+16
   -0.349988    1.64775  0.0000E+00  0.4702E-13  0.1132E-15  0.1000E-09  0.0000E+00  0.5372E+16
   -0.384988    1.79370  0.0000E+00  0.4702E-13  0.1132E-15  0.1000E-09  0.0000E+00  0.4890E+16
   -0.419988    1.93590  0.0000E+00  0.4702E-13  0.1132E-15  0.1000E-09  0.0000E+00  0.4449E+16
   -0.454988    2.07480  0.0000E+00  0.4702E-13  0.1132E-15  0.1000E-09  0.0000E+00  0.4042E+16
   -0.489989    2.21070  0.0000E+00  0.4702E-13  0.1132E-15  0.1000E-09  0.0000E+00  0.3649E+16
   -0.524989    2.34329  0.0000E+00  0.4702E-13  0.1132E-15  0.1000E-09  0.0000E+00  0.3244E+16
   -0.559990    2.47116  0.0000E+00  0.4702E-13  0.1132E-15  0.1000E-09  0.0000E+00  0.2822E+16
   -0.594991    2.59216  0.0000E+00  0.4702E-13  0.1132E-15  0.1000E-09  0.0000E+00  0.2413E+16
   -0.629992    2.70489  0.0000E+00  0.4702E-13  0.1132E-15  0.1000E-09  0.0000E+00  0.2135E+16
   -0.664992    2.81385  0.0000E+00  0.4702E-13  0.1132E-15  0.1000E-09  0.0000E+00  0.1877E+16
   -0.699993    2.91892  0.0000E+00  0.1444E-12  0.1132E-15  0.1000E-09  0.0000E+00  0.1633E+16
   -0.734994    3.01981  0.0000E+00  0.4392E-12  0.1573E-15  0.1000E-09  0.0000E+00  0.1416E+16
   -0.769995    3.11687  0.0000E+00  0.1021E-11  0.2944E-15  0.1000E-09  0.0000E+00  0.1236E+16
   -0.804996    3.21163  0.0000E+00  0.2145E-11  0.5762E-15  0.1000E-09  0.0000E+00  0.1066E+16
   -0.839996    3.30399  0.0000E+00  0.4327E-11  0.1123E-14  0.1000E-09  0.0000E+00  0.9063E+15
   -0.874997    3.39385  0.0000E+00  0.8594E-11  0.2177E-14  0.1000E-09  0.0000E+00  0.7562E+15
   -0.909997    3.48104  0.0000E+00  0.1690E-10  0.4190E-14  0.1000E-09  0.0000E+00  0.6176E+15
   -0.944998    3.56558  0.0000E+00  0.3288E-10  0.7989E-14  0.1000E-09  0.0000E+00  0.4895E+15
   -0.979998    3.64734  0.0000E+00  0.6366E-10  0.1516E-13  0.1054E-09  0.0000E+00  0.3714E+15
   -1.014998    3.72610  0.0000E+00  0.1235E-09  0.2883E-13  0.2836E-09  0.0000E+00  0.2621E+15
   -1.049998    3.80093  0.0000E+00  0.2407E-09  0.5512E-13  0.8517E-09  0.0000E+00  0.1665E+15
   -1.084998    3.87157  0.0000E+00  0.4706E-09  0.1057E-12  0.3110E-08  0.0000E+00  0.8693E+14
   -1.119998    3.94070  0.0000E+00  0.9018E-09  0.1994E-12  0.3164E-07  0.0000E+00  0.1524E+14
   -1.154997    3.99791  0.0000E+00  0.1447E-08  0.3216E-12  0.2645E-05  0.0000E+00 -0.7425E+12
   -1.189997    4.00145  0.0000E+00  0.1765E-08  0.4160E-12  0.3014E-05  0.0000E+00 -0.8323E+12
   -1.224996    4.00463  0.0000E+00  0.2024E-08  0.5311E-12  0.3038E-05  0.0000E+00 -0.1023E+13
   -1.259994    4.00790  0.0000E+00  0.2239E-08  0.7065E-12  0.2722E-05  0.0000E+00 -0.1461E+13
   -1.294993    4.01186  0.0000E+00  0.2425E-08  0.1099E-11  0.1920E-05  0.0000E+00 -0.2920E+13
   -1.329991    4.01834  0.0000E+00  0.2432E-08  0.1871E-11  0.9950E-06  0.0000E+00 -0.7839E+13
   -1.364989    4.03133  0.0000E+00  0.2129E-08  0.3970E-11  0.2994E-06  0.0000E+00 -0.4044E+14
   -1.399986    4.07113  0.0000E+00  0.0000E+00  0.0000E+00  0.0000E+00  0.0000E+00  0.0000E+00
