 1 - depth, m
 2 - temperature, C
 3 - salinity, kg/kg
 4 - turbulent kinetic energy, m**2/s**2
 5 - dissipation rate, m**2/s**3
 6 - kinematic heat conductance, m**2/s
 7 - modulus of horizontal velocity, m/s
 8 - Richardson number, n/d
   -0.000000    9.98658  0.0000E+00  0.3528E-03  0.6256E-03  0.6847E-04  0.2297E+00  0.3723E-01
   -0.034998   10.05169  0.0000E+00  0.1914E-03  0.2183E-03  0.1159E-03  0.7201E-01  0.4705E+00
   -0.069996   10.07418  0.0000E+00  0.1288E-03  0.6937E-04  0.1547E-03  0.4333E-01 -0.5255E-01
   -0.104995   10.08502  0.0000E+00  0.1015E-03  0.3711E-04  0.1608E-03  0.3353E-01 -0.1860E-01
   -0.139994   10.09067  0.0000E+00  0.8429E-04  0.2197E-04  0.1673E-03  0.2766E-01 -0.1353E-01
   -0.174993   10.09485  0.0000E+00  0.7173E-04  0.1337E-04  0.1744E-03  0.2325E-01 -0.1525E-01
   -0.209992   10.09800  0.0000E+00  0.6234E-04  0.8163E-05  0.1825E-03  0.1987E-01 -0.2351E-01
   -0.244992   10.10075  0.0000E+00  0.5511E-04  0.5051E-05  0.1891E-03  0.1703E-01  0.1291E+00
   -0.279992   10.10333  0.0000E+00  0.4917E-04  0.3190E-05  0.1921E-03  0.1446E-01  0.9282E-01
   -0.314992   10.10625  0.0000E+00  0.4379E-04  0.2067E-05  0.2035E-03  0.1187E-01  0.2631E+02
   -0.349993   10.10857  0.0000E+00  0.3929E-04  0.1391E-05  0.2120E-03  0.1000E-01  0.1699E+01
   -0.384993   10.11070  0.0000E+00  0.3552E-04  0.9783E-06  0.2195E-03  0.8506E-02  0.1311E+05
   -0.419994   10.11267  0.0000E+00  0.3235E-04  0.7217E-06  0.2239E-03  0.7262E-02  0.2539E+02
   -0.454995   10.11464  0.0000E+00  0.2963E-04  0.5571E-06  0.2270E-03  0.6112E-02  0.3555E+01
   -0.489995   10.11665  0.0000E+00  0.2723E-04  0.4485E-06  0.2313E-03  0.5035E-02  0.1527E+03
   -0.524996   10.11867  0.0000E+00  0.2493E-04  0.3689E-06  0.2425E-03  0.4084E-02  0.4465E+02
   -0.559998   10.12038  0.0000E+00  0.2270E-04  0.3052E-06  0.2532E-03  0.3392E-02  0.2555E+01
   -0.594999   10.12176  0.0000E+00  0.2031E-04  0.2461E-06  0.2609E-03  0.2927E-02  0.4304E+04
   -0.630000   10.12265  0.0000E+00  0.1821E-04  0.1992E-06  0.2702E-03  0.2644E-02  0.2415E+04
   -0.665001   10.12384  0.0000E+00  0.1642E-04  0.1632E-06  0.2874E-03  0.2366E-02  0.1036E+04
   -0.700003   10.12502  0.0000E+00  0.1490E-04  0.1352E-06  0.3193E-03  0.2104E-02  0.5958E+03
   -0.735004   10.12612  0.0000E+00  0.1359E-04  0.1130E-06  0.3618E-03  0.1863E-02  0.1921E+04
   -0.770005   10.12712  0.0000E+00  0.1244E-04  0.9514E-07  0.4033E-03  0.1643E-02  0.1336E+04
   -0.805006   10.12803  0.0000E+00  0.1143E-04  0.8065E-07  0.4393E-03  0.1445E-02  0.2583E+03
   -0.840008   10.12885  0.0000E+00  0.1054E-04  0.6887E-07  0.4679E-03  0.1266E-02  0.3650E+03
   -0.875009   10.12960  0.0000E+00  0.9747E-05  0.5923E-07  0.4841E-03  0.1103E-02  0.1125E+03
   -0.910010   10.13031  0.0000E+00  0.9044E-05  0.5134E-07  0.4906E-03  0.9582E-03  0.1931E+03
   -0.945011   10.13099  0.0000E+00  0.8424E-05  0.4498E-07  0.4945E-03  0.8261E-03  0.1856E+03
   -0.980011   10.13167  0.0000E+00  0.7880E-05  0.3990E-07  0.4940E-03  0.7057E-03  0.1865E+03
   -1.015012   10.13234  0.0000E+00  0.7398E-05  0.3592E-07  0.4904E-03  0.5962E-03  0.2417E+03
   -1.050013   10.13301  0.0000E+00  0.6969E-05  0.3288E-07  0.4815E-03  0.5011E-03  0.9790E+03
   -1.085013   10.13368  0.0000E+00  0.6586E-05  0.3072E-07  0.4675E-03  0.4204E-03  0.7034E+03
   -1.120013   10.13438  0.0000E+00  0.6244E-05  0.2952E-07  0.4454E-03  0.3538E-03  0.6662E+03
   -1.155013   10.13513  0.0000E+00  0.5931E-05  0.2955E-07  0.4225E-03  0.2953E-03  0.9498E+03
   -1.190013   10.13595  0.0000E+00  0.5626E-05  0.3140E-07  0.3848E-03  0.2425E-03  0.1983E+04
   -1.225012   10.13696  0.0000E+00  0.5296E-05  0.3587E-07  0.3534E-03  0.1917E-03  0.2854E+04
   -1.260011   10.13811  0.0000E+00  0.4877E-05  0.4832E-07  0.2933E-03  0.1479E-03  0.4257E+04
   -1.295010   10.14015  0.0000E+00  0.4284E-05  0.7775E-07  0.2454E-03  0.1074E-03  0.1254E+05
   -1.330009   10.14074  0.0000E+00  0.3505E-05  0.1626E-06  0.1473E-03  0.9071E-04  0.2206E+06
   -1.365007   10.14763  0.0000E+00  0.2307E-05  0.3683E-06  0.5309E-04  0.6163E-04 -0.1161E+10
   -1.400005   10.15873  0.0000E+00  0.0000E+00  0.0000E+00  0.0000E+00  0.9255E-04  0.0000E+00
