 1 - depth, m
 2 - temperature, C
 3 - salinity, kg/kg
 4 - turbulent kinetic energy, m**2/s**2
 5 - dissipation rate, m**2/s**3
 6 - kinematic heat conductance, m**2/s
 7 - modulus of horizontal velocity, m/s
 8 - Richardson number, n/d
   -0.000000    0.00000  0.0000E+00  0.4702E-13  0.1132E-15  0.1000E-09  0.0000E+00  0.1720E+17
   -0.034997    0.26752  0.0000E+00  0.4702E-13  0.1132E-15  0.1000E-09  0.0000E+00  0.1476E+17
   -0.069995    0.51467  0.0000E+00  0.4702E-13  0.1132E-15  0.1000E-09  0.0000E+00  0.1273E+17
   -0.104993    0.74388  0.0000E+00  0.4702E-13  0.1132E-15  0.1000E-09  0.0000E+00  0.1102E+17
   -0.139991    0.95701  0.0000E+00  0.4702E-13  0.1132E-15  0.1000E-09  0.0000E+00  0.9572E+16
   -0.174990    1.15591  0.0000E+00  0.4702E-13  0.1132E-15  0.1000E-09  0.0000E+00  0.8359E+16
   -0.209989    1.34244  0.0000E+00  0.4702E-13  0.1132E-15  0.1000E-09  0.0000E+00  0.7344E+16
   -0.244988    1.51850  0.0000E+00  0.4702E-13  0.1132E-15  0.1000E-09  0.0000E+00  0.6491E+16
   -0.279987    1.68578  0.0000E+00  0.4702E-13  0.1132E-15  0.1000E-09  0.0000E+00  0.5769E+16
   -0.314987    1.84586  0.0000E+00  0.4702E-13  0.1132E-15  0.1000E-09  0.0000E+00  0.4906E+16
   -0.349987    1.99245  0.0000E+00  0.4702E-13  0.1132E-15  0.1000E-09  0.0000E+00  0.4136E+16
   -0.384987    2.12533  0.0000E+00  0.4702E-13  0.1132E-15  0.1000E-09  0.0000E+00  0.3468E+16
   -0.419987    2.24479  0.0000E+00  0.4702E-13  0.1132E-15  0.1000E-09  0.0000E+00  0.3084E+16
   -0.454987    2.35860  0.0000E+00  0.4702E-13  0.1132E-15  0.1000E-09  0.0000E+00  0.2852E+16
   -0.489987    2.47165  0.0000E+00  0.4702E-13  0.1132E-15  0.1000E-09  0.0000E+00  0.2566E+16
   -0.524988    2.58137  0.0000E+00  0.4702E-13  0.1132E-15  0.1000E-09  0.0000E+00  0.1923E+16
   -0.559988    2.66972  0.0000E+00  0.4702E-13  0.1132E-15  0.1000E-09  0.0000E+00  0.1061E+16
   -0.594989    2.72117  0.0000E+00  0.4702E-13  0.1132E-15  0.1000E-09  0.0000E+00  0.1736E+15
   -0.629990    2.72978  0.0000E+00  0.4702E-13  0.1132E-15  0.1000E-09  0.0000E+00  0.2312E+15
   -0.664990    2.74137  0.0000E+00  0.4702E-13  0.1132E-15  0.1000E-09  0.0000E+00  0.2887E+15
   -0.699991    2.75601  0.0000E+00  0.4702E-13  0.1132E-15  0.1000E-09  0.0000E+00  0.3313E+15
   -0.734992    2.77302  0.0000E+00  0.4702E-13  0.1132E-15  0.1000E-09  0.0000E+00  0.3765E+15
   -0.769992    2.79265  0.0000E+00  0.4702E-13  0.1132E-15  0.1000E-09  0.0000E+00  0.4656E+15
   -0.804993    2.81736  0.0000E+00  0.4702E-13  0.1132E-15  0.1000E-09  0.0000E+00  0.5617E+15
   -0.839994    2.84789  0.0000E+00  0.4702E-13  0.1132E-15  0.1000E-09  0.0000E+00  0.6573E+15
   -0.874994    2.88470  0.0000E+00  0.4702E-13  0.1132E-15  0.1000E-09  0.0000E+00  0.7423E+15
   -0.909995    2.92783  0.0000E+00  0.4702E-13  0.1132E-15  0.1000E-09  0.0000E+00  0.8396E+15
   -0.944995    2.97886  0.0000E+00  0.4702E-13  0.1132E-15  0.1000E-09  0.0000E+00  0.9266E+15
   -0.979995    3.03843  0.0000E+00  0.5542E-13  0.1153E-15  0.1000E-09  0.0000E+00  0.9920E+15
   -1.014995    3.10673  0.0000E+00  0.1242E-12  0.1739E-15  0.1000E-09  0.0000E+00  0.1012E+16
   -1.049995    3.18242  0.0000E+00  0.4633E-12  0.5255E-15  0.1000E-09  0.0000E+00  0.1007E+16
   -1.084995    3.26575  0.0000E+00  0.1782E-11  0.1953E-14  0.1000E-09  0.0000E+00  0.9914E+15
   -1.119995    3.35860  0.0000E+00  0.6698E-11  0.7183E-14  0.1000E-09  0.0000E+00  0.9509E+15
   -1.154994    3.46316  0.0000E+00  0.2492E-10  0.2619E-13  0.1175E-09  0.0000E+00  0.8625E+15
   -1.189993    3.58103  0.0000E+00  0.9248E-10  0.9535E-13  0.3677E-09  0.0000E+00  0.7120E+15
   -1.224992    3.71525  0.0000E+00  0.3593E-09  0.3642E-12  0.2445E-08  0.0000E+00  0.4711E+15
   -1.259991    3.87280  0.0000E+00  0.1414E-08  0.1431E-11  0.1582E-06  0.0000E+00  0.1224E+15
   -1.294989    4.01632  0.0000E+00  0.4776E-08  0.5508E-11  0.1428E-05  0.0000E+00 -0.1832E+14
   -1.329987    4.04540  0.0000E+00  0.7310E-08  0.1167E-10  0.1514E-05  0.0000E+00 -0.3485E+14
   -1.364985    4.07571  0.0000E+00  0.8816E-08  0.2748E-10  0.8535E-06  0.0000E+00 -0.1252E+15
   -1.399982    4.14132  0.0000E+00  0.0000E+00  0.0000E+00  0.0000E+00  0.0000E+00  0.0000E+00
