 1 - depth, m
 2 - temperature, C
 3 - salinity, kg/kg
 4 - turbulent kinetic energy, m**2/s**2
 5 - dissipation rate, m**2/s**3
 6 - kinematic heat conductance, m**2/s
 7 - modulus of horizontal velocity, m/s
 8 - Richardson number, n/d
   -0.000000    9.18720  0.0000E+00  0.4524E-04  0.1197E-04  0.3335E-04  0.4521E-01 -0.3880E-01
   -0.034998    9.22939  0.0000E+00  0.2942E-04  0.3440E-05  0.4963E-04  0.2005E-01 -0.2220E-01
   -0.069996    9.24116  0.0000E+00  0.2300E-04  0.1598E-05  0.6250E-04  0.1466E-01 -0.3457E-01
   -0.104995    9.24939  0.0000E+00  0.1920E-04  0.8816E-06  0.7535E-04  0.1164E-01 -0.5284E-01
   -0.139994    9.25591  0.0000E+00  0.1650E-04  0.5330E-06  0.8849E-04  0.9463E-02 -0.7575E-01
   -0.174993    9.26132  0.0000E+00  0.1450E-04  0.3467E-06  0.1020E-03  0.7782E-02 -0.1027E+00
   -0.209992    9.26591  0.0000E+00  0.1296E-04  0.2399E-06  0.1182E-03  0.6434E-02 -0.8440E-01
   -0.244992    9.26981  0.0000E+00  0.1174E-04  0.1748E-06  0.1641E-03  0.5317E-02  0.4055E+02
   -0.279992    9.27285  0.0000E+00  0.1071E-04  0.1324E-06  0.2211E-03  0.4384E-02  0.2049E+03
   -0.314992    9.27525  0.0000E+00  0.9764E-05  0.1024E-06  0.2511E-03  0.3566E-02  0.1310E+03
   -0.349993    9.27732  0.0000E+00  0.8944E-05  0.8072E-07  0.2769E-03  0.2905E-02  0.1196E+02
   -0.384993    9.27914  0.0000E+00  0.8251E-05  0.6498E-07  0.3035E-03  0.2368E-02  0.5062E+01
   -0.419994    9.28076  0.0000E+00  0.7676E-05  0.5347E-07  0.3221E-03  0.1925E-02  0.2775E+02
   -0.454995    9.28222  0.0000E+00  0.7193E-05  0.4489E-07  0.3395E-03  0.1538E-02  0.5580E+01
   -0.489995    9.28355  0.0000E+00  0.6782E-05  0.3843E-07  0.3581E-03  0.1192E-02  0.1118E+03
   -0.524996    9.28478  0.0000E+00  0.6401E-05  0.3314E-07  0.4005E-03  0.8903E-03  0.1433E+02
   -0.559998    9.28585  0.0000E+00  0.6043E-05  0.2862E-07  0.4455E-03  0.6729E-03  0.2440E+02
   -0.594999    9.28679  0.0000E+00  0.5692E-05  0.2449E-07  0.4750E-03  0.5366E-03  0.6791E+01
   -0.630000    9.28765  0.0000E+00  0.5418E-05  0.2143E-07  0.4870E-03  0.4644E-03  0.1139E+01
   -0.665001    9.28847  0.0000E+00  0.5197E-05  0.1907E-07  0.4941E-03  0.4071E-03  0.6665E+00
   -0.700003    9.28927  0.0000E+00  0.5009E-05  0.1716E-07  0.5026E-03  0.3551E-03  0.6891E+00
   -0.735004    9.29004  0.0000E+00  0.4849E-05  0.1562E-07  0.5100E-03  0.3094E-03  0.7290E+00
   -0.770005    9.29079  0.0000E+00  0.4711E-05  0.1437E-07  0.5165E-03  0.2697E-03  0.7930E+00
   -0.805006    9.29153  0.0000E+00  0.4592E-05  0.1334E-07  0.5220E-03  0.2355E-03  0.8803E+00
   -0.840008    9.29225  0.0000E+00  0.4487E-05  0.1251E-07  0.5264E-03  0.2057E-03  0.9979E+00
   -0.875009    9.29295  0.0000E+00  0.4395E-05  0.1184E-07  0.5287E-03  0.1800E-03  0.1180E+01
   -0.910010    9.29365  0.0000E+00  0.4320E-05  0.1135E-07  0.5467E-03  0.1574E-03  0.3878E+01
   -0.945011    9.29431  0.0000E+00  0.4257E-05  0.1099E-07  0.5404E-03  0.1407E-03  0.1082E+02
   -0.980011    9.29497  0.0000E+00  0.4195E-05  0.1070E-07  0.5263E-03  0.1252E-03  0.1915E+01
   -1.015012    9.29564  0.0000E+00  0.4132E-05  0.1047E-07  0.5198E-03  0.1093E-03  0.2092E+01
   -1.050013    9.29632  0.0000E+00  0.4071E-05  0.1033E-07  0.5102E-03  0.9523E-04  0.2619E+01
   -1.085013    9.29700  0.0000E+00  0.4009E-05  0.1029E-07  0.4971E-03  0.8277E-04  0.3394E+01
   -1.120013    9.29769  0.0000E+00  0.3947E-05  0.1036E-07  0.4791E-03  0.7176E-04  0.4533E+01
   -1.155013    9.29840  0.0000E+00  0.3882E-05  0.1057E-07  0.4579E-03  0.6150E-04  0.5909E+01
   -1.190013    9.29913  0.0000E+00  0.3814E-05  0.1101E-07  0.4264E-03  0.5194E-04  0.7812E+01
   -1.225012    9.29993  0.0000E+00  0.3733E-05  0.1184E-07  0.3966E-03  0.4260E-04  0.9949E+01
   -1.260011    9.30078  0.0000E+00  0.3619E-05  0.1364E-07  0.3228E-03  0.3448E-04 -0.3376E+04
   -1.295010    9.30196  0.0000E+00  0.3395E-05  0.1857E-07  0.2988E-03  0.2667E-04  0.6864E+04
   -1.330009    9.30301  0.0000E+00  0.2963E-05  0.3347E-07  0.1399E-03  0.2244E-04 -0.1499E+04
   -1.365007    9.30902  0.0000E+00  0.1892E-05  0.9157E-07  0.3730E-04  0.1495E-04 -0.5258E+05
   -1.400005    9.31927  0.0000E+00  0.0000E+00  0.0000E+00  0.0000E+00  0.1790E-04  0.0000E+00
