 1 - depth, m
 2 - temperature, C
 3 - salinity, kg/kg
 4 - turbulent kinetic energy, m**2/s**2
 5 - dissipation rate, m**2/s**3
 6 - kinematic heat conductance, m**2/s
 7 - modulus of horizontal velocity, m/s
 8 - Richardson number, n/d
   -0.000000    0.00000  0.0000E+00  0.4702E-13  0.1132E-15  0.1000E-09  0.0000E+00  0.1813E+17
   -0.034997    0.28270  0.0000E+00  0.4702E-13  0.1132E-15  0.1000E-09  0.0000E+00  0.1601E+17
   -0.069994    0.55293  0.0000E+00  0.4702E-13  0.1132E-15  0.1000E-09  0.0000E+00  0.1409E+17
   -0.104991    0.81083  0.0000E+00  0.4702E-13  0.1132E-15  0.1000E-09  0.0000E+00  0.1228E+17
   -0.139989    1.05507  0.0000E+00  0.4702E-13  0.1132E-15  0.1000E-09  0.0000E+00  0.1061E+17
   -0.174987    1.28494  0.0000E+00  0.4702E-13  0.1132E-15  0.1000E-09  0.0000E+00  0.9134E+16
   -0.209985    1.50054  0.0000E+00  0.4702E-13  0.1132E-15  0.1000E-09  0.0000E+00  0.7820E+16
   -0.244984    1.70196  0.0000E+00  0.4702E-13  0.1132E-15  0.1000E-09  0.0000E+00  0.6661E+16
   -0.279983    1.88934  0.0000E+00  0.4702E-13  0.1132E-15  0.1000E-09  0.0000E+00  0.5643E+16
   -0.314982    2.06286  0.0000E+00  0.4702E-13  0.1132E-15  0.1000E-09  0.0000E+00  0.4752E+16
   -0.349981    2.22260  0.0000E+00  0.4702E-13  0.1132E-15  0.1000E-09  0.0000E+00  0.3966E+16
   -0.384980    2.36835  0.0000E+00  0.4702E-13  0.1132E-15  0.1000E-09  0.0000E+00  0.3278E+16
   -0.419980    2.49988  0.0000E+00  0.4702E-13  0.1132E-15  0.1000E-09  0.0000E+00  0.2737E+16
   -0.454979    2.61961  0.0000E+00  0.4702E-13  0.1132E-15  0.1000E-09  0.0000E+00  0.2316E+16
   -0.489979    2.72999  0.0000E+00  0.4702E-13  0.1132E-15  0.1000E-09  0.0000E+00  0.1959E+16
   -0.524979    2.83174  0.0000E+00  0.4702E-13  0.1132E-15  0.1000E-09  0.0000E+00  0.1682E+16
   -0.559979    2.92705  0.0000E+00  0.4702E-13  0.1132E-15  0.1000E-09  0.0000E+00  0.1433E+16
   -0.594979    3.01574  0.0000E+00  0.4702E-13  0.1132E-15  0.1000E-09  0.0000E+00  0.1200E+16
   -0.629979    3.09689  0.0000E+00  0.4702E-13  0.1132E-15  0.1000E-09  0.0000E+00  0.9863E+15
   -0.664979    3.16971  0.0000E+00  0.4702E-13  0.1132E-15  0.1000E-09  0.0000E+00  0.8053E+15
   -0.699979    3.23444  0.0000E+00  0.4702E-13  0.1132E-15  0.1000E-09  0.0000E+00  0.6510E+15
   -0.734979    3.29122  0.0000E+00  0.4702E-13  0.1132E-15  0.1000E-09  0.0000E+00  0.5379E+15
   -0.769979    3.34194  0.0000E+00  0.4702E-13  0.1132E-15  0.1000E-09  0.0000E+00  0.4816E+15
   -0.804979    3.39105  0.0000E+00  0.4702E-13  0.1132E-15  0.1000E-09  0.0000E+00  0.4310E+15
   -0.839979    3.43877  0.0000E+00  0.4702E-13  0.1132E-15  0.1000E-09  0.0000E+00  0.3859E+15
   -0.874979    3.48537  0.0000E+00  0.4702E-13  0.1132E-15  0.1000E-09  0.0000E+00  0.3463E+15
   -0.909979    3.53127  0.0000E+00  0.4702E-13  0.1132E-15  0.1000E-09  0.0000E+00  0.3054E+15
   -0.944979    3.57602  0.0000E+00  0.4702E-13  0.1132E-15  0.1000E-09  0.0000E+00  0.2672E+15
   -0.979978    3.61965  0.0000E+00  0.1003E-12  0.1171E-15  0.1000E-09  0.0000E+00  0.2329E+15
   -1.014978    3.66248  0.0000E+00  0.3480E-12  0.2637E-15  0.1000E-09  0.0000E+00  0.2073E+15
   -1.049977    3.70610  0.0000E+00  0.1069E-11  0.7555E-15  0.1000E-09  0.0000E+00  0.1822E+15
   -1.084976    3.75105  0.0000E+00  0.3173E-11  0.2196E-14  0.1000E-09  0.0000E+00  0.1500E+15
   -1.119975    3.79589  0.0000E+00  0.9228E-11  0.6303E-14  0.1297E-09  0.0000E+00  0.1161E+15
   -1.154974    3.83977  0.0000E+00  0.2661E-10  0.1804E-13  0.4936E-09  0.0000E+00  0.8513E+14
   -1.189973    3.88322  0.0000E+00  0.7674E-10  0.5199E-13  0.2055E-08  0.0000E+00  0.5623E+14
   -1.224971    3.92748  0.0000E+00  0.2310E-09  0.1585E-12  0.1161E-07  0.0000E+00  0.2642E+14
   -1.259969    3.97604  0.0000E+00  0.7107E-09  0.5135E-12  0.1740E-06  0.0000E+00 -0.3280E+13
   -1.294967    4.00990  0.0000E+00  0.1886E-08  0.1761E-11  0.6639E-06  0.0000E+00 -0.1183E+14
   -1.329964    4.03179  0.0000E+00  0.3006E-08  0.3994E-11  0.7314E-06  0.0000E+00 -0.2374E+14
   -1.364961    4.05774  0.0000E+00  0.3789E-08  0.9618E-11  0.4565E-06  0.0000E+00 -0.8381E+14
   -1.399958    4.11208  0.0000E+00  0.0000E+00  0.0000E+00  0.0000E+00  0.0000E+00  0.0000E+00
