 1 - depth, m
 2 - temperature, C
 3 - salinity, kg/kg
 4 - turbulent kinetic energy, m**2/s**2
 5 - dissipation rate, m**2/s**3
 6 - kinematic heat conductance, m**2/s
 7 - modulus of horizontal velocity, m/s
 8 - Richardson number, n/d
   -0.000000    0.00000  0.0000E+00  0.4702E-13  0.1132E-15  0.1000E-09  0.0000E+00  0.9391E+16
   -0.034998    0.14364  0.0000E+00  0.4702E-13  0.1132E-15  0.1000E-09  0.0000E+00  0.9167E+16
   -0.069996    0.28961  0.0000E+00  0.4702E-13  0.1132E-15  0.1000E-09  0.0000E+00  0.8928E+16
   -0.104994    0.43791  0.0000E+00  0.4702E-13  0.1132E-15  0.1000E-09  0.0000E+00  0.8541E+16
   -0.139993    0.58620  0.0000E+00  0.4702E-13  0.1132E-15  0.1000E-09  0.0000E+00  0.8080E+16
   -0.174992    0.73308  0.0000E+00  0.4702E-13  0.1132E-15  0.1000E-09  0.0000E+00  0.7627E+16
   -0.209991    0.87844  0.0000E+00  0.4702E-13  0.1132E-15  0.1000E-09  0.0000E+00  0.7182E+16
   -0.244991    1.02220  0.0000E+00  0.4702E-13  0.1132E-15  0.1000E-09  0.0000E+00  0.6747E+16
   -0.279990    1.16426  0.0000E+00  0.4702E-13  0.1132E-15  0.1000E-09  0.0000E+00  0.6322E+16
   -0.314990    1.30453  0.0000E+00  0.4702E-13  0.1132E-15  0.1000E-09  0.0000E+00  0.5874E+16
   -0.349990    1.44211  0.0000E+00  0.4702E-13  0.1132E-15  0.1000E-09  0.0000E+00  0.5434E+16
   -0.384991    1.57667  0.0000E+00  0.4702E-13  0.1132E-15  0.1000E-09  0.0000E+00  0.5004E+16
   -0.419991    1.70790  0.0000E+00  0.4702E-13  0.1132E-15  0.1000E-09  0.0000E+00  0.4631E+16
   -0.454992    1.83676  0.0000E+00  0.4702E-13  0.1132E-15  0.1000E-09  0.0000E+00  0.4297E+16
   -0.489992    1.96393  0.0000E+00  0.4702E-13  0.1132E-15  0.1000E-09  0.0000E+00  0.3961E+16
   -0.524993    2.08896  0.0000E+00  0.4702E-13  0.1132E-15  0.1000E-09  0.0000E+00  0.3581E+16
   -0.559994    2.20979  0.0000E+00  0.4702E-13  0.1132E-15  0.1000E-09  0.0000E+00  0.3156E+16
   -0.594995    2.32378  0.0000E+00  0.4702E-13  0.1132E-15  0.1000E-09  0.0000E+00  0.2730E+16
   -0.629996    2.42930  0.0000E+00  0.4702E-13  0.1132E-15  0.1000E-09  0.0000E+00  0.2483E+16
   -0.664997    2.53209  0.0000E+00  0.4702E-13  0.1132E-15  0.1000E-09  0.0000E+00  0.2246E+16
   -0.699998    2.63195  0.0000E+00  0.4702E-13  0.1132E-15  0.1000E-09  0.0000E+00  0.2016E+16
   -0.734999    2.72845  0.0000E+00  0.4702E-13  0.1132E-15  0.1000E-09  0.0000E+00  0.1809E+16
   -0.770000    2.82199  0.0000E+00  0.4702E-13  0.1132E-15  0.1000E-09  0.0000E+00  0.1645E+16
   -0.805001    2.91427  0.0000E+00  0.4702E-13  0.1132E-15  0.1000E-09  0.0000E+00  0.1487E+16
   -0.840002    3.00521  0.0000E+00  0.4702E-13  0.1132E-15  0.1000E-09  0.0000E+00  0.1333E+16
   -0.875003    3.09474  0.0000E+00  0.4702E-13  0.1132E-15  0.1000E-09  0.0000E+00  0.1184E+16
   -0.910004    3.18270  0.0000E+00  0.4702E-13  0.1132E-15  0.1000E-09  0.0000E+00  0.1041E+16
   -0.945005    3.26908  0.0000E+00  0.4702E-13  0.1132E-15  0.1000E-09  0.0000E+00  0.9050E+15
   -0.980005    3.35377  0.0000E+00  0.1272E-12  0.1145E-15  0.1000E-09  0.0000E+00  0.7742E+15
   -1.015006    3.43660  0.0000E+00  0.4115E-12  0.2802E-15  0.1000E-09  0.0000E+00  0.6465E+15
   -1.050006    3.51694  0.0000E+00  0.1216E-11  0.7778E-15  0.1000E-09  0.0000E+00  0.5284E+15
   -1.085006    3.59476  0.0000E+00  0.3494E-11  0.2166E-14  0.1000E-09  0.0000E+00  0.4327E+15
   -1.120006    3.67267  0.0000E+00  0.9815E-11  0.5932E-14  0.1000E-09  0.0000E+00  0.3366E+15
   -1.155006    3.75054  0.0000E+00  0.2726E-10  0.1609E-13  0.1674E-09  0.0000E+00  0.2410E+15
   -1.190005    3.82847  0.0000E+00  0.7552E-10  0.4362E-13  0.7376E-09  0.0000E+00  0.1455E+15
   -1.225005    3.90647  0.0000E+00  0.2179E-09  0.1237E-12  0.5602E-08  0.0000E+00  0.4989E+14
   -1.260004    3.98341  0.0000E+00  0.6372E-09  0.3636E-12  0.3189E-06  0.0000E+00 -0.4039E+13
   -1.295002    4.00921  0.0000E+00  0.1322E-08  0.9412E-12  0.7127E-06  0.0000E+00 -0.7448E+13
   -1.330001    4.02472  0.0000E+00  0.1780E-08  0.1772E-11  0.6241E-06  0.0000E+00 -0.1390E+14
   -1.364999    4.04332  0.0000E+00  0.1818E-08  0.3572E-11  0.2649E-06  0.0000E+00 -0.4799E+14
   -1.399996    4.08318  0.0000E+00  0.0000E+00  0.0000E+00  0.0000E+00  0.0000E+00  0.0000E+00
