 1 - depth, m
 2 - temperature, C
 3 - salinity, kg/kg
 4 - turbulent kinetic energy, m**2/s**2
 5 - dissipation rate, m**2/s**3
 6 - kinematic heat conductance, m**2/s
 7 - modulus of horizontal velocity, m/s
 8 - Richardson number, n/d
   -0.000000    0.00000  0.0000E+00  0.6514E-10  0.4995E-13  0.1000E-09  0.0000E+00  0.2365E+17
   -0.034997    0.37340  0.0000E+00  0.1473E-09  0.3939E-13  0.1000E-09  0.0000E+00  0.2070E+17
   -0.069995    0.73758  0.0000E+00  0.2960E-09  0.4482E-13  0.1000E-09  0.0000E+00  0.1797E+17
   -0.104993    1.09297  0.0000E+00  0.5216E-09  0.6080E-13  0.1000E-09  0.0000E+00  0.1536E+17
   -0.139992    1.43790  0.0000E+00  0.8521E-09  0.8800E-13  0.1000E-09  0.0000E+00  0.1293E+17
   -0.174990    1.77151  0.0000E+00  0.1335E-08  0.1298E-12  0.1000E-09  0.0000E+00  0.1072E+17
   -0.209989    2.09404  0.0000E+00  0.2042E-08  0.1918E-12  0.1000E-09  0.0000E+00  0.8719E+16
   -0.244988    2.40578  0.0000E+00  0.3081E-08  0.2830E-12  0.1062E-09  0.0000E+00  0.6904E+16
   -0.279988    2.70702  0.0000E+00  0.4610E-08  0.4162E-12  0.2050E-09  0.0000E+00  0.5260E+16
   -0.314987    2.99786  0.0000E+00  0.6891E-08  0.6130E-12  0.4229E-09  0.0000E+00  0.3756E+16
   -0.349987    3.27644  0.0000E+00  0.1034E-07  0.9069E-12  0.9705E-09  0.0000E+00  0.2422E+16
   -0.384987    3.54183  0.0000E+00  0.1552E-07  0.1344E-11  0.2770E-08  0.0000E+00  0.1257E+16
   -0.419987    3.79170  0.0000E+00  0.2310E-07  0.1977E-11  0.1752E-07  0.0000E+00  0.2926E+15
   -0.454988    4.01055  0.0000E+00  0.2348E-07  0.2011E-11  0.9326E-04  0.0000E+00 -0.1407E+12
   -0.489988    4.01091  0.0000E+00  0.2366E-07  0.2030E-11  0.9106E-04  0.0000E+00 -0.1441E+12
   -0.524988    4.01128  0.0000E+00  0.2385E-07  0.2051E-11  0.9133E-04  0.0000E+00 -0.1455E+12
   -0.559989    4.01165  0.0000E+00  0.2406E-07  0.2079E-11  0.9140E-04  0.0000E+00 -0.1489E+12
   -0.594990    4.01202  0.0000E+00  0.2433E-07  0.2118E-11  0.9169E-04  0.0000E+00 -0.1514E+12
   -0.629990    4.01240  0.0000E+00  0.2460E-07  0.2160E-11  0.9215E-04  0.0000E+00 -0.1525E+12
   -0.664991    4.01277  0.0000E+00  0.2485E-07  0.2204E-11  0.9223E-04  0.0000E+00 -0.1541E+12
   -0.699992    4.01314  0.0000E+00  0.2509E-07  0.2250E-11  0.9213E-04  0.0000E+00 -0.1562E+12
   -0.734993    4.01351  0.0000E+00  0.2531E-07  0.2299E-11  0.9185E-04  0.0000E+00 -0.1587E+12
   -0.769993    4.01388  0.0000E+00  0.2552E-07  0.2351E-11  0.9141E-04  0.0000E+00 -0.1613E+12
   -0.804994    4.01425  0.0000E+00  0.2572E-07  0.2406E-11  0.9079E-04  0.0000E+00 -0.1644E+12
   -0.839995    4.01462  0.0000E+00  0.2590E-07  0.2466E-11  0.8997E-04  0.0000E+00 -0.1680E+12
   -0.874995    4.01500  0.0000E+00  0.2607E-07  0.2532E-11  0.8893E-04  0.0000E+00 -0.1724E+12
   -0.909996    4.01538  0.0000E+00  0.2622E-07  0.2604E-11  0.8768E-04  0.0000E+00 -0.1774E+12
   -0.944996    4.01576  0.0000E+00  0.2635E-07  0.2682E-11  0.8622E-04  0.0000E+00 -0.1831E+12
   -0.979996    4.01616  0.0000E+00  0.2647E-07  0.2769E-11  0.8451E-04  0.0000E+00 -0.1899E+12
   -1.014996    4.01656  0.0000E+00  0.2657E-07  0.2866E-11  0.8252E-04  0.0000E+00 -0.1986E+12
   -1.049996    4.01698  0.0000E+00  0.2665E-07  0.2980E-11  0.8015E-04  0.0000E+00 -0.2092E+12
   -1.084996    4.01741  0.0000E+00  0.2670E-07  0.3116E-11  0.7741E-04  0.0000E+00 -0.2196E+12
   -1.119996    4.01786  0.0000E+00  0.2674E-07  0.3278E-11  0.7426E-04  0.0000E+00 -0.2325E+12
   -1.154995    4.01833  0.0000E+00  0.2674E-07  0.3475E-11  0.7069E-04  0.0000E+00 -0.2483E+12
   -1.189994    4.01882  0.0000E+00  0.2671E-07  0.3720E-11  0.6649E-04  0.0000E+00 -0.2695E+12
   -1.224993    4.01934  0.0000E+00  0.2663E-07  0.4066E-11  0.6119E-04  0.0000E+00 -0.3018E+12
   -1.259992    4.01992  0.0000E+00  0.2645E-07  0.4648E-11  0.5368E-04  0.0000E+00 -0.3636E+12
   -1.294990    4.02060  0.0000E+00  0.2595E-07  0.6213E-11  0.4084E-04  0.0000E+00 -0.5245E+12
   -1.329988    4.02157  0.0000E+00  0.2445E-07  0.1096E-10  0.1219E-04  0.0000E+00 -0.1950E+13
   -1.364986    4.02494  0.0000E+00  0.1768E-07  0.3868E-10  0.1304E-05  0.0000E+00 -0.2681E+14
   -1.399984    4.05643  0.0000E+00  0.0000E+00  0.0000E+00  0.0000E+00  0.0000E+00  0.0000E+00
