 1 - depth, m
 2 - temperature, C
 3 - salinity, kg/kg
 4 - turbulent kinetic energy, m**2/s**2
 5 - dissipation rate, m**2/s**3
 6 - kinematic heat conductance, m**2/s
 7 - modulus of horizontal velocity, m/s
 8 - Richardson number, n/d
   -0.000000    0.00000  0.0000E+00  0.4702E-13  0.1132E-15  0.1000E-09  0.0000E+00  0.1529E+17
   -0.034997    0.23689  0.0000E+00  0.4702E-13  0.1132E-15  0.1000E-09  0.0000E+00  0.1407E+17
   -0.069995    0.46997  0.0000E+00  0.4702E-13  0.1132E-15  0.1000E-09  0.0000E+00  0.1292E+17
   -0.104993    0.69929  0.0000E+00  0.4702E-13  0.1132E-15  0.1000E-09  0.0000E+00  0.1170E+17
   -0.139991    0.92266  0.0000E+00  0.4702E-13  0.1132E-15  0.1000E-09  0.0000E+00  0.1050E+17
   -0.174989    1.13886  0.0000E+00  0.4702E-13  0.1132E-15  0.1000E-09  0.0000E+00  0.9392E+16
   -0.209988    1.34796  0.0000E+00  0.6531E-13  0.1132E-15  0.1000E-09  0.0000E+00  0.8365E+16
   -0.244987    1.54996  0.0000E+00  0.2712E-12  0.1132E-15  0.1000E-09  0.0000E+00  0.7416E+16
   -0.279986    1.74487  0.0000E+00  0.6683E-12  0.1270E-15  0.1000E-09  0.0000E+00  0.6541E+16
   -0.314986    1.93270  0.0000E+00  0.1293E-11  0.1797E-15  0.1000E-09  0.0000E+00  0.5744E+16
   -0.349985    2.11370  0.0000E+00  0.2256E-11  0.2747E-15  0.1000E-09  0.0000E+00  0.5006E+16
   -0.384985    2.28763  0.0000E+00  0.3744E-11  0.4282E-15  0.1000E-09  0.0000E+00  0.4324E+16
   -0.419985    2.45413  0.0000E+00  0.6035E-11  0.6670E-15  0.1000E-09  0.0000E+00  0.3717E+16
   -0.454985    2.61376  0.0000E+00  0.9568E-11  0.1034E-14  0.1000E-09  0.0000E+00  0.3179E+16
   -0.489985    2.76716  0.0000E+00  0.1504E-10  0.1597E-14  0.1000E-09  0.0000E+00  0.2687E+16
   -0.524986    2.91417  0.0000E+00  0.2444E-10  0.2552E-14  0.1000E-09  0.0000E+00  0.2237E+16
   -0.559986    3.05442  0.0000E+00  0.4154E-10  0.4269E-14  0.1000E-09  0.0000E+00  0.1805E+16
   -0.594986    3.18562  0.0000E+00  0.7484E-10  0.7572E-14  0.1000E-09  0.0000E+00  0.1410E+16
   -0.629987    3.30573  0.0000E+00  0.1245E-09  0.1244E-13  0.1000E-09  0.0000E+00  0.1111E+16
   -0.664987    3.41819  0.0000E+00  0.1974E-09  0.1947E-13  0.1000E-09  0.0000E+00  0.8510E+15
   -0.699988    3.52264  0.0000E+00  0.3065E-09  0.2986E-13  0.1232E-09  0.0000E+00  0.6286E+15
   -0.734989    3.61853  0.0000E+00  0.4729E-09  0.4548E-13  0.2623E-09  0.0000E+00  0.4496E+15
   -0.769989    3.70674  0.0000E+00  0.7273E-09  0.6903E-13  0.5727E-09  0.0000E+00  0.3128E+15
   -0.804990    3.79041  0.0000E+00  0.1116E-08  0.1046E-12  0.1401E-08  0.0000E+00  0.1939E+15
   -0.839990    3.86928  0.0000E+00  0.1707E-08  0.1579E-12  0.4457E-08  0.0000E+00  0.9236E+14
   -0.874990    3.94239  0.0000E+00  0.2568E-08  0.2349E-12  0.4451E-07  0.0000E+00  0.1437E+14
   -0.909991    3.99707  0.0000E+00  0.2916E-08  0.2680E-12  0.1332E-04  0.0000E+00 -0.1280E+12
   -0.944991    3.99781  0.0000E+00  0.3089E-08  0.2870E-12  0.1400E-04  0.0000E+00 -0.1288E+12
   -0.979991    3.99850  0.0000E+00  0.3241E-08  0.3064E-12  0.1436E-04  0.0000E+00 -0.1319E+12
   -1.014991    3.99917  0.0000E+00  0.3375E-08  0.3270E-12  0.1436E-04  0.0000E+00 -0.1375E+12
   -1.049991    3.99984  0.0000E+00  0.3496E-08  0.3502E-12  0.1404E-04  0.0000E+00 -0.1464E+12
   -1.084990    4.00051  0.0000E+00  0.3605E-08  0.3773E-12  0.1359E-04  0.0000E+00 -0.1603E+12
   -1.119990    4.00122  0.0000E+00  0.3701E-08  0.4095E-12  0.1289E-04  0.0000E+00 -0.1790E+12
   -1.154989    4.00196  0.0000E+00  0.3779E-08  0.4485E-12  0.1198E-04  0.0000E+00 -0.2047E+12
   -1.189988    4.00278  0.0000E+00  0.3836E-08  0.4983E-12  0.1085E-04  0.0000E+00 -0.2427E+12
   -1.224987    4.00369  0.0000E+00  0.3870E-08  0.5712E-12  0.9420E-05  0.0000E+00 -0.3100E+12
   -1.259985    4.00480  0.0000E+00  0.3868E-08  0.7011E-12  0.7483E-05  0.0000E+00 -0.4618E+12
   -1.294983    4.00633  0.0000E+00  0.3760E-08  0.1047E-11  0.4400E-05  0.0000E+00 -0.1049E+13
   -1.329981    4.00943  0.0000E+00  0.3389E-08  0.1897E-11  0.1661E-05  0.0000E+00 -0.3776E+13
   -1.364979    4.01820  0.0000E+00  0.2602E-08  0.4566E-11  0.3425E-06  0.0000E+00 -0.3180E+14
   -1.399976    4.05758  0.0000E+00  0.0000E+00  0.0000E+00  0.0000E+00  0.0000E+00  0.0000E+00
