 1 - depth, m
 2 - temperature, C
 3 - salinity, kg/kg
 4 - turbulent kinetic energy, m**2/s**2
 5 - dissipation rate, m**2/s**3
 6 - kinematic heat conductance, m**2/s
 7 - modulus of horizontal velocity, m/s
 8 - Richardson number, n/d
   -0.000000    0.00000  0.0000E+00  0.1802E-11  0.5687E-15  0.1000E-09  0.0000E+00  0.1780E+17
   -0.034997    0.27736  0.0000E+00  0.2721E-11  0.5131E-15  0.1000E-09  0.0000E+00  0.1603E+17
   -0.069995    0.54751  0.0000E+00  0.4474E-11  0.5996E-15  0.1000E-09  0.0000E+00  0.1435E+17
   -0.104993    0.80989  0.0000E+00  0.7201E-11  0.8038E-15  0.1000E-09  0.0000E+00  0.1270E+17
   -0.139991    1.06289  0.0000E+00  0.1122E-10  0.1139E-14  0.1000E-09  0.0000E+00  0.1115E+17
   -0.174990    1.30575  0.0000E+00  0.1707E-10  0.1642E-14  0.1000E-09  0.0000E+00  0.9752E+16
   -0.209989    1.53868  0.0000E+00  0.2551E-10  0.2373E-14  0.1000E-09  0.0000E+00  0.8484E+16
   -0.244988    1.76197  0.0000E+00  0.3769E-10  0.3420E-14  0.1000E-09  0.0000E+00  0.7342E+16
   -0.279987    1.97592  0.0000E+00  0.5522E-10  0.4908E-14  0.1000E-09  0.0000E+00  0.6314E+16
   -0.314987    2.18079  0.0000E+00  0.8074E-10  0.7041E-14  0.1000E-09  0.0000E+00  0.5402E+16
   -0.349986    2.37735  0.0000E+00  0.1183E-09  0.1013E-13  0.1000E-09  0.0000E+00  0.4578E+16
   -0.384986    2.56564  0.0000E+00  0.1732E-09  0.1458E-13  0.1000E-09  0.0000E+00  0.3832E+16
   -0.419986    2.74562  0.0000E+00  0.2527E-09  0.2090E-13  0.1000E-09  0.0000E+00  0.3186E+16
   -0.454986    2.91863  0.0000E+00  0.3669E-09  0.2984E-13  0.1000E-09  0.0000E+00  0.2621E+16
   -0.489987    3.08606  0.0000E+00  0.5310E-09  0.4248E-13  0.1008E-09  0.0000E+00  0.2112E+16
   -0.524987    3.24858  0.0000E+00  0.7922E-09  0.6228E-13  0.1132E-09  0.0000E+00  0.1685E+16
   -0.559987    3.41085  0.0000E+00  0.1234E-08  0.9529E-13  0.1966E-09  0.0000E+00  0.1270E+16
   -0.594988    3.57426  0.0000E+00  0.2036E-08  0.1544E-12  0.4860E-09  0.0000E+00  0.8344E+15
   -0.629989    3.73547  0.0000E+00  0.3144E-08  0.2351E-12  0.1780E-08  0.0000E+00  0.3936E+15
   -0.664989    3.87781  0.0000E+00  0.4389E-08  0.3251E-12  0.1544E-05  0.0000E+00  0.1055E+15
   -0.699990    3.97365  0.0000E+00  0.4897E-08  0.3622E-12  0.1660E-04  0.0000E+00  0.8434E+13
   -0.734991    3.99317  0.0000E+00  0.5097E-08  0.3788E-12  0.2337E-04  0.0000E+00 -0.6930E+11
   -0.769991    3.99386  0.0000E+00  0.5250E-08  0.3933E-12  0.2478E-04  0.0000E+00 -0.7288E+11
   -0.804992    3.99449  0.0000E+00  0.5393E-08  0.4086E-12  0.2594E-04  0.0000E+00 -0.7609E+11
   -0.839992    3.99509  0.0000E+00  0.5528E-08  0.4247E-12  0.2683E-04  0.0000E+00 -0.7945E+11
   -0.874993    3.99567  0.0000E+00  0.5655E-08  0.4419E-12  0.2747E-04  0.0000E+00 -0.8322E+11
   -0.909993    3.99624  0.0000E+00  0.5774E-08  0.4603E-12  0.2786E-04  0.0000E+00 -0.8749E+11
   -0.944994    3.99679  0.0000E+00  0.5884E-08  0.4799E-12  0.2804E-04  0.0000E+00 -0.9240E+11
   -0.979994    3.99735  0.0000E+00  0.5985E-08  0.5010E-12  0.2798E-04  0.0000E+00 -0.9826E+11
   -1.014994    3.99790  0.0000E+00  0.6076E-08  0.5243E-12  0.2770E-04  0.0000E+00 -0.1056E+12
   -1.049994    3.99848  0.0000E+00  0.6159E-08  0.5508E-12  0.2722E-04  0.0000E+00 -0.1143E+12
   -1.084993    3.99907  0.0000E+00  0.6233E-08  0.5819E-12  0.2648E-04  0.0000E+00 -0.1239E+12
   -1.119993    3.99967  0.0000E+00  0.6296E-08  0.6187E-12  0.2549E-04  0.0000E+00 -0.1356E+12
   -1.154992    4.00031  0.0000E+00  0.6345E-08  0.6630E-12  0.2421E-04  0.0000E+00 -0.1508E+12
   -1.189991    4.00099  0.0000E+00  0.6376E-08  0.7193E-12  0.2246E-04  0.0000E+00 -0.1728E+12
   -1.224990    4.00172  0.0000E+00  0.6384E-08  0.8045E-12  0.1979E-04  0.0000E+00 -0.2128E+12
   -1.259989    4.00259  0.0000E+00  0.6345E-08  0.9665E-12  0.1514E-04  0.0000E+00 -0.3147E+12
   -1.294987    4.00379  0.0000E+00  0.6145E-08  0.1433E-11  0.8173E-05  0.0000E+00 -0.7203E+12
   -1.329985    4.00626  0.0000E+00  0.5535E-08  0.2708E-11  0.2842E-05  0.0000E+00 -0.2740E+13
   -1.364982    4.01366  0.0000E+00  0.4019E-08  0.7358E-11  0.4602E-06  0.0000E+00 -0.3082E+14
   -1.399980    4.05474  0.0000E+00  0.0000E+00  0.0000E+00  0.0000E+00  0.0000E+00  0.0000E+00
