 1 - depth, m
 2 - temperature, C
 3 - salinity, kg/kg
 4 - turbulent kinetic energy, m**2/s**2
 5 - dissipation rate, m**2/s**3
 6 - kinematic heat conductance, m**2/s
 7 - modulus of horizontal velocity, m/s
 8 - Richardson number, n/d
   -0.000000    0.00000  0.0000E+00  0.4702E-13  0.1132E-15  0.1000E-09  0.0000E+00  0.9311E+16
   -0.034998    0.14239  0.0000E+00  0.4702E-13  0.1132E-15  0.1000E-09  0.0000E+00  0.9090E+16
   -0.069996    0.28705  0.0000E+00  0.4702E-13  0.1132E-15  0.1000E-09  0.0000E+00  0.8856E+16
   -0.104994    0.43400  0.0000E+00  0.4702E-13  0.1132E-15  0.1000E-09  0.0000E+00  0.8477E+16
   -0.139993    0.58097  0.0000E+00  0.4702E-13  0.1132E-15  0.1000E-09  0.0000E+00  0.8026E+16
   -0.174992    0.72661  0.0000E+00  0.4702E-13  0.1132E-15  0.1000E-09  0.0000E+00  0.7583E+16
   -0.209991    0.87081  0.0000E+00  0.4702E-13  0.1132E-15  0.1000E-09  0.0000E+00  0.7149E+16
   -0.244991    1.01350  0.0000E+00  0.4702E-13  0.1132E-15  0.1000E-09  0.0000E+00  0.6724E+16
   -0.279990    1.15461  0.0000E+00  0.4702E-13  0.1132E-15  0.1000E-09  0.0000E+00  0.6308E+16
   -0.314990    1.29403  0.0000E+00  0.4702E-13  0.1132E-15  0.1000E-09  0.0000E+00  0.5870E+16
   -0.349990    1.43092  0.0000E+00  0.4702E-13  0.1132E-15  0.1000E-09  0.0000E+00  0.5438E+16
   -0.384991    1.56493  0.0000E+00  0.4702E-13  0.1132E-15  0.1000E-09  0.0000E+00  0.5015E+16
   -0.419991    1.69576  0.0000E+00  0.4702E-13  0.1132E-15  0.1000E-09  0.0000E+00  0.4646E+16
   -0.454992    1.82430  0.0000E+00  0.4702E-13  0.1132E-15  0.1000E-09  0.0000E+00  0.4314E+16
   -0.489993    1.95119  0.0000E+00  0.4702E-13  0.1132E-15  0.1000E-09  0.0000E+00  0.3980E+16
   -0.524993    2.07598  0.0000E+00  0.4702E-13  0.1132E-15  0.1000E-09  0.0000E+00  0.3603E+16
   -0.559994    2.19668  0.0000E+00  0.4702E-13  0.1132E-15  0.1000E-09  0.0000E+00  0.3183E+16
   -0.594995    2.31073  0.0000E+00  0.4702E-13  0.1132E-15  0.1000E-09  0.0000E+00  0.2761E+16
   -0.629996    2.41655  0.0000E+00  0.4702E-13  0.1132E-15  0.1000E-09  0.0000E+00  0.2512E+16
   -0.664997    2.51966  0.0000E+00  0.4702E-13  0.1132E-15  0.1000E-09  0.0000E+00  0.2274E+16
   -0.699998    2.61985  0.0000E+00  0.4702E-13  0.1132E-15  0.1000E-09  0.0000E+00  0.2043E+16
   -0.735000    2.71672  0.0000E+00  0.4702E-13  0.1132E-15  0.1000E-09  0.0000E+00  0.1834E+16
   -0.770001    2.81065  0.0000E+00  0.4702E-13  0.1132E-15  0.1000E-09  0.0000E+00  0.1669E+16
   -0.805002    2.90332  0.0000E+00  0.4702E-13  0.1132E-15  0.1000E-09  0.0000E+00  0.1509E+16
   -0.840003    2.99465  0.0000E+00  0.4702E-13  0.1132E-15  0.1000E-09  0.0000E+00  0.1353E+16
   -0.875003    3.08455  0.0000E+00  0.4702E-13  0.1132E-15  0.1000E-09  0.0000E+00  0.1203E+16
   -0.910004    3.17289  0.0000E+00  0.4702E-13  0.1132E-15  0.1000E-09  0.0000E+00  0.1059E+16
   -0.945005    3.25965  0.0000E+00  0.4702E-13  0.1132E-15  0.1000E-09  0.0000E+00  0.9215E+15
   -0.980006    3.34470  0.0000E+00  0.8306E-13  0.1132E-15  0.1000E-09  0.0000E+00  0.7892E+15
   -1.015006    3.42787  0.0000E+00  0.3146E-12  0.2311E-15  0.1000E-09  0.0000E+00  0.6602E+15
   -1.050006    3.50854  0.0000E+00  0.9743E-12  0.6419E-15  0.1000E-09  0.0000E+00  0.5407E+15
   -1.085007    3.58668  0.0000E+00  0.2849E-11  0.1808E-14  0.1000E-09  0.0000E+00  0.4441E+15
   -1.120006    3.66487  0.0000E+00  0.8095E-11  0.5003E-14  0.1000E-09  0.0000E+00  0.3470E+15
   -1.155006    3.74298  0.0000E+00  0.2271E-10  0.1370E-13  0.1370E-09  0.0000E+00  0.2508E+15
   -1.190006    3.82108  0.0000E+00  0.6354E-10  0.3751E-13  0.5969E-09  0.0000E+00  0.1548E+15
   -1.225005    3.89924  0.0000E+00  0.1853E-09  0.1075E-12  0.4195E-08  0.0000E+00  0.5872E+14
   -1.260004    3.97686  0.0000E+00  0.5534E-09  0.3214E-12  0.2215E-06  0.0000E+00 -0.3500E+13
   -1.295003    4.00948  0.0000E+00  0.1277E-08  0.9239E-12  0.6864E-06  0.0000E+00 -0.7734E+13
   -1.330001    4.02535  0.0000E+00  0.1752E-08  0.1755E-11  0.6145E-06  0.0000E+00 -0.1412E+14
   -1.364999    4.04400  0.0000E+00  0.1796E-08  0.3524E-11  0.2622E-06  0.0000E+00 -0.4795E+14
   -1.399997    4.08355  0.0000E+00  0.0000E+00  0.0000E+00  0.0000E+00  0.0000E+00  0.0000E+00
