 1 - depth, m
 2 - temperature, C
 3 - salinity, kg/kg
 4 - turbulent kinetic energy, m**2/s**2
 5 - dissipation rate, m**2/s**3
 6 - kinematic heat conductance, m**2/s
 7 - modulus of horizontal velocity, m/s
 8 - Richardson number, n/d
   -0.000000    0.00000  0.0000E+00  0.4702E-13  0.1132E-15  0.1000E-09  0.0000E+00  0.1097E+17
   -0.034998    0.16832  0.0000E+00  0.4702E-13  0.1132E-15  0.1000E-09  0.0000E+00  0.1059E+17
   -0.069996    0.33868  0.0000E+00  0.4702E-13  0.1132E-15  0.1000E-09  0.0000E+00  0.1019E+17
   -0.104994    0.51095  0.0000E+00  0.4702E-13  0.1132E-15  0.1000E-09  0.0000E+00  0.9647E+16
   -0.139993    0.68289  0.0000E+00  0.4702E-13  0.1132E-15  0.1000E-09  0.0000E+00  0.9041E+16
   -0.174992    0.85309  0.0000E+00  0.4702E-13  0.1132E-15  0.1000E-09  0.0000E+00  0.8439E+16
   -0.209991    1.02125  0.0000E+00  0.4702E-13  0.1132E-15  0.1000E-09  0.0000E+00  0.7845E+16
   -0.244991    1.18710  0.0000E+00  0.4702E-13  0.1132E-15  0.1000E-09  0.0000E+00  0.7263E+16
   -0.279991    1.35037  0.0000E+00  0.4702E-13  0.1132E-15  0.1000E-09  0.0000E+00  0.6695E+16
   -0.314990    1.51083  0.0000E+00  0.4702E-13  0.1132E-15  0.1000E-09  0.0000E+00  0.6141E+16
   -0.349991    1.66820  0.0000E+00  0.4702E-13  0.1132E-15  0.1000E-09  0.0000E+00  0.5603E+16
   -0.384991    1.82215  0.0000E+00  0.4702E-13  0.1132E-15  0.1000E-09  0.0000E+00  0.5084E+16
   -0.419991    1.97237  0.0000E+00  0.4702E-13  0.1132E-15  0.1000E-09  0.0000E+00  0.4602E+16
   -0.454992    2.11911  0.0000E+00  0.4702E-13  0.1132E-15  0.1000E-09  0.0000E+00  0.4154E+16
   -0.489993    2.26262  0.0000E+00  0.4702E-13  0.1132E-15  0.1000E-09  0.0000E+00  0.3723E+16
   -0.524994    2.40257  0.0000E+00  0.4702E-13  0.1132E-15  0.1000E-09  0.0000E+00  0.3286E+16
   -0.559994    2.53762  0.0000E+00  0.4702E-13  0.1132E-15  0.1000E-09  0.0000E+00  0.2835E+16
   -0.594995    2.66545  0.0000E+00  0.4702E-13  0.1132E-15  0.1000E-09  0.0000E+00  0.2396E+16
   -0.629996    2.78427  0.0000E+00  0.4702E-13  0.1132E-15  0.1000E-09  0.0000E+00  0.2085E+16
   -0.664998    2.89844  0.0000E+00  0.4702E-13  0.1132E-15  0.1000E-09  0.0000E+00  0.1796E+16
   -0.699999    3.00759  0.0000E+00  0.6506E-13  0.1132E-15  0.1000E-09  0.0000E+00  0.1526E+16
   -0.735000    3.11116  0.0000E+00  0.2608E-12  0.1178E-15  0.1000E-09  0.0000E+00  0.1289E+16
   -0.770001    3.20946  0.0000E+00  0.6685E-12  0.1954E-15  0.1000E-09  0.0000E+00  0.1095E+16
   -0.805002    3.30421  0.0000E+00  0.1436E-11  0.3692E-15  0.1000E-09  0.0000E+00  0.9166E+15
   -0.840003    3.39520  0.0000E+00  0.2882E-11  0.7054E-15  0.1000E-09  0.0000E+00  0.7523E+15
   -0.875004    3.48214  0.0000E+00  0.5636E-11  0.1342E-14  0.1000E-09  0.0000E+00  0.6027E+15
   -0.910005    3.56464  0.0000E+00  0.1088E-10  0.2534E-14  0.1000E-09  0.0000E+00  0.4701E+15
   -0.945005    3.64259  0.0000E+00  0.2077E-10  0.4742E-14  0.1000E-09  0.0000E+00  0.3534E+15
   -0.980006    3.71567  0.0000E+00  0.3944E-10  0.8837E-14  0.1013E-09  0.0000E+00  0.2523E+15
   -1.015006    3.78343  0.0000E+00  0.7506E-10  0.1651E-13  0.2591E-09  0.0000E+00  0.1650E+15
   -1.050007    3.84431  0.0000E+00  0.1437E-09  0.3102E-13  0.8263E-09  0.0000E+00  0.9714E+14
   -1.085007    3.89804  0.0000E+00  0.2758E-09  0.5856E-13  0.2986E-08  0.0000E+00  0.5073E+14
   -1.120007    3.94980  0.0000E+00  0.5208E-09  0.1090E-12  0.2772E-07  0.0000E+00  0.1023E+14
   -1.155007    3.99328  0.0000E+00  0.8719E-09  0.1833E-12  0.1520E-05  0.0000E+00 -0.6337E+12
   -1.190006    3.99774  0.0000E+00  0.1119E-08  0.2526E-12  0.1919E-05  0.0000E+00 -0.7504E+12
   -1.225005    4.00138  0.0000E+00  0.1331E-08  0.3395E-12  0.2013E-05  0.0000E+00 -0.9571E+12
   -1.260004    4.00500  0.0000E+00  0.1520E-08  0.4732E-12  0.1848E-05  0.0000E+00 -0.1416E+13
   -1.295003    4.00934  0.0000E+00  0.1701E-08  0.7680E-12  0.1350E-05  0.0000E+00 -0.2900E+13
   -1.330001    4.01632  0.0000E+00  0.1753E-08  0.1325E-11  0.7387E-06  0.0000E+00 -0.7628E+13
   -1.365000    4.02961  0.0000E+00  0.1579E-08  0.2762E-11  0.2407E-06  0.0000E+00 -0.3610E+14
   -1.399997    4.06685  0.0000E+00  0.0000E+00  0.0000E+00  0.0000E+00  0.0000E+00  0.0000E+00
