 1 - depth, m
 2 - temperature, C
 3 - salinity, kg/kg
 4 - turbulent kinetic energy, m**2/s**2
 5 - dissipation rate, m**2/s**3
 6 - kinematic heat conductance, m**2/s
 7 - modulus of horizontal velocity, m/s
 8 - Richardson number, n/d
   -0.000000    0.00000  0.0000E+00  0.4702E-13  0.1132E-15  0.1000E-09  0.0000E+00  0.7739E+16
   -0.034998    0.11796  0.0000E+00  0.4702E-13  0.1132E-15  0.1000E-09  0.0000E+00  0.7654E+16
   -0.069996    0.23851  0.0000E+00  0.4702E-13  0.1132E-15  0.1000E-09  0.0000E+00  0.7555E+16
   -0.104995    0.36170  0.0000E+00  0.4702E-13  0.1132E-15  0.1000E-09  0.0000E+00  0.7331E+16
   -0.139993    0.48565  0.0000E+00  0.4702E-13  0.1132E-15  0.1000E-09  0.0000E+00  0.7040E+16
   -0.174992    0.60921  0.0000E+00  0.4702E-13  0.1132E-15  0.1000E-09  0.0000E+00  0.6747E+16
   -0.209992    0.73230  0.0000E+00  0.4702E-13  0.1132E-15  0.1000E-09  0.0000E+00  0.6455E+16
   -0.244991    0.85484  0.0000E+00  0.4702E-13  0.1132E-15  0.1000E-09  0.0000E+00  0.6162E+16
   -0.279991    0.97672  0.0000E+00  0.4702E-13  0.1132E-15  0.1000E-09  0.0000E+00  0.5871E+16
   -0.314991    1.09787  0.0000E+00  0.4702E-13  0.1132E-15  0.1000E-09  0.0000E+00  0.5562E+16
   -0.349991    1.21779  0.0000E+00  0.4702E-13  0.1132E-15  0.1000E-09  0.0000E+00  0.5254E+16
   -0.384992    1.33627  0.0000E+00  0.4702E-13  0.1132E-15  0.1000E-09  0.0000E+00  0.4947E+16
   -0.419992    1.45313  0.0000E+00  0.4702E-13  0.1132E-15  0.1000E-09  0.0000E+00  0.4667E+16
   -0.454993    1.56878  0.0000E+00  0.4702E-13  0.1132E-15  0.1000E-09  0.0000E+00  0.4406E+16
   -0.489994    1.68352  0.0000E+00  0.4702E-13  0.1132E-15  0.1000E-09  0.0000E+00  0.4141E+16
   -0.524995    1.79704  0.0000E+00  0.4702E-13  0.1132E-15  0.1000E-09  0.0000E+00  0.3842E+16
   -0.559996    1.90812  0.0000E+00  0.4702E-13  0.1132E-15  0.1000E-09  0.0000E+00  0.3508E+16
   -0.594997    2.01518  0.0000E+00  0.4702E-13  0.1132E-15  0.1000E-09  0.0000E+00  0.3165E+16
   -0.629998    2.11720  0.0000E+00  0.4702E-13  0.1132E-15  0.1000E-09  0.0000E+00  0.2943E+16
   -0.664999    2.21750  0.0000E+00  0.4702E-13  0.1132E-15  0.1000E-09  0.0000E+00  0.2725E+16
   -0.700000    2.31593  0.0000E+00  0.4702E-13  0.1132E-15  0.1000E-09  0.0000E+00  0.2511E+16
   -0.735002    2.41220  0.0000E+00  0.4702E-13  0.1132E-15  0.1000E-09  0.0000E+00  0.2311E+16
   -0.770003    2.50651  0.0000E+00  0.4702E-13  0.1132E-15  0.1000E-09  0.0000E+00  0.2144E+16
   -0.805004    2.59984  0.0000E+00  0.4702E-13  0.1132E-15  0.1000E-09  0.0000E+00  0.1980E+16
   -0.840005    2.69213  0.0000E+00  0.4702E-13  0.1132E-15  0.1000E-09  0.0000E+00  0.1819E+16
   -0.875006    2.78328  0.0000E+00  0.4702E-13  0.1132E-15  0.1000E-09  0.0000E+00  0.1661E+16
   -0.910007    2.87314  0.0000E+00  0.4702E-13  0.1132E-15  0.1000E-09  0.0000E+00  0.1508E+16
   -0.945008    2.96169  0.0000E+00  0.4702E-13  0.1132E-15  0.1000E-09  0.0000E+00  0.1360E+16
   -0.980008    3.04881  0.0000E+00  0.4702E-13  0.1132E-15  0.1000E-09  0.0000E+00  0.1216E+16
   -1.015009    3.13433  0.0000E+00  0.4702E-13  0.1132E-15  0.1000E-09  0.0000E+00  0.1072E+16
   -1.050009    3.21773  0.0000E+00  0.4702E-13  0.1132E-15  0.1000E-09  0.0000E+00  0.9370E+15
   -1.085010    3.29896  0.0000E+00  0.4702E-13  0.1132E-15  0.1000E-09  0.0000E+00  0.8301E+15
   -1.120010    3.38005  0.0000E+00  0.4702E-13  0.1132E-15  0.1000E-09  0.0000E+00  0.7231E+15
   -1.155009    3.46090  0.0000E+00  0.4702E-13  0.1132E-15  0.1000E-09  0.0000E+00  0.6176E+15
   -1.190009    3.54155  0.0000E+00  0.4725E-13  0.1132E-15  0.1000E-09  0.0000E+00  0.5141E+15
   -1.225008    3.62217  0.0000E+00  0.2116E-12  0.2657E-15  0.1000E-09  0.0000E+00  0.4139E+15
   -1.260007    3.70342  0.0000E+00  0.9729E-12  0.1133E-14  0.1000E-09  0.0000E+00  0.3156E+15
   -1.295006    3.78658  0.0000E+00  0.5025E-11  0.5775E-14  0.1000E-09  0.0000E+00  0.2145E+15
   -1.330005    3.87419  0.0000E+00  0.2093E-10  0.2413E-13  0.5036E-09  0.0000E+00  0.9474E+14
   -1.365003    3.96423  0.0000E+00  0.8463E-10  0.1018E-12  0.2958E-07  0.0000E+00 -0.2179E+14
   -1.400001    4.04354  0.0000E+00  0.0000E+00  0.0000E+00  0.0000E+00  0.0000E+00  0.0000E+00
