 1 - depth, m
 2 - temperature, C
 3 - salinity, kg/kg
 4 - turbulent kinetic energy, m**2/s**2
 5 - dissipation rate, m**2/s**3
 6 - kinematic heat conductance, m**2/s
 7 - modulus of horizontal velocity, m/s
 8 - Richardson number, n/d
   -0.000000    0.00000  0.0000E+00  0.4702E-13  0.1132E-15  0.1000E-09  0.0000E+00  0.9900E+16
   -0.034998    0.15159  0.0000E+00  0.4702E-13  0.1132E-15  0.1000E-09  0.0000E+00  0.9623E+16
   -0.069996    0.30533  0.0000E+00  0.4702E-13  0.1132E-15  0.1000E-09  0.0000E+00  0.9338E+16
   -0.104994    0.46133  0.0000E+00  0.4702E-13  0.1132E-15  0.1000E-09  0.0000E+00  0.8895E+16
   -0.139993    0.61706  0.0000E+00  0.4702E-13  0.1132E-15  0.1000E-09  0.0000E+00  0.8377E+16
   -0.174992    0.77102  0.0000E+00  0.4702E-13  0.1132E-15  0.1000E-09  0.0000E+00  0.7872E+16
   -0.209991    0.92314  0.0000E+00  0.4702E-13  0.1132E-15  0.1000E-09  0.0000E+00  0.7381E+16
   -0.244990    1.07337  0.0000E+00  0.4702E-13  0.1132E-15  0.1000E-09  0.0000E+00  0.6904E+16
   -0.279990    1.22165  0.0000E+00  0.4702E-13  0.1132E-15  0.1000E-09  0.0000E+00  0.6440E+16
   -0.314990    1.36789  0.0000E+00  0.4702E-13  0.1132E-15  0.1000E-09  0.0000E+00  0.5937E+16
   -0.349990    1.51070  0.0000E+00  0.4702E-13  0.1132E-15  0.1000E-09  0.0000E+00  0.5443E+16
   -0.384990    1.64962  0.0000E+00  0.4702E-13  0.1132E-15  0.1000E-09  0.0000E+00  0.4964E+16
   -0.419990    1.78424  0.0000E+00  0.4702E-13  0.1132E-15  0.1000E-09  0.0000E+00  0.4563E+16
   -0.454991    1.91600  0.0000E+00  0.4702E-13  0.1132E-15  0.1000E-09  0.0000E+00  0.4213E+16
   -0.489991    2.04587  0.0000E+00  0.4702E-13  0.1132E-15  0.1000E-09  0.0000E+00  0.3856E+16
   -0.524992    2.17315  0.0000E+00  0.4702E-13  0.1132E-15  0.1000E-09  0.0000E+00  0.3427E+16
   -0.559993    2.29453  0.0000E+00  0.4702E-13  0.1132E-15  0.1000E-09  0.0000E+00  0.2935E+16
   -0.594994    2.40610  0.0000E+00  0.4702E-13  0.1132E-15  0.1000E-09  0.0000E+00  0.2444E+16
   -0.629995    2.50559  0.0000E+00  0.4702E-13  0.1132E-15  0.1000E-09  0.0000E+00  0.2211E+16
   -0.664996    2.60190  0.0000E+00  0.4702E-13  0.1132E-15  0.1000E-09  0.0000E+00  0.1990E+16
   -0.699997    2.69483  0.0000E+00  0.4702E-13  0.1132E-15  0.1000E-09  0.0000E+00  0.1774E+16
   -0.734998    2.78388  0.0000E+00  0.4702E-13  0.1132E-15  0.1000E-09  0.0000E+00  0.1585E+16
   -0.769999    2.86956  0.0000E+00  0.4702E-13  0.1132E-15  0.1000E-09  0.0000E+00  0.1447E+16
   -0.805000    2.95408  0.0000E+00  0.4702E-13  0.1132E-15  0.1000E-09  0.0000E+00  0.1314E+16
   -0.840000    3.03743  0.0000E+00  0.4702E-13  0.1132E-15  0.1000E-09  0.0000E+00  0.1185E+16
   -0.875001    3.11957  0.0000E+00  0.4702E-13  0.1132E-15  0.1000E-09  0.0000E+00  0.1060E+16
   -0.910002    3.20036  0.0000E+00  0.4702E-13  0.1132E-15  0.1000E-09  0.0000E+00  0.9409E+15
   -0.945003    3.27990  0.0000E+00  0.4702E-13  0.1132E-15  0.1000E-09  0.0000E+00  0.8266E+15
   -0.980003    3.35815  0.0000E+00  0.4702E-13  0.1132E-15  0.1000E-09  0.0000E+00  0.7162E+15
   -1.015004    3.43496  0.0000E+00  0.1886E-12  0.1646E-15  0.1000E-09  0.0000E+00  0.6062E+15
   -1.050004    3.50963  0.0000E+00  0.6323E-12  0.4617E-15  0.1000E-09  0.0000E+00  0.5040E+15
   -1.085004    3.58218  0.0000E+00  0.1946E-11  0.1359E-14  0.1000E-09  0.0000E+00  0.4240E+15
   -1.120004    3.65541  0.0000E+00  0.5779E-11  0.3928E-14  0.1000E-09  0.0000E+00  0.3421E+15
   -1.155003    3.72936  0.0000E+00  0.1693E-10  0.1124E-13  0.1084E-09  0.0000E+00  0.2584E+15
   -1.190003    3.80426  0.0000E+00  0.4945E-10  0.3214E-13  0.4579E-09  0.0000E+00  0.1721E+15
   -1.225002    3.88039  0.0000E+00  0.1507E-09  0.9630E-13  0.2740E-08  0.0000E+00  0.8181E+14
   -1.260001    3.95829  0.0000E+00  0.4778E-09  0.3043E-12  0.8324E-07  0.0000E+00  0.7867E+12
   -1.294999    4.01257  0.0000E+00  0.1400E-08  0.1090E-11  0.7042E-06  0.0000E+00 -0.8984E+13
   -1.329998    4.02917  0.0000E+00  0.1992E-08  0.2119E-11  0.6546E-06  0.0000E+00 -0.1589E+14
   -1.364996    4.04849  0.0000E+00  0.2099E-08  0.4341E-11  0.2942E-06  0.0000E+00 -0.5368E+14
   -1.399993    4.08989  0.0000E+00  0.0000E+00  0.0000E+00  0.0000E+00  0.0000E+00  0.0000E+00
