 1 - depth, m
 2 - temperature, C
 3 - salinity, kg/kg
 4 - turbulent kinetic energy, m**2/s**2
 5 - dissipation rate, m**2/s**3
 6 - kinematic heat conductance, m**2/s
 7 - modulus of horizontal velocity, m/s
 8 - Richardson number, n/d
   -0.000000    0.00000  0.0000E+00  0.8173E-12  0.2228E-15  0.1000E-09  0.0000E+00  0.1784E+17
   -0.034997    0.27788  0.0000E+00  0.1188E-11  0.2189E-15  0.1000E-09  0.0000E+00  0.1580E+17
   -0.069994    0.54393  0.0000E+00  0.1931E-11  0.2781E-15  0.1000E-09  0.0000E+00  0.1399E+17
   -0.104992    0.79927  0.0000E+00  0.3157E-11  0.4016E-15  0.1000E-09  0.0000E+00  0.1233E+17
   -0.139990    1.04355  0.0000E+00  0.5086E-11  0.6083E-15  0.1000E-09  0.0000E+00  0.1081E+17
   -0.174989    1.27689  0.0000E+00  0.8084E-11  0.9344E-15  0.1000E-09  0.0000E+00  0.9471E+16
   -0.209987    1.50006  0.0000E+00  0.1273E-10  0.1438E-14  0.1000E-09  0.0000E+00  0.8277E+16
   -0.244986    1.71377  0.0000E+00  0.1990E-10  0.2210E-14  0.1000E-09  0.0000E+00  0.7213E+16
   -0.279985    1.91867  0.0000E+00  0.3097E-10  0.3388E-14  0.1000E-09  0.0000E+00  0.6262E+16
   -0.314984    2.11535  0.0000E+00  0.4828E-10  0.5205E-14  0.1000E-09  0.0000E+00  0.5379E+16
   -0.349984    2.30317  0.0000E+00  0.7561E-10  0.8037E-14  0.1000E-09  0.0000E+00  0.4585E+16
   -0.384983    2.48221  0.0000E+00  0.1186E-09  0.1243E-13  0.1000E-09  0.0000E+00  0.3874E+16
   -0.419983    2.65258  0.0000E+00  0.1855E-09  0.1918E-13  0.1000E-09  0.0000E+00  0.3284E+16
   -0.454983    2.81680  0.0000E+00  0.2891E-09  0.2950E-13  0.1000E-09  0.0000E+00  0.2781E+16
   -0.489983    2.97697  0.0000E+00  0.4496E-09  0.4528E-13  0.1000E-09  0.0000E+00  0.2317E+16
   -0.524983    3.13350  0.0000E+00  0.7251E-09  0.7201E-13  0.1048E-09  0.0000E+00  0.1883E+16
   -0.559983    3.28650  0.0000E+00  0.1225E-08  0.1200E-12  0.2108E-09  0.0000E+00  0.1477E+16
   -0.594984    3.43586  0.0000E+00  0.2196E-08  0.2120E-12  0.5010E-09  0.0000E+00  0.1100E+16
   -0.629984    3.58194  0.0000E+00  0.3639E-08  0.3472E-12  0.1195E-08  0.0000E+00  0.7582E+15
   -0.664984    3.72709  0.0000E+00  0.5742E-08  0.5417E-12  0.3379E-08  0.0000E+00  0.4243E+15
   -0.699985    3.87097  0.0000E+00  0.8804E-08  0.8219E-12  0.2289E-07  0.0000E+00  0.1053E+15
   -0.734985    4.00010  0.0000E+00  0.9229E-08  0.8640E-12  0.3804E-04  0.0000E+00 -0.7726E+11
   -0.769985    4.00116  0.0000E+00  0.9429E-08  0.8863E-12  0.3795E-04  0.0000E+00 -0.1292E+12
   -0.804986    4.00172  0.0000E+00  0.9617E-08  0.9100E-12  0.3829E-04  0.0000E+00 -0.1332E+12
   -0.839986    4.00227  0.0000E+00  0.9796E-08  0.9356E-12  0.3859E-04  0.0000E+00 -0.1374E+12
   -0.874986    4.00282  0.0000E+00  0.9966E-08  0.9634E-12  0.3878E-04  0.0000E+00 -0.1420E+12
   -0.909986    4.00337  0.0000E+00  0.1013E-07  0.9936E-12  0.3881E-04  0.0000E+00 -0.1472E+12
   -0.944986    4.00392  0.0000E+00  0.1027E-07  0.1026E-11  0.3871E-04  0.0000E+00 -0.1531E+12
   -0.979986    4.00447  0.0000E+00  0.1040E-07  0.1062E-11  0.3842E-04  0.0000E+00 -0.1601E+12
   -1.014986    4.00503  0.0000E+00  0.1052E-07  0.1102E-11  0.3799E-04  0.0000E+00 -0.1688E+12
   -1.049986    4.00560  0.0000E+00  0.1063E-07  0.1148E-11  0.3730E-04  0.0000E+00 -0.1794E+12
   -1.084985    4.00619  0.0000E+00  0.1072E-07  0.1202E-11  0.3641E-04  0.0000E+00 -0.1899E+12
   -1.119984    4.00680  0.0000E+00  0.1079E-07  0.1266E-11  0.3519E-04  0.0000E+00 -0.2033E+12
   -1.154983    4.00743  0.0000E+00  0.1085E-07  0.1342E-11  0.3364E-04  0.0000E+00 -0.2202E+12
   -1.189982    4.00809  0.0000E+00  0.1087E-07  0.1437E-11  0.3171E-04  0.0000E+00 -0.2431E+12
   -1.224981    4.00879  0.0000E+00  0.1086E-07  0.1570E-11  0.2920E-04  0.0000E+00 -0.2784E+12
   -1.259979    4.00957  0.0000E+00  0.1080E-07  0.1804E-11  0.2516E-04  0.0000E+00 -0.3506E+12
   -1.294977    4.01052  0.0000E+00  0.1051E-07  0.2492E-11  0.1436E-04  0.0000E+00 -0.7144E+12
   -1.329975    4.01236  0.0000E+00  0.9603E-08  0.4548E-11  0.4986E-05  0.0000E+00 -0.2469E+13
   -1.364972    4.01787  0.0000E+00  0.6791E-08  0.1330E-10  0.6635E-06  0.0000E+00 -0.3092E+14
   -1.399969    4.05666  0.0000E+00  0.0000E+00  0.0000E+00  0.0000E+00  0.0000E+00  0.0000E+00
