 1 - depth, m
 2 - temperature, C
 3 - salinity, kg/kg
 4 - turbulent kinetic energy, m**2/s**2
 5 - dissipation rate, m**2/s**3
 6 - kinematic heat conductance, m**2/s
 7 - modulus of horizontal velocity, m/s
 8 - Richardson number, n/d
   -0.000000    4.87006  0.0000E+00  0.1395E-04  0.2173E-05  0.1566E-04  0.2029E-01  0.8677E-02
   -0.034998    4.83931  0.0000E+00  0.9721E-05  0.6817E-06  0.2293E-04  0.1131E-01  0.3010E-01
   -0.069997    4.81816  0.0000E+00  0.7629E-05  0.3191E-06  0.2734E-04  0.8266E-02  0.8261E-01
   -0.104996    4.79275  0.0000E+00  0.6188E-05  0.1767E-06  0.2994E-04  0.6338E-02  0.3507E+00
   -0.139995    4.75489  0.0000E+00  0.5111E-05  0.1070E-06  0.3144E-04  0.4953E-02  0.1418E+01
   -0.174995    4.71027  0.0000E+00  0.4278E-05  0.6900E-07  0.3214E-04  0.3905E-02  0.6173E+01
   -0.209995    4.66638  0.0000E+00  0.3621E-05  0.4695E-07  0.3213E-04  0.3087E-02  0.2799E+02
   -0.244995    4.63191  0.0000E+00  0.3084E-05  0.3340E-07  0.3146E-04  0.2426E-02  0.8733E+02
   -0.279995    4.60770  0.0000E+00  0.2613E-05  0.2434E-07  0.3181E-04  0.1868E-02  0.1111E+02
   -0.314995    4.58877  0.0000E+00  0.2149E-05  0.1744E-07  0.3444E-04  0.1360E-02 -0.2945E+03
   -0.349996    4.57102  0.0000E+00  0.1747E-05  0.1247E-07  0.3580E-04  0.9966E-03 -0.4422E+04
   -0.384997    4.55351  0.0000E+00  0.1412E-05  0.8936E-08  0.3633E-04  0.7302E-03 -0.1452E+05
   -0.419998    4.53630  0.0000E+00  0.1143E-05  0.6462E-08  0.3648E-04  0.5338E-03  0.1545E+08
   -0.454999    4.51932  0.0000E+00  0.9270E-06  0.4714E-08  0.3622E-04  0.3725E-03  0.1765E+08
   -0.490000    4.50194  0.0000E+00  0.7556E-06  0.3484E-08  0.3585E-04  0.2348E-03  0.9001E+07
   -0.525002    4.48563  0.0000E+00  0.6129E-06  0.2576E-08  0.3504E-04  0.1273E-03  0.2838E+08
   -0.560003    4.46577  0.0000E+00  0.4920E-06  0.1894E-08  0.3078E-04  0.6747E-04  0.3224E+08
   -0.595005    4.43913  0.0000E+00  0.3759E-06  0.1296E-08  0.1918E-04  0.3844E-04  0.6084E+11
   -0.630006    4.39157  0.0000E+00  0.2806E-06  0.8286E-09  0.2271E-04  0.2816E-04  0.2848E+11
   -0.665008    4.35897  0.0000E+00  0.2042E-06  0.4886E-09  0.3026E-04  0.1876E-04  0.2776E+10
   -0.700010    4.32645  0.0000E+00  0.1459E-06  0.2450E-09  0.3933E-04  0.1031E-04 -0.3362E+11
   -0.735011    4.28631  0.0000E+00  0.1146E-06  0.1147E-09  0.5403E-04  0.3319E-05 -0.2520E+11
   -0.770013    4.24715  0.0000E+00  0.1080E-06  0.8047E-10  0.5877E-04  0.9600E-06 -0.2939E+11
   -0.805015    4.22695  0.0000E+00  0.1090E-06  0.7300E-10  0.6059E-04  0.4539E-06 -0.6723E+11
   -0.840016    4.22015  0.0000E+00  0.1121E-06  0.7094E-10  0.6226E-04  0.3022E-06 -0.1121E+12
   -0.875018    4.21886  0.0000E+00  0.1148E-06  0.7016E-10  0.6367E-04  0.2217E-06 -0.1722E+12
   -0.910019    4.21895  0.0000E+00  0.1171E-06  0.6992E-10  0.6301E-04  0.1651E-06 -0.2452E+12
   -0.945020    4.21924  0.0000E+00  0.1190E-06  0.7023E-10  0.6190E-04  0.1208E-06 -0.3356E+12
   -0.980021    4.21970  0.0000E+00  0.1207E-06  0.7110E-10  0.6138E-04  0.8477E-07 -0.4434E+12
   -1.015023    4.22038  0.0000E+00  0.1221E-06  0.7261E-10  0.5989E-04  0.5587E-07 -0.5740E+12
   -1.050023    4.22136  0.0000E+00  0.1235E-06  0.7501E-10  0.5756E-04  0.3541E-07 -0.7454E+12
   -1.085024    4.22276  0.0000E+00  0.1247E-06  0.7864E-10  0.5490E-04  0.2169E-07 -0.1033E+13
   -1.120025    4.22469  0.0000E+00  0.1257E-06  0.8361E-10  0.5142E-04  0.1331E-07 -0.1580E+13
   -1.155025    4.22777  0.0000E+00  0.1257E-06  0.8980E-10  0.4760E-04  0.7575E-08 -0.2421E+13
   -1.190025    4.23423  0.0000E+00  0.1232E-06  0.9676E-10  0.4466E-04  0.2704E-08 -0.3675E+13
   -1.225025    4.25598  0.0000E+00  0.1200E-06  0.1080E-09  0.4145E-04  0.2318E-09 -0.6140E+13
   -1.260024    4.28213  0.0000E+00  0.1220E-06  0.1330E-09  0.3687E-04  0.2052E-10 -0.1180E+14
   -1.295024    4.29260  0.0000E+00  0.1265E-06  0.1956E-09  0.2936E-04  0.5679E-11 -0.3086E+14
   -1.330023    4.30782  0.0000E+00  0.1291E-06  0.3283E-09  0.1943E-04  0.2456E-11 -0.7904E+14
   -1.365021    4.33499  0.0000E+00  0.1155E-06  0.8968E-09  0.3994E-05  0.9325E-12 -0.6270E+15
   -1.400020    4.45002  0.0000E+00  0.0000E+00  0.0000E+00  0.0000E+00  0.9325E-12  0.0000E+00
