 1 - depth, m
 2 - temperature, C
 3 - salinity, kg/kg
 4 - turbulent kinetic energy, m**2/s**2
 5 - dissipation rate, m**2/s**3
 6 - kinematic heat conductance, m**2/s
 7 - modulus of horizontal velocity, m/s
 8 - Richardson number, n/d
   -0.000000    0.00000  0.0000E+00  0.5790E-10  0.4312E-13  0.1000E-09  0.0000E+00  0.2559E+17
   -0.034998    0.40591  0.0000E+00  0.1287E-09  0.3230E-13  0.1000E-09  0.0000E+00  0.2295E+17
   -0.069996    0.81677  0.0000E+00  0.2534E-09  0.3341E-13  0.1000E-09  0.0000E+00  0.2004E+17
   -0.104995    1.22834  0.0000E+00  0.4340E-09  0.4109E-13  0.1000E-09  0.0000E+00  0.1684E+17
   -0.139994    1.63224  0.0000E+00  0.6832E-09  0.5471E-13  0.1000E-09  0.0000E+00  0.1361E+17
   -0.174993    2.02128  0.0000E+00  0.1023E-08  0.7519E-13  0.1000E-09  0.0000E+00  0.1058E+17
   -0.209992    2.39041  0.0000E+00  0.1489E-08  0.1045E-12  0.1000E-09  0.0000E+00  0.7858E+16
   -0.244992    2.73530  0.0000E+00  0.2128E-08  0.1459E-12  0.1032E-09  0.0000E+00  0.5519E+16
   -0.279992    3.05253  0.0000E+00  0.3014E-08  0.2040E-12  0.1549E-09  0.0000E+00  0.3599E+16
   -0.314992    3.33974  0.0000E+00  0.4265E-08  0.2870E-12  0.3752E-09  0.0000E+00  0.2071E+16
   -0.349993    3.59153  0.0000E+00  0.6067E-08  0.4078E-12  0.1287E-08  0.0000E+00  0.9679E+15
   -0.384993    3.80391  0.0000E+00  0.8383E-08  0.5682E-12  0.3391E-05  0.0000E+00  0.2963E+15
   -0.419994    3.94994  0.0000E+00  0.1032E-07  0.7202E-12  0.2483E-04  0.0000E+00  0.2810E+14
   -0.454994    4.00026  0.0000E+00  0.1053E-07  0.7368E-12  0.5200E-04  0.0000E+00 -0.8530E+11
   -0.489995    4.00072  0.0000E+00  0.1066E-07  0.7481E-12  0.5217E-04  0.0000E+00 -0.9045E+11
   -0.524996    4.00117  0.0000E+00  0.1079E-07  0.7611E-12  0.5318E-04  0.0000E+00 -0.9137E+11
   -0.559998    4.00159  0.0000E+00  0.1095E-07  0.7777E-12  0.5402E-04  0.0000E+00 -0.9095E+11
   -0.594999    4.00200  0.0000E+00  0.1115E-07  0.8013E-12  0.5461E-04  0.0000E+00 -0.9004E+11
   -0.630000    4.00240  0.0000E+00  0.1136E-07  0.8274E-12  0.5536E-04  0.0000E+00 -0.9299E+11
   -0.665001    4.00280  0.0000E+00  0.1156E-07  0.8546E-12  0.5572E-04  0.0000E+00 -0.9687E+11
   -0.700003    4.00320  0.0000E+00  0.1175E-07  0.8832E-12  0.5583E-04  0.0000E+00 -0.1011E+12
   -0.735004    4.00361  0.0000E+00  0.1194E-07  0.9135E-12  0.5573E-04  0.0000E+00 -0.1058E+12
   -0.770005    4.00402  0.0000E+00  0.1213E-07  0.9460E-12  0.5553E-04  0.0000E+00 -0.1103E+12
   -0.805006    4.00444  0.0000E+00  0.1231E-07  0.9811E-12  0.5519E-04  0.0000E+00 -0.1156E+12
   -0.840008    4.00487  0.0000E+00  0.1248E-07  0.1019E-11  0.5475E-04  0.0000E+00 -0.1213E+12
   -0.875009    4.00530  0.0000E+00  0.1266E-07  0.1060E-11  0.5415E-04  0.0000E+00 -0.1281E+12
   -0.910010    4.00575  0.0000E+00  0.1282E-07  0.1105E-11  0.5343E-04  0.0000E+00 -0.1356E+12
   -0.945011    4.00621  0.0000E+00  0.1298E-07  0.1154E-11  0.5257E-04  0.0000E+00 -0.1444E+12
   -0.980011    4.00669  0.0000E+00  0.1312E-07  0.1207E-11  0.5157E-04  0.0000E+00 -0.1543E+12
   -1.015012    4.00718  0.0000E+00  0.1325E-07  0.1267E-11  0.5038E-04  0.0000E+00 -0.1666E+12
   -1.050013    4.00770  0.0000E+00  0.1337E-07  0.1335E-11  0.4896E-04  0.0000E+00 -0.1807E+12
   -1.085013    4.00825  0.0000E+00  0.1348E-07  0.1415E-11  0.4725E-04  0.0000E+00 -0.1944E+12
   -1.120013    4.00882  0.0000E+00  0.1357E-07  0.1511E-11  0.4527E-04  0.0000E+00 -0.2114E+12
   -1.155013    4.00943  0.0000E+00  0.1364E-07  0.1624E-11  0.4298E-04  0.0000E+00 -0.2326E+12
   -1.190013    4.01008  0.0000E+00  0.1368E-07  0.1765E-11  0.4024E-04  0.0000E+00 -0.2606E+12
   -1.225012    4.01078  0.0000E+00  0.1369E-07  0.1961E-11  0.3671E-04  0.0000E+00 -0.3030E+12
   -1.260011    4.01157  0.0000E+00  0.1363E-07  0.2292E-11  0.3161E-04  0.0000E+00 -0.3844E+12
   -1.295010    4.01254  0.0000E+00  0.1338E-07  0.3183E-11  0.2050E-04  0.0000E+00 -0.6827E+12
   -1.330009    4.01424  0.0000E+00  0.1251E-07  0.5883E-11  0.6891E-05  0.0000E+00 -0.2509E+13
   -1.365007    4.01975  0.0000E+00  0.9171E-08  0.1913E-10  0.8508E-06  0.0000E+00 -0.3495E+14
   -1.400005    4.06132  0.0000E+00  0.0000E+00  0.0000E+00  0.0000E+00  0.0000E+00  0.0000E+00
