 1 - depth, m
 2 - temperature, C
 3 - salinity, kg/kg
 4 - turbulent kinetic energy, m**2/s**2
 5 - dissipation rate, m**2/s**3
 6 - kinematic heat conductance, m**2/s
 7 - modulus of horizontal velocity, m/s
 8 - Richardson number, n/d
   -0.000000    0.00000  0.0000E+00  0.1381E-12  0.1132E-15  0.1000E-09  0.0000E+00  0.1731E+17
   -0.034997    0.26936  0.0000E+00  0.2660E-12  0.1132E-15  0.1000E-09  0.0000E+00  0.1544E+17
   -0.069994    0.52853  0.0000E+00  0.5879E-12  0.1226E-15  0.1000E-09  0.0000E+00  0.1376E+17
   -0.104992    0.77818  0.0000E+00  0.1124E-11  0.1635E-15  0.1000E-09  0.0000E+00  0.1217E+17
   -0.139990    1.01747  0.0000E+00  0.1948E-11  0.2436E-15  0.1000E-09  0.0000E+00  0.1071E+17
   -0.174989    1.24618  0.0000E+00  0.3201E-11  0.3733E-15  0.1000E-09  0.0000E+00  0.9406E+16
   -0.209987    1.46493  0.0000E+00  0.5109E-11  0.5741E-15  0.1000E-09  0.0000E+00  0.8242E+16
   -0.244986    1.67431  0.0000E+00  0.8022E-11  0.8802E-15  0.1000E-09  0.0000E+00  0.7201E+16
   -0.279985    1.87488  0.0000E+00  0.1248E-10  0.1344E-14  0.1000E-09  0.0000E+00  0.6269E+16
   -0.314984    2.06715  0.0000E+00  0.1938E-10  0.2054E-14  0.1000E-09  0.0000E+00  0.5417E+16
   -0.349984    2.25095  0.0000E+00  0.3019E-10  0.3152E-14  0.1000E-09  0.0000E+00  0.4648E+16
   -0.384983    2.42635  0.0000E+00  0.4707E-10  0.4842E-14  0.1000E-09  0.0000E+00  0.3955E+16
   -0.419983    2.59337  0.0000E+00  0.7314E-10  0.7416E-14  0.1000E-09  0.0000E+00  0.3370E+16
   -0.454983    2.75384  0.0000E+00  0.1132E-09  0.1132E-13  0.1000E-09  0.0000E+00  0.2865E+16
   -0.489983    2.90934  0.0000E+00  0.1747E-09  0.1723E-13  0.1000E-09  0.0000E+00  0.2403E+16
   -0.524983    3.06005  0.0000E+00  0.2795E-09  0.2715E-13  0.1000E-09  0.0000E+00  0.1974E+16
   -0.559983    3.20576  0.0000E+00  0.4680E-09  0.4478E-13  0.1001E-09  0.0000E+00  0.1573E+16
   -0.594984    3.34548  0.0000E+00  0.8312E-09  0.7835E-13  0.1679E-09  0.0000E+00  0.1209E+16
   -0.629984    3.47872  0.0000E+00  0.1366E-08  0.1272E-12  0.3627E-09  0.0000E+00  0.9079E+15
   -0.664984    3.60886  0.0000E+00  0.2141E-08  0.1969E-12  0.8079E-09  0.0000E+00  0.6294E+15
   -0.699985    3.73648  0.0000E+00  0.3284E-08  0.2983E-12  0.2090E-08  0.0000E+00  0.3674E+15
   -0.734985    3.86162  0.0000E+00  0.4985E-08  0.4472E-12  0.9942E-08  0.0000E+00  0.1213E+15
   -0.769986    3.98037  0.0000E+00  0.5893E-08  0.5332E-12  0.1516E-04  0.0000E+00  0.3240E+13
   -0.804986    3.99604  0.0000E+00  0.6154E-08  0.5601E-12  0.2523E-04  0.0000E+00 -0.1098E+12
   -0.839986    3.99678  0.0000E+00  0.6349E-08  0.5827E-12  0.2666E-04  0.0000E+00 -0.1124E+12
   -0.874986    3.99747  0.0000E+00  0.6528E-08  0.6062E-12  0.2776E-04  0.0000E+00 -0.1159E+12
   -0.909987    3.99814  0.0000E+00  0.6690E-08  0.6304E-12  0.2803E-04  0.0000E+00 -0.1220E+12
   -0.944987    3.99880  0.0000E+00  0.6836E-08  0.6558E-12  0.2819E-04  0.0000E+00 -0.1286E+12
   -0.979986    3.99946  0.0000E+00  0.6970E-08  0.6830E-12  0.2820E-04  0.0000E+00 -0.1362E+12
   -1.014986    4.00012  0.0000E+00  0.7093E-08  0.7131E-12  0.2807E-04  0.0000E+00 -0.1456E+12
   -1.049986    4.00080  0.0000E+00  0.7205E-08  0.7473E-12  0.2774E-04  0.0000E+00 -0.1569E+12
   -1.084985    4.00149  0.0000E+00  0.7305E-08  0.7872E-12  0.2713E-04  0.0000E+00 -0.1683E+12
   -1.119985    4.00220  0.0000E+00  0.7390E-08  0.8338E-12  0.2628E-04  0.0000E+00 -0.1822E+12
   -1.154984    4.00293  0.0000E+00  0.7456E-08  0.8891E-12  0.2515E-04  0.0000E+00 -0.1998E+12
   -1.189982    4.00370  0.0000E+00  0.7498E-08  0.9578E-12  0.2368E-04  0.0000E+00 -0.2238E+12
   -1.224981    4.00452  0.0000E+00  0.7514E-08  0.1060E-11  0.2131E-04  0.0000E+00 -0.2660E+12
   -1.259979    4.00544  0.0000E+00  0.7476E-08  0.1255E-11  0.1686E-04  0.0000E+00 -0.3779E+12
   -1.294977    4.00670  0.0000E+00  0.7258E-08  0.1816E-11  0.9250E-05  0.0000E+00 -0.8353E+12
   -1.329975    4.00921  0.0000E+00  0.6576E-08  0.3338E-11  0.3310E-05  0.0000E+00 -0.3001E+13
   -1.364972    4.01650  0.0000E+00  0.4770E-08  0.9060E-11  0.5224E-06  0.0000E+00 -0.3304E+14
   -1.399969    4.05795  0.0000E+00  0.0000E+00  0.0000E+00  0.0000E+00  0.0000E+00  0.0000E+00
