 1 - depth, m
 2 - temperature, C
 3 - salinity, kg/kg
 4 - turbulent kinetic energy, m**2/s**2
 5 - dissipation rate, m**2/s**3
 6 - kinematic heat conductance, m**2/s
 7 - modulus of horizontal velocity, m/s
 8 - Richardson number, n/d
   -0.000000    0.00000  0.0000E+00  0.4702E-13  0.1132E-15  0.1000E-09  0.0000E+00  0.1549E+17
   -0.034997    0.24006  0.0000E+00  0.4702E-13  0.1132E-15  0.1000E-09  0.0000E+00  0.1383E+17
   -0.069994    0.46916  0.0000E+00  0.4702E-13  0.1132E-15  0.1000E-09  0.0000E+00  0.1235E+17
   -0.104991    0.68796  0.0000E+00  0.4702E-13  0.1132E-15  0.1000E-09  0.0000E+00  0.1095E+17
   -0.139989    0.89563  0.0000E+00  0.4702E-13  0.1132E-15  0.1000E-09  0.0000E+00  0.9658E+16
   -0.174987    1.09190  0.0000E+00  0.4702E-13  0.1132E-15  0.1000E-09  0.0000E+00  0.8510E+16
   -0.209985    1.27720  0.0000E+00  0.4702E-13  0.1132E-15  0.1000E-09  0.0000E+00  0.7486E+16
   -0.244984    1.45192  0.0000E+00  0.4702E-13  0.1132E-15  0.1000E-09  0.0000E+00  0.6575E+16
   -0.279982    1.61646  0.0000E+00  0.4702E-13  0.1132E-15  0.1000E-09  0.0000E+00  0.5767E+16
   -0.314981    1.77123  0.0000E+00  0.4702E-13  0.1132E-15  0.1000E-09  0.0000E+00  0.5054E+16
   -0.349980    1.91674  0.0000E+00  0.4702E-13  0.1132E-15  0.1000E-09  0.0000E+00  0.4414E+16
   -0.384979    2.05307  0.0000E+00  0.4702E-13  0.1132E-15  0.1000E-09  0.0000E+00  0.3838E+16
   -0.419979    2.18024  0.0000E+00  0.4702E-13  0.1132E-15  0.1000E-09  0.0000E+00  0.3360E+16
   -0.454978    2.29967  0.0000E+00  0.4702E-13  0.1132E-15  0.1000E-09  0.0000E+00  0.2967E+16
   -0.489978    2.41287  0.0000E+00  0.4702E-13  0.1132E-15  0.1000E-09  0.0000E+00  0.2623E+16
   -0.524978    2.52043  0.0000E+00  0.4702E-13  0.1132E-15  0.1000E-09  0.0000E+00  0.2339E+16
   -0.559978    2.62367  0.0000E+00  0.4702E-13  0.1132E-15  0.1000E-09  0.0000E+00  0.2073E+16
   -0.594978    2.72237  0.0000E+00  0.4702E-13  0.1132E-15  0.1000E-09  0.0000E+00  0.1814E+16
   -0.629978    2.81569  0.0000E+00  0.4702E-13  0.1132E-15  0.1000E-09  0.0000E+00  0.1574E+16
   -0.664978    2.90329  0.0000E+00  0.4702E-13  0.1132E-15  0.1000E-09  0.0000E+00  0.1355E+16
   -0.699978    2.98493  0.0000E+00  0.4702E-13  0.1132E-15  0.1000E-09  0.0000E+00  0.1157E+16
   -0.734978    3.06043  0.0000E+00  0.4702E-13  0.1132E-15  0.1000E-09  0.0000E+00  0.9937E+15
   -0.769978    3.13064  0.0000E+00  0.4702E-13  0.1132E-15  0.1000E-09  0.0000E+00  0.8773E+15
   -0.804978    3.19789  0.0000E+00  0.4702E-13  0.1132E-15  0.1000E-09  0.0000E+00  0.7715E+15
   -0.839978    3.26224  0.0000E+00  0.4702E-13  0.1132E-15  0.1000E-09  0.0000E+00  0.6758E+15
   -0.874978    3.32378  0.0000E+00  0.4702E-13  0.1132E-15  0.1000E-09  0.0000E+00  0.5897E+15
   -0.909978    3.38265  0.0000E+00  0.4702E-13  0.1132E-15  0.1000E-09  0.0000E+00  0.5106E+15
   -0.944977    3.43876  0.0000E+00  0.4702E-13  0.1132E-15  0.1000E-09  0.0000E+00  0.4392E+15
   -0.979977    3.49215  0.0000E+00  0.4702E-13  0.1132E-15  0.1000E-09  0.0000E+00  0.3755E+15
   -1.014976    3.54291  0.0000E+00  0.4702E-13  0.1132E-15  0.1000E-09  0.0000E+00  0.3190E+15
   -1.049976    3.59116  0.0000E+00  0.5695E-13  0.1141E-15  0.1000E-09  0.0000E+00  0.2704E+15
   -1.084975    3.63728  0.0000E+00  0.2182E-12  0.2354E-15  0.1000E-09  0.0000E+00  0.2381E+15
   -1.119974    3.68368  0.0000E+00  0.7940E-12  0.7973E-15  0.1000E-09  0.0000E+00  0.2038E+15
   -1.154972    3.73004  0.0000E+00  0.2785E-11  0.2770E-14  0.1000E-09  0.0000E+00  0.1717E+15
   -1.189971    3.77696  0.0000E+00  0.9760E-11  0.9710E-14  0.1523E-09  0.0000E+00  0.1419E+15
   -1.224969    3.82586  0.0000E+00  0.3610E-10  0.3618E-13  0.6779E-09  0.0000E+00  0.1154E+15
   -1.259967    3.88138  0.0000E+00  0.1427E-09  0.1455E-12  0.3855E-08  0.0000E+00  0.7670E+14
   -1.294965    3.95211  0.0000E+00  0.6442E-09  0.6855E-12  0.8656E-07  0.0000E+00 -0.3614E+12
   -1.329962    4.02271  0.0000E+00  0.1858E-08  0.2578E-11  0.4489E-06  0.0000E+00 -0.2643E+14
   -1.364959    4.05489  0.0000E+00  0.2696E-08  0.6513E-11  0.3537E-06  0.0000E+00 -0.7741E+14
   -1.399956    4.10714  0.0000E+00  0.0000E+00  0.0000E+00  0.0000E+00  0.0000E+00  0.0000E+00
