 1 - depth, m
 2 - temperature, C
 3 - salinity, kg/kg
 4 - turbulent kinetic energy, m**2/s**2
 5 - dissipation rate, m**2/s**3
 6 - kinematic heat conductance, m**2/s
 7 - modulus of horizontal velocity, m/s
 8 - Richardson number, n/d
   -0.000000    0.00000  0.0000E+00  0.4702E-13  0.1132E-15  0.1000E-09  0.0000E+00  0.1153E+17
   -0.034998    0.17721  0.0000E+00  0.4702E-13  0.1132E-15  0.1000E-09  0.0000E+00  0.1085E+17
   -0.069995    0.35229  0.0000E+00  0.4702E-13  0.1132E-15  0.1000E-09  0.0000E+00  0.1020E+17
   -0.104994    0.52556  0.0000E+00  0.4702E-13  0.1132E-15  0.1000E-09  0.0000E+00  0.9510E+16
   -0.139992    0.69579  0.0000E+00  0.4702E-13  0.1132E-15  0.1000E-09  0.0000E+00  0.8815E+16
   -0.174991    0.86233  0.0000E+00  0.4702E-13  0.1132E-15  0.1000E-09  0.0000E+00  0.8161E+16
   -0.209990    1.02533  0.0000E+00  0.4702E-13  0.1132E-15  0.1000E-09  0.0000E+00  0.7546E+16
   -0.244989    1.18491  0.0000E+00  0.4702E-13  0.1132E-15  0.1000E-09  0.0000E+00  0.6966E+16
   -0.279988    1.34117  0.0000E+00  0.4702E-13  0.1132E-15  0.1000E-09  0.0000E+00  0.6419E+16
   -0.314988    1.49423  0.0000E+00  0.4702E-13  0.1132E-15  0.1000E-09  0.0000E+00  0.5888E+16
   -0.349988    1.64378  0.0000E+00  0.4702E-13  0.1132E-15  0.1000E-09  0.0000E+00  0.5382E+16
   -0.384988    1.78974  0.0000E+00  0.4702E-13  0.1132E-15  0.1000E-09  0.0000E+00  0.4902E+16
   -0.419988    1.93202  0.0000E+00  0.4702E-13  0.1132E-15  0.1000E-09  0.0000E+00  0.4467E+16
   -0.454989    2.07118  0.0000E+00  0.4702E-13  0.1132E-15  0.1000E-09  0.0000E+00  0.4067E+16
   -0.489989    2.20764  0.0000E+00  0.4702E-13  0.1132E-15  0.1000E-09  0.0000E+00  0.3678E+16
   -0.524990    2.34108  0.0000E+00  0.4702E-13  0.1132E-15  0.1000E-09  0.0000E+00  0.3265E+16
   -0.559990    2.46963  0.0000E+00  0.4702E-13  0.1132E-15  0.1000E-09  0.0000E+00  0.2830E+16
   -0.594991    2.59085  0.0000E+00  0.4702E-13  0.1132E-15  0.1000E-09  0.0000E+00  0.2408E+16
   -0.629992    2.70319  0.0000E+00  0.4702E-13  0.1132E-15  0.1000E-09  0.0000E+00  0.2139E+16
   -0.664993    2.81216  0.0000E+00  0.4702E-13  0.1132E-15  0.1000E-09  0.0000E+00  0.1884E+16
   -0.699994    2.91750  0.0000E+00  0.8915E-13  0.1132E-15  0.1000E-09  0.0000E+00  0.1641E+16
   -0.734994    3.01875  0.0000E+00  0.3165E-12  0.1333E-15  0.1000E-09  0.0000E+00  0.1423E+16
   -0.769995    3.11614  0.0000E+00  0.7886E-12  0.2408E-15  0.1000E-09  0.0000E+00  0.1240E+16
   -0.804996    3.21108  0.0000E+00  0.1711E-11  0.4746E-15  0.1000E-09  0.0000E+00  0.1067E+16
   -0.839997    3.30343  0.0000E+00  0.3518E-11  0.9373E-15  0.1000E-09  0.0000E+00  0.9050E+15
   -0.874997    3.39307  0.0000E+00  0.7087E-11  0.1840E-14  0.1000E-09  0.0000E+00  0.7535E+15
   -0.909998    3.47978  0.0000E+00  0.1411E-10  0.3584E-14  0.1000E-09  0.0000E+00  0.6148E+15
   -0.944999    3.56364  0.0000E+00  0.2780E-10  0.6916E-14  0.1000E-09  0.0000E+00  0.4875E+15
   -0.979999    3.64457  0.0000E+00  0.5448E-10  0.1328E-13  0.1031E-09  0.0000E+00  0.3710E+15
   -1.014999    3.72241  0.0000E+00  0.1069E-09  0.2555E-13  0.2501E-09  0.0000E+00  0.2633E+15
   -1.049999    3.79619  0.0000E+00  0.2109E-09  0.4942E-13  0.7489E-09  0.0000E+00  0.1699E+15
   -1.084999    3.86588  0.0000E+00  0.4173E-09  0.9593E-13  0.2654E-08  0.0000E+00  0.9297E+14
   -1.119999    3.93490  0.0000E+00  0.8109E-09  0.1834E-12  0.2364E-07  0.0000E+00  0.2011E+14
   -1.154998    3.99569  0.0000E+00  0.1336E-08  0.3031E-12  0.2275E-05  0.0000E+00 -0.7536E+12
   -1.189997    4.00001  0.0000E+00  0.1665E-08  0.4025E-12  0.2736E-05  0.0000E+00 -0.8718E+12
   -1.224996    4.00364  0.0000E+00  0.1940E-08  0.5248E-12  0.2822E-05  0.0000E+00 -0.1090E+13
   -1.259995    4.00729  0.0000E+00  0.2176E-08  0.7108E-12  0.2562E-05  0.0000E+00 -0.1574E+13
   -1.294994    4.01164  0.0000E+00  0.2391E-08  0.1122E-11  0.1835E-05  0.0000E+00 -0.3149E+13
   -1.329992    4.01862  0.0000E+00  0.2432E-08  0.1924E-11  0.9759E-06  0.0000E+00 -0.8334E+13
   -1.364990    4.03223  0.0000E+00  0.2160E-08  0.4080E-11  0.3030E-06  0.0000E+00 -0.4185E+14
   -1.399987    4.07266  0.0000E+00  0.0000E+00  0.0000E+00  0.0000E+00  0.0000E+00  0.0000E+00
