 1 - depth, m
 2 - temperature, C
 3 - salinity, kg/kg
 4 - turbulent kinetic energy, m**2/s**2
 5 - dissipation rate, m**2/s**3
 6 - kinematic heat conductance, m**2/s
 7 - modulus of horizontal velocity, m/s
 8 - Richardson number, n/d
   -0.000000   -0.00113  0.0000E+00  0.1233E-03  0.5504E-04  0.5495E-04  0.1134E+00  0.1746E-01
   -0.034997    0.01616  0.0000E+00  0.7673E-04  0.1631E-04  0.7859E-04  0.4168E-01  0.5539E-02
   -0.069995    0.02439  0.0000E+00  0.5758E-04  0.6975E-05  0.8783E-04  0.2963E-01  0.4523E-01
   -0.104992    0.03051  0.0000E+00  0.4718E-04  0.3685E-05  0.9819E-04  0.2414E-01  0.4756E-01
   -0.139991    0.03548  0.0000E+00  0.3997E-04  0.2125E-05  0.1082E-03  0.2023E-01  0.1446E-01
   -0.174989    0.03988  0.0000E+00  0.3465E-04  0.1325E-05  0.1170E-03  0.1713E-01  0.1887E-01
   -0.209988    0.04393  0.0000E+00  0.3056E-04  0.8888E-06  0.1237E-03  0.1456E-01  0.2273E-01
   -0.244986    0.04777  0.0000E+00  0.2726E-04  0.6342E-06  0.1276E-03  0.1233E-01  0.2686E-01
   -0.279986    0.05149  0.0000E+00  0.2434E-04  0.4721E-06  0.1268E-03  0.1035E-01  0.2980E-01
   -0.314985    0.05527  0.0000E+00  0.2140E-04  0.3558E-06  0.1295E-03  0.8475E-02  0.4864E-01
   -0.349984    0.05903  0.0000E+00  0.1873E-04  0.2724E-06  0.1287E-03  0.6967E-02  0.8226E-01
   -0.384984    0.06291  0.0000E+00  0.1639E-04  0.2117E-06  0.1253E-03  0.5723E-02  0.1501E+00
   -0.419984    0.06706  0.0000E+00  0.1438E-04  0.1674E-06  0.1181E-03  0.4679E-02  0.2406E+00
   -0.454984    0.07174  0.0000E+00  0.1261E-04  0.1340E-06  0.1087E-03  0.3728E-02  0.4133E+00
   -0.489984    0.07743  0.0000E+00  0.1100E-04  0.1081E-06  0.9939E-04  0.2828E-02  0.1671E+01
   -0.524984    0.08539  0.0000E+00  0.9419E-05  0.8620E-07  0.9346E-04  0.2009E-02  0.5862E+02
   -0.559984    0.10864  0.0000E+00  0.7908E-05  0.6775E-07  0.8476E-04  0.1434E-02 -0.2261E+04
   -0.594985    0.20313  0.0000E+00  0.6345E-05  0.5075E-07  0.7092E-04  0.1090E-02 -0.1404E+06
   -0.629985    0.32953  0.0000E+00  0.4973E-05  0.3734E-07  0.5347E-04  0.9341E-03  0.2679E+07
   -0.664986    0.46653  0.0000E+00  0.3796E-05  0.2701E-07  0.3826E-04  0.7782E-03  0.5590E+08
   -0.699986    0.67963  0.0000E+00  0.2823E-05  0.1918E-07  0.2514E-04  0.6233E-03  0.2440E+09
   -0.734987    0.94730  0.0000E+00  0.2000E-05  0.1304E-07  0.1434E-04  0.4776E-03  0.4456E+10
   -0.769987    1.32203  0.0000E+00  0.1295E-05  0.8075E-08  0.6187E-05  0.3410E-03  0.7254E+12
   -0.804988    1.92443  0.0000E+00  0.6976E-06  0.4036E-08  0.4547E-05  0.2070E-03  0.5197E+14
   -0.839988    2.64975  0.0000E+00  0.2589E-06  0.1254E-08  0.2205E-04  0.9243E-04  0.9699E+14
   -0.874988    3.50376  0.0000E+00  0.9629E-07  0.2192E-09  0.4268E-04  0.1583E-04 -0.1806E+12
   -0.909988    3.93879  0.0000E+00  0.8668E-07  0.8150E-10  0.4852E-04  0.2256E-05 -0.1863E+12
   -0.944989    4.06861  0.0000E+00  0.9225E-07  0.6453E-10  0.5617E-04  0.4569E-06 -0.1920E+12
   -0.979989    4.07550  0.0000E+00  0.9607E-07  0.6033E-10  0.6064E-04  0.1852E-06 -0.2017E+12
   -1.014988    4.08017  0.0000E+00  0.9913E-07  0.5887E-10  0.6392E-04  0.8494E-07 -0.2230E+12
   -1.049988    4.08395  0.0000E+00  0.1017E-06  0.5858E-10  0.6599E-04  0.4331E-07 -0.2682E+12
   -1.084988    4.08726  0.0000E+00  0.1039E-06  0.5906E-10  0.6739E-04  0.2351E-07 -0.3024E+12
   -1.119987    4.09041  0.0000E+00  0.1057E-06  0.6013E-10  0.6779E-04  0.1364E-07 -0.3032E+12
   -1.154986    4.09348  0.0000E+00  0.1070E-06  0.6176E-10  0.6723E-04  0.7799E-08 -0.3177E+12
   -1.189985    4.09654  0.0000E+00  0.1079E-06  0.6407E-10  0.6557E-04  0.4220E-08 -0.3615E+12
   -1.224983    4.09964  0.0000E+00  0.1083E-06  0.6758E-10  0.6257E-04  0.2031E-08 -0.4708E+12
   -1.259982    4.10289  0.0000E+00  0.1079E-06  0.7367E-10  0.5692E-04  0.8853E-09 -0.7293E+12
   -1.294980    4.10645  0.0000E+00  0.1058E-06  0.8828E-10  0.4740E-04  0.3658E-09 -0.1763E+13
   -1.329978    4.11079  0.0000E+00  0.9994E-07  0.1253E-09  0.2394E-04  0.1820E-09 -0.5372E+13
   -1.364975    4.11954  0.0000E+00  0.7223E-07  0.3474E-09  0.2849E-05  0.5640E-10 -0.1625E+15
   -1.399972    4.18801  0.0000E+00  0.0000E+00  0.0000E+00  0.0000E+00  0.5633E-10  0.0000E+00
