 1 - depth, m
 2 - temperature, C
 3 - salinity, kg/kg
 4 - turbulent kinetic energy, m**2/s**2
 5 - dissipation rate, m**2/s**3
 6 - kinematic heat conductance, m**2/s
 7 - modulus of horizontal velocity, m/s
 8 - Richardson number, n/d
   -0.000000    0.00000  0.0000E+00  0.6952E-10  0.5442E-13  0.1000E-09  0.0000E+00  0.2432E+17
   -0.034997    0.38451  0.0000E+00  0.1589E-09  0.4343E-13  0.1000E-09  0.0000E+00  0.2094E+17
   -0.069994    0.75462  0.0000E+00  0.3216E-09  0.5054E-13  0.1000E-09  0.0000E+00  0.1798E+17
   -0.104992    1.11246  0.0000E+00  0.5708E-09  0.7006E-13  0.1000E-09  0.0000E+00  0.1527E+17
   -0.139990    1.45799  0.0000E+00  0.9408E-09  0.1033E-12  0.1000E-09  0.0000E+00  0.1281E+17
   -0.174988    1.79143  0.0000E+00  0.1490E-08  0.1549E-12  0.1000E-09  0.0000E+00  0.1060E+17
   -0.209987    2.11357  0.0000E+00  0.2306E-08  0.2327E-12  0.1000E-09  0.0000E+00  0.8611E+16
   -0.244985    2.42504  0.0000E+00  0.3526E-08  0.3487E-12  0.1329E-09  0.0000E+00  0.6808E+16
   -0.279984    2.72624  0.0000E+00  0.5351E-08  0.5209E-12  0.2613E-09  0.0000E+00  0.5174E+16
   -0.314984    3.01737  0.0000E+00  0.8119E-08  0.7797E-12  0.5501E-09  0.0000E+00  0.3680E+16
   -0.349983    3.29697  0.0000E+00  0.1237E-07  0.1172E-11  0.1299E-08  0.0000E+00  0.2346E+16
   -0.384982    3.56401  0.0000E+00  0.1884E-07  0.1765E-11  0.3928E-08  0.0000E+00  0.1173E+16
   -0.419982    3.81515  0.0000E+00  0.2831E-07  0.2624E-11  0.3202E-07  0.0000E+00  0.2229E+15
   -0.454982    4.01911  0.0000E+00  0.2876E-07  0.2668E-11  0.1041E-03  0.0000E+00 -0.1712E+12
   -0.489982    4.01944  0.0000E+00  0.2896E-07  0.2691E-11  0.1019E-03  0.0000E+00 -0.1743E+12
   -0.524982    4.01978  0.0000E+00  0.2917E-07  0.2717E-11  0.1022E-03  0.0000E+00 -0.1749E+12
   -0.559982    4.02011  0.0000E+00  0.2941E-07  0.2751E-11  0.1023E-03  0.0000E+00 -0.1775E+12
   -0.594982    4.02044  0.0000E+00  0.2971E-07  0.2799E-11  0.1026E-03  0.0000E+00 -0.1793E+12
   -0.629983    4.02078  0.0000E+00  0.3000E-07  0.2852E-11  0.1030E-03  0.0000E+00 -0.1801E+12
   -0.664983    4.02111  0.0000E+00  0.3028E-07  0.2906E-11  0.1030E-03  0.0000E+00 -0.1814E+12
   -0.699983    4.02145  0.0000E+00  0.3054E-07  0.2963E-11  0.1028E-03  0.0000E+00 -0.1833E+12
   -0.734984    4.02178  0.0000E+00  0.3078E-07  0.3023E-11  0.1025E-03  0.0000E+00 -0.1857E+12
   -0.769984    4.02211  0.0000E+00  0.3101E-07  0.3088E-11  0.1019E-03  0.0000E+00 -0.1881E+12
   -0.804984    4.02245  0.0000E+00  0.3122E-07  0.3158E-11  0.1011E-03  0.0000E+00 -0.1912E+12
   -0.839985    4.02279  0.0000E+00  0.3141E-07  0.3233E-11  0.1002E-03  0.0000E+00 -0.1949E+12
   -0.874985    4.02313  0.0000E+00  0.3159E-07  0.3316E-11  0.9894E-04  0.0000E+00 -0.1995E+12
   -0.909985    4.02347  0.0000E+00  0.3175E-07  0.3407E-11  0.9749E-04  0.0000E+00 -0.2047E+12
   -0.944985    4.02382  0.0000E+00  0.3189E-07  0.3506E-11  0.9579E-04  0.0000E+00 -0.2109E+12
   -0.979985    4.02418  0.0000E+00  0.3200E-07  0.3616E-11  0.9382E-04  0.0000E+00 -0.2182E+12
   -1.014984    4.02455  0.0000E+00  0.3210E-07  0.3741E-11  0.9153E-04  0.0000E+00 -0.2276E+12
   -1.049984    4.02493  0.0000E+00  0.3217E-07  0.3887E-11  0.8883E-04  0.0000E+00 -0.2391E+12
   -1.084983    4.02533  0.0000E+00  0.3222E-07  0.4062E-11  0.8572E-04  0.0000E+00 -0.2505E+12
   -1.119982    4.02573  0.0000E+00  0.3224E-07  0.4272E-11  0.8215E-04  0.0000E+00 -0.2647E+12
   -1.154981    4.02616  0.0000E+00  0.3223E-07  0.4527E-11  0.7811E-04  0.0000E+00 -0.2821E+12
   -1.189980    4.02661  0.0000E+00  0.3217E-07  0.4846E-11  0.7340E-04  0.0000E+00 -0.3056E+12
   -1.224979    4.02710  0.0000E+00  0.3206E-07  0.5299E-11  0.6749E-04  0.0000E+00 -0.3415E+12
   -1.259977    4.02763  0.0000E+00  0.3185E-07  0.6063E-11  0.5898E-04  0.0000E+00 -0.4115E+12
   -1.294975    4.02826  0.0000E+00  0.3127E-07  0.7979E-11  0.4585E-04  0.0000E+00 -0.5778E+12
   -1.329972    4.02914  0.0000E+00  0.2968E-07  0.1353E-10  0.1458E-04  0.0000E+00 -0.1984E+13
   -1.364970    4.03201  0.0000E+00  0.2151E-07  0.4961E-10  0.1461E-05  0.0000E+00 -0.2712E+14
   -1.399967    4.06086  0.0000E+00  0.0000E+00  0.0000E+00  0.0000E+00  0.0000E+00  0.0000E+00
