 1 - depth, m
 2 - temperature, C
 3 - salinity, kg/kg
 4 - turbulent kinetic energy, m**2/s**2
 5 - dissipation rate, m**2/s**3
 6 - kinematic heat conductance, m**2/s
 7 - modulus of horizontal velocity, m/s
 8 - Richardson number, n/d
   -0.000000    0.00000  0.0000E+00  0.4220E-10  0.2891E-13  0.1000E-09  0.0000E+00  0.2526E+17
   -0.034997    0.40038  0.0000E+00  0.8990E-10  0.2311E-13  0.1000E-09  0.0000E+00  0.2151E+17
   -0.069994    0.78315  0.0000E+00  0.1771E-09  0.2657E-13  0.1000E-09  0.0000E+00  0.1823E+17
   -0.104991    1.15007  0.0000E+00  0.3110E-09  0.3647E-13  0.1000E-09  0.0000E+00  0.1525E+17
   -0.139989    1.50050  0.0000E+00  0.5098E-09  0.5349E-13  0.1000E-09  0.0000E+00  0.1258E+17
   -0.174987    1.83409  0.0000E+00  0.8045E-09  0.7997E-13  0.1000E-09  0.0000E+00  0.1022E+17
   -0.209986    2.15115  0.0000E+00  0.1243E-08  0.1199E-12  0.1000E-09  0.0000E+00  0.8151E+16
   -0.244984    2.45174  0.0000E+00  0.1896E-08  0.1794E-12  0.1021E-09  0.0000E+00  0.6335E+16
   -0.279983    2.73577  0.0000E+00  0.2871E-08  0.2677E-12  0.1481E-09  0.0000E+00  0.4763E+16
   -0.314982    3.00320  0.0000E+00  0.4346E-08  0.3999E-12  0.3034E-09  0.0000E+00  0.3407E+16
   -0.349981    3.25320  0.0000E+00  0.6604E-08  0.6001E-12  0.6797E-09  0.0000E+00  0.2273E+16
   -0.384980    3.48633  0.0000E+00  0.1004E-07  0.9012E-12  0.1730E-08  0.0000E+00  0.1338E+16
   -0.419980    3.70423  0.0000E+00  0.1519E-07  0.1347E-11  0.6551E-08  0.0000E+00  0.5643E+15
   -0.454980    3.90907  0.0000E+00  0.2018E-07  0.1782E-11  0.1969E-04  0.0000E+00  0.6224E+14
   -0.489979    4.01304  0.0000E+00  0.2053E-07  0.1816E-11  0.8019E-04  0.0000E+00 -0.1535E+12
   -0.524979    4.01341  0.0000E+00  0.2074E-07  0.1838E-11  0.7854E-04  0.0000E+00 -0.1590E+12
   -0.559979    4.01379  0.0000E+00  0.2098E-07  0.1867E-11  0.7867E-04  0.0000E+00 -0.1625E+12
   -0.594979    4.01418  0.0000E+00  0.2128E-07  0.1907E-11  0.7919E-04  0.0000E+00 -0.1649E+12
   -0.629979    4.01457  0.0000E+00  0.2159E-07  0.1950E-11  0.7991E-04  0.0000E+00 -0.1653E+12
   -0.664979    4.01495  0.0000E+00  0.2187E-07  0.1993E-11  0.8025E-04  0.0000E+00 -0.1664E+12
   -0.699980    4.01534  0.0000E+00  0.2214E-07  0.2039E-11  0.8041E-04  0.0000E+00 -0.1680E+12
   -0.734980    4.01571  0.0000E+00  0.2238E-07  0.2086E-11  0.8038E-04  0.0000E+00 -0.1701E+12
   -0.769980    4.01609  0.0000E+00  0.2262E-07  0.2136E-11  0.8021E-04  0.0000E+00 -0.1724E+12
   -0.804980    4.01647  0.0000E+00  0.2284E-07  0.2189E-11  0.7987E-04  0.0000E+00 -0.1752E+12
   -0.839980    4.01685  0.0000E+00  0.2304E-07  0.2246E-11  0.7934E-04  0.0000E+00 -0.1785E+12
   -0.874980    4.01723  0.0000E+00  0.2323E-07  0.2308E-11  0.7861E-04  0.0000E+00 -0.1827E+12
   -0.909980    4.01761  0.0000E+00  0.2340E-07  0.2375E-11  0.7767E-04  0.0000E+00 -0.1874E+12
   -0.944980    4.01800  0.0000E+00  0.2355E-07  0.2448E-11  0.7654E-04  0.0000E+00 -0.1929E+12
   -0.979979    4.01840  0.0000E+00  0.2368E-07  0.2527E-11  0.7518E-04  0.0000E+00 -0.1994E+12
   -1.014979    4.01880  0.0000E+00  0.2379E-07  0.2617E-11  0.7354E-04  0.0000E+00 -0.2080E+12
   -1.049978    4.01921  0.0000E+00  0.2388E-07  0.2720E-11  0.7156E-04  0.0000E+00 -0.2185E+12
   -1.084977    4.01964  0.0000E+00  0.2395E-07  0.2844E-11  0.6925E-04  0.0000E+00 -0.2289E+12
   -1.119976    4.02009  0.0000E+00  0.2400E-07  0.2991E-11  0.6655E-04  0.0000E+00 -0.2415E+12
   -1.154975    4.02055  0.0000E+00  0.2401E-07  0.3168E-11  0.6346E-04  0.0000E+00 -0.2573E+12
   -1.189974    4.02103  0.0000E+00  0.2399E-07  0.3389E-11  0.5977E-04  0.0000E+00 -0.2787E+12
   -1.224972    4.02155  0.0000E+00  0.2392E-07  0.3701E-11  0.5508E-04  0.0000E+00 -0.3122E+12
   -1.259970    4.02212  0.0000E+00  0.2377E-07  0.4225E-11  0.4837E-04  0.0000E+00 -0.3775E+12
   -1.294968    4.02279  0.0000E+00  0.2330E-07  0.5635E-11  0.3497E-04  0.0000E+00 -0.5759E+12
   -1.329965    4.02381  0.0000E+00  0.2188E-07  0.9900E-11  0.1102E-04  0.0000E+00 -0.2037E+13
   -1.364962    4.02720  0.0000E+00  0.1571E-07  0.3401E-10  0.1188E-05  0.0000E+00 -0.2722E+14
   -1.399959    4.05821  0.0000E+00  0.0000E+00  0.0000E+00  0.0000E+00  0.0000E+00  0.0000E+00
