 1 - depth, m
 2 - temperature, C
 3 - salinity, kg/kg
 4 - turbulent kinetic energy, m**2/s**2
 5 - dissipation rate, m**2/s**3
 6 - kinematic heat conductance, m**2/s
 7 - modulus of horizontal velocity, m/s
 8 - Richardson number, n/d
   -0.000000    0.00000  0.0000E+00  0.3390E-12  0.1176E-15  0.1000E-09  0.0000E+00  0.1627E+17
   -0.034998    0.25259  0.0000E+00  0.4968E-12  0.1151E-15  0.1000E-09  0.0000E+00  0.1495E+17
   -0.069995    0.50182  0.0000E+00  0.8382E-12  0.1268E-15  0.1000E-09  0.0000E+00  0.1366E+17
   -0.104993    0.74740  0.0000E+00  0.1385E-11  0.1604E-15  0.1000E-09  0.0000E+00  0.1232E+17
   -0.139992    0.98717  0.0000E+00  0.2192E-11  0.2231E-15  0.1000E-09  0.0000E+00  0.1101E+17
   -0.174991    1.21980  0.0000E+00  0.3364E-11  0.3206E-15  0.1000E-09  0.0000E+00  0.9774E+16
   -0.209990    1.44502  0.0000E+00  0.5063E-11  0.4650E-15  0.1000E-09  0.0000E+00  0.8624E+16
   -0.244989    1.66263  0.0000E+00  0.7525E-11  0.6749E-15  0.1000E-09  0.0000E+00  0.7558E+16
   -0.279988    1.87246  0.0000E+00  0.1110E-10  0.9780E-15  0.1000E-09  0.0000E+00  0.6576E+16
   -0.314988    2.07438  0.0000E+00  0.1636E-10  0.1420E-14  0.1000E-09  0.0000E+00  0.5673E+16
   -0.349988    2.26818  0.0000E+00  0.2420E-10  0.2073E-14  0.1000E-09  0.0000E+00  0.4844E+16
   -0.384988    2.45352  0.0000E+00  0.3588E-10  0.3035E-14  0.1000E-09  0.0000E+00  0.4087E+16
   -0.419988    2.63002  0.0000E+00  0.5308E-10  0.4437E-14  0.1000E-09  0.0000E+00  0.3432E+16
   -0.454988    2.79884  0.0000E+00  0.7833E-10  0.6475E-14  0.1000E-09  0.0000E+00  0.2862E+16
   -0.489989    2.96110  0.0000E+00  0.1155E-09  0.9440E-14  0.1000E-09  0.0000E+00  0.2346E+16
   -0.524990    3.11684  0.0000E+00  0.1761E-09  0.1424E-13  0.1000E-09  0.0000E+00  0.1880E+16
   -0.559990    3.26590  0.0000E+00  0.2814E-09  0.2249E-13  0.1000E-09  0.0000E+00  0.1446E+16
   -0.594991    3.40642  0.0000E+00  0.4777E-09  0.3776E-13  0.1056E-09  0.0000E+00  0.1059E+16
   -0.629992    3.53666  0.0000E+00  0.7575E-09  0.5935E-13  0.2053E-09  0.0000E+00  0.7519E+15
   -0.664992    3.65957  0.0000E+00  0.1148E-08  0.8927E-13  0.4774E-09  0.0000E+00  0.4865E+15
   -0.699993    3.77447  0.0000E+00  0.1706E-08  0.1316E-12  0.1304E-08  0.0000E+00  0.2628E+15
   -0.734994    3.87997  0.0000E+00  0.2513E-08  0.1925E-12  0.6115E-08  0.0000E+00  0.8565E+14
   -0.769995    3.97334  0.0000E+00  0.3114E-08  0.2409E-12  0.6388E-05  0.0000E+00  0.4260E+13
   -0.804996    3.99252  0.0000E+00  0.3349E-08  0.2616E-12  0.1468E-04  0.0000E+00 -0.8094E+11
   -0.839996    3.99347  0.0000E+00  0.3519E-08  0.2784E-12  0.1613E-04  0.0000E+00 -0.8698E+11
   -0.874997    3.99430  0.0000E+00  0.3680E-08  0.2961E-12  0.1743E-04  0.0000E+00 -0.9145E+11
   -0.909998    3.99506  0.0000E+00  0.3830E-08  0.3149E-12  0.1843E-04  0.0000E+00 -0.9602E+11
   -0.944998    3.99578  0.0000E+00  0.3968E-08  0.3346E-12  0.1910E-04  0.0000E+00 -0.1013E+12
   -0.979998    3.99647  0.0000E+00  0.4093E-08  0.3553E-12  0.1947E-04  0.0000E+00 -0.1078E+12
   -1.014999    3.99716  0.0000E+00  0.4207E-08  0.3777E-12  0.1954E-04  0.0000E+00 -0.1161E+12
   -1.049999    3.99784  0.0000E+00  0.4312E-08  0.4028E-12  0.1933E-04  0.0000E+00 -0.1266E+12
   -1.084999    3.99854  0.0000E+00  0.4408E-08  0.4320E-12  0.1888E-04  0.0000E+00 -0.1390E+12
   -1.119998    3.99926  0.0000E+00  0.4495E-08  0.4671E-12  0.1814E-04  0.0000E+00 -0.1553E+12
   -1.154998    4.00002  0.0000E+00  0.4570E-08  0.5105E-12  0.1695E-04  0.0000E+00 -0.1789E+12
   -1.189997    4.00085  0.0000E+00  0.4628E-08  0.5668E-12  0.1520E-04  0.0000E+00 -0.2161E+12
   -1.224996    4.00179  0.0000E+00  0.4664E-08  0.6505E-12  0.1297E-04  0.0000E+00 -0.2808E+12
   -1.259995    4.00293  0.0000E+00  0.4660E-08  0.8018E-12  0.9935E-05  0.0000E+00 -0.4255E+12
   -1.294993    4.00451  0.0000E+00  0.4536E-08  0.1214E-11  0.5567E-05  0.0000E+00 -0.9799E+12
   -1.329991    4.00770  0.0000E+00  0.4108E-08  0.2269E-11  0.2025E-05  0.0000E+00 -0.3692E+13
   -1.364989    4.01681  0.0000E+00  0.3141E-08  0.5718E-11  0.3957E-06  0.0000E+00 -0.3399E+14
   -1.399987    4.05893  0.0000E+00  0.0000E+00  0.0000E+00  0.0000E+00  0.0000E+00  0.0000E+00
