 1 - depth, m
 2 - temperature, C
 3 - salinity, kg/kg
 4 - turbulent kinetic energy, m**2/s**2
 5 - dissipation rate, m**2/s**3
 6 - kinematic heat conductance, m**2/s
 7 - modulus of horizontal velocity, m/s
 8 - Richardson number, n/d
   -0.000000   11.12376  0.0000E+00  0.4785E-03  0.1261E-02  0.1111E-03  0.2591E+00 -0.3190E-01
   -0.034998   11.22935  0.0000E+00  0.2562E-03  0.5190E-03  0.1267E-03  0.8161E-01 -0.4488E-02
   -0.069996   11.27261  0.0000E+00  0.1646E-03  0.1386E-03  0.1764E-03  0.4741E-01 -0.2045E-01
   -0.104995   11.29129  0.0000E+00  0.1276E-03  0.7276E-04  0.1860E-03  0.3563E-01 -0.3847E-01
   -0.139993   11.30154  0.0000E+00  0.1054E-03  0.4389E-04  0.1898E-03  0.2861E-01  0.1736E+00
   -0.174992   11.30922  0.0000E+00  0.8927E-04  0.2727E-04  0.1964E-03  0.2378E-01 -0.3517E-01
   -0.209992   11.31438  0.0000E+00  0.7707E-04  0.1690E-04  0.2044E-03  0.2029E-01 -0.4289E-01
   -0.244991   11.31883  0.0000E+00  0.6742E-04  0.1028E-04  0.2154E-03  0.1744E-01  0.9904E+01
   -0.279991   11.32272  0.0000E+00  0.5977E-04  0.6330E-05  0.2268E-03  0.1492E-01  0.1540E+01
   -0.314991   11.32716  0.0000E+00  0.5307E-04  0.4004E-05  0.2479E-03  0.1234E-01  0.2525E+02
   -0.349991   11.33056  0.0000E+00  0.4768E-04  0.2637E-05  0.2635E-03  0.1048E-01  0.6913E+02
   -0.384992   11.33362  0.0000E+00  0.4324E-04  0.1818E-05  0.2807E-03  0.9007E-02  0.3718E+03
   -0.419992   11.33632  0.0000E+00  0.3958E-04  0.1313E-05  0.2957E-03  0.7785E-02  0.3675E+02
   -0.454993   11.33898  0.0000E+00  0.3646E-04  0.9900E-06  0.3082E-03  0.6644E-02  0.5623E+02
   -0.489994   11.34181  0.0000E+00  0.3376E-04  0.7869E-06  0.3183E-03  0.5566E-02  0.5185E+02
   -0.524995   11.34482  0.0000E+00  0.3119E-04  0.6421E-06  0.3387E-03  0.4605E-02  0.1981E+03
   -0.559996   11.34719  0.0000E+00  0.2869E-04  0.5301E-06  0.3648E-03  0.3907E-02 -0.4519E+02
   -0.594997   11.34882  0.0000E+00  0.2598E-04  0.4271E-06  0.3934E-03  0.3436E-02  0.9940E+04
   -0.629998   11.34891  0.0000E+00  0.2360E-04  0.3470E-06  0.4172E-03  0.3161E-02  0.4817E+04
   -0.664999   11.35017  0.0000E+00  0.2158E-04  0.2868E-06  0.4542E-03  0.2873E-02  0.7573E+04
   -0.700000   11.35144  0.0000E+00  0.1983E-04  0.2407E-06  0.4886E-03  0.2596E-02  0.1404E+04
   -0.735002   11.35265  0.0000E+00  0.1829E-04  0.2035E-06  0.5252E-03  0.2336E-02  0.3484E+03
   -0.770003   11.35378  0.0000E+00  0.1692E-04  0.1730E-06  0.5515E-03  0.2095E-02  0.1545E+03
   -0.805004   11.35483  0.0000E+00  0.1570E-04  0.1481E-06  0.5702E-03  0.1873E-02  0.1772E+03
   -0.840005   11.35583  0.0000E+00  0.1459E-04  0.1276E-06  0.5793E-03  0.1668E-02  0.2784E+03
   -0.875006   11.35679  0.0000E+00  0.1359E-04  0.1106E-06  0.5822E-03  0.1478E-02  0.4556E+05
   -0.910007   11.35773  0.0000E+00  0.1269E-04  0.9655E-07  0.5817E-03  0.1306E-02  0.3434E+03
   -0.945008   11.35867  0.0000E+00  0.1188E-04  0.8517E-07  0.5759E-03  0.1145E-02  0.3490E+03
   -0.980008   11.35961  0.0000E+00  0.1114E-04  0.7598E-07  0.5663E-03  0.9952E-03  0.4224E+03
   -1.015009   11.36058  0.0000E+00  0.1047E-04  0.6880E-07  0.5555E-03  0.8552E-03  0.5545E+03
   -1.050009   11.36157  0.0000E+00  0.9839E-05  0.6338E-07  0.5381E-03  0.7311E-03  0.6601E+03
   -1.085010   11.36260  0.0000E+00  0.9255E-05  0.5977E-07  0.5168E-03  0.6230E-03  0.9136E+03
   -1.120010   11.36368  0.0000E+00  0.8711E-05  0.5845E-07  0.4861E-03  0.5315E-03  0.1385E+04
   -1.155010   11.36489  0.0000E+00  0.8185E-05  0.6080E-07  0.4597E-03  0.4491E-03  0.1713E+04
   -1.190009   11.36628  0.0000E+00  0.7633E-05  0.6976E-07  0.4088E-03  0.3716E-03  0.2596E+04
   -1.225008   11.36823  0.0000E+00  0.7019E-05  0.8985E-07  0.3747E-03  0.2911E-03  0.1357E+05
   -1.260008   11.37040  0.0000E+00  0.6263E-05  0.1369E-06  0.2973E-03  0.2196E-03  0.2218E+04
   -1.295006   11.37550  0.0000E+00  0.5342E-05  0.2603E-06  0.2672E-03  0.1533E-03  0.4106E+05
   -1.330005   11.37447  0.0000E+00  0.4231E-05  0.6293E-06  0.1373E-03  0.1365E-03  0.2798E+07
   -1.365003   11.39297  0.0000E+00  0.2919E-05  0.1248E-05  0.9438E-04  0.8771E-04 -0.2672E+10
   -1.400001   11.40117  0.0000E+00  0.0000E+00  0.0000E+00  0.0000E+00  0.1601E-03  0.0000E+00
