 1 - depth, m
 2 - temperature, C
 3 - salinity, kg/kg
 4 - turbulent kinetic energy, m**2/s**2
 5 - dissipation rate, m**2/s**3
 6 - kinematic heat conductance, m**2/s
 7 - modulus of horizontal velocity, m/s
 8 - Richardson number, n/d
   -0.000000    0.00000  0.0000E+00  0.4702E-13  0.1132E-15  0.1000E-09  0.0000E+00  0.1599E+17
   -0.034997    0.24805  0.0000E+00  0.1120E-12  0.1132E-15  0.1000E-09  0.0000E+00  0.1455E+17
   -0.069995    0.49018  0.0000E+00  0.3659E-12  0.1132E-15  0.1000E-09  0.0000E+00  0.1324E+17
   -0.104993    0.72705  0.0000E+00  0.8115E-12  0.1398E-15  0.1000E-09  0.0000E+00  0.1194E+17
   -0.139991    0.95748  0.0000E+00  0.1497E-11  0.2043E-15  0.1000E-09  0.0000E+00  0.1070E+17
   -0.174989    1.18082  0.0000E+00  0.2535E-11  0.3133E-15  0.1000E-09  0.0000E+00  0.9554E+16
   -0.209988    1.39730  0.0000E+00  0.4114E-11  0.4848E-15  0.1000E-09  0.0000E+00  0.8497E+16
   -0.244987    1.60707  0.0000E+00  0.6533E-11  0.7488E-15  0.1000E-09  0.0000E+00  0.7520E+16
   -0.279986    1.81023  0.0000E+00  0.1025E-10  0.1153E-14  0.1000E-09  0.0000E+00  0.6618E+16
   -0.314986    2.00689  0.0000E+00  0.1606E-10  0.1777E-14  0.1000E-09  0.0000E+00  0.5769E+16
   -0.349985    2.19647  0.0000E+00  0.2526E-10  0.2755E-14  0.1000E-09  0.0000E+00  0.4983E+16
   -0.384985    2.37871  0.0000E+00  0.3978E-10  0.4279E-14  0.1000E-09  0.0000E+00  0.4262E+16
   -0.419985    2.55337  0.0000E+00  0.6249E-10  0.6633E-14  0.1000E-09  0.0000E+00  0.3636E+16
   -0.454985    2.72178  0.0000E+00  0.9786E-10  0.1025E-13  0.1000E-09  0.0000E+00  0.3083E+16
   -0.489985    2.88508  0.0000E+00  0.1530E-09  0.1582E-13  0.1000E-09  0.0000E+00  0.2571E+16
   -0.524986    3.04303  0.0000E+00  0.2483E-09  0.2532E-13  0.1000E-09  0.0000E+00  0.2082E+16
   -0.559986    3.19412  0.0000E+00  0.4223E-09  0.4247E-13  0.1000E-09  0.0000E+00  0.1619E+16
   -0.594987    3.33574  0.0000E+00  0.7624E-09  0.7560E-13  0.1623E-09  0.0000E+00  0.1207E+16
   -0.629987    3.46621  0.0000E+00  0.1271E-08  0.1245E-12  0.3566E-09  0.0000E+00  0.9048E+15
   -0.664988    3.59158  0.0000E+00  0.2020E-08  0.1956E-12  0.7979E-09  0.0000E+00  0.6345E+15
   -0.699988    3.71208  0.0000E+00  0.3144E-08  0.3007E-12  0.1979E-08  0.0000E+00  0.3932E+15
   -0.734989    3.82797  0.0000E+00  0.4848E-08  0.4580E-12  0.6937E-08  0.0000E+00  0.1767E+15
   -0.769989    3.93917  0.0000E+00  0.6869E-08  0.6449E-12  0.3086E-05  0.0000E+00  0.1924E+14
   -0.804990    4.00190  0.0000E+00  0.7228E-08  0.6809E-12  0.3111E-04  0.0000E+00 -0.1306E+12
   -0.839990    4.00244  0.0000E+00  0.7417E-08  0.7024E-12  0.3093E-04  0.0000E+00 -0.1362E+12
   -0.874991    4.00298  0.0000E+00  0.7592E-08  0.7251E-12  0.3123E-04  0.0000E+00 -0.1395E+12
   -0.909991    4.00351  0.0000E+00  0.7753E-08  0.7491E-12  0.3145E-04  0.0000E+00 -0.1429E+12
   -0.944991    4.00404  0.0000E+00  0.7899E-08  0.7745E-12  0.3155E-04  0.0000E+00 -0.1469E+12
   -0.979991    4.00457  0.0000E+00  0.8029E-08  0.8019E-12  0.3148E-04  0.0000E+00 -0.1519E+12
   -1.014991    4.00510  0.0000E+00  0.8145E-08  0.8320E-12  0.3125E-04  0.0000E+00 -0.1584E+12
   -1.049991    4.00564  0.0000E+00  0.8247E-08  0.8663E-12  0.3081E-04  0.0000E+00 -0.1667E+12
   -1.084991    4.00618  0.0000E+00  0.8336E-08  0.9064E-12  0.3016E-04  0.0000E+00 -0.1754E+12
   -1.119990    4.00674  0.0000E+00  0.8407E-08  0.9536E-12  0.2921E-04  0.0000E+00 -0.1865E+12
   -1.154989    4.00732  0.0000E+00  0.8459E-08  0.1010E-11  0.2797E-04  0.0000E+00 -0.2009E+12
   -1.189988    4.00793  0.0000E+00  0.8486E-08  0.1080E-11  0.2638E-04  0.0000E+00 -0.2210E+12
   -1.224987    4.00858  0.0000E+00  0.8484E-08  0.1180E-11  0.2411E-04  0.0000E+00 -0.2550E+12
   -1.259986    4.00930  0.0000E+00  0.8425E-08  0.1370E-11  0.1994E-04  0.0000E+00 -0.3385E+12
   -1.294984    4.01023  0.0000E+00  0.8161E-08  0.1938E-11  0.1087E-04  0.0000E+00 -0.7345E+12
   -1.329982    4.01213  0.0000E+00  0.7376E-08  0.3501E-11  0.3862E-05  0.0000E+00 -0.2500E+13
   -1.364979    4.01772  0.0000E+00  0.5190E-08  0.9701E-11  0.5421E-06  0.0000E+00 -0.2907E+14
   -1.399976    4.05488  0.0000E+00  0.0000E+00  0.0000E+00  0.0000E+00  0.0000E+00  0.0000E+00
