 1 - depth, m
 2 - temperature, C
 3 - salinity, kg/kg
 4 - turbulent kinetic energy, m**2/s**2
 5 - dissipation rate, m**2/s**3
 6 - kinematic heat conductance, m**2/s
 7 - modulus of horizontal velocity, m/s
 8 - Richardson number, n/d
   -0.000000    0.00000  0.0000E+00  0.4702E-13  0.1132E-15  0.1000E-09  0.0000E+00  0.1598E+17
   -0.034997    0.24797  0.0000E+00  0.4702E-13  0.1132E-15  0.1000E-09  0.0000E+00  0.1436E+17
   -0.069994    0.48672  0.0000E+00  0.4702E-13  0.1132E-15  0.1000E-09  0.0000E+00  0.1286E+17
   -0.104991    0.71622  0.0000E+00  0.4702E-13  0.1132E-15  0.1000E-09  0.0000E+00  0.1139E+17
   -0.139989    0.93467  0.0000E+00  0.4702E-13  0.1132E-15  0.1000E-09  0.0000E+00  0.1000E+17
   -0.174987    1.14111  0.0000E+00  0.4702E-13  0.1132E-15  0.1000E-09  0.0000E+00  0.8754E+16
   -0.209985    1.33563  0.0000E+00  0.4702E-13  0.1132E-15  0.1000E-09  0.0000E+00  0.7634E+16
   -0.244983    1.51833  0.0000E+00  0.4702E-13  0.1132E-15  0.1000E-09  0.0000E+00  0.6634E+16
   -0.279982    1.68940  0.0000E+00  0.4702E-13  0.1132E-15  0.1000E-09  0.0000E+00  0.5747E+16
   -0.314981    1.84909  0.0000E+00  0.4702E-13  0.1132E-15  0.1000E-09  0.0000E+00  0.4983E+16
   -0.349980    1.99828  0.0000E+00  0.4702E-13  0.1132E-15  0.1000E-09  0.0000E+00  0.4300E+16
   -0.384979    2.13700  0.0000E+00  0.4702E-13  0.1132E-15  0.1000E-09  0.0000E+00  0.3689E+16
   -0.419978    2.26518  0.0000E+00  0.4702E-13  0.1132E-15  0.1000E-09  0.0000E+00  0.3182E+16
   -0.454978    2.38423  0.0000E+00  0.4702E-13  0.1132E-15  0.1000E-09  0.0000E+00  0.2770E+16
   -0.489978    2.49579  0.0000E+00  0.4702E-13  0.1132E-15  0.1000E-09  0.0000E+00  0.2418E+16
   -0.524977    2.60070  0.0000E+00  0.4702E-13  0.1132E-15  0.1000E-09  0.0000E+00  0.2165E+16
   -0.559977    2.70206  0.0000E+00  0.4702E-13  0.1132E-15  0.1000E-09  0.0000E+00  0.1946E+16
   -0.594977    2.80072  0.0000E+00  0.4702E-13  0.1132E-15  0.1000E-09  0.0000E+00  0.1732E+16
   -0.629977    2.89614  0.0000E+00  0.4702E-13  0.1132E-15  0.1000E-09  0.0000E+00  0.1467E+16
   -0.664977    2.98419  0.0000E+00  0.4702E-13  0.1132E-15  0.1000E-09  0.0000E+00  0.1235E+16
   -0.699977    3.06490  0.0000E+00  0.4702E-13  0.1132E-15  0.1000E-09  0.0000E+00  0.1031E+16
   -0.734977    3.13824  0.0000E+00  0.4702E-13  0.1132E-15  0.1000E-09  0.0000E+00  0.8674E+15
   -0.769977    3.20535  0.0000E+00  0.4702E-13  0.1132E-15  0.1000E-09  0.0000E+00  0.7566E+15
   -0.804977    3.26906  0.0000E+00  0.4702E-13  0.1132E-15  0.1000E-09  0.0000E+00  0.6566E+15
   -0.839977    3.32941  0.0000E+00  0.4702E-13  0.1132E-15  0.1000E-09  0.0000E+00  0.5673E+15
   -0.874977    3.38648  0.0000E+00  0.4702E-13  0.1132E-15  0.1000E-09  0.0000E+00  0.4889E+15
   -0.909977    3.44047  0.0000E+00  0.4702E-13  0.1132E-15  0.1000E-09  0.0000E+00  0.4165E+15
   -0.944976    3.49113  0.0000E+00  0.4702E-13  0.1132E-15  0.1000E-09  0.0000E+00  0.3525E+15
   -0.979976    3.53850  0.0000E+00  0.4702E-13  0.1132E-15  0.1000E-09  0.0000E+00  0.2970E+15
   -1.014975    3.58273  0.0000E+00  0.4702E-13  0.1132E-15  0.1000E-09  0.0000E+00  0.2514E+15
   -1.049974    3.62441  0.0000E+00  0.4702E-13  0.1132E-15  0.1000E-09  0.0000E+00  0.2135E+15
   -1.084974    3.66403  0.0000E+00  0.1074E-12  0.1296E-15  0.1000E-09  0.0000E+00  0.1880E+15
   -1.119972    3.70350  0.0000E+00  0.3864E-12  0.4116E-15  0.1000E-09  0.0000E+00  0.1605E+15
   -1.154971    3.74222  0.0000E+00  0.1376E-11  0.1461E-14  0.1000E-09  0.0000E+00  0.1363E+15
   -1.189969    3.78076  0.0000E+00  0.4915E-11  0.5297E-14  0.1019E-09  0.0000E+00  0.1159E+15
   -1.224968    3.82047  0.0000E+00  0.1866E-10  0.2061E-13  0.4106E-09  0.0000E+00  0.1027E+15
   -1.259966    3.86622  0.0000E+00  0.7650E-10  0.8748E-13  0.1974E-08  0.0000E+00  0.8567E+14
   -1.294963    3.92713  0.0000E+00  0.3686E-09  0.4435E-12  0.2123E-07  0.0000E+00  0.2262E+14
   -1.329961    4.01125  0.0000E+00  0.1332E-08  0.1879E-11  0.2990E-06  0.0000E+00 -0.2645E+14
   -1.364958    4.04958  0.0000E+00  0.2205E-08  0.5179E-11  0.3054E-06  0.0000E+00 -0.7443E+14
   -1.399954    4.10258  0.0000E+00  0.0000E+00  0.0000E+00  0.0000E+00  0.0000E+00  0.0000E+00
