 1 - depth, m
 2 - temperature, C
 3 - salinity, kg/kg
 4 - turbulent kinetic energy, m**2/s**2
 5 - dissipation rate, m**2/s**3
 6 - kinematic heat conductance, m**2/s
 7 - modulus of horizontal velocity, m/s
 8 - Richardson number, n/d
   -0.000000    0.00000  0.0000E+00  0.4702E-13  0.1132E-15  0.1000E-09  0.0000E+00  0.1849E+17
   -0.034997    0.28849  0.0000E+00  0.4702E-13  0.1132E-15  0.1000E-09  0.0000E+00  0.1632E+17
   -0.069994    0.56456  0.0000E+00  0.4702E-13  0.1132E-15  0.1000E-09  0.0000E+00  0.1433E+17
   -0.104992    0.82816  0.0000E+00  0.4702E-13  0.1132E-15  0.1000E-09  0.0000E+00  0.1247E+17
   -0.139989    1.07795  0.0000E+00  0.4702E-13  0.1132E-15  0.1000E-09  0.0000E+00  0.1076E+17
   -0.174987    1.31315  0.0000E+00  0.4702E-13  0.1132E-15  0.1000E-09  0.0000E+00  0.9229E+16
   -0.209986    1.53371  0.0000E+00  0.4702E-13  0.1132E-15  0.1000E-09  0.0000E+00  0.7869E+16
   -0.244984    1.73957  0.0000E+00  0.4702E-13  0.1132E-15  0.1000E-09  0.0000E+00  0.6668E+16
   -0.279983    1.93073  0.0000E+00  0.4702E-13  0.1132E-15  0.1000E-09  0.0000E+00  0.5614E+16
   -0.314982    2.10723  0.0000E+00  0.4702E-13  0.1132E-15  0.1000E-09  0.0000E+00  0.4698E+16
   -0.349981    2.26931  0.0000E+00  0.4702E-13  0.1132E-15  0.1000E-09  0.0000E+00  0.3893E+16
   -0.384981    2.41662  0.0000E+00  0.4702E-13  0.1132E-15  0.1000E-09  0.0000E+00  0.3187E+16
   -0.419980    2.54872  0.0000E+00  0.4702E-13  0.1132E-15  0.1000E-09  0.0000E+00  0.2628E+16
   -0.454980    2.66781  0.0000E+00  0.4702E-13  0.1132E-15  0.1000E-09  0.0000E+00  0.2194E+16
   -0.489980    2.77636  0.0000E+00  0.4702E-13  0.1132E-15  0.1000E-09  0.0000E+00  0.1834E+16
   -0.524980    2.87541  0.0000E+00  0.4702E-13  0.1132E-15  0.1000E-09  0.0000E+00  0.1570E+16
   -0.559980    2.96792  0.0000E+00  0.4702E-13  0.1132E-15  0.1000E-09  0.0000E+00  0.1340E+16
   -0.594980    3.05430  0.0000E+00  0.4702E-13  0.1132E-15  0.1000E-09  0.0000E+00  0.1127E+16
   -0.629980    3.13377  0.0000E+00  0.4702E-13  0.1132E-15  0.1000E-09  0.0000E+00  0.9168E+15
   -0.664980    3.20446  0.0000E+00  0.4702E-13  0.1132E-15  0.1000E-09  0.0000E+00  0.7391E+15
   -0.699980    3.26654  0.0000E+00  0.4702E-13  0.1132E-15  0.1000E-09  0.0000E+00  0.5900E+15
   -0.734980    3.32028  0.0000E+00  0.4702E-13  0.1132E-15  0.1000E-09  0.0000E+00  0.4861E+15
   -0.769981    3.36811  0.0000E+00  0.4702E-13  0.1132E-15  0.1000E-09  0.0000E+00  0.4438E+15
   -0.804981    3.41529  0.0000E+00  0.4702E-13  0.1132E-15  0.1000E-09  0.0000E+00  0.4064E+15
   -0.839981    3.46226  0.0000E+00  0.4702E-13  0.1132E-15  0.1000E-09  0.0000E+00  0.3719E+15
   -0.874981    3.50932  0.0000E+00  0.4702E-13  0.1132E-15  0.1000E-09  0.0000E+00  0.3393E+15
   -0.909981    3.55679  0.0000E+00  0.4702E-13  0.1132E-15  0.1000E-09  0.0000E+00  0.2998E+15
   -0.944981    3.60365  0.0000E+00  0.4702E-13  0.1132E-15  0.1000E-09  0.0000E+00  0.2592E+15
   -0.979980    3.64943  0.0000E+00  0.1747E-12  0.1449E-15  0.1000E-09  0.0000E+00  0.2206E+15
   -1.014980    3.69401  0.0000E+00  0.5569E-12  0.3793E-15  0.1000E-09  0.0000E+00  0.1912E+15
   -1.049979    3.73913  0.0000E+00  0.1629E-11  0.1066E-14  0.1000E-09  0.0000E+00  0.1615E+15
   -1.084978    3.78499  0.0000E+00  0.4676E-11  0.3003E-14  0.1000E-09  0.0000E+00  0.1230E+15
   -1.119977    3.82854  0.0000E+00  0.1318E-10  0.8363E-14  0.2245E-09  0.0000E+00  0.8778E+14
   -1.154976    3.86897  0.0000E+00  0.3680E-10  0.2324E-13  0.8851E-09  0.0000E+00  0.5973E+14
   -1.189975    3.90739  0.0000E+00  0.1026E-09  0.6511E-13  0.3745E-08  0.0000E+00  0.3639E+14
   -1.224973    3.94592  0.0000E+00  0.2971E-09  0.1930E-12  0.2260E-07  0.0000E+00  0.1275E+14
   -1.259971    3.98735  0.0000E+00  0.8605E-09  0.6074E-12  0.2802E-06  0.0000E+00 -0.5018E+13
   -1.294969    4.01176  0.0000E+00  0.2011E-08  0.1852E-11  0.7191E-06  0.0000E+00 -0.1154E+14
   -1.329966    4.03237  0.0000E+00  0.3114E-08  0.4124E-11  0.7570E-06  0.0000E+00 -0.2354E+14
   -1.364964    4.05793  0.0000E+00  0.3896E-08  0.9937E-11  0.4664E-06  0.0000E+00 -0.8449E+14
   -1.399961    4.11254  0.0000E+00  0.0000E+00  0.0000E+00  0.0000E+00  0.0000E+00  0.0000E+00
