 1 - depth, m
 2 - temperature, C
 3 - salinity, kg/kg
 4 - turbulent kinetic energy, m**2/s**2
 5 - dissipation rate, m**2/s**3
 6 - kinematic heat conductance, m**2/s
 7 - modulus of horizontal velocity, m/s
 8 - Richardson number, n/d
   -0.000000    0.00000  0.0000E+00  0.9312E-04  0.3158E-04  0.4415E-04  0.8790E-01  0.2425E-01
   -0.034998    0.00474  0.0000E+00  0.6034E-04  0.9599E-05  0.6449E-04  0.3638E-01  0.1865E-02
   -0.069995    0.00716  0.0000E+00  0.4742E-04  0.4242E-05  0.8218E-04  0.2665E-01  0.1748E-01
   -0.104994    0.00889  0.0000E+00  0.3998E-04  0.2316E-05  0.9802E-04  0.2167E-01  0.3215E-02
   -0.139992    0.01029  0.0000E+00  0.3475E-04  0.1400E-05  0.1122E-03  0.1810E-01  0.4344E-02
   -0.174991    0.01151  0.0000E+00  0.3082E-04  0.9177E-06  0.1245E-03  0.1529E-01  0.5626E-02
   -0.209990    0.01261  0.0000E+00  0.2774E-04  0.6440E-06  0.1343E-03  0.1297E-01  0.7007E-02
   -0.244989    0.01363  0.0000E+00  0.2516E-04  0.4773E-06  0.1412E-03  0.1099E-01  0.8377E-02
   -0.279989    0.01460  0.0000E+00  0.2283E-04  0.3668E-06  0.1438E-03  0.9227E-02  0.9618E-02
   -0.314989    0.01557  0.0000E+00  0.2049E-04  0.2854E-06  0.1504E-03  0.7599E-02  0.1601E-01
   -0.349988    0.01648  0.0000E+00  0.1836E-04  0.2254E-06  0.1542E-03  0.6282E-02  0.3298E-01
   -0.384989    0.01738  0.0000E+00  0.1648E-04  0.1806E-06  0.1561E-03  0.5195E-02  0.9180E-01
   -0.419989    0.01826  0.0000E+00  0.1485E-04  0.1472E-06  0.1544E-03  0.4282E-02  0.2260E+00
   -0.454989    0.01916  0.0000E+00  0.1342E-04  0.1216E-06  0.1509E-03  0.3462E-02  0.5686E+00
   -0.489990    0.02010  0.0000E+00  0.1214E-04  0.1017E-06  0.1480E-03  0.2708E-02  0.2581E+01
   -0.524990    0.02109  0.0000E+00  0.1091E-04  0.8491E-07  0.1501E-03  0.2040E-02  0.1071E+02
   -0.559991    0.02200  0.0000E+00  0.9707E-05  0.7041E-07  0.1499E-03  0.1560E-02 -0.3961E+03
   -0.594992    0.02281  0.0000E+00  0.8404E-05  0.5627E-07  0.1443E-03  0.1254E-02 -0.3999E+05
   -0.629993    0.02356  0.0000E+00  0.7245E-05  0.4479E-07  0.1327E-03  0.1085E-02 -0.7155E+04
   -0.664993    0.02436  0.0000E+00  0.6250E-05  0.3577E-07  0.1213E-03  0.9297E-03 -0.2825E+03
   -0.699994    0.02524  0.0000E+00  0.5391E-05  0.2866E-07  0.1101E-03  0.7865E-03  0.6716E+03
   -0.734995    0.02620  0.0000E+00  0.4642E-05  0.2299E-07  0.9904E-04  0.6574E-03 -0.2912E+06
   -0.769996    0.02725  0.0000E+00  0.3986E-05  0.1844E-07  0.8807E-04  0.5437E-03 -0.2711E+07
   -0.804997    0.02841  0.0000E+00  0.3407E-05  0.1477E-07  0.7709E-04  0.4454E-03  0.1507E+05
   -0.839998    0.02971  0.0000E+00  0.2896E-05  0.1181E-07  0.6625E-04  0.3604E-03  0.4935E+05
   -0.874998    0.03119  0.0000E+00  0.2443E-05  0.9402E-08  0.5569E-04  0.2877E-03  0.2528E+06
   -0.909999    0.03288  0.0000E+00  0.2039E-05  0.7440E-08  0.4506E-04  0.2275E-03  0.1251E+07
   -0.945000    0.03498  0.0000E+00  0.1681E-05  0.5849E-08  0.3484E-04  0.1756E-03  0.9600E+07
   -0.980000    0.03778  0.0000E+00  0.1362E-05  0.4550E-08  0.2528E-04  0.1305E-03  0.1909E+09
   -1.015000    0.04224  0.0000E+00  0.1076E-05  0.3482E-08  0.1737E-04  0.9084E-04  0.8515E+10
   -1.050000    0.04908  0.0000E+00  0.8173E-06  0.2587E-08  0.1080E-04  0.5980E-04  0.6354E+12
   -1.085000    0.06188  0.0000E+00  0.5643E-06  0.1777E-08  0.5309E-05  0.3716E-04  0.3192E+14
   -1.120000    0.11740  0.0000E+00  0.3238E-06  0.1036E-08  0.2899E-05  0.1995E-04  0.1173E+15
   -1.154999    0.27412  0.0000E+00  0.1898E-06  0.6162E-09  0.1299E-05  0.1031E-04  0.3563E+15
   -1.189999    0.48461  0.0000E+00  0.1119E-06  0.3652E-09  0.3173E-06  0.5181E-05  0.1355E+16
   -1.224998    0.73933  0.0000E+00  0.5004E-07  0.1656E-09  0.4019E-07  0.1419E-05  0.3632E+16
   -1.259997    1.02971  0.0000E+00  0.1615E-07  0.5387E-10  0.1231E-07  0.1448E-06  0.7324E+16
   -1.294995    1.30963  0.0000E+00  0.6273E-08  0.1907E-10  0.3226E-06  0.7657E-08  0.6810E+16
   -1.329993    1.49492  0.0000E+00  0.1792E-08  0.5132E-11  0.1216E-08  0.9977E-09  0.8287E+16
   -1.364991    1.74143  0.0000E+00  0.3157E-09  0.1227E-11  0.2346E-09  0.4061E-10  0.8833E+16
   -1.399989    2.02646  0.0000E+00  0.0000E+00  0.0000E+00  0.0000E+00  0.4424E-10  0.0000E+00
