 1 - depth, m
 2 - temperature, C
 3 - salinity, kg/kg
 4 - turbulent kinetic energy, m**2/s**2
 5 - dissipation rate, m**2/s**3
 6 - kinematic heat conductance, m**2/s
 7 - modulus of horizontal velocity, m/s
 8 - Richardson number, n/d
   -0.000000    0.00000  0.0000E+00  0.6138E-11  0.2899E-14  0.1000E-09  0.0000E+00  0.2485E+17
   -0.034997    0.39341  0.0000E+00  0.1100E-10  0.2851E-14  0.1000E-09  0.0000E+00  0.2032E+17
   -0.069994    0.75293  0.0000E+00  0.2085E-10  0.3989E-14  0.1000E-09  0.0000E+00  0.1662E+17
   -0.104992    1.08187  0.0000E+00  0.3781E-10  0.6391E-14  0.1000E-09  0.0000E+00  0.1362E+17
   -0.139990    1.38399  0.0000E+00  0.6629E-10  0.1061E-13  0.1000E-09  0.0000E+00  0.1120E+17
   -0.174988    1.66292  0.0000E+00  0.1139E-09  0.1770E-13  0.1000E-09  0.0000E+00  0.9220E+16
   -0.209987    1.92198  0.0000E+00  0.1936E-09  0.2945E-13  0.1000E-09  0.0000E+00  0.7612E+16
   -0.244985    2.16448  0.0000E+00  0.3265E-09  0.4880E-13  0.1000E-09  0.0000E+00  0.6290E+16
   -0.279984    2.39340  0.0000E+00  0.5476E-09  0.8052E-13  0.1000E-09  0.0000E+00  0.5187E+16
   -0.314984    2.61142  0.0000E+00  0.9196E-09  0.1331E-12  0.1060E-09  0.0000E+00  0.4073E+16
   -0.349983    2.81150  0.0000E+00  0.1550E-08  0.2208E-12  0.1876E-09  0.0000E+00  0.3152E+16
   -0.384982    2.99445  0.0000E+00  0.2614E-08  0.3666E-12  0.3946E-09  0.0000E+00  0.2413E+16
   -0.419982    3.16248  0.0000E+00  0.4386E-08  0.6057E-12  0.8080E-09  0.0000E+00  0.1951E+16
   -0.454982    3.33038  0.0000E+00  0.7321E-08  0.9958E-12  0.1656E-08  0.0000E+00  0.1584E+16
   -0.489982    3.51035  0.0000E+00  0.1216E-07  0.1630E-11  0.4024E-08  0.0000E+00  0.1135E+16
   -0.524982    3.70637  0.0000E+00  0.2076E-07  0.2744E-11  0.2506E-07  0.0000E+00  0.5550E+15
   -0.559982    3.90696  0.0000E+00  0.2680E-07  0.3581E-11  0.3978E-04  0.0000E+00  0.1517E+15
   -0.594982    3.99349  0.0000E+00  0.2958E-07  0.3981E-11  0.6575E-04  0.0000E+00  0.1861E+14
   -0.629983    4.01601  0.0000E+00  0.3026E-07  0.4090E-11  0.7666E-04  0.0000E+00 -0.2894E+12
   -0.664983    4.01664  0.0000E+00  0.3086E-07  0.4194E-11  0.7713E-04  0.0000E+00 -0.3000E+12
   -0.699983    4.01728  0.0000E+00  0.3143E-07  0.4304E-11  0.7780E-04  0.0000E+00 -0.3119E+12
   -0.734984    4.01793  0.0000E+00  0.3199E-07  0.4421E-11  0.7830E-04  0.0000E+00 -0.3242E+12
   -0.769984    4.01858  0.0000E+00  0.3253E-07  0.4546E-11  0.7863E-04  0.0000E+00 -0.3334E+12
   -0.804984    4.01925  0.0000E+00  0.3305E-07  0.4681E-11  0.7879E-04  0.0000E+00 -0.3437E+12
   -0.839984    4.01991  0.0000E+00  0.3355E-07  0.4825E-11  0.7872E-04  0.0000E+00 -0.3567E+12
   -0.874985    4.02059  0.0000E+00  0.3403E-07  0.4982E-11  0.7842E-04  0.0000E+00 -0.3720E+12
   -0.909985    4.02129  0.0000E+00  0.3449E-07  0.5153E-11  0.7788E-04  0.0000E+00 -0.3894E+12
   -0.944985    4.02200  0.0000E+00  0.3491E-07  0.5337E-11  0.7710E-04  0.0000E+00 -0.4094E+12
   -0.979985    4.02273  0.0000E+00  0.3530E-07  0.5539E-11  0.7602E-04  0.0000E+00 -0.4345E+12
   -1.014984    4.02349  0.0000E+00  0.3565E-07  0.5763E-11  0.7462E-04  0.0000E+00 -0.4694E+12
   -1.049984    4.02429  0.0000E+00  0.3597E-07  0.6020E-11  0.7289E-04  0.0000E+00 -0.5112E+12
   -1.084983    4.02514  0.0000E+00  0.3624E-07  0.6320E-11  0.7075E-04  0.0000E+00 -0.5382E+12
   -1.119982    4.02603  0.0000E+00  0.3645E-07  0.6674E-11  0.6843E-04  0.0000E+00 -0.5691E+12
   -1.154981    4.02694  0.0000E+00  0.3660E-07  0.7085E-11  0.6991E-04  0.0000E+00 -0.5668E+12
   -1.189980    4.02783  0.0000E+00  0.3666E-07  0.7576E-11  0.6861E-04  0.0000E+00 -0.6002E+12
   -1.224979    4.02874  0.0000E+00  0.3664E-07  0.8270E-11  0.5768E-04  0.0000E+00 -0.7402E+12
   -1.259977    4.02984  0.0000E+00  0.3647E-07  0.9467E-11  0.5019E-04  0.0000E+00 -0.9080E+12
   -1.294975    4.03116  0.0000E+00  0.3587E-07  0.1237E-10  0.3929E-04  0.0000E+00 -0.1294E+13
   -1.329972    4.03298  0.0000E+00  0.3409E-07  0.2030E-10  0.1487E-04  0.0000E+00 -0.3847E+13
   -1.364970    4.03801  0.0000E+00  0.2533E-07  0.6791E-10  0.1711E-05  0.0000E+00 -0.5153E+14
   -1.399967    4.08256  0.0000E+00  0.0000E+00  0.0000E+00  0.0000E+00  0.0000E+00  0.0000E+00
