 1 - depth, m
 2 - temperature, C
 3 - salinity, kg/kg
 4 - turbulent kinetic energy, m**2/s**2
 5 - dissipation rate, m**2/s**3
 6 - kinematic heat conductance, m**2/s
 7 - modulus of horizontal velocity, m/s
 8 - Richardson number, n/d
   -0.000000    0.00000  0.0000E+00  0.1124E-11  0.3069E-15  0.1000E-09  0.0000E+00  0.1606E+17
   -0.034998    0.24920  0.0000E+00  0.1623E-11  0.2741E-15  0.1000E-09  0.0000E+00  0.1506E+17
   -0.069996    0.50013  0.0000E+00  0.2576E-11  0.3102E-15  0.1000E-09  0.0000E+00  0.1404E+17
   -0.104994    0.75266  0.0000E+00  0.4045E-11  0.4026E-15  0.1000E-09  0.0000E+00  0.1283E+17
   -0.139992    1.00316  0.0000E+00  0.6186E-11  0.5565E-15  0.1000E-09  0.0000E+00  0.1155E+17
   -0.174991    1.24930  0.0000E+00  0.9255E-11  0.7877E-15  0.1000E-09  0.0000E+00  0.1031E+17
   -0.209990    1.49053  0.0000E+00  0.1364E-10  0.1123E-14  0.1000E-09  0.0000E+00  0.9126E+16
   -0.244990    1.72632  0.0000E+00  0.1990E-10  0.1603E-14  0.1000E-09  0.0000E+00  0.7992E+16
   -0.279989    1.95609  0.0000E+00  0.2883E-10  0.2284E-14  0.1000E-09  0.0000E+00  0.6917E+16
   -0.314989    2.17925  0.0000E+00  0.4177E-10  0.3264E-14  0.1000E-09  0.0000E+00  0.5870E+16
   -0.349989    2.39381  0.0000E+00  0.6075E-10  0.4688E-14  0.1000E-09  0.0000E+00  0.4897E+16
   -0.384989    2.59865  0.0000E+00  0.8856E-10  0.6753E-14  0.1000E-09  0.0000E+00  0.4007E+16
   -0.419989    2.79281  0.0000E+00  0.1289E-09  0.9719E-14  0.1000E-09  0.0000E+00  0.3256E+16
   -0.454990    2.97837  0.0000E+00  0.1871E-09  0.1396E-13  0.1000E-09  0.0000E+00  0.2609E+16
   -0.489990    3.15704  0.0000E+00  0.2715E-09  0.2004E-13  0.1000E-09  0.0000E+00  0.2014E+16
   -0.524991    3.32787  0.0000E+00  0.4069E-09  0.2971E-13  0.1000E-09  0.0000E+00  0.1458E+16
   -0.559992    3.48726  0.0000E+00  0.6385E-09  0.4609E-13  0.1280E-09  0.0000E+00  0.9582E+15
   -0.594993    3.62925  0.0000E+00  0.1064E-08  0.7594E-13  0.3525E-09  0.0000E+00  0.5605E+15
   -0.629993    3.74931  0.0000E+00  0.1661E-08  0.1174E-12  0.9870E-09  0.0000E+00  0.3105E+15
   -0.664994    3.85800  0.0000E+00  0.2475E-08  0.1735E-12  0.4182E-08  0.0000E+00  0.1182E+15
   -0.699995    3.95241  0.0000E+00  0.3261E-08  0.2294E-12  0.4057E-05  0.0000E+00  0.1504E+14
   -0.734996    3.99305  0.0000E+00  0.3506E-08  0.2482E-12  0.1761E-04  0.0000E+00 -0.6466E+11
   -0.769997    3.99373  0.0000E+00  0.3653E-08  0.2608E-12  0.1877E-04  0.0000E+00 -0.6822E+11
   -0.804998    3.99435  0.0000E+00  0.3788E-08  0.2738E-12  0.1981E-04  0.0000E+00 -0.7126E+11
   -0.839999    3.99493  0.0000E+00  0.3917E-08  0.2876E-12  0.2067E-04  0.0000E+00 -0.7441E+11
   -0.875000    3.99549  0.0000E+00  0.4039E-08  0.3022E-12  0.2131E-04  0.0000E+00 -0.7809E+11
   -0.910000    3.99604  0.0000E+00  0.4154E-08  0.3179E-12  0.2172E-04  0.0000E+00 -0.8233E+11
   -0.945001    3.99658  0.0000E+00  0.4261E-08  0.3346E-12  0.2193E-04  0.0000E+00 -0.8737E+11
   -0.980001    3.99712  0.0000E+00  0.4360E-08  0.3525E-12  0.2194E-04  0.0000E+00 -0.9346E+11
   -1.015002    3.99767  0.0000E+00  0.4450E-08  0.3723E-12  0.2180E-04  0.0000E+00 -0.1012E+12
   -1.050002    3.99824  0.0000E+00  0.4534E-08  0.3947E-12  0.2147E-04  0.0000E+00 -0.1107E+12
   -1.085002    3.99882  0.0000E+00  0.4610E-08  0.4210E-12  0.2085E-04  0.0000E+00 -0.1210E+12
   -1.120002    3.99943  0.0000E+00  0.4677E-08  0.4525E-12  0.1996E-04  0.0000E+00 -0.1341E+12
   -1.155001    4.00008  0.0000E+00  0.4734E-08  0.4913E-12  0.1873E-04  0.0000E+00 -0.1524E+12
   -1.190000    4.00078  0.0000E+00  0.4776E-08  0.5436E-12  0.1697E-04  0.0000E+00 -0.1810E+12
   -1.224999    4.00157  0.0000E+00  0.4799E-08  0.6249E-12  0.1402E-04  0.0000E+00 -0.2411E+12
   -1.259998    4.00255  0.0000E+00  0.4784E-08  0.7727E-12  0.1060E-04  0.0000E+00 -0.3719E+12
   -1.294997    4.00396  0.0000E+00  0.4646E-08  0.1181E-11  0.5891E-05  0.0000E+00 -0.8775E+12
   -1.329995    4.00691  0.0000E+00  0.4195E-08  0.2246E-11  0.2087E-05  0.0000E+00 -0.3420E+13
   -1.364993    4.01565  0.0000E+00  0.3188E-08  0.5774E-11  0.3994E-06  0.0000E+00 -0.3331E+14
   -1.399991    4.05783  0.0000E+00  0.0000E+00  0.0000E+00  0.0000E+00  0.0000E+00  0.0000E+00
