 1 - depth, m
 2 - temperature, C
 3 - salinity, kg/kg
 4 - turbulent kinetic energy, m**2/s**2
 5 - dissipation rate, m**2/s**3
 6 - kinematic heat conductance, m**2/s
 7 - modulus of horizontal velocity, m/s
 8 - Richardson number, n/d
   -0.000000    0.00000  0.0000E+00  0.3633E-04  0.4673E-05  0.2618E-04  0.4216E-01  0.3220E-02
   -0.034997    0.01301  0.0000E+00  0.2734E-04  0.1568E-05  0.4691E-04  0.2465E-01  0.4956E-02
   -0.069994    0.01928  0.0000E+00  0.2280E-04  0.8084E-06  0.6276E-04  0.1893E-01  0.8749E-02
   -0.104991    0.02397  0.0000E+00  0.1961E-04  0.4955E-06  0.7456E-04  0.1527E-01  0.1318E-01
   -0.139988    0.02789  0.0000E+00  0.1716E-04  0.3344E-06  0.8326E-04  0.1258E-01  0.1851E-01
   -0.174986    0.03133  0.0000E+00  0.1517E-04  0.2401E-06  0.8938E-04  0.1047E-01  0.2497E-01
   -0.209984    0.03448  0.0000E+00  0.1350E-04  0.1803E-06  0.9279E-04  0.8742E-02  0.3223E-01
   -0.244983    0.03745  0.0000E+00  0.1203E-04  0.1396E-06  0.9315E-04  0.7271E-02  0.3974E-01
   -0.279981    0.04036  0.0000E+00  0.1063E-04  0.1092E-06  0.8914E-04  0.5965E-02  0.4570E-01
   -0.314980    0.04333  0.0000E+00  0.9143E-05  0.8378E-07  0.8812E-04  0.4734E-02  0.7139E-01
   -0.349979    0.04627  0.0000E+00  0.7764E-05  0.6389E-07  0.8411E-04  0.3756E-02  0.1123E+00
   -0.384978    0.04927  0.0000E+00  0.6543E-05  0.4869E-07  0.7800E-04  0.2966E-02  0.1775E+00
   -0.419978    0.05242  0.0000E+00  0.5498E-05  0.3731E-07  0.6902E-04  0.2321E-02  0.2450E+00
   -0.454977    0.05590  0.0000E+00  0.4594E-05  0.2864E-07  0.5887E-04  0.1742E-02  0.3240E+00
   -0.489977    0.05992  0.0000E+00  0.3807E-05  0.2194E-07  0.4959E-04  0.1200E-02  0.4926E+00
   -0.524976    0.06462  0.0000E+00  0.3095E-05  0.1649E-07  0.4387E-04  0.7190E-03  0.1504E+01
   -0.559976    0.06954  0.0000E+00  0.2475E-05  0.1221E-07  0.3842E-04  0.4129E-03  0.5825E+01
   -0.594976    0.07396  0.0000E+00  0.1878E-05  0.8521E-08  0.3245E-04  0.2520E-03 -0.3231E+03
   -0.629976    0.07751  0.0000E+00  0.1372E-05  0.5774E-08  0.2125E-04  0.1948E-03 -0.2541E+03
   -0.664976    0.08250  0.0000E+00  0.9443E-06  0.3743E-08  0.1109E-04  0.1441E-03  0.2365E+03
   -0.699976    0.09285  0.0000E+00  0.5472E-06  0.2094E-08  0.2714E-05  0.9822E-04  0.1059E+05
   -0.734976    0.14590  0.0000E+00  0.1822E-06  0.6909E-09  0.1146E-06  0.4852E-04  0.9824E+06
   -0.769976    0.40521  0.0000E+00  0.2743E-07  0.1071E-09  0.1289E-07  0.8588E-05  0.4791E+08
   -0.804975    0.75788  0.0000E+00  0.3462E-08  0.1406E-10  0.2206E-08  0.1171E-05  0.1697E+10
   -0.839975    1.07239  0.0000E+00  0.4186E-09  0.1761E-11  0.3844E-09  0.1502E-06  0.6260E+11
   -0.874975    1.33759  0.0000E+00  0.5885E-10  0.2254E-12  0.1059E-09  0.1806E-07  0.2973E+13
   -0.909975    1.56233  0.0000E+00  0.4605E-10  0.5789E-13  0.1000E-09  0.2366E-08  0.1067E+15
   -0.944974    1.77602  0.0000E+00  0.1363E-09  0.9435E-13  0.1076E-09  0.3064E-09  0.9200E+15
   -0.979974    1.99588  0.0000E+00  0.4163E-09  0.2627E-12  0.1649E-09  0.3732E-10  0.3788E+16
   -1.014973    2.23234  0.0000E+00  0.1243E-08  0.7587E-12  0.4057E-09  0.3543E-11  0.5819E+16
   -1.049972    2.46977  0.0000E+00  0.3654E-08  0.2172E-11  0.1490E-08  0.3020E-12  0.4900E+16
   -1.084971    2.72712  0.0000E+00  0.8794E-08  0.5196E-11  0.5497E-06  0.2347E-13  0.4873E+16
   -1.119970    3.04946  0.0000E+00  0.1422E-07  0.8759E-11  0.5468E-05  0.2073E-14  0.4512E+16
   -1.154969    3.37966  0.0000E+00  0.1962E-07  0.1287E-10  0.9596E-05  0.1704E-15  0.3451E+16
   -1.189967    3.69194  0.0000E+00  0.2507E-07  0.1778E-10  0.1306E-04  0.2570E-16  0.1883E+16
   -1.224965    3.94774  0.0000E+00  0.3084E-07  0.2422E-10  0.1567E-04  0.7283E-17  0.4142E+15
   -1.259963    4.08811  0.0000E+00  0.3626E-07  0.3249E-10  0.1697E-04  0.2075E-17 -0.1374E+14
   -1.294961    4.09775  0.0000E+00  0.3981E-07  0.4493E-10  0.1437E-04  0.5603E-18 -0.2005E+14
   -1.329958    4.10949  0.0000E+00  0.4126E-07  0.6945E-10  0.8299E-05  0.1826E-18 -0.4063E+14
   -1.364955    4.12968  0.0000E+00  0.3678E-07  0.1567E-09  0.2269E-05  0.3710E-19 -0.2095E+15
   -1.399951    4.20468  0.0000E+00  0.0000E+00  0.0000E+00  0.0000E+00  0.3711E-19  0.0000E+00
