 1 - depth, m
 2 - temperature, C
 3 - salinity, kg/kg
 4 - turbulent kinetic energy, m**2/s**2
 5 - dissipation rate, m**2/s**3
 6 - kinematic heat conductance, m**2/s
 7 - modulus of horizontal velocity, m/s
 8 - Richardson number, n/d
   -0.000000    0.00000  0.0000E+00  0.4702E-13  0.1132E-15  0.1000E-09  0.0000E+00  0.1556E+17
   -0.034997    0.24126  0.0000E+00  0.4702E-13  0.1132E-15  0.1000E-09  0.0000E+00  0.1396E+17
   -0.069994    0.47263  0.0000E+00  0.4702E-13  0.1132E-15  0.1000E-09  0.0000E+00  0.1249E+17
   -0.104991    0.69432  0.0000E+00  0.4702E-13  0.1132E-15  0.1000E-09  0.0000E+00  0.1108E+17
   -0.139989    0.90508  0.0000E+00  0.4702E-13  0.1132E-15  0.1000E-09  0.0000E+00  0.9771E+16
   -0.174987    1.10441  0.0000E+00  0.4702E-13  0.1132E-15  0.1000E-09  0.0000E+00  0.8601E+16
   -0.209986    1.29267  0.0000E+00  0.4702E-13  0.1132E-15  0.1000E-09  0.0000E+00  0.7557E+16
   -0.244984    1.47023  0.0000E+00  0.4702E-13  0.1132E-15  0.1000E-09  0.0000E+00  0.6627E+16
   -0.279983    1.63746  0.0000E+00  0.4702E-13  0.1132E-15  0.1000E-09  0.0000E+00  0.5800E+16
   -0.314982    1.79470  0.0000E+00  0.4702E-13  0.1132E-15  0.1000E-09  0.0000E+00  0.5072E+16
   -0.349981    1.94246  0.0000E+00  0.4702E-13  0.1132E-15  0.1000E-09  0.0000E+00  0.4416E+16
   -0.384980    2.08075  0.0000E+00  0.4702E-13  0.1132E-15  0.1000E-09  0.0000E+00  0.3825E+16
   -0.419980    2.20950  0.0000E+00  0.4702E-13  0.1132E-15  0.1000E-09  0.0000E+00  0.3334E+16
   -0.454980    2.33014  0.0000E+00  0.4702E-13  0.1132E-15  0.1000E-09  0.0000E+00  0.2929E+16
   -0.489979    2.44410  0.0000E+00  0.4702E-13  0.1132E-15  0.1000E-09  0.0000E+00  0.2571E+16
   -0.524979    2.55178  0.0000E+00  0.4702E-13  0.1132E-15  0.1000E-09  0.0000E+00  0.2281E+16
   -0.559979    2.65477  0.0000E+00  0.4702E-13  0.1132E-15  0.1000E-09  0.0000E+00  0.2010E+16
   -0.594979    2.75277  0.0000E+00  0.4702E-13  0.1132E-15  0.1000E-09  0.0000E+00  0.1748E+16
   -0.629979    2.84497  0.0000E+00  0.4702E-13  0.1132E-15  0.1000E-09  0.0000E+00  0.1500E+16
   -0.664980    2.93064  0.0000E+00  0.4702E-13  0.1132E-15  0.1000E-09  0.0000E+00  0.1283E+16
   -0.699980    3.00994  0.0000E+00  0.4702E-13  0.1132E-15  0.1000E-09  0.0000E+00  0.1090E+16
   -0.734980    3.08290  0.0000E+00  0.4702E-13  0.1132E-15  0.1000E-09  0.0000E+00  0.9342E+15
   -0.769980    3.15054  0.0000E+00  0.4702E-13  0.1132E-15  0.1000E-09  0.0000E+00  0.8262E+15
   -0.804980    3.21536  0.0000E+00  0.4702E-13  0.1132E-15  0.1000E-09  0.0000E+00  0.7273E+15
   -0.839980    3.27737  0.0000E+00  0.4702E-13  0.1132E-15  0.1000E-09  0.0000E+00  0.6374E+15
   -0.874980    3.33664  0.0000E+00  0.4702E-13  0.1132E-15  0.1000E-09  0.0000E+00  0.5566E+15
   -0.909980    3.39326  0.0000E+00  0.4702E-13  0.1132E-15  0.1000E-09  0.0000E+00  0.4819E+15
   -0.944980    3.44711  0.0000E+00  0.4702E-13  0.1132E-15  0.1000E-09  0.0000E+00  0.4146E+15
   -0.979979    3.49822  0.0000E+00  0.4702E-13  0.1132E-15  0.1000E-09  0.0000E+00  0.3548E+15
   -1.014979    3.54669  0.0000E+00  0.4702E-13  0.1132E-15  0.1000E-09  0.0000E+00  0.3028E+15
   -1.049978    3.59278  0.0000E+00  0.4715E-13  0.1132E-15  0.1000E-09  0.0000E+00  0.2587E+15
   -1.084978    3.63698  0.0000E+00  0.1763E-12  0.1988E-15  0.1000E-09  0.0000E+00  0.2311E+15
   -1.119976    3.68189  0.0000E+00  0.6498E-12  0.6688E-15  0.1000E-09  0.0000E+00  0.2002E+15
   -1.154975    3.72703  0.0000E+00  0.2295E-11  0.2341E-14  0.1000E-09  0.0000E+00  0.1704E+15
   -1.189974    3.77288  0.0000E+00  0.8095E-11  0.8280E-14  0.1291E-09  0.0000E+00  0.1421E+15
   -1.224972    3.82060  0.0000E+00  0.3018E-10  0.3120E-13  0.5683E-09  0.0000E+00  0.1179E+15
   -1.259970    3.87481  0.0000E+00  0.1206E-09  0.1272E-12  0.3047E-08  0.0000E+00  0.8339E+14
   -1.294968    3.94402  0.0000E+00  0.5561E-09  0.6113E-12  0.5332E-07  0.0000E+00  0.4436E+13
   -1.329965    4.02158  0.0000E+00  0.1758E-08  0.2463E-11  0.4174E-06  0.0000E+00 -0.2681E+14
   -1.364963    4.05464  0.0000E+00  0.2627E-08  0.6335E-11  0.3468E-06  0.0000E+00 -0.7754E+14
   -1.399959    4.10707  0.0000E+00  0.0000E+00  0.0000E+00  0.0000E+00  0.0000E+00  0.0000E+00
