 1 - depth, m
 2 - temperature, C
 3 - salinity, kg/kg
 4 - turbulent kinetic energy, m**2/s**2
 5 - dissipation rate, m**2/s**3
 6 - kinematic heat conductance, m**2/s
 7 - modulus of horizontal velocity, m/s
 8 - Richardson number, n/d
   -0.000000   12.97109  0.0000E+00  0.8984E-04  0.3774E-04  0.3825E-04  0.7630E-01  0.4194E-02
   -0.034998   13.00035  0.0000E+00  0.5440E-04  0.1111E-04  0.7170E-04  0.2764E-01 -0.4177E-01
   -0.069996   13.00548  0.0000E+00  0.4114E-04  0.4834E-05  0.8107E-04  0.1963E-01 -0.1999E-01
   -0.104994   13.00913  0.0000E+00  0.3352E-04  0.2585E-05  0.9042E-04  0.1588E-01 -0.2895E-01
   -0.139993   13.01202  0.0000E+00  0.2825E-04  0.1493E-05  0.1007E-03  0.1319E-01 -0.4151E-01
   -0.174992   13.01452  0.0000E+00  0.2440E-04  0.9267E-06  0.1114E-03  0.1105E-01 -0.5650E-01
   -0.209991   13.01675  0.0000E+00  0.2148E-04  0.6153E-06  0.1219E-03  0.9280E-02 -0.7339E-01
   -0.244991   13.01877  0.0000E+00  0.1918E-04  0.4329E-06  0.1349E-03  0.7774E-02 -0.8974E-02
   -0.279991   13.02060  0.0000E+00  0.1723E-04  0.3180E-06  0.1628E-03  0.6465E-02  0.1657E+02
   -0.314990   13.02225  0.0000E+00  0.1545E-04  0.2393E-06  0.1877E-03  0.5292E-02  0.2014E+02
   -0.349991   13.02371  0.0000E+00  0.1390E-04  0.1842E-06  0.2107E-03  0.4354E-02  0.4020E+03
   -0.384991   13.02503  0.0000E+00  0.1259E-04  0.1449E-06  0.2322E-03  0.3590E-02  0.7660E+01
   -0.419991   13.02624  0.0000E+00  0.1149E-04  0.1165E-06  0.2471E-03  0.2954E-02  0.1805E+01
   -0.454992   13.02739  0.0000E+00  0.1055E-04  0.9571E-07  0.2603E-03  0.2394E-02  0.7865E+02
   -0.489993   13.02848  0.0000E+00  0.9755E-05  0.8028E-07  0.2749E-03  0.1890E-02  0.1743E+02
   -0.524994   13.02952  0.0000E+00  0.9004E-05  0.6777E-07  0.3008E-03  0.1451E-02  0.4923E+02
   -0.559994   13.03041  0.0000E+00  0.8281E-05  0.5707E-07  0.3573E-03  0.1129E-02  0.1989E+03
   -0.594995   13.03110  0.0000E+00  0.7530E-05  0.4687E-07  0.3985E-03  0.9201E-03  0.7311E+02
   -0.629996   13.03162  0.0000E+00  0.6909E-05  0.3895E-07  0.4247E-03  0.7990E-03  0.1850E+02
   -0.664998   13.03210  0.0000E+00  0.6407E-05  0.3293E-07  0.4433E-03  0.6954E-03  0.9022E+02
   -0.699999   13.03254  0.0000E+00  0.5991E-05  0.2824E-07  0.4542E-03  0.6028E-03  0.4611E+01
   -0.735000   13.03298  0.0000E+00  0.5641E-05  0.2453E-07  0.4622E-03  0.5206E-03  0.5504E+02
   -0.770001   13.03340  0.0000E+00  0.5347E-05  0.2159E-07  0.4683E-03  0.4490E-03  0.1128E+01
   -0.805002   13.03382  0.0000E+00  0.5100E-05  0.1924E-07  0.4731E-03  0.3871E-03  0.1260E+01
   -0.840003   13.03424  0.0000E+00  0.4891E-05  0.1737E-07  0.4762E-03  0.3337E-03  0.1546E+01
   -0.875004   13.03466  0.0000E+00  0.4715E-05  0.1589E-07  0.4784E-03  0.2876E-03  0.1777E+01
   -0.910005   13.03508  0.0000E+00  0.4565E-05  0.1472E-07  0.4793E-03  0.2484E-03  0.2169E+01
   -0.945005   13.03552  0.0000E+00  0.4438E-05  0.1381E-07  0.4783E-03  0.2142E-03  0.2631E+01
   -0.980006   13.03596  0.0000E+00  0.4329E-05  0.1313E-07  0.4751E-03  0.1842E-03  0.3201E+01
   -1.015006   13.03641  0.0000E+00  0.4235E-05  0.1265E-07  0.4694E-03  0.1577E-03  0.3949E+01
   -1.050007   13.03688  0.0000E+00  0.4151E-05  0.1233E-07  0.4614E-03  0.1353E-03  0.5180E+01
   -1.085007   13.03736  0.0000E+00  0.4074E-05  0.1217E-07  0.4510E-03  0.1164E-03  0.6995E+01
   -1.120007   13.03786  0.0000E+00  0.3999E-05  0.1218E-07  0.4357E-03  0.1003E-03  0.9833E+01
   -1.155007   13.03839  0.0000E+00  0.3925E-05  0.1241E-07  0.4190E-03  0.8542E-04  0.1337E+02
   -1.190006   13.03896  0.0000E+00  0.3845E-05  0.1297E-07  0.3911E-03  0.7171E-04  0.1815E+02
   -1.225005   13.03961  0.0000E+00  0.3749E-05  0.1417E-07  0.3660E-03  0.5816E-04 -0.2121E+02
   -1.260004   13.04032  0.0000E+00  0.3605E-05  0.1705E-07  0.3098E-03  0.4644E-04 -0.7632E+04
   -1.295003   13.04144  0.0000E+00  0.3320E-05  0.2493E-07  0.2580E-03  0.3464E-04  0.5570E+04
   -1.330001   13.04227  0.0000E+00  0.2862E-05  0.4796E-07  0.1522E-03  0.2843E-04  0.2056E+06
   -1.365000   13.04686  0.0000E+00  0.1884E-05  0.1226E-06  0.3655E-04  0.1884E-04 -0.6621E+07
   -1.399997   13.05752  0.0000E+00  0.0000E+00  0.0000E+00  0.0000E+00  0.2426E-04  0.0000E+00
