 1 - depth, m
 2 - temperature, C
 3 - salinity, kg/kg
 4 - turbulent kinetic energy, m**2/s**2
 5 - dissipation rate, m**2/s**3
 6 - kinematic heat conductance, m**2/s
 7 - modulus of horizontal velocity, m/s
 8 - Richardson number, n/d
   -0.000000    0.00000  0.0000E+00  0.4702E-13  0.1132E-15  0.1000E-09  0.0000E+00  0.7630E+16
   -0.034998    0.11627  0.0000E+00  0.4702E-13  0.1132E-15  0.1000E-09  0.0000E+00  0.7544E+16
   -0.069996    0.23501  0.0000E+00  0.4702E-13  0.1132E-15  0.1000E-09  0.0000E+00  0.7447E+16
   -0.104995    0.35630  0.0000E+00  0.4702E-13  0.1132E-15  0.1000E-09  0.0000E+00  0.7230E+16
   -0.139993    0.47830  0.0000E+00  0.4702E-13  0.1132E-15  0.1000E-09  0.0000E+00  0.6948E+16
   -0.174992    0.59994  0.0000E+00  0.4702E-13  0.1132E-15  0.1000E-09  0.0000E+00  0.6666E+16
   -0.209992    0.72115  0.0000E+00  0.4702E-13  0.1132E-15  0.1000E-09  0.0000E+00  0.6384E+16
   -0.244991    0.84187  0.0000E+00  0.4702E-13  0.1132E-15  0.1000E-09  0.0000E+00  0.6103E+16
   -0.279991    0.96202  0.0000E+00  0.4702E-13  0.1132E-15  0.1000E-09  0.0000E+00  0.5823E+16
   -0.314991    1.08153  0.0000E+00  0.4702E-13  0.1132E-15  0.1000E-09  0.0000E+00  0.5528E+16
   -0.349991    1.19996  0.0000E+00  0.4702E-13  0.1132E-15  0.1000E-09  0.0000E+00  0.5231E+16
   -0.384992    1.31710  0.0000E+00  0.4702E-13  0.1132E-15  0.1000E-09  0.0000E+00  0.4936E+16
   -0.419992    1.43279  0.0000E+00  0.4702E-13  0.1132E-15  0.1000E-09  0.0000E+00  0.4665E+16
   -0.454993    1.54738  0.0000E+00  0.4702E-13  0.1132E-15  0.1000E-09  0.0000E+00  0.4410E+16
   -0.489994    1.66112  0.0000E+00  0.4702E-13  0.1132E-15  0.1000E-09  0.0000E+00  0.4151E+16
   -0.524995    1.77373  0.0000E+00  0.4702E-13  0.1132E-15  0.1000E-09  0.0000E+00  0.3858E+16
   -0.559996    1.88400  0.0000E+00  0.4702E-13  0.1132E-15  0.1000E-09  0.0000E+00  0.3531E+16
   -0.594997    1.99044  0.0000E+00  0.4702E-13  0.1132E-15  0.1000E-09  0.0000E+00  0.3194E+16
   -0.629998    2.09206  0.0000E+00  0.4702E-13  0.1132E-15  0.1000E-09  0.0000E+00  0.2975E+16
   -0.664999    2.19202  0.0000E+00  0.4702E-13  0.1132E-15  0.1000E-09  0.0000E+00  0.2759E+16
   -0.700000    2.29018  0.0000E+00  0.4702E-13  0.1132E-15  0.1000E-09  0.0000E+00  0.2546E+16
   -0.735001    2.38625  0.0000E+00  0.4702E-13  0.1132E-15  0.1000E-09  0.0000E+00  0.2348E+16
   -0.770002    2.48042  0.0000E+00  0.4702E-13  0.1132E-15  0.1000E-09  0.0000E+00  0.2182E+16
   -0.805004    2.57366  0.0000E+00  0.4702E-13  0.1132E-15  0.1000E-09  0.0000E+00  0.2018E+16
   -0.840005    2.66588  0.0000E+00  0.4702E-13  0.1132E-15  0.1000E-09  0.0000E+00  0.1857E+16
   -0.875006    2.75700  0.0000E+00  0.4702E-13  0.1132E-15  0.1000E-09  0.0000E+00  0.1699E+16
   -0.910007    2.84689  0.0000E+00  0.4702E-13  0.1132E-15  0.1000E-09  0.0000E+00  0.1547E+16
   -0.945007    2.93549  0.0000E+00  0.4702E-13  0.1132E-15  0.1000E-09  0.0000E+00  0.1398E+16
   -0.980008    3.02270  0.0000E+00  0.4702E-13  0.1132E-15  0.1000E-09  0.0000E+00  0.1254E+16
   -1.015009    3.10834  0.0000E+00  0.4702E-13  0.1132E-15  0.1000E-09  0.0000E+00  0.1110E+16
   -1.050009    3.19193  0.0000E+00  0.4702E-13  0.1132E-15  0.1000E-09  0.0000E+00  0.9734E+15
   -1.085009    3.27340  0.0000E+00  0.4702E-13  0.1132E-15  0.1000E-09  0.0000E+00  0.8656E+15
   -1.120009    3.35473  0.0000E+00  0.4702E-13  0.1132E-15  0.1000E-09  0.0000E+00  0.7576E+15
   -1.155009    3.43580  0.0000E+00  0.4702E-13  0.1132E-15  0.1000E-09  0.0000E+00  0.6512E+15
   -1.190009    3.51664  0.0000E+00  0.4702E-13  0.1132E-15  0.1000E-09  0.0000E+00  0.5469E+15
   -1.225008    3.59741  0.0000E+00  0.4702E-13  0.1132E-15  0.1000E-09  0.0000E+00  0.4462E+15
   -1.260007    3.67875  0.0000E+00  0.4702E-13  0.1132E-15  0.1000E-09  0.0000E+00  0.3479E+15
   -1.295006    3.76190  0.0000E+00  0.6391E-13  0.1157E-15  0.1000E-09  0.0000E+00  0.2482E+15
   -1.330004    3.84934  0.0000E+00  0.1254E-12  0.1431E-15  0.1000E-09  0.0000E+00  0.1299E+15
   -1.365002    3.93935  0.0000E+00  0.2985E-12  0.2294E-15  0.3395E-09  0.0000E+00 -0.1040E+13
   -1.400000    4.03468  0.0000E+00  0.0000E+00  0.0000E+00  0.0000E+00  0.0000E+00  0.0000E+00
