 1 - depth, m
 2 - temperature, C
 3 - salinity, kg/kg
 4 - turbulent kinetic energy, m**2/s**2
 5 - dissipation rate, m**2/s**3
 6 - kinematic heat conductance, m**2/s
 7 - modulus of horizontal velocity, m/s
 8 - Richardson number, n/d
   -0.000000    0.00000  0.0000E+00  0.5466E-10  0.4106E-13  0.1000E-09  0.0000E+00  0.2400E+17
   -0.034997    0.37918  0.0000E+00  0.1226E-09  0.3423E-13  0.1000E-09  0.0000E+00  0.2040E+17
   -0.069994    0.73854  0.0000E+00  0.2494E-09  0.4238E-13  0.1000E-09  0.0000E+00  0.1737E+17
   -0.104992    1.08136  0.0000E+00  0.4510E-09  0.6228E-13  0.1000E-09  0.0000E+00  0.1473E+17
   -0.139990    1.40959  0.0000E+00  0.7642E-09  0.9659E-13  0.1000E-09  0.0000E+00  0.1242E+17
   -0.174989    1.72492  0.0000E+00  0.1252E-08  0.1516E-12  0.1000E-09  0.0000E+00  0.1040E+17
   -0.209987    2.02913  0.0000E+00  0.2013E-08  0.2381E-12  0.1012E-09  0.0000E+00  0.8605E+16
   -0.244986    2.32406  0.0000E+00  0.3206E-08  0.3729E-12  0.1471E-09  0.0000E+00  0.7005E+16
   -0.279985    2.61162  0.0000E+00  0.5078E-08  0.5825E-12  0.2721E-09  0.0000E+00  0.5560E+16
   -0.314984    2.89405  0.0000E+00  0.8055E-08  0.9124E-12  0.5675E-09  0.0000E+00  0.4184E+16
   -0.349984    3.17044  0.0000E+00  0.1284E-07  0.1437E-11  0.1294E-08  0.0000E+00  0.2920E+16
   -0.384983    3.44342  0.0000E+00  0.2048E-07  0.2266E-11  0.3658E-08  0.0000E+00  0.1718E+16
   -0.419983    3.71530  0.0000E+00  0.3205E-07  0.3511E-11  0.3496E-07  0.0000E+00  0.5800E+15
   -0.454983    3.95807  0.0000E+00  0.3618E-07  0.3953E-11  0.7657E-04  0.0000E+00  0.5726E+14
   -0.489983    4.02588  0.0000E+00  0.3658E-07  0.4002E-11  0.1099E-03  0.0000E+00 -0.2416E+12
   -0.524983    4.02628  0.0000E+00  0.3688E-07  0.4044E-11  0.1094E-03  0.0000E+00 -0.2450E+12
   -0.559983    4.02667  0.0000E+00  0.3722E-07  0.4100E-11  0.1096E-03  0.0000E+00 -0.2499E+12
   -0.594984    4.02707  0.0000E+00  0.3766E-07  0.4179E-11  0.1100E-03  0.0000E+00 -0.2536E+12
   -0.629984    4.02748  0.0000E+00  0.3810E-07  0.4265E-11  0.1106E-03  0.0000E+00 -0.2557E+12
   -0.664984    4.02788  0.0000E+00  0.3852E-07  0.4354E-11  0.1107E-03  0.0000E+00 -0.2592E+12
   -0.699985    4.02828  0.0000E+00  0.3891E-07  0.4448E-11  0.1106E-03  0.0000E+00 -0.2634E+12
   -0.734985    4.02869  0.0000E+00  0.3928E-07  0.4547E-11  0.1103E-03  0.0000E+00 -0.2685E+12
   -0.769985    4.02909  0.0000E+00  0.3963E-07  0.4653E-11  0.1098E-03  0.0000E+00 -0.2727E+12
   -0.804986    4.02951  0.0000E+00  0.3996E-07  0.4767E-11  0.1091E-03  0.0000E+00 -0.2784E+12
   -0.839986    4.02992  0.0000E+00  0.4027E-07  0.4890E-11  0.1081E-03  0.0000E+00 -0.2848E+12
   -0.874986    4.03034  0.0000E+00  0.4055E-07  0.5024E-11  0.1068E-03  0.0000E+00 -0.2931E+12
   -0.909986    4.03077  0.0000E+00  0.4082E-07  0.5171E-11  0.1053E-03  0.0000E+00 -0.3022E+12
   -0.944987    4.03121  0.0000E+00  0.4105E-07  0.5332E-11  0.1035E-03  0.0000E+00 -0.3135E+12
   -0.979986    4.03166  0.0000E+00  0.4126E-07  0.5509E-11  0.1014E-03  0.0000E+00 -0.3265E+12
   -1.014986    4.03212  0.0000E+00  0.4143E-07  0.5709E-11  0.9894E-04  0.0000E+00 -0.3438E+12
   -1.049986    4.03260  0.0000E+00  0.4157E-07  0.5941E-11  0.9603E-04  0.0000E+00 -0.3642E+12
   -1.084985    4.03311  0.0000E+00  0.4168E-07  0.6218E-11  0.9266E-04  0.0000E+00 -0.3826E+12
   -1.119984    4.03363  0.0000E+00  0.4175E-07  0.6551E-11  0.8880E-04  0.0000E+00 -0.4053E+12
   -1.154984    4.03418  0.0000E+00  0.4177E-07  0.6951E-11  0.8440E-04  0.0000E+00 -0.4337E+12
   -1.189982    4.03476  0.0000E+00  0.4173E-07  0.7452E-11  0.7931E-04  0.0000E+00 -0.4713E+12
   -1.224981    4.03539  0.0000E+00  0.4161E-07  0.8159E-11  0.7291E-04  0.0000E+00 -0.5277E+12
   -1.259979    4.03608  0.0000E+00  0.4134E-07  0.9348E-11  0.6361E-04  0.0000E+00 -0.6374E+12
   -1.294977    4.03689  0.0000E+00  0.4064E-07  0.1223E-10  0.5012E-04  0.0000E+00 -0.8819E+12
   -1.329975    4.03801  0.0000E+00  0.3870E-07  0.2026E-10  0.1780E-04  0.0000E+00 -0.2704E+13
   -1.364972    4.04129  0.0000E+00  0.2802E-07  0.7519E-10  0.1692E-05  0.0000E+00 -0.3910E+14
   -1.399969    4.07595  0.0000E+00  0.0000E+00  0.0000E+00  0.0000E+00  0.0000E+00  0.0000E+00
