 1 - depth, m
 2 - temperature, C
 3 - salinity, kg/kg
 4 - turbulent kinetic energy, m**2/s**2
 5 - dissipation rate, m**2/s**3
 6 - kinematic heat conductance, m**2/s
 7 - modulus of horizontal velocity, m/s
 8 - Richardson number, n/d
   -0.000000    0.14889  0.0000E+00  0.3731E-04  0.7914E-05  0.2821E-04  0.4439E-01  0.2400E-01
   -0.035000    0.17752  0.0000E+00  0.2472E-04  0.2432E-05  0.4035E-04  0.2211E-01  0.1028E-01
   -0.069999    0.18805  0.0000E+00  0.1925E-04  0.1094E-05  0.4843E-04  0.1670E-01  0.2061E-01
   -0.105000    0.19555  0.0000E+00  0.1564E-04  0.5878E-06  0.5396E-04  0.1338E-01  0.2995E-01
   -0.140000    0.20207  0.0000E+00  0.1297E-04  0.3503E-06  0.5713E-04  0.1093E-01  0.4419E-01
   -0.175001    0.20807  0.0000E+00  0.1091E-04  0.2261E-06  0.5821E-04  0.8985E-02  0.6313E-01
   -0.210002    0.21383  0.0000E+00  0.9278E-05  0.1553E-06  0.5725E-04  0.7385E-02  0.8688E-01
   -0.245003    0.21958  0.0000E+00  0.7918E-05  0.1118E-06  0.5421E-04  0.6017E-02  0.1146E+00
   -0.280005    0.22558  0.0000E+00  0.6687E-05  0.8241E-07  0.4805E-04  0.4796E-02  0.1358E+00
   -0.315007    0.23245  0.0000E+00  0.5388E-05  0.5905E-07  0.4347E-04  0.3609E-02  0.3008E+00
   -0.350009    0.24037  0.0000E+00  0.4214E-05  0.4179E-07  0.3652E-04  0.2705E-02  0.9556E+00
   -0.385011    0.25494  0.0000E+00  0.3215E-05  0.2935E-07  0.2900E-04  0.1995E-02  0.1117E+02
   -0.420013    0.30365  0.0000E+00  0.2420E-05  0.2069E-07  0.2124E-04  0.1453E-02  0.3044E+03
   -0.455015    0.39964  0.0000E+00  0.1780E-05  0.1453E-07  0.1439E-04  0.9986E-03  0.1228E+05
   -0.490018    0.56473  0.0000E+00  0.1263E-05  0.9959E-08  0.9218E-05  0.5889E-03  0.9156E+06
   -0.525021    0.81098  0.0000E+00  0.8638E-06  0.6437E-08  0.6074E-05  0.2601E-03  0.2069E+09
   -0.560023    1.08712  0.0000E+00  0.6418E-06  0.4107E-08  0.3796E-05  0.1163E-03  0.1300E+11
   -0.595026    1.24969  0.0000E+00  0.4451E-06  0.2466E-08  0.1358E-03  0.6266E-04  0.2908E+12
   -0.630029    1.32692  0.0000E+00  0.2945E-06  0.1311E-08  0.1312E-03  0.4499E-04  0.1474E+12
   -0.665032    1.38030  0.0000E+00  0.1822E-06  0.4903E-09  0.1306E-03  0.2641E-04  0.1790E+12
   -0.700035    1.42780  0.0000E+00  0.1272E-06  0.1177E-09  0.1333E-03  0.7805E-05  0.1433E+12
   -0.735038    1.46286  0.0000E+00  0.1147E-06  0.4780E-10  0.1317E-03  0.1573E-05  0.1847E+12
   -0.770041    1.48204  0.0000E+00  0.1080E-06  0.3503E-10  0.1032E-03  0.2665E-06  0.1463E+14
   -0.805043    1.50110  0.0000E+00  0.9567E-07  0.2910E-10  0.1567E-04  0.4236E-07  0.4979E+15
   -0.840046    1.52647  0.0000E+00  0.7132E-07  0.2232E-10  0.6087E-06  0.7847E-08  0.1119E+16
   -0.875049    1.56196  0.0000E+00  0.4289E-07  0.1361E-10  0.2255E-07  0.1435E-08  0.1345E+16
   -0.910052    1.61100  0.0000E+00  0.2320E-07  0.7215E-11  0.6963E-08  0.2020E-09  0.1791E+16
   -0.945054    1.68081  0.0000E+00  0.1247E-07  0.3934E-11  0.2870E-08  0.2682E-10  0.2600E+16
   -0.980057    1.77084  0.0000E+00  0.6673E-08  0.2286E-11  0.1364E-08  0.3314E-11  0.3682E+16
   -1.015059    1.87834  0.0000E+00  0.3513E-08  0.1497E-11  0.8364E-09  0.3173E-12  0.3416E+16
   -1.050061    1.98296  0.0000E+00  0.1793E-08  0.1121E-11  0.5036E-09  0.2721E-13  0.3061E+16
   -1.085063    2.08317  0.0000E+00  0.8221E-09  0.9436E-12  0.2893E-09  0.2123E-14  0.3806E+16
   -1.120065    2.21511  0.0000E+00  0.2815E-09  0.8859E-12  0.1904E-09  0.1898E-15  0.4898E+16
   -1.155066    2.39863  0.0000E+00  0.4624E-10  0.8927E-12  0.1427E-09  0.1525E-16  0.5642E+16
   -1.190068    2.63822  0.0000E+00  0.3007E-10  0.9359E-12  0.1322E-09  0.9882E-18  0.5698E+16
   -1.225069    2.93171  0.0000E+00  0.1587E-09  0.1200E-11  0.4368E-09  0.4095E-19  0.4685E+16
   -1.260069    3.25849  0.0000E+00  0.9265E-09  0.2831E-11  0.9984E-08  0.1254E-20  0.2948E+16
   -1.295070    3.58200  0.0000E+00  0.3492E-08  0.9001E-11  0.6081E-06  0.3330E-22  0.1316E+16
   -1.330070    3.80937  0.0000E+00  0.4629E-08  0.1514E-10  0.5598E-06  0.2839E-23  0.2029E+15
   -1.365070    4.08837  0.0000E+00  0.4830E-08  0.2956E-10  0.2592E-06  0.2394E-24 -0.1299E+16
   -1.400070    4.39269  0.0000E+00  0.0000E+00  0.0000E+00  0.0000E+00  0.2358E-24  0.0000E+00
