 1 - depth, m
 2 - temperature, C
 3 - salinity, kg/kg
 4 - turbulent kinetic energy, m**2/s**2
 5 - dissipation rate, m**2/s**3
 6 - kinematic heat conductance, m**2/s
 7 - modulus of horizontal velocity, m/s
 8 - Richardson number, n/d
   -0.000000    0.00000  0.0000E+00  0.4702E-13  0.1132E-15  0.1000E-09  0.0000E+00  0.1408E+17
   -0.034998    0.21757  0.0000E+00  0.4702E-13  0.1132E-15  0.1000E-09  0.0000E+00  0.1325E+17
   -0.069996    0.43536  0.0000E+00  0.4702E-13  0.1132E-15  0.1000E-09  0.0000E+00  0.1240E+17
   -0.104994    0.65285  0.0000E+00  0.4702E-13  0.1132E-15  0.1000E-09  0.0000E+00  0.1143E+17
   -0.139992    0.86740  0.0000E+00  0.4702E-13  0.1132E-15  0.1000E-09  0.0000E+00  0.1040E+17
   -0.174991    1.07725  0.0000E+00  0.4702E-13  0.1132E-15  0.1000E-09  0.0000E+00  0.9417E+16
   -0.209990    1.28192  0.0000E+00  0.4702E-13  0.1132E-15  0.1000E-09  0.0000E+00  0.8471E+16
   -0.244989    1.48099  0.0000E+00  0.4702E-13  0.1132E-15  0.1000E-09  0.0000E+00  0.7573E+16
   -0.279989    1.67404  0.0000E+00  0.5112E-13  0.1132E-15  0.1000E-09  0.0000E+00  0.6726E+16
   -0.314989    1.86078  0.0000E+00  0.1939E-12  0.1132E-15  0.1000E-09  0.0000E+00  0.5949E+16
   -0.349989    2.04138  0.0000E+00  0.5334E-12  0.1172E-15  0.1000E-09  0.0000E+00  0.5220E+16
   -0.384989    2.21549  0.0000E+00  0.1089E-11  0.1575E-15  0.1000E-09  0.0000E+00  0.4539E+16
   -0.419989    2.38267  0.0000E+00  0.1936E-11  0.2358E-15  0.1000E-09  0.0000E+00  0.3925E+16
   -0.454990    2.54318  0.0000E+00  0.3221E-11  0.3632E-15  0.1000E-09  0.0000E+00  0.3374E+16
   -0.489990    2.69745  0.0000E+00  0.5186E-11  0.5625E-15  0.1000E-09  0.0000E+00  0.2871E+16
   -0.524991    2.84539  0.0000E+00  0.8544E-11  0.9035E-15  0.1000E-09  0.0000E+00  0.2413E+16
   -0.559991    2.98692  0.0000E+00  0.1465E-10  0.1520E-14  0.1000E-09  0.0000E+00  0.1974E+16
   -0.594992    3.12002  0.0000E+00  0.2656E-10  0.2713E-14  0.1000E-09  0.0000E+00  0.1566E+16
   -0.629993    3.24267  0.0000E+00  0.4441E-10  0.4481E-14  0.1000E-09  0.0000E+00  0.1247E+16
   -0.664994    3.35741  0.0000E+00  0.7076E-10  0.7058E-14  0.1000E-09  0.0000E+00  0.9680E+15
   -0.699995    3.46377  0.0000E+00  0.1105E-09  0.1090E-13  0.1000E-09  0.0000E+00  0.7275E+15
   -0.734996    3.56103  0.0000E+00  0.1716E-09  0.1672E-13  0.1000E-09  0.0000E+00  0.5329E+15
   -0.769997    3.64980  0.0000E+00  0.2658E-09  0.2559E-13  0.1719E-09  0.0000E+00  0.3852E+15
   -0.804998    3.73275  0.0000E+00  0.4113E-09  0.3910E-13  0.3898E-09  0.0000E+00  0.2600E+15
   -0.839998    3.80955  0.0000E+00  0.6349E-09  0.5963E-13  0.9891E-09  0.0000E+00  0.1569E+15
   -0.874999    3.87997  0.0000E+00  0.9786E-09  0.9079E-13  0.3197E-08  0.0000E+00  0.7490E+14
   -0.910000    3.94363  0.0000E+00  0.1492E-08  0.1369E-12  0.2746E-07  0.0000E+00  0.1410E+14
   -0.945000    3.99454  0.0000E+00  0.1778E-08  0.1641E-12  0.8360E-05  0.0000E+00 -0.1312E+12
   -0.980001    3.99551  0.0000E+00  0.1926E-08  0.1803E-12  0.8773E-05  0.0000E+00 -0.1343E+12
   -1.015001    3.99641  0.0000E+00  0.2055E-08  0.1970E-12  0.8803E-05  0.0000E+00 -0.1390E+12
   -1.050001    3.99726  0.0000E+00  0.2171E-08  0.2156E-12  0.8565E-05  0.0000E+00 -0.1463E+12
   -1.085001    3.99808  0.0000E+00  0.2277E-08  0.2373E-12  0.8489E-05  0.0000E+00 -0.1605E+12
   -1.120001    3.99893  0.0000E+00  0.2372E-08  0.2629E-12  0.8180E-05  0.0000E+00 -0.1803E+12
   -1.155000    3.99981  0.0000E+00  0.2453E-08  0.2940E-12  0.7665E-05  0.0000E+00 -0.2091E+12
   -1.190000    4.00077  0.0000E+00  0.2517E-08  0.3336E-12  0.6950E-05  0.0000E+00 -0.2533E+12
   -1.224999    4.00185  0.0000E+00  0.2564E-08  0.3922E-12  0.6013E-05  0.0000E+00 -0.3340E+12
   -1.259998    4.00316  0.0000E+00  0.2589E-08  0.4968E-12  0.4751E-05  0.0000E+00 -0.5216E+12
   -1.294996    4.00503  0.0000E+00  0.2550E-08  0.7710E-12  0.2801E-05  0.0000E+00 -0.1256E+13
   -1.329994    4.00891  0.0000E+00  0.2341E-08  0.1398E-11  0.1121E-05  0.0000E+00 -0.4452E+13
   -1.364992    4.01915  0.0000E+00  0.1896E-08  0.3202E-11  0.2747E-06  0.0000E+00 -0.3120E+14
   -1.399990    4.05747  0.0000E+00  0.0000E+00  0.0000E+00  0.0000E+00  0.0000E+00  0.0000E+00
