 1 - depth, m
 2 - temperature, C
 3 - salinity, kg/kg
 4 - turbulent kinetic energy, m**2/s**2
 5 - dissipation rate, m**2/s**3
 6 - kinematic heat conductance, m**2/s
 7 - modulus of horizontal velocity, m/s
 8 - Richardson number, n/d
   -0.000000    0.00000  0.0000E+00  0.4702E-13  0.1132E-15  0.1000E-09  0.0000E+00  0.1117E+17
   -0.034998    0.17151  0.0000E+00  0.4702E-13  0.1132E-15  0.1000E-09  0.0000E+00  0.1058E+17
   -0.069995    0.34195  0.0000E+00  0.4702E-13  0.1132E-15  0.1000E-09  0.0000E+00  0.1003E+17
   -0.104994    0.51168  0.0000E+00  0.4702E-13  0.1132E-15  0.1000E-09  0.0000E+00  0.9411E+16
   -0.139992    0.67934  0.0000E+00  0.4702E-13  0.1132E-15  0.1000E-09  0.0000E+00  0.8775E+16
   -0.174991    0.84419  0.0000E+00  0.4702E-13  0.1132E-15  0.1000E-09  0.0000E+00  0.8172E+16
   -0.209990    1.00635  0.0000E+00  0.4702E-13  0.1132E-15  0.1000E-09  0.0000E+00  0.7598E+16
   -0.244989    1.16591  0.0000E+00  0.4702E-13  0.1132E-15  0.1000E-09  0.0000E+00  0.7050E+16
   -0.279989    1.32293  0.0000E+00  0.4702E-13  0.1132E-15  0.1000E-09  0.0000E+00  0.6527E+16
   -0.314988    1.47744  0.0000E+00  0.4702E-13  0.1132E-15  0.1000E-09  0.0000E+00  0.6008E+16
   -0.349988    1.62901  0.0000E+00  0.4702E-13  0.1132E-15  0.1000E-09  0.0000E+00  0.5508E+16
   -0.384989    1.77746  0.0000E+00  0.4702E-13  0.1132E-15  0.1000E-09  0.0000E+00  0.5028E+16
   -0.419989    1.92264  0.0000E+00  0.4702E-13  0.1132E-15  0.1000E-09  0.0000E+00  0.4590E+16
   -0.454989    2.06506  0.0000E+00  0.4702E-13  0.1132E-15  0.1000E-09  0.0000E+00  0.4181E+16
   -0.489990    2.20503  0.0000E+00  0.4702E-13  0.1132E-15  0.1000E-09  0.0000E+00  0.3778E+16
   -0.524990    2.34203  0.0000E+00  0.4702E-13  0.1132E-15  0.1000E-09  0.0000E+00  0.3339E+16
   -0.559991    2.47371  0.0000E+00  0.4702E-13  0.1132E-15  0.1000E-09  0.0000E+00  0.2870E+16
   -0.594992    2.59708  0.0000E+00  0.4702E-13  0.1132E-15  0.1000E-09  0.0000E+00  0.2415E+16
   -0.629993    2.71033  0.0000E+00  0.4702E-13  0.1132E-15  0.1000E-09  0.0000E+00  0.2139E+16
   -0.664993    2.82002  0.0000E+00  0.4702E-13  0.1132E-15  0.1000E-09  0.0000E+00  0.1879E+16
   -0.699994    2.92589  0.0000E+00  0.6539E-13  0.1132E-15  0.1000E-09  0.0000E+00  0.1632E+16
   -0.734995    3.02747  0.0000E+00  0.2521E-12  0.1217E-15  0.1000E-09  0.0000E+00  0.1410E+16
   -0.769996    3.12496  0.0000E+00  0.6603E-12  0.2086E-15  0.1000E-09  0.0000E+00  0.1226E+16
   -0.804997    3.21984  0.0000E+00  0.1458E-11  0.4082E-15  0.1000E-09  0.0000E+00  0.1052E+16
   -0.839998    3.31198  0.0000E+00  0.3016E-11  0.8058E-15  0.1000E-09  0.0000E+00  0.8890E+15
   -0.874998    3.40121  0.0000E+00  0.6087E-11  0.1582E-14  0.1000E-09  0.0000E+00  0.7371E+15
   -0.909999    3.48727  0.0000E+00  0.1213E-10  0.3081E-14  0.1000E-09  0.0000E+00  0.5992E+15
   -0.945000    3.57027  0.0000E+00  0.2389E-10  0.5944E-14  0.1000E-09  0.0000E+00  0.4733E+15
   -0.980000    3.65012  0.0000E+00  0.4679E-10  0.1141E-13  0.1000E-09  0.0000E+00  0.3587E+15
   -1.015000    3.72660  0.0000E+00  0.9180E-10  0.2194E-13  0.2234E-09  0.0000E+00  0.2530E+15
   -1.050000    3.79855  0.0000E+00  0.1810E-09  0.4241E-13  0.6697E-09  0.0000E+00  0.1629E+15
   -1.085000    3.86587  0.0000E+00  0.3579E-09  0.8230E-13  0.2314E-08  0.0000E+00  0.9125E+14
   -1.120000    3.93275  0.0000E+00  0.6970E-09  0.1576E-12  0.1806E-07  0.0000E+00  0.2211E+14
   -1.154999    3.99352  0.0000E+00  0.1173E-08  0.2655E-12  0.1885E-05  0.0000E+00 -0.7291E+12
   -1.189999    3.99848  0.0000E+00  0.1494E-08  0.3620E-12  0.2402E-05  0.0000E+00 -0.8687E+12
   -1.224998    4.00243  0.0000E+00  0.1767E-08  0.4816E-12  0.2529E-05  0.0000E+00 -0.1102E+13
   -1.259997    4.00633  0.0000E+00  0.2006E-08  0.6635E-12  0.2324E-05  0.0000E+00 -0.1609E+13
   -1.294995    4.01093  0.0000E+00  0.2234E-08  0.1064E-11  0.1687E-05  0.0000E+00 -0.3236E+13
   -1.329993    4.01824  0.0000E+00  0.2298E-08  0.1833E-11  0.9171E-06  0.0000E+00 -0.8498E+13
   -1.364991    4.03219  0.0000E+00  0.2064E-08  0.3878E-11  0.2932E-06  0.0000E+00 -0.4166E+14
   -1.399989    4.07249  0.0000E+00  0.0000E+00  0.0000E+00  0.0000E+00  0.0000E+00  0.0000E+00
