 1 - depth, m
 2 - temperature, C
 3 - salinity, kg/kg
 4 - turbulent kinetic energy, m**2/s**2
 5 - dissipation rate, m**2/s**3
 6 - kinematic heat conductance, m**2/s
 7 - modulus of horizontal velocity, m/s
 8 - Richardson number, n/d
   -0.000000   10.77296  0.0000E+00  0.1078E-03  0.5901E-04  0.4852E-04  0.9073E-01 -0.1834E+00
   -0.034998   10.80557  0.0000E+00  0.6202E-04  0.1865E-04  0.7240E-04  0.3206E-01 -0.7218E-02
   -0.069996   10.81144  0.0000E+00  0.4514E-04  0.6275E-05  0.7904E-04  0.2263E-01 -0.1141E-01
   -0.104994   10.81554  0.0000E+00  0.3609E-04  0.3095E-05  0.8677E-04  0.1817E-01 -0.2471E-01
   -0.139993   10.81893  0.0000E+00  0.3001E-04  0.1729E-05  0.9574E-04  0.1503E-01 -0.2053E-01
   -0.174992   10.82192  0.0000E+00  0.2564E-04  0.1045E-05  0.1046E-03  0.1254E-01 -0.2678E-01
   -0.209992   10.82461  0.0000E+00  0.2236E-04  0.6812E-06  0.1127E-03  0.1047E-01 -0.3368E-01
   -0.244991   10.82706  0.0000E+00  0.1979E-04  0.4708E-06  0.1197E-03  0.8714E-02 -0.4124E-01
   -0.279991   10.82934  0.0000E+00  0.1761E-04  0.3394E-06  0.1246E-03  0.7181E-02 -0.4462E-01
   -0.314991   10.83153  0.0000E+00  0.1558E-04  0.2501E-06  0.1337E-03  0.5790E-02  0.1703E+01
   -0.349991   10.83354  0.0000E+00  0.1383E-04  0.1886E-06  0.1419E-03  0.4692E-02  0.2451E+00
   -0.384992   10.83541  0.0000E+00  0.1235E-04  0.1454E-06  0.1505E-03  0.3808E-02  0.3491E+01
   -0.419992   10.83716  0.0000E+00  0.1113E-04  0.1148E-06  0.1656E-03  0.3085E-02  0.1357E+03
   -0.454993   10.83877  0.0000E+00  0.1011E-04  0.9286E-07  0.2094E-03  0.2458E-02  0.4120E+03
   -0.489994   10.84017  0.0000E+00  0.9255E-05  0.7690E-07  0.2359E-03  0.1911E-02  0.2594E+02
   -0.524994   10.84142  0.0000E+00  0.8459E-05  0.6414E-07  0.2568E-03  0.1437E-02  0.2506E+02
   -0.559995   10.84249  0.0000E+00  0.7697E-05  0.5337E-07  0.2718E-03  0.1094E-02  0.3008E+02
   -0.594996   10.84338  0.0000E+00  0.6908E-05  0.4320E-07  0.2904E-03  0.8740E-03  0.8417E+03
   -0.629998   10.84407  0.0000E+00  0.6270E-05  0.3542E-07  0.3259E-03  0.7488E-03  0.1092E+03
   -0.664999   10.84470  0.0000E+00  0.5774E-05  0.2969E-07  0.3599E-03  0.6451E-03  0.5204E+02
   -0.700000   10.84526  0.0000E+00  0.5376E-05  0.2533E-07  0.3783E-03  0.5567E-03  0.3078E+02
   -0.735001   10.84579  0.0000E+00  0.5047E-05  0.2193E-07  0.3910E-03  0.4799E-03  0.4790E+02
   -0.770002   10.84630  0.0000E+00  0.4773E-05  0.1925E-07  0.4003E-03  0.4140E-03  0.7462E+01
   -0.805003   10.84679  0.0000E+00  0.4543E-05  0.1711E-07  0.4075E-03  0.3577E-03  0.1429E+01
   -0.840004   10.84728  0.0000E+00  0.4350E-05  0.1540E-07  0.4123E-03  0.3090E-03  0.4123E+01
   -0.875005   10.84776  0.0000E+00  0.4186E-05  0.1403E-07  0.4159E-03  0.2670E-03  0.1722E+01
   -0.910006   10.84825  0.0000E+00  0.4047E-05  0.1292E-07  0.4180E-03  0.2310E-03  0.2196E+01
   -0.945007   10.84875  0.0000E+00  0.3929E-05  0.1205E-07  0.4189E-03  0.1992E-03  0.2681E+01
   -0.980008   10.84926  0.0000E+00  0.3827E-05  0.1137E-07  0.4185E-03  0.1711E-03  0.3354E+01
   -1.015008   10.84978  0.0000E+00  0.3740E-05  0.1086E-07  0.4162E-03  0.1459E-03  0.4266E+01
   -1.050009   10.85032  0.0000E+00  0.3662E-05  0.1048E-07  0.4117E-03  0.1243E-03  0.5780E+01
   -1.085009   10.85087  0.0000E+00  0.3590E-05  0.1023E-07  0.4044E-03  0.1057E-03  0.8058E+01
   -1.120009   10.85144  0.0000E+00  0.3524E-05  0.1012E-07  0.3935E-03  0.8992E-04  0.1169E+02
   -1.155009   10.85204  0.0000E+00  0.3461E-05  0.1016E-07  0.3790E-03  0.7573E-04  0.1638E+02
   -1.190008   10.85268  0.0000E+00  0.3398E-05  0.1039E-07  0.3583E-03  0.6289E-04  0.2289E+02
   -1.225007   10.85339  0.0000E+00  0.3326E-05  0.1094E-07  0.3333E-03  0.5097E-04  0.3219E+02
   -1.260006   10.85416  0.0000E+00  0.3227E-05  0.1219E-07  0.2815E-03  0.4052E-04  0.1322E+02
   -1.295005   10.85512  0.0000E+00  0.3034E-05  0.1568E-07  0.2558E-03  0.3129E-04  0.2353E+03
   -1.330004   10.85612  0.0000E+00  0.2659E-05  0.2647E-07  0.1205E-03  0.2587E-04  0.8045E+05
   -1.365002   10.86075  0.0000E+00  0.1698E-05  0.7082E-07  0.3194E-04  0.1758E-04 -0.1721E+07
   -1.400000   10.87053  0.0000E+00  0.0000E+00  0.0000E+00  0.0000E+00  0.2037E-04  0.0000E+00
