 1 - depth, m
 2 - temperature, C
 3 - salinity, kg/kg
 4 - turbulent kinetic energy, m**2/s**2
 5 - dissipation rate, m**2/s**3
 6 - kinematic heat conductance, m**2/s
 7 - modulus of horizontal velocity, m/s
 8 - Richardson number, n/d
   -0.000000    0.00000  0.0000E+00  0.4702E-13  0.1132E-15  0.1000E-09  0.0000E+00  0.1547E+17
   -0.034997    0.23981  0.0000E+00  0.4702E-13  0.1132E-15  0.1000E-09  0.0000E+00  0.1385E+17
   -0.069994    0.46921  0.0000E+00  0.4702E-13  0.1132E-15  0.1000E-09  0.0000E+00  0.1238E+17
   -0.104991    0.68868  0.0000E+00  0.4702E-13  0.1132E-15  0.1000E-09  0.0000E+00  0.1099E+17
   -0.139989    0.89725  0.0000E+00  0.4702E-13  0.1132E-15  0.1000E-09  0.0000E+00  0.9701E+16
   -0.174987    1.09455  0.0000E+00  0.4702E-13  0.1132E-15  0.1000E-09  0.0000E+00  0.8550E+16
   -0.209985    1.28093  0.0000E+00  0.4702E-13  0.1132E-15  0.1000E-09  0.0000E+00  0.7519E+16
   -0.244983    1.45672  0.0000E+00  0.4702E-13  0.1132E-15  0.1000E-09  0.0000E+00  0.6598E+16
   -0.279982    1.62221  0.0000E+00  0.4702E-13  0.1132E-15  0.1000E-09  0.0000E+00  0.5777E+16
   -0.314981    1.77768  0.0000E+00  0.4702E-13  0.1132E-15  0.1000E-09  0.0000E+00  0.5066E+16
   -0.349980    1.92402  0.0000E+00  0.4702E-13  0.1132E-15  0.1000E-09  0.0000E+00  0.4425E+16
   -0.384979    2.06123  0.0000E+00  0.4702E-13  0.1132E-15  0.1000E-09  0.0000E+00  0.3844E+16
   -0.419978    2.18921  0.0000E+00  0.4702E-13  0.1132E-15  0.1000E-09  0.0000E+00  0.3350E+16
   -0.454978    2.30891  0.0000E+00  0.4702E-13  0.1132E-15  0.1000E-09  0.0000E+00  0.2936E+16
   -0.489977    2.42157  0.0000E+00  0.4702E-13  0.1132E-15  0.1000E-09  0.0000E+00  0.2577E+16
   -0.524977    2.52782  0.0000E+00  0.4702E-13  0.1132E-15  0.1000E-09  0.0000E+00  0.2310E+16
   -0.559977    2.63028  0.0000E+00  0.4702E-13  0.1132E-15  0.1000E-09  0.0000E+00  0.2074E+16
   -0.594977    2.72951  0.0000E+00  0.4702E-13  0.1132E-15  0.1000E-09  0.0000E+00  0.1843E+16
   -0.629977    2.82495  0.0000E+00  0.4702E-13  0.1132E-15  0.1000E-09  0.0000E+00  0.1576E+16
   -0.664977    2.91341  0.0000E+00  0.4702E-13  0.1132E-15  0.1000E-09  0.0000E+00  0.1341E+16
   -0.699977    2.99503  0.0000E+00  0.4702E-13  0.1132E-15  0.1000E-09  0.0000E+00  0.1136E+16
   -0.734977    3.06990  0.0000E+00  0.4702E-13  0.1132E-15  0.1000E-09  0.0000E+00  0.9708E+15
   -0.769977    3.13921  0.0000E+00  0.4702E-13  0.1132E-15  0.1000E-09  0.0000E+00  0.8579E+15
   -0.804977    3.20563  0.0000E+00  0.4702E-13  0.1132E-15  0.1000E-09  0.0000E+00  0.7555E+15
   -0.839976    3.26928  0.0000E+00  0.4702E-13  0.1132E-15  0.1000E-09  0.0000E+00  0.6633E+15
   -0.874976    3.33029  0.0000E+00  0.4702E-13  0.1132E-15  0.1000E-09  0.0000E+00  0.5808E+15
   -0.909976    3.38886  0.0000E+00  0.4702E-13  0.1132E-15  0.1000E-09  0.0000E+00  0.5032E+15
   -0.944976    3.44477  0.0000E+00  0.4702E-13  0.1132E-15  0.1000E-09  0.0000E+00  0.4328E+15
   -0.979975    3.49799  0.0000E+00  0.4702E-13  0.1132E-15  0.1000E-09  0.0000E+00  0.3698E+15
   -1.014974    3.54861  0.0000E+00  0.4702E-13  0.1132E-15  0.1000E-09  0.0000E+00  0.3161E+15
   -1.049974    3.59709  0.0000E+00  0.4702E-13  0.1132E-15  0.1000E-09  0.0000E+00  0.2693E+15
   -1.084973    3.64382  0.0000E+00  0.1735E-12  0.1929E-15  0.1000E-09  0.0000E+00  0.2350E+15
   -1.119972    3.69059  0.0000E+00  0.6350E-12  0.6397E-15  0.1000E-09  0.0000E+00  0.1974E+15
   -1.154970    3.73661  0.0000E+00  0.2219E-11  0.2212E-14  0.1000E-09  0.0000E+00  0.1628E+15
   -1.189969    3.78224  0.0000E+00  0.7735E-11  0.7732E-14  0.1298E-09  0.0000E+00  0.1318E+15
   -1.224967    3.82863  0.0000E+00  0.2846E-10  0.2879E-13  0.5735E-09  0.0000E+00  0.1071E+15
   -1.259965    3.88041  0.0000E+00  0.1122E-09  0.1160E-12  0.3044E-08  0.0000E+00  0.7513E+14
   -1.294962    3.94586  0.0000E+00  0.5111E-09  0.5527E-12  0.4974E-07  0.0000E+00  0.3871E+13
   -1.329960    4.02033  0.0000E+00  0.1611E-08  0.2221E-11  0.3882E-06  0.0000E+00 -0.2594E+14
   -1.364957    4.05318  0.0000E+00  0.2419E-08  0.5717E-11  0.3267E-06  0.0000E+00 -0.7455E+14
   -1.399953    4.10464  0.0000E+00  0.0000E+00  0.0000E+00  0.0000E+00  0.0000E+00  0.0000E+00
