 1 - depth, m
 2 - temperature, C
 3 - salinity, kg/kg
 4 - turbulent kinetic energy, m**2/s**2
 5 - dissipation rate, m**2/s**3
 6 - kinematic heat conductance, m**2/s
 7 - modulus of horizontal velocity, m/s
 8 - Richardson number, n/d
   -0.000000    1.60703  0.0000E+00  0.8106E-05  0.3679E-06  0.1619E-04  0.1711E-01  0.9766E-02
   -0.034998    1.62881  0.0000E+00  0.6272E-05  0.1571E-06  0.2265E-04  0.1160E-01  0.2345E-01
   -0.069996    1.64370  0.0000E+00  0.4768E-05  0.8252E-07  0.2437E-04  0.8679E-02  0.4553E-01
   -0.104994    1.65706  0.0000E+00  0.3541E-05  0.4683E-07  0.2280E-04  0.6706E-02  0.8403E-01
   -0.139993    1.67100  0.0000E+00  0.2532E-05  0.2719E-07  0.1880E-04  0.5232E-02  0.1596E+00
   -0.174992    1.68831  0.0000E+00  0.1696E-05  0.1552E-07  0.1314E-04  0.4058E-02  0.3454E+00
   -0.209992    1.72070  0.0000E+00  0.9933E-06  0.7994E-08  0.7519E-05  0.3042E-02  0.1071E+01
   -0.244991    2.00811  0.0000E+00  0.5897E-06  0.3795E-08  0.3651E-05  0.1898E-02  0.2566E+01
   -0.279991    2.60754  0.0000E+00  0.3884E-06  0.1689E-08  0.2246E-04  0.9756E-03  0.1528E+04
   -0.314991    2.99706  0.0000E+00  0.3093E-06  0.6813E-09  0.4732E-04  0.3148E-03  0.2362E+03
   -0.349991    3.32264  0.0000E+00  0.3152E-06  0.3778E-09  0.7767E-04  0.9334E-04  0.2591E+04
   -0.384992    3.55956  0.0000E+00  0.3436E-06  0.3025E-09  0.1139E-03  0.2881E-04  0.7241E+04
   -0.419992    3.73593  0.0000E+00  0.3767E-06  0.2927E-09  0.1453E-03  0.1269E-04  0.1077E+06
   -0.454993    3.89792  0.0000E+00  0.4062E-06  0.2940E-09  0.1767E-03  0.7886E-05  0.1001E+07
   -0.489993    4.04848  0.0000E+00  0.4286E-06  0.2957E-09  0.2070E-03  0.5519E-05  0.8791E+07
   -0.524994    4.16229  0.0000E+00  0.4427E-06  0.2958E-09  0.2338E-03  0.3889E-05  0.1220E+09
   -0.559995    4.21197  0.0000E+00  0.4495E-06  0.2942E-09  0.2530E-03  0.2799E-05  0.1273E+10
   -0.594996    4.21594  0.0000E+00  0.4568E-06  0.2926E-09  0.2604E-03  0.2139E-05  0.5147E+10
   -0.629997    4.21764  0.0000E+00  0.4638E-06  0.2916E-09  0.2658E-03  0.1793E-05  0.2990E+11
   -0.664999    4.21925  0.0000E+00  0.4702E-06  0.2912E-09  0.2690E-03  0.1506E-05  0.1397E+11
   -0.700000    4.22082  0.0000E+00  0.4761E-06  0.2914E-09  0.2725E-03  0.1266E-05  0.1492E+11
   -0.735001    4.22235  0.0000E+00  0.4814E-06  0.2921E-09  0.2742E-03  0.1064E-05  0.1735E+11
   -0.770002    4.22384  0.0000E+00  0.4863E-06  0.2934E-09  0.2763E-03  0.8963E-06  0.2526E+11
   -0.805003    4.22530  0.0000E+00  0.4908E-06  0.2952E-09  0.2759E-03  0.7564E-06  0.3459E+11
   -0.840004    4.22674  0.0000E+00  0.4948E-06  0.2976E-09  0.2782E-03  0.6389E-06  0.3696E+11
   -0.875005    4.22815  0.0000E+00  0.4984E-06  0.3007E-09  0.2749E-03  0.5398E-06  0.2674E+11
   -0.910006    4.22957  0.0000E+00  0.5015E-06  0.3045E-09  0.2733E-03  0.4566E-06  0.2348E+11
   -0.945007    4.23098  0.0000E+00  0.5041E-06  0.3090E-09  0.2707E-03  0.3844E-06  0.3053E+11
   -0.980008    4.23240  0.0000E+00  0.5063E-06  0.3145E-09  0.2668E-03  0.3212E-06  0.5430E+11
   -1.015008    4.23384  0.0000E+00  0.5079E-06  0.3211E-09  0.2628E-03  0.2655E-06  0.8810E+11
   -1.050008    4.23529  0.0000E+00  0.5091E-06  0.3294E-09  0.2543E-03  0.2180E-06  0.1200E+12
   -1.085009    4.23679  0.0000E+00  0.5097E-06  0.3398E-09  0.2466E-03  0.1774E-06  0.3665E+11
   -1.120009    4.23832  0.0000E+00  0.5096E-06  0.3528E-09  0.2416E-03  0.1433E-06 -0.8337E+11
   -1.155008    4.23990  0.0000E+00  0.5089E-06  0.3693E-09  0.2238E-03  0.1133E-06 -0.1527E+12
   -1.190008    4.24159  0.0000E+00  0.5072E-06  0.3906E-09  0.2127E-03  0.8703E-07 -0.2051E+12
   -1.225007    4.24338  0.0000E+00  0.5043E-06  0.4216E-09  0.1961E-03  0.6407E-07 -0.2657E+12
   -1.260006    4.24534  0.0000E+00  0.4990E-06  0.4751E-09  0.1712E-03  0.4566E-07 -0.3180E+12
   -1.295005    4.24759  0.0000E+00  0.4862E-06  0.6074E-09  0.1304E-03  0.3174E-07 -0.7276E+12
   -1.330004    4.25055  0.0000E+00  0.4603E-06  0.9054E-09  0.8836E-04  0.2322E-07 -0.1761E+13
   -1.365002    4.25516  0.0000E+00  0.3241E-06  0.3063E-08  0.5475E-05  0.1589E-07 -0.6553E+14
   -1.400000    4.33024  0.0000E+00  0.0000E+00  0.0000E+00  0.0000E+00  0.1612E-07  0.0000E+00
