 1 - depth, m
 2 - temperature, C
 3 - salinity, kg/kg
 4 - turbulent kinetic energy, m**2/s**2
 5 - dissipation rate, m**2/s**3
 6 - kinematic heat conductance, m**2/s
 7 - modulus of horizontal velocity, m/s
 8 - Richardson number, n/d
   -0.000000   15.60353  0.0000E+00  0.1964E-04  0.2703E-05  0.2030E-04  0.2354E-01 -0.5924E+00
   -0.034998   15.63372  0.0000E+00  0.1432E-04  0.8372E-06  0.5483E-04  0.1205E-01  0.3551E+02
   -0.069996   15.64300  0.0000E+00  0.1207E-04  0.4098E-06  0.8434E-04  0.8836E-02  0.6671E+01
   -0.104995   15.64883  0.0000E+00  0.1064E-04  0.2405E-06  0.1159E-03  0.6909E-02  0.3700E+02
   -0.139993   15.65305  0.0000E+00  0.9636E-05  0.1582E-06  0.1494E-03  0.5561E-02  0.6978E+01
   -0.174992   15.65629  0.0000E+00  0.8898E-05  0.1126E-06  0.1811E-03  0.4549E-02  0.3268E+01
   -0.209992   15.65889  0.0000E+00  0.8331E-05  0.8488E-07  0.2146E-03  0.3753E-02  0.3025E+01
   -0.244991   15.66102  0.0000E+00  0.7878E-05  0.6683E-07  0.2594E-03  0.3106E-02  0.7158E+01
   -0.279991   15.66263  0.0000E+00  0.7512E-05  0.5462E-07  0.3415E-03  0.2570E-02  0.2364E+02
   -0.314991   15.66375  0.0000E+00  0.7195E-05  0.4571E-07  0.3757E-03  0.2124E-02  0.2734E+02
   -0.349991   15.66468  0.0000E+00  0.6910E-05  0.3879E-07  0.4075E-03  0.1746E-02  0.9514E+01
   -0.384992   15.66548  0.0000E+00  0.6662E-05  0.3340E-07  0.4319E-03  0.1433E-02  0.6251E+01
   -0.419992   15.66621  0.0000E+00  0.6451E-05  0.2919E-07  0.4511E-03  0.1168E-02  0.2692E+01
   -0.454993   15.66689  0.0000E+00  0.6272E-05  0.2590E-07  0.4700E-03  0.9332E-03  0.2609E+01
   -0.489994   15.66753  0.0000E+00  0.6117E-05  0.2333E-07  0.4865E-03  0.7231E-03  0.2407E+01
   -0.524995   15.66813  0.0000E+00  0.5974E-05  0.2115E-07  0.5233E-03  0.5378E-03  0.1948E+01
   -0.559996   15.66870  0.0000E+00  0.5840E-05  0.1925E-07  0.5733E-03  0.4037E-03  0.1986E+01
   -0.594997   15.66924  0.0000E+00  0.5712E-05  0.1751E-07  0.6169E-03  0.3195E-03  0.2478E+01
   -0.629998   15.66975  0.0000E+00  0.5617E-05  0.1626E-07  0.6309E-03  0.2760E-03  0.4237E+01
   -0.664999   15.67024  0.0000E+00  0.5540E-05  0.1531E-07  0.6434E-03  0.2433E-03  0.4537E+01
   -0.700000   15.67071  0.0000E+00  0.5471E-05  0.1453E-07  0.6565E-03  0.2141E-03  0.4912E+01
   -0.735001   15.67116  0.0000E+00  0.5409E-05  0.1389E-07  0.6671E-03  0.1888E-03  0.5412E+01
   -0.770002   15.67160  0.0000E+00  0.5352E-05  0.1337E-07  0.6749E-03  0.1671E-03  0.6040E+01
   -0.805004   15.67201  0.0000E+00  0.5299E-05  0.1296E-07  0.6799E-03  0.1486E-03  0.6851E+01
   -0.840005   15.67242  0.0000E+00  0.5248E-05  0.1264E-07  0.6819E-03  0.1328E-03  0.7828E+01
   -0.875006   15.67282  0.0000E+00  0.5200E-05  0.1239E-07  0.6811E-03  0.1192E-03  0.8965E+01
   -0.910006   15.67320  0.0000E+00  0.5152E-05  0.1221E-07  0.6776E-03  0.1075E-03  0.1042E+02
   -0.945007   15.67358  0.0000E+00  0.5103E-05  0.1209E-07  0.6711E-03  0.9699E-04  0.1201E+02
   -0.980008   15.67395  0.0000E+00  0.5053E-05  0.1204E-07  0.6610E-03  0.8726E-04  0.1390E+02
   -1.015008   15.67432  0.0000E+00  0.5001E-05  0.1206E-07  0.6468E-03  0.7811E-04  0.1635E+02
   -1.050009   15.67469  0.0000E+00  0.4944E-05  0.1216E-07  0.6277E-03  0.6964E-04  0.2043E+02
   -1.085009   15.67506  0.0000E+00  0.4881E-05  0.1237E-07  0.6036E-03  0.6179E-04  0.2614E+02
   -1.120009   15.67544  0.0000E+00  0.4813E-05  0.1274E-07  0.5721E-03  0.5456E-04  0.3478E+02
   -1.155009   15.67583  0.0000E+00  0.4738E-05  0.1331E-07  0.5402E-03  0.4762E-04  0.4512E+02
   -1.190008   15.67624  0.0000E+00  0.4655E-05  0.1425E-07  0.4900E-03  0.4099E-04  0.5538E+02
   -1.225008   15.67669  0.0000E+00  0.4552E-05  0.1591E-07  0.4565E-03  0.3445E-04  0.5457E+02
   -1.260007   15.67719  0.0000E+00  0.4400E-05  0.1938E-07  0.3444E-03  0.2827E-04 -0.4742E+04
   -1.295006   15.67807  0.0000E+00  0.4103E-05  0.2848E-07  0.3481E-03  0.2217E-04  0.2191E+05
   -1.330004   15.67865  0.0000E+00  0.3523E-05  0.5690E-07  0.1333E-03  0.1907E-04  0.5989E+05
   -1.365002   15.68426  0.0000E+00  0.2278E-05  0.1506E-06  0.5211E-04  0.1249E-04 -0.1985E+06
   -1.400000   15.68998  0.0000E+00  0.0000E+00  0.0000E+00  0.0000E+00  0.1529E-04  0.0000E+00
