 1 - depth, m
 2 - temperature, C
 3 - salinity, kg/kg
 4 - turbulent kinetic energy, m**2/s**2
 5 - dissipation rate, m**2/s**3
 6 - kinematic heat conductance, m**2/s
 7 - modulus of horizontal velocity, m/s
 8 - Richardson number, n/d
   -0.000000    0.00000  0.0000E+00  0.1828E-03  0.1997E-03  0.5926E-04  0.1580E+00  0.1109E-01
   -0.034996    0.00848  0.0000E+00  0.1166E-03  0.7497E-04  0.8628E-04  0.5829E-01  0.6018E-02
   -0.069993    0.01360  0.0000E+00  0.8660E-04  0.2487E-04  0.1154E-03  0.3758E-01  0.3354E-04
   -0.104990    0.01667  0.0000E+00  0.7199E-04  0.1273E-04  0.1313E-03  0.2952E-01  0.3717E-02
   -0.139987    0.01900  0.0000E+00  0.6254E-04  0.7486E-05  0.1457E-03  0.2451E-01  0.5582E-02
   -0.174984    0.02095  0.0000E+00  0.5564E-04  0.4690E-05  0.1589E-03  0.2081E-01  0.6504E-02
   -0.209982    0.02265  0.0000E+00  0.5030E-04  0.3062E-05  0.1699E-03  0.1788E-01  0.9043E-02
   -0.244980    0.02422  0.0000E+00  0.4594E-04  0.2083E-05  0.1782E-03  0.1539E-01  0.1366E-01
   -0.279978    0.02574  0.0000E+00  0.4208E-04  0.1475E-05  0.1819E-03  0.1318E-01  0.3439E-01
   -0.314977    0.02743  0.0000E+00  0.3830E-04  0.1082E-05  0.1905E-03  0.1103E-01  0.1246E+00
   -0.349976    0.02901  0.0000E+00  0.3492E-04  0.8225E-06  0.1961E-03  0.9371E-02  0.1404E+01
   -0.384974    0.03056  0.0000E+00  0.3193E-04  0.6439E-06  0.1995E-03  0.8003E-02 -0.7595E+02
   -0.419973    0.03202  0.0000E+00  0.2933E-04  0.5189E-06  0.1986E-03  0.6847E-02  0.2716E+03
   -0.454972    0.03376  0.0000E+00  0.2699E-04  0.4281E-06  0.1953E-03  0.5779E-02  0.2593E+04
   -0.489972    0.03621  0.0000E+00  0.2484E-04  0.3602E-06  0.1926E-03  0.4772E-02  0.4799E+05
   -0.524971    0.03953  0.0000E+00  0.2271E-04  0.3046E-06  0.2023E-03  0.3865E-02  0.7345E+06
   -0.559970    0.04106  0.0000E+00  0.2060E-04  0.2571E-06  0.2086E-03  0.3202E-02  0.3116E+07
   -0.594970    0.04211  0.0000E+00  0.1830E-04  0.2113E-06  0.2080E-03  0.2760E-02  0.1103E+07
   -0.629969    0.04295  0.0000E+00  0.1625E-04  0.1739E-06  0.1971E-03  0.2491E-02  0.1990E+08
   -0.664969    0.04388  0.0000E+00  0.1447E-04  0.1443E-06  0.1863E-03  0.2233E-02  0.1557E+08
   -0.699969    0.04492  0.0000E+00  0.1292E-04  0.1206E-06  0.1757E-03  0.1987E-02  0.1146E+08
   -0.734968    0.04606  0.0000E+00  0.1156E-04  0.1013E-06  0.1653E-03  0.1758E-02  0.9259E+07
   -0.769968    0.04730  0.0000E+00  0.1035E-04  0.8543E-07  0.1550E-03  0.1548E-02  0.1159E+08
   -0.804967    0.04866  0.0000E+00  0.9270E-05  0.7234E-07  0.1443E-03  0.1358E-02  0.2861E+08
   -0.839967    0.05016  0.0000E+00  0.8311E-05  0.6150E-07  0.1337E-03  0.1186E-02  0.2771E+08
   -0.874966    0.05185  0.0000E+00  0.7454E-05  0.5247E-07  0.1234E-03  0.1032E-02  0.1191E+09
   -0.909966    0.05372  0.0000E+00  0.6687E-05  0.4494E-07  0.1125E-03  0.8947E-03  0.3086E+08
   -0.944965    0.05600  0.0000E+00  0.6006E-05  0.3870E-07  0.1015E-03  0.7699E-03  0.6487E+08
   -0.979964    0.05905  0.0000E+00  0.5398E-05  0.3354E-07  0.8976E-04  0.6554E-03  0.1174E+10
   -1.014963    0.06404  0.0000E+00  0.4854E-05  0.2924E-07  0.7986E-04  0.5495E-03  0.5053E+11
   -1.049962    0.07074  0.0000E+00  0.4369E-05  0.2565E-07  0.7247E-04  0.4576E-03  0.4373E+12
   -1.084960    0.07833  0.0000E+00  0.3928E-05  0.2263E-07  0.6593E-04  0.3806E-03  0.2087E+14
   -1.119959    0.10314  0.0000E+00  0.3531E-05  0.2015E-07  0.5917E-04  0.3166E-03  0.1567E+15
   -1.154957    0.16784  0.0000E+00  0.3193E-05  0.1822E-07  0.5385E-04  0.2606E-03  0.5553E+15
   -1.189955    0.28816  0.0000E+00  0.2914E-05  0.1686E-07  0.4904E-04  0.2109E-03  0.1280E+16
   -1.224953    0.47309  0.0000E+00  0.2687E-05  0.1611E-07  0.4415E-04  0.1681E-03  0.2809E+16
   -1.259950    0.67121  0.0000E+00  0.2473E-05  0.1616E-07  0.3845E-04  0.1322E-03  0.4104E+16
   -1.294947    0.83372  0.0000E+00  0.2198E-05  0.1845E-07  0.3364E-04  0.1045E-03  0.1535E+16
   -1.329944    0.88166  0.0000E+00  0.1814E-05  0.2617E-07  0.1798E-04  0.8550E-04  0.3300E+16
   -1.364941    0.97905  0.0000E+00  0.1017E-05  0.6682E-07  0.2979E-05  0.6685E-04  0.4499E+16
   -1.399937    1.13414  0.0000E+00  0.0000E+00  0.0000E+00  0.0000E+00  0.7053E-04  0.0000E+00
