 1 - depth, m
 2 - temperature, C
 3 - salinity, kg/kg
 4 - turbulent kinetic energy, m**2/s**2
 5 - dissipation rate, m**2/s**3
 6 - kinematic heat conductance, m**2/s
 7 - modulus of horizontal velocity, m/s
 8 - Richardson number, n/d
   -0.000000    8.12511  0.0000E+00  0.6535E-05  0.2735E-06  0.1523E-04  0.1237E-01 -0.1884E-01
   -0.034998    8.14360  0.0000E+00  0.5472E-05  0.1167E-06  0.2656E-04  0.7571E-02 -0.4600E-01
   -0.069996    8.15382  0.0000E+00  0.4659E-05  0.6491E-07  0.3727E-04  0.5257E-02 -0.8719E-01
   -0.104994    8.16089  0.0000E+00  0.4057E-05  0.4093E-07  0.4894E-04  0.3839E-02 -0.1459E+00
   -0.139993    8.16616  0.0000E+00  0.3614E-05  0.2797E-07  0.6617E-04  0.2882E-02 -0.1350E+00
   -0.174992    8.17007  0.0000E+00  0.3295E-05  0.2051E-07  0.1070E-03  0.2207E-02  0.7441E+02
   -0.209992    8.17281  0.0000E+00  0.3066E-05  0.1591E-07  0.1324E-03  0.1738E-02  0.3193E+02
   -0.244991    8.17500  0.0000E+00  0.2896E-05  0.1282E-07  0.1676E-03  0.1372E-02  0.2178E+04
   -0.279991    8.17662  0.0000E+00  0.2775E-05  0.1076E-07  0.2277E-03  0.1083E-02  0.3703E+02
   -0.314991    8.17775  0.0000E+00  0.2683E-05  0.9292E-08  0.2538E-03  0.8616E-03  0.2484E+01
   -0.349991    8.17873  0.0000E+00  0.2609E-05  0.8143E-08  0.2711E-03  0.6827E-03  0.1907E+01
   -0.384991    8.17965  0.0000E+00  0.2550E-05  0.7260E-08  0.2878E-03  0.5413E-03  0.1587E+01
   -0.419992    8.18050  0.0000E+00  0.2505E-05  0.6582E-08  0.3038E-03  0.4300E-03  0.1505E+01
   -0.454992    8.18131  0.0000E+00  0.2470E-05  0.6056E-08  0.3191E-03  0.3363E-03  0.1457E+01
   -0.489993    8.18208  0.0000E+00  0.2442E-05  0.5650E-08  0.3335E-03  0.2560E-03  0.1337E+01
   -0.524994    8.18282  0.0000E+00  0.2418E-05  0.5320E-08  0.3483E-03  0.1893E-03  0.1003E+01
   -0.559995    8.18350  0.0000E+00  0.2398E-05  0.5054E-08  0.3604E-03  0.1451E-03  0.7513E+00
   -0.594996    8.18411  0.0000E+00  0.2380E-05  0.4800E-08  0.3706E-03  0.1213E-03  0.9737E+00
   -0.629997    8.18466  0.0000E+00  0.2365E-05  0.4582E-08  0.3822E-03  0.1070E-03  0.2066E+01
   -0.664998    8.18520  0.0000E+00  0.2354E-05  0.4400E-08  0.3932E-03  0.9440E-04  0.2387E+01
   -0.699999    8.18572  0.0000E+00  0.2346E-05  0.4247E-08  0.4035E-03  0.8316E-04  0.2753E+01
   -0.735001    8.18624  0.0000E+00  0.2339E-05  0.4118E-08  0.4129E-03  0.7321E-04  0.3232E+01
   -0.770002    8.18674  0.0000E+00  0.2334E-05  0.4010E-08  0.4214E-03  0.6447E-04  0.3850E+01
   -0.805003    8.18723  0.0000E+00  0.2330E-05  0.3921E-08  0.4288E-03  0.5679E-04  0.4656E+01
   -0.840004    8.18772  0.0000E+00  0.2326E-05  0.3849E-08  0.4351E-03  0.5001E-04  0.5671E+01
   -0.875005    8.18820  0.0000E+00  0.2323E-05  0.3792E-08  0.4398E-03  0.4402E-04  0.6900E+01
   -0.910006    8.18868  0.0000E+00  0.2319E-05  0.3751E-08  0.4430E-03  0.3873E-04  0.8502E+01
   -0.945006    8.18916  0.0000E+00  0.2316E-05  0.3725E-08  0.4443E-03  0.3396E-04  0.1032E+02
   -0.980007    8.18965  0.0000E+00  0.2312E-05  0.3716E-08  0.4436E-03  0.2963E-04  0.1257E+02
   -1.015008    8.19014  0.0000E+00  0.2306E-05  0.3723E-08  0.4408E-03  0.2568E-04  0.1550E+02
   -1.050008    8.19064  0.0000E+00  0.2300E-05  0.3749E-08  0.4353E-03  0.2216E-04  0.2031E+02
   -1.085008    8.19115  0.0000E+00  0.2292E-05  0.3798E-08  0.4269E-03  0.1903E-04  0.2717E+02
   -1.120008    8.19167  0.0000E+00  0.2282E-05  0.3874E-08  0.4152E-03  0.1627E-04  0.3762E+02
   -1.155008    8.19222  0.0000E+00  0.2269E-05  0.3986E-08  0.3997E-03  0.1374E-04  0.5016E+02
   -1.190007    8.19279  0.0000E+00  0.2254E-05  0.4147E-08  0.3799E-03  0.1141E-04  0.6667E+02
   -1.225007    8.19340  0.0000E+00  0.2233E-05  0.4400E-08  0.3528E-03  0.9257E-05  0.8896E+02
   -1.260006    8.19407  0.0000E+00  0.2200E-05  0.4856E-08  0.3142E-03  0.7426E-05  0.1398E+03
   -1.295005    8.19482  0.0000E+00  0.2130E-05  0.6001E-08  0.2376E-03  0.5893E-05  0.3663E+03
   -1.330003    8.19581  0.0000E+00  0.2007E-05  0.8444E-08  0.1805E-03  0.4714E-05  0.4353E+04
   -1.365001    8.19714  0.0000E+00  0.1383E-05  0.2653E-07  0.1163E-04  0.3834E-05 -0.5099E+06
   -1.399999    8.21800  0.0000E+00  0.0000E+00  0.0000E+00  0.0000E+00  0.3832E-05  0.0000E+00
