 1 - depth, m
 2 - temperature, C
 3 - salinity, kg/kg
 4 - turbulent kinetic energy, m**2/s**2
 5 - dissipation rate, m**2/s**3
 6 - kinematic heat conductance, m**2/s
 7 - modulus of horizontal velocity, m/s
 8 - Richardson number, n/d
   -0.000000    0.00000  0.0000E+00  0.4702E-13  0.1132E-15  0.1000E-09  0.0000E+00  0.1476E+17
   -0.034998    0.22839  0.0000E+00  0.4702E-13  0.1132E-15  0.1000E-09  0.0000E+00  0.1403E+17
   -0.069996    0.46003  0.0000E+00  0.9965E-13  0.1132E-15  0.1000E-09  0.0000E+00  0.1323E+17
   -0.104994    0.69436  0.0000E+00  0.2966E-12  0.1132E-15  0.1000E-09  0.0000E+00  0.1222E+17
   -0.139993    0.92760  0.0000E+00  0.6771E-12  0.1218E-15  0.1000E-09  0.0000E+00  0.1111E+17
   -0.174992    1.15724  0.0000E+00  0.1259E-11  0.1524E-15  0.1000E-09  0.0000E+00  0.1002E+17
   -0.209992    1.38266  0.0000E+00  0.2093E-11  0.2124E-15  0.1000E-09  0.0000E+00  0.8970E+16
   -0.244991    1.60325  0.0000E+00  0.3279E-11  0.3061E-15  0.1000E-09  0.0000E+00  0.7959E+16
   -0.279991    1.81851  0.0000E+00  0.4976E-11  0.4447E-15  0.1000E-09  0.0000E+00  0.6998E+16
   -0.314991    2.02800  0.0000E+00  0.7451E-11  0.6488E-15  0.1000E-09  0.0000E+00  0.6063E+16
   -0.349991    2.23029  0.0000E+00  0.1113E-10  0.9516E-15  0.1000E-09  0.0000E+00  0.5184E+16
   -0.384991    2.42454  0.0000E+00  0.1659E-10  0.1399E-14  0.1000E-09  0.0000E+00  0.4369E+16
   -0.419992    2.60999  0.0000E+00  0.2464E-10  0.2053E-14  0.1000E-09  0.0000E+00  0.3666E+16
   -0.454992    2.78811  0.0000E+00  0.3648E-10  0.3008E-14  0.1000E-09  0.0000E+00  0.3051E+16
   -0.489993    2.96014  0.0000E+00  0.5394E-10  0.4402E-14  0.1000E-09  0.0000E+00  0.2478E+16
   -0.524994    3.12525  0.0000E+00  0.8252E-10  0.6666E-14  0.1000E-09  0.0000E+00  0.1921E+16
   -0.559995    3.27979  0.0000E+00  0.1323E-09  0.1058E-13  0.1000E-09  0.0000E+00  0.1395E+16
   -0.594996    3.41807  0.0000E+00  0.2254E-09  0.1783E-13  0.1000E-09  0.0000E+00  0.9480E+15
   -0.629997    3.53596  0.0000E+00  0.3585E-09  0.2814E-13  0.1159E-09  0.0000E+00  0.6778E+15
   -0.664998    3.64455  0.0000E+00  0.5451E-09  0.4247E-13  0.2456E-09  0.0000E+00  0.4528E+15
   -0.699999    3.74287  0.0000E+00  0.8123E-09  0.6282E-13  0.6061E-09  0.0000E+00  0.2728E+15
   -0.735001    3.82963  0.0000E+00  0.1202E-08  0.9230E-13  0.1735E-08  0.0000E+00  0.1415E+15
   -0.770002    3.90574  0.0000E+00  0.1771E-08  0.1350E-12  0.8132E-08  0.0000E+00  0.4941E+14
   -0.805003    3.97397  0.0000E+00  0.2260E-08  0.1740E-12  0.4664E-05  0.0000E+00  0.3218E+13
   -0.840004    3.99266  0.0000E+00  0.2484E-08  0.1934E-12  0.1155E-04  0.0000E+00 -0.8252E+11
   -0.875005    3.99355  0.0000E+00  0.2638E-08  0.2085E-12  0.1258E-04  0.0000E+00 -0.8776E+11
   -0.910006    3.99435  0.0000E+00  0.2781E-08  0.2242E-12  0.1334E-04  0.0000E+00 -0.9308E+11
   -0.945006    3.99510  0.0000E+00  0.2912E-08  0.2408E-12  0.1387E-04  0.0000E+00 -0.9899E+11
   -0.980007    3.99583  0.0000E+00  0.3033E-08  0.2586E-12  0.1419E-04  0.0000E+00 -0.1060E+12
   -1.015008    3.99654  0.0000E+00  0.3146E-08  0.2782E-12  0.1429E-04  0.0000E+00 -0.1146E+12
   -1.050008    3.99725  0.0000E+00  0.3251E-08  0.3007E-12  0.1416E-04  0.0000E+00 -0.1256E+12
   -1.085008    3.99798  0.0000E+00  0.3349E-08  0.3273E-12  0.1377E-04  0.0000E+00 -0.1399E+12
   -1.120008    3.99873  0.0000E+00  0.3439E-08  0.3594E-12  0.1309E-04  0.0000E+00 -0.1594E+12
   -1.155008    3.99954  0.0000E+00  0.3517E-08  0.3990E-12  0.1211E-04  0.0000E+00 -0.1872E+12
   -1.190007    4.00043  0.0000E+00  0.3578E-08  0.4498E-12  0.1081E-04  0.0000E+00 -0.2296E+12
   -1.225007    4.00144  0.0000E+00  0.3619E-08  0.5246E-12  0.9225E-05  0.0000E+00 -0.3034E+12
   -1.260006    4.00269  0.0000E+00  0.3630E-08  0.6581E-12  0.7173E-05  0.0000E+00 -0.4693E+12
   -1.295004    4.00443  0.0000E+00  0.3550E-08  0.1018E-11  0.4080E-05  0.0000E+00 -0.1126E+13
   -1.330003    4.00806  0.0000E+00  0.3237E-08  0.1897E-11  0.1542E-05  0.0000E+00 -0.4230E+13
   -1.365001    4.01814  0.0000E+00  0.2569E-08  0.4599E-11  0.3444E-06  0.0000E+00 -0.3438E+14
   -1.399999    4.05983  0.0000E+00  0.0000E+00  0.0000E+00  0.0000E+00  0.0000E+00  0.0000E+00
