 1 - depth, m
 2 - temperature, C
 3 - salinity, kg/kg
 4 - turbulent kinetic energy, m**2/s**2
 5 - dissipation rate, m**2/s**3
 6 - kinematic heat conductance, m**2/s
 7 - modulus of horizontal velocity, m/s
 8 - Richardson number, n/d
   -0.000000    0.00000  0.0000E+00  0.4702E-13  0.1132E-15  0.1000E-09  0.0000E+00  0.9879E+16
   -0.034998    0.15127  0.0000E+00  0.4702E-13  0.1132E-15  0.1000E-09  0.0000E+00  0.9614E+16
   -0.069996    0.30484  0.0000E+00  0.4702E-13  0.1132E-15  0.1000E-09  0.0000E+00  0.9342E+16
   -0.104994    0.46090  0.0000E+00  0.4702E-13  0.1132E-15  0.1000E-09  0.0000E+00  0.8903E+16
   -0.139993    0.61675  0.0000E+00  0.4702E-13  0.1132E-15  0.1000E-09  0.0000E+00  0.8384E+16
   -0.174992    0.77083  0.0000E+00  0.4702E-13  0.1132E-15  0.1000E-09  0.0000E+00  0.7882E+16
   -0.209991    0.92313  0.0000E+00  0.4702E-13  0.1132E-15  0.1000E-09  0.0000E+00  0.7395E+16
   -0.244990    1.07366  0.0000E+00  0.4702E-13  0.1132E-15  0.1000E-09  0.0000E+00  0.6924E+16
   -0.279990    1.22240  0.0000E+00  0.4702E-13  0.1132E-15  0.1000E-09  0.0000E+00  0.6466E+16
   -0.314990    1.36928  0.0000E+00  0.4702E-13  0.1132E-15  0.1000E-09  0.0000E+00  0.5951E+16
   -0.349990    1.51253  0.0000E+00  0.4702E-13  0.1132E-15  0.1000E-09  0.0000E+00  0.5444E+16
   -0.384990    1.65158  0.0000E+00  0.4702E-13  0.1132E-15  0.1000E-09  0.0000E+00  0.4952E+16
   -0.419991    1.78599  0.0000E+00  0.4702E-13  0.1132E-15  0.1000E-09  0.0000E+00  0.4551E+16
   -0.454991    1.91751  0.0000E+00  0.4702E-13  0.1132E-15  0.1000E-09  0.0000E+00  0.4207E+16
   -0.489992    2.04730  0.0000E+00  0.4702E-13  0.1132E-15  0.1000E-09  0.0000E+00  0.3849E+16
   -0.524993    2.17443  0.0000E+00  0.4702E-13  0.1132E-15  0.1000E-09  0.0000E+00  0.3387E+16
   -0.559993    2.29445  0.0000E+00  0.4702E-13  0.1132E-15  0.1000E-09  0.0000E+00  0.2842E+16
   -0.594994    2.40235  0.0000E+00  0.4702E-13  0.1132E-15  0.1000E-09  0.0000E+00  0.2295E+16
   -0.629995    2.49533  0.0000E+00  0.4702E-13  0.1132E-15  0.1000E-09  0.0000E+00  0.2080E+16
   -0.664996    2.58504  0.0000E+00  0.4702E-13  0.1132E-15  0.1000E-09  0.0000E+00  0.1874E+16
   -0.699997    2.67125  0.0000E+00  0.4702E-13  0.1132E-15  0.1000E-09  0.0000E+00  0.1673E+16
   -0.734999    2.75339  0.0000E+00  0.4702E-13  0.1132E-15  0.1000E-09  0.0000E+00  0.1498E+16
   -0.770000    2.83201  0.0000E+00  0.4702E-13  0.1132E-15  0.1000E-09  0.0000E+00  0.1380E+16
   -0.805001    2.90961  0.0000E+00  0.4702E-13  0.1132E-15  0.1000E-09  0.0000E+00  0.1267E+16
   -0.840001    2.98622  0.0000E+00  0.4702E-13  0.1132E-15  0.1000E-09  0.0000E+00  0.1157E+16
   -0.875002    3.06181  0.0000E+00  0.4702E-13  0.1132E-15  0.1000E-09  0.0000E+00  0.1050E+16
   -0.910003    3.13628  0.0000E+00  0.4702E-13  0.1132E-15  0.1000E-09  0.0000E+00  0.9490E+15
   -0.945004    3.20982  0.0000E+00  0.4702E-13  0.1132E-15  0.1000E-09  0.0000E+00  0.8519E+15
   -0.980004    3.28244  0.0000E+00  0.4702E-13  0.1132E-15  0.1000E-09  0.0000E+00  0.7569E+15
   -1.015005    3.35399  0.0000E+00  0.4702E-13  0.1132E-15  0.1000E-09  0.0000E+00  0.6583E+15
   -1.050005    3.42367  0.0000E+00  0.4702E-13  0.1132E-15  0.1000E-09  0.0000E+00  0.5660E+15
   -1.085005    3.49144  0.0000E+00  0.9336E-13  0.1240E-15  0.1000E-09  0.0000E+00  0.5000E+15
   -1.120005    3.56025  0.0000E+00  0.3561E-12  0.3939E-15  0.1000E-09  0.0000E+00  0.4317E+15
   -1.155005    3.63028  0.0000E+00  0.1328E-11  0.1422E-14  0.1000E-09  0.0000E+00  0.3606E+15
   -1.190004    3.70180  0.0000E+00  0.4903E-11  0.5169E-14  0.1000E-09  0.0000E+00  0.2862E+15
   -1.225003    3.77524  0.0000E+00  0.1899E-10  0.1982E-13  0.2207E-09  0.0000E+00  0.2082E+15
   -1.260002    3.85199  0.0000E+00  0.7807E-10  0.8126E-13  0.1455E-08  0.0000E+00  0.1208E+15
   -1.295001    3.93491  0.0000E+00  0.3681E-09  0.3904E-12  0.2739E-07  0.0000E+00  0.1346E+14
   -1.329999    4.01702  0.0000E+00  0.1235E-08  0.1553E-11  0.3499E-06  0.0000E+00 -0.2243E+14
   -1.364997    4.04805  0.0000E+00  0.1705E-08  0.3628E-11  0.2529E-06  0.0000E+00 -0.6004E+14
   -1.399995    4.09349  0.0000E+00  0.0000E+00  0.0000E+00  0.0000E+00  0.0000E+00  0.0000E+00
