 1 - depth, m
 2 - temperature, C
 3 - salinity, kg/kg
 4 - turbulent kinetic energy, m**2/s**2
 5 - dissipation rate, m**2/s**3
 6 - kinematic heat conductance, m**2/s
 7 - modulus of horizontal velocity, m/s
 8 - Richardson number, n/d
   -0.000000   17.38846  0.0000E+00  0.2564E-04  0.3919E-05  0.2394E-04  0.2859E-01 -0.1359E+02
   -0.034998   17.42939  0.0000E+00  0.1854E-04  0.1223E-05  0.5649E-04  0.1406E-01  0.6249E+03
   -0.069996   17.44168  0.0000E+00  0.1565E-04  0.6020E-06  0.8919E-04  0.1035E-01  0.7419E+02
   -0.104994   17.44926  0.0000E+00  0.1383E-04  0.3542E-06  0.1222E-03  0.8158E-02  0.8186E+02
   -0.139993   17.45473  0.0000E+00  0.1259E-04  0.2331E-06  0.1598E-03  0.6632E-02  0.3002E+02
   -0.174992   17.45887  0.0000E+00  0.1172E-04  0.1664E-06  0.2178E-03  0.5496E-02  0.6151E+02
   -0.209991   17.46184  0.0000E+00  0.1110E-04  0.1271E-06  0.3080E-03  0.4629E-02  0.7791E+02
   -0.244991   17.46385  0.0000E+00  0.1065E-04  0.1022E-06  0.3551E-03  0.3944E-02  0.1627E+03
   -0.279990   17.46544  0.0000E+00  0.1028E-04  0.8462E-07  0.3848E-03  0.3334E-02  0.1991E+03
   -0.314990   17.46681  0.0000E+00  0.9933E-05  0.7123E-07  0.4143E-03  0.2771E-02  0.9622E+02
   -0.349990   17.46803  0.0000E+00  0.9609E-05  0.6079E-07  0.4399E-03  0.2295E-02  0.2348E+02
   -0.384991   17.46915  0.0000E+00  0.9318E-05  0.5257E-07  0.4652E-03  0.1892E-02  0.1959E+02
   -0.419991   17.47018  0.0000E+00  0.9062E-05  0.4610E-07  0.4844E-03  0.1548E-02  0.1969E+02
   -0.454992   17.47117  0.0000E+00  0.8830E-05  0.4098E-07  0.5040E-03  0.1240E-02  0.2034E+02
   -0.489993   17.47210  0.0000E+00  0.8614E-05  0.3689E-07  0.5214E-03  0.9610E-03  0.2016E+02
   -0.524993   17.47299  0.0000E+00  0.8390E-05  0.3336E-07  0.5624E-03  0.7128E-03  0.2070E+02
   -0.559994   17.47380  0.0000E+00  0.8166E-05  0.3026E-07  0.6276E-03  0.5337E-03  0.2577E+02
   -0.594995   17.47449  0.0000E+00  0.7946E-05  0.2745E-07  0.7297E-03  0.4223E-03  0.3942E+02
   -0.629996   17.47505  0.0000E+00  0.7781E-05  0.2548E-07  0.7583E-03  0.3649E-03  0.7095E+02
   -0.664997   17.47559  0.0000E+00  0.7647E-05  0.2401E-07  0.7687E-03  0.3219E-03  0.7750E+02
   -0.699998   17.47610  0.0000E+00  0.7527E-05  0.2284E-07  0.7786E-03  0.2834E-03  0.8268E+02
   -0.735000   17.47661  0.0000E+00  0.7418E-05  0.2192E-07  0.7840E-03  0.2499E-03  0.9250E+02
   -0.770001   17.47710  0.0000E+00  0.7317E-05  0.2122E-07  0.7848E-03  0.2212E-03  0.1017E+03
   -0.805002   17.47759  0.0000E+00  0.7223E-05  0.2071E-07  0.7810E-03  0.1968E-03  0.1170E+03
   -0.840003   17.47807  0.0000E+00  0.7135E-05  0.2036E-07  0.7732E-03  0.1762E-03  0.1315E+03
   -0.875004   17.47856  0.0000E+00  0.7051E-05  0.2017E-07  0.7619E-03  0.1587E-03  0.1522E+03
   -0.910004   17.47905  0.0000E+00  0.6967E-05  0.2011E-07  0.7473E-03  0.1437E-03  0.1736E+03
   -0.945005   17.47955  0.0000E+00  0.6881E-05  0.2019E-07  0.7287E-03  0.1303E-03  0.2011E+03
   -0.980006   17.48006  0.0000E+00  0.6791E-05  0.2042E-07  0.7041E-03  0.1181E-03  0.2281E+03
   -1.015006   17.48059  0.0000E+00  0.6693E-05  0.2084E-07  0.6770E-03  0.1065E-03  0.2693E+03
   -1.050006   17.48113  0.0000E+00  0.6581E-05  0.2155E-07  0.6378E-03  0.9567E-04  0.3294E+03
   -1.085007   17.48172  0.0000E+00  0.6451E-05  0.2267E-07  0.6038E-03  0.8535E-04  0.4224E+03
   -1.120006   17.48235  0.0000E+00  0.6297E-05  0.2446E-07  0.5500E-03  0.7577E-04  0.5528E+03
   -1.155006   17.48308  0.0000E+00  0.6113E-05  0.2735E-07  0.5179E-03  0.6593E-04  0.7252E+03
   -1.190006   17.48392  0.0000E+00  0.5871E-05  0.3255E-07  0.4467E-03  0.5624E-04 -0.4844E+04
   -1.225005   17.48527  0.0000E+00  0.5549E-05  0.4144E-07  0.4191E-03  0.4465E-04  0.3073E+04
   -1.260004   17.48661  0.0000E+00  0.5058E-05  0.6279E-07  0.3074E-03  0.3469E-04 -0.5027E+05
   -1.295003   17.49155  0.0000E+00  0.4345E-05  0.1146E-06  0.2970E-03  0.2317E-04  0.7605E+06
   -1.330001   17.48956  0.0000E+00  0.3503E-05  0.2578E-06  0.1296E-03  0.2030E-04  0.7759E+05
   -1.364999   17.50830  0.0000E+00  0.2432E-05  0.5875E-06  0.9862E-04  0.1204E-04 -0.5285E+07
   -1.399997   17.51264  0.0000E+00  0.0000E+00  0.0000E+00  0.0000E+00  0.2056E-04  0.0000E+00
