 1 - depth, m
 2 - temperature, C
 3 - salinity, kg/kg
 4 - turbulent kinetic energy, m**2/s**2
 5 - dissipation rate, m**2/s**3
 6 - kinematic heat conductance, m**2/s
 7 - modulus of horizontal velocity, m/s
 8 - Richardson number, n/d
   -0.000000    0.00000  0.0000E+00  0.1047E-07  0.3044E-10  0.1058E-08  0.0000E+00  0.7419E+17
   -0.034998    1.35538  0.0000E+00  0.5951E-07  0.2070E-10  0.1257E-08  0.0000E+00  0.4273E+17
   -0.069997    2.70536  0.0000E+00  0.1437E-06  0.2139E-10  0.4347E-08  0.0000E+00  0.1302E+17
   -0.104996    4.02289  0.0000E+00  0.1449E-06  0.2144E-10  0.3143E-03  0.0000E+00 -0.3721E+12
   -0.139996    4.02354  0.0000E+00  0.1455E-06  0.2147E-10  0.3101E-03  0.0000E+00 -0.3276E+12
   -0.174995    4.02419  0.0000E+00  0.1460E-06  0.2151E-10  0.3119E-03  0.0000E+00 -0.3233E+12
   -0.209995    4.02481  0.0000E+00  0.1465E-06  0.2155E-10  0.3134E-03  0.0000E+00 -0.3224E+12
   -0.244995    4.02542  0.0000E+00  0.1469E-06  0.2159E-10  0.3148E-03  0.0000E+00 -0.3169E+12
   -0.279995    4.02601  0.0000E+00  0.1473E-06  0.2164E-10  0.3221E-03  0.0000E+00 -0.2629E+12
   -0.314996    4.02658  0.0000E+00  0.1477E-06  0.2169E-10  0.3260E-03  0.0000E+00 -0.3594E+12
   -0.349997    4.02713  0.0000E+00  0.1481E-06  0.2175E-10  0.3174E-03  0.0000E+00 -0.3208E+12
   -0.384998    4.02769  0.0000E+00  0.1484E-06  0.2181E-10  0.3177E-03  0.0000E+00 -0.3172E+12
   -0.419999    4.02824  0.0000E+00  0.1487E-06  0.2189E-10  0.3256E-03  0.0000E+00 -0.2665E+12
   -0.455000    4.02877  0.0000E+00  0.1489E-06  0.2197E-10  0.3262E-03  0.0000E+00 -0.3532E+12
   -0.490001    4.02929  0.0000E+00  0.1492E-06  0.2206E-10  0.3176E-03  0.0000E+00 -0.3251E+12
   -0.525003    4.02982  0.0000E+00  0.1494E-06  0.2218E-10  0.3169E-03  0.0000E+00 -0.3218E+12
   -0.560004    4.03034  0.0000E+00  0.1497E-06  0.2234E-10  0.3153E-03  0.0000E+00 -0.3386E+12
   -0.595006    4.03087  0.0000E+00  0.1500E-06  0.2258E-10  0.3134E-03  0.0000E+00 -0.3282E+12
   -0.630008    4.03140  0.0000E+00  0.1503E-06  0.2285E-10  0.3114E-03  0.0000E+00 -0.3374E+12
   -0.665009    4.03192  0.0000E+00  0.1505E-06  0.2313E-10  0.3211E-03  0.0000E+00 -0.2897E+12
   -0.700011    4.03243  0.0000E+00  0.1508E-06  0.2344E-10  0.3097E-03  0.0000E+00 -0.3797E+12
   -0.735013    4.03294  0.0000E+00  0.1510E-06  0.2377E-10  0.3161E-03  0.0000E+00 -0.3022E+12
   -0.770015    4.03345  0.0000E+00  0.1511E-06  0.2414E-10  0.3017E-03  0.0000E+00 -0.3900E+12
   -0.805016    4.03396  0.0000E+00  0.1513E-06  0.2455E-10  0.3093E-03  0.0000E+00 -0.3131E+12
   -0.840018    4.03447  0.0000E+00  0.1514E-06  0.2501E-10  0.2918E-03  0.0000E+00 -0.4025E+12
   -0.875019    4.03500  0.0000E+00  0.1514E-06  0.2552E-10  0.3008E-03  0.0000E+00 -0.3280E+12
   -0.910021    4.03551  0.0000E+00  0.1515E-06  0.2609E-10  0.2791E-03  0.0000E+00 -0.4232E+12
   -0.945022    4.03605  0.0000E+00  0.1515E-06  0.2675E-10  0.2719E-03  0.0000E+00 -0.4043E+12
   -0.980023    4.03660  0.0000E+00  0.1514E-06  0.2751E-10  0.2650E-03  0.0000E+00 -0.4150E+12
   -1.015025    4.03717  0.0000E+00  0.1513E-06  0.2838E-10  0.2571E-03  0.0000E+00 -0.4285E+12
   -1.050025    4.03775  0.0000E+00  0.1512E-06  0.2940E-10  0.2670E-03  0.0000E+00 -0.3869E+12
   -1.085026    4.03831  0.0000E+00  0.1510E-06  0.3061E-10  0.2371E-03  0.0000E+00 -0.5009E+12
   -1.120027    4.03892  0.0000E+00  0.1507E-06  0.3210E-10  0.2268E-03  0.0000E+00 -0.5013E+12
   -1.155027    4.03957  0.0000E+00  0.1503E-06  0.3398E-10  0.2149E-03  0.0000E+00 -0.5297E+12
   -1.190027    4.04024  0.0000E+00  0.1499E-06  0.3634E-10  0.2011E-03  0.0000E+00 -0.5724E+12
   -1.225027    4.04096  0.0000E+00  0.1493E-06  0.3971E-10  0.1842E-03  0.0000E+00 -0.6326E+12
   -1.260027    4.04175  0.0000E+00  0.1483E-06  0.4537E-10  0.1599E-03  0.0000E+00 -0.7491E+12
   -1.295026    4.04265  0.0000E+00  0.1461E-06  0.5887E-10  0.1330E-03  0.0000E+00 -0.9085E+12
   -1.330025    4.04375  0.0000E+00  0.1404E-06  0.9698E-10  0.4547E-04  0.0000E+00 -0.2786E+13
   -1.365024    4.04695  0.0000E+00  0.9677E-07  0.4700E-09  0.2815E-05  0.0000E+00 -0.6202E+14
   -1.400022    4.09452  0.0000E+00  0.0000E+00  0.0000E+00  0.0000E+00  0.0000E+00  0.0000E+00
