 1 - depth, m
 2 - temperature, C
 3 - salinity, kg/kg
 4 - turbulent kinetic energy, m**2/s**2
 5 - dissipation rate, m**2/s**3
 6 - kinematic heat conductance, m**2/s
 7 - modulus of horizontal velocity, m/s
 8 - Richardson number, n/d
   -0.000000   11.74631  0.0000E+00  0.2430E-04  0.5169E-05  0.2366E-04  0.2821E-01 -0.1791E-01
   -0.034998   11.76377  0.0000E+00  0.1624E-04  0.1603E-05  0.3764E-04  0.1363E-01 -0.4694E-01
   -0.069996   11.77042  0.0000E+00  0.1296E-04  0.7464E-06  0.5093E-04  0.9878E-02 -0.8317E-01
   -0.104995   11.77485  0.0000E+00  0.1092E-04  0.4013E-06  0.6861E-04  0.7680E-02  0.3341E-01
   -0.139994   11.77804  0.0000E+00  0.9479E-05  0.2394E-06  0.9852E-04  0.6134E-02  0.2238E+03
   -0.174993   11.78039  0.0000E+00  0.8418E-05  0.1549E-06  0.1250E-03  0.4987E-02  0.1831E+03
   -0.209993   11.78228  0.0000E+00  0.7613E-05  0.1071E-06  0.1558E-03  0.4085E-02  0.9237E+02
   -0.244993   11.78383  0.0000E+00  0.6975E-05  0.7816E-07  0.1874E-03  0.3349E-02  0.1081E+02
   -0.279993   11.78515  0.0000E+00  0.6434E-05  0.5923E-07  0.2156E-03  0.2725E-02  0.8207E+01
   -0.314993   11.78633  0.0000E+00  0.5934E-05  0.4574E-07  0.2451E-03  0.2171E-02  0.1926E+02
   -0.349993   11.78734  0.0000E+00  0.5504E-05  0.3612E-07  0.2761E-03  0.1736E-02  0.8971E+03
   -0.384994   11.78824  0.0000E+00  0.5146E-05  0.2920E-07  0.3050E-03  0.1391E-02  0.1824E+02
   -0.419994   11.78904  0.0000E+00  0.4854E-05  0.2421E-07  0.3310E-03  0.1114E-02  0.2833E+02
   -0.454995   11.78978  0.0000E+00  0.4612E-05  0.2054E-07  0.3545E-03  0.8749E-03  0.1213E+02
   -0.489996   11.79047  0.0000E+00  0.4407E-05  0.1780E-07  0.3730E-03  0.6659E-03  0.8592E+01
   -0.524997   11.79111  0.0000E+00  0.4216E-05  0.1558E-07  0.3964E-03  0.4867E-03  0.1988E+02
   -0.559999   11.79168  0.0000E+00  0.4039E-05  0.1371E-07  0.4172E-03  0.3623E-03  0.1121E+02
   -0.595000   11.79216  0.0000E+00  0.3868E-05  0.1202E-07  0.4344E-03  0.2875E-03  0.4274E+02
   -0.630001   11.79254  0.0000E+00  0.3739E-05  0.1079E-07  0.4463E-03  0.2494E-03  0.2267E+01
   -0.665002   11.79292  0.0000E+00  0.3642E-05  0.9885E-08  0.4587E-03  0.2187E-03  0.1716E+01
   -0.700004   11.79328  0.0000E+00  0.3565E-05  0.9174E-08  0.4682E-03  0.1921E-03  0.1178E+01
   -0.735005   11.79364  0.0000E+00  0.3500E-05  0.8599E-08  0.4759E-03  0.1689E-03  0.1264E+01
   -0.770006   11.79399  0.0000E+00  0.3447E-05  0.8131E-08  0.4824E-03  0.1487E-03  0.1482E+01
   -0.805008   11.79435  0.0000E+00  0.3401E-05  0.7749E-08  0.4878E-03  0.1311E-03  0.1759E+01
   -0.840009   11.79470  0.0000E+00  0.3363E-05  0.7439E-08  0.4923E-03  0.1156E-03  0.2122E+01
   -0.875010   11.79506  0.0000E+00  0.3330E-05  0.7191E-08  0.4953E-03  0.1019E-03  0.2546E+01
   -0.910011   11.79541  0.0000E+00  0.3301E-05  0.6997E-08  0.4968E-03  0.8991E-04  0.3121E+01
   -0.945012   11.79578  0.0000E+00  0.3276E-05  0.6854E-08  0.4963E-03  0.7914E-04  0.3755E+01
   -0.980013   11.79615  0.0000E+00  0.3253E-05  0.6757E-08  0.4938E-03  0.6931E-04  0.4565E+01
   -1.015014   11.79653  0.0000E+00  0.3231E-05  0.6706E-08  0.4887E-03  0.6037E-04  0.5581E+01
   -1.050014   11.79692  0.0000E+00  0.3209E-05  0.6701E-08  0.4808E-03  0.5236E-04  0.7289E+01
   -1.085015   11.79733  0.0000E+00  0.3186E-05  0.6748E-08  0.4692E-03  0.4525E-04  0.9685E+01
   -1.120015   11.79775  0.0000E+00  0.3161E-05  0.6857E-08  0.4537E-03  0.3893E-04  0.1345E+02
   -1.155015   11.79819  0.0000E+00  0.3134E-05  0.7043E-08  0.4340E-03  0.3311E-04  0.1802E+02
   -1.190015   11.79867  0.0000E+00  0.3104E-05  0.7334E-08  0.4083E-03  0.2770E-04  0.2437E+02
   -1.225014   11.79919  0.0000E+00  0.3066E-05  0.7818E-08  0.3778E-03  0.2271E-04  0.3322E+02
   -1.260013   11.79976  0.0000E+00  0.3008E-05  0.8739E-08  0.3183E-03  0.1837E-04  0.5790E+02
   -1.295012   11.80046  0.0000E+00  0.2886E-05  0.1114E-07  0.2751E-03  0.1470E-04  0.1267E+03
   -1.330011   11.80130  0.0000E+00  0.2636E-05  0.1794E-07  0.1540E-03  0.1201E-04 -0.8500E+04
   -1.365009   11.80417  0.0000E+00  0.1748E-05  0.5248E-07  0.2417E-04  0.9147E-05 -0.1479E+06
   -1.400008   11.81735  0.0000E+00  0.0000E+00  0.0000E+00  0.0000E+00  0.9512E-05  0.0000E+00
