 1 - depth, m
 2 - temperature, C
 3 - salinity, kg/kg
 4 - turbulent kinetic energy, m**2/s**2
 5 - dissipation rate, m**2/s**3
 6 - kinematic heat conductance, m**2/s
 7 - modulus of horizontal velocity, m/s
 8 - Richardson number, n/d
   -0.000000    0.00000  0.0000E+00  0.4702E-13  0.1132E-15  0.1000E-09  0.0000E+00  0.8117E+16
   -0.034998    0.12382  0.0000E+00  0.4702E-13  0.1132E-15  0.1000E-09  0.0000E+00  0.8025E+16
   -0.069996    0.25055  0.0000E+00  0.4702E-13  0.1132E-15  0.1000E-09  0.0000E+00  0.7921E+16
   -0.104995    0.38028  0.0000E+00  0.4702E-13  0.1132E-15  0.1000E-09  0.0000E+00  0.7680E+16
   -0.139993    0.51098  0.0000E+00  0.4702E-13  0.1132E-15  0.1000E-09  0.0000E+00  0.7366E+16
   -0.174993    0.64142  0.0000E+00  0.4702E-13  0.1132E-15  0.1000E-09  0.0000E+00  0.7052E+16
   -0.209992    0.77155  0.0000E+00  0.4702E-13  0.1132E-15  0.1000E-09  0.0000E+00  0.6739E+16
   -0.244992    0.90132  0.0000E+00  0.4702E-13  0.1132E-15  0.1000E-09  0.0000E+00  0.6427E+16
   -0.279991    1.03068  0.0000E+00  0.4702E-13  0.1132E-15  0.1000E-09  0.0000E+00  0.6116E+16
   -0.314991    1.15954  0.0000E+00  0.4702E-13  0.1132E-15  0.1000E-09  0.0000E+00  0.5776E+16
   -0.349992    1.28715  0.0000E+00  0.4702E-13  0.1132E-15  0.1000E-09  0.0000E+00  0.5434E+16
   -0.384992    1.41326  0.0000E+00  0.4702E-13  0.1132E-15  0.1000E-09  0.0000E+00  0.5094E+16
   -0.419993    1.53761  0.0000E+00  0.4702E-13  0.1132E-15  0.1000E-09  0.0000E+00  0.4787E+16
   -0.454993    1.66081  0.0000E+00  0.4702E-13  0.1132E-15  0.1000E-09  0.0000E+00  0.4502E+16
   -0.489994    1.78321  0.0000E+00  0.4702E-13  0.1132E-15  0.1000E-09  0.0000E+00  0.4208E+16
   -0.524995    1.90433  0.0000E+00  0.4702E-13  0.1132E-15  0.1000E-09  0.0000E+00  0.3857E+16
   -0.559996    2.02214  0.0000E+00  0.4702E-13  0.1132E-15  0.1000E-09  0.0000E+00  0.3455E+16
   -0.594997    2.13426  0.0000E+00  0.4702E-13  0.1132E-15  0.1000E-09  0.0000E+00  0.3046E+16
   -0.629998    2.23924  0.0000E+00  0.4702E-13  0.1132E-15  0.1000E-09  0.0000E+00  0.2812E+16
   -0.665000    2.34228  0.0000E+00  0.4702E-13  0.1132E-15  0.1000E-09  0.0000E+00  0.2583E+16
   -0.700001    2.44316  0.0000E+00  0.4702E-13  0.1132E-15  0.1000E-09  0.0000E+00  0.2357E+16
   -0.735002    2.54151  0.0000E+00  0.4702E-13  0.1132E-15  0.1000E-09  0.0000E+00  0.2149E+16
   -0.770003    2.63756  0.0000E+00  0.4702E-13  0.1132E-15  0.1000E-09  0.0000E+00  0.1978E+16
   -0.805004    2.73259  0.0000E+00  0.4702E-13  0.1132E-15  0.1000E-09  0.0000E+00  0.1810E+16
   -0.840005    2.82651  0.0000E+00  0.4702E-13  0.1132E-15  0.1000E-09  0.0000E+00  0.1646E+16
   -0.875006    2.91921  0.0000E+00  0.4702E-13  0.1132E-15  0.1000E-09  0.0000E+00  0.1485E+16
   -0.910007    3.01053  0.0000E+00  0.4702E-13  0.1132E-15  0.1000E-09  0.0000E+00  0.1331E+16
   -0.945008    3.10045  0.0000E+00  0.4702E-13  0.1132E-15  0.1000E-09  0.0000E+00  0.1181E+16
   -0.980009    3.18885  0.0000E+00  0.4702E-13  0.1132E-15  0.1000E-09  0.0000E+00  0.1036E+16
   -1.015010    3.27551  0.0000E+00  0.4702E-13  0.1132E-15  0.1000E-09  0.0000E+00  0.8918E+15
   -1.050010    3.35975  0.0000E+00  0.4702E-13  0.1132E-15  0.1000E-09  0.0000E+00  0.7569E+15
   -1.085010    3.44149  0.0000E+00  0.7323E-13  0.1132E-15  0.1000E-09  0.0000E+00  0.6503E+15
   -1.120010    3.52321  0.0000E+00  0.2939E-12  0.3217E-15  0.1000E-09  0.0000E+00  0.5435E+15
   -1.155010    3.60482  0.0000E+00  0.1095E-11  0.1140E-14  0.1000E-09  0.0000E+00  0.4377E+15
   -1.190010    3.68639  0.0000E+00  0.3992E-11  0.4064E-14  0.1000E-09  0.0000E+00  0.3329E+15
   -1.225009    3.76810  0.0000E+00  0.1521E-10  0.1525E-13  0.1565E-09  0.0000E+00  0.2293E+15
   -1.260008    3.85059  0.0000E+00  0.6137E-10  0.6106E-13  0.1083E-08  0.0000E+00  0.1237E+15
   -1.295007    3.93479  0.0000E+00  0.2840E-09  0.2862E-12  0.1998E-07  0.0000E+00  0.1499E+14
   -1.330006    4.01358  0.0000E+00  0.9533E-09  0.1113E-11  0.3012E-06  0.0000E+00 -0.1966E+14
   -1.365004    4.04337  0.0000E+00  0.1261E-08  0.2461E-11  0.2028E-06  0.0000E+00 -0.5030E+14
   -1.400002    4.08473  0.0000E+00  0.0000E+00  0.0000E+00  0.0000E+00  0.0000E+00  0.0000E+00
