 1 - depth, m
 2 - temperature, C
 3 - salinity, kg/kg
 4 - turbulent kinetic energy, m**2/s**2
 5 - dissipation rate, m**2/s**3
 6 - kinematic heat conductance, m**2/s
 7 - modulus of horizontal velocity, m/s
 8 - Richardson number, n/d
   -0.000000    0.00000  0.0000E+00  0.1835E-04  0.1535E-05  0.2113E-04  0.2614E-01  0.1175E-02
   -0.034997    0.00350  0.0000E+00  0.1502E-04  0.5966E-06  0.3712E-04  0.1680E-01  0.2952E-02
   -0.069994    0.00546  0.0000E+00  0.1272E-04  0.3276E-06  0.4844E-04  0.1267E-01  0.5530E-02
   -0.104991    0.00699  0.0000E+00  0.1093E-04  0.2069E-06  0.5653E-04  0.1000E-01  0.9082E-02
   -0.139988    0.00829  0.0000E+00  0.9488E-05  0.1413E-06  0.6221E-04  0.8069E-02  0.1392E-01
   -0.174986    0.00947  0.0000E+00  0.8292E-05  0.1017E-06  0.6593E-04  0.6575E-02  0.2052E-01
   -0.209984    0.01057  0.0000E+00  0.7287E-05  0.7603E-07  0.6770E-04  0.5371E-02  0.2887E-01
   -0.244983    0.01164  0.0000E+00  0.6413E-05  0.5839E-07  0.6737E-04  0.4362E-02  0.3869E-01
   -0.279981    0.01271  0.0000E+00  0.5600E-05  0.4529E-07  0.6414E-04  0.3479E-02  0.4771E-01
   -0.314980    0.01384  0.0000E+00  0.4778E-05  0.3456E-07  0.6325E-04  0.2657E-02  0.8926E-01
   -0.349979    0.01499  0.0000E+00  0.4038E-05  0.2634E-07  0.6033E-04  0.2031E-02  0.1765E+00
   -0.384978    0.01620  0.0000E+00  0.3400E-05  0.2016E-07  0.5606E-04  0.1548E-02  0.3850E+00
   -0.419978    0.01753  0.0000E+00  0.2865E-05  0.1557E-07  0.5012E-04  0.1175E-02  0.7890E+00
   -0.454977    0.01917  0.0000E+00  0.2413E-05  0.1214E-07  0.4368E-04  0.8561E-03  0.1926E+01
   -0.489977    0.02170  0.0000E+00  0.2030E-05  0.9562E-08  0.3818E-04  0.5727E-03  0.2086E+02
   -0.524977    0.03111  0.0000E+00  0.1699E-05  0.7532E-08  0.3546E-04  0.3357E-03  0.4148E+04
   -0.559976    0.05213  0.0000E+00  0.1429E-05  0.5943E-08  0.3336E-04  0.2033E-03  0.5841E+06
   -0.594976    0.06495  0.0000E+00  0.1183E-05  0.4547E-08  0.3567E-04  0.1379E-03 -0.2107E+08
   -0.629976    0.06539  0.0000E+00  0.9698E-06  0.3456E-08  0.3008E-04  0.1110E-03 -0.3789E+08
   -0.664976    0.06630  0.0000E+00  0.7898E-06  0.2626E-08  0.2427E-04  0.8756E-04 -0.3553E+08
   -0.699976    0.06918  0.0000E+00  0.6396E-06  0.1992E-08  0.1886E-04  0.6736E-04  0.1062E+10
   -0.734976    0.07394  0.0000E+00  0.5136E-06  0.1505E-08  0.1459E-04  0.5047E-04  0.6830E+11
   -0.769976    0.08015  0.0000E+00  0.4076E-06  0.1128E-08  0.1144E-04  0.3692E-04  0.5489E+13
   -0.804976    0.08995  0.0000E+00  0.3186E-06  0.8353E-09  0.8664E-05  0.2637E-04  0.3211E+15
   -0.839976    0.10353  0.0000E+00  0.2441E-06  0.6088E-09  0.6294E-05  0.1825E-04  0.7194E+15
   -0.874975    0.12156  0.0000E+00  0.1824E-06  0.4346E-09  0.4397E-05  0.1215E-04  0.9868E+15
   -0.909975    0.14421  0.0000E+00  0.1314E-06  0.3008E-09  0.2771E-05  0.7937E-05  0.1449E+16
   -0.944975    0.17678  0.0000E+00  0.8966E-07  0.1990E-09  0.1529E-05  0.4879E-05  0.2031E+16
   -0.979974    0.22334  0.0000E+00  0.5613E-07  0.1219E-09  0.6790E-06  0.2692E-05  0.2731E+16
   -1.014974    0.28778  0.0000E+00  0.3157E-07  0.6761E-10  0.2626E-06  0.1165E-05  0.3309E+16
   -1.049973    0.36542  0.0000E+00  0.1486E-07  0.3166E-10  0.4751E-07  0.4079E-06  0.4047E+16
   -1.084972    0.46155  0.0000E+00  0.4497E-08  0.9738E-11  0.3314E-08  0.7673E-07  0.5775E+16
   -1.119971    0.60711  0.0000E+00  0.9666E-09  0.2182E-11  0.4655E-09  0.7989E-08  0.7905E+16
   -1.154969    0.81022  0.0000E+00  0.1948E-09  0.4609E-12  0.1500E-09  0.6693E-09  0.1013E+17
   -1.189967    1.06633  0.0000E+00  0.3915E-10  0.9717E-13  0.1046E-09  0.4442E-10  0.1207E+17
   -1.224966    1.36596  0.0000E+00  0.8126E-11  0.2115E-13  0.1000E-09  0.1863E-11  0.1297E+17
   -1.259963    1.70087  0.0000E+00  0.1807E-11  0.4917E-14  0.1000E-09  0.5740E-13  0.1267E+17
   -1.294961    2.07283  0.0000E+00  0.3891E-12  0.1092E-14  0.1000E-09  0.1519E-14  0.1167E+17
   -1.329958    2.49937  0.0000E+00  0.1046E-12  0.2874E-15  0.1000E-09  0.7199E-16  0.8830E+16
   -1.364955    2.93503  0.0000E+00  0.5584E-13  0.1429E-15  0.1000E-09  0.2700E-17  0.6039E+16
   -1.399952    3.39852  0.0000E+00  0.0000E+00  0.0000E+00  0.0000E+00  0.3151E-17  0.0000E+00
