 1 - depth, m
 2 - temperature, C
 3 - salinity, kg/kg
 4 - turbulent kinetic energy, m**2/s**2
 5 - dissipation rate, m**2/s**3
 6 - kinematic heat conductance, m**2/s
 7 - modulus of horizontal velocity, m/s
 8 - Richardson number, n/d
   -0.000000    0.00000  0.0000E+00  0.4702E-13  0.1132E-15  0.1000E-09  0.0000E+00  0.1792E+17
   -0.034997    0.27918  0.0000E+00  0.4702E-13  0.1132E-15  0.1000E-09  0.0000E+00  0.1580E+17
   -0.069994    0.54536  0.0000E+00  0.4702E-13  0.1132E-15  0.1000E-09  0.0000E+00  0.1390E+17
   -0.104992    0.79902  0.0000E+00  0.4702E-13  0.1132E-15  0.1000E-09  0.0000E+00  0.1212E+17
   -0.139989    1.03902  0.0000E+00  0.4702E-13  0.1132E-15  0.1000E-09  0.0000E+00  0.1050E+17
   -0.174988    1.26484  0.0000E+00  0.4702E-13  0.1132E-15  0.1000E-09  0.0000E+00  0.9056E+16
   -0.209986    1.47671  0.0000E+00  0.4702E-13  0.1132E-15  0.1000E-09  0.0000E+00  0.7781E+16
   -0.244985    1.67492  0.0000E+00  0.4702E-13  0.1132E-15  0.1000E-09  0.0000E+00  0.6659E+16
   -0.279983    1.85977  0.0000E+00  0.4702E-13  0.1132E-15  0.1000E-09  0.0000E+00  0.5677E+16
   -0.314982    2.03165  0.0000E+00  0.4702E-13  0.1132E-15  0.1000E-09  0.0000E+00  0.4797E+16
   -0.349982    2.19011  0.0000E+00  0.4702E-13  0.1132E-15  0.1000E-09  0.0000E+00  0.4023E+16
   -0.384981    2.33504  0.0000E+00  0.4702E-13  0.1132E-15  0.1000E-09  0.0000E+00  0.3344E+16
   -0.419981    2.46632  0.0000E+00  0.4702E-13  0.1132E-15  0.1000E-09  0.0000E+00  0.2822E+16
   -0.454980    2.58687  0.0000E+00  0.4702E-13  0.1132E-15  0.1000E-09  0.0000E+00  0.2419E+16
   -0.489980    2.69942  0.0000E+00  0.4702E-13  0.1132E-15  0.1000E-09  0.0000E+00  0.2074E+16
   -0.524980    2.80458  0.0000E+00  0.4702E-13  0.1132E-15  0.1000E-09  0.0000E+00  0.1771E+16
   -0.559980    2.90261  0.0000E+00  0.4702E-13  0.1132E-15  0.1000E-09  0.0000E+00  0.1480E+16
   -0.594980    2.99208  0.0000E+00  0.4702E-13  0.1132E-15  0.1000E-09  0.0000E+00  0.1207E+16
   -0.629980    3.07156  0.0000E+00  0.4702E-13  0.1132E-15  0.1000E-09  0.0000E+00  0.1017E+16
   -0.664981    3.14447  0.0000E+00  0.4702E-13  0.1132E-15  0.1000E-09  0.0000E+00  0.8464E+15
   -0.699981    3.21041  0.0000E+00  0.4702E-13  0.1132E-15  0.1000E-09  0.0000E+00  0.6944E+15
   -0.734981    3.26909  0.0000E+00  0.4702E-13  0.1132E-15  0.1000E-09  0.0000E+00  0.5779E+15
   -0.769981    3.32191  0.0000E+00  0.4702E-13  0.1132E-15  0.1000E-09  0.0000E+00  0.5139E+15
   -0.804981    3.37273  0.0000E+00  0.4702E-13  0.1132E-15  0.1000E-09  0.0000E+00  0.4569E+15
   -0.839981    3.42178  0.0000E+00  0.4702E-13  0.1132E-15  0.1000E-09  0.0000E+00  0.4063E+15
   -0.874982    3.46934  0.0000E+00  0.4702E-13  0.1132E-15  0.1000E-09  0.0000E+00  0.3617E+15
   -0.909981    3.51574  0.0000E+00  0.4702E-13  0.1132E-15  0.1000E-09  0.0000E+00  0.3191E+15
   -0.944981    3.56089  0.0000E+00  0.5085E-13  0.1132E-15  0.1000E-09  0.0000E+00  0.2803E+15
   -0.979981    3.60497  0.0000E+00  0.1132E-12  0.1326E-15  0.1000E-09  0.0000E+00  0.2456E+15
   -1.014981    3.64831  0.0000E+00  0.4004E-12  0.3069E-15  0.1000E-09  0.0000E+00  0.2169E+15
   -1.049980    3.69187  0.0000E+00  0.1254E-11  0.8987E-15  0.1000E-09  0.0000E+00  0.1897E+15
   -1.084979    3.73616  0.0000E+00  0.3797E-11  0.2663E-14  0.1001E-09  0.0000E+00  0.1606E+15
   -1.119978    3.78104  0.0000E+00  0.1126E-10  0.7781E-14  0.1423E-09  0.0000E+00  0.1299E+15
   -1.154977    3.82633  0.0000E+00  0.3311E-10  0.2263E-13  0.5267E-09  0.0000E+00  0.9980E+14
   -1.189976    3.87293  0.0000E+00  0.9726E-10  0.6614E-13  0.2185E-08  0.0000E+00  0.6854E+14
   -1.224974    3.92270  0.0000E+00  0.2971E-09  0.2032E-12  0.1642E-07  0.0000E+00  0.3078E+14
   -1.259972    3.97781  0.0000E+00  0.9003E-09  0.6502E-12  0.2749E-06  0.0000E+00 -0.3512E+13
   -1.294970    4.01210  0.0000E+00  0.2194E-08  0.2050E-11  0.7920E-06  0.0000E+00 -0.1205E+14
   -1.329968    4.03336  0.0000E+00  0.3367E-08  0.4493E-11  0.8216E-06  0.0000E+00 -0.2405E+14
   -1.364965    4.05903  0.0000E+00  0.4136E-08  0.1068E-10  0.4872E-06  0.0000E+00 -0.8612E+14
   -1.399962    4.11397  0.0000E+00  0.0000E+00  0.0000E+00  0.0000E+00  0.0000E+00  0.0000E+00
