 1 - depth, m
 2 - temperature, C
 3 - salinity, kg/kg
 4 - turbulent kinetic energy, m**2/s**2
 5 - dissipation rate, m**2/s**3
 6 - kinematic heat conductance, m**2/s
 7 - modulus of horizontal velocity, m/s
 8 - Richardson number, n/d
   -0.000000    0.00000  0.0000E+00  0.4702E-13  0.1132E-15  0.1000E-09  0.0000E+00  0.1736E+17
   -0.034996    0.27016  0.0000E+00  0.4702E-13  0.1132E-15  0.1000E-09  0.0000E+00  0.1537E+17
   -0.069993    0.52809  0.0000E+00  0.4702E-13  0.1132E-15  0.1000E-09  0.0000E+00  0.1358E+17
   -0.104990    0.77437  0.0000E+00  0.4702E-13  0.1132E-15  0.1000E-09  0.0000E+00  0.1190E+17
   -0.139988    1.00785  0.0000E+00  0.4702E-13  0.1132E-15  0.1000E-09  0.0000E+00  0.1036E+17
   -0.174986    1.22798  0.0000E+00  0.4702E-13  0.1132E-15  0.1000E-09  0.0000E+00  0.8987E+16
   -0.209984    1.43500  0.0000E+00  0.4702E-13  0.1132E-15  0.1000E-09  0.0000E+00  0.7764E+16
   -0.244982    1.62911  0.0000E+00  0.4702E-13  0.1132E-15  0.1000E-09  0.0000E+00  0.6678E+16
   -0.279980    1.81047  0.0000E+00  0.4702E-13  0.1132E-15  0.1000E-09  0.0000E+00  0.5719E+16
   -0.314979    1.97927  0.0000E+00  0.4702E-13  0.1132E-15  0.1000E-09  0.0000E+00  0.4899E+16
   -0.349978    2.13650  0.0000E+00  0.4702E-13  0.1132E-15  0.1000E-09  0.0000E+00  0.4170E+16
   -0.384977    2.28209  0.0000E+00  0.4702E-13  0.1132E-15  0.1000E-09  0.0000E+00  0.3522E+16
   -0.419976    2.41585  0.0000E+00  0.4702E-13  0.1132E-15  0.1000E-09  0.0000E+00  0.2985E+16
   -0.454975    2.53914  0.0000E+00  0.4702E-13  0.1132E-15  0.1000E-09  0.0000E+00  0.2549E+16
   -0.489975    2.65365  0.0000E+00  0.4702E-13  0.1132E-15  0.1000E-09  0.0000E+00  0.2181E+16
   -0.524974    2.76030  0.0000E+00  0.4702E-13  0.1132E-15  0.1000E-09  0.0000E+00  0.1925E+16
   -0.559974    2.86296  0.0000E+00  0.4702E-13  0.1132E-15  0.1000E-09  0.0000E+00  0.1708E+16
   -0.594974    2.96284  0.0000E+00  0.4702E-13  0.1132E-15  0.1000E-09  0.0000E+00  0.1498E+16
   -0.629973    3.05939  0.0000E+00  0.4702E-13  0.1132E-15  0.1000E-09  0.0000E+00  0.1231E+16
   -0.664973    3.14714  0.0000E+00  0.4702E-13  0.1132E-15  0.1000E-09  0.0000E+00  0.1004E+16
   -0.699973    3.22629  0.0000E+00  0.4702E-13  0.1132E-15  0.1000E-09  0.0000E+00  0.8117E+15
   -0.734973    3.29697  0.0000E+00  0.4702E-13  0.1132E-15  0.1000E-09  0.0000E+00  0.6640E+15
   -0.769973    3.36078  0.0000E+00  0.4702E-13  0.1132E-15  0.1000E-09  0.0000E+00  0.5697E+15
   -0.804972    3.42129  0.0000E+00  0.4702E-13  0.1132E-15  0.1000E-09  0.0000E+00  0.4857E+15
   -0.839972    3.47861  0.0000E+00  0.4702E-13  0.1132E-15  0.1000E-09  0.0000E+00  0.4116E+15
   -0.874972    3.53286  0.0000E+00  0.4702E-13  0.1132E-15  0.1000E-09  0.0000E+00  0.3473E+15
   -0.909971    3.58435  0.0000E+00  0.4702E-13  0.1132E-15  0.1000E-09  0.0000E+00  0.2874E+15
   -0.944971    3.63262  0.0000E+00  0.4702E-13  0.1132E-15  0.1000E-09  0.0000E+00  0.2349E+15
   -0.979970    3.67766  0.0000E+00  0.1207E-12  0.1198E-15  0.1000E-09  0.0000E+00  0.1901E+15
   -1.014969    3.71966  0.0000E+00  0.3951E-12  0.2668E-15  0.1000E-09  0.0000E+00  0.1552E+15
   -1.049968    3.75966  0.0000E+00  0.1148E-11  0.7267E-15  0.1000E-09  0.0000E+00  0.1255E+15
   -1.084967    3.79817  0.0000E+00  0.3231E-11  0.2007E-14  0.1000E-09  0.0000E+00  0.1002E+15
   -1.119966    3.83583  0.0000E+00  0.8914E-11  0.5490E-14  0.1728E-09  0.0000E+00  0.7492E+14
   -1.154964    3.87183  0.0000E+00  0.2440E-10  0.1500E-13  0.6425E-09  0.0000E+00  0.5314E+14
   -1.189963    3.90669  0.0000E+00  0.6682E-10  0.4140E-13  0.2587E-08  0.0000E+00  0.3403E+14
   -1.224961    3.94150  0.0000E+00  0.1909E-09  0.1213E-12  0.1367E-07  0.0000E+00  0.1548E+14
   -1.259958    3.97921  0.0000E+00  0.5589E-09  0.3825E-12  0.1504E-06  0.0000E+00 -0.3132E+13
   -1.294956    4.00826  0.0000E+00  0.1456E-08  0.1288E-11  0.5388E-06  0.0000E+00 -0.1060E+14
   -1.329953    4.02918  0.0000E+00  0.2335E-08  0.2932E-11  0.6027E-06  0.0000E+00 -0.2125E+14
   -1.364950    4.05378  0.0000E+00  0.2938E-08  0.6983E-11  0.3788E-06  0.0000E+00 -0.7350E+14
   -1.399946    4.10442  0.0000E+00  0.0000E+00  0.0000E+00  0.0000E+00  0.0000E+00  0.0000E+00
