 1 - depth, m
 2 - temperature, C
 3 - salinity, kg/kg
 4 - turbulent kinetic energy, m**2/s**2
 5 - dissipation rate, m**2/s**3
 6 - kinematic heat conductance, m**2/s
 7 - modulus of horizontal velocity, m/s
 8 - Richardson number, n/d
   -0.000000    7.06678  0.0000E+00  0.2548E-03  0.2464E-03  0.5689E-04  0.1709E+00 -0.1331E-01
   -0.034998    7.11680  0.0000E+00  0.1395E-03  0.6870E-04  0.1167E-03  0.5253E-01 -0.8876E-02
   -0.069996    7.12684  0.0000E+00  0.9841E-04  0.2639E-04  0.1388E-03  0.3402E-01 -0.1097E-01
   -0.104995    7.13335  0.0000E+00  0.7843E-04  0.1452E-04  0.1416E-03  0.2735E-01 -0.6138E-02
   -0.139993    7.13757  0.0000E+00  0.6500E-04  0.8606E-05  0.1465E-03  0.2295E-01 -0.6821E-02
   -0.174992    7.14078  0.0000E+00  0.5521E-04  0.5310E-05  0.1527E-03  0.1951E-01 -0.7453E-02
   -0.209992    7.14347  0.0000E+00  0.4783E-04  0.3371E-05  0.1591E-03  0.1665E-01 -0.1358E-01
   -0.244991    7.14581  0.0000E+00  0.4208E-04  0.2202E-05  0.1643E-03  0.1421E-01 -0.1015E-01
   -0.279991    7.14798  0.0000E+00  0.3730E-04  0.1482E-05  0.1661E-03  0.1203E-01 -0.1435E-01
   -0.314991    7.15019  0.0000E+00  0.3294E-04  0.1024E-05  0.1737E-03  0.9916E-02 -0.1806E-01
   -0.349991    7.15222  0.0000E+00  0.2923E-04  0.7293E-06  0.1794E-03  0.8274E-02 -0.4117E-01
   -0.384992    7.15416  0.0000E+00  0.2608E-04  0.5353E-06  0.1839E-03  0.6933E-02  0.9835E+00
   -0.419992    7.15601  0.0000E+00  0.2346E-04  0.4061E-06  0.1855E-03  0.5808E-02  0.7231E+01
   -0.454993    7.15787  0.0000E+00  0.2122E-04  0.3178E-06  0.1859E-03  0.4785E-02  0.9113E+01
   -0.489994    7.15973  0.0000E+00  0.1926E-04  0.2566E-06  0.1878E-03  0.3838E-02  0.1005E+01
   -0.524995    7.16156  0.0000E+00  0.1742E-04  0.2099E-06  0.1951E-03  0.3003E-02  0.3800E+02
   -0.559996    7.16323  0.0000E+00  0.1565E-04  0.1720E-06  0.2007E-03  0.2394E-02  0.1236E+02
   -0.594997    7.16472  0.0000E+00  0.1376E-04  0.1365E-06  0.2022E-03  0.1994E-02  0.1497E+04
   -0.629998    7.16602  0.0000E+00  0.1211E-04  0.1084E-06  0.2020E-03  0.1756E-02  0.1091E+04
   -0.664999    7.16740  0.0000E+00  0.1073E-04  0.8701E-07  0.2067E-03  0.1532E-02  0.2307E+03
   -0.700000    7.16876  0.0000E+00  0.9575E-05  0.7057E-07  0.2167E-03  0.1326E-02  0.1614E+05
   -0.735001    7.17008  0.0000E+00  0.8594E-05  0.5774E-07  0.2308E-03  0.1140E-02  0.3430E+04
   -0.770002    7.17134  0.0000E+00  0.7759E-05  0.4766E-07  0.2491E-03  0.9762E-03  0.2545E+04
   -0.805004    7.17251  0.0000E+00  0.7050E-05  0.3969E-07  0.2804E-03  0.8325E-03  0.6536E+03
   -0.840005    7.17358  0.0000E+00  0.6453E-05  0.3344E-07  0.3095E-03  0.7085E-03  0.1841E+04
   -0.875006    7.17455  0.0000E+00  0.5949E-05  0.2849E-07  0.3391E-03  0.6021E-03  0.2146E+04
   -0.910007    7.17543  0.0000E+00  0.5526E-05  0.2459E-07  0.3660E-03  0.5120E-03  0.1752E+03
   -0.945007    7.17623  0.0000E+00  0.5174E-05  0.2156E-07  0.3878E-03  0.4344E-03  0.1087E+04
   -0.980008    7.17698  0.0000E+00  0.4879E-05  0.1919E-07  0.4026E-03  0.3672E-03  0.4841E+03
   -1.015009    7.17769  0.0000E+00  0.4630E-05  0.1735E-07  0.4090E-03  0.3084E-03  0.2985E+03
   -1.050009    7.17838  0.0000E+00  0.4417E-05  0.1592E-07  0.4091E-03  0.2583E-03  0.4272E+03
   -1.085009    7.17906  0.0000E+00  0.4234E-05  0.1483E-07  0.4050E-03  0.2166E-03  0.6167E+03
   -1.120009    7.17975  0.0000E+00  0.4078E-05  0.1406E-07  0.3973E-03  0.1822E-03  0.9581E+03
   -1.155009    7.18044  0.0000E+00  0.3944E-05  0.1359E-07  0.3865E-03  0.1525E-03  0.1420E+04
   -1.190009    7.18116  0.0000E+00  0.3827E-05  0.1345E-07  0.3682E-03  0.1264E-03  0.2124E+04
   -1.225008    7.18192  0.0000E+00  0.3712E-05  0.1371E-07  0.3488E-03  0.1029E-03  0.3198E+04
   -1.260007    7.18275  0.0000E+00  0.3575E-05  0.1481E-07  0.3081E-03  0.8291E-04  0.5843E+04
   -1.295006    7.18376  0.0000E+00  0.3339E-05  0.1819E-07  0.2680E-03  0.6527E-04  0.1741E+05
   -1.330004    7.18487  0.0000E+00  0.2956E-05  0.2747E-07  0.1537E-03  0.5417E-04  0.4588E+06
   -1.365002    7.18774  0.0000E+00  0.1860E-05  0.7192E-07  0.2015E-04  0.4030E-04 -0.8596E+09
   -1.400000    7.20591  0.0000E+00  0.0000E+00  0.0000E+00  0.0000E+00  0.4483E-04  0.0000E+00
