 1 - depth, m
 2 - temperature, C
 3 - salinity, kg/kg
 4 - turbulent kinetic energy, m**2/s**2
 5 - dissipation rate, m**2/s**3
 6 - kinematic heat conductance, m**2/s
 7 - modulus of horizontal velocity, m/s
 8 - Richardson number, n/d
   -0.000000    0.00000  0.0000E+00  0.4702E-13  0.1132E-15  0.1000E-09  0.0000E+00  0.8360E+16
   -0.034998    0.12758  0.0000E+00  0.4702E-13  0.1132E-15  0.1000E-09  0.0000E+00  0.8173E+16
   -0.069996    0.25682  0.0000E+00  0.4702E-13  0.1132E-15  0.1000E-09  0.0000E+00  0.7983E+16
   -0.104994    0.38783  0.0000E+00  0.4702E-13  0.1132E-15  0.1000E-09  0.0000E+00  0.7678E+16
   -0.139993    0.51880  0.0000E+00  0.4702E-13  0.1132E-15  0.1000E-09  0.0000E+00  0.7316E+16
   -0.174991    0.64866  0.0000E+00  0.4702E-13  0.1132E-15  0.1000E-09  0.0000E+00  0.6963E+16
   -0.209991    0.77742  0.0000E+00  0.4702E-13  0.1132E-15  0.1000E-09  0.0000E+00  0.6618E+16
   -0.244990    0.90506  0.0000E+00  0.4702E-13  0.1132E-15  0.1000E-09  0.0000E+00  0.6280E+16
   -0.279990    1.03154  0.0000E+00  0.4702E-13  0.1132E-15  0.1000E-09  0.0000E+00  0.5948E+16
   -0.314989    1.15683  0.0000E+00  0.4702E-13  0.1132E-15  0.1000E-09  0.0000E+00  0.5609E+16
   -0.349989    1.28054  0.0000E+00  0.4702E-13  0.1132E-15  0.1000E-09  0.0000E+00  0.5273E+16
   -0.384990    1.40249  0.0000E+00  0.4702E-13  0.1132E-15  0.1000E-09  0.0000E+00  0.4942E+16
   -0.419990    1.52251  0.0000E+00  0.4702E-13  0.1132E-15  0.1000E-09  0.0000E+00  0.4640E+16
   -0.454990    1.64101  0.0000E+00  0.4702E-13  0.1132E-15  0.1000E-09  0.0000E+00  0.4358E+16
   -0.489991    1.75828  0.0000E+00  0.4702E-13  0.1132E-15  0.1000E-09  0.0000E+00  0.4076E+16
   -0.524992    1.87407  0.0000E+00  0.4702E-13  0.1132E-15  0.1000E-09  0.0000E+00  0.3770E+16
   -0.559992    1.98734  0.0000E+00  0.4702E-13  0.1132E-15  0.1000E-09  0.0000E+00  0.3435E+16
   -0.594993    2.09664  0.0000E+00  0.4702E-13  0.1132E-15  0.1000E-09  0.0000E+00  0.3094E+16
   -0.629994    2.20101  0.0000E+00  0.4702E-13  0.1132E-15  0.1000E-09  0.0000E+00  0.2858E+16
   -0.664995    2.30334  0.0000E+00  0.4702E-13  0.1132E-15  0.1000E-09  0.0000E+00  0.2630E+16
   -0.699996    2.40350  0.0000E+00  0.4702E-13  0.1132E-15  0.1000E-09  0.0000E+00  0.2406E+16
   -0.734997    2.50121  0.0000E+00  0.4702E-13  0.1132E-15  0.1000E-09  0.0000E+00  0.2201E+16
   -0.769998    2.59673  0.0000E+00  0.4702E-13  0.1132E-15  0.1000E-09  0.0000E+00  0.2029E+16
   -0.804999    2.69118  0.0000E+00  0.4702E-13  0.1132E-15  0.1000E-09  0.0000E+00  0.1861E+16
   -0.840000    2.78447  0.0000E+00  0.4702E-13  0.1132E-15  0.1000E-09  0.0000E+00  0.1697E+16
   -0.875001    2.87652  0.0000E+00  0.4702E-13  0.1132E-15  0.1000E-09  0.0000E+00  0.1538E+16
   -0.910001    2.96718  0.0000E+00  0.4702E-13  0.1132E-15  0.1000E-09  0.0000E+00  0.1383E+16
   -0.945002    3.05640  0.0000E+00  0.4702E-13  0.1132E-15  0.1000E-09  0.0000E+00  0.1234E+16
   -0.980003    3.14402  0.0000E+00  0.4702E-13  0.1132E-15  0.1000E-09  0.0000E+00  0.1089E+16
   -1.015003    3.22989  0.0000E+00  0.4702E-13  0.1132E-15  0.1000E-09  0.0000E+00  0.9470E+15
   -1.050003    3.31353  0.0000E+00  0.4702E-13  0.1132E-15  0.1000E-09  0.0000E+00  0.8139E+15
   -1.085003    3.39492  0.0000E+00  0.4702E-13  0.1132E-15  0.1000E-09  0.0000E+00  0.7065E+15
   -1.120003    3.47609  0.0000E+00  0.4702E-13  0.1132E-15  0.1000E-09  0.0000E+00  0.5987E+15
   -1.155003    3.55683  0.0000E+00  0.1719E-12  0.2314E-15  0.1000E-09  0.0000E+00  0.4930E+15
   -1.190002    3.63717  0.0000E+00  0.7123E-12  0.8929E-15  0.1000E-09  0.0000E+00  0.3898E+15
   -1.225001    3.71728  0.0000E+00  0.3039E-11  0.3755E-14  0.1000E-09  0.0000E+00  0.2900E+15
   -1.260000    3.79794  0.0000E+00  0.1371E-10  0.1690E-13  0.1943E-09  0.0000E+00  0.1907E+15
   -1.294998    3.88052  0.0000E+00  0.7170E-10  0.8962E-13  0.1940E-08  0.0000E+00  0.8477E+14
   -1.329997    3.96683  0.0000E+00  0.2972E-09  0.3943E-12  0.4560E-07  0.0000E+00 -0.1550E+14
   -1.364995    4.03490  0.0000E+00  0.8031E-09  0.1551E-11  0.1487E-06  0.0000E+00 -0.5298E+14
   -1.399992    4.08187  0.0000E+00  0.0000E+00  0.0000E+00  0.0000E+00  0.0000E+00  0.0000E+00
