 1 - depth, m
 2 - temperature, C
 3 - salinity, kg/kg
 4 - turbulent kinetic energy, m**2/s**2
 5 - dissipation rate, m**2/s**3
 6 - kinematic heat conductance, m**2/s
 7 - modulus of horizontal velocity, m/s
 8 - Richardson number, n/d
   -0.000000    7.88058  0.0000E+00  0.1199E-03  0.5392E-04  0.4560E-04  0.1048E+00 -0.6064E-01
   -0.034998    7.91559  0.0000E+00  0.7088E-04  0.1523E-04  0.7823E-04  0.3571E-01 -0.1259E-01
   -0.069996    7.92075  0.0000E+00  0.5239E-04  0.6319E-05  0.8732E-04  0.2542E-01 -0.4775E-02
   -0.104994    7.92440  0.0000E+00  0.4233E-04  0.3312E-05  0.9610E-04  0.2070E-01 -0.7859E-02
   -0.139993    7.92731  0.0000E+00  0.3544E-04  0.1917E-05  0.1055E-03  0.1727E-01 -0.2851E-01
   -0.174992    7.92980  0.0000E+00  0.3044E-04  0.1198E-05  0.1146E-03  0.1453E-01 -0.1081E-01
   -0.209991    7.93202  0.0000E+00  0.2666E-04  0.7974E-06  0.1225E-03  0.1226E-01 -0.1291E-01
   -0.244991    7.93402  0.0000E+00  0.2367E-04  0.5583E-06  0.1287E-03  0.1030E-01 -0.1504E-01
   -0.279991    7.93589  0.0000E+00  0.2109E-04  0.4053E-06  0.1317E-03  0.8575E-02 -0.1679E-01
   -0.314991    7.93768  0.0000E+00  0.1865E-04  0.2989E-06  0.1390E-03  0.6977E-02 -0.2563E-01
   -0.349991    7.93934  0.0000E+00  0.1650E-04  0.2251E-06  0.1445E-03  0.5698E-02 -0.3907E-01
   -0.384991    7.94090  0.0000E+00  0.1466E-04  0.1730E-06  0.1489E-03  0.4656E-02 -0.5896E-01
   -0.419992    7.94239  0.0000E+00  0.1313E-04  0.1362E-06  0.1511E-03  0.3792E-02 -0.3312E-01
   -0.454992    7.94384  0.0000E+00  0.1182E-04  0.1095E-06  0.1525E-03  0.3029E-02  0.8763E+01
   -0.489993    7.94525  0.0000E+00  0.1070E-04  0.8984E-07  0.1547E-03  0.2342E-02 -0.9343E-01
   -0.524994    7.94662  0.0000E+00  0.9656E-05  0.7418E-07  0.1613E-03  0.1745E-02 -0.1641E+00
   -0.559995    7.94791  0.0000E+00  0.8655E-05  0.6102E-07  0.1670E-03  0.1318E-02  0.7269E+01
   -0.594996    7.94912  0.0000E+00  0.7587E-05  0.4845E-07  0.1775E-03  0.1043E-02  0.3037E+03
   -0.629997    7.95023  0.0000E+00  0.6677E-05  0.3859E-07  0.2035E-03  0.8848E-03  0.8282E+03
   -0.664998    7.95123  0.0000E+00  0.5945E-05  0.3124E-07  0.2374E-03  0.7466E-03  0.9533E+03
   -0.699999    7.95210  0.0000E+00  0.5354E-05  0.2572E-07  0.2616E-03  0.6280E-03  0.6549E+03
   -0.735000    7.95288  0.0000E+00  0.4871E-05  0.2149E-07  0.2859E-03  0.5262E-03  0.3806E+03
   -0.770001    7.95359  0.0000E+00  0.4475E-05  0.1823E-07  0.3004E-03  0.4418E-03  0.1169E+04
   -0.805003    7.95425  0.0000E+00  0.4148E-05  0.1569E-07  0.3148E-03  0.3714E-03  0.6152E+03
   -0.840004    7.95486  0.0000E+00  0.3880E-05  0.1372E-07  0.3298E-03  0.3131E-03  0.7247E+02
   -0.875004    7.95544  0.0000E+00  0.3661E-05  0.1218E-07  0.3442E-03  0.2648E-03  0.2118E+03
   -0.910005    7.95598  0.0000E+00  0.3479E-05  0.1098E-07  0.3515E-03  0.2256E-03  0.5991E+02
   -0.945006    7.95650  0.0000E+00  0.3328E-05  0.1003E-07  0.3574E-03  0.1922E-03  0.1235E+03
   -0.980007    7.95700  0.0000E+00  0.3201E-05  0.9289E-08  0.3612E-03  0.1635E-03  0.1880E+03
   -1.015007    7.95750  0.0000E+00  0.3094E-05  0.8708E-08  0.3615E-03  0.1386E-03  0.1543E+03
   -1.050008    7.95799  0.0000E+00  0.3000E-05  0.8247E-08  0.3597E-03  0.1175E-03  0.2301E+03
   -1.085008    7.95849  0.0000E+00  0.2914E-05  0.7888E-08  0.3557E-03  0.9942E-04  0.3738E+03
   -1.120008    7.95898  0.0000E+00  0.2836E-05  0.7630E-08  0.3490E-03  0.8402E-04  0.6284E+03
   -1.155007    7.95949  0.0000E+00  0.2766E-05  0.7481E-08  0.3401E-03  0.7020E-04  0.1016E+04
   -1.190007    7.96000  0.0000E+00  0.2702E-05  0.7466E-08  0.3261E-03  0.5775E-04  0.1634E+04
   -1.225006    7.96054  0.0000E+00  0.2637E-05  0.7641E-08  0.3103E-03  0.4630E-04  0.2633E+04
   -1.260005    7.96112  0.0000E+00  0.2557E-05  0.8232E-08  0.2767E-03  0.3656E-04  0.5087E+04
   -1.295004    7.96182  0.0000E+00  0.2411E-05  0.1009E-07  0.2378E-03  0.2816E-04  0.1512E+05
   -1.330002    7.96262  0.0000E+00  0.2160E-05  0.1522E-07  0.1429E-03  0.2304E-04  0.4497E+06
   -1.365001    7.96463  0.0000E+00  0.1384E-05  0.4101E-07  0.1678E-04  0.1659E-04 -0.5007E+09
   -1.399998    7.97821  0.0000E+00  0.0000E+00  0.0000E+00  0.0000E+00  0.1825E-04  0.0000E+00
