 1 - depth, m
 2 - temperature, C
 3 - salinity, kg/kg
 4 - turbulent kinetic energy, m**2/s**2
 5 - dissipation rate, m**2/s**3
 6 - kinematic heat conductance, m**2/s
 7 - modulus of horizontal velocity, m/s
 8 - Richardson number, n/d
   -0.000000   16.58937  0.0000E+00  0.7918E-05  0.3755E-06  0.1708E-04  0.1268E-01 -0.4386E-01
   -0.034998   16.61015  0.0000E+00  0.6994E-05  0.1554E-06  0.3607E-04  0.7381E-02 -0.1086E+00
   -0.069996   16.61964  0.0000E+00  0.6382E-05  0.8793E-07  0.6154E-04  0.5092E-02 -0.1871E+00
   -0.104994   16.62506  0.0000E+00  0.6032E-05  0.5917E-07  0.1264E-03  0.3829E-02  0.1186E+03
   -0.139993   16.62793  0.0000E+00  0.5887E-05  0.4604E-07  0.2508E-03  0.3102E-02  0.4798E+01
   -0.174992   16.62926  0.0000E+00  0.5874E-05  0.3843E-07  0.2843E-03  0.2672E-02  0.3669E+01
   -0.209991   16.63045  0.0000E+00  0.5912E-05  0.3276E-07  0.3157E-03  0.2255E-02  0.3957E+01
   -0.244991   16.63155  0.0000E+00  0.5978E-05  0.2865E-07  0.3338E-03  0.1896E-02  0.3997E+01
   -0.279991   16.63261  0.0000E+00  0.6052E-05  0.2547E-07  0.3521E-03  0.1570E-02  0.4227E+01
   -0.314990   16.63365  0.0000E+00  0.6114E-05  0.2291E-07  0.3868E-03  0.1270E-02  0.3191E+01
   -0.349991   16.63460  0.0000E+00  0.6164E-05  0.2087E-07  0.4258E-03  0.1023E-02  0.2555E+01
   -0.384991   16.63546  0.0000E+00  0.6204E-05  0.1925E-07  0.4672E-03  0.8233E-03  0.2188E+01
   -0.419991   16.63626  0.0000E+00  0.6232E-05  0.1796E-07  0.5009E-03  0.6620E-03  0.2092E+01
   -0.454992   16.63701  0.0000E+00  0.6240E-05  0.1692E-07  0.5342E-03  0.5233E-03  0.2047E+01
   -0.489993   16.63774  0.0000E+00  0.6223E-05  0.1605E-07  0.5705E-03  0.4026E-03  0.1883E+01
   -0.524994   16.63843  0.0000E+00  0.6177E-05  0.1529E-07  0.6565E-03  0.3009E-03  0.1419E+01
   -0.559995   16.63897  0.0000E+00  0.6116E-05  0.1463E-07  0.7839E-03  0.2320E-03  0.1016E+01
   -0.594996   16.63934  0.0000E+00  0.6055E-05  0.1408E-07  0.8065E-03  0.1919E-03  0.7283E+00
   -0.629997   16.63959  0.0000E+00  0.6017E-05  0.1374E-07  0.8117E-03  0.1715E-03  0.7034E+00
   -0.664998   16.63986  0.0000E+00  0.5990E-05  0.1351E-07  0.8129E-03  0.1568E-03  0.7145E+00
   -0.699999   16.64013  0.0000E+00  0.5969E-05  0.1336E-07  0.8148E-03  0.1438E-03  0.7413E+00
   -0.735000   16.64042  0.0000E+00  0.5951E-05  0.1327E-07  0.8142E-03  0.1322E-03  0.8067E+00
   -0.770001   16.64072  0.0000E+00  0.5936E-05  0.1324E-07  0.8113E-03  0.1218E-03  0.9389E+00
   -0.805002   16.64103  0.0000E+00  0.5922E-05  0.1326E-07  0.8055E-03  0.1122E-03  0.1135E+01
   -0.840003   16.64135  0.0000E+00  0.5908E-05  0.1335E-07  0.7966E-03  0.1032E-03  0.1387E+01
   -0.875004   16.64169  0.0000E+00  0.5894E-05  0.1349E-07  0.7840E-03  0.9479E-04  0.1712E+01
   -0.910005   16.64205  0.0000E+00  0.5879E-05  0.1371E-07  0.7675E-03  0.8691E-04  0.2153E+01
   -0.945005   16.64243  0.0000E+00  0.5861E-05  0.1401E-07  0.7469E-03  0.7941E-04  0.2709E+01
   -0.980006   16.64285  0.0000E+00  0.5839E-05  0.1441E-07  0.7216E-03  0.7222E-04  0.3432E+01
   -1.015007   16.64331  0.0000E+00  0.5810E-05  0.1494E-07  0.6935E-03  0.6528E-04  0.4434E+01
   -1.050007   16.64381  0.0000E+00  0.5773E-05  0.1564E-07  0.6553E-03  0.5871E-04  0.6172E+01
   -1.085007   16.64436  0.0000E+00  0.5722E-05  0.1661E-07  0.6207E-03  0.5245E-04  0.8966E+01
   -1.120007   16.64496  0.0000E+00  0.5657E-05  0.1798E-07  0.5647E-03  0.4659E-04  0.1451E+02
   -1.155007   16.64568  0.0000E+00  0.5571E-05  0.1991E-07  0.5329E-03  0.4072E-04  0.2524E+02
   -1.190006   16.64649  0.0000E+00  0.5452E-05  0.2308E-07  0.4584E-03  0.3520E-04 -0.5613E+04
   -1.225005   16.64769  0.0000E+00  0.5272E-05  0.2836E-07  0.4350E-03  0.2951E-04 -0.8173E+03
   -1.260004   16.64896  0.0000E+00  0.4965E-05  0.4002E-07  0.3297E-03  0.2361E-04 -0.1663E+06
   -1.295003   16.65240  0.0000E+00  0.4390E-05  0.6943E-07  0.2995E-03  0.1708E-04  0.3378E+06
   -1.330002   16.65271  0.0000E+00  0.3565E-05  0.1515E-06  0.1315E-03  0.1408E-04 -0.2446E+05
   -1.365000   16.66740  0.0000E+00  0.2428E-05  0.3602E-06  0.7965E-04  0.8873E-05 -0.1868E+07
   -1.399997   16.67470  0.0000E+00  0.0000E+00  0.0000E+00  0.0000E+00  0.1262E-04  0.0000E+00
