 1 - depth, m
 2 - temperature, C
 3 - salinity, kg/kg
 4 - turbulent kinetic energy, m**2/s**2
 5 - dissipation rate, m**2/s**3
 6 - kinematic heat conductance, m**2/s
 7 - modulus of horizontal velocity, m/s
 8 - Richardson number, n/d
   -0.000000   10.84919  0.0000E+00  0.1592E-03  0.8329E-04  0.5416E-04  0.1241E+00 -0.7682E-03
   -0.034998   10.88730  0.0000E+00  0.9323E-04  0.2374E-04  0.9581E-04  0.4077E-01 -0.1536E-01
   -0.069997   10.89339  0.0000E+00  0.6856E-04  0.9770E-05  0.1065E-03  0.2829E-01 -0.5106E+00
   -0.104995   10.89749  0.0000E+00  0.5541E-04  0.5185E-05  0.1148E-03  0.2305E-01 -0.2270E-01
   -0.139995   10.90048  0.0000E+00  0.4652E-04  0.3023E-05  0.1245E-03  0.1938E-01 -0.1567E-01
   -0.174994   10.90296  0.0000E+00  0.4002E-04  0.1886E-05  0.1345E-03  0.1646E-01 -0.1674E-01
   -0.209994   10.90514  0.0000E+00  0.3510E-04  0.1246E-05  0.1437E-03  0.1402E-01 -0.1963E-01
   -0.244994   10.90711  0.0000E+00  0.3121E-04  0.8660E-06  0.1512E-03  0.1191E-01 -0.2194E-01
   -0.279994   10.90894  0.0000E+00  0.2791E-04  0.6268E-06  0.1556E-03  0.1004E-01 -0.2327E-01
   -0.314994   10.91071  0.0000E+00  0.2485E-04  0.4651E-06  0.1651E-03  0.8290E-02  0.1089E+01
   -0.349994   10.91233  0.0000E+00  0.2217E-04  0.3537E-06  0.1727E-03  0.6880E-02 -0.1088E-01
   -0.384995   10.91385  0.0000E+00  0.1988E-04  0.2750E-06  0.1791E-03  0.5715E-02 -0.2860E-01
   -0.419996   10.91530  0.0000E+00  0.1796E-04  0.2187E-06  0.1827E-03  0.4734E-02  0.1451E+00
   -0.454997   10.91669  0.0000E+00  0.1631E-04  0.1776E-06  0.1855E-03  0.3859E-02  0.2559E+00
   -0.489998   10.91805  0.0000E+00  0.1487E-04  0.1472E-06  0.1896E-03  0.3063E-02  0.2161E+00
   -0.524999   10.91936  0.0000E+00  0.1352E-04  0.1226E-06  0.1986E-03  0.2364E-02  0.5181E+00
   -0.560001   10.92058  0.0000E+00  0.1221E-04  0.1017E-06  0.2115E-03  0.1850E-02  0.2076E+02
   -0.595002   10.92169  0.0000E+00  0.1081E-04  0.8165E-07  0.2390E-03  0.1509E-02  0.4177E+02
   -0.630004   10.92267  0.0000E+00  0.9615E-05  0.6586E-07  0.2896E-03  0.1305E-02  0.2986E+03
   -0.665005   10.92352  0.0000E+00  0.8652E-05  0.5398E-07  0.3402E-03  0.1125E-02  0.1593E+03
   -0.700006   10.92426  0.0000E+00  0.7864E-05  0.4492E-07  0.3756E-03  0.9679E-03  0.3711E+03
   -0.735008   10.92491  0.0000E+00  0.7211E-05  0.3789E-07  0.4053E-03  0.8305E-03  0.3162E+02
   -0.770009   10.92549  0.0000E+00  0.6668E-05  0.3241E-07  0.4282E-03  0.7125E-03  0.5586E+02
   -0.805011   10.92602  0.0000E+00  0.6210E-05  0.2807E-07  0.4423E-03  0.6122E-03  0.1120E+02
   -0.840012   10.92652  0.0000E+00  0.5823E-05  0.2462E-07  0.4495E-03  0.5258E-03  0.1488E+02
   -0.875014   10.92700  0.0000E+00  0.5494E-05  0.2186E-07  0.4525E-03  0.4515E-03  0.1113E+02
   -0.910015   10.92748  0.0000E+00  0.5213E-05  0.1964E-07  0.4531E-03  0.3882E-03  0.3711E+01
   -0.945016   10.92794  0.0000E+00  0.4974E-05  0.1788E-07  0.4517E-03  0.3331E-03  0.4448E+01
   -0.980017   10.92841  0.0000E+00  0.4771E-05  0.1651E-07  0.4484E-03  0.2845E-03  0.5558E+01
   -1.015018   10.92888  0.0000E+00  0.4597E-05  0.1544E-07  0.4435E-03  0.2416E-03  0.7111E+01
   -1.050018   10.92936  0.0000E+00  0.4445E-05  0.1464E-07  0.4365E-03  0.2052E-03  0.9812E+01
   -1.085019   10.92984  0.0000E+00  0.4310E-05  0.1406E-07  0.4278E-03  0.1747E-03  0.1392E+02
   -1.120019   10.93033  0.0000E+00  0.4188E-05  0.1369E-07  0.4155E-03  0.1491E-03  0.2067E+02
   -1.155019   10.93083  0.0000E+00  0.4077E-05  0.1356E-07  0.4021E-03  0.1263E-03  0.2939E+02
   -1.190019   10.93135  0.0000E+00  0.3970E-05  0.1376E-07  0.3777E-03  0.1056E-03  0.4188E+02
   -1.225019   10.93192  0.0000E+00  0.3855E-05  0.1446E-07  0.3562E-03  0.8576E-04  0.5763E+02
   -1.260018   10.93254  0.0000E+00  0.3701E-05  0.1642E-07  0.3050E-03  0.6858E-04 -0.1613E+03
   -1.295017   10.93343  0.0000E+00  0.3404E-05  0.2215E-07  0.2519E-03  0.5221E-04  0.6068E+03
   -1.330016   10.93427  0.0000E+00  0.2939E-05  0.3762E-07  0.1592E-03  0.4268E-04  0.5968E+04
   -1.365015   10.93742  0.0000E+00  0.1909E-05  0.9795E-07  0.3106E-04  0.3073E-04 -0.5033E+07
   -1.400013   10.94796  0.0000E+00  0.0000E+00  0.0000E+00  0.0000E+00  0.3677E-04  0.0000E+00
