 1 - depth, m
 2 - temperature, C
 3 - salinity, kg/kg
 4 - turbulent kinetic energy, m**2/s**2
 5 - dissipation rate, m**2/s**3
 6 - kinematic heat conductance, m**2/s
 7 - modulus of horizontal velocity, m/s
 8 - Richardson number, n/d
   -0.000000    0.00000  0.0000E+00  0.4701E-13  0.1132E-15  0.1000E-09  0.0000E+00  0.1013E+17
   -0.034998    0.15515  0.0000E+00  0.4701E-13  0.1132E-15  0.1000E-09  0.0000E+00  0.9551E+16
   -0.069996    0.30790  0.0000E+00  0.4701E-13  0.1132E-15  0.1000E-09  0.0000E+00  0.9159E+16
   -0.104995    0.46098  0.0000E+00  0.4701E-13  0.1132E-15  0.1000E-09  0.0000E+00  0.8765E+16
   -0.139994    0.61436  0.0000E+00  0.4701E-13  0.1132E-15  0.1000E-09  0.0000E+00  0.8358E+16
   -0.174993    0.76782  0.0000E+00  0.4701E-13  0.1132E-15  0.1000E-09  0.0000E+00  0.7967E+16
   -0.209992    0.92165  0.0000E+00  0.4701E-13  0.1132E-15  0.1000E-09  0.0000E+00  0.7591E+16
   -0.244992    1.07619  0.0000E+00  0.4701E-13  0.1132E-15  0.1000E-09  0.0000E+00  0.7232E+16
   -0.279992    1.23189  0.0000E+00  0.4701E-13  0.1132E-15  0.1000E-09  0.0000E+00  0.6898E+16
   -0.314992    1.38953  0.0000E+00  0.4701E-13  0.1132E-15  0.1000E-09  0.0000E+00  0.6319E+16
   -0.349992    1.54326  0.0000E+00  0.4701E-13  0.1132E-15  0.1000E-09  0.0000E+00  0.5762E+16
   -0.384993    1.69281  0.0000E+00  0.4701E-13  0.1132E-15  0.1000E-09  0.0000E+00  0.5252E+16
   -0.419994    1.83855  0.0000E+00  0.4701E-13  0.1132E-15  0.1000E-09  0.0000E+00  0.4952E+16
   -0.454994    1.98607  0.0000E+00  0.4701E-13  0.1132E-15  0.1000E-09  0.0000E+00  0.4753E+16
   -0.489995    2.13920  0.0000E+00  0.4720E-13  0.1132E-15  0.1000E-09  0.0000E+00  0.4489E+16
   -0.524996    2.29704  0.0000E+00  0.6260E-13  0.1137E-15  0.1000E-09  0.0000E+00  0.3772E+16
   -0.559997    2.44244  0.0000E+00  0.1282E-12  0.1254E-15  0.1000E-09  0.0000E+00  0.2840E+16
   -0.594999    2.56162  0.0000E+00  0.3311E-12  0.1753E-15  0.1000E-09  0.0000E+00  0.1914E+16
   -0.630000    2.64764  0.0000E+00  0.7675E-12  0.2914E-15  0.1000E-09  0.0000E+00  0.1926E+16
   -0.665001    2.74052  0.0000E+00  0.1680E-11  0.5416E-15  0.1000E-09  0.0000E+00  0.1861E+16
   -0.700002    2.83765  0.0000E+00  0.3593E-11  0.1066E-14  0.1000E-09  0.0000E+00  0.1730E+16
   -0.735004    2.93624  0.0000E+00  0.7620E-11  0.2155E-14  0.1000E-09  0.0000E+00  0.1562E+16
   -0.770005    3.03417  0.0000E+00  0.1604E-10  0.4394E-14  0.1000E-09  0.0000E+00  0.1390E+16
   -0.805006    3.13088  0.0000E+00  0.3356E-10  0.8964E-14  0.1000E-09  0.0000E+00  0.1220E+16
   -0.840007    3.22606  0.0000E+00  0.6965E-10  0.1820E-13  0.1130E-09  0.0000E+00  0.1055E+16
   -0.875008    3.31941  0.0000E+00  0.1438E-09  0.3681E-13  0.1607E-09  0.0000E+00  0.8936E+15
   -0.910010    3.41047  0.0000E+00  0.2948E-09  0.7401E-13  0.2875E-09  0.0000E+00  0.7627E+15
   -0.945010    3.50204  0.0000E+00  0.5980E-09  0.1474E-12  0.5985E-09  0.0000E+00  0.6434E+15
   -0.980011    3.59695  0.0000E+00  0.1205E-08  0.2917E-12  0.1457E-08  0.0000E+00  0.5184E+15
   -1.015012    3.69956  0.0000E+00  0.2404E-08  0.5730E-12  0.8381E-08  0.0000E+00  0.3422E+15
   -1.050012    3.80857  0.0000E+00  0.3605E-08  0.8714E-12  0.3327E-05  0.0000E+00  0.1866E+15
   -1.085013    3.88849  0.0000E+00  0.4660E-08  0.1158E-11  0.6385E-05  0.0000E+00  0.9946E+14
   -1.120013    3.94449  0.0000E+00  0.5563E-08  0.1436E-11  0.8485E-05  0.0000E+00  0.4608E+14
   -1.155013    3.98196  0.0000E+00  0.6321E-08  0.1711E-11  0.9744E-05  0.0000E+00  0.1452E+14
   -1.190012    4.00529  0.0000E+00  0.6941E-08  0.1996E-11  0.1023E-04  0.0000E+00 -0.4244E+12
   -1.225012    4.01662  0.0000E+00  0.7451E-08  0.2337E-11  0.1015E-04  0.0000E+00 -0.1702E+13
   -1.260011    4.02038  0.0000E+00  0.7813E-08  0.2827E-11  0.9017E-05  0.0000E+00 -0.2181E+13
   -1.295010    4.02446  0.0000E+00  0.8019E-08  0.3950E-11  0.6090E-05  0.0000E+00 -0.3788E+13
   -1.330009    4.03047  0.0000E+00  0.7744E-08  0.6449E-11  0.2886E-05  0.0000E+00 -0.9485E+13
   -1.365007    4.04256  0.0000E+00  0.6329E-08  0.1489E-10  0.6655E-06  0.0000E+00 -0.5791E+14
   -1.400005    4.08886  0.0000E+00  0.0000E+00  0.0000E+00  0.0000E+00  0.0000E+00  0.0000E+00
