 1 - depth, m
 2 - temperature, C
 3 - salinity, kg/kg
 4 - turbulent kinetic energy, m**2/s**2
 5 - dissipation rate, m**2/s**3
 6 - kinematic heat conductance, m**2/s
 7 - modulus of horizontal velocity, m/s
 8 - Richardson number, n/d
   -0.000000    9.87521  0.0000E+00  0.1091E-04  0.1120E-05  0.1614E-04  0.1552E-01 -0.1035E+01
   -0.034998    9.89673  0.0000E+00  0.8399E-05  0.3708E-06  0.4099E-04  0.8606E-02  0.5001E+03
   -0.069996    9.90493  0.0000E+00  0.7114E-05  0.1877E-06  0.6321E-04  0.6179E-02  0.1539E+02
   -0.104994    9.91032  0.0000E+00  0.6231E-05  0.1117E-06  0.8537E-04  0.4704E-02  0.1807E+02
   -0.139993    9.91431  0.0000E+00  0.5589E-05  0.7355E-07  0.1088E-03  0.3688E-02  0.1290E+03
   -0.174992    9.91741  0.0000E+00  0.5108E-05  0.5204E-07  0.1348E-03  0.2943E-02  0.1053E+02
   -0.209991    9.91988  0.0000E+00  0.4742E-05  0.3894E-07  0.1708E-03  0.2375E-02  0.1344E+03
   -0.244991    9.92178  0.0000E+00  0.4457E-05  0.3047E-07  0.2143E-03  0.1929E-02  0.2703E+02
   -0.279991    9.92326  0.0000E+00  0.4224E-05  0.2462E-07  0.2485E-03  0.1569E-02  0.2792E+02
   -0.314991    9.92449  0.0000E+00  0.4017E-05  0.2024E-07  0.2806E-03  0.1253E-02  0.1030E+02
   -0.349991    9.92554  0.0000E+00  0.3844E-05  0.1700E-07  0.3111E-03  0.1005E-02  0.2157E+02
   -0.384991    9.92643  0.0000E+00  0.3703E-05  0.1458E-07  0.3401E-03  0.8081E-03  0.2763E+02
   -0.419992    9.92722  0.0000E+00  0.3590E-05  0.1276E-07  0.3627E-03  0.6501E-03  0.2317E+02
   -0.454992    9.92793  0.0000E+00  0.3498E-05  0.1137E-07  0.3811E-03  0.5140E-03  0.6173E+01
   -0.489993    9.92860  0.0000E+00  0.3421E-05  0.1029E-07  0.3964E-03  0.3943E-03  0.6038E+01
   -0.524994    9.92923  0.0000E+00  0.3351E-05  0.9396E-08  0.4166E-03  0.2909E-03  0.5996E+01
   -0.559995    9.92981  0.0000E+00  0.3289E-05  0.8629E-08  0.4326E-03  0.2189E-03  0.7518E+01
   -0.594996    9.93036  0.0000E+00  0.3233E-05  0.7942E-08  0.4470E-03  0.1758E-03  0.1153E+02
   -0.629997    9.93087  0.0000E+00  0.3195E-05  0.7442E-08  0.4583E-03  0.1538E-03  0.2282E+02
   -0.664998    9.93137  0.0000E+00  0.3167E-05  0.7054E-08  0.4699E-03  0.1362E-03  0.2588E+02
   -0.699999    9.93186  0.0000E+00  0.3143E-05  0.6732E-08  0.4811E-03  0.1205E-03  0.2942E+02
   -0.735001    9.93233  0.0000E+00  0.3124E-05  0.6466E-08  0.4912E-03  0.1066E-03  0.3403E+02
   -0.770002    9.93279  0.0000E+00  0.3107E-05  0.6245E-08  0.5001E-03  0.9456E-04  0.3989E+02
   -0.805003    9.93324  0.0000E+00  0.3093E-05  0.6063E-08  0.5077E-03  0.8399E-04  0.4747E+02
   -0.840004    9.93369  0.0000E+00  0.3080E-05  0.5914E-08  0.5137E-03  0.7471E-04  0.5684E+02
   -0.875005    9.93412  0.0000E+00  0.3069E-05  0.5793E-08  0.5182E-03  0.6644E-04  0.6808E+02
   -0.910006    9.93455  0.0000E+00  0.3057E-05  0.5698E-08  0.5208E-03  0.5908E-04  0.8251E+02
   -0.945006    9.93498  0.0000E+00  0.3045E-05  0.5630E-08  0.5214E-03  0.5236E-04  0.9870E+02
   -0.980007    9.93541  0.0000E+00  0.3033E-05  0.5587E-08  0.5197E-03  0.4622E-04  0.1183E+03
   -1.015008    9.93584  0.0000E+00  0.3020E-05  0.5572E-08  0.5155E-03  0.4055E-04  0.1433E+03
   -1.050008    9.93628  0.0000E+00  0.3006E-05  0.5586E-08  0.5083E-03  0.3544E-04  0.1834E+03
   -1.085008    9.93672  0.0000E+00  0.2990E-05  0.5634E-08  0.4978E-03  0.3083E-04  0.2396E+03
   -1.120008    9.93717  0.0000E+00  0.2972E-05  0.5725E-08  0.4835E-03  0.2672E-04  0.3233E+03
   -1.155008    9.93764  0.0000E+00  0.2951E-05  0.5870E-08  0.4650E-03  0.2291E-04  0.4214E+03
   -1.190007    9.93812  0.0000E+00  0.2928E-05  0.6087E-08  0.4415E-03  0.1935E-04  0.5469E+03
   -1.225007    9.93863  0.0000E+00  0.2897E-05  0.6438E-08  0.4096E-03  0.1614E-04  0.7131E+03
   -1.260006    9.93919  0.0000E+00  0.2853E-05  0.7084E-08  0.3650E-03  0.1336E-04  0.1092E+04
   -1.295004    9.93981  0.0000E+00  0.2759E-05  0.8723E-08  0.2740E-03  0.1089E-04  0.2866E+04
   -1.330003    9.94064  0.0000E+00  0.2599E-05  0.1223E-07  0.2105E-03  0.8812E-05  0.3224E+05
   -1.365001    9.94172  0.0000E+00  0.1778E-05  0.3873E-07  0.1319E-04  0.7373E-05 -0.3987E+07
   -1.399999    9.95913  0.0000E+00  0.0000E+00  0.0000E+00  0.0000E+00  0.7370E-05  0.0000E+00
