 1 - depth, m
 2 - temperature, C
 3 - salinity, kg/kg
 4 - turbulent kinetic energy, m**2/s**2
 5 - dissipation rate, m**2/s**3
 6 - kinematic heat conductance, m**2/s
 7 - modulus of horizontal velocity, m/s
 8 - Richardson number, n/d
   -0.000000    0.00000  0.0000E+00  0.4702E-13  0.1132E-15  0.1000E-09  0.0000E+00  0.1737E+17
   -0.034996    0.27040  0.0000E+00  0.4702E-13  0.1132E-15  0.1000E-09  0.0000E+00  0.1533E+17
   -0.069993    0.52764  0.0000E+00  0.4702E-13  0.1132E-15  0.1000E-09  0.0000E+00  0.1350E+17
   -0.104990    0.77234  0.0000E+00  0.4702E-13  0.1132E-15  0.1000E-09  0.0000E+00  0.1180E+17
   -0.139988    1.00349  0.0000E+00  0.4702E-13  0.1132E-15  0.1000E-09  0.0000E+00  0.1025E+17
   -0.174985    1.22071  0.0000E+00  0.4702E-13  0.1132E-15  0.1000E-09  0.0000E+00  0.8875E+16
   -0.209983    1.42445  0.0000E+00  0.4702E-13  0.1132E-15  0.1000E-09  0.0000E+00  0.7663E+16
   -0.244982    1.61504  0.0000E+00  0.4702E-13  0.1132E-15  0.1000E-09  0.0000E+00  0.6594E+16
   -0.279980    1.79281  0.0000E+00  0.4702E-13  0.1132E-15  0.1000E-09  0.0000E+00  0.5652E+16
   -0.314979    1.95805  0.0000E+00  0.4702E-13  0.1132E-15  0.1000E-09  0.0000E+00  0.4858E+16
   -0.349977    2.11210  0.0000E+00  0.4702E-13  0.1132E-15  0.1000E-09  0.0000E+00  0.4153E+16
   -0.384976    2.25497  0.0000E+00  0.4702E-13  0.1132E-15  0.1000E-09  0.0000E+00  0.3525E+16
   -0.419976    2.38652  0.0000E+00  0.4702E-13  0.1132E-15  0.1000E-09  0.0000E+00  0.2998E+16
   -0.454975    2.50786  0.0000E+00  0.4702E-13  0.1132E-15  0.1000E-09  0.0000E+00  0.2567E+16
   -0.489974    2.62049  0.0000E+00  0.4702E-13  0.1132E-15  0.1000E-09  0.0000E+00  0.2204E+16
   -0.524974    2.72540  0.0000E+00  0.4702E-13  0.1132E-15  0.1000E-09  0.0000E+00  0.1962E+16
   -0.559973    2.82694  0.0000E+00  0.4702E-13  0.1132E-15  0.1000E-09  0.0000E+00  0.1765E+16
   -0.594973    2.92672  0.0000E+00  0.4702E-13  0.1132E-15  0.1000E-09  0.0000E+00  0.1570E+16
   -0.629973    3.02430  0.0000E+00  0.4702E-13  0.1132E-15  0.1000E-09  0.0000E+00  0.1292E+16
   -0.664972    3.11290  0.0000E+00  0.4702E-13  0.1132E-15  0.1000E-09  0.0000E+00  0.1057E+16
   -0.699972    3.19280  0.0000E+00  0.4702E-13  0.1132E-15  0.1000E-09  0.0000E+00  0.8581E+15
   -0.734972    3.26422  0.0000E+00  0.4702E-13  0.1132E-15  0.1000E-09  0.0000E+00  0.7050E+15
   -0.769972    3.32875  0.0000E+00  0.4702E-13  0.1132E-15  0.1000E-09  0.0000E+00  0.6058E+15
   -0.804972    3.38981  0.0000E+00  0.4702E-13  0.1132E-15  0.1000E-09  0.0000E+00  0.5176E+15
   -0.839971    3.44750  0.0000E+00  0.4702E-13  0.1132E-15  0.1000E-09  0.0000E+00  0.4401E+15
   -0.874971    3.50198  0.0000E+00  0.4702E-13  0.1132E-15  0.1000E-09  0.0000E+00  0.3732E+15
   -0.909970    3.55356  0.0000E+00  0.4702E-13  0.1132E-15  0.1000E-09  0.0000E+00  0.3110E+15
   -0.944970    3.60184  0.0000E+00  0.4702E-13  0.1132E-15  0.1000E-09  0.0000E+00  0.2567E+15
   -0.979969    3.64685  0.0000E+00  0.4735E-13  0.1132E-15  0.1000E-09  0.0000E+00  0.2104E+15
   -1.014968    3.68881  0.0000E+00  0.1230E-12  0.1290E-15  0.1000E-09  0.0000E+00  0.1746E+15
   -1.049967    3.72879  0.0000E+00  0.4154E-12  0.3141E-15  0.1000E-09  0.0000E+00  0.1444E+15
   -1.084966    3.76734  0.0000E+00  0.1272E-11  0.9188E-15  0.1000E-09  0.0000E+00  0.1191E+15
   -1.119965    3.80523  0.0000E+00  0.3752E-11  0.2687E-14  0.1004E-09  0.0000E+00  0.9299E+14
   -1.154963    3.84159  0.0000E+00  0.1096E-10  0.7862E-14  0.2524E-09  0.0000E+00  0.7033E+14
   -1.189961    3.87685  0.0000E+00  0.3213E-10  0.2330E-13  0.9838E-09  0.0000E+00  0.5089E+14
   -1.224959    3.91219  0.0000E+00  0.9905E-10  0.7367E-13  0.4295E-08  0.0000E+00  0.3395E+14
   -1.259957    3.95211  0.0000E+00  0.3234E-09  0.2529E-12  0.3445E-07  0.0000E+00  0.8439E+13
   -1.294954    3.99832  0.0000E+00  0.1106E-08  0.1025E-11  0.3578E-06  0.0000E+00 -0.1100E+14
   -1.329951    4.02592  0.0000E+00  0.2013E-08  0.2584E-11  0.5095E-06  0.0000E+00 -0.2223E+14
   -1.364948    4.05273  0.0000E+00  0.2675E-08  0.6296E-11  0.3529E-06  0.0000E+00 -0.7276E+14
   -1.399945    4.10341  0.0000E+00  0.0000E+00  0.0000E+00  0.0000E+00  0.0000E+00  0.0000E+00
