 1 - depth, m
 2 - temperature, C
 3 - salinity, kg/kg
 4 - turbulent kinetic energy, m**2/s**2
 5 - dissipation rate, m**2/s**3
 6 - kinematic heat conductance, m**2/s
 7 - modulus of horizontal velocity, m/s
 8 - Richardson number, n/d
   -0.000000    9.98454  0.0000E+00  0.4209E-03  0.7694E-03  0.7487E-04  0.2554E+00 -0.5956E-02
   -0.034998   10.03390  0.0000E+00  0.2288E-03  0.2934E-03  0.1261E-03  0.7959E-01 -0.5326E-02
   -0.069997   10.05286  0.0000E+00  0.1550E-03  0.9553E-04  0.1744E-03  0.4709E-01 -0.1156E-02
   -0.104996   10.05993  0.0000E+00  0.1229E-03  0.5145E-04  0.1833E-03  0.3685E-01 -0.3092E-01
   -0.139995   10.06393  0.0000E+00  0.1023E-03  0.2955E-04  0.1912E-03  0.3072E-01 -0.6667E-01
   -0.174995   10.06681  0.0000E+00  0.8731E-04  0.1765E-04  0.1986E-03  0.2614E-01 -0.2665E-01
   -0.209994   10.06913  0.0000E+00  0.7613E-04  0.1080E-04  0.2078E-03  0.2245E-01 -0.1078E-01
   -0.244994   10.07110  0.0000E+00  0.6757E-04  0.6754E-05  0.2154E-03  0.1936E-01 -0.9689E-02
   -0.279995   10.07296  0.0000E+00  0.6059E-04  0.4327E-05  0.2186E-03  0.1660E-01  0.3200E+01
   -0.314995   10.07518  0.0000E+00  0.5427E-04  0.2843E-05  0.2299E-03  0.1381E-01  0.4591E+01
   -0.349996   10.07699  0.0000E+00  0.4894E-04  0.1939E-05  0.2385E-03  0.1177E-01  0.4307E+00
   -0.384996   10.07864  0.0000E+00  0.4443E-04  0.1371E-05  0.2457E-03  0.1012E-01  0.3134E+01
   -0.419997   10.08017  0.0000E+00  0.4064E-04  0.1013E-05  0.2494E-03  0.8737E-02  0.8016E+01
   -0.454998   10.08177  0.0000E+00  0.3735E-04  0.7817E-06  0.2510E-03  0.7437E-02  0.1866E+03
   -0.490000   10.08349  0.0000E+00  0.3441E-04  0.6295E-06  0.2536E-03  0.6202E-02  0.3075E+02
   -0.525001   10.08529  0.0000E+00  0.3157E-04  0.5178E-06  0.2638E-03  0.5098E-02  0.2583E+03
   -0.560002   10.08676  0.0000E+00  0.2879E-04  0.4287E-06  0.2716E-03  0.4291E-02  0.9417E+03
   -0.595004   10.08779  0.0000E+00  0.2577E-04  0.3459E-06  0.2701E-03  0.3746E-02  0.4836E+04
   -0.630006   10.08805  0.0000E+00  0.2311E-04  0.2804E-06  0.2689E-03  0.3413E-02  0.7644E+04
   -0.665007   10.08892  0.0000E+00  0.2084E-04  0.2301E-06  0.2753E-03  0.3077E-02  0.8498E+05
   -0.700009   10.08985  0.0000E+00  0.1888E-04  0.1907E-06  0.2845E-03  0.2756E-02  0.8494E+04
   -0.735010   10.09079  0.0000E+00  0.1718E-04  0.1595E-06  0.2978E-03  0.2456E-02  0.4693E+03
   -0.770012   10.09171  0.0000E+00  0.1570E-04  0.1343E-06  0.3173E-03  0.2181E-02  0.1449E+04
   -0.805013   10.09259  0.0000E+00  0.1439E-04  0.1139E-06  0.3422E-03  0.1932E-02  0.1316E+04
   -0.840015   10.09343  0.0000E+00  0.1323E-04  0.9728E-07  0.3740E-03  0.1707E-02  0.9646E+03
   -0.875016   10.09421  0.0000E+00  0.1222E-04  0.8365E-07  0.4099E-03  0.1502E-02  0.2503E+04
   -0.910018   10.09492  0.0000E+00  0.1131E-04  0.7243E-07  0.4428E-03  0.1319E-02  0.9850E+03
   -0.945019   10.09559  0.0000E+00  0.1050E-04  0.6331E-07  0.4661E-03  0.1151E-02  0.1079E+04
   -0.980020   10.09622  0.0000E+00  0.9786E-05  0.5594E-07  0.4756E-03  0.9961E-03  0.1363E+04
   -1.015021   10.09685  0.0000E+00  0.9146E-05  0.5007E-07  0.4816E-03  0.8524E-03  0.1414E+04
   -1.050022   10.09746  0.0000E+00  0.8567E-05  0.4548E-07  0.4824E-03  0.7250E-03  0.2008E+04
   -1.085022   10.09807  0.0000E+00  0.8041E-05  0.4212E-07  0.4713E-03  0.6146E-03  0.3202E+04
   -1.120023   10.09870  0.0000E+00  0.7563E-05  0.4009E-07  0.4484E-03  0.5203E-03  0.4401E+04
   -1.155023   10.09938  0.0000E+00  0.7121E-05  0.3980E-07  0.4203E-03  0.4358E-03  0.6175E+04
   -1.190023   10.10016  0.0000E+00  0.6689E-05  0.4205E-07  0.3732E-03  0.3579E-03  0.8421E+04
   -1.225023   10.10114  0.0000E+00  0.6225E-05  0.4842E-07  0.3379E-03  0.2819E-03  0.1624E+05
   -1.260022   10.10226  0.0000E+00  0.5643E-05  0.6665E-07  0.2735E-03  0.2155E-03  0.2192E+05
   -1.295022   10.10421  0.0000E+00  0.4831E-05  0.1100E-06  0.2325E-03  0.1553E-03  0.6630E+05
   -1.330021   10.10489  0.0000E+00  0.3823E-05  0.2334E-06  0.1319E-03  0.1308E-03  0.1094E+07
   -1.365019   10.11166  0.0000E+00  0.2506E-05  0.5064E-06  0.6104E-04  0.8838E-04 -0.5986E+10
   -1.400017   10.12136  0.0000E+00  0.0000E+00  0.0000E+00  0.0000E+00  0.1367E-03  0.0000E+00
