 1 - depth, m
 2 - temperature, C
 3 - salinity, kg/kg
 4 - turbulent kinetic energy, m**2/s**2
 5 - dissipation rate, m**2/s**3
 6 - kinematic heat conductance, m**2/s
 7 - modulus of horizontal velocity, m/s
 8 - Richardson number, n/d
   -0.000000   12.21195  0.0000E+00  0.8105E-05  0.8559E-06  0.1516E-04  0.1159E-01 -0.5474E-01
   -0.034998   12.24130  0.0000E+00  0.6476E-05  0.2777E-06  0.3835E-04  0.5991E-02 -0.2454E+00
   -0.069996   12.25176  0.0000E+00  0.5742E-05  0.1382E-06  0.9412E-04  0.4181E-02  0.2823E+02
   -0.104995   12.25664  0.0000E+00  0.5297E-05  0.8248E-07  0.1472E-03  0.3233E-02  0.2010E+03
   -0.139994   12.25971  0.0000E+00  0.5024E-05  0.5564E-07  0.1817E-03  0.2637E-02  0.1297E+02
   -0.174993   12.26205  0.0000E+00  0.4857E-05  0.4083E-07  0.2238E-03  0.2176E-02  0.5208E+01
   -0.209993   12.26388  0.0000E+00  0.4755E-05  0.3189E-07  0.2673E-03  0.1809E-02  0.8298E+01
   -0.244992   12.26535  0.0000E+00  0.4691E-05  0.2606E-07  0.3114E-03  0.1502E-02  0.1676E+02
   -0.279992   12.26656  0.0000E+00  0.4648E-05  0.2200E-07  0.3527E-03  0.1239E-02  0.6902E+01
   -0.314993   12.26758  0.0000E+00  0.4609E-05  0.1897E-07  0.3957E-03  0.1004E-02  0.3916E+01
   -0.349993   12.26846  0.0000E+00  0.4575E-05  0.1668E-07  0.4369E-03  0.8142E-03  0.2426E+01
   -0.384994   12.26924  0.0000E+00  0.4546E-05  0.1493E-07  0.4731E-03  0.6615E-03  0.4240E+01
   -0.419994   12.26993  0.0000E+00  0.4522E-05  0.1357E-07  0.5031E-03  0.5373E-03  0.1791E+01
   -0.454995   12.27058  0.0000E+00  0.4499E-05  0.1252E-07  0.5304E-03  0.4300E-03  0.1687E+01
   -0.489996   12.27118  0.0000E+00  0.4478E-05  0.1171E-07  0.5547E-03  0.3363E-03  0.1553E+01
   -0.524997   12.27174  0.0000E+00  0.4455E-05  0.1102E-07  0.5874E-03  0.2555E-03  0.1231E+01
   -0.559998   12.27227  0.0000E+00  0.4432E-05  0.1043E-07  0.6207E-03  0.1984E-03  0.1012E+01
   -0.595000   12.27275  0.0000E+00  0.4409E-05  0.9905E-08  0.6403E-03  0.1636E-03  0.8844E+00
   -0.630001   12.27320  0.0000E+00  0.4393E-05  0.9525E-08  0.6478E-03  0.1454E-03  0.1394E+01
   -0.665002   12.27364  0.0000E+00  0.4380E-05  0.9233E-08  0.6587E-03  0.1308E-03  0.1525E+01
   -0.700004   12.27406  0.0000E+00  0.4368E-05  0.8995E-08  0.6687E-03  0.1176E-03  0.1676E+01
   -0.735005   12.27448  0.0000E+00  0.4356E-05  0.8802E-08  0.6766E-03  0.1058E-03  0.1881E+01
   -0.770006   12.27489  0.0000E+00  0.4345E-05  0.8650E-08  0.6823E-03  0.9546E-04  0.2132E+01
   -0.805007   12.27529  0.0000E+00  0.4333E-05  0.8535E-08  0.6857E-03  0.8624E-04  0.2469E+01
   -0.840009   12.27568  0.0000E+00  0.4320E-05  0.8453E-08  0.6865E-03  0.7805E-04  0.2871E+01
   -0.875010   12.27607  0.0000E+00  0.4306E-05  0.8404E-08  0.6848E-03  0.7066E-04  0.3367E+01
   -0.910011   12.27646  0.0000E+00  0.4290E-05  0.8386E-08  0.6801E-03  0.6401E-04  0.3986E+01
   -0.945012   12.27685  0.0000E+00  0.4273E-05  0.8402E-08  0.6726E-03  0.5785E-04  0.4701E+01
   -0.980013   12.27724  0.0000E+00  0.4253E-05  0.8454E-08  0.6616E-03  0.5209E-04  0.5535E+01
   -1.015013   12.27764  0.0000E+00  0.4230E-05  0.8549E-08  0.6470E-03  0.4664E-04  0.6638E+01
   -1.050014   12.27805  0.0000E+00  0.4204E-05  0.8699E-08  0.6279E-03  0.4160E-04  0.8390E+01
   -1.085014   12.27846  0.0000E+00  0.4173E-05  0.8921E-08  0.6035E-03  0.3692E-04  0.1092E+02
   -1.120015   12.27889  0.0000E+00  0.4137E-05  0.9237E-08  0.5733E-03  0.3262E-04  0.1473E+02
   -1.155015   12.27935  0.0000E+00  0.4095E-05  0.9678E-08  0.5392E-03  0.2849E-04  0.1946E+02
   -1.190014   12.27983  0.0000E+00  0.4046E-05  0.1031E-07  0.4923E-03  0.2454E-04  0.2605E+02
   -1.225014   12.28036  0.0000E+00  0.3984E-05  0.1131E-07  0.4549E-03  0.2097E-04  0.3532E+02
   -1.260013   12.28094  0.0000E+00  0.3889E-05  0.1324E-07  0.3438E-03  0.1731E-04  0.3669E+02
   -1.295012   12.28174  0.0000E+00  0.3691E-05  0.1831E-07  0.3509E-03  0.1394E-04  0.1601E+03
   -1.330011   12.28253  0.0000E+00  0.3230E-05  0.3449E-07  0.1302E-03  0.1196E-04  0.1125E+04
   -1.365009   12.28788  0.0000E+00  0.2069E-05  0.9804E-07  0.4325E-04  0.7922E-05 -0.6734E+05
   -1.400007   12.29483  0.0000E+00  0.0000E+00  0.0000E+00  0.0000E+00  0.9095E-05  0.0000E+00
