 1 - depth, m
 2 - temperature, C
 3 - salinity, kg/kg
 4 - turbulent kinetic energy, m**2/s**2
 5 - dissipation rate, m**2/s**3
 6 - kinematic heat conductance, m**2/s
 7 - modulus of horizontal velocity, m/s
 8 - Richardson number, n/d
   -0.000000    0.00000  0.0000E+00  0.4702E-13  0.1132E-15  0.1000E-09  0.0000E+00  0.1266E+17
   -0.034998    0.19493  0.0000E+00  0.4702E-13  0.1132E-15  0.1000E-09  0.0000E+00  0.1190E+17
   -0.069995    0.38848  0.0000E+00  0.4702E-13  0.1132E-15  0.1000E-09  0.0000E+00  0.1117E+17
   -0.104993    0.58087  0.0000E+00  0.4702E-13  0.1132E-15  0.1000E-09  0.0000E+00  0.1038E+17
   -0.139992    0.77046  0.0000E+00  0.4702E-13  0.1132E-15  0.1000E-09  0.0000E+00  0.9564E+16
   -0.174991    0.95628  0.0000E+00  0.4702E-13  0.1132E-15  0.1000E-09  0.0000E+00  0.8793E+16
   -0.209990    1.13840  0.0000E+00  0.4702E-13  0.1132E-15  0.1000E-09  0.0000E+00  0.8062E+16
   -0.244989    1.31681  0.0000E+00  0.4702E-13  0.1132E-15  0.1000E-09  0.0000E+00  0.7368E+16
   -0.279988    1.49152  0.0000E+00  0.4702E-13  0.1132E-15  0.1000E-09  0.0000E+00  0.6707E+16
   -0.314988    1.66247  0.0000E+00  0.4702E-13  0.1132E-15  0.1000E-09  0.0000E+00  0.6072E+16
   -0.349988    1.82936  0.0000E+00  0.4702E-13  0.1132E-15  0.1000E-09  0.0000E+00  0.5465E+16
   -0.384988    1.99194  0.0000E+00  0.4702E-13  0.1132E-15  0.1000E-09  0.0000E+00  0.4888E+16
   -0.419988    2.14993  0.0000E+00  0.4784E-13  0.1132E-15  0.1000E-09  0.0000E+00  0.4361E+16
   -0.454988    2.30377  0.0000E+00  0.2300E-12  0.1132E-15  0.1000E-09  0.0000E+00  0.3876E+16
   -0.489989    2.45377  0.0000E+00  0.6127E-12  0.1400E-15  0.1000E-09  0.0000E+00  0.3410E+16
   -0.524990    2.59945  0.0000E+00  0.1322E-11  0.2271E-15  0.1000E-09  0.0000E+00  0.2936E+16
   -0.559990    2.73876  0.0000E+00  0.2678E-11  0.4096E-15  0.1000E-09  0.0000E+00  0.2451E+16
   -0.594991    2.86860  0.0000E+00  0.5465E-11  0.7912E-15  0.1000E-09  0.0000E+00  0.1995E+16
   -0.629992    2.98691  0.0000E+00  0.9887E-11  0.1395E-14  0.1000E-09  0.0000E+00  0.1696E+16
   -0.664992    3.10006  0.0000E+00  0.1687E-10  0.2335E-14  0.1000E-09  0.0000E+00  0.1424E+16
   -0.699993    3.20783  0.0000E+00  0.2813E-10  0.3832E-14  0.1000E-09  0.0000E+00  0.1175E+16
   -0.734994    3.30974  0.0000E+00  0.4658E-10  0.6247E-14  0.1000E-09  0.0000E+00  0.9610E+15
   -0.769995    3.40643  0.0000E+00  0.7690E-10  0.1016E-13  0.1000E-09  0.0000E+00  0.7910E+15
   -0.804996    3.50038  0.0000E+00  0.1267E-09  0.1648E-13  0.1000E-09  0.0000E+00  0.6332E+15
   -0.839996    3.59154  0.0000E+00  0.2080E-09  0.2664E-13  0.1415E-09  0.0000E+00  0.4875E+15
   -0.874997    3.67981  0.0000E+00  0.3411E-09  0.4303E-13  0.3150E-09  0.0000E+00  0.3536E+15
   -0.909998    3.76499  0.0000E+00  0.5576E-09  0.6931E-13  0.7724E-09  0.0000E+00  0.2322E+15
   -0.944998    3.84696  0.0000E+00  0.9058E-09  0.1110E-12  0.2333E-08  0.0000E+00  0.1229E+15
   -0.979998    3.92507  0.0000E+00  0.1459E-08  0.1763E-12  0.1562E-07  0.0000E+00  0.2895E+14
   -1.014999    3.99375  0.0000E+00  0.1861E-08  0.2260E-12  0.5986E-05  0.0000E+00 -0.2179E+12
   -1.049999    3.99543  0.0000E+00  0.2086E-08  0.2592E-12  0.6568E-05  0.0000E+00 -0.2284E+12
   -1.084999    3.99691  0.0000E+00  0.2289E-08  0.2956E-12  0.6997E-05  0.0000E+00 -0.2476E+12
   -1.119998    3.99831  0.0000E+00  0.2469E-08  0.3360E-12  0.7127E-05  0.0000E+00 -0.2747E+12
   -1.154998    3.99969  0.0000E+00  0.2622E-08  0.3824E-12  0.6984E-05  0.0000E+00 -0.3139E+12
   -1.189997    4.00111  0.0000E+00  0.2746E-08  0.4385E-12  0.6574E-05  0.0000E+00 -0.3738E+12
   -1.224996    4.00264  0.0000E+00  0.2843E-08  0.5174E-12  0.5860E-05  0.0000E+00 -0.4813E+12
   -1.259995    4.00443  0.0000E+00  0.2909E-08  0.6528E-12  0.4744E-05  0.0000E+00 -0.7230E+12
   -1.294993    4.00682  0.0000E+00  0.2909E-08  0.9959E-12  0.2891E-05  0.0000E+00 -0.1622E+13
   -1.329991    4.01136  0.0000E+00  0.2718E-08  0.1764E-11  0.1231E-05  0.0000E+00 -0.5339E+13
   -1.364989    4.02249  0.0000E+00  0.2233E-08  0.3993E-11  0.3102E-06  0.0000E+00 -0.3550E+14
   -1.399987    4.06276  0.0000E+00  0.0000E+00  0.0000E+00  0.0000E+00  0.0000E+00  0.0000E+00
