 1 - depth, m
 2 - temperature, C
 3 - salinity, kg/kg
 4 - turbulent kinetic energy, m**2/s**2
 5 - dissipation rate, m**2/s**3
 6 - kinematic heat conductance, m**2/s
 7 - modulus of horizontal velocity, m/s
 8 - Richardson number, n/d
   -0.000000    0.00000  0.0000E+00  0.4702E-13  0.1132E-15  0.1000E-09  0.0000E+00  0.1547E+17
   -0.034997    0.23969  0.0000E+00  0.4707E-13  0.1132E-15  0.1000E-09  0.0000E+00  0.1421E+17
   -0.069995    0.47527  0.0000E+00  0.1753E-12  0.1132E-15  0.1000E-09  0.0000E+00  0.1305E+17
   -0.104993    0.70755  0.0000E+00  0.4939E-12  0.1151E-15  0.1000E-09  0.0000E+00  0.1186E+17
   -0.139991    0.93475  0.0000E+00  0.1011E-11  0.1490E-15  0.1000E-09  0.0000E+00  0.1069E+17
   -0.174990    1.15602  0.0000E+00  0.1786E-11  0.2177E-15  0.1000E-09  0.0000E+00  0.9612E+16
   -0.209988    1.37169  0.0000E+00  0.2942E-11  0.3293E-15  0.1000E-09  0.0000E+00  0.8610E+16
   -0.244987    1.58201  0.0000E+00  0.4671E-11  0.5010E-15  0.1000E-09  0.0000E+00  0.7675E+16
   -0.279987    1.78711  0.0000E+00  0.7276E-11  0.7607E-15  0.1000E-09  0.0000E+00  0.6799E+16
   -0.314986    1.98701  0.0000E+00  0.1127E-10  0.1157E-14  0.1000E-09  0.0000E+00  0.5946E+16
   -0.349986    2.18050  0.0000E+00  0.1748E-10  0.1768E-14  0.1000E-09  0.0000E+00  0.5145E+16
   -0.384986    2.36710  0.0000E+00  0.2711E-10  0.2705E-14  0.1000E-09  0.0000E+00  0.4402E+16
   -0.419986    2.54637  0.0000E+00  0.4193E-10  0.4131E-14  0.1000E-09  0.0000E+00  0.3757E+16
   -0.454986    2.71984  0.0000E+00  0.6463E-10  0.6290E-14  0.1000E-09  0.0000E+00  0.3184E+16
   -0.489986    2.88858  0.0000E+00  0.9945E-10  0.9561E-14  0.1000E-09  0.0000E+00  0.2639E+16
   -0.524986    3.05173  0.0000E+00  0.1587E-09  0.1506E-13  0.1000E-09  0.0000E+00  0.2096E+16
   -0.559987    3.20563  0.0000E+00  0.2652E-09  0.2485E-13  0.1000E-09  0.0000E+00  0.1575E+16
   -0.594987    3.34556  0.0000E+00  0.4708E-09  0.4354E-13  0.1077E-09  0.0000E+00  0.1129E+16
   -0.629988    3.46892  0.0000E+00  0.7743E-09  0.7083E-13  0.2153E-09  0.0000E+00  0.8528E+15
   -0.664989    3.58683  0.0000E+00  0.1215E-08  0.1099E-12  0.4692E-09  0.0000E+00  0.6083E+15
   -0.699989    3.69936  0.0000E+00  0.1867E-08  0.1671E-12  0.1111E-08  0.0000E+00  0.3915E+15
   -0.734990    3.80592  0.0000E+00  0.2849E-08  0.2522E-12  0.3211E-08  0.0000E+00  0.2056E+15
   -0.769991    3.90664  0.0000E+00  0.4301E-08  0.3768E-12  0.2077E-07  0.0000E+00  0.4926E+14
   -0.804991    3.99591  0.0000E+00  0.4685E-08  0.4121E-12  0.2098E-04  0.0000E+00 -0.1052E+12
   -0.839992    3.99662  0.0000E+00  0.4872E-08  0.4316E-12  0.2186E-04  0.0000E+00 -0.1085E+12
   -0.874992    3.99730  0.0000E+00  0.5039E-08  0.4514E-12  0.2263E-04  0.0000E+00 -0.1123E+12
   -0.909992    3.99794  0.0000E+00  0.5193E-08  0.4723E-12  0.2316E-04  0.0000E+00 -0.1170E+12
   -0.944993    3.99858  0.0000E+00  0.5335E-08  0.4943E-12  0.2341E-04  0.0000E+00 -0.1231E+12
   -0.979993    3.99921  0.0000E+00  0.5464E-08  0.5177E-12  0.2350E-04  0.0000E+00 -0.1303E+12
   -1.014993    3.99985  0.0000E+00  0.5581E-08  0.5434E-12  0.2346E-04  0.0000E+00 -0.1392E+12
   -1.049993    4.00050  0.0000E+00  0.5689E-08  0.5726E-12  0.2323E-04  0.0000E+00 -0.1500E+12
   -1.084992    4.00117  0.0000E+00  0.5787E-08  0.6064E-12  0.2273E-04  0.0000E+00 -0.1616E+12
   -1.119992    4.00185  0.0000E+00  0.5872E-08  0.6461E-12  0.2201E-04  0.0000E+00 -0.1760E+12
   -1.154991    4.00257  0.0000E+00  0.5941E-08  0.6935E-12  0.2103E-04  0.0000E+00 -0.1946E+12
   -1.189990    4.00332  0.0000E+00  0.5991E-08  0.7545E-12  0.1969E-04  0.0000E+00 -0.2210E+12
   -1.224989    4.00414  0.0000E+00  0.6018E-08  0.8496E-12  0.1720E-04  0.0000E+00 -0.2754E+12
   -1.259987    4.00510  0.0000E+00  0.5998E-08  0.1029E-11  0.1293E-04  0.0000E+00 -0.4164E+12
   -1.294986    4.00648  0.0000E+00  0.5830E-08  0.1522E-11  0.7282E-05  0.0000E+00 -0.9290E+12
   -1.329984    4.00924  0.0000E+00  0.5277E-08  0.2817E-11  0.2625E-05  0.0000E+00 -0.3392E+13
   -1.364981    4.01728  0.0000E+00  0.3928E-08  0.7346E-11  0.4618E-06  0.0000E+00 -0.3428E+14
   -1.399979    4.05934  0.0000E+00  0.0000E+00  0.0000E+00  0.0000E+00  0.0000E+00  0.0000E+00
