 1 - depth, m
 2 - temperature, C
 3 - salinity, kg/kg
 4 - turbulent kinetic energy, m**2/s**2
 5 - dissipation rate, m**2/s**3
 6 - kinematic heat conductance, m**2/s
 7 - modulus of horizontal velocity, m/s
 8 - Richardson number, n/d
   -0.000000    0.00000  0.0000E+00  0.4702E-13  0.1132E-15  0.1000E-09  0.0000E+00  0.9827E+16
   -0.034998    0.15044  0.0000E+00  0.4702E-13  0.1132E-15  0.1000E-09  0.0000E+00  0.9566E+16
   -0.069996    0.30319  0.0000E+00  0.4702E-13  0.1132E-15  0.1000E-09  0.0000E+00  0.9301E+16
   -0.104994    0.45846  0.0000E+00  0.4702E-13  0.1132E-15  0.1000E-09  0.0000E+00  0.8871E+16
   -0.139993    0.61362  0.0000E+00  0.4702E-13  0.1132E-15  0.1000E-09  0.0000E+00  0.8362E+16
   -0.174992    0.76712  0.0000E+00  0.4702E-13  0.1132E-15  0.1000E-09  0.0000E+00  0.7870E+16
   -0.209991    0.91900  0.0000E+00  0.4702E-13  0.1132E-15  0.1000E-09  0.0000E+00  0.7394E+16
   -0.244990    1.06928  0.0000E+00  0.4702E-13  0.1132E-15  0.1000E-09  0.0000E+00  0.6932E+16
   -0.279990    1.21794  0.0000E+00  0.4702E-13  0.1132E-15  0.1000E-09  0.0000E+00  0.6481E+16
   -0.314990    1.36491  0.0000E+00  0.4702E-13  0.1132E-15  0.1000E-09  0.0000E+00  0.5969E+16
   -0.349990    1.50833  0.0000E+00  0.4702E-13  0.1132E-15  0.1000E-09  0.0000E+00  0.5462E+16
   -0.384990    1.64760  0.0000E+00  0.4702E-13  0.1132E-15  0.1000E-09  0.0000E+00  0.4970E+16
   -0.419991    1.78226  0.0000E+00  0.4702E-13  0.1132E-15  0.1000E-09  0.0000E+00  0.4569E+16
   -0.454991    1.91406  0.0000E+00  0.4702E-13  0.1132E-15  0.1000E-09  0.0000E+00  0.4225E+16
   -0.489992    2.04417  0.0000E+00  0.4702E-13  0.1132E-15  0.1000E-09  0.0000E+00  0.3864E+16
   -0.524993    2.17159  0.0000E+00  0.4702E-13  0.1132E-15  0.1000E-09  0.0000E+00  0.3395E+16
   -0.559993    2.29167  0.0000E+00  0.4702E-13  0.1132E-15  0.1000E-09  0.0000E+00  0.2838E+16
   -0.594994    2.39923  0.0000E+00  0.4702E-13  0.1132E-15  0.1000E-09  0.0000E+00  0.2279E+16
   -0.629995    2.49134  0.0000E+00  0.4702E-13  0.1132E-15  0.1000E-09  0.0000E+00  0.2065E+16
   -0.664996    2.58013  0.0000E+00  0.4702E-13  0.1132E-15  0.1000E-09  0.0000E+00  0.1861E+16
   -0.699997    2.66536  0.0000E+00  0.4702E-13  0.1132E-15  0.1000E-09  0.0000E+00  0.1660E+16
   -0.734998    2.74646  0.0000E+00  0.4702E-13  0.1132E-15  0.1000E-09  0.0000E+00  0.1487E+16
   -0.769999    2.82400  0.0000E+00  0.4702E-13  0.1132E-15  0.1000E-09  0.0000E+00  0.1372E+16
   -0.805000    2.90055  0.0000E+00  0.4702E-13  0.1132E-15  0.1000E-09  0.0000E+00  0.1262E+16
   -0.840001    2.97613  0.0000E+00  0.4702E-13  0.1132E-15  0.1000E-09  0.0000E+00  0.1155E+16
   -0.875002    3.05075  0.0000E+00  0.4702E-13  0.1132E-15  0.1000E-09  0.0000E+00  0.1050E+16
   -0.910003    3.12428  0.0000E+00  0.4702E-13  0.1132E-15  0.1000E-09  0.0000E+00  0.9524E+15
   -0.945004    3.19696  0.0000E+00  0.4702E-13  0.1132E-15  0.1000E-09  0.0000E+00  0.8580E+15
   -0.980004    3.26879  0.0000E+00  0.4702E-13  0.1132E-15  0.1000E-09  0.0000E+00  0.7653E+15
   -1.015005    3.33964  0.0000E+00  0.4702E-13  0.1132E-15  0.1000E-09  0.0000E+00  0.6684E+15
   -1.050005    3.40867  0.0000E+00  0.4702E-13  0.1132E-15  0.1000E-09  0.0000E+00  0.5776E+15
   -1.085005    3.47586  0.0000E+00  0.4951E-13  0.1132E-15  0.1000E-09  0.0000E+00  0.5134E+15
   -1.120005    3.54415  0.0000E+00  0.2115E-12  0.2618E-15  0.1000E-09  0.0000E+00  0.4471E+15
   -1.155004    3.61377  0.0000E+00  0.8406E-12  0.9707E-15  0.1000E-09  0.0000E+00  0.3777E+15
   -1.190004    3.68495  0.0000E+00  0.3236E-11  0.3673E-14  0.1000E-09  0.0000E+00  0.3049E+15
   -1.225003    3.75815  0.0000E+00  0.1304E-10  0.1467E-13  0.1481E-09  0.0000E+00  0.2285E+15
   -1.260002    3.83473  0.0000E+00  0.5581E-10  0.6277E-13  0.9496E-09  0.0000E+00  0.1433E+15
   -1.295001    3.91769  0.0000E+00  0.2756E-09  0.3157E-12  0.1333E-07  0.0000E+00  0.3371E+14
   -1.329999    4.00682  0.0000E+00  0.1016E-08  0.1306E-11  0.2676E-06  0.0000E+00 -0.2283E+14
   -1.364997    4.04418  0.0000E+00  0.1552E-08  0.3290E-11  0.2368E-06  0.0000E+00 -0.6040E+14
   -1.399995    4.09152  0.0000E+00  0.0000E+00  0.0000E+00  0.0000E+00  0.0000E+00  0.0000E+00
