 1 - depth, m
 2 - temperature, C
 3 - salinity, kg/kg
 4 - turbulent kinetic energy, m**2/s**2
 5 - dissipation rate, m**2/s**3
 6 - kinematic heat conductance, m**2/s
 7 - modulus of horizontal velocity, m/s
 8 - Richardson number, n/d
   -0.000000   10.70289  0.0000E+00  0.3817E-03  0.6800E-03  0.8007E-04  0.2337E+00  0.2414E-01
   -0.034998   10.75355  0.0000E+00  0.2109E-03  0.2506E-03  0.1468E-03  0.7009E-01 -0.3623E-01
   -0.069996   10.76659  0.0000E+00  0.1472E-03  0.1018E-03  0.1848E-03  0.4240E-01 -0.3150E-01
   -0.104995   10.77338  0.0000E+00  0.1186E-03  0.6327E-04  0.1911E-03  0.3343E-01 -0.1402E-01
   -0.139994   10.77722  0.0000E+00  0.9957E-04  0.4129E-04  0.1972E-03  0.2801E-01 -0.1162E-01
   -0.174993   10.77989  0.0000E+00  0.8550E-04  0.2696E-04  0.2045E-03  0.2400E-01 -0.8683E-02
   -0.209992   10.78200  0.0000E+00  0.7458E-04  0.1711E-04  0.2123E-03  0.2076E-01 -0.1067E-01
   -0.244992   10.78383  0.0000E+00  0.6602E-04  0.1079E-04  0.2192E-03  0.1799E-01 -0.1304E-01
   -0.279992   10.78554  0.0000E+00  0.5900E-04  0.6831E-05  0.2224E-03  0.1547E-01 -0.7659E-01
   -0.314992   10.78741  0.0000E+00  0.5282E-04  0.4418E-05  0.2329E-03  0.1296E-01  0.2374E+00
   -0.349992   10.78899  0.0000E+00  0.4760E-04  0.2924E-05  0.2409E-03  0.1107E-01  0.3547E+00
   -0.384992   10.79043  0.0000E+00  0.4316E-04  0.1987E-05  0.2474E-03  0.9511E-02  0.1987E+01
   -0.419993   10.79175  0.0000E+00  0.3943E-04  0.1396E-05  0.2502E-03  0.8203E-02  0.1138E+02
   -0.454994   10.79310  0.0000E+00  0.3618E-04  0.1021E-05  0.2510E-03  0.6983E-02  0.2640E+02
   -0.489995   10.79447  0.0000E+00  0.3332E-04  0.7829E-06  0.2535E-03  0.5827E-02  0.3664E+02
   -0.524996   10.79594  0.0000E+00  0.3059E-04  0.6189E-06  0.2638E-03  0.4793E-02 -0.5053E+01
   -0.559997   10.79717  0.0000E+00  0.2791E-04  0.4959E-06  0.2731E-03  0.4029E-02  0.1776E+05
   -0.594998   10.79816  0.0000E+00  0.2500E-04  0.3872E-06  0.2781E-03  0.3508E-02  0.4656E+04
   -0.629999   10.79877  0.0000E+00  0.2241E-04  0.3037E-06  0.2823E-03  0.3195E-02  0.4614E+04
   -0.665000   10.79967  0.0000E+00  0.2020E-04  0.2421E-06  0.2962E-03  0.2875E-02  0.1261E+05
   -0.700001   10.80056  0.0000E+00  0.1830E-04  0.1966E-06  0.3192E-03  0.2569E-02  0.5503E+05
   -0.735003   10.80141  0.0000E+00  0.1665E-04  0.1621E-06  0.3478E-03  0.2286E-02  0.4901E+03
   -0.770004   10.80220  0.0000E+00  0.1521E-04  0.1353E-06  0.3631E-03  0.2031E-02  0.3158E+04
   -0.805005   10.80295  0.0000E+00  0.1395E-04  0.1142E-06  0.3787E-03  0.1799E-02  0.4318E+03
   -0.840006   10.80365  0.0000E+00  0.1283E-04  0.9712E-07  0.3981E-03  0.1591E-02  0.6723E+03
   -0.875007   10.80432  0.0000E+00  0.1185E-04  0.8322E-07  0.4197E-03  0.1402E-02  0.8031E+03
   -0.910008   10.80493  0.0000E+00  0.1098E-04  0.7187E-07  0.4421E-03  0.1234E-02  0.7933E+03
   -0.945009   10.80552  0.0000E+00  0.1022E-04  0.6269E-07  0.4614E-03  0.1079E-02  0.5461E+07
   -0.980010   10.80607  0.0000E+00  0.9540E-05  0.5529E-07  0.4790E-03  0.9368E-03  0.1085E+04
   -1.015010   10.80660  0.0000E+00  0.8937E-05  0.4935E-07  0.4815E-03  0.8051E-03  0.3846E+04
   -1.050011   10.80711  0.0000E+00  0.8392E-05  0.4464E-07  0.4837E-03  0.6875E-03  0.3679E+04
   -1.085011   10.80762  0.0000E+00  0.7898E-05  0.4105E-07  0.4792E-03  0.5850E-03  0.5204E+04
   -1.120011   10.80814  0.0000E+00  0.7452E-05  0.3867E-07  0.4618E-03  0.4970E-03  0.4579E+04
   -1.155011   10.80868  0.0000E+00  0.7047E-05  0.3774E-07  0.4355E-03  0.4178E-03  0.8843E+04
   -1.190011   10.80926  0.0000E+00  0.6662E-05  0.3890E-07  0.3955E-03  0.3448E-03  0.1034E+05
   -1.225010   10.80997  0.0000E+00  0.6261E-05  0.4318E-07  0.3572E-03  0.2750E-03  0.1644E+05
   -1.260009   10.81079  0.0000E+00  0.5765E-05  0.5513E-07  0.2906E-03  0.2134E-03  0.3191E+05
   -1.295008   10.81208  0.0000E+00  0.5005E-05  0.8606E-07  0.2368E-03  0.1588E-03  0.1181E+06
   -1.330007   10.81286  0.0000E+00  0.3975E-05  0.1738E-06  0.1289E-03  0.1318E-03  0.2017E+07
   -1.365005   10.81767  0.0000E+00  0.2545E-05  0.3771E-06  0.5534E-04  0.9164E-04 -0.1848E+10
   -1.400003   10.82504  0.0000E+00  0.0000E+00  0.0000E+00  0.0000E+00  0.1314E-03  0.0000E+00
