 1 - depth, m
 2 - temperature, C
 3 - salinity, kg/kg
 4 - turbulent kinetic energy, m**2/s**2
 5 - dissipation rate, m**2/s**3
 6 - kinematic heat conductance, m**2/s
 7 - modulus of horizontal velocity, m/s
 8 - Richardson number, n/d
   -0.000000    0.00000  0.0000E+00  0.5033E-13  0.1132E-15  0.1000E-09  0.0000E+00  0.1577E+17
   -0.034997    0.24458  0.0000E+00  0.6156E-13  0.1132E-15  0.1000E-09  0.0000E+00  0.1454E+17
   -0.069995    0.48629  0.0000E+00  0.1067E-12  0.1132E-15  0.1000E-09  0.0000E+00  0.1332E+17
   -0.104993    0.72439  0.0000E+00  0.2104E-12  0.1139E-15  0.1000E-09  0.0000E+00  0.1204E+17
   -0.139992    0.95651  0.0000E+00  0.4582E-12  0.1184E-15  0.1000E-09  0.0000E+00  0.1077E+17
   -0.174990    1.18121  0.0000E+00  0.8841E-12  0.1300E-15  0.1000E-09  0.0000E+00  0.9573E+16
   -0.209989    1.39817  0.0000E+00  0.1507E-11  0.1629E-15  0.1000E-09  0.0000E+00  0.8463E+16
   -0.244988    1.60716  0.0000E+00  0.2374E-11  0.2214E-15  0.1000E-09  0.0000E+00  0.7437E+16
   -0.279988    1.80799  0.0000E+00  0.3577E-11  0.3102E-15  0.1000E-09  0.0000E+00  0.6494E+16
   -0.314987    2.00054  0.0000E+00  0.5275E-11  0.4397E-15  0.1000E-09  0.0000E+00  0.5670E+16
   -0.349987    2.18603  0.0000E+00  0.7720E-11  0.6280E-15  0.1000E-09  0.0000E+00  0.4911E+16
   -0.384987    2.36432  0.0000E+00  0.1125E-10  0.8997E-15  0.1000E-09  0.0000E+00  0.4211E+16
   -0.419987    2.53503  0.0000E+00  0.1632E-10  0.1288E-14  0.1000E-09  0.0000E+00  0.3575E+16
   -0.454987    2.69802  0.0000E+00  0.2357E-10  0.1840E-14  0.1000E-09  0.0000E+00  0.3009E+16
   -0.489988    2.85367  0.0000E+00  0.3399E-10  0.2627E-14  0.1000E-09  0.0000E+00  0.2508E+16
   -0.524988    3.00246  0.0000E+00  0.5065E-10  0.3875E-14  0.1000E-09  0.0000E+00  0.2102E+16
   -0.559989    3.14762  0.0000E+00  0.7903E-10  0.5985E-14  0.1000E-09  0.0000E+00  0.1728E+16
   -0.594989    3.28963  0.0000E+00  0.1310E-09  0.9826E-14  0.1000E-09  0.0000E+00  0.1361E+16
   -0.629990    3.42676  0.0000E+00  0.2039E-09  0.1517E-13  0.1000E-09  0.0000E+00  0.9854E+15
   -0.664991    3.55259  0.0000E+00  0.3038E-09  0.2244E-13  0.1036E-09  0.0000E+00  0.6713E+15
   -0.699991    3.66568  0.0000E+00  0.4438E-09  0.3254E-13  0.2050E-09  0.0000E+00  0.4219E+15
   -0.734992    3.76464  0.0000E+00  0.6442E-09  0.4688E-13  0.5355E-09  0.0000E+00  0.2396E+15
   -0.769993    3.84954  0.0000E+00  0.9331E-09  0.6740E-13  0.1742E-08  0.0000E+00  0.1160E+15
   -0.804994    3.92216  0.0000E+00  0.1345E-08  0.9647E-13  0.1938E-07  0.0000E+00  0.3407E+14
   -0.839994    3.97897  0.0000E+00  0.1633E-08  0.1177E-12  0.5709E-05  0.0000E+00  0.2648E+13
   -0.874995    3.99186  0.0000E+00  0.1793E-08  0.1308E-12  0.9169E-05  0.0000E+00 -0.7607E+11
   -0.909995    3.99272  0.0000E+00  0.1914E-08  0.1422E-12  0.9910E-05  0.0000E+00 -0.8050E+11
   -0.944996    3.99350  0.0000E+00  0.2025E-08  0.1542E-12  0.1038E-04  0.0000E+00 -0.8536E+11
   -0.979996    3.99424  0.0000E+00  0.2125E-08  0.1669E-12  0.1060E-04  0.0000E+00 -0.9114E+11
   -1.014996    3.99495  0.0000E+00  0.2216E-08  0.1809E-12  0.1054E-04  0.0000E+00 -0.9817E+11
   -1.049996    3.99565  0.0000E+00  0.2301E-08  0.1972E-12  0.1026E-04  0.0000E+00 -0.1074E+12
   -1.084996    3.99636  0.0000E+00  0.2382E-08  0.2166E-12  0.9962E-05  0.0000E+00 -0.1209E+12
   -1.119995    3.99711  0.0000E+00  0.2454E-08  0.2400E-12  0.9441E-05  0.0000E+00 -0.1393E+12
   -1.154995    3.99791  0.0000E+00  0.2516E-08  0.2688E-12  0.8724E-05  0.0000E+00 -0.1652E+12
   -1.189994    3.99879  0.0000E+00  0.2565E-08  0.3061E-12  0.7814E-05  0.0000E+00 -0.2044E+12
   -1.224993    3.99979  0.0000E+00  0.2600E-08  0.3614E-12  0.6664E-05  0.0000E+00 -0.2751E+12
   -1.259991    4.00104  0.0000E+00  0.2612E-08  0.4612E-12  0.5157E-05  0.0000E+00 -0.4397E+12
   -1.294990    4.00284  0.0000E+00  0.2557E-08  0.7283E-12  0.2926E-05  0.0000E+00 -0.1104E+13
   -1.329988    4.00666  0.0000E+00  0.2333E-08  0.1354E-11  0.1133E-05  0.0000E+00 -0.4162E+13
   -1.364986    4.01705  0.0000E+00  0.1884E-08  0.3159E-11  0.2738E-06  0.0000E+00 -0.3062E+14
   -1.399983    4.05600  0.0000E+00  0.0000E+00  0.0000E+00  0.0000E+00  0.0000E+00  0.0000E+00
