 1 - depth, m
 2 - temperature, C
 3 - salinity, kg/kg
 4 - turbulent kinetic energy, m**2/s**2
 5 - dissipation rate, m**2/s**3
 6 - kinematic heat conductance, m**2/s
 7 - modulus of horizontal velocity, m/s
 8 - Richardson number, n/d
   -0.000000    9.05151  0.0000E+00  0.1381E-03  0.7963E-04  0.4428E-04  0.1017E+00  0.1350E-02
   -0.034998    9.11375  0.0000E+00  0.7972E-04  0.2219E-04  0.9010E-04  0.3352E-01 -0.2517E-01
   -0.069996    9.12492  0.0000E+00  0.5862E-04  0.9745E-05  0.1009E-03  0.2327E-01 -0.2596E-01
   -0.104994    9.13315  0.0000E+00  0.4733E-04  0.5263E-05  0.1078E-03  0.1900E-01 -0.4244E-01
   -0.139993    9.13916  0.0000E+00  0.3954E-04  0.3033E-05  0.1172E-03  0.1596E-01 -0.4159E-01
   -0.174992    9.14421  0.0000E+00  0.3382E-04  0.1869E-05  0.1279E-03  0.1350E-01 -0.5444E-01
   -0.209992    9.14859  0.0000E+00  0.2953E-04  0.1217E-05  0.1403E-03  0.1146E-01 -0.2716E-01
   -0.244991    9.15250  0.0000E+00  0.2617E-04  0.8302E-06  0.1651E-03  0.9702E-02  0.1013E+02
   -0.279991    9.15597  0.0000E+00  0.2338E-04  0.5888E-06  0.1818E-03  0.8147E-02  0.4518E+01
   -0.314991    9.15922  0.0000E+00  0.2085E-04  0.4282E-06  0.2022E-03  0.6705E-02  0.2386E+01
   -0.349991    9.16214  0.0000E+00  0.1868E-04  0.3198E-06  0.2212E-03  0.5556E-02  0.3161E+01
   -0.384991    9.16480  0.0000E+00  0.1685E-04  0.2451E-06  0.2397E-03  0.4615E-02  0.1478E+02
   -0.419992    9.16726  0.0000E+00  0.1533E-04  0.1930E-06  0.2518E-03  0.3827E-02  0.1252E+01
   -0.454993    9.16960  0.0000E+00  0.1404E-04  0.1559E-06  0.2642E-03  0.3126E-02  0.7371E+01
   -0.489993    9.17183  0.0000E+00  0.1294E-04  0.1292E-06  0.2767E-03  0.2491E-02  0.7101E+01
   -0.524994    9.17394  0.0000E+00  0.1190E-04  0.1080E-06  0.3086E-03  0.1935E-02  0.3219E+02
   -0.559995    9.17581  0.0000E+00  0.1091E-04  0.9021E-07  0.3595E-03  0.1525E-02  0.7097E+02
   -0.594996    9.17734  0.0000E+00  0.9856E-05  0.7328E-07  0.3991E-03  0.1254E-02  0.1075E+03
   -0.629997    9.17858  0.0000E+00  0.8979E-05  0.6011E-07  0.4316E-03  0.1095E-02  0.1843E+03
   -0.664998    9.17971  0.0000E+00  0.8265E-05  0.5013E-07  0.4598E-03  0.9566E-03  0.4670E+03
   -0.699999    9.18075  0.0000E+00  0.7671E-05  0.4242E-07  0.4822E-03  0.8316E-03  0.2112E+02
   -0.735001    9.18171  0.0000E+00  0.7171E-05  0.3638E-07  0.4950E-03  0.7205E-03  0.1539E+02
   -0.770002    9.18262  0.0000E+00  0.6746E-05  0.3160E-07  0.5037E-03  0.6228E-03  0.6948E+01
   -0.805003    9.18351  0.0000E+00  0.6384E-05  0.2779E-07  0.5091E-03  0.5378E-03  0.9921E+00
   -0.840004    9.18438  0.0000E+00  0.6075E-05  0.2476E-07  0.5119E-03  0.4637E-03  0.1359E+01
   -0.875005    9.18526  0.0000E+00  0.5810E-05  0.2234E-07  0.5131E-03  0.3992E-03  0.2587E+01
   -0.910006    9.18613  0.0000E+00  0.5580E-05  0.2043E-07  0.5122E-03  0.3440E-03  0.2780E+01
   -0.945006    9.18701  0.0000E+00  0.5383E-05  0.1895E-07  0.5091E-03  0.2955E-03  0.3232E+01
   -0.980007    9.18790  0.0000E+00  0.5212E-05  0.1783E-07  0.5031E-03  0.2528E-03  0.3889E+01
   -1.015008    9.18881  0.0000E+00  0.5062E-05  0.1703E-07  0.4939E-03  0.2150E-03  0.4774E+01
   -1.050008    9.18974  0.0000E+00  0.4930E-05  0.1651E-07  0.4815E-03  0.1832E-03  0.6297E+01
   -1.085008    9.19070  0.0000E+00  0.4808E-05  0.1625E-07  0.4669E-03  0.1568E-03  0.8584E+01
   -1.120008    9.19170  0.0000E+00  0.4692E-05  0.1629E-07  0.4465E-03  0.1348E-03  0.1211E+02
   -1.155008    9.19277  0.0000E+00  0.4578E-05  0.1667E-07  0.4273E-03  0.1148E-03  0.1674E+02
   -1.190007    9.19389  0.0000E+00  0.4455E-05  0.1770E-07  0.3909E-03  0.9655E-04  0.2126E+02
   -1.225007    9.19526  0.0000E+00  0.4305E-05  0.1984E-07  0.3670E-03  0.7774E-04  0.2037E+02
   -1.260006    9.19674  0.0000E+00  0.4083E-05  0.2500E-07  0.2932E-03  0.6149E-04 -0.2474E+04
   -1.295005    9.19954  0.0000E+00  0.3672E-05  0.3877E-07  0.2700E-03  0.4447E-04  0.1059E+05
   -1.330003    9.20066  0.0000E+00  0.3045E-05  0.7894E-07  0.1237E-03  0.3725E-04  0.4861E+04
   -1.365001    9.21320  0.0000E+00  0.1966E-05  0.1950E-06  0.5278E-04  0.2342E-04 -0.5028E+08
   -1.399999    9.22417  0.0000E+00  0.0000E+00  0.0000E+00  0.0000E+00  0.3318E-04  0.0000E+00
