 1 - depth, m
 2 - temperature, C
 3 - salinity, kg/kg
 4 - turbulent kinetic energy, m**2/s**2
 5 - dissipation rate, m**2/s**3
 6 - kinematic heat conductance, m**2/s
 7 - modulus of horizontal velocity, m/s
 8 - Richardson number, n/d
   -0.000000   13.60184  0.0000E+00  0.5498E-04  0.1692E-04  0.3366E-04  0.5206E-01 -0.1343E-01
   -0.034998   13.62542  0.0000E+00  0.3350E-04  0.4949E-05  0.5422E-04  0.1995E-01 -0.8904E-01
   -0.069997   13.63160  0.0000E+00  0.2566E-04  0.2156E-05  0.6586E-04  0.1447E-01 -0.7735E-01
   -0.104996   13.63562  0.0000E+00  0.2105E-04  0.1169E-05  0.8619E-04  0.1158E-01  0.8878E+02
   -0.139996   13.63849  0.0000E+00  0.1787E-04  0.6916E-06  0.1102E-03  0.9526E-02  0.1625E+02
   -0.174995   13.64081  0.0000E+00  0.1553E-04  0.4362E-06  0.1327E-03  0.7930E-02  0.2299E+02
   -0.209995   13.64281  0.0000E+00  0.1378E-04  0.2926E-06  0.1564E-03  0.6622E-02  0.3159E+01
   -0.244995   13.64460  0.0000E+00  0.1239E-04  0.2072E-06  0.1783E-03  0.5511E-02  0.2017E+01
   -0.279996   13.64625  0.0000E+00  0.1122E-04  0.1530E-06  0.1979E-03  0.4540E-02  0.2594E+01
   -0.314996   13.64782  0.0000E+00  0.1014E-04  0.1156E-06  0.2210E-03  0.3662E-02  0.7809E+01
   -0.349997   13.64924  0.0000E+00  0.9207E-05  0.8928E-07  0.2450E-03  0.2965E-02  0.1096E+01
   -0.384998   13.65054  0.0000E+00  0.8427E-05  0.7058E-07  0.2674E-03  0.2404E-02  0.2626E+01
   -0.419999   13.65174  0.0000E+00  0.7785E-05  0.5717E-07  0.2923E-03  0.1946E-02  0.2866E+01
   -0.455000   13.65285  0.0000E+00  0.7257E-05  0.4750E-07  0.3463E-03  0.1551E-02  0.4358E+02
   -0.490002   13.65378  0.0000E+00  0.6810E-05  0.4039E-07  0.3853E-03  0.1208E-02  0.6079E+02
   -0.525003   13.65458  0.0000E+00  0.6383E-05  0.3452E-07  0.4166E-03  0.9076E-03  0.5486E+02
   -0.560005   13.65523  0.0000E+00  0.5967E-05  0.2945E-07  0.4429E-03  0.6864E-03  0.7554E+02
   -0.595006   13.65574  0.0000E+00  0.5555E-05  0.2481E-07  0.4591E-03  0.5461E-03  0.1443E+02
   -0.630008   13.65610  0.0000E+00  0.5243E-05  0.2143E-07  0.4689E-03  0.4714E-03  0.2607E+02
   -0.665010   13.65647  0.0000E+00  0.5001E-05  0.1891E-07  0.4787E-03  0.4114E-03  0.7830E+01
   -0.700012   13.65683  0.0000E+00  0.4805E-05  0.1693E-07  0.4871E-03  0.3580E-03  0.2819E+02
   -0.735013   13.65720  0.0000E+00  0.4643E-05  0.1535E-07  0.4935E-03  0.3113E-03  0.1063E+02
   -0.770015   13.65757  0.0000E+00  0.4510E-05  0.1408E-07  0.4998E-03  0.2705E-03  0.1490E+01
   -0.805017   13.65794  0.0000E+00  0.4400E-05  0.1307E-07  0.5051E-03  0.2354E-03  0.1627E+01
   -0.840018   13.65832  0.0000E+00  0.4311E-05  0.1228E-07  0.5095E-03  0.2052E-03  0.1965E+01
   -0.875020   13.65871  0.0000E+00  0.4238E-05  0.1166E-07  0.5124E-03  0.1792E-03  0.2396E+01
   -0.910021   13.65911  0.0000E+00  0.4178E-05  0.1118E-07  0.5138E-03  0.1571E-03  0.2983E+01
   -0.945023   13.65951  0.0000E+00  0.4127E-05  0.1083E-07  0.5129E-03  0.1377E-03  0.3681E+01
   -0.980024   13.65994  0.0000E+00  0.4084E-05  0.1059E-07  0.5099E-03  0.1205E-03  0.4563E+01
   -1.015025   13.66038  0.0000E+00  0.4046E-05  0.1044E-07  0.5042E-03  0.1050E-03  0.5719E+01
   -1.050026   13.66084  0.0000E+00  0.4009E-05  0.1038E-07  0.4955E-03  0.9145E-04  0.7628E+01
   -1.085027   13.66132  0.0000E+00  0.3972E-05  0.1042E-07  0.4828E-03  0.7945E-04  0.1044E+02
   -1.120027   13.66182  0.0000E+00  0.3933E-05  0.1057E-07  0.4653E-03  0.6873E-04  0.1491E+02
   -1.155028   13.66237  0.0000E+00  0.3891E-05  0.1085E-07  0.4431E-03  0.5879E-04  0.2063E+02
   -1.190028   13.66296  0.0000E+00  0.3844E-05  0.1133E-07  0.4130E-03  0.4945E-04  0.2865E+02
   -1.225028   13.66362  0.0000E+00  0.3782E-05  0.1216E-07  0.3817E-03  0.4070E-04  0.3967E+02
   -1.260028   13.66434  0.0000E+00  0.3689E-05  0.1382E-07  0.3058E-03  0.3294E-04  0.6470E+02
   -1.295027   13.66528  0.0000E+00  0.3494E-05  0.1828E-07  0.2962E-03  0.2599E-04  0.4587E+04
   -1.330026   13.66622  0.0000E+00  0.3065E-05  0.3247E-07  0.1204E-03  0.2189E-04  0.9065E+05
   -1.365025   13.67155  0.0000E+00  0.1964E-05  0.8896E-07  0.3870E-04  0.1445E-04 -0.2309E+07
   -1.400023   13.67996  0.0000E+00  0.0000E+00  0.0000E+00  0.0000E+00  0.1645E-04  0.0000E+00
