 1 - depth, m
 2 - temperature, C
 3 - salinity, kg/kg
 4 - turbulent kinetic energy, m**2/s**2
 5 - dissipation rate, m**2/s**3
 6 - kinematic heat conductance, m**2/s
 7 - modulus of horizontal velocity, m/s
 8 - Richardson number, n/d
   -0.000000   11.83994  0.0000E+00  0.1051E-03  0.5262E-04  0.4595E-04  0.8160E-01 -0.1078E+00
   -0.034998   11.86437  0.0000E+00  0.6068E-04  0.1449E-04  0.7041E-04  0.2821E-01 -0.2741E-01
   -0.069996   11.86829  0.0000E+00  0.4451E-04  0.6248E-05  0.8120E-04  0.1970E-01 -0.1846E-01
   -0.104994   11.87128  0.0000E+00  0.3592E-04  0.3439E-05  0.8805E-04  0.1592E-01 -0.2288E-01
   -0.139993   11.87369  0.0000E+00  0.2997E-04  0.2037E-05  0.9641E-04  0.1322E-01 -0.4019E-01
   -0.174992   11.87584  0.0000E+00  0.2559E-04  0.1266E-05  0.1062E-03  0.1109E-01 -0.6469E-01
   -0.209991   11.87784  0.0000E+00  0.2228E-04  0.8189E-06  0.1206E-03  0.9319E-02  0.1966E+00
   -0.244991   11.87971  0.0000E+00  0.1968E-04  0.5523E-06  0.1426E-03  0.7816E-02  0.7135E+01
   -0.279990   11.88148  0.0000E+00  0.1753E-04  0.3879E-06  0.1567E-03  0.6503E-02  0.1103E+02
   -0.314990   11.88325  0.0000E+00  0.1558E-04  0.2808E-06  0.1752E-03  0.5298E-02  0.1703E+02
   -0.349990   11.88487  0.0000E+00  0.1391E-04  0.2096E-06  0.1931E-03  0.4344E-02  0.2726E+01
   -0.384991   11.88637  0.0000E+00  0.1251E-04  0.1609E-06  0.2116E-03  0.3571E-02  0.8382E+02
   -0.419991   11.88777  0.0000E+00  0.1135E-04  0.1270E-06  0.2296E-03  0.2932E-02  0.4321E+02
   -0.454992   11.88913  0.0000E+00  0.1038E-04  0.1027E-06  0.2438E-03  0.2371E-02  0.1712E+01
   -0.489992   11.89047  0.0000E+00  0.9549E-05  0.8513E-07  0.2568E-03  0.1867E-02  0.1940E+02
   -0.524993   11.89175  0.0000E+00  0.8769E-05  0.7115E-07  0.2828E-03  0.1429E-02  0.2612E+02
   -0.559994   11.89282  0.0000E+00  0.8013E-05  0.5927E-07  0.3025E-03  0.1110E-02  0.3703E+03
   -0.594995   11.89360  0.0000E+00  0.7217E-05  0.4793E-07  0.3233E-03  0.9007E-03  0.7173E+02
   -0.629996   11.89408  0.0000E+00  0.6562E-05  0.3915E-07  0.3501E-03  0.7779E-03  0.1248E+03
   -0.664997   11.89455  0.0000E+00  0.6046E-05  0.3263E-07  0.3840E-03  0.6718E-03  0.9755E+02
   -0.699998   11.89500  0.0000E+00  0.5636E-05  0.2772E-07  0.4141E-03  0.5795E-03  0.1355E+03
   -0.734999   11.89542  0.0000E+00  0.5304E-05  0.2395E-07  0.4312E-03  0.5001E-03  0.1600E+02
   -0.770000   11.89583  0.0000E+00  0.5031E-05  0.2099E-07  0.4399E-03  0.4316E-03  0.7226E+01
   -0.805002   11.89624  0.0000E+00  0.4805E-05  0.1866E-07  0.4469E-03  0.3722E-03  0.2738E+02
   -0.840002   11.89667  0.0000E+00  0.4619E-05  0.1682E-07  0.4522E-03  0.3209E-03  0.4017E+01
   -0.875003   11.89711  0.0000E+00  0.4467E-05  0.1539E-07  0.4557E-03  0.2766E-03  0.5186E+01
   -0.910004   11.89757  0.0000E+00  0.4342E-05  0.1427E-07  0.4573E-03  0.2388E-03  0.6739E+01
   -0.945005   11.89805  0.0000E+00  0.4240E-05  0.1341E-07  0.4573E-03  0.2056E-03  0.8691E+01
   -0.980006   11.89857  0.0000E+00  0.4155E-05  0.1278E-07  0.4552E-03  0.1764E-03  0.1110E+02
   -1.015006   11.89912  0.0000E+00  0.4084E-05  0.1235E-07  0.4508E-03  0.1505E-03  0.1443E+02
   -1.050006   11.89970  0.0000E+00  0.4022E-05  0.1209E-07  0.4435E-03  0.1286E-03  0.1976E+02
   -1.085006   11.90031  0.0000E+00  0.3967E-05  0.1198E-07  0.4335E-03  0.1102E-03  0.2797E+02
   -1.120006   11.90096  0.0000E+00  0.3915E-05  0.1204E-07  0.4190E-03  0.9457E-04  0.4091E+02
   -1.155006   11.90167  0.0000E+00  0.3862E-05  0.1229E-07  0.4017E-03  0.8045E-04  0.5827E+02
   -1.190005   11.90246  0.0000E+00  0.3803E-05  0.1284E-07  0.3747E-03  0.6746E-04  0.8122E+02
   -1.225005   11.90336  0.0000E+00  0.3729E-05  0.1388E-07  0.3492E-03  0.5495E-04  0.1471E+04
   -1.260004   11.90436  0.0000E+00  0.3614E-05  0.1624E-07  0.2866E-03  0.4409E-04 -0.4171E+04
   -1.295002   11.90579  0.0000E+00  0.3373E-05  0.2269E-07  0.2606E-03  0.3361E-04  0.8648E+03
   -1.330001   11.90703  0.0000E+00  0.2923E-05  0.4140E-07  0.1210E-03  0.2797E-04  0.1062E+07
   -1.364999   11.91360  0.0000E+00  0.1896E-05  0.1080E-06  0.3877E-04  0.1816E-04 -0.1483E+08
   -1.399997   11.92566  0.0000E+00  0.0000E+00  0.0000E+00  0.0000E+00  0.2234E-04  0.0000E+00
