 1 - depth, m
 2 - temperature, C
 3 - salinity, kg/kg
 4 - turbulent kinetic energy, m**2/s**2
 5 - dissipation rate, m**2/s**3
 6 - kinematic heat conductance, m**2/s
 7 - modulus of horizontal velocity, m/s
 8 - Richardson number, n/d
   -0.000000   10.92292  0.0000E+00  0.2774E-03  0.3799E-03  0.6133E-04  0.1656E+00 -0.2116E-01
   -0.034998   10.96884  0.0000E+00  0.1487E-03  0.1134E-03  0.1062E-03  0.5257E-01  0.7920E-01
   -0.069996   10.98044  0.0000E+00  0.1030E-03  0.3893E-04  0.1386E-03  0.3308E-01  0.7966E-02
   -0.104994   10.98780  0.0000E+00  0.8101E-04  0.2080E-04  0.1423E-03  0.2609E-01 -0.9152E-01
   -0.139993   10.99242  0.0000E+00  0.6713E-04  0.1234E-04  0.1492E-03  0.2162E-01 -0.2802E-01
   -0.174992   10.99583  0.0000E+00  0.5701E-04  0.7553E-05  0.1569E-03  0.1828E-01 -0.3672E-01
   -0.209992   10.99869  0.0000E+00  0.4930E-04  0.4699E-05  0.1650E-03  0.1557E-01 -0.4028E-01
   -0.244991   11.00122  0.0000E+00  0.4330E-04  0.2966E-05  0.1733E-03  0.1328E-01 -0.4161E-01
   -0.279991   11.00353  0.0000E+00  0.3844E-04  0.1916E-05  0.1875E-03  0.1126E-01  0.2544E+01
   -0.314991   11.00579  0.0000E+00  0.3410E-04  0.1278E-05  0.2151E-03  0.9292E-02  0.5096E+01
   -0.349991   11.00773  0.0000E+00  0.3049E-04  0.8906E-06  0.2309E-03  0.7807E-02  0.2081E+02
   -0.384992   11.00953  0.0000E+00  0.2748E-04  0.6485E-06  0.2461E-03  0.6602E-02  0.7388E+02
   -0.419992   11.01118  0.0000E+00  0.2499E-04  0.4934E-06  0.2578E-03  0.5595E-02  0.5382E+01
   -0.454993   11.01283  0.0000E+00  0.2288E-04  0.3908E-06  0.2657E-03  0.4676E-02  0.1254E+03
   -0.489993   11.01442  0.0000E+00  0.2105E-04  0.3203E-06  0.2746E-03  0.3827E-02  0.8294E+01
   -0.524994   11.01600  0.0000E+00  0.1931E-04  0.2665E-06  0.2957E-03  0.3077E-02  0.1956E+02
   -0.559995   11.01733  0.0000E+00  0.1763E-04  0.2224E-06  0.3148E-03  0.2526E-02  0.6843E+03
   -0.594996   11.01843  0.0000E+00  0.1583E-04  0.1804E-06  0.3238E-03  0.2160E-02  0.5071E+03
   -0.629998   11.01924  0.0000E+00  0.1426E-04  0.1470E-06  0.3344E-03  0.1938E-02  0.5204E+03
   -0.664999   11.02014  0.0000E+00  0.1294E-04  0.1211E-06  0.3502E-03  0.1729E-02  0.1435E+05
   -0.700000   11.02104  0.0000E+00  0.1182E-04  0.1007E-06  0.3747E-03  0.1535E-02  0.1724E+04
   -0.735001   11.02189  0.0000E+00  0.1086E-04  0.8460E-07  0.4099E-03  0.1356E-02  0.4004E+03
   -0.770002   11.02269  0.0000E+00  0.1003E-04  0.7165E-07  0.4477E-03  0.1196E-02  0.3223E+03
   -0.805003   11.02341  0.0000E+00  0.9299E-05  0.6113E-07  0.4790E-03  0.1052E-02  0.2742E+04
   -0.840004   11.02408  0.0000E+00  0.8656E-05  0.5256E-07  0.4971E-03  0.9224E-03  0.8246E+02
   -0.875005   11.02471  0.0000E+00  0.8089E-05  0.4557E-07  0.5079E-03  0.8055E-03  0.5470E+02
   -0.910006   11.02532  0.0000E+00  0.7585E-05  0.3986E-07  0.5099E-03  0.7014E-03  0.6353E+02
   -0.945007   11.02593  0.0000E+00  0.7141E-05  0.3527E-07  0.5085E-03  0.6068E-03  0.1778E+03
   -0.980008   11.02654  0.0000E+00  0.6750E-05  0.3164E-07  0.5043E-03  0.5202E-03  0.7877E+02
   -1.015008   11.02716  0.0000E+00  0.6403E-05  0.2884E-07  0.4976E-03  0.4413E-03  0.9634E+02
   -1.050008   11.02779  0.0000E+00  0.6093E-05  0.2676E-07  0.4861E-03  0.3724E-03  0.1240E+03
   -1.085009   11.02844  0.0000E+00  0.5813E-05  0.2536E-07  0.4692E-03  0.3142E-03  0.1751E+03
   -1.120009   11.02912  0.0000E+00  0.5559E-05  0.2473E-07  0.4474E-03  0.2656E-03  0.2785E+03
   -1.155008   11.02985  0.0000E+00  0.5319E-05  0.2514E-07  0.4234E-03  0.2229E-03  0.1313E+04
   -1.190008   11.03068  0.0000E+00  0.5072E-05  0.2720E-07  0.3857E-03  0.1834E-03  0.8048E+03
   -1.225007   11.03170  0.0000E+00  0.4796E-05  0.3165E-07  0.3550E-03  0.1438E-03  0.6497E+03
   -1.260006   11.03287  0.0000E+00  0.4423E-05  0.4374E-07  0.2865E-03  0.1095E-03  0.7438E+03
   -1.295005   11.03502  0.0000E+00  0.3913E-05  0.7218E-07  0.2624E-03  0.7684E-04  0.6358E+04
   -1.330004   11.03538  0.0000E+00  0.3238E-05  0.1548E-06  0.1298E-03  0.6660E-04  0.2069E+05
   -1.365002   11.04395  0.0000E+00  0.2122E-05  0.3485E-06  0.5723E-04  0.4294E-04 -0.3927E+08
   -1.400000   11.05253  0.0000E+00  0.0000E+00  0.0000E+00  0.0000E+00  0.6947E-04  0.0000E+00
