 1 - depth, m
 2 - temperature, C
 3 - salinity, kg/kg
 4 - turbulent kinetic energy, m**2/s**2
 5 - dissipation rate, m**2/s**3
 6 - kinematic heat conductance, m**2/s
 7 - modulus of horizontal velocity, m/s
 8 - Richardson number, n/d
   -0.000000    0.00000  0.0000E+00  0.4702E-13  0.1132E-15  0.1000E-09  0.0000E+00  0.1726E+17
   -0.034996    0.26849  0.0000E+00  0.4702E-13  0.1132E-15  0.1000E-09  0.0000E+00  0.1523E+17
   -0.069993    0.52386  0.0000E+00  0.4702E-13  0.1132E-15  0.1000E-09  0.0000E+00  0.1341E+17
   -0.104990    0.76659  0.0000E+00  0.4702E-13  0.1132E-15  0.1000E-09  0.0000E+00  0.1172E+17
   -0.139988    0.99559  0.0000E+00  0.4702E-13  0.1132E-15  0.1000E-09  0.0000E+00  0.1017E+17
   -0.174986    1.21045  0.0000E+00  0.4702E-13  0.1132E-15  0.1000E-09  0.0000E+00  0.8804E+16
   -0.209983    1.41164  0.0000E+00  0.4702E-13  0.1132E-15  0.1000E-09  0.0000E+00  0.7600E+16
   -0.244982    1.59955  0.0000E+00  0.4702E-13  0.1132E-15  0.1000E-09  0.0000E+00  0.6542E+16
   -0.279980    1.77458  0.0000E+00  0.4702E-13  0.1132E-15  0.1000E-09  0.0000E+00  0.5613E+16
   -0.314979    1.93710  0.0000E+00  0.4702E-13  0.1132E-15  0.1000E-09  0.0000E+00  0.4833E+16
   -0.349978    2.08856  0.0000E+00  0.4702E-13  0.1132E-15  0.1000E-09  0.0000E+00  0.4141E+16
   -0.384977    2.22904  0.0000E+00  0.4702E-13  0.1132E-15  0.1000E-09  0.0000E+00  0.3526E+16
   -0.419976    2.35850  0.0000E+00  0.4702E-13  0.1132E-15  0.1000E-09  0.0000E+00  0.3011E+16
   -0.454975    2.47803  0.0000E+00  0.4702E-13  0.1132E-15  0.1000E-09  0.0000E+00  0.2588E+16
   -0.489974    2.58915  0.0000E+00  0.4702E-13  0.1132E-15  0.1000E-09  0.0000E+00  0.2234E+16
   -0.524974    2.69291  0.0000E+00  0.4702E-13  0.1132E-15  0.1000E-09  0.0000E+00  0.2000E+16
   -0.559974    2.79360  0.0000E+00  0.4702E-13  0.1132E-15  0.1000E-09  0.0000E+00  0.1810E+16
   -0.594973    2.89288  0.0000E+00  0.4702E-13  0.1132E-15  0.1000E-09  0.0000E+00  0.1621E+16
   -0.629973    2.99032  0.0000E+00  0.4702E-13  0.1132E-15  0.1000E-09  0.0000E+00  0.1344E+16
   -0.664973    3.07915  0.0000E+00  0.4702E-13  0.1132E-15  0.1000E-09  0.0000E+00  0.1107E+16
   -0.699973    3.15954  0.0000E+00  0.4702E-13  0.1132E-15  0.1000E-09  0.0000E+00  0.9045E+15
   -0.734972    3.23166  0.0000E+00  0.4702E-13  0.1132E-15  0.1000E-09  0.0000E+00  0.7472E+15
   -0.769972    3.29697  0.0000E+00  0.4702E-13  0.1132E-15  0.1000E-09  0.0000E+00  0.6435E+15
   -0.804972    3.35871  0.0000E+00  0.4702E-13  0.1132E-15  0.1000E-09  0.0000E+00  0.5513E+15
   -0.839972    3.41695  0.0000E+00  0.4702E-13  0.1132E-15  0.1000E-09  0.0000E+00  0.4702E+15
   -0.874971    3.47187  0.0000E+00  0.4702E-13  0.1132E-15  0.1000E-09  0.0000E+00  0.4003E+15
   -0.909971    3.52378  0.0000E+00  0.4702E-13  0.1132E-15  0.1000E-09  0.0000E+00  0.3356E+15
   -0.944970    3.57232  0.0000E+00  0.4702E-13  0.1132E-15  0.1000E-09  0.0000E+00  0.2790E+15
   -0.979970    3.61754  0.0000E+00  0.4702E-13  0.1132E-15  0.1000E-09  0.0000E+00  0.2307E+15
   -1.014969    3.65966  0.0000E+00  0.4708E-13  0.1132E-15  0.1000E-09  0.0000E+00  0.1931E+15
   -1.049968    3.69967  0.0000E+00  0.1538E-12  0.1501E-15  0.1000E-09  0.0000E+00  0.1617E+15
   -1.084967    3.73811  0.0000E+00  0.5239E-12  0.4406E-15  0.1000E-09  0.0000E+00  0.1366E+15
   -1.119965    3.77599  0.0000E+00  0.1666E-11  0.1377E-14  0.1000E-09  0.0000E+00  0.1102E+15
   -1.154964    3.81252  0.0000E+00  0.5214E-11  0.4319E-14  0.1143E-09  0.0000E+00  0.8746E+14
   -1.189962    3.84823  0.0000E+00  0.1638E-10  0.1373E-13  0.4277E-09  0.0000E+00  0.6815E+14
   -1.224960    3.88440  0.0000E+00  0.5433E-10  0.4669E-13  0.1765E-08  0.0000E+00  0.5293E+14
   -1.259958    3.92596  0.0000E+00  0.1930E-09  0.1728E-12  0.1003E-07  0.0000E+00  0.2833E+14
   -1.294955    3.98002  0.0000E+00  0.7701E-09  0.7552E-12  0.1799E-06  0.0000E+00 -0.9592E+13
   -1.329952    4.02229  0.0000E+00  0.1744E-08  0.2315E-11  0.4283E-06  0.0000E+00 -0.2384E+14
   -1.364949    4.05219  0.0000E+00  0.2487E-08  0.5845E-11  0.3342E-06  0.0000E+00 -0.7328E+14
   -1.399945    4.10339  0.0000E+00  0.0000E+00  0.0000E+00  0.0000E+00  0.0000E+00  0.0000E+00
