 1 - depth, m
 2 - temperature, C
 3 - salinity, kg/kg
 4 - turbulent kinetic energy, m**2/s**2
 5 - dissipation rate, m**2/s**3
 6 - kinematic heat conductance, m**2/s
 7 - modulus of horizontal velocity, m/s
 8 - Richardson number, n/d
   -0.000000    0.00000  0.0000E+00  0.4702E-13  0.1132E-15  0.1000E-09  0.0000E+00  0.1255E+17
   -0.034998    0.19325  0.0000E+00  0.4702E-13  0.1132E-15  0.1000E-09  0.0000E+00  0.1194E+17
   -0.069996    0.38741  0.0000E+00  0.4702E-13  0.1132E-15  0.1000E-09  0.0000E+00  0.1132E+17
   -0.104994    0.58240  0.0000E+00  0.4702E-13  0.1132E-15  0.1000E-09  0.0000E+00  0.1058E+17
   -0.139993    0.77593  0.0000E+00  0.4702E-13  0.1132E-15  0.1000E-09  0.0000E+00  0.9785E+16
   -0.174992    0.96656  0.0000E+00  0.4702E-13  0.1132E-15  0.1000E-09  0.0000E+00  0.9010E+16
   -0.209991    1.15403  0.0000E+00  0.4702E-13  0.1132E-15  0.1000E-09  0.0000E+00  0.8259E+16
   -0.244990    1.33810  0.0000E+00  0.4702E-13  0.1132E-15  0.1000E-09  0.0000E+00  0.7535E+16
   -0.279990    1.51854  0.0000E+00  0.4702E-13  0.1132E-15  0.1000E-09  0.0000E+00  0.6839E+16
   -0.314990    1.69511  0.0000E+00  0.4702E-13  0.1132E-15  0.1000E-09  0.0000E+00  0.6165E+16
   -0.349990    1.86738  0.0000E+00  0.4702E-13  0.1132E-15  0.1000E-09  0.0000E+00  0.5520E+16
   -0.384990    2.03495  0.0000E+00  0.4702E-13  0.1132E-15  0.1000E-09  0.0000E+00  0.4905E+16
   -0.419990    2.19744  0.0000E+00  0.9227E-13  0.1132E-15  0.1000E-09  0.0000E+00  0.4346E+16
   -0.454991    2.35532  0.0000E+00  0.3305E-12  0.1132E-15  0.1000E-09  0.0000E+00  0.3835E+16
   -0.489991    2.50899  0.0000E+00  0.7727E-12  0.1530E-15  0.1000E-09  0.0000E+00  0.3347E+16
   -0.524992    2.65792  0.0000E+00  0.1577E-11  0.2522E-15  0.1000E-09  0.0000E+00  0.2854E+16
   -0.559993    2.79996  0.0000E+00  0.3107E-11  0.4531E-15  0.1000E-09  0.0000E+00  0.2353E+16
   -0.594994    2.93166  0.0000E+00  0.6235E-11  0.8683E-15  0.1000E-09  0.0000E+00  0.1884E+16
   -0.629995    3.05060  0.0000E+00  0.1117E-10  0.1520E-14  0.1000E-09  0.0000E+00  0.1578E+16
   -0.664996    3.16360  0.0000E+00  0.1890E-10  0.2527E-14  0.1000E-09  0.0000E+00  0.1302E+16
   -0.699997    3.27029  0.0000E+00  0.3129E-10  0.4118E-14  0.1000E-09  0.0000E+00  0.1052E+16
   -0.734998    3.37000  0.0000E+00  0.5145E-10  0.6668E-14  0.1000E-09  0.0000E+00  0.8406E+15
   -0.769999    3.46336  0.0000E+00  0.8433E-10  0.1076E-13  0.1000E-09  0.0000E+00  0.6769E+15
   -0.805000    3.55305  0.0000E+00  0.1379E-09  0.1735E-13  0.1000E-09  0.0000E+00  0.5287E+15
   -0.840001    3.63898  0.0000E+00  0.2249E-09  0.2786E-13  0.1826E-09  0.0000E+00  0.3957E+15
   -0.875001    3.72104  0.0000E+00  0.3663E-09  0.4471E-13  0.4177E-09  0.0000E+00  0.2775E+15
   -0.910002    3.79903  0.0000E+00  0.5947E-09  0.7154E-13  0.1063E-08  0.0000E+00  0.1745E+15
   -0.945003    3.87291  0.0000E+00  0.9593E-09  0.1138E-12  0.3454E-08  0.0000E+00  0.8546E+14
   -0.980003    3.94194  0.0000E+00  0.1526E-08  0.1787E-12  0.3177E-07  0.0000E+00  0.1465E+14
   -1.015004    3.99669  0.0000E+00  0.1908E-08  0.2246E-12  0.7025E-05  0.0000E+00 -0.2140E+12
   -1.050004    3.99793  0.0000E+00  0.2111E-08  0.2536E-12  0.7208E-05  0.0000E+00 -0.2181E+12
   -1.085004    3.99908  0.0000E+00  0.2292E-08  0.2852E-12  0.7455E-05  0.0000E+00 -0.2324E+12
   -1.120004    4.00019  0.0000E+00  0.2450E-08  0.3202E-12  0.7440E-05  0.0000E+00 -0.2545E+12
   -1.155003    4.00132  0.0000E+00  0.2582E-08  0.3605E-12  0.7183E-05  0.0000E+00 -0.2876E+12
   -1.190003    4.00249  0.0000E+00  0.2687E-08  0.4097E-12  0.6684E-05  0.0000E+00 -0.3396E+12
   -1.225002    4.00378  0.0000E+00  0.2766E-08  0.4797E-12  0.5916E-05  0.0000E+00 -0.4345E+12
   -1.260001    4.00530  0.0000E+00  0.2816E-08  0.6011E-12  0.4778E-05  0.0000E+00 -0.6509E+12
   -1.295000    4.00738  0.0000E+00  0.2797E-08  0.9110E-12  0.2908E-05  0.0000E+00 -0.1465E+13
   -1.329998    4.01143  0.0000E+00  0.2586E-08  0.1610E-11  0.1208E-05  0.0000E+00 -0.4872E+13
   -1.364996    4.02171  0.0000E+00  0.2095E-08  0.3643E-11  0.2949E-06  0.0000E+00 -0.3313E+14
   -1.399994    4.06038  0.0000E+00  0.0000E+00  0.0000E+00  0.0000E+00  0.0000E+00  0.0000E+00
