 1 - depth, m
 2 - temperature, C
 3 - salinity, kg/kg
 4 - turbulent kinetic energy, m**2/s**2
 5 - dissipation rate, m**2/s**3
 6 - kinematic heat conductance, m**2/s
 7 - modulus of horizontal velocity, m/s
 8 - Richardson number, n/d
   -0.000000    0.00000  0.0000E+00  0.4702E-13  0.1132E-15  0.1000E-09  0.0000E+00  0.9768E+16
   -0.034998    0.14953  0.0000E+00  0.4702E-13  0.1132E-15  0.1000E-09  0.0000E+00  0.9577E+16
   -0.069996    0.30242  0.0000E+00  0.4702E-13  0.1132E-15  0.1000E-09  0.0000E+00  0.9364E+16
   -0.104995    0.45874  0.0000E+00  0.4702E-13  0.1132E-15  0.1000E-09  0.0000E+00  0.8955E+16
   -0.139993    0.61542  0.0000E+00  0.4702E-13  0.1132E-15  0.1000E-09  0.0000E+00  0.8448E+16
   -0.174993    0.77064  0.0000E+00  0.4702E-13  0.1132E-15  0.1000E-09  0.0000E+00  0.7948E+16
   -0.209992    0.92426  0.0000E+00  0.4702E-13  0.1132E-15  0.1000E-09  0.0000E+00  0.7459E+16
   -0.244991    1.07618  0.0000E+00  0.4702E-13  0.1132E-15  0.1000E-09  0.0000E+00  0.6980E+16
   -0.279991    1.22630  0.0000E+00  0.4702E-13  0.1132E-15  0.1000E-09  0.0000E+00  0.6513E+16
   -0.314991    1.37453  0.0000E+00  0.4702E-13  0.1132E-15  0.1000E-09  0.0000E+00  0.5968E+16
   -0.349992    1.51851  0.0000E+00  0.4702E-13  0.1132E-15  0.1000E-09  0.0000E+00  0.5429E+16
   -0.384992    1.65753  0.0000E+00  0.4702E-13  0.1132E-15  0.1000E-09  0.0000E+00  0.4907E+16
   -0.419993    1.79107  0.0000E+00  0.4702E-13  0.1132E-15  0.1000E-09  0.0000E+00  0.4500E+16
   -0.454993    1.92139  0.0000E+00  0.4702E-13  0.1132E-15  0.1000E-09  0.0000E+00  0.4163E+16
   -0.489994    2.05003  0.0000E+00  0.4702E-13  0.1132E-15  0.1000E-09  0.0000E+00  0.3807E+16
   -0.524995    2.17590  0.0000E+00  0.4702E-13  0.1132E-15  0.1000E-09  0.0000E+00  0.3316E+16
   -0.559996    2.29342  0.0000E+00  0.4702E-13  0.1132E-15  0.1000E-09  0.0000E+00  0.2719E+16
   -0.594997    2.39644  0.0000E+00  0.4702E-13  0.1132E-15  0.1000E-09  0.0000E+00  0.2115E+16
   -0.629998    2.48157  0.0000E+00  0.4702E-13  0.1132E-15  0.1000E-09  0.0000E+00  0.1920E+16
   -0.665000    2.56338  0.0000E+00  0.4702E-13  0.1132E-15  0.1000E-09  0.0000E+00  0.1734E+16
   -0.700001    2.64163  0.0000E+00  0.4702E-13  0.1132E-15  0.1000E-09  0.0000E+00  0.1549E+16
   -0.735002    2.71570  0.0000E+00  0.4702E-13  0.1132E-15  0.1000E-09  0.0000E+00  0.1391E+16
   -0.770003    2.78618  0.0000E+00  0.4702E-13  0.1132E-15  0.1000E-09  0.0000E+00  0.1296E+16
   -0.805004    2.85586  0.0000E+00  0.4702E-13  0.1132E-15  0.1000E-09  0.0000E+00  0.1205E+16
   -0.840005    2.92484  0.0000E+00  0.4702E-13  0.1132E-15  0.1000E-09  0.0000E+00  0.1117E+16
   -0.875006    2.99314  0.0000E+00  0.4702E-13  0.1132E-15  0.1000E-09  0.0000E+00  0.1030E+16
   -0.910007    3.06067  0.0000E+00  0.4702E-13  0.1132E-15  0.1000E-09  0.0000E+00  0.9510E+15
   -0.945008    3.12776  0.0000E+00  0.4702E-13  0.1132E-15  0.1000E-09  0.0000E+00  0.8740E+15
   -0.980009    3.19450  0.0000E+00  0.4702E-13  0.1132E-15  0.1000E-09  0.0000E+00  0.7972E+15
   -1.015009    3.26077  0.0000E+00  0.4702E-13  0.1132E-15  0.1000E-09  0.0000E+00  0.7124E+15
   -1.050010    3.32568  0.0000E+00  0.4702E-13  0.1132E-15  0.1000E-09  0.0000E+00  0.6315E+15
   -1.085010    3.38914  0.0000E+00  0.4702E-13  0.1132E-15  0.1000E-09  0.0000E+00  0.5780E+15
   -1.120010    3.45389  0.0000E+00  0.4702E-13  0.1132E-15  0.1000E-09  0.0000E+00  0.5237E+15
   -1.155010    3.52033  0.0000E+00  0.4706E-13  0.1132E-15  0.1000E-09  0.0000E+00  0.4657E+15
   -1.190010    3.58871  0.0000E+00  0.1862E-12  0.2853E-15  0.1000E-09  0.0000E+00  0.4034E+15
   -1.225009    3.65940  0.0000E+00  0.8815E-12  0.1303E-14  0.1000E-09  0.0000E+00  0.3370E+15
   -1.260008    3.73324  0.0000E+00  0.4406E-11  0.6538E-14  0.1000E-09  0.0000E+00  0.2667E+15
   -1.295007    3.81279  0.0000E+00  0.2574E-10  0.3886E-13  0.4342E-09  0.0000E+00  0.1822E+15
   -1.330005    3.90325  0.0000E+00  0.1215E-09  0.1907E-12  0.4725E-08  0.0000E+00  0.5259E+14
   -1.365004    4.00044  0.0000E+00  0.5347E-09  0.9822E-12  0.1101E-06  0.0000E+00 -0.4883E+14
   -1.400001    4.06672  0.0000E+00  0.0000E+00  0.0000E+00  0.0000E+00  0.0000E+00  0.0000E+00
