 1 - depth, m
 2 - temperature, C
 3 - salinity, kg/kg
 4 - turbulent kinetic energy, m**2/s**2
 5 - dissipation rate, m**2/s**3
 6 - kinematic heat conductance, m**2/s
 7 - modulus of horizontal velocity, m/s
 8 - Richardson number, n/d
   -0.000000   11.10353  0.0000E+00  0.1157E-03  0.5806E-04  0.4453E-04  0.9098E-01 -0.9843E-01
   -0.034999   11.15450  0.0000E+00  0.6951E-04  0.1563E-04  0.8108E-04  0.3196E-01 -0.5494E-01
   -0.069998   11.16472  0.0000E+00  0.5196E-04  0.6695E-05  0.9287E-04  0.2259E-01 -0.2850E-01
   -0.104998   11.17214  0.0000E+00  0.4235E-04  0.3680E-05  0.1037E-03  0.1825E-01 -0.2992E-01
   -0.139997   11.17768  0.0000E+00  0.3583E-04  0.2208E-05  0.1151E-03  0.1516E-01 -0.3601E-01
   -0.174998   11.18221  0.0000E+00  0.3103E-04  0.1408E-05  0.1267E-03  0.1275E-01 -0.5142E-01
   -0.209998   11.18607  0.0000E+00  0.2738E-04  0.9471E-06  0.1379E-03  0.1076E-01 -0.6204E-01
   -0.244999   11.18946  0.0000E+00  0.2449E-04  0.6697E-06  0.1482E-03  0.9077E-02 -0.6477E-01
   -0.279999   11.19252  0.0000E+00  0.2203E-04  0.4929E-06  0.1583E-03  0.7599E-02 -0.4872E-01
   -0.315001   11.19531  0.0000E+00  0.1981E-04  0.3727E-06  0.1900E-03  0.6257E-02  0.6893E+02
   -0.350002   11.19766  0.0000E+00  0.1789E-04  0.2888E-06  0.2497E-03  0.5189E-02  0.4000E+02
   -0.385003   11.19961  0.0000E+00  0.1627E-04  0.2289E-06  0.2699E-03  0.4326E-02  0.2850E+03
   -0.420005   11.20137  0.0000E+00  0.1490E-04  0.1854E-06  0.2856E-03  0.3597E-02  0.5390E+01
   -0.455007   11.20298  0.0000E+00  0.1374E-04  0.1533E-06  0.3036E-03  0.2948E-02  0.6730E+01
   -0.490008   11.20444  0.0000E+00  0.1274E-04  0.1294E-06  0.3340E-03  0.2361E-02  0.5702E+02
   -0.525010   11.20573  0.0000E+00  0.1180E-04  0.1099E-06  0.3796E-03  0.1843E-02  0.1992E+02
   -0.560012   11.20683  0.0000E+00  0.1088E-04  0.9313E-07  0.4281E-03  0.1456E-02  0.1727E+02
   -0.595014   11.20779  0.0000E+00  0.9928E-05  0.7695E-07  0.4646E-03  0.1199E-02  0.1467E+03
   -0.630017   11.20868  0.0000E+00  0.9133E-05  0.6413E-07  0.4824E-03  0.1052E-02  0.1431E+02
   -0.665019   11.20951  0.0000E+00  0.8473E-05  0.5409E-07  0.4943E-03  0.9259E-03  0.1080E+02
   -0.700021   11.21029  0.0000E+00  0.7908E-05  0.4608E-07  0.5035E-03  0.8096E-03  0.6263E+01
   -0.735023   11.21105  0.0000E+00  0.7422E-05  0.3962E-07  0.5130E-03  0.7048E-03  0.3016E+01
   -0.770025   11.21177  0.0000E+00  0.7003E-05  0.3439E-07  0.5208E-03  0.6123E-03  0.7693E+01
   -0.805028   11.21247  0.0000E+00  0.6641E-05  0.3016E-07  0.5262E-03  0.5315E-03  0.6515E+00
   -0.840030   11.21315  0.0000E+00  0.6328E-05  0.2677E-07  0.5300E-03  0.4610E-03  0.1607E+01
   -0.875032   11.21381  0.0000E+00  0.6055E-05  0.2404E-07  0.5323E-03  0.3997E-03  0.1686E+02
   -0.910034   11.21446  0.0000E+00  0.5816E-05  0.2184E-07  0.5321E-03  0.3469E-03  0.2257E+01
   -0.945036   11.21511  0.0000E+00  0.5607E-05  0.2011E-07  0.5293E-03  0.3001E-03  0.3892E+01
   -0.980037   11.21575  0.0000E+00  0.5423E-05  0.1878E-07  0.5241E-03  0.2586E-03  0.2231E+01
   -1.015039   11.21638  0.0000E+00  0.5260E-05  0.1779E-07  0.5159E-03  0.2216E-03  0.3191E+01
   -1.050040   11.21702  0.0000E+00  0.5112E-05  0.1709E-07  0.5040E-03  0.1899E-03  0.3501E+01
   -1.085042   11.21767  0.0000E+00  0.4974E-05  0.1666E-07  0.4888E-03  0.1628E-03  0.4300E+01
   -1.120043   11.21832  0.0000E+00  0.4842E-05  0.1654E-07  0.4675E-03  0.1399E-03  0.6099E+01
   -1.155043   11.21901  0.0000E+00  0.4714E-05  0.1679E-07  0.4461E-03  0.1190E-03  0.8423E+01
   -1.190044   11.21972  0.0000E+00  0.4581E-05  0.1764E-07  0.4092E-03  0.9998E-04  0.1276E+02
   -1.225044   11.22054  0.0000E+00  0.4426E-05  0.1955E-07  0.3818E-03  0.8079E-04  0.1634E+02
   -1.260045   11.22144  0.0000E+00  0.4204E-05  0.2418E-07  0.3052E-03  0.6404E-04 -0.2905E+04
   -1.295044   11.22299  0.0000E+00  0.3795E-05  0.3647E-07  0.2841E-03  0.4725E-04 -0.5056E+04
   -1.330044   11.22387  0.0000E+00  0.3131E-05  0.7332E-07  0.1250E-03  0.3963E-04 -0.4944E+04
   -1.365043   11.23127  0.0000E+00  0.2003E-05  0.1820E-06  0.5333E-04  0.2535E-04 -0.1016E+07
   -1.400042   11.23759  0.0000E+00  0.0000E+00  0.0000E+00  0.0000E+00  0.3527E-04  0.0000E+00
