 1 - depth, m
 2 - temperature, C
 3 - salinity, kg/kg
 4 - turbulent kinetic energy, m**2/s**2
 5 - dissipation rate, m**2/s**3
 6 - kinematic heat conductance, m**2/s
 7 - modulus of horizontal velocity, m/s
 8 - Richardson number, n/d
   -0.000000    0.00000  0.0000E+00  0.6628E-08  0.1738E-10  0.8315E-09  0.0000E+00  0.5343E+17
   -0.034998    0.91190  0.0000E+00  0.3485E-07  0.1352E-10  0.9069E-09  0.0000E+00  0.3817E+17
   -0.069996    1.80045  0.0000E+00  0.8662E-07  0.1775E-10  0.1855E-08  0.0000E+00  0.2458E+17
   -0.104995    2.67855  0.0000E+00  0.1690E-06  0.2784E-10  0.7042E-08  0.0000E+00  0.1174E+17
   -0.139994    3.54704  0.0000E+00  0.2506E-06  0.3852E-10  0.1047E-03  0.0000E+00  0.1942E+16
   -0.174993    4.08991  0.0000E+00  0.2516E-06  0.3867E-10  0.5190E-03  0.0000E+00 -0.4537E+12
   -0.209992    4.09016  0.0000E+00  0.2521E-06  0.3876E-10  0.5139E-03  0.0000E+00 -0.4006E+12
   -0.244992    4.09042  0.0000E+00  0.2525E-06  0.3886E-10  0.5147E-03  0.0000E+00 -0.4102E+12
   -0.279992    4.09066  0.0000E+00  0.2529E-06  0.3896E-10  0.5136E-03  0.0000E+00 -0.3971E+12
   -0.314992    4.09091  0.0000E+00  0.2533E-06  0.3907E-10  0.5131E-03  0.0000E+00 -0.3934E+12
   -0.349992    4.09115  0.0000E+00  0.2536E-06  0.3919E-10  0.5132E-03  0.0000E+00 -0.3898E+12
   -0.384993    4.09139  0.0000E+00  0.2539E-06  0.3933E-10  0.5195E-03  0.0000E+00 -0.3471E+12
   -0.419993    4.09162  0.0000E+00  0.2542E-06  0.3948E-10  0.5169E-03  0.0000E+00 -0.4171E+12
   -0.454994    4.09186  0.0000E+00  0.2544E-06  0.3964E-10  0.5119E-03  0.0000E+00 -0.3911E+12
   -0.489995    4.09210  0.0000E+00  0.2546E-06  0.3982E-10  0.5104E-03  0.0000E+00 -0.3923E+12
   -0.524996    4.09234  0.0000E+00  0.2547E-06  0.4004E-10  0.5083E-03  0.0000E+00 -0.3897E+12
   -0.559997    4.09257  0.0000E+00  0.2549E-06  0.4034E-10  0.5051E-03  0.0000E+00 -0.4012E+12
   -0.594998    4.09281  0.0000E+00  0.2550E-06  0.4078E-10  0.4997E-03  0.0000E+00 -0.3853E+12
   -0.630000    4.09304  0.0000E+00  0.2551E-06  0.4130E-10  0.4935E-03  0.0000E+00 -0.3911E+12
   -0.665001    4.09328  0.0000E+00  0.2552E-06  0.4186E-10  0.4865E-03  0.0000E+00 -0.3951E+12
   -0.700002    4.09352  0.0000E+00  0.2553E-06  0.4247E-10  0.4794E-03  0.0000E+00 -0.3998E+12
   -0.735003    4.09376  0.0000E+00  0.2553E-06  0.4314E-10  0.4764E-03  0.0000E+00 -0.3947E+12
   -0.770005    4.09400  0.0000E+00  0.2553E-06  0.4388E-10  0.4616E-03  0.0000E+00 -0.4159E+12
   -0.805006    4.09424  0.0000E+00  0.2552E-06  0.4471E-10  0.4605E-03  0.0000E+00 -0.4042E+12
   -0.840007    4.09449  0.0000E+00  0.2551E-06  0.4563E-10  0.4676E-03  0.0000E+00 -0.3718E+12
   -0.875008    4.09472  0.0000E+00  0.2550E-06  0.4665E-10  0.4262E-03  0.0000E+00 -0.4747E+12
   -0.910009    4.09499  0.0000E+00  0.2548E-06  0.4780E-10  0.4511E-03  0.0000E+00 -0.3820E+12
   -0.945010    4.09523  0.0000E+00  0.2546E-06  0.4911E-10  0.4027E-03  0.0000E+00 -0.4974E+12
   -0.980011    4.09551  0.0000E+00  0.2543E-06  0.5056E-10  0.4353E-03  0.0000E+00 -0.3984E+12
   -1.015011    4.09576  0.0000E+00  0.2540E-06  0.5225E-10  0.3728E-03  0.0000E+00 -0.5368E+12
   -1.050012    4.09606  0.0000E+00  0.2536E-06  0.5423E-10  0.4096E-03  0.0000E+00 -0.4310E+12
   -1.085012    4.09633  0.0000E+00  0.2532E-06  0.5669E-10  0.3395E-03  0.0000E+00 -0.5865E+12
   -1.120012    4.09666  0.0000E+00  0.2526E-06  0.5964E-10  0.3697E-03  0.0000E+00 -0.4889E+12
   -1.155012    4.09695  0.0000E+00  0.2520E-06  0.6332E-10  0.3055E-03  0.0000E+00 -0.6474E+12
   -1.190012    4.09732  0.0000E+00  0.2512E-06  0.6797E-10  0.2957E-03  0.0000E+00 -0.6533E+12
   -1.225011    4.09770  0.0000E+00  0.2501E-06  0.7473E-10  0.2712E-03  0.0000E+00 -0.7135E+12
   -1.260011    4.09811  0.0000E+00  0.2485E-06  0.8619E-10  0.2327E-03  0.0000E+00 -0.8468E+12
   -1.295009    4.09859  0.0000E+00  0.2449E-06  0.1137E-09  0.1926E-03  0.0000E+00 -0.1027E+13
   -1.330008    4.09918  0.0000E+00  0.2361E-06  0.1898E-09  0.7788E-04  0.0000E+00 -0.2626E+13
   -1.365006    4.10071  0.0000E+00  0.1623E-06  0.9877E-09  0.3550E-05  0.0000E+00 -0.6569E+14
   -1.400004    4.13314  0.0000E+00  0.0000E+00  0.0000E+00  0.0000E+00  0.0000E+00  0.0000E+00
