 1 - depth, m
 2 - temperature, C
 3 - salinity, kg/kg
 4 - turbulent kinetic energy, m**2/s**2
 5 - dissipation rate, m**2/s**3
 6 - kinematic heat conductance, m**2/s
 7 - modulus of horizontal velocity, m/s
 8 - Richardson number, n/d
   -0.000000    9.73133  0.0000E+00  0.1011E-03  0.4881E-04  0.3818E-04  0.8230E-01  0.1054E+00
   -0.034998    9.77503  0.0000E+00  0.5792E-04  0.1367E-04  0.7142E-04  0.2934E-01 -0.2291E-01
   -0.069996    9.78454  0.0000E+00  0.4273E-04  0.5532E-05  0.8031E-04  0.2071E-01 -0.3000E-01
   -0.104995    9.79134  0.0000E+00  0.3443E-04  0.2876E-05  0.8943E-04  0.1671E-01 -0.3293E-01
   -0.139994    9.79663  0.0000E+00  0.2873E-04  0.1646E-05  0.9949E-04  0.1382E-01 -0.4549E-01
   -0.174993    9.80104  0.0000E+00  0.2458E-04  0.1010E-05  0.1101E-03  0.1155E-01 -0.6397E-01
   -0.209993    9.80486  0.0000E+00  0.2147E-04  0.6579E-06  0.1230E-03  0.9670E-02 -0.1510E-01
   -0.244992    9.80821  0.0000E+00  0.1903E-04  0.4513E-06  0.1496E-03  0.8078E-02  0.1469E+02
   -0.279992    9.81109  0.0000E+00  0.1700E-04  0.3229E-06  0.1657E-03  0.6696E-02  0.1977E+02
   -0.314992    9.81373  0.0000E+00  0.1513E-04  0.2368E-06  0.1862E-03  0.5434E-02  0.5656E+01
   -0.349993    9.81609  0.0000E+00  0.1352E-04  0.1783E-06  0.2051E-03  0.4430E-02  0.3008E+02
   -0.384993    9.81822  0.0000E+00  0.1218E-04  0.1376E-06  0.2236E-03  0.3617E-02  0.1449E+03
   -0.419994    9.82016  0.0000E+00  0.1106E-04  0.1091E-06  0.2356E-03  0.2948E-02  0.4129E+02
   -0.454995    9.82197  0.0000E+00  0.1014E-04  0.8854E-07  0.2497E-03  0.2363E-02  0.3785E+01
   -0.489996    9.82365  0.0000E+00  0.9349E-05  0.7359E-07  0.2665E-03  0.1842E-02  0.5714E+03
   -0.524997    9.82521  0.0000E+00  0.8620E-05  0.6169E-07  0.2994E-03  0.1391E-02  0.4565E+02
   -0.559998    9.82658  0.0000E+00  0.7931E-05  0.5170E-07  0.3576E-03  0.1064E-02  0.2606E+03
   -0.594999    9.82769  0.0000E+00  0.7238E-05  0.4248E-07  0.4076E-03  0.8566E-03  0.1636E+03
   -0.630001    9.82859  0.0000E+00  0.6681E-05  0.3553E-07  0.4351E-03  0.7409E-03  0.1836E+04
   -0.665002    9.82939  0.0000E+00  0.6233E-05  0.3029E-07  0.4504E-03  0.6446E-03  0.2839E+01
   -0.700003    9.83015  0.0000E+00  0.5861E-05  0.2620E-07  0.4586E-03  0.5586E-03  0.4711E+02
   -0.735005    9.83088  0.0000E+00  0.5548E-05  0.2295E-07  0.4644E-03  0.4826E-03  0.7167E+01
   -0.770006    9.83158  0.0000E+00  0.5285E-05  0.2036E-07  0.4702E-03  0.4164E-03  0.9989E+00
   -0.805007    9.83228  0.0000E+00  0.5062E-05  0.1829E-07  0.4752E-03  0.3596E-03  0.1066E+01
   -0.840008    9.83296  0.0000E+00  0.4874E-05  0.1664E-07  0.4793E-03  0.3108E-03  0.1232E+01
   -0.875009    9.83363  0.0000E+00  0.4714E-05  0.1531E-07  0.4819E-03  0.2688E-03  0.1432E+01
   -0.910011    9.83430  0.0000E+00  0.4576E-05  0.1426E-07  0.4832E-03  0.2330E-03  0.1710E+01
   -0.945011    9.83497  0.0000E+00  0.4458E-05  0.1343E-07  0.4828E-03  0.2017E-03  0.2017E+01
   -0.980012    9.83563  0.0000E+00  0.4356E-05  0.1280E-07  0.4805E-03  0.1742E-03  0.2413E+01
   -1.015013    9.83630  0.0000E+00  0.4266E-05  0.1233E-07  0.4757E-03  0.1498E-03  0.2921E+01
   -1.050014    9.83698  0.0000E+00  0.4184E-05  0.1200E-07  0.4682E-03  0.1288E-03  0.3799E+01
   -1.085014    9.83767  0.0000E+00  0.4107E-05  0.1181E-07  0.4577E-03  0.1109E-03  0.5058E+01
   -1.120014    9.83837  0.0000E+00  0.4032E-05  0.1176E-07  0.4431E-03  0.9539E-04  0.7057E+01
   -1.155014    9.83910  0.0000E+00  0.3959E-05  0.1187E-07  0.4250E-03  0.8129E-04  0.9481E+01
   -1.190014    9.83986  0.0000E+00  0.3884E-05  0.1223E-07  0.3986E-03  0.6826E-04  0.1288E+02
   -1.225013    9.84068  0.0000E+00  0.3799E-05  0.1299E-07  0.3720E-03  0.5604E-04  0.1651E+02
   -1.260012    9.84158  0.0000E+00  0.3680E-05  0.1475E-07  0.3076E-03  0.4523E-04 -0.1915E+04
   -1.295011    9.84277  0.0000E+00  0.3446E-05  0.1965E-07  0.2825E-03  0.3520E-04  0.2505E+03
   -1.330010    9.84391  0.0000E+00  0.3003E-05  0.3445E-07  0.1368E-03  0.2937E-04  0.3125E+05
   -1.365008    9.84974  0.0000E+00  0.1921E-05  0.9197E-07  0.3616E-04  0.2024E-04 -0.4514E+06
   -1.400006    9.86067  0.0000E+00  0.0000E+00  0.0000E+00  0.0000E+00  0.2354E-04  0.0000E+00
