 1 - depth, m
 2 - temperature, C
 3 - salinity, kg/kg
 4 - turbulent kinetic energy, m**2/s**2
 5 - dissipation rate, m**2/s**3
 6 - kinematic heat conductance, m**2/s
 7 - modulus of horizontal velocity, m/s
 8 - Richardson number, n/d
   -0.000000    0.00000  0.0000E+00  0.4702E-13  0.1132E-15  0.1000E-09  0.0000E+00  0.1152E+17
   -0.034998    0.17700  0.0000E+00  0.4702E-13  0.1132E-15  0.1000E-09  0.0000E+00  0.1088E+17
   -0.069996    0.35264  0.0000E+00  0.4702E-13  0.1132E-15  0.1000E-09  0.0000E+00  0.1026E+17
   -0.104994    0.52689  0.0000E+00  0.4702E-13  0.1132E-15  0.1000E-09  0.0000E+00  0.9570E+16
   -0.139992    0.69829  0.0000E+00  0.4702E-13  0.1132E-15  0.1000E-09  0.0000E+00  0.8866E+16
   -0.174991    0.86597  0.0000E+00  0.4702E-13  0.1132E-15  0.1000E-09  0.0000E+00  0.8196E+16
   -0.209990    1.02990  0.0000E+00  0.4702E-13  0.1132E-15  0.1000E-09  0.0000E+00  0.7559E+16
   -0.244990    1.19004  0.0000E+00  0.4702E-13  0.1132E-15  0.1000E-09  0.0000E+00  0.6956E+16
   -0.279989    1.34637  0.0000E+00  0.4702E-13  0.1132E-15  0.1000E-09  0.0000E+00  0.6384E+16
   -0.314989    1.49890  0.0000E+00  0.4702E-13  0.1132E-15  0.1000E-09  0.0000E+00  0.5839E+16
   -0.349989    1.64748  0.0000E+00  0.4702E-13  0.1132E-15  0.1000E-09  0.0000E+00  0.5321E+16
   -0.384989    1.79199  0.0000E+00  0.4702E-13  0.1132E-15  0.1000E-09  0.0000E+00  0.4831E+16
   -0.419990    1.93230  0.0000E+00  0.4702E-13  0.1132E-15  0.1000E-09  0.0000E+00  0.4388E+16
   -0.454990    2.06895  0.0000E+00  0.4702E-13  0.1132E-15  0.1000E-09  0.0000E+00  0.3986E+16
   -0.489991    2.20242  0.0000E+00  0.4702E-13  0.1132E-15  0.1000E-09  0.0000E+00  0.3602E+16
   -0.524991    2.33258  0.0000E+00  0.4702E-13  0.1132E-15  0.1000E-09  0.0000E+00  0.3220E+16
   -0.559992    2.45854  0.0000E+00  0.4702E-13  0.1132E-15  0.1000E-09  0.0000E+00  0.2828E+16
   -0.594993    2.57869  0.0000E+00  0.4702E-13  0.1132E-15  0.1000E-09  0.0000E+00  0.2447E+16
   -0.629994    2.69184  0.0000E+00  0.4702E-13  0.1132E-15  0.1000E-09  0.0000E+00  0.2168E+16
   -0.664995    2.80131  0.0000E+00  0.4702E-13  0.1132E-15  0.1000E-09  0.0000E+00  0.1907E+16
   -0.699996    2.90694  0.0000E+00  0.6148E-13  0.1132E-15  0.1000E-09  0.0000E+00  0.1662E+16
   -0.734997    3.00841  0.0000E+00  0.2642E-12  0.1183E-15  0.1000E-09  0.0000E+00  0.1442E+16
   -0.769998    3.10603  0.0000E+00  0.6805E-12  0.2085E-15  0.1000E-09  0.0000E+00  0.1259E+16
   -0.804998    3.20126  0.0000E+00  0.1480E-11  0.4065E-15  0.1000E-09  0.0000E+00  0.1086E+16
   -0.839999    3.29399  0.0000E+00  0.3026E-11  0.7952E-15  0.1000E-09  0.0000E+00  0.9230E+15
   -0.875000    3.38410  0.0000E+00  0.6043E-11  0.1546E-14  0.1000E-09  0.0000E+00  0.7708E+15
   -0.910001    3.47142  0.0000E+00  0.1192E-10  0.2982E-14  0.1000E-09  0.0000E+00  0.6303E+15
   -0.945001    3.55591  0.0000E+00  0.2325E-10  0.5698E-14  0.1000E-09  0.0000E+00  0.5007E+15
   -0.980002    3.63743  0.0000E+00  0.4510E-10  0.1083E-13  0.1000E-09  0.0000E+00  0.3820E+15
   -1.015002    3.71578  0.0000E+00  0.8765E-10  0.2064E-13  0.1952E-09  0.0000E+00  0.2729E+15
   -1.050002    3.79016  0.0000E+00  0.1712E-09  0.3954E-13  0.5731E-09  0.0000E+00  0.1777E+15
   -1.085002    3.86042  0.0000E+00  0.3356E-09  0.7606E-13  0.1972E-08  0.0000E+00  0.9888E+14
   -1.120002    3.92937  0.0000E+00  0.6490E-09  0.1446E-12  0.1433E-07  0.0000E+00  0.2514E+14
   -1.155002    3.99214  0.0000E+00  0.1096E-08  0.2441E-12  0.1717E-05  0.0000E+00 -0.6929E+12
   -1.190001    3.99741  0.0000E+00  0.1407E-08  0.3358E-12  0.2274E-05  0.0000E+00 -0.8382E+12
   -1.225000    4.00149  0.0000E+00  0.1670E-08  0.4490E-12  0.2421E-05  0.0000E+00 -0.1068E+13
   -1.259999    4.00546  0.0000E+00  0.1901E-08  0.6205E-12  0.2232E-05  0.0000E+00 -0.1563E+13
   -1.294998    4.01011  0.0000E+00  0.2118E-08  0.9959E-12  0.1620E-05  0.0000E+00 -0.3147E+13
   -1.329996    4.01742  0.0000E+00  0.2178E-08  0.1715E-11  0.8816E-06  0.0000E+00 -0.8268E+13
   -1.364994    4.03130  0.0000E+00  0.1953E-08  0.3612E-11  0.2813E-06  0.0000E+00 -0.4029E+14
   -1.399991    4.07100  0.0000E+00  0.0000E+00  0.0000E+00  0.0000E+00  0.0000E+00  0.0000E+00
