 1 - depth, m
 2 - temperature, C
 3 - salinity, kg/kg
 4 - turbulent kinetic energy, m**2/s**2
 5 - dissipation rate, m**2/s**3
 6 - kinematic heat conductance, m**2/s
 7 - modulus of horizontal velocity, m/s
 8 - Richardson number, n/d
   -0.000000    0.00000  0.0000E+00  0.4702E-13  0.1132E-15  0.1000E-09  0.0000E+00  0.9237E+16
   -0.034998    0.14124  0.0000E+00  0.4702E-13  0.1132E-15  0.1000E-09  0.0000E+00  0.9034E+16
   -0.069996    0.28493  0.0000E+00  0.4702E-13  0.1132E-15  0.1000E-09  0.0000E+00  0.8813E+16
   -0.104994    0.43106  0.0000E+00  0.4702E-13  0.1132E-15  0.1000E-09  0.0000E+00  0.8445E+16
   -0.139993    0.57734  0.0000E+00  0.4702E-13  0.1132E-15  0.1000E-09  0.0000E+00  0.8002E+16
   -0.174992    0.72236  0.0000E+00  0.4702E-13  0.1132E-15  0.1000E-09  0.0000E+00  0.7566E+16
   -0.209991    0.86602  0.0000E+00  0.4702E-13  0.1132E-15  0.1000E-09  0.0000E+00  0.7137E+16
   -0.244991    1.00823  0.0000E+00  0.4702E-13  0.1132E-15  0.1000E-09  0.0000E+00  0.6717E+16
   -0.279991    1.14890  0.0000E+00  0.4702E-13  0.1132E-15  0.1000E-09  0.0000E+00  0.6305E+16
   -0.314991    1.28795  0.0000E+00  0.4702E-13  0.1132E-15  0.1000E-09  0.0000E+00  0.5870E+16
   -0.349991    1.42450  0.0000E+00  0.4702E-13  0.1132E-15  0.1000E-09  0.0000E+00  0.5441E+16
   -0.384991    1.55823  0.0000E+00  0.4702E-13  0.1132E-15  0.1000E-09  0.0000E+00  0.5021E+16
   -0.419992    1.68883  0.0000E+00  0.4702E-13  0.1132E-15  0.1000E-09  0.0000E+00  0.4655E+16
   -0.454992    1.81720  0.0000E+00  0.4702E-13  0.1132E-15  0.1000E-09  0.0000E+00  0.4326E+16
   -0.489993    1.94398  0.0000E+00  0.4702E-13  0.1132E-15  0.1000E-09  0.0000E+00  0.3994E+16
   -0.524994    2.06872  0.0000E+00  0.4702E-13  0.1132E-15  0.1000E-09  0.0000E+00  0.3617E+16
   -0.559995    2.18940  0.0000E+00  0.4702E-13  0.1132E-15  0.1000E-09  0.0000E+00  0.3197E+16
   -0.594996    2.30347  0.0000E+00  0.4702E-13  0.1132E-15  0.1000E-09  0.0000E+00  0.2774E+16
   -0.629997    2.40931  0.0000E+00  0.4702E-13  0.1132E-15  0.1000E-09  0.0000E+00  0.2527E+16
   -0.664998    2.51250  0.0000E+00  0.4702E-13  0.1132E-15  0.1000E-09  0.0000E+00  0.2289E+16
   -0.699999    2.61283  0.0000E+00  0.4702E-13  0.1132E-15  0.1000E-09  0.0000E+00  0.2057E+16
   -0.735000    2.70988  0.0000E+00  0.4702E-13  0.1132E-15  0.1000E-09  0.0000E+00  0.1849E+16
   -0.770001    2.80402  0.0000E+00  0.4702E-13  0.1132E-15  0.1000E-09  0.0000E+00  0.1683E+16
   -0.805002    2.89689  0.0000E+00  0.4702E-13  0.1132E-15  0.1000E-09  0.0000E+00  0.1522E+16
   -0.840003    2.98843  0.0000E+00  0.4702E-13  0.1132E-15  0.1000E-09  0.0000E+00  0.1365E+16
   -0.875004    3.07854  0.0000E+00  0.4702E-13  0.1132E-15  0.1000E-09  0.0000E+00  0.1214E+16
   -0.910005    3.16708  0.0000E+00  0.4702E-13  0.1132E-15  0.1000E-09  0.0000E+00  0.1070E+16
   -0.945006    3.25402  0.0000E+00  0.4702E-13  0.1132E-15  0.1000E-09  0.0000E+00  0.9311E+15
   -0.980007    3.33926  0.0000E+00  0.6494E-13  0.1132E-15  0.1000E-09  0.0000E+00  0.7980E+15
   -1.015007    3.42261  0.0000E+00  0.2744E-12  0.2101E-15  0.1000E-09  0.0000E+00  0.6681E+15
   -1.050007    3.50345  0.0000E+00  0.8727E-12  0.5838E-15  0.1000E-09  0.0000E+00  0.5479E+15
   -1.085008    3.58172  0.0000E+00  0.2576E-11  0.1654E-14  0.1000E-09  0.0000E+00  0.4509E+15
   -1.120008    3.66003  0.0000E+00  0.7362E-11  0.4602E-14  0.1000E-09  0.0000E+00  0.3535E+15
   -1.155007    3.73825  0.0000E+00  0.2077E-10  0.1267E-13  0.1236E-09  0.0000E+00  0.2569E+15
   -1.190007    3.81649  0.0000E+00  0.5839E-10  0.3486E-13  0.5348E-09  0.0000E+00  0.1606E+15
   -1.225006    3.89482  0.0000E+00  0.1712E-09  0.1004E-12  0.3612E-08  0.0000E+00  0.6420E+14
   -1.260005    3.97285  0.0000E+00  0.5168E-09  0.3029E-12  0.1772E-06  0.0000E+00 -0.2969E+13
   -1.295004    4.01000  0.0000E+00  0.1266E-08  0.9229E-12  0.6823E-06  0.0000E+00 -0.7879E+13
   -1.330002    4.02590  0.0000E+00  0.1749E-08  0.1756E-11  0.6143E-06  0.0000E+00 -0.1420E+14
   -1.365001    4.04446  0.0000E+00  0.1791E-08  0.3514E-11  0.2616E-06  0.0000E+00 -0.4789E+14
   -1.399998    4.08379  0.0000E+00  0.0000E+00  0.0000E+00  0.0000E+00  0.0000E+00  0.0000E+00
