 1 - depth, m
 2 - temperature, C
 3 - salinity, kg/kg
 4 - turbulent kinetic energy, m**2/s**2
 5 - dissipation rate, m**2/s**3
 6 - kinematic heat conductance, m**2/s
 7 - modulus of horizontal velocity, m/s
 8 - Richardson number, n/d
   -0.000000    3.48735  0.0000E+00  0.1009E-03  0.5313E-04  0.3877E-04  0.8807E-01  0.1130E-03
   -0.034998    3.49956  0.0000E+00  0.6062E-04  0.1668E-04  0.6925E-04  0.3250E-01  0.5132E-03
   -0.069996    3.50245  0.0000E+00  0.4482E-04  0.6030E-05  0.8018E-04  0.2300E-01  0.5972E-03
   -0.104995    3.50445  0.0000E+00  0.3626E-04  0.3138E-05  0.8855E-04  0.1860E-01  0.5450E-03
   -0.139993    3.50604  0.0000E+00  0.3032E-04  0.1784E-05  0.9681E-04  0.1543E-01  0.7993E-03
   -0.174992    3.50742  0.0000E+00  0.2596E-04  0.1085E-05  0.1044E-03  0.1291E-01  0.9801E-03
   -0.209992    3.50868  0.0000E+00  0.2266E-04  0.7024E-06  0.1107E-03  0.1082E-01  0.1163E-02
   -0.244991    3.50987  0.0000E+00  0.2003E-04  0.4825E-06  0.1149E-03  0.9048E-02  0.1428E-02
   -0.279991    3.51103  0.0000E+00  0.1778E-04  0.3472E-06  0.1159E-03  0.7481E-02  0.1671E-02
   -0.314991    3.51220  0.0000E+00  0.1563E-04  0.2556E-06  0.1207E-03  0.6033E-02  0.2732E-02
   -0.349991    3.51332  0.0000E+00  0.1375E-04  0.1926E-06  0.1235E-03  0.4889E-02  0.4627E-02
   -0.384992    3.51443  0.0000E+00  0.1214E-04  0.1483E-06  0.1249E-03  0.3967E-02  0.8477E-02
   -0.419992    3.51553  0.0000E+00  0.1080E-04  0.1167E-06  0.1239E-03  0.3211E-02  0.1508E-01
   -0.454993    3.51666  0.0000E+00  0.9654E-05  0.9363E-07  0.1219E-03  0.2546E-02  0.3099E-01
   -0.489994    3.51783  0.0000E+00  0.8666E-05  0.7652E-07  0.1206E-03  0.1945E-02  0.1032E+00
   -0.524995    3.51903  0.0000E+00  0.7748E-05  0.6281E-07  0.1227E-03  0.1424E-02  0.7201E+00
   -0.559996    3.52014  0.0000E+00  0.6877E-05  0.5136E-07  0.1227E-03  0.1060E-02 -0.5945E+00
   -0.594997    3.52111  0.0000E+00  0.5947E-05  0.4047E-07  0.1189E-03  0.8340E-03 -0.8750E+03
   -0.629998    3.52196  0.0000E+00  0.5131E-05  0.3179E-07  0.1122E-03  0.7135E-03 -0.6871E+03
   -0.664999    3.52290  0.0000E+00  0.4444E-05  0.2513E-07  0.1058E-03  0.6042E-03 -0.5006E+03
   -0.700000    3.52391  0.0000E+00  0.3863E-05  0.1999E-07  0.9984E-04  0.5058E-03 -0.2716E+03
   -0.735001    3.52501  0.0000E+00  0.3366E-05  0.1598E-07  0.9416E-04  0.4190E-03  0.2208E+03
   -0.770002    3.52619  0.0000E+00  0.2940E-05  0.1283E-07  0.8868E-04  0.3443E-03  0.1664E+04
   -0.805003    3.52746  0.0000E+00  0.2572E-05  0.1034E-07  0.8329E-04  0.2812E-03  0.5749E+04
   -0.840005    3.52884  0.0000E+00  0.2254E-05  0.8366E-08  0.7799E-04  0.2278E-03  0.1685E+05
   -0.875006    3.53033  0.0000E+00  0.1978E-05  0.6794E-08  0.7276E-04  0.1830E-03  0.5184E+05
   -0.910006    3.53196  0.0000E+00  0.1738E-05  0.5534E-08  0.6745E-04  0.1463E-03  0.1358E+06
   -0.945007    3.53376  0.0000E+00  0.1531E-05  0.4536E-08  0.6217E-04  0.1154E-03  0.3462E+06
   -0.980008    3.53580  0.0000E+00  0.1353E-05  0.3746E-08  0.5694E-04  0.8911E-04  0.9369E+06
   -1.015008    3.53812  0.0000E+00  0.1199E-05  0.3119E-08  0.5190E-04  0.6689E-04  0.3658E+07
   -1.050009    3.54075  0.0000E+00  0.1064E-05  0.2611E-08  0.4687E-04  0.4932E-04  0.1721E+08
   -1.085009    3.54375  0.0000E+00  0.9433E-06  0.2196E-08  0.4173E-04  0.3589E-04  0.1150E+09
   -1.120009    3.54730  0.0000E+00  0.8366E-06  0.1860E-08  0.3636E-04  0.2602E-04  0.7619E+09
   -1.155009    3.55186  0.0000E+00  0.7439E-06  0.1596E-08  0.3111E-04  0.1825E-04  0.7883E+10
   -1.190008    3.55824  0.0000E+00  0.6646E-06  0.1394E-08  0.2624E-04  0.1217E-04  0.2163E+12
   -1.225008    3.56847  0.0000E+00  0.5943E-06  0.1242E-08  0.2195E-04  0.7534E-05  0.2386E+13
   -1.260007    3.58458  0.0000E+00  0.5282E-06  0.1132E-08  0.1795E-04  0.4450E-05  0.4060E+13
   -1.295006    3.60595  0.0000E+00  0.4468E-06  0.1070E-08  0.1344E-04  0.2634E-05  0.1442E+13
   -1.330004    3.63063  0.0000E+00  0.3498E-06  0.1146E-08  0.7985E-05  0.1725E-05  0.1929E+14
   -1.365002    3.67522  0.0000E+00  0.1865E-06  0.2271E-08  0.1884E-05  0.1053E-05  0.4642E+14
   -1.400000    3.77633  0.0000E+00  0.0000E+00  0.0000E+00  0.0000E+00  0.1055E-05  0.0000E+00
