 1 - depth, m
 2 - temperature, C
 3 - salinity, kg/kg
 4 - turbulent kinetic energy, m**2/s**2
 5 - dissipation rate, m**2/s**3
 6 - kinematic heat conductance, m**2/s
 7 - modulus of horizontal velocity, m/s
 8 - Richardson number, n/d
   -0.000000   12.82494  0.0000E+00  0.6609E-04  0.2350E-04  0.3597E-04  0.5952E-01 -0.3225E-01
   -0.034998   12.88306  0.0000E+00  0.4109E-04  0.6753E-05  0.6188E-04  0.2284E-01 -0.3778E-01
   -0.069997   12.89546  0.0000E+00  0.3135E-04  0.2890E-05  0.7555E-04  0.1639E-01 -0.8180E-01
   -0.104995   12.90443  0.0000E+00  0.2590E-04  0.1579E-05  0.9293E-04  0.1308E-01  0.3075E-01
   -0.139994   12.91100  0.0000E+00  0.2211E-04  0.9497E-06  0.1199E-03  0.1075E-01  0.1054E+02
   -0.174994   12.91613  0.0000E+00  0.1934E-04  0.6111E-06  0.1454E-03  0.8948E-02  0.9699E+01
   -0.209993   12.92033  0.0000E+00  0.1725E-04  0.4156E-06  0.1722E-03  0.7488E-02  0.4510E+01
   -0.244993   12.92382  0.0000E+00  0.1560E-04  0.2967E-06  0.2131E-03  0.6267E-02  0.4018E+02
   -0.279993   12.92667  0.0000E+00  0.1425E-04  0.2205E-06  0.2515E-03  0.5222E-02  0.1746E+02
   -0.314993   12.92907  0.0000E+00  0.1304E-04  0.1683E-06  0.2806E-03  0.4290E-02  0.1173E+02
   -0.349994   12.93112  0.0000E+00  0.1200E-04  0.1316E-06  0.3158E-03  0.3534E-02  0.4571E+02
   -0.384994   12.93286  0.0000E+00  0.1113E-04  0.1054E-06  0.3490E-03  0.2917E-02  0.2119E+02
   -0.419995   12.93436  0.0000E+00  0.1042E-04  0.8641E-07  0.3749E-03  0.2401E-02  0.4342E+01
   -0.454996   12.93570  0.0000E+00  0.9812E-05  0.7242E-07  0.3971E-03  0.1943E-02  0.2218E+02
   -0.489997   12.93691  0.0000E+00  0.9295E-05  0.6198E-07  0.4186E-03  0.1529E-02  0.5667E+02
   -0.524998   12.93801  0.0000E+00  0.8807E-05  0.5344E-07  0.4622E-03  0.1161E-02  0.7792E+01
   -0.560000   12.93899  0.0000E+00  0.8333E-05  0.4603E-07  0.5231E-03  0.8876E-03  0.4858E+01
   -0.595001   12.93987  0.0000E+00  0.7854E-05  0.3912E-07  0.5755E-03  0.7098E-03  0.1804E+01
   -0.630002   12.94067  0.0000E+00  0.7477E-05  0.3397E-07  0.5897E-03  0.6145E-03  0.1128E+01
   -0.665004   12.94144  0.0000E+00  0.7172E-05  0.3006E-07  0.5985E-03  0.5380E-03  0.8340E+00
   -0.700005   12.94217  0.0000E+00  0.6912E-05  0.2695E-07  0.6084E-03  0.4688E-03  0.8236E+00
   -0.735006   12.94288  0.0000E+00  0.6688E-05  0.2446E-07  0.6169E-03  0.4076E-03  0.8410E+00
   -0.770008   12.94357  0.0000E+00  0.6495E-05  0.2248E-07  0.6233E-03  0.3546E-03  0.8560E+00
   -0.805009   12.94424  0.0000E+00  0.6326E-05  0.2091E-07  0.6273E-03  0.3092E-03  0.8964E+00
   -0.840011   12.94490  0.0000E+00  0.6176E-05  0.1967E-07  0.6285E-03  0.2704E-03  0.9457E+00
   -0.875012   12.94554  0.0000E+00  0.6043E-05  0.1870E-07  0.6267E-03  0.2373E-03  0.1030E+01
   -0.910013   12.94617  0.0000E+00  0.5920E-05  0.1797E-07  0.6216E-03  0.2090E-03  0.1160E+01
   -0.945014   12.94680  0.0000E+00  0.5807E-05  0.1743E-07  0.6131E-03  0.1842E-03  0.1335E+01
   -0.980015   12.94742  0.0000E+00  0.5700E-05  0.1709E-07  0.6007E-03  0.1621E-03  0.1548E+01
   -1.015016   12.94805  0.0000E+00  0.5597E-05  0.1692E-07  0.5846E-03  0.1423E-03  0.1871E+01
   -1.050016   12.94868  0.0000E+00  0.5493E-05  0.1695E-07  0.5621E-03  0.1248E-03  0.2422E+01
   -1.085017   12.94933  0.0000E+00  0.5383E-05  0.1720E-07  0.5394E-03  0.1094E-03  0.3317E+01
   -1.120017   12.95001  0.0000E+00  0.5264E-05  0.1777E-07  0.5017E-03  0.9572E-04  0.4930E+01
   -1.155017   12.95073  0.0000E+00  0.5135E-05  0.1879E-07  0.4803E-03  0.8264E-04  0.1798E+02
   -1.190017   12.95148  0.0000E+00  0.4984E-05  0.2080E-07  0.4230E-03  0.7045E-04 -0.6276E+03
   -1.225016   12.95250  0.0000E+00  0.4785E-05  0.2461E-07  0.4029E-03  0.5717E-04 -0.1101E+04
   -1.260016   12.95356  0.0000E+00  0.4477E-05  0.3331E-07  0.3099E-03  0.4544E-04 -0.1786E+06
   -1.295015   12.95632  0.0000E+00  0.3916E-05  0.5556E-07  0.2859E-03  0.3260E-04  0.2153E+06
   -1.330014   12.95641  0.0000E+00  0.3169E-05  0.1191E-06  0.1328E-03  0.2758E-04  0.5005E+05
   -1.365012   12.96735  0.0000E+00  0.2083E-05  0.2898E-06  0.7087E-04  0.1735E-04 -0.2093E+06
   -1.400010   12.97212  0.0000E+00  0.0000E+00  0.0000E+00  0.0000E+00  0.2517E-04  0.0000E+00
