 1 - depth, m
 2 - temperature, C
 3 - salinity, kg/kg
 4 - turbulent kinetic energy, m**2/s**2
 5 - dissipation rate, m**2/s**3
 6 - kinematic heat conductance, m**2/s
 7 - modulus of horizontal velocity, m/s
 8 - Richardson number, n/d
   -0.000000   16.68572  0.0000E+00  0.4268E-04  0.8675E-05  0.2981E-04  0.4428E-01  0.2024E-01
   -0.034998   16.74857  0.0000E+00  0.2848E-04  0.2597E-05  0.4982E-04  0.1995E-01 -0.4575E-01
   -0.069996   16.76543  0.0000E+00  0.2294E-04  0.1223E-05  0.6962E-04  0.1457E-01  0.6784E-02
   -0.104994   16.77645  0.0000E+00  0.1968E-04  0.6857E-06  0.9133E-04  0.1151E-01 -0.1183E+00
   -0.139993   16.78461  0.0000E+00  0.1748E-04  0.4286E-06  0.1209E-03  0.9374E-02 -0.1007E+00
   -0.174992   16.79081  0.0000E+00  0.1598E-04  0.2934E-06  0.2302E-03  0.7788E-02  0.6013E+03
   -0.209991   16.79471  0.0000E+00  0.1496E-04  0.2166E-06  0.3094E-03  0.6631E-02  0.1100E+03
   -0.244990   16.79758  0.0000E+00  0.1422E-04  0.1685E-06  0.3471E-03  0.5653E-02  0.3528E+03
   -0.279990   16.79994  0.0000E+00  0.1362E-04  0.1362E-06  0.3724E-03  0.4782E-02  0.3565E+03
   -0.314990   16.80197  0.0000E+00  0.1307E-04  0.1125E-06  0.3991E-03  0.3979E-02  0.2010E+03
   -0.349990   16.80376  0.0000E+00  0.1258E-04  0.9456E-07  0.4211E-03  0.3299E-02  0.8354E+02
   -0.384990   16.80541  0.0000E+00  0.1215E-04  0.8068E-07  0.4432E-03  0.2720E-02  0.4641E+01
   -0.419990   16.80694  0.0000E+00  0.1177E-04  0.6989E-07  0.4586E-03  0.2225E-02  0.3874E+01
   -0.454991   16.80842  0.0000E+00  0.1143E-04  0.6135E-07  0.4756E-03  0.1778E-02  0.3911E+01
   -0.489991   16.80983  0.0000E+00  0.1110E-04  0.5449E-07  0.4899E-03  0.1371E-02  0.2921E+01
   -0.524992   16.81118  0.0000E+00  0.1075E-04  0.4849E-07  0.5339E-03  0.1006E-02  0.1813E+01
   -0.559993   16.81239  0.0000E+00  0.1037E-04  0.4287E-07  0.5793E-03  0.7444E-03  0.1275E+01
   -0.594994   16.81345  0.0000E+00  0.1014E-04  0.3982E-07  0.8212E-03  0.5662E-03  0.7031E+00
   -0.629995   16.81415  0.0000E+00  0.1001E-04  0.3815E-07  0.8682E-03  0.5267E-03  0.1505E+01
   -0.664996   16.81481  0.0000E+00  0.9866E-05  0.3646E-07  0.8184E-03  0.4954E-03  0.8350E+00
   -0.699997   16.81551  0.0000E+00  0.9661E-05  0.3433E-07  0.8375E-03  0.4336E-03  0.9258E+00
   -0.734998   16.81619  0.0000E+00  0.9478E-05  0.3268E-07  0.8440E-03  0.3798E-03  0.9276E+00
   -0.769999   16.81686  0.0000E+00  0.9313E-05  0.3146E-07  0.8433E-03  0.3341E-03  0.9164E+00
   -0.805000   16.81753  0.0000E+00  0.9162E-05  0.3060E-07  0.8356E-03  0.2955E-03  0.9010E+00
   -0.840001   16.81820  0.0000E+00  0.9024E-05  0.3005E-07  0.8222E-03  0.2631E-03  0.8768E+00
   -0.875001   16.81889  0.0000E+00  0.8894E-05  0.2976E-07  0.8058E-03  0.2359E-03  0.8602E+00
   -0.910002   16.81959  0.0000E+00  0.8769E-05  0.2971E-07  0.7864E-03  0.2130E-03  0.8958E+00
   -0.945003   16.82031  0.0000E+00  0.8644E-05  0.2990E-07  0.7641E-03  0.1931E-03  0.9959E+00
   -0.980003   16.82105  0.0000E+00  0.8515E-05  0.3036E-07  0.7335E-03  0.1752E-03  0.1180E+01
   -1.015004   16.82184  0.0000E+00  0.8373E-05  0.3117E-07  0.7031E-03  0.1583E-03  0.1489E+01
   -1.050004   16.82267  0.0000E+00  0.8211E-05  0.3248E-07  0.6560E-03  0.1426E-03  0.2101E+01
   -1.085004   16.82358  0.0000E+00  0.8019E-05  0.3456E-07  0.6214E-03  0.1277E-03  0.3156E+01
   -1.120004   16.82456  0.0000E+00  0.7788E-05  0.3799E-07  0.5619E-03  0.1137E-03  0.6348E+01
   -1.155003   16.82576  0.0000E+00  0.7498E-05  0.4356E-07  0.5274E-03  0.9899E-04 -0.2123E+04
   -1.190003   16.82722  0.0000E+00  0.7111E-05  0.5328E-07  0.4545E-03  0.8405E-04  0.5514E+04
   -1.225002   16.82964  0.0000E+00  0.6626E-05  0.6957E-07  0.4191E-03  0.6613E-04  0.2222E+05
   -1.260001   16.83195  0.0000E+00  0.5901E-05  0.1120E-06  0.3069E-03  0.5081E-04  0.1287E+05
   -1.294999   16.84091  0.0000E+00  0.4982E-05  0.2089E-06  0.2999E-03  0.3324E-04  0.1016E+07
   -1.329998   16.83604  0.0000E+00  0.3943E-05  0.4790E-06  0.1377E-03  0.2969E-04  0.4728E+06
   -1.364996   16.86428  0.0000E+00  0.2826E-05  0.1037E-05  0.1289E-03  0.1740E-04 -0.4628E+06
   -1.399993   16.86599  0.0000E+00  0.0000E+00  0.0000E+00  0.0000E+00  0.3160E-04  0.0000E+00
