 1 - depth, m
 2 - temperature, C
 3 - salinity, kg/kg
 4 - turbulent kinetic energy, m**2/s**2
 5 - dissipation rate, m**2/s**3
 6 - kinematic heat conductance, m**2/s
 7 - modulus of horizontal velocity, m/s
 8 - Richardson number, n/d
   -0.000000   17.04799  0.0000E+00  0.4555E-04  0.1090E-04  0.2975E-04  0.4382E-01 -0.1493E+00
   -0.034998   17.09825  0.0000E+00  0.2841E-04  0.3222E-05  0.6726E-04  0.1665E-01  0.9253E+01
   -0.069996   17.10880  0.0000E+00  0.2227E-04  0.1513E-05  0.9383E-04  0.1217E-01  0.1682E+02
   -0.104994   17.11550  0.0000E+00  0.1869E-04  0.8365E-06  0.1237E-03  0.9784E-02  0.5908E+01
   -0.139993   17.12050  0.0000E+00  0.1626E-04  0.5093E-06  0.1569E-03  0.8063E-02  0.2798E+03
   -0.174992   17.12452  0.0000E+00  0.1454E-04  0.3341E-06  0.1943E-03  0.6719E-02  0.9645E+02
   -0.209992   17.12785  0.0000E+00  0.1327E-04  0.2331E-06  0.2315E-03  0.5629E-02  0.9381E+01
   -0.244991   17.13068  0.0000E+00  0.1231E-04  0.1715E-06  0.2709E-03  0.4717E-02  0.4411E+03
   -0.279991   17.13308  0.0000E+00  0.1155E-04  0.1320E-06  0.3288E-03  0.3937E-02  0.2751E+03
   -0.314991   17.13500  0.0000E+00  0.1090E-04  0.1047E-06  0.3815E-03  0.3258E-02  0.1433E+03
   -0.349991   17.13652  0.0000E+00  0.1035E-04  0.8520E-07  0.4209E-03  0.2702E-02  0.1013E+03
   -0.384992   17.13779  0.0000E+00  0.9878E-05  0.7088E-07  0.4506E-03  0.2235E-02  0.2101E+02
   -0.419992   17.13892  0.0000E+00  0.9487E-05  0.6022E-07  0.4714E-03  0.1836E-02  0.1604E+03
   -0.454993   17.13999  0.0000E+00  0.9149E-05  0.5213E-07  0.4899E-03  0.1476E-02  0.8202E+01
   -0.489994   17.14102  0.0000E+00  0.8843E-05  0.4586E-07  0.5054E-03  0.1148E-02  0.2629E+01
   -0.524995   17.14201  0.0000E+00  0.8531E-05  0.4054E-07  0.5448E-03  0.8540E-03  0.1588E+01
   -0.559996   17.14289  0.0000E+00  0.8225E-05  0.3590E-07  0.6064E-03  0.6404E-03  0.1146E+01
   -0.594997   17.14362  0.0000E+00  0.7929E-05  0.3173E-07  0.6792E-03  0.5073E-03  0.1011E+01
   -0.629998   17.14421  0.0000E+00  0.7716E-05  0.2879E-07  0.6988E-03  0.4387E-03  0.1410E+01
   -0.664999   17.14477  0.0000E+00  0.7551E-05  0.2661E-07  0.7094E-03  0.3863E-03  0.1467E+01
   -0.700000   17.14533  0.0000E+00  0.7412E-05  0.2488E-07  0.7209E-03  0.3387E-03  0.1598E+01
   -0.735001   17.14587  0.0000E+00  0.7293E-05  0.2352E-07  0.7295E-03  0.2970E-03  0.1701E+01
   -0.770002   17.14641  0.0000E+00  0.7191E-05  0.2248E-07  0.7345E-03  0.2609E-03  0.1889E+01
   -0.805003   17.14694  0.0000E+00  0.7100E-05  0.2170E-07  0.7356E-03  0.2303E-03  0.2062E+01
   -0.840004   17.14747  0.0000E+00  0.7019E-05  0.2114E-07  0.7326E-03  0.2042E-03  0.2363E+01
   -0.875005   17.14800  0.0000E+00  0.6944E-05  0.2078E-07  0.7256E-03  0.1821E-03  0.2642E+01
   -0.910006   17.14854  0.0000E+00  0.6872E-05  0.2060E-07  0.7147E-03  0.1632E-03  0.3145E+01
   -0.945007   17.14909  0.0000E+00  0.6802E-05  0.2057E-07  0.6998E-03  0.1467E-03  0.3627E+01
   -0.980008   17.14965  0.0000E+00  0.6730E-05  0.2071E-07  0.6802E-03  0.1318E-03  0.4415E+01
   -1.015008   17.15024  0.0000E+00  0.6652E-05  0.2103E-07  0.6576E-03  0.1182E-03  0.5358E+01
   -1.050009   17.15086  0.0000E+00  0.6564E-05  0.2160E-07  0.6245E-03  0.1057E-03  0.7286E+01
   -1.085009   17.15152  0.0000E+00  0.6461E-05  0.2251E-07  0.5949E-03  0.9407E-04  0.1005E+02
   -1.120009   17.15222  0.0000E+00  0.6339E-05  0.2396E-07  0.5438E-03  0.8326E-04  0.1579E+02
   -1.155009   17.15302  0.0000E+00  0.6192E-05  0.2621E-07  0.5165E-03  0.7251E-04  0.2618E+02
   -1.190008   17.15391  0.0000E+00  0.6004E-05  0.3021E-07  0.4461E-03  0.6222E-04 -0.1723E+04
   -1.225008   17.15522  0.0000E+00  0.5746E-05  0.3713E-07  0.4257E-03  0.5113E-04  0.1195E+04
   -1.260007   17.15657  0.0000E+00  0.5334E-05  0.5302E-07  0.3214E-03  0.4061E-04 -0.5959E+05
   -1.295005   17.16050  0.0000E+00  0.4634E-05  0.9305E-07  0.2976E-03  0.2886E-04  0.1196E+07
   -1.330004   17.16015  0.0000E+00  0.3699E-05  0.2067E-06  0.1307E-03  0.2441E-04 -0.4531E+06
   -1.365002   17.17571  0.0000E+00  0.2527E-05  0.4808E-06  0.9023E-04  0.1519E-04 -0.1622E+07
   -1.400000   17.18033  0.0000E+00  0.0000E+00  0.0000E+00  0.0000E+00  0.2272E-04  0.0000E+00
