 1 - depth, m
 2 - temperature, C
 3 - salinity, kg/kg
 4 - turbulent kinetic energy, m**2/s**2
 5 - dissipation rate, m**2/s**3
 6 - kinematic heat conductance, m**2/s
 7 - modulus of horizontal velocity, m/s
 8 - Richardson number, n/d
   -0.000000    8.75122  0.0000E+00  0.2181E-04  0.3229E-05  0.2233E-04  0.2700E-01 -0.3318E-01
   -0.034998    8.77920  0.0000E+00  0.1526E-04  0.9786E-06  0.3722E-04  0.1378E-01 -0.9668E-01
   -0.069996    8.78955  0.0000E+00  0.1248E-04  0.4607E-06  0.6111E-04  0.1011E-01  0.9929E+02
   -0.104994    8.79600  0.0000E+00  0.1070E-04  0.2619E-06  0.8415E-04  0.7887E-02  0.1395E+03
   -0.139993    8.80076  0.0000E+00  0.9430E-05  0.1675E-06  0.1071E-03  0.6322E-02  0.1183E+03
   -0.174992    8.80455  0.0000E+00  0.8480E-05  0.1161E-06  0.1312E-03  0.5136E-02  0.1408E+02
   -0.209992    8.80770  0.0000E+00  0.7737E-05  0.8540E-07  0.1532E-03  0.4201E-02  0.1928E+01
   -0.244991    8.81044  0.0000E+00  0.7126E-05  0.6551E-07  0.1757E-03  0.3432E-02  0.1825E+01
   -0.279991    8.81286  0.0000E+00  0.6592E-05  0.5160E-07  0.1984E-03  0.2780E-02  0.2236E+02
   -0.314991    8.81504  0.0000E+00  0.6090E-05  0.4112E-07  0.2238E-03  0.2208E-02  0.3560E+02
   -0.349991    8.81696  0.0000E+00  0.5656E-05  0.3334E-07  0.2513E-03  0.1763E-02  0.3006E+01
   -0.384991    8.81864  0.0000E+00  0.5297E-05  0.2763E-07  0.2988E-03  0.1413E-02  0.3317E+03
   -0.419992    8.82001  0.0000E+00  0.5010E-05  0.2347E-07  0.3510E-03  0.1138E-02  0.5174E+01
   -0.454993    8.82110  0.0000E+00  0.4775E-05  0.2036E-07  0.3878E-03  0.9050E-03  0.1584E+03
   -0.489993    8.82201  0.0000E+00  0.4574E-05  0.1796E-07  0.4074E-03  0.6999E-03  0.1097E+02
   -0.524994    8.82285  0.0000E+00  0.4385E-05  0.1592E-07  0.4295E-03  0.5184E-03  0.9712E+01
   -0.559995    8.82362  0.0000E+00  0.4207E-05  0.1415E-07  0.4436E-03  0.3877E-03  0.7756E+00
   -0.594996    8.82434  0.0000E+00  0.4038E-05  0.1255E-07  0.4529E-03  0.3079E-03  0.7120E+00
   -0.629997    8.82500  0.0000E+00  0.3915E-05  0.1140E-07  0.4614E-03  0.2670E-03  0.1170E+01
   -0.664998    8.82565  0.0000E+00  0.3818E-05  0.1051E-07  0.4696E-03  0.2351E-03  0.1289E+01
   -0.700000    8.82629  0.0000E+00  0.3737E-05  0.9785E-08  0.4781E-03  0.2063E-03  0.1442E+01
   -0.735001    8.82692  0.0000E+00  0.3669E-05  0.9187E-08  0.4859E-03  0.1811E-03  0.1627E+01
   -0.770002    8.82754  0.0000E+00  0.3612E-05  0.8699E-08  0.4929E-03  0.1592E-03  0.1866E+01
   -0.805003    8.82815  0.0000E+00  0.3564E-05  0.8301E-08  0.4987E-03  0.1406E-03  0.2169E+01
   -0.840004    8.82875  0.0000E+00  0.3522E-05  0.7977E-08  0.5032E-03  0.1244E-03  0.2572E+01
   -0.875005    8.82935  0.0000E+00  0.3484E-05  0.7712E-08  0.5063E-03  0.1103E-03  0.3048E+01
   -0.910006    8.82994  0.0000E+00  0.3450E-05  0.7497E-08  0.5078E-03  0.9775E-04  0.3683E+01
   -0.945007    8.83053  0.0000E+00  0.3419E-05  0.7330E-08  0.5074E-03  0.8641E-04  0.4371E+01
   -0.980007    8.83113  0.0000E+00  0.3389E-05  0.7209E-08  0.5048E-03  0.7600E-04  0.5233E+01
   -1.015008    8.83173  0.0000E+00  0.3361E-05  0.7132E-08  0.4997E-03  0.6646E-04  0.6319E+01
   -1.050008    8.83233  0.0000E+00  0.3332E-05  0.7101E-08  0.4916E-03  0.5786E-04  0.8136E+01
   -1.085008    8.83295  0.0000E+00  0.3301E-05  0.7123E-08  0.4800E-03  0.5017E-04  0.1067E+02
   -1.120008    8.83359  0.0000E+00  0.3269E-05  0.7206E-08  0.4644E-03  0.4330E-04  0.1458E+02
   -1.155008    8.83425  0.0000E+00  0.3235E-05  0.7368E-08  0.4445E-03  0.3697E-04  0.1926E+02
   -1.190008    8.83494  0.0000E+00  0.3198E-05  0.7637E-08  0.4187E-03  0.3107E-04  0.2574E+02
   -1.225007    8.83568  0.0000E+00  0.3153E-05  0.8099E-08  0.3880E-03  0.2558E-04  0.3478E+02
   -1.260006    8.83648  0.0000E+00  0.3089E-05  0.8992E-08  0.3281E-03  0.2079E-04  0.6114E+02
   -1.295005    8.83744  0.0000E+00  0.2958E-05  0.1134E-07  0.2848E-03  0.1673E-04  0.1217E+03
   -1.330003    8.83854  0.0000E+00  0.2696E-05  0.1800E-07  0.1604E-03  0.1383E-04 -0.1137E+05
   -1.365001    8.84236  0.0000E+00  0.1773E-05  0.5267E-07  0.2421E-04  0.1074E-04 -0.1210E+06
   -1.399999    8.85845  0.0000E+00  0.0000E+00  0.0000E+00  0.0000E+00  0.1111E-04  0.0000E+00
