 1 - depth, m
 2 - temperature, C
 3 - salinity, kg/kg
 4 - turbulent kinetic energy, m**2/s**2
 5 - dissipation rate, m**2/s**3
 6 - kinematic heat conductance, m**2/s
 7 - modulus of horizontal velocity, m/s
 8 - Richardson number, n/d
   -0.000000   18.67242  0.0000E+00  0.6017E-04  0.1381E-04  0.3674E-04  0.5896E-01  0.1068E+00
   -0.034998   18.72044  0.0000E+00  0.3713E-04  0.4096E-05  0.5478E-04  0.2349E-01 -0.3671E+00
   -0.069996   18.73082  0.0000E+00  0.2890E-04  0.1920E-05  0.6903E-04  0.1727E-01 -0.4606E-01
   -0.104994   18.73781  0.0000E+00  0.2401E-04  0.1054E-05  0.8396E-04  0.1382E-01 -0.6845E-01
   -0.139993   18.74328  0.0000E+00  0.2063E-04  0.6384E-06  0.1003E-03  0.1130E-01 -0.9297E-01
   -0.174992   18.74781  0.0000E+00  0.1819E-04  0.4174E-06  0.1197E-03  0.9347E-02 -0.8776E-01
   -0.209991   18.75162  0.0000E+00  0.1636E-04  0.2911E-06  0.1666E-03  0.7772E-02  0.3772E+03
   -0.244991   18.75469  0.0000E+00  0.1496E-04  0.2145E-06  0.2087E-03  0.6489E-02  0.2647E+03
   -0.279990   18.75726  0.0000E+00  0.1383E-04  0.1649E-06  0.2681E-03  0.5397E-02  0.1529E+03
   -0.314990   18.75930  0.0000E+00  0.1284E-04  0.1304E-06  0.3423E-03  0.4450E-02  0.1560E+03
   -0.349990   18.76083  0.0000E+00  0.1200E-04  0.1057E-06  0.3766E-03  0.3691E-02  0.2440E+03
   -0.384991   18.76209  0.0000E+00  0.1129E-04  0.8749E-07  0.3991E-03  0.3047E-02  0.2971E+02
   -0.419991   18.76320  0.0000E+00  0.1070E-04  0.7386E-07  0.4117E-03  0.2499E-02  0.6643E+01
   -0.454992   18.76424  0.0000E+00  0.1018E-04  0.6344E-07  0.4196E-03  0.2004E-02  0.3747E+01
   -0.489993   18.76525  0.0000E+00  0.9720E-05  0.5528E-07  0.4240E-03  0.1552E-02  0.3037E+01
   -0.524993   18.76624  0.0000E+00  0.9260E-05  0.4830E-07  0.4546E-03  0.1145E-02  0.1643E+01
   -0.559994   18.76712  0.0000E+00  0.8814E-05  0.4222E-07  0.5130E-03  0.8504E-03  0.1004E+01
   -0.594995   18.76785  0.0000E+00  0.8386E-05  0.3676E-07  0.6056E-03  0.6670E-03  0.7060E+00
   -0.629996   18.76842  0.0000E+00  0.8075E-05  0.3293E-07  0.6262E-03  0.5734E-03  0.7651E+00
   -0.664997   18.76896  0.0000E+00  0.7835E-05  0.3009E-07  0.6384E-03  0.5021E-03  0.7752E+00
   -0.699998   18.76950  0.0000E+00  0.7633E-05  0.2781E-07  0.6519E-03  0.4379E-03  0.8040E+00
   -0.735000   18.77003  0.0000E+00  0.7461E-05  0.2600E-07  0.6629E-03  0.3817E-03  0.8213E+00
   -0.770001   18.77054  0.0000E+00  0.7314E-05  0.2459E-07  0.6706E-03  0.3334E-03  0.8261E+00
   -0.805002   18.77105  0.0000E+00  0.7187E-05  0.2352E-07  0.6744E-03  0.2927E-03  0.8287E+00
   -0.840003   18.77156  0.0000E+00  0.7076E-05  0.2273E-07  0.6741E-03  0.2583E-03  0.8253E+00
   -0.875004   18.77207  0.0000E+00  0.6978E-05  0.2217E-07  0.6702E-03  0.2294E-03  0.8231E+00
   -0.910004   18.77258  0.0000E+00  0.6887E-05  0.2181E-07  0.6633E-03  0.2051E-03  0.8667E+00
   -0.945005   18.77310  0.0000E+00  0.6801E-05  0.2164E-07  0.6527E-03  0.1840E-03  0.9585E+00
   -0.980006   18.77364  0.0000E+00  0.6716E-05  0.2163E-07  0.6376E-03  0.1651E-03  0.1116E+01
   -1.015006   18.77419  0.0000E+00  0.6626E-05  0.2182E-07  0.6188E-03  0.1477E-03  0.1369E+01
   -1.050006   18.77477  0.0000E+00  0.6526E-05  0.2225E-07  0.5906E-03  0.1317E-03  0.1840E+01
   -1.085007   18.77538  0.0000E+00  0.6413E-05  0.2302E-07  0.5637E-03  0.1167E-03  0.2596E+01
   -1.120006   18.77603  0.0000E+00  0.6281E-05  0.2430E-07  0.5176E-03  0.1029E-03  0.4064E+01
   -1.155006   18.77677  0.0000E+00  0.6128E-05  0.2637E-07  0.4927E-03  0.8930E-04  0.6725E+01
   -1.190006   18.77757  0.0000E+00  0.5934E-05  0.3016E-07  0.4259E-03  0.7636E-04  0.6608E+03
   -1.225005   18.77876  0.0000E+00  0.5667E-05  0.3690E-07  0.4087E-03  0.6211E-04 -0.8729E+03
   -1.260004   18.77999  0.0000E+00  0.5245E-05  0.5255E-07  0.3091E-03  0.4921E-04 -0.1948E+05
   -1.295003   18.78357  0.0000E+00  0.4525E-05  0.9190E-07  0.2842E-03  0.3450E-04  0.2529E+06
   -1.330001   18.78320  0.0000E+00  0.3592E-05  0.2018E-06  0.1257E-03  0.2918E-04 -0.3730E+05
   -1.364999   18.79739  0.0000E+00  0.2443E-05  0.4706E-06  0.8995E-04  0.1783E-04 -0.1105E+06
   -1.399997   18.80106  0.0000E+00  0.0000E+00  0.0000E+00  0.0000E+00  0.2727E-04  0.0000E+00
