 1 - depth, m
 2 - temperature, C
 3 - salinity, kg/kg
 4 - turbulent kinetic energy, m**2/s**2
 5 - dissipation rate, m**2/s**3
 6 - kinematic heat conductance, m**2/s
 7 - modulus of horizontal velocity, m/s
 8 - Richardson number, n/d
   -0.000000    0.00000  0.0000E+00  0.4702E-13  0.1132E-15  0.1000E-09  0.0000E+00  0.7962E+16
   -0.034998    0.12142  0.0000E+00  0.4702E-13  0.1132E-15  0.1000E-09  0.0000E+00  0.7856E+16
   -0.069996    0.24533  0.0000E+00  0.4702E-13  0.1132E-15  0.1000E-09  0.0000E+00  0.7732E+16
   -0.104995    0.37171  0.0000E+00  0.4702E-13  0.1132E-15  0.1000E-09  0.0000E+00  0.7481E+16
   -0.139993    0.49863  0.0000E+00  0.4702E-13  0.1132E-15  0.1000E-09  0.0000E+00  0.7162E+16
   -0.174992    0.62490  0.0000E+00  0.4702E-13  0.1132E-15  0.1000E-09  0.0000E+00  0.6843E+16
   -0.209992    0.75041  0.0000E+00  0.4702E-13  0.1132E-15  0.1000E-09  0.0000E+00  0.6525E+16
   -0.244991    0.87506  0.0000E+00  0.4702E-13  0.1132E-15  0.1000E-09  0.0000E+00  0.6208E+16
   -0.279991    0.99876  0.0000E+00  0.4702E-13  0.1132E-15  0.1000E-09  0.0000E+00  0.5895E+16
   -0.314991    1.12141  0.0000E+00  0.4702E-13  0.1132E-15  0.1000E-09  0.0000E+00  0.5569E+16
   -0.349991    1.24256  0.0000E+00  0.4702E-13  0.1132E-15  0.1000E-09  0.0000E+00  0.5244E+16
   -0.384992    1.36200  0.0000E+00  0.4702E-13  0.1132E-15  0.1000E-09  0.0000E+00  0.4924E+16
   -0.419992    1.47954  0.0000E+00  0.4702E-13  0.1132E-15  0.1000E-09  0.0000E+00  0.4633E+16
   -0.454993    1.59565  0.0000E+00  0.4702E-13  0.1132E-15  0.1000E-09  0.0000E+00  0.4365E+16
   -0.489994    1.71067  0.0000E+00  0.4702E-13  0.1132E-15  0.1000E-09  0.0000E+00  0.4095E+16
   -0.524995    1.82436  0.0000E+00  0.4702E-13  0.1132E-15  0.1000E-09  0.0000E+00  0.3797E+16
   -0.559996    1.93561  0.0000E+00  0.4702E-13  0.1132E-15  0.1000E-09  0.0000E+00  0.3468E+16
   -0.594997    2.04297  0.0000E+00  0.4702E-13  0.1132E-15  0.1000E-09  0.0000E+00  0.3131E+16
   -0.629998    2.14545  0.0000E+00  0.4702E-13  0.1132E-15  0.1000E-09  0.0000E+00  0.2906E+16
   -0.664999    2.24613  0.0000E+00  0.4702E-13  0.1132E-15  0.1000E-09  0.0000E+00  0.2687E+16
   -0.700000    2.34486  0.0000E+00  0.4702E-13  0.1132E-15  0.1000E-09  0.0000E+00  0.2470E+16
   -0.735002    2.44134  0.0000E+00  0.4702E-13  0.1132E-15  0.1000E-09  0.0000E+00  0.2269E+16
   -0.770003    2.53578  0.0000E+00  0.4702E-13  0.1132E-15  0.1000E-09  0.0000E+00  0.2101E+16
   -0.805004    2.62919  0.0000E+00  0.4702E-13  0.1132E-15  0.1000E-09  0.0000E+00  0.1936E+16
   -0.840005    2.72149  0.0000E+00  0.4702E-13  0.1132E-15  0.1000E-09  0.0000E+00  0.1774E+16
   -0.875006    2.81258  0.0000E+00  0.4702E-13  0.1132E-15  0.1000E-09  0.0000E+00  0.1616E+16
   -0.910007    2.90233  0.0000E+00  0.4702E-13  0.1132E-15  0.1000E-09  0.0000E+00  0.1463E+16
   -0.945008    2.99069  0.0000E+00  0.4702E-13  0.1132E-15  0.1000E-09  0.0000E+00  0.1315E+16
   -0.980008    3.07755  0.0000E+00  0.4702E-13  0.1132E-15  0.1000E-09  0.0000E+00  0.1172E+16
   -1.015009    3.16274  0.0000E+00  0.4702E-13  0.1132E-15  0.1000E-09  0.0000E+00  0.1030E+16
   -1.050009    3.24576  0.0000E+00  0.4702E-13  0.1132E-15  0.1000E-09  0.0000E+00  0.8962E+15
   -1.085010    3.32657  0.0000E+00  0.4702E-13  0.1132E-15  0.1000E-09  0.0000E+00  0.7902E+15
   -1.120010    3.40721  0.0000E+00  0.4702E-13  0.1132E-15  0.1000E-09  0.0000E+00  0.6840E+15
   -1.155009    3.48754  0.0000E+00  0.4702E-13  0.1132E-15  0.1000E-09  0.0000E+00  0.5797E+15
   -1.190009    3.56763  0.0000E+00  0.1162E-12  0.1713E-15  0.1000E-09  0.0000E+00  0.4776E+15
   -1.225008    3.64767  0.0000E+00  0.5183E-12  0.7051E-15  0.1000E-09  0.0000E+00  0.3789E+15
   -1.260007    3.72837  0.0000E+00  0.2476E-11  0.3336E-14  0.1000E-09  0.0000E+00  0.2817E+15
   -1.295006    3.81114  0.0000E+00  0.1374E-10  0.1861E-13  0.2172E-09  0.0000E+00  0.1806E+15
   -1.330005    3.89866  0.0000E+00  0.6154E-10  0.8546E-13  0.2155E-08  0.0000E+00  0.6019E+14
   -1.365003    3.98791  0.0000E+00  0.2618E-09  0.4060E-12  0.6620E-07  0.0000E+00 -0.3556E+14
   -1.400001    4.05374  0.0000E+00  0.0000E+00  0.0000E+00  0.0000E+00  0.0000E+00  0.0000E+00
