 1 - depth, m
 2 - temperature, C
 3 - salinity, kg/kg
 4 - turbulent kinetic energy, m**2/s**2
 5 - dissipation rate, m**2/s**3
 6 - kinematic heat conductance, m**2/s
 7 - modulus of horizontal velocity, m/s
 8 - Richardson number, n/d
   -0.000000    0.00000  0.0000E+00  0.9722E-09  0.1488E-11  0.8749E-09  0.4905E-11  0.4921E+16
   -0.034997    0.07536  0.0000E+00  0.3380E-08  0.9808E-12  0.7781E-09  0.2270E-11  0.3904E+16
   -0.069994    0.13613  0.0000E+00  0.7441E-08  0.8978E-12  0.7918E-09  0.1029E-11  0.3464E+16
   -0.104991    0.19089  0.0000E+00  0.1304E-07  0.9777E-12  0.8432E-09  0.4570E-12  0.3357E+16
   -0.139989    0.24468  0.0000E+00  0.2032E-07  0.1169E-11  0.9084E-09  0.1987E-12  0.3527E+16
   -0.174987    0.30201  0.0000E+00  0.2960E-07  0.1462E-11  0.9821E-09  0.8482E-13  0.3937E+16
   -0.209985    0.36701  0.0000E+00  0.4138E-07  0.1864E-11  0.1079E-08  0.3605E-13  0.4486E+16
   -0.244984    0.44250  0.0000E+00  0.5630E-07  0.2391E-11  0.1217E-08  0.1491E-13  0.5057E+16
   -0.279983    0.52961  0.0000E+00  0.7518E-07  0.3066E-11  0.1412E-08  0.5646E-14  0.5572E+16
   -0.314982    0.62832  0.0000E+00  0.9943E-07  0.3934E-11  0.1928E-08  0.1096E-14  0.5236E+16
   -0.349981    0.72396  0.0000E+00  0.1310E-06  0.5057E-11  0.2718E-08  0.1956E-15  0.4788E+16
   -0.384980    0.81414  0.0000E+00  0.1720E-06  0.6500E-11  0.3879E-08  0.3378E-16  0.4338E+16
   -0.419980    0.89829  0.0000E+00  0.2247E-06  0.8331E-11  0.4892E-08  0.6819E-17  0.4419E+16
   -0.454979    0.98661  0.0000E+00  0.2920E-06  0.1064E-10  0.5840E-08  0.1304E-17  0.4719E+16
   -0.489979    1.08405  0.0000E+00  0.3778E-06  0.1354E-10  0.7560E-08  0.1672E-18  0.4643E+16
   -0.524979    1.18342  0.0000E+00  0.4983E-06  0.1755E-10  0.1727E-07  0.9555E-20  0.2731E+16
   -0.559979    1.24384  0.0000E+00  0.4984E-06  0.1755E-10  0.4368E-02  0.1973E-21  0.1290E+10
   -0.594979    1.24384  0.0000E+00  0.4985E-06  0.1756E-10  0.4330E-02  0.1953E-21 -0.1226E+12
   -0.629979    1.24384  0.0000E+00  0.4986E-06  0.1756E-10  0.4333E-02  0.2004E-21 -0.9720E+11
   -0.664979    1.24383  0.0000E+00  0.4986E-06  0.1756E-10  0.4336E-02  0.1986E-21 -0.7684E+11
   -0.699979    1.24383  0.0000E+00  0.4986E-06  0.1756E-10  0.4339E-02  0.2025E-21 -0.5467E+11
   -0.734979    1.24383  0.0000E+00  0.4986E-06  0.1756E-10  0.4341E-02  0.2009E-21 -0.3992E+11
   -0.769980    1.24383  0.0000E+00  0.4986E-06  0.1756E-10  0.4345E-02  0.2042E-21 -0.2436E+11
   -0.804980    1.24383  0.0000E+00  0.4986E-06  0.1756E-10  0.4358E-02  0.2030E-21 -0.1028E+11
   -0.839980    1.24383  0.0000E+00  0.4985E-06  0.1756E-10  0.2413E-02  0.2053E-21  0.4010E+14
   -0.874980    1.24477  0.0000E+00  0.4810E-06  0.1699E-10  0.6132E-03  0.2046E-21  0.2906E+15
   -0.909980    1.25150  0.0000E+00  0.4424E-06  0.1579E-10  0.5866E-07  0.2057E-21  0.9321E+15
   -0.944979    1.27274  0.0000E+00  0.3772E-06  0.1370E-10  0.2123E-07  0.4569E-22  0.1756E+16
   -0.979979    1.31284  0.0000E+00  0.3188E-06  0.1181E-10  0.1193E-07  0.7066E-23  0.2573E+16
   -1.014978    1.37256  0.0000E+00  0.2690E-06  0.1020E-10  0.8577E-08  0.7836E-24  0.3048E+16
   -1.049978    1.44509  0.0000E+00  0.2263E-06  0.8818E-11  0.6518E-08  0.7579E-25  0.3440E+16
   -1.084977    1.52952  0.0000E+00  0.1895E-06  0.7639E-11  0.4696E-08  0.6557E-26  0.4107E+16
   -1.119976    1.63429  0.0000E+00  0.1581E-06  0.6666E-11  0.3457E-08  0.6532E-27  0.4853E+16
   -1.154975    1.76456  0.0000E+00  0.1320E-06  0.5912E-11  0.2760E-08  0.5761E-28  0.5387E+16
   -1.189973    1.91903  0.0000E+00  0.1106E-06  0.5385E-11  0.2406E-08  0.4016E-29  0.5634E+16
   -1.224972    2.09449  0.0000E+00  0.9177E-07  0.5087E-11  0.2362E-08  0.1738E-30  0.5429E+16
   -1.259970    2.28112  0.0000E+00  0.7315E-07  0.5099E-11  0.2639E-08  0.5478E-32  0.4881E+16
   -1.294967    2.46903  0.0000E+00  0.4865E-07  0.5817E-11  0.3677E-08  0.1477E-33  0.4007E+16
   -1.329965    2.64342  0.0000E+00  0.2429E-07  0.7935E-11  0.5580E-08  0.7277E-35  0.3610E+16
   -1.364962    2.82355  0.0000E+00  0.6930E-08  0.1484E-10  0.1216E-07  0.2875E-36  0.3004E+16
   -1.399959    2.99927  0.0000E+00  0.0000E+00  0.0000E+00  0.0000E+00  0.4871E-36  0.0000E+00
