 1 - depth, m
 2 - temperature, C
 3 - salinity, kg/kg
 4 - turbulent kinetic energy, m**2/s**2
 5 - dissipation rate, m**2/s**3
 6 - kinematic heat conductance, m**2/s
 7 - modulus of horizontal velocity, m/s
 8 - Richardson number, n/d
   -0.000000    0.00000  0.0000E+00  0.4702E-13  0.1132E-15  0.1000E-09  0.0000E+00  0.9926E+16
   -0.034998    0.15200  0.0000E+00  0.4702E-13  0.1132E-15  0.1000E-09  0.0000E+00  0.9639E+16
   -0.069996    0.30601  0.0000E+00  0.4702E-13  0.1132E-15  0.1000E-09  0.0000E+00  0.9344E+16
   -0.104994    0.46215  0.0000E+00  0.4702E-13  0.1132E-15  0.1000E-09  0.0000E+00  0.8894E+16
   -0.139993    0.61790  0.0000E+00  0.4702E-13  0.1132E-15  0.1000E-09  0.0000E+00  0.8371E+16
   -0.174992    0.77178  0.0000E+00  0.4702E-13  0.1132E-15  0.1000E-09  0.0000E+00  0.7863E+16
   -0.209991    0.92376  0.0000E+00  0.4702E-13  0.1132E-15  0.1000E-09  0.0000E+00  0.7370E+16
   -0.244990    1.07379  0.0000E+00  0.4702E-13  0.1132E-15  0.1000E-09  0.0000E+00  0.6891E+16
   -0.279990    1.22182  0.0000E+00  0.4702E-13  0.1132E-15  0.1000E-09  0.0000E+00  0.6427E+16
   -0.314990    1.36777  0.0000E+00  0.4702E-13  0.1132E-15  0.1000E-09  0.0000E+00  0.5927E+16
   -0.349990    1.51032  0.0000E+00  0.4702E-13  0.1132E-15  0.1000E-09  0.0000E+00  0.5436E+16
   -0.384990    1.64902  0.0000E+00  0.4702E-13  0.1132E-15  0.1000E-09  0.0000E+00  0.4959E+16
   -0.419990    1.78347  0.0000E+00  0.4702E-13  0.1132E-15  0.1000E-09  0.0000E+00  0.4559E+16
   -0.454991    1.91507  0.0000E+00  0.4702E-13  0.1132E-15  0.1000E-09  0.0000E+00  0.4209E+16
   -0.489991    2.04474  0.0000E+00  0.4702E-13  0.1132E-15  0.1000E-09  0.0000E+00  0.3853E+16
   -0.524992    2.17182  0.0000E+00  0.4702E-13  0.1132E-15  0.1000E-09  0.0000E+00  0.3428E+16
   -0.559993    2.29315  0.0000E+00  0.4702E-13  0.1132E-15  0.1000E-09  0.0000E+00  0.2944E+16
   -0.594994    2.40496  0.0000E+00  0.4702E-13  0.1132E-15  0.1000E-09  0.0000E+00  0.2460E+16
   -0.629995    2.50505  0.0000E+00  0.4702E-13  0.1132E-15  0.1000E-09  0.0000E+00  0.2226E+16
   -0.664996    2.60198  0.0000E+00  0.4702E-13  0.1132E-15  0.1000E-09  0.0000E+00  0.2002E+16
   -0.699997    2.69552  0.0000E+00  0.4702E-13  0.1132E-15  0.1000E-09  0.0000E+00  0.1785E+16
   -0.734998    2.78519  0.0000E+00  0.4702E-13  0.1132E-15  0.1000E-09  0.0000E+00  0.1595E+16
   -0.769999    2.87150  0.0000E+00  0.4702E-13  0.1132E-15  0.1000E-09  0.0000E+00  0.1455E+16
   -0.805000    2.95664  0.0000E+00  0.4702E-13  0.1132E-15  0.1000E-09  0.0000E+00  0.1319E+16
   -0.840000    3.04059  0.0000E+00  0.4702E-13  0.1132E-15  0.1000E-09  0.0000E+00  0.1189E+16
   -0.875001    3.12330  0.0000E+00  0.4702E-13  0.1132E-15  0.1000E-09  0.0000E+00  0.1062E+16
   -0.910002    3.20465  0.0000E+00  0.4702E-13  0.1132E-15  0.1000E-09  0.0000E+00  0.9413E+15
   -0.945003    3.28472  0.0000E+00  0.4702E-13  0.1132E-15  0.1000E-09  0.0000E+00  0.8255E+15
   -0.980003    3.36348  0.0000E+00  0.4778E-13  0.1132E-15  0.1000E-09  0.0000E+00  0.7138E+15
   -1.015004    3.44076  0.0000E+00  0.2262E-12  0.1875E-15  0.1000E-09  0.0000E+00  0.6028E+15
   -1.050004    3.51590  0.0000E+00  0.7505E-12  0.5289E-15  0.1000E-09  0.0000E+00  0.4997E+15
   -1.085004    3.58891  0.0000E+00  0.2273E-11  0.1534E-14  0.1000E-09  0.0000E+00  0.4184E+15
   -1.120004    3.66256  0.0000E+00  0.6646E-11  0.4367E-14  0.1000E-09  0.0000E+00  0.3351E+15
   -1.155003    3.73686  0.0000E+00  0.1917E-10  0.1230E-13  0.1227E-09  0.0000E+00  0.2503E+15
   -1.190003    3.81200  0.0000E+00  0.5513E-10  0.3464E-13  0.5214E-09  0.0000E+00  0.1630E+15
   -1.225002    3.88826  0.0000E+00  0.1654E-09  0.1022E-12  0.3278E-08  0.0000E+00  0.7211E+14
   -1.260001    3.96590  0.0000E+00  0.5133E-09  0.3166E-12  0.1258E-06  0.0000E+00 -0.1665E+13
   -1.294999    4.01146  0.0000E+00  0.1388E-08  0.1067E-11  0.7008E-06  0.0000E+00 -0.8721E+13
   -1.329998    4.02810  0.0000E+00  0.1964E-08  0.2078E-11  0.6477E-06  0.0000E+00 -0.1569E+14
   -1.364996    4.04755  0.0000E+00  0.2072E-08  0.4269E-11  0.2916E-06  0.0000E+00 -0.5330E+14
   -1.399993    4.08909  0.0000E+00  0.0000E+00  0.0000E+00  0.0000E+00  0.0000E+00  0.0000E+00
