 1 - depth, m
 2 - temperature, C
 3 - salinity, kg/kg
 4 - turbulent kinetic energy, m**2/s**2
 5 - dissipation rate, m**2/s**3
 6 - kinematic heat conductance, m**2/s
 7 - modulus of horizontal velocity, m/s
 8 - Richardson number, n/d
   -0.000000   13.08049  0.0000E+00  0.3982E-04  0.1102E-04  0.2603E-04  0.4144E-01 -0.1370E-01
   -0.034998   13.09315  0.0000E+00  0.2542E-04  0.3222E-05  0.4458E-04  0.1783E-01 -0.2224E-01
   -0.069996   13.09701  0.0000E+00  0.1970E-04  0.1471E-05  0.5531E-04  0.1299E-01 -0.4310E-01
   -0.104994   13.09974  0.0000E+00  0.1626E-04  0.8043E-06  0.6578E-04  0.1028E-01 -0.6504E-01
   -0.139993   13.10188  0.0000E+00  0.1383E-04  0.4747E-06  0.7756E-04  0.8335E-02 -0.8839E-01
   -0.174992   13.10366  0.0000E+00  0.1202E-04  0.2994E-06  0.9880E-04  0.6829E-02  0.5634E+02
   -0.209992   13.10513  0.0000E+00  0.1064E-04  0.2015E-06  0.1179E-03  0.5626E-02  0.2681E+02
   -0.244991   13.10641  0.0000E+00  0.9535E-05  0.1436E-06  0.1352E-03  0.4628E-02  0.2936E+02
   -0.279991   13.10757  0.0000E+00  0.8592E-05  0.1065E-06  0.1535E-03  0.3769E-02  0.3625E+01
   -0.314991   13.10865  0.0000E+00  0.7715E-05  0.8053E-07  0.1742E-03  0.3004E-02  0.1541E+02
   -0.349991   13.10961  0.0000E+00  0.6957E-05  0.6214E-07  0.1948E-03  0.2405E-02  0.4211E+01
   -0.384991   13.11048  0.0000E+00  0.6321E-05  0.4896E-07  0.2167E-03  0.1930E-02  0.1078E+02
   -0.419992   13.11127  0.0000E+00  0.5799E-05  0.3947E-07  0.2423E-03  0.1547E-02  0.2964E+02
   -0.454993   13.11199  0.0000E+00  0.5364E-05  0.3253E-07  0.2687E-03  0.1220E-02  0.4107E+02
   -0.489993   13.11264  0.0000E+00  0.4997E-05  0.2739E-07  0.2904E-03  0.9317E-03  0.4729E+02
   -0.524994   13.11324  0.0000E+00  0.4655E-05  0.2324E-07  0.3120E-03  0.6847E-03  0.2840E+02
   -0.559995   13.11374  0.0000E+00  0.4334E-05  0.1974E-07  0.3262E-03  0.5104E-03  0.7369E+02
   -0.594996   13.11415  0.0000E+00  0.4016E-05  0.1651E-07  0.3436E-03  0.4033E-03  0.2129E+02
   -0.629997   13.11445  0.0000E+00  0.3770E-05  0.1412E-07  0.3610E-03  0.3461E-03  0.2740E+02
   -0.664998   13.11473  0.0000E+00  0.3580E-05  0.1234E-07  0.3725E-03  0.3000E-03  0.3401E+02
   -0.700000   13.11500  0.0000E+00  0.3428E-05  0.1098E-07  0.3838E-03  0.2599E-03  0.1047E+04
   -0.735001   13.11526  0.0000E+00  0.3305E-05  0.9914E-08  0.3926E-03  0.2256E-03  0.7446E+01
   -0.770002   13.11552  0.0000E+00  0.3205E-05  0.9068E-08  0.3987E-03  0.1963E-03  0.4931E+01
   -0.805003   13.11578  0.0000E+00  0.3122E-05  0.8386E-08  0.4037E-03  0.1712E-03  0.2483E+01
   -0.840004   13.11604  0.0000E+00  0.3053E-05  0.7837E-08  0.4083E-03  0.1495E-03  0.3057E+01
   -0.875005   13.11631  0.0000E+00  0.2996E-05  0.7393E-08  0.4120E-03  0.1305E-03  0.3843E+01
   -0.910006   13.11659  0.0000E+00  0.2948E-05  0.7034E-08  0.4148E-03  0.1141E-03  0.4859E+01
   -0.945007   13.11687  0.0000E+00  0.2907E-05  0.6751E-08  0.4163E-03  0.9937E-04  0.6126E+01
   -0.980007   13.11716  0.0000E+00  0.2873E-05  0.6536E-08  0.4163E-03  0.8616E-04  0.7665E+01
   -1.015008   13.11747  0.0000E+00  0.2843E-05  0.6380E-08  0.4146E-03  0.7415E-04  0.9792E+01
   -1.050008   13.11778  0.0000E+00  0.2816E-05  0.6279E-08  0.4108E-03  0.6363E-04  0.1318E+02
   -1.085008   13.11811  0.0000E+00  0.2790E-05  0.6232E-08  0.4043E-03  0.5436E-04  0.1832E+02
   -1.120008   13.11845  0.0000E+00  0.2766E-05  0.6245E-08  0.3945E-03  0.4634E-04  0.2628E+02
   -1.155008   13.11882  0.0000E+00  0.2741E-05  0.6330E-08  0.3812E-03  0.3898E-04  0.3663E+02
   -1.190008   13.11921  0.0000E+00  0.2714E-05  0.6506E-08  0.3630E-03  0.3228E-04  0.5064E+02
   -1.225007   13.11965  0.0000E+00  0.2682E-05  0.6837E-08  0.3384E-03  0.2603E-04  0.7090E+02
   -1.260006   13.12013  0.0000E+00  0.2635E-05  0.7497E-08  0.3001E-03  0.2068E-04  0.7959E+02
   -1.295005   13.12070  0.0000E+00  0.2537E-05  0.9236E-08  0.2339E-03  0.1628E-04  0.3442E+03
   -1.330003   13.12146  0.0000E+00  0.2359E-05  0.1337E-07  0.1661E-03  0.1315E-04  0.8555E+04
   -1.365001   13.12289  0.0000E+00  0.1608E-05  0.3897E-07  0.1594E-04  0.1015E-04 -0.2315E+07
   -1.399999   13.13784  0.0000E+00  0.0000E+00  0.0000E+00  0.0000E+00  0.1056E-04  0.0000E+00
