 1 - depth, m
 2 - temperature, C
 3 - salinity, kg/kg
 4 - turbulent kinetic energy, m**2/s**2
 5 - dissipation rate, m**2/s**3
 6 - kinematic heat conductance, m**2/s
 7 - modulus of horizontal velocity, m/s
 8 - Richardson number, n/d
   -0.000000    0.00000  0.0000E+00  0.4702E-13  0.1132E-15  0.1000E-09  0.0000E+00  0.1553E+17
   -0.034997    0.24068  0.0000E+00  0.4702E-13  0.1132E-15  0.1000E-09  0.0000E+00  0.1386E+17
   -0.069994    0.47031  0.0000E+00  0.4702E-13  0.1132E-15  0.1000E-09  0.0000E+00  0.1238E+17
   -0.104991    0.68974  0.0000E+00  0.4702E-13  0.1132E-15  0.1000E-09  0.0000E+00  0.1098E+17
   -0.139989    0.89830  0.0000E+00  0.4702E-13  0.1132E-15  0.1000E-09  0.0000E+00  0.9709E+16
   -0.174987    1.09582  0.0000E+00  0.4702E-13  0.1132E-15  0.1000E-09  0.0000E+00  0.8573E+16
   -0.209985    1.28283  0.0000E+00  0.4702E-13  0.1132E-15  0.1000E-09  0.0000E+00  0.7561E+16
   -0.244984    1.45978  0.0000E+00  0.4702E-13  0.1132E-15  0.1000E-09  0.0000E+00  0.6661E+16
   -0.279982    1.62713  0.0000E+00  0.4702E-13  0.1132E-15  0.1000E-09  0.0000E+00  0.5861E+16
   -0.314981    1.78530  0.0000E+00  0.4702E-13  0.1132E-15  0.1000E-09  0.0000E+00  0.5126E+16
   -0.349980    1.93400  0.0000E+00  0.4702E-13  0.1132E-15  0.1000E-09  0.0000E+00  0.4465E+16
   -0.384980    2.07327  0.0000E+00  0.4702E-13  0.1132E-15  0.1000E-09  0.0000E+00  0.3873E+16
   -0.419979    2.20316  0.0000E+00  0.4702E-13  0.1132E-15  0.1000E-09  0.0000E+00  0.3400E+16
   -0.454979    2.32579  0.0000E+00  0.4702E-13  0.1132E-15  0.1000E-09  0.0000E+00  0.3016E+16
   -0.489978    2.44296  0.0000E+00  0.4702E-13  0.1132E-15  0.1000E-09  0.0000E+00  0.2668E+16
   -0.524978    2.55476  0.0000E+00  0.4702E-13  0.1132E-15  0.1000E-09  0.0000E+00  0.2331E+16
   -0.559978    2.66035  0.0000E+00  0.4702E-13  0.1132E-15  0.1000E-09  0.0000E+00  0.1989E+16
   -0.594978    2.75774  0.0000E+00  0.4702E-13  0.1132E-15  0.1000E-09  0.0000E+00  0.1662E+16
   -0.629978    2.84565  0.0000E+00  0.4702E-13  0.1132E-15  0.1000E-09  0.0000E+00  0.1456E+16
   -0.664978    2.92873  0.0000E+00  0.4702E-13  0.1132E-15  0.1000E-09  0.0000E+00  0.1268E+16
   -0.699978    3.00690  0.0000E+00  0.4702E-13  0.1132E-15  0.1000E-09  0.0000E+00  0.1094E+16
   -0.734978    3.07984  0.0000E+00  0.4702E-13  0.1132E-15  0.1000E-09  0.0000E+00  0.9463E+15
   -0.769978    3.14814  0.0000E+00  0.4702E-13  0.1132E-15  0.1000E-09  0.0000E+00  0.8396E+15
   -0.804979    3.21384  0.0000E+00  0.4702E-13  0.1132E-15  0.1000E-09  0.0000E+00  0.7411E+15
   -0.839978    3.27695  0.0000E+00  0.4702E-13  0.1132E-15  0.1000E-09  0.0000E+00  0.6507E+15
   -0.874978    3.33746  0.0000E+00  0.4702E-13  0.1132E-15  0.1000E-09  0.0000E+00  0.5682E+15
   -0.909978    3.39540  0.0000E+00  0.4702E-13  0.1132E-15  0.1000E-09  0.0000E+00  0.4939E+15
   -0.944978    3.45090  0.0000E+00  0.4702E-13  0.1132E-15  0.1000E-09  0.0000E+00  0.4269E+15
   -0.979978    3.50403  0.0000E+00  0.4702E-13  0.1132E-15  0.1000E-09  0.0000E+00  0.3663E+15
   -1.014977    3.55484  0.0000E+00  0.4925E-13  0.1132E-15  0.1000E-09  0.0000E+00  0.3097E+15
   -1.049976    3.60307  0.0000E+00  0.1812E-12  0.1890E-15  0.1000E-09  0.0000E+00  0.2614E+15
   -1.084975    3.64914  0.0000E+00  0.6523E-12  0.6081E-15  0.1000E-09  0.0000E+00  0.2338E+15
   -1.119974    3.69653  0.0000E+00  0.2209E-11  0.2018E-14  0.1000E-09  0.0000E+00  0.2039E+15
   -1.154973    3.74542  0.0000E+00  0.7375E-11  0.6677E-14  0.1050E-09  0.0000E+00  0.1731E+15
   -1.189971    3.79663  0.0000E+00  0.2466E-10  0.2223E-13  0.3664E-09  0.0000E+00  0.1399E+15
   -1.224970    3.85162  0.0000E+00  0.8681E-10  0.7841E-13  0.1721E-08  0.0000E+00  0.1021E+15
   -1.259968    3.91482  0.0000E+00  0.3239E-09  0.2968E-12  0.1441E-07  0.0000E+00  0.4024E+14
   -1.294965    3.99067  0.0000E+00  0.1297E-08  0.1281E-11  0.3776E-06  0.0000E+00 -0.1181E+14
   -1.329963    4.02674  0.0000E+00  0.2493E-08  0.3369E-11  0.6100E-06  0.0000E+00 -0.2492E+14
   -1.364960    4.05573  0.0000E+00  0.3289E-08  0.8165E-11  0.4100E-06  0.0000E+00 -0.8074E+14
   -1.399957    4.10936  0.0000E+00  0.0000E+00  0.0000E+00  0.0000E+00  0.0000E+00  0.0000E+00
