 1 - depth, m
 2 - temperature, C
 3 - salinity, kg/kg
 4 - turbulent kinetic energy, m**2/s**2
 5 - dissipation rate, m**2/s**3
 6 - kinematic heat conductance, m**2/s
 7 - modulus of horizontal velocity, m/s
 8 - Richardson number, n/d
   -0.000000    6.80419  0.0000E+00  0.2705E-03  0.3270E-03  0.7359E-04  0.1840E+00  0.6015E-02
   -0.034998    6.83197  0.0000E+00  0.1464E-03  0.9740E-04  0.1001E-03  0.5835E-01 -0.1604E-01
   -0.069996    6.83868  0.0000E+00  0.1020E-03  0.3858E-04  0.1319E-03  0.3649E-01 -0.3561E-02
   -0.104994    6.84283  0.0000E+00  0.8032E-04  0.2138E-04  0.1361E-03  0.2883E-01 -0.3963E-02
   -0.139993    6.84553  0.0000E+00  0.6647E-04  0.1278E-04  0.1418E-03  0.2408E-01 -0.4063E-02
   -0.174992    6.84760  0.0000E+00  0.5631E-04  0.7793E-05  0.1485E-03  0.2042E-01 -0.4406E-02
   -0.209991    6.84933  0.0000E+00  0.4865E-04  0.4776E-05  0.1553E-03  0.1740E-01 -0.5579E-02
   -0.244991    6.85092  0.0000E+00  0.4274E-04  0.2961E-05  0.1608E-03  0.1481E-01 -0.7581E-02
   -0.279991    6.85243  0.0000E+00  0.3790E-04  0.1867E-05  0.1631E-03  0.1249E-01 -0.4069E-03
   -0.314991    6.85411  0.0000E+00  0.3348E-04  0.1211E-05  0.1710E-03  0.1022E-01  0.7316E-01
   -0.349991    6.85560  0.0000E+00  0.2975E-04  0.8185E-06  0.1769E-03  0.8508E-02  0.8290E-01
   -0.384991    6.85702  0.0000E+00  0.2662E-04  0.5793E-06  0.1815E-03  0.7125E-02  0.6365E+01
   -0.419992    6.85839  0.0000E+00  0.2401E-04  0.4298E-06  0.1830E-03  0.5979E-02  0.9215E+00
   -0.454992    6.85982  0.0000E+00  0.2177E-04  0.3326E-06  0.1831E-03  0.4935E-02  0.8053E+01
   -0.489993    6.86133  0.0000E+00  0.1981E-04  0.2670E-06  0.1843E-03  0.3970E-02  0.5904E+03
   -0.524994    6.86286  0.0000E+00  0.1794E-04  0.2179E-06  0.1908E-03  0.3122E-02  0.9190E+02
   -0.559995    6.86413  0.0000E+00  0.1613E-04  0.1786E-06  0.1947E-03  0.2509E-02  0.1080E+04
   -0.594996    6.86509  0.0000E+00  0.1420E-04  0.1419E-06  0.1928E-03  0.2105E-02  0.1872E+05
   -0.629997    6.86552  0.0000E+00  0.1251E-04  0.1130E-06  0.1914E-03  0.1865E-02  0.8376E+04
   -0.664998    6.86626  0.0000E+00  0.1108E-04  0.9081E-07  0.1942E-03  0.1636E-02  0.5461E+04
   -0.699999    6.86706  0.0000E+00  0.9881E-05  0.7372E-07  0.2015E-03  0.1423E-02  0.3839E+03
   -0.735000    6.86786  0.0000E+00  0.8857E-05  0.6037E-07  0.2124E-03  0.1230E-02  0.3564E+06
   -0.770002    6.86864  0.0000E+00  0.7982E-05  0.4985E-07  0.2217E-03  0.1058E-02  0.9946E+04
   -0.805003    6.86940  0.0000E+00  0.7230E-05  0.4147E-07  0.2291E-03  0.9076E-03  0.1106E+05
   -0.840004    6.87015  0.0000E+00  0.6587E-05  0.3481E-07  0.2376E-03  0.7754E-03  0.1354E+05
   -0.875005    6.87089  0.0000E+00  0.6035E-05  0.2947E-07  0.2464E-03  0.6599E-03  0.7101E+04
   -0.910005    6.87161  0.0000E+00  0.5561E-05  0.2518E-07  0.2554E-03  0.5604E-03  0.9216E+04
   -0.945006    6.87233  0.0000E+00  0.5160E-05  0.2179E-07  0.2654E-03  0.4729E-03  0.1378E+05
   -0.980007    6.87305  0.0000E+00  0.4823E-05  0.1911E-07  0.2773E-03  0.3958E-03  0.1743E+05
   -1.015007    6.87376  0.0000E+00  0.4539E-05  0.1701E-07  0.2868E-03  0.3280E-03  0.2559E+05
   -1.050008    6.87446  0.0000E+00  0.4296E-05  0.1534E-07  0.2971E-03  0.2707E-03  0.4632E+05
   -1.085008    6.87515  0.0000E+00  0.4089E-05  0.1404E-07  0.3092E-03  0.2229E-03  0.8035E+05
   -1.120008    6.87581  0.0000E+00  0.3916E-05  0.1307E-07  0.3211E-03  0.1840E-03  0.3177E+06
   -1.155008    6.87647  0.0000E+00  0.3775E-05  0.1242E-07  0.3258E-03  0.1511E-03  0.1784E+06
   -1.190007    6.87714  0.0000E+00  0.3657E-05  0.1204E-07  0.3201E-03  0.1228E-03  0.2910E+06
   -1.225006    6.87784  0.0000E+00  0.3549E-05  0.1196E-07  0.3058E-03  0.9832E-04  0.4802E+06
   -1.260006    6.87859  0.0000E+00  0.3431E-05  0.1231E-07  0.2772E-03  0.7787E-04  0.9521E+06
   -1.295004    6.87945  0.0000E+00  0.3238E-05  0.1381E-07  0.2334E-03  0.6145E-04  0.5584E+07
   -1.330003    6.88048  0.0000E+00  0.2921E-05  0.1827E-07  0.1306E-03  0.5030E-04  0.8690E+08
   -1.365001    6.88255  0.0000E+00  0.1816E-05  0.4858E-07  0.1317E-04  0.3841E-04 -0.2559E+12
   -1.399999    6.90218  0.0000E+00  0.0000E+00  0.0000E+00  0.0000E+00  0.3931E-04  0.0000E+00
