 1 - depth, m
 2 - temperature, C
 3 - salinity, kg/kg
 4 - turbulent kinetic energy, m**2/s**2
 5 - dissipation rate, m**2/s**3
 6 - kinematic heat conductance, m**2/s
 7 - modulus of horizontal velocity, m/s
 8 - Richardson number, n/d
   -0.000000   13.27988  0.0000E+00  0.5050E-04  0.2108E-04  0.3307E-04  0.4632E-01 -0.1228E-01
   -0.034998   13.31462  0.0000E+00  0.3135E-04  0.5583E-05  0.5205E-04  0.1902E-01 -0.5784E-02
   -0.069996   13.32532  0.0000E+00  0.2402E-04  0.2532E-05  0.6819E-04  0.1348E-01 -0.1926E+00
   -0.104994   13.33250  0.0000E+00  0.1990E-04  0.1417E-05  0.8299E-04  0.1063E-01 -0.2529E+00
   -0.139993   13.33790  0.0000E+00  0.1705E-04  0.8545E-06  0.1030E-03  0.8654E-02 -0.9823E-01
   -0.174992   13.34210  0.0000E+00  0.1499E-04  0.5365E-06  0.1663E-03  0.7159E-02  0.6626E+04
   -0.209991   13.34512  0.0000E+00  0.1345E-04  0.3492E-06  0.2183E-03  0.6007E-02  0.2314E+03
   -0.244991   13.34750  0.0000E+00  0.1226E-04  0.2375E-06  0.2580E-03  0.5037E-02  0.2009E+02
   -0.279990   13.34954  0.0000E+00  0.1131E-04  0.1695E-06  0.2780E-03  0.4191E-02  0.2974E+02
   -0.314990   13.35143  0.0000E+00  0.1047E-04  0.1256E-06  0.3036E-03  0.3412E-02  0.9829E+01
   -0.349991   13.35311  0.0000E+00  0.9756E-05  0.9669E-07  0.3299E-03  0.2790E-02  0.1282E+02
   -0.384991   13.35461  0.0000E+00  0.9166E-05  0.7693E-07  0.3589E-03  0.2284E-02  0.1071E+02
   -0.419991   13.35596  0.0000E+00  0.8685E-05  0.6313E-07  0.3795E-03  0.1865E-02  0.2172E+02
   -0.454992   13.35721  0.0000E+00  0.8278E-05  0.5313E-07  0.4001E-03  0.1494E-02  0.1996E+02
   -0.489993   13.35840  0.0000E+00  0.7923E-05  0.4573E-07  0.4192E-03  0.1162E-02  0.1381E+02
   -0.524993   13.35951  0.0000E+00  0.7577E-05  0.3969E-07  0.4688E-03  0.8694E-03  0.3851E+01
   -0.559994   13.36045  0.0000E+00  0.7239E-05  0.3450E-07  0.5550E-03  0.6593E-03  0.8161E+01
   -0.594995   13.36117  0.0000E+00  0.6905E-05  0.2974E-07  0.6054E-03  0.5283E-03  0.8460E+02
   -0.629996   13.36173  0.0000E+00  0.6651E-05  0.2623E-07  0.6189E-03  0.4588E-03  0.1468E+02
   -0.664997   13.36227  0.0000E+00  0.6451E-05  0.2359E-07  0.6281E-03  0.4040E-03  0.1506E+02
   -0.699999   13.36281  0.0000E+00  0.6286E-05  0.2151E-07  0.6394E-03  0.3543E-03  0.1907E+02
   -0.735000   13.36335  0.0000E+00  0.6148E-05  0.1988E-07  0.6479E-03  0.3109E-03  0.6678E+00
   -0.770001   13.36388  0.0000E+00  0.6032E-05  0.1860E-07  0.6540E-03  0.2730E-03  0.6645E+01
   -0.805002   13.36442  0.0000E+00  0.5935E-05  0.1760E-07  0.6581E-03  0.2405E-03  0.3681E+01
   -0.840003   13.36495  0.0000E+00  0.5851E-05  0.1684E-07  0.6595E-03  0.2125E-03  0.2723E+01
   -0.875004   13.36549  0.0000E+00  0.5778E-05  0.1627E-07  0.6582E-03  0.1882E-03  0.3144E+01
   -0.910004   13.36605  0.0000E+00  0.5713E-05  0.1586E-07  0.6535E-03  0.1671E-03  0.3903E+01
   -0.945005   13.36661  0.0000E+00  0.5654E-05  0.1561E-07  0.6456E-03  0.1483E-03  0.4856E+01
   -0.980006   13.36720  0.0000E+00  0.5598E-05  0.1550E-07  0.6339E-03  0.1313E-03  0.6099E+01
   -1.015006   13.36781  0.0000E+00  0.5543E-05  0.1553E-07  0.6185E-03  0.1158E-03  0.7800E+01
   -1.050007   13.36844  0.0000E+00  0.5485E-05  0.1572E-07  0.5970E-03  0.1020E-03  0.1065E+02
   -1.085007   13.36911  0.0000E+00  0.5422E-05  0.1611E-07  0.5731E-03  0.8959E-04  0.1495E+02
   -1.120007   13.36983  0.0000E+00  0.5353E-05  0.1675E-07  0.5372E-03  0.7854E-04  0.2198E+02
   -1.155006   13.37061  0.0000E+00  0.5272E-05  0.1775E-07  0.5094E-03  0.6807E-04  0.3120E+02
   -1.190006   13.37146  0.0000E+00  0.5176E-05  0.1940E-07  0.4538E-03  0.5817E-04 -0.1741E+02
   -1.225005   13.37252  0.0000E+00  0.5043E-05  0.2230E-07  0.4299E-03  0.4895E-04 -0.4272E+02
   -1.260004   13.37367  0.0000E+00  0.4828E-05  0.2868E-07  0.3303E-03  0.3958E-04 -0.2352E+05
   -1.295003   13.37599  0.0000E+00  0.4389E-05  0.4522E-07  0.3103E-03  0.2991E-04  0.5947E+05
   -1.330001   13.37703  0.0000E+00  0.3651E-05  0.9237E-07  0.1341E-03  0.2487E-04  0.5608E+05
   -1.364999   13.38848  0.0000E+00  0.2407E-05  0.2316E-06  0.6221E-04  0.1605E-04 -0.3391E+07
   -1.399997   13.39751  0.0000E+00  0.0000E+00  0.0000E+00  0.0000E+00  0.2106E-04  0.0000E+00
