 1 - depth, m
 2 - temperature, C
 3 - salinity, kg/kg
 4 - turbulent kinetic energy, m**2/s**2
 5 - dissipation rate, m**2/s**3
 6 - kinematic heat conductance, m**2/s
 7 - modulus of horizontal velocity, m/s
 8 - Richardson number, n/d
   -0.000000   16.06038  0.0000E+00  0.7977E-04  0.3135E-04  0.3768E-04  0.6810E-01 -0.3707E-01
   -0.034998   16.10256  0.0000E+00  0.4806E-04  0.8317E-05  0.6310E-04  0.2556E-01 -0.2672E-01
   -0.069996   16.11182  0.0000E+00  0.3632E-04  0.3742E-05  0.7701E-04  0.1841E-01 -0.4072E-01
   -0.104994   16.11833  0.0000E+00  0.2977E-04  0.2043E-05  0.9028E-04  0.1481E-01 -0.6732E-01
   -0.139993   16.12330  0.0000E+00  0.2526E-04  0.1194E-05  0.1054E-03  0.1221E-01 -0.8080E-01
   -0.174992   16.12736  0.0000E+00  0.2199E-04  0.7451E-06  0.1268E-03  0.1018E-01  0.7292E-01
   -0.209991   16.13074  0.0000E+00  0.1956E-04  0.4972E-06  0.1709E-03  0.8537E-02  0.1751E+02
   -0.244991   16.13353  0.0000E+00  0.1769E-04  0.3524E-06  0.2120E-03  0.7168E-02  0.3183E+03
   -0.279990   16.13588  0.0000E+00  0.1615E-04  0.2619E-06  0.2463E-03  0.5987E-02  0.2941E+02
   -0.314990   16.13794  0.0000E+00  0.1478E-04  0.2005E-06  0.2796E-03  0.4929E-02  0.2162E+02
   -0.349991   16.13971  0.0000E+00  0.1360E-04  0.1575E-06  0.3095E-03  0.4077E-02  0.2473E+02
   -0.384991   16.14126  0.0000E+00  0.1262E-04  0.1267E-06  0.3380E-03  0.3376E-02  0.2706E+02
   -0.419991   16.14263  0.0000E+00  0.1179E-04  0.1044E-06  0.3635E-03  0.2789E-02  0.9852E+02
   -0.454992   16.14386  0.0000E+00  0.1109E-04  0.8785E-07  0.3904E-03  0.2267E-02  0.3197E+03
   -0.489993   16.14496  0.0000E+00  0.1048E-04  0.7535E-07  0.4110E-03  0.1793E-02  0.7172E+02
   -0.524993   16.14599  0.0000E+00  0.9874E-05  0.6489E-07  0.4527E-03  0.1367E-02  0.7984E+02
   -0.559994   16.14686  0.0000E+00  0.9275E-05  0.5567E-07  0.5134E-03  0.1051E-02  0.2964E+01
   -0.594995   16.14756  0.0000E+00  0.8666E-05  0.4700E-07  0.5731E-03  0.8450E-03  0.2958E+01
   -0.629996   16.14811  0.0000E+00  0.8193E-05  0.4054E-07  0.5869E-03  0.7341E-03  0.2243E+02
   -0.664997   16.14864  0.0000E+00  0.7815E-05  0.3561E-07  0.5948E-03  0.6443E-03  0.7871E+01
   -0.699999   16.14918  0.0000E+00  0.7498E-05  0.3169E-07  0.6051E-03  0.5616E-03  0.7945E+00
   -0.735000   16.14971  0.0000E+00  0.7230E-05  0.2857E-07  0.6138E-03  0.4880E-03  0.7415E+00
   -0.770001   16.15023  0.0000E+00  0.7004E-05  0.2609E-07  0.6211E-03  0.4236E-03 -0.2085E+01
   -0.805002   16.15075  0.0000E+00  0.6812E-05  0.2414E-07  0.6264E-03  0.3682E-03  0.8701E+00
   -0.840003   16.15127  0.0000E+00  0.6649E-05  0.2262E-07  0.6295E-03  0.3206E-03  0.8774E+00
   -0.875004   16.15179  0.0000E+00  0.6507E-05  0.2146E-07  0.6295E-03  0.2800E-03  0.9430E+00
   -0.910004   16.15232  0.0000E+00  0.6383E-05  0.2060E-07  0.6259E-03  0.2454E-03  0.1077E+01
   -0.945005   16.15285  0.0000E+00  0.6272E-05  0.2001E-07  0.6185E-03  0.2153E-03  0.1244E+01
   -0.980006   16.15341  0.0000E+00  0.6171E-05  0.1966E-07  0.6072E-03  0.1887E-03  0.1482E+01
   -1.015006   16.15398  0.0000E+00  0.6076E-05  0.1953E-07  0.5918E-03  0.1650E-03  0.1796E+01
   -1.050007   16.15458  0.0000E+00  0.5983E-05  0.1964E-07  0.5700E-03  0.1444E-03  0.2372E+01
   -1.085007   16.15520  0.0000E+00  0.5885E-05  0.2002E-07  0.5477E-03  0.1265E-03  0.3256E+01
   -1.120007   16.15587  0.0000E+00  0.5779E-05  0.2078E-07  0.5108E-03  0.1107E-03  0.4890E+01
   -1.155006   16.15660  0.0000E+00  0.5662E-05  0.2205E-07  0.4874E-03  0.9563E-04  0.7042E+01
   -1.190006   16.15740  0.0000E+00  0.5520E-05  0.2439E-07  0.4302E-03  0.8155E-04 -0.8741E+02
   -1.225005   16.15847  0.0000E+00  0.5329E-05  0.2864E-07  0.4093E-03  0.6701E-04  0.7831E+02
   -1.260004   16.15959  0.0000E+00  0.5026E-05  0.3836E-07  0.3156E-03  0.5363E-04 -0.3211E+04
   -1.295003   16.16232  0.0000E+00  0.4466E-05  0.6336E-07  0.2932E-03  0.3909E-04 -0.3304E+06
   -1.330001   16.16272  0.0000E+00  0.3644E-05  0.1328E-06  0.1293E-03  0.3291E-04  0.1379E+06
   -1.364999   16.17461  0.0000E+00  0.2425E-05  0.3236E-06  0.7216E-04  0.2076E-04 -0.4212E+06
   -1.399997   16.18101  0.0000E+00  0.0000E+00  0.0000E+00  0.0000E+00  0.2926E-04  0.0000E+00
