 1 - depth, m
 2 - temperature, C
 3 - salinity, kg/kg
 4 - turbulent kinetic energy, m**2/s**2
 5 - dissipation rate, m**2/s**3
 6 - kinematic heat conductance, m**2/s
 7 - modulus of horizontal velocity, m/s
 8 - Richardson number, n/d
   -0.000000    0.00000  0.0000E+00  0.2901E-10  0.1816E-13  0.1000E-09  0.0000E+00  0.2233E+17
   -0.034997    0.35154  0.0000E+00  0.5874E-10  0.1482E-13  0.1000E-09  0.0000E+00  0.1943E+17
   -0.069995    0.68972  0.0000E+00  0.1132E-09  0.1709E-13  0.1000E-09  0.0000E+00  0.1687E+17
   -0.104993    1.01629  0.0000E+00  0.1963E-09  0.2327E-13  0.1000E-09  0.0000E+00  0.1454E+17
   -0.139991    1.33160  0.0000E+00  0.3184E-09  0.3367E-13  0.1000E-09  0.0000E+00  0.1244E+17
   -0.174990    1.63634  0.0000E+00  0.4967E-09  0.4953E-13  0.1000E-09  0.0000E+00  0.1056E+17
   -0.209989    1.93175  0.0000E+00  0.7575E-09  0.7298E-13  0.1000E-09  0.0000E+00  0.8864E+16
   -0.244988    2.21892  0.0000E+00  0.1139E-08  0.1072E-12  0.1000E-09  0.0000E+00  0.7324E+16
   -0.279987    2.49881  0.0000E+00  0.1698E-08  0.1568E-12  0.1000E-09  0.0000E+00  0.5909E+16
   -0.314986    2.77207  0.0000E+00  0.2528E-08  0.2294E-12  0.1338E-09  0.0000E+00  0.4569E+16
   -0.349986    3.03705  0.0000E+00  0.3773E-08  0.3370E-12  0.2596E-09  0.0000E+00  0.3337E+16
   -0.384986    3.29301  0.0000E+00  0.5633E-08  0.4954E-12  0.5735E-09  0.0000E+00  0.2216E+16
   -0.419986    3.53862  0.0000E+00  0.8377E-08  0.7259E-12  0.1515E-08  0.0000E+00  0.1228E+16
   -0.454986    3.77513  0.0000E+00  0.1237E-07  0.1057E-11  0.7843E-08  0.0000E+00  0.3493E+15
   -0.489986    3.99555  0.0000E+00  0.1274E-07  0.1090E-11  0.5134E-04  0.0000E+00 -0.9062E+11
   -0.524987    3.99625  0.0000E+00  0.1295E-07  0.1110E-11  0.5314E-04  0.0000E+00 -0.9537E+11
   -0.559987    3.99690  0.0000E+00  0.1319E-07  0.1136E-11  0.5405E-04  0.0000E+00 -0.1046E+12
   -0.594988    3.99754  0.0000E+00  0.1350E-07  0.1173E-11  0.5468E-04  0.0000E+00 -0.1153E+12
   -0.629988    3.99821  0.0000E+00  0.1382E-07  0.1214E-11  0.5543E-04  0.0000E+00 -0.1209E+12
   -0.664989    3.99887  0.0000E+00  0.1413E-07  0.1257E-11  0.5594E-04  0.0000E+00 -0.1268E+12
   -0.699990    3.99953  0.0000E+00  0.1443E-07  0.1301E-11  0.5630E-04  0.0000E+00 -0.1334E+12
   -0.734990    4.00018  0.0000E+00  0.1473E-07  0.1348E-11  0.5653E-04  0.0000E+00 -0.1402E+12
   -0.769991    4.00083  0.0000E+00  0.1502E-07  0.1397E-11  0.5663E-04  0.0000E+00 -0.1469E+12
   -0.804992    4.00148  0.0000E+00  0.1530E-07  0.1450E-11  0.5662E-04  0.0000E+00 -0.1539E+12
   -0.839992    4.00214  0.0000E+00  0.1556E-07  0.1506E-11  0.5645E-04  0.0000E+00 -0.1618E+12
   -0.874993    4.00279  0.0000E+00  0.1582E-07  0.1567E-11  0.5614E-04  0.0000E+00 -0.1706E+12
   -0.909993    4.00346  0.0000E+00  0.1607E-07  0.1632E-11  0.5566E-04  0.0000E+00 -0.1802E+12
   -0.944993    4.00413  0.0000E+00  0.1630E-07  0.1702E-11  0.5503E-04  0.0000E+00 -0.1909E+12
   -0.979993    4.00481  0.0000E+00  0.1652E-07  0.1778E-11  0.5421E-04  0.0000E+00 -0.2034E+12
   -1.014993    4.00552  0.0000E+00  0.1671E-07  0.1861E-11  0.5319E-04  0.0000E+00 -0.2195E+12
   -1.049993    4.00624  0.0000E+00  0.1689E-07  0.1956E-11  0.5190E-04  0.0000E+00 -0.2387E+12
   -1.084993    4.00701  0.0000E+00  0.1705E-07  0.2067E-11  0.5033E-04  0.0000E+00 -0.2555E+12
   -1.119992    4.00779  0.0000E+00  0.1718E-07  0.2197E-11  0.4844E-04  0.0000E+00 -0.2756E+12
   -1.154992    4.00861  0.0000E+00  0.1728E-07  0.2351E-11  0.4623E-04  0.0000E+00 -0.3001E+12
   -1.189991    4.00946  0.0000E+00  0.1734E-07  0.2539E-11  0.4351E-04  0.0000E+00 -0.3331E+12
   -1.224990    4.01037  0.0000E+00  0.1735E-07  0.2800E-11  0.3998E-04  0.0000E+00 -0.3834E+12
   -1.259988    4.01138  0.0000E+00  0.1729E-07  0.3236E-11  0.3482E-04  0.0000E+00 -0.4801E+12
   -1.294986    4.01259  0.0000E+00  0.1697E-07  0.4450E-11  0.2420E-04  0.0000E+00 -0.8079E+12
   -1.329984    4.01451  0.0000E+00  0.1587E-07  0.8147E-11  0.7779E-05  0.0000E+00 -0.3005E+13
   -1.364982    4.02069  0.0000E+00  0.1173E-07  0.2579E-10  0.1034E-05  0.0000E+00 -0.4003E+14
   -1.399979    4.06563  0.0000E+00  0.0000E+00  0.0000E+00  0.0000E+00  0.0000E+00  0.0000E+00
