 1 - depth, m
 2 - temperature, C
 3 - salinity, kg/kg
 4 - turbulent kinetic energy, m**2/s**2
 5 - dissipation rate, m**2/s**3
 6 - kinematic heat conductance, m**2/s
 7 - modulus of horizontal velocity, m/s
 8 - Richardson number, n/d
   -0.000000    0.00000  0.0000E+00  0.4702E-13  0.1132E-15  0.1000E-09  0.0000E+00  0.9835E+16
   -0.034998    0.15057  0.0000E+00  0.4702E-13  0.1132E-15  0.1000E-09  0.0000E+00  0.9583E+16
   -0.069996    0.30359  0.0000E+00  0.4702E-13  0.1132E-15  0.1000E-09  0.0000E+00  0.9308E+16
   -0.104994    0.45901  0.0000E+00  0.4702E-13  0.1132E-15  0.1000E-09  0.0000E+00  0.8871E+16
   -0.139993    0.61419  0.0000E+00  0.4702E-13  0.1132E-15  0.1000E-09  0.0000E+00  0.8355E+16
   -0.174992    0.76758  0.0000E+00  0.4702E-13  0.1132E-15  0.1000E-09  0.0000E+00  0.7848E+16
   -0.209991    0.91905  0.0000E+00  0.4702E-13  0.1132E-15  0.1000E-09  0.0000E+00  0.7354E+16
   -0.244991    1.06850  0.0000E+00  0.4702E-13  0.1132E-15  0.1000E-09  0.0000E+00  0.6874E+16
   -0.279991    1.21584  0.0000E+00  0.4702E-13  0.1132E-15  0.1000E-09  0.0000E+00  0.6408E+16
   -0.314991    1.36099  0.0000E+00  0.4702E-13  0.1132E-15  0.1000E-09  0.0000E+00  0.5912E+16
   -0.349991    1.50276  0.0000E+00  0.4702E-13  0.1132E-15  0.1000E-09  0.0000E+00  0.5426E+16
   -0.384991    1.64074  0.0000E+00  0.4702E-13  0.1132E-15  0.1000E-09  0.0000E+00  0.4956E+16
   -0.419992    1.77457  0.0000E+00  0.4702E-13  0.1132E-15  0.1000E-09  0.0000E+00  0.4559E+16
   -0.454992    1.90558  0.0000E+00  0.4702E-13  0.1132E-15  0.1000E-09  0.0000E+00  0.4212E+16
   -0.489993    2.03469  0.0000E+00  0.4702E-13  0.1132E-15  0.1000E-09  0.0000E+00  0.3862E+16
   -0.524994    2.16135  0.0000E+00  0.4702E-13  0.1132E-15  0.1000E-09  0.0000E+00  0.3452E+16
   -0.559995    2.28278  0.0000E+00  0.4702E-13  0.1132E-15  0.1000E-09  0.0000E+00  0.2988E+16
   -0.594996    2.39559  0.0000E+00  0.4702E-13  0.1132E-15  0.1000E-09  0.0000E+00  0.2525E+16
   -0.629997    2.49776  0.0000E+00  0.4702E-13  0.1132E-15  0.1000E-09  0.0000E+00  0.2287E+16
   -0.664998    2.59693  0.0000E+00  0.4702E-13  0.1132E-15  0.1000E-09  0.0000E+00  0.2060E+16
   -0.699999    2.69287  0.0000E+00  0.4702E-13  0.1132E-15  0.1000E-09  0.0000E+00  0.1838E+16
   -0.735000    2.78511  0.0000E+00  0.4702E-13  0.1132E-15  0.1000E-09  0.0000E+00  0.1642E+16
   -0.770001    2.87408  0.0000E+00  0.4702E-13  0.1132E-15  0.1000E-09  0.0000E+00  0.1494E+16
   -0.805002    2.96184  0.0000E+00  0.4702E-13  0.1132E-15  0.1000E-09  0.0000E+00  0.1350E+16
   -0.840003    3.04833  0.0000E+00  0.4702E-13  0.1132E-15  0.1000E-09  0.0000E+00  0.1212E+16
   -0.875004    3.13351  0.0000E+00  0.4702E-13  0.1132E-15  0.1000E-09  0.0000E+00  0.1077E+16
   -0.910005    3.21723  0.0000E+00  0.4702E-13  0.1132E-15  0.1000E-09  0.0000E+00  0.9496E+15
   -0.945006    3.29956  0.0000E+00  0.4702E-13  0.1132E-15  0.1000E-09  0.0000E+00  0.8271E+15
   -0.980007    3.38042  0.0000E+00  0.1638E-12  0.1369E-15  0.1000E-09  0.0000E+00  0.7092E+15
   -1.015007    3.45966  0.0000E+00  0.5267E-12  0.3521E-15  0.1000E-09  0.0000E+00  0.5932E+15
   -1.050007    3.53662  0.0000E+00  0.1545E-11  0.9786E-15  0.1000E-09  0.0000E+00  0.4856E+15
   -1.085008    3.61131  0.0000E+00  0.4421E-11  0.2718E-14  0.1000E-09  0.0000E+00  0.3992E+15
   -1.120008    3.68643  0.0000E+00  0.1238E-10  0.7423E-14  0.1000E-09  0.0000E+00  0.3114E+15
   -1.155007    3.76195  0.0000E+00  0.3429E-10  0.2008E-13  0.2256E-09  0.0000E+00  0.2227E+15
   -1.190007    3.83801  0.0000E+00  0.9470E-10  0.5431E-13  0.1006E-08  0.0000E+00  0.1323E+15
   -1.225006    3.91469  0.0000E+00  0.2721E-09  0.1536E-12  0.8406E-08  0.0000E+00  0.4009E+14
   -1.260005    3.98996  0.0000E+00  0.7801E-09  0.4455E-12  0.4500E-06  0.0000E+00 -0.4431E+13
   -1.295004    4.01037  0.0000E+00  0.1473E-08  0.1053E-11  0.7779E-06  0.0000E+00 -0.7448E+13
   -1.330002    4.02543  0.0000E+00  0.1947E-08  0.1970E-11  0.6628E-06  0.0000E+00 -0.1426E+14
   -1.365000    4.04421  0.0000E+00  0.2002E-08  0.4037E-11  0.2847E-06  0.0000E+00 -0.5068E+14
   -1.399998    4.08546  0.0000E+00  0.0000E+00  0.0000E+00  0.0000E+00  0.0000E+00  0.0000E+00
