 1 - depth, m
 2 - temperature, C
 3 - salinity, kg/kg
 4 - turbulent kinetic energy, m**2/s**2
 5 - dissipation rate, m**2/s**3
 6 - kinematic heat conductance, m**2/s
 7 - modulus of horizontal velocity, m/s
 8 - Richardson number, n/d
   -0.000000    0.00000  0.0000E+00  0.4702E-13  0.1132E-15  0.1000E-09  0.0000E+00  0.1514E+17
   -0.034997    0.23453  0.0000E+00  0.4702E-13  0.1132E-15  0.1000E-09  0.0000E+00  0.1402E+17
   -0.069995    0.46656  0.0000E+00  0.4702E-13  0.1132E-15  0.1000E-09  0.0000E+00  0.1295E+17
   -0.104993    0.69618  0.0000E+00  0.4702E-13  0.1132E-15  0.1000E-09  0.0000E+00  0.1179E+17
   -0.139991    0.92104  0.0000E+00  0.4702E-13  0.1132E-15  0.1000E-09  0.0000E+00  0.1062E+17
   -0.174989    1.13976  0.0000E+00  0.2076E-12  0.1132E-15  0.1000E-09  0.0000E+00  0.9537E+16
   -0.209988    1.35231  0.0000E+00  0.5596E-12  0.1181E-15  0.1000E-09  0.0000E+00  0.8520E+16
   -0.244987    1.55860  0.0000E+00  0.1116E-11  0.1603E-15  0.1000E-09  0.0000E+00  0.7569E+16
   -0.279986    1.75854  0.0000E+00  0.1953E-11  0.2392E-15  0.1000E-09  0.0000E+00  0.6684E+16
   -0.314986    1.95203  0.0000E+00  0.3227E-11  0.3672E-15  0.1000E-09  0.0000E+00  0.5860E+16
   -0.349985    2.13886  0.0000E+00  0.5202E-11  0.5691E-15  0.1000E-09  0.0000E+00  0.5091E+16
   -0.384985    2.31866  0.0000E+00  0.8271E-11  0.8825E-15  0.1000E-09  0.0000E+00  0.4378E+16
   -0.419985    2.49097  0.0000E+00  0.1301E-10  0.1362E-14  0.1000E-09  0.0000E+00  0.3748E+16
   -0.454985    2.65657  0.0000E+00  0.2031E-10  0.2093E-14  0.1000E-09  0.0000E+00  0.3188E+16
   -0.489985    2.81617  0.0000E+00  0.3158E-10  0.3206E-14  0.1000E-09  0.0000E+00  0.2670E+16
   -0.524986    2.96937  0.0000E+00  0.5084E-10  0.5082E-14  0.1000E-09  0.0000E+00  0.2187E+16
   -0.559986    3.11504  0.0000E+00  0.8565E-10  0.8430E-14  0.1000E-09  0.0000E+00  0.1723E+16
   -0.594987    3.25017  0.0000E+00  0.1530E-09  0.1483E-13  0.1000E-09  0.0000E+00  0.1306E+16
   -0.629987    3.37236  0.0000E+00  0.2528E-09  0.2419E-13  0.1000E-09  0.0000E+00  0.1006E+16
   -0.664988    3.48672  0.0000E+00  0.3980E-09  0.3761E-13  0.1304E-09  0.0000E+00  0.7479E+15
   -0.699988    3.59288  0.0000E+00  0.6136E-09  0.5724E-13  0.2811E-09  0.0000E+00  0.5284E+15
   -0.734989    3.69019  0.0000E+00  0.9392E-09  0.8646E-13  0.6355E-09  0.0000E+00  0.3534E+15
   -0.769990    3.77957  0.0000E+00  0.1432E-08  0.1301E-12  0.1548E-08  0.0000E+00  0.2187E+15
   -0.804990    3.86428  0.0000E+00  0.2175E-08  0.1950E-12  0.5019E-08  0.0000E+00  0.1021E+15
   -0.839991    3.94299  0.0000E+00  0.3226E-08  0.2860E-12  0.6274E-07  0.0000E+00  0.1415E+14
   -0.874991    3.99773  0.0000E+00  0.3579E-08  0.3187E-12  0.1698E-04  0.0000E+00 -0.1158E+12
   -0.909991    3.99836  0.0000E+00  0.3751E-08  0.3368E-12  0.1787E-04  0.0000E+00 -0.1155E+12
   -0.944991    3.99895  0.0000E+00  0.3895E-08  0.3544E-12  0.1816E-04  0.0000E+00 -0.1188E+12
   -0.979992    3.99954  0.0000E+00  0.4021E-08  0.3723E-12  0.1834E-04  0.0000E+00 -0.1225E+12
   -1.014992    4.00012  0.0000E+00  0.4133E-08  0.3918E-12  0.1836E-04  0.0000E+00 -0.1275E+12
   -1.049991    4.00070  0.0000E+00  0.4235E-08  0.4141E-12  0.1818E-04  0.0000E+00 -0.1340E+12
   -1.084991    4.00128  0.0000E+00  0.4330E-08  0.4411E-12  0.1780E-04  0.0000E+00 -0.1435E+12
   -1.119990    4.00188  0.0000E+00  0.4414E-08  0.4744E-12  0.1669E-04  0.0000E+00 -0.1603E+12
   -1.154990    4.00252  0.0000E+00  0.4482E-08  0.5158E-12  0.1504E-04  0.0000E+00 -0.1873E+12
   -1.189989    4.00324  0.0000E+00  0.4530E-08  0.5691E-12  0.1333E-04  0.0000E+00 -0.2248E+12
   -1.224987    4.00407  0.0000E+00  0.4554E-08  0.6477E-12  0.1147E-04  0.0000E+00 -0.2868E+12
   -1.259986    4.00507  0.0000E+00  0.4536E-08  0.7880E-12  0.9082E-05  0.0000E+00 -0.4222E+12
   -1.294984    4.00646  0.0000E+00  0.4393E-08  0.1165E-11  0.5321E-05  0.0000E+00 -0.9425E+12
   -1.329982    4.00925  0.0000E+00  0.3943E-08  0.2119E-11  0.1962E-05  0.0000E+00 -0.3412E+13
   -1.364979    4.01733  0.0000E+00  0.2959E-08  0.5246E-11  0.3736E-06  0.0000E+00 -0.3137E+14
   -1.399977    4.05680  0.0000E+00  0.0000E+00  0.0000E+00  0.0000E+00  0.0000E+00  0.0000E+00
