 1 - depth, m
 2 - temperature, C
 3 - salinity, kg/kg
 4 - turbulent kinetic energy, m**2/s**2
 5 - dissipation rate, m**2/s**3
 6 - kinematic heat conductance, m**2/s
 7 - modulus of horizontal velocity, m/s
 8 - Richardson number, n/d
   -0.000000   12.93710  0.0000E+00  0.3614E-03  0.5704E-03  0.7296E-04  0.2146E+00 -0.2265E-01
   -0.034998   12.98712  0.0000E+00  0.1943E-03  0.1712E-03  0.1316E-03  0.6669E-01 -0.1460E-01
   -0.069996   12.99997  0.0000E+00  0.1341E-03  0.6758E-04  0.1667E-03  0.4155E-01 -0.2827E-01
   -0.104994   13.00773  0.0000E+00  0.1063E-03  0.3936E-04  0.1716E-03  0.3276E-01 -0.1273E-01
   -0.139993   13.01196  0.0000E+00  0.8817E-04  0.2420E-04  0.1767E-03  0.2739E-01 -0.1524E-01
   -0.174992   13.01495  0.0000E+00  0.7487E-04  0.1519E-04  0.1845E-03  0.2330E-01 -0.2648E-01
   -0.209991   13.01753  0.0000E+00  0.6501E-04  0.9729E-05  0.1923E-03  0.1994E-01 -0.2510E-01
   -0.244991   13.01982  0.0000E+00  0.5737E-04  0.6313E-05  0.1989E-03  0.1709E-01 -0.2075E+00
   -0.279991   13.02191  0.0000E+00  0.5111E-04  0.4131E-05  0.2025E-03  0.1457E-01 -0.2169E-01
   -0.314991   13.02425  0.0000E+00  0.4548E-04  0.2734E-05  0.2137E-03  0.1203E-01  0.4291E+01
   -0.349991   13.02622  0.0000E+00  0.4078E-04  0.1842E-05  0.2229E-03  0.1018E-01  0.2941E+01
   -0.384991   13.02802  0.0000E+00  0.3682E-04  0.1269E-05  0.2311E-03  0.8681E-02  0.4402E+02
   -0.419991   13.02971  0.0000E+00  0.3351E-04  0.9028E-06  0.2369E-03  0.7428E-02  0.1683E+02
   -0.454992   13.03144  0.0000E+00  0.3068E-04  0.6688E-06  0.2413E-03  0.6264E-02  0.1204E+02
   -0.489993   13.03326  0.0000E+00  0.2821E-04  0.5197E-06  0.2477E-03  0.5171E-02  0.2100E+02
   -0.524994   13.03511  0.0000E+00  0.2586E-04  0.4159E-06  0.2619E-03  0.4203E-02  0.4762E+02
   -0.559995   13.03665  0.0000E+00  0.2356E-04  0.3370E-06  0.2806E-03  0.3494E-02 -0.1360E+03
   -0.594996   13.03777  0.0000E+00  0.2108E-04  0.2663E-06  0.2979E-03  0.3016E-02  0.1409E+04
   -0.629997   13.03816  0.0000E+00  0.1889E-04  0.2121E-06  0.3175E-03  0.2727E-02  0.1067E+04
   -0.664998   13.03897  0.0000E+00  0.1704E-04  0.1717E-06  0.3449E-03  0.2437E-02  0.4135E+03
   -0.699999   13.03979  0.0000E+00  0.1547E-04  0.1411E-06  0.3743E-03  0.2163E-02  0.2034E+04
   -0.735000   13.04059  0.0000E+00  0.1411E-04  0.1173E-06  0.4068E-03  0.1912E-02  0.6237E+03
   -0.770001   13.04133  0.0000E+00  0.1294E-04  0.9846E-07  0.4395E-03  0.1680E-02  0.3694E+03
   -0.805002   13.04203  0.0000E+00  0.1192E-04  0.8366E-07  0.4616E-03  0.1476E-02  0.6231E+03
   -0.840003   13.04269  0.0000E+00  0.1102E-04  0.7172E-07  0.4782E-03  0.1294E-02  0.1294E+03
   -0.875004   13.04333  0.0000E+00  0.1022E-04  0.6189E-07  0.5064E-03  0.1125E-02  0.1033E+03
   -0.910005   13.04394  0.0000E+00  0.9517E-05  0.5393E-07  0.5230E-03  0.9761E-03  0.9792E+02
   -0.945006   13.04454  0.0000E+00  0.8892E-05  0.4758E-07  0.5215E-03  0.8407E-03  0.2102E+03
   -0.980006   13.04516  0.0000E+00  0.8335E-05  0.4256E-07  0.5151E-03  0.7165E-03  0.1275E+03
   -1.015007   13.04579  0.0000E+00  0.7838E-05  0.3872E-07  0.5058E-03  0.6033E-03  0.1623E+03
   -1.050007   13.04644  0.0000E+00  0.7393E-05  0.3592E-07  0.4912E-03  0.5056E-03  0.2266E+03
   -1.085007   13.04713  0.0000E+00  0.6997E-05  0.3414E-07  0.4717E-03  0.4237E-03  0.3218E+03
   -1.120007   13.04784  0.0000E+00  0.6641E-05  0.3348E-07  0.4468E-03  0.3570E-03  0.4698E+03
   -1.155007   13.04864  0.0000E+00  0.6305E-05  0.3445E-07  0.4214E-03  0.2991E-03  0.7330E+03
   -1.190006   13.04955  0.0000E+00  0.5952E-05  0.3833E-07  0.3781E-03  0.2460E-03  0.1135E+04
   -1.225006   13.05081  0.0000E+00  0.5542E-05  0.4718E-07  0.3465E-03  0.1919E-03  0.1089E+04
   -1.260005   13.05227  0.0000E+00  0.4991E-05  0.7053E-07  0.2782E-03  0.1448E-03  0.2016E+04
   -1.295003   13.05554  0.0000E+00  0.4267E-05  0.1215E-06  0.2436E-03  0.9924E-04  0.2810E+05
   -1.330002   13.05507  0.0000E+00  0.3405E-05  0.2791E-06  0.1346E-03  0.8603E-04  0.2182E+06
   -1.365000   13.06665  0.0000E+00  0.2306E-05  0.6134E-06  0.7622E-04  0.5342E-04 -0.3904E+09
   -1.399998   13.07432  0.0000E+00  0.0000E+00  0.0000E+00  0.0000E+00  0.9322E-04  0.0000E+00
