 1 - depth, m
 2 - temperature, C
 3 - salinity, kg/kg
 4 - turbulent kinetic energy, m**2/s**2
 5 - dissipation rate, m**2/s**3
 6 - kinematic heat conductance, m**2/s
 7 - modulus of horizontal velocity, m/s
 8 - Richardson number, n/d
   -0.000000    0.00000  0.0000E+00  0.1949E-07  0.6617E-10  0.2226E-08  0.0000E+00  0.7655E+17
   -0.034999    1.41096  0.0000E+00  0.1232E-06  0.4788E-10  0.2939E-08  0.0000E+00  0.4232E+17
   -0.069998    2.80504  0.0000E+00  0.3085E-06  0.5632E-10  0.1375E-07  0.0000E+00  0.1100E+17
   -0.104997    4.08761  0.0000E+00  0.3102E-06  0.5648E-10  0.5380E-03  0.0000E+00 -0.6123E+12
   -0.139997    4.08798  0.0000E+00  0.3110E-06  0.5656E-10  0.5306E-03  0.0000E+00 -0.5517E+12
   -0.174997    4.08835  0.0000E+00  0.3117E-06  0.5665E-10  0.5360E-03  0.0000E+00 -0.4716E+12
   -0.209997    4.08871  0.0000E+00  0.3123E-06  0.5674E-10  0.5458E-03  0.0000E+00 -0.5798E+12
   -0.244997    4.08905  0.0000E+00  0.3128E-06  0.5684E-10  0.5350E-03  0.0000E+00 -0.5185E+12
   -0.279998    4.08939  0.0000E+00  0.3133E-06  0.5695E-10  0.5421E-03  0.0000E+00 -0.4454E+12
   -0.314999    4.08972  0.0000E+00  0.3137E-06  0.5707E-10  0.5463E-03  0.0000E+00 -0.5455E+12
   -0.350000    4.09004  0.0000E+00  0.3141E-06  0.5720E-10  0.5449E-03  0.0000E+00 -0.4373E+12
   -0.385001    4.09035  0.0000E+00  0.3144E-06  0.5735E-10  0.5446E-03  0.0000E+00 -0.5337E+12
   -0.420002    4.09067  0.0000E+00  0.3147E-06  0.5752E-10  0.5463E-03  0.0000E+00 -0.4267E+12
   -0.455004    4.09097  0.0000E+00  0.3149E-06  0.5771E-10  0.5416E-03  0.0000E+00 -0.5186E+12
   -0.490005    4.09127  0.0000E+00  0.3151E-06  0.5793E-10  0.5336E-03  0.0000E+00 -0.4793E+12
   -0.525007    4.09157  0.0000E+00  0.3153E-06  0.5821E-10  0.5318E-03  0.0000E+00 -0.4744E+12
   -0.560009    4.09188  0.0000E+00  0.3154E-06  0.5859E-10  0.5284E-03  0.0000E+00 -0.4965E+12
   -0.595011    4.09218  0.0000E+00  0.3155E-06  0.5917E-10  0.5239E-03  0.0000E+00 -0.4872E+12
   -0.630013    4.09250  0.0000E+00  0.3156E-06  0.5983E-10  0.5191E-03  0.0000E+00 -0.4955E+12
   -0.665015    4.09281  0.0000E+00  0.3157E-06  0.6054E-10  0.5381E-03  0.0000E+00 -0.4281E+12
   -0.700017    4.09311  0.0000E+00  0.3157E-06  0.6130E-10  0.5005E-03  0.0000E+00 -0.5492E+12
   -0.735019    4.09343  0.0000E+00  0.3156E-06  0.6214E-10  0.5278E-03  0.0000E+00 -0.4360E+12
   -0.770021    4.09373  0.0000E+00  0.3155E-06  0.6307E-10  0.4836E-03  0.0000E+00 -0.5600E+12
   -0.805023    4.09405  0.0000E+00  0.3154E-06  0.6413E-10  0.4842E-03  0.0000E+00 -0.5124E+12
   -0.840025    4.09437  0.0000E+00  0.3152E-06  0.6534E-10  0.4760E-03  0.0000E+00 -0.5183E+12
   -0.875026    4.09469  0.0000E+00  0.3149E-06  0.6671E-10  0.4659E-03  0.0000E+00 -0.5224E+12
   -0.910028    4.09501  0.0000E+00  0.3146E-06  0.6823E-10  0.4908E-03  0.0000E+00 -0.4569E+12
   -0.945030    4.09531  0.0000E+00  0.3142E-06  0.6991E-10  0.4285E-03  0.0000E+00 -0.6009E+12
   -0.980031    4.09565  0.0000E+00  0.3137E-06  0.7185E-10  0.4298E-03  0.0000E+00 -0.5580E+12
   -1.015033    4.09599  0.0000E+00  0.3132E-06  0.7414E-10  0.4176E-03  0.0000E+00 -0.5721E+12
   -1.050034    4.09634  0.0000E+00  0.3126E-06  0.7687E-10  0.4014E-03  0.0000E+00 -0.5897E+12
   -1.085035    4.09669  0.0000E+00  0.3119E-06  0.8014E-10  0.4288E-03  0.0000E+00 -0.5174E+12
   -1.120036    4.09702  0.0000E+00  0.3111E-06  0.8409E-10  0.3454E-03  0.0000E+00 -0.7111E+12
   -1.155036    4.09742  0.0000E+00  0.3102E-06  0.8883E-10  0.3878E-03  0.0000E+00 -0.5741E+12
   -1.190037    4.09778  0.0000E+00  0.3092E-06  0.9498E-10  0.3034E-03  0.0000E+00 -0.7958E+12
   -1.225037    4.09823  0.0000E+00  0.3079E-06  0.1037E-09  0.2926E-03  0.0000E+00 -0.7965E+12
   -1.260037    4.09869  0.0000E+00  0.3058E-06  0.1188E-09  0.2553E-03  0.0000E+00 -0.9256E+12
   -1.295037    4.09923  0.0000E+00  0.3015E-06  0.1549E-09  0.2160E-03  0.0000E+00 -0.1085E+13
   -1.330036    4.09986  0.0000E+00  0.2907E-06  0.2549E-09  0.8418E-04  0.0000E+00 -0.2851E+13
   -1.365035    4.10157  0.0000E+00  0.1984E-06  0.1329E-08  0.3876E-05  0.0000E+00 -0.7024E+14
   -1.400034    4.13591  0.0000E+00  0.0000E+00  0.0000E+00  0.0000E+00  0.0000E+00  0.0000E+00
