 1 - depth, m
 2 - temperature, C
 3 - salinity, kg/kg
 4 - turbulent kinetic energy, m**2/s**2
 5 - dissipation rate, m**2/s**3
 6 - kinematic heat conductance, m**2/s
 7 - modulus of horizontal velocity, m/s
 8 - Richardson number, n/d
   -0.000000    0.00000  0.0000E+00  0.4702E-13  0.1132E-15  0.1000E-09  0.0000E+00  0.9646E+16
   -0.034998    0.14761  0.0000E+00  0.4702E-13  0.1132E-15  0.1000E-09  0.0000E+00  0.9494E+16
   -0.069996    0.29906  0.0000E+00  0.4702E-13  0.1132E-15  0.1000E-09  0.0000E+00  0.9309E+16
   -0.104995    0.45428  0.0000E+00  0.4702E-13  0.1132E-15  0.1000E-09  0.0000E+00  0.8920E+16
   -0.139994    0.61011  0.0000E+00  0.4702E-13  0.1132E-15  0.1000E-09  0.0000E+00  0.8428E+16
   -0.174993    0.76469  0.0000E+00  0.4702E-13  0.1132E-15  0.1000E-09  0.0000E+00  0.7940E+16
   -0.209992    0.91783  0.0000E+00  0.4702E-13  0.1132E-15  0.1000E-09  0.0000E+00  0.7462E+16
   -0.244992    1.06946  0.0000E+00  0.4702E-13  0.1132E-15  0.1000E-09  0.0000E+00  0.6992E+16
   -0.279992    1.21946  0.0000E+00  0.4702E-13  0.1132E-15  0.1000E-09  0.0000E+00  0.6533E+16
   -0.314992    1.36775  0.0000E+00  0.4702E-13  0.1132E-15  0.1000E-09  0.0000E+00  0.5994E+16
   -0.349993    1.51198  0.0000E+00  0.4702E-13  0.1132E-15  0.1000E-09  0.0000E+00  0.5461E+16
   -0.384993    1.65144  0.0000E+00  0.4702E-13  0.1132E-15  0.1000E-09  0.0000E+00  0.4943E+16
   -0.419994    1.78560  0.0000E+00  0.4702E-13  0.1132E-15  0.1000E-09  0.0000E+00  0.4538E+16
   -0.454995    1.91670  0.0000E+00  0.4702E-13  0.1132E-15  0.1000E-09  0.0000E+00  0.4202E+16
   -0.489996    2.04626  0.0000E+00  0.4702E-13  0.1132E-15  0.1000E-09  0.0000E+00  0.3846E+16
   -0.524997    2.17321  0.0000E+00  0.4702E-13  0.1132E-15  0.1000E-09  0.0000E+00  0.3355E+16
   -0.559998    2.29195  0.0000E+00  0.4702E-13  0.1132E-15  0.1000E-09  0.0000E+00  0.2757E+16
   -0.594999    2.39636  0.0000E+00  0.4702E-13  0.1132E-15  0.1000E-09  0.0000E+00  0.2152E+16
   -0.630000    2.48301  0.0000E+00  0.4702E-13  0.1132E-15  0.1000E-09  0.0000E+00  0.1954E+16
   -0.665001    2.56639  0.0000E+00  0.4702E-13  0.1132E-15  0.1000E-09  0.0000E+00  0.1765E+16
   -0.700003    2.64626  0.0000E+00  0.4702E-13  0.1132E-15  0.1000E-09  0.0000E+00  0.1577E+16
   -0.735004    2.72196  0.0000E+00  0.4702E-13  0.1132E-15  0.1000E-09  0.0000E+00  0.1414E+16
   -0.770005    2.79405  0.0000E+00  0.4702E-13  0.1132E-15  0.1000E-09  0.0000E+00  0.1315E+16
   -0.805007    2.86529  0.0000E+00  0.4702E-13  0.1132E-15  0.1000E-09  0.0000E+00  0.1220E+16
   -0.840008    2.93576  0.0000E+00  0.4702E-13  0.1132E-15  0.1000E-09  0.0000E+00  0.1127E+16
   -0.875009    3.00549  0.0000E+00  0.4702E-13  0.1132E-15  0.1000E-09  0.0000E+00  0.1036E+16
   -0.910010    3.07435  0.0000E+00  0.4702E-13  0.1132E-15  0.1000E-09  0.0000E+00  0.9529E+15
   -0.945011    3.14270  0.0000E+00  0.4702E-13  0.1132E-15  0.1000E-09  0.0000E+00  0.8721E+15
   -0.980012    3.21058  0.0000E+00  0.4702E-13  0.1132E-15  0.1000E-09  0.0000E+00  0.7918E+15
   -1.015012    3.27791  0.0000E+00  0.4702E-13  0.1132E-15  0.1000E-09  0.0000E+00  0.7039E+15
   -1.050013    3.34372  0.0000E+00  0.4702E-13  0.1132E-15  0.1000E-09  0.0000E+00  0.6201E+15
   -1.085013    3.40794  0.0000E+00  0.4702E-13  0.1132E-15  0.1000E-09  0.0000E+00  0.5643E+15
   -1.120013    3.47339  0.0000E+00  0.4702E-13  0.1132E-15  0.1000E-09  0.0000E+00  0.5076E+15
   -1.155013    3.54047  0.0000E+00  0.7428E-13  0.1238E-15  0.1000E-09  0.0000E+00  0.4474E+15
   -1.190013    3.60945  0.0000E+00  0.3151E-12  0.4591E-15  0.1000E-09  0.0000E+00  0.3829E+15
   -1.225012    3.68069  0.0000E+00  0.1457E-11  0.2105E-14  0.1000E-09  0.0000E+00  0.3140E+15
   -1.260012    3.75506  0.0000E+00  0.7178E-11  0.1043E-13  0.1035E-09  0.0000E+00  0.2405E+15
   -1.295011    3.83510  0.0000E+00  0.4133E-10  0.6130E-13  0.7987E-09  0.0000E+00  0.1506E+15
   -1.330009    3.92578  0.0000E+00  0.1915E-09  0.2981E-12  0.1085E-07  0.0000E+00  0.2015E+14
   -1.365007    4.01958  0.0000E+00  0.7790E-09  0.1549E-11  0.1446E-06  0.0000E+00 -0.5689E+14
   -1.400005    4.07791  0.0000E+00  0.0000E+00  0.0000E+00  0.0000E+00  0.0000E+00  0.0000E+00
