 1 - depth, m
 2 - temperature, C
 3 - salinity, kg/kg
 4 - turbulent kinetic energy, m**2/s**2
 5 - dissipation rate, m**2/s**3
 6 - kinematic heat conductance, m**2/s
 7 - modulus of horizontal velocity, m/s
 8 - Richardson number, n/d
   -0.000000    0.00000  0.0000E+00  0.2080E-08  0.4084E-11  0.3096E-09  0.0000E+00  0.3311E+17
   -0.034998    0.53518  0.0000E+00  0.8811E-08  0.3356E-11  0.3125E-09  0.0000E+00  0.2708E+17
   -0.069997    1.05031  0.0000E+00  0.2136E-07  0.4620E-11  0.5218E-09  0.0000E+00  0.2240E+17
   -0.104995    1.56430  0.0000E+00  0.4207E-07  0.7507E-11  0.1027E-08  0.0000E+00  0.1864E+17
   -0.139994    2.10517  0.0000E+00  0.7607E-07  0.1260E-10  0.2242E-08  0.0000E+00  0.1478E+17
   -0.174994    2.70262  0.0000E+00  0.1318E-06  0.2105E-10  0.7732E-08  0.0000E+00  0.9529E+16
   -0.209993    3.36853  0.0000E+00  0.1920E-06  0.3017E-10  0.8251E-04  0.0000E+00  0.3774E+16
   -0.244993    3.88316  0.0000E+00  0.2198E-06  0.3428E-10  0.2940E-03  0.0000E+00  0.5708E+15
   -0.279993    4.08233  0.0000E+00  0.2205E-06  0.3441E-10  0.4407E-03  0.0000E+00 -0.4369E+12
   -0.314994    4.08261  0.0000E+00  0.2210E-06  0.3452E-10  0.4395E-03  0.0000E+00 -0.4200E+12
   -0.349994    4.08289  0.0000E+00  0.2214E-06  0.3463E-10  0.4405E-03  0.0000E+00 -0.4161E+12
   -0.384995    4.08317  0.0000E+00  0.2218E-06  0.3475E-10  0.4402E-03  0.0000E+00 -0.4266E+12
   -0.419995    4.08345  0.0000E+00  0.2222E-06  0.3489E-10  0.4398E-03  0.0000E+00 -0.4168E+12
   -0.454996    4.08373  0.0000E+00  0.2225E-06  0.3503E-10  0.4395E-03  0.0000E+00 -0.4207E+12
   -0.489998    4.08401  0.0000E+00  0.2228E-06  0.3519E-10  0.4378E-03  0.0000E+00 -0.4230E+12
   -0.524999    4.08428  0.0000E+00  0.2230E-06  0.3539E-10  0.4366E-03  0.0000E+00 -0.4229E+12
   -0.560000    4.08456  0.0000E+00  0.2233E-06  0.3565E-10  0.4343E-03  0.0000E+00 -0.4396E+12
   -0.595001    4.08483  0.0000E+00  0.2236E-06  0.3604E-10  0.4309E-03  0.0000E+00 -0.4224E+12
   -0.630003    4.08511  0.0000E+00  0.2238E-06  0.3649E-10  0.4272E-03  0.0000E+00 -0.4276E+12
   -0.665004    4.08539  0.0000E+00  0.2241E-06  0.3697E-10  0.4227E-03  0.0000E+00 -0.4310E+12
   -0.700006    4.08567  0.0000E+00  0.2243E-06  0.3749E-10  0.4178E-03  0.0000E+00 -0.4373E+12
   -0.735007    4.08595  0.0000E+00  0.2244E-06  0.3806E-10  0.4123E-03  0.0000E+00 -0.4426E+12
   -0.770008    4.08624  0.0000E+00  0.2245E-06  0.3870E-10  0.4062E-03  0.0000E+00 -0.4477E+12
   -0.805010    4.08653  0.0000E+00  0.2246E-06  0.3940E-10  0.3996E-03  0.0000E+00 -0.4542E+12
   -0.840011    4.08682  0.0000E+00  0.2246E-06  0.4018E-10  0.3919E-03  0.0000E+00 -0.4619E+12
   -0.875012    4.08711  0.0000E+00  0.2246E-06  0.4106E-10  0.3825E-03  0.0000E+00 -0.4716E+12
   -0.910014    4.08741  0.0000E+00  0.2245E-06  0.4206E-10  0.3732E-03  0.0000E+00 -0.4812E+12
   -0.945015    4.08772  0.0000E+00  0.2244E-06  0.4318E-10  0.3630E-03  0.0000E+00 -0.4935E+12
   -0.980016    4.08803  0.0000E+00  0.2242E-06  0.4445E-10  0.3563E-03  0.0000E+00 -0.4990E+12
   -1.015016    4.08834  0.0000E+00  0.2240E-06  0.4591E-10  0.3385E-03  0.0000E+00 -0.5303E+12
   -1.050017    4.08868  0.0000E+00  0.2237E-06  0.4766E-10  0.3317E-03  0.0000E+00 -0.5370E+12
   -1.085018    4.08901  0.0000E+00  0.2233E-06  0.4977E-10  0.3257E-03  0.0000E+00 -0.5285E+12
   -1.120018    4.08935  0.0000E+00  0.2228E-06  0.5232E-10  0.2967E-03  0.0000E+00 -0.6139E+12
   -1.155018    4.08972  0.0000E+00  0.2222E-06  0.5541E-10  0.3031E-03  0.0000E+00 -0.5665E+12
   -1.190018    4.09008  0.0000E+00  0.2216E-06  0.5930E-10  0.2592E-03  0.0000E+00 -0.7219E+12
   -1.225017    4.09052  0.0000E+00  0.2206E-06  0.6487E-10  0.2365E-03  0.0000E+00 -0.7757E+12
   -1.260017    4.09099  0.0000E+00  0.2192E-06  0.7447E-10  0.2064E-03  0.0000E+00 -0.9000E+12
   -1.295016    4.09153  0.0000E+00  0.2159E-06  0.9759E-10  0.1717E-03  0.0000E+00 -0.1085E+13
   -1.330015    4.09219  0.0000E+00  0.2077E-06  0.1615E-09  0.6658E-04  0.0000E+00 -0.2885E+13
   -1.365013    4.09395  0.0000E+00  0.1426E-06  0.8050E-09  0.3362E-05  0.0000E+00 -0.6602E+14
   -1.400011    4.12795  0.0000E+00  0.0000E+00  0.0000E+00  0.0000E+00  0.0000E+00  0.0000E+00
