 1 - depth, m
 2 - temperature, C
 3 - salinity, kg/kg
 4 - turbulent kinetic energy, m**2/s**2
 5 - dissipation rate, m**2/s**3
 6 - kinematic heat conductance, m**2/s
 7 - modulus of horizontal velocity, m/s
 8 - Richardson number, n/d
   -0.000000    8.53706  0.0000E+00  0.2246E-03  0.5150E-03  0.5500E-04  0.1292E+00 -0.2126E+01
   -0.034998    8.63644  0.0000E+00  0.1174E-03  0.2258E-03  0.8513E-04  0.4178E-01  0.1607E+03
   -0.069996    8.66359  0.0000E+00  0.7731E-04  0.5645E-04  0.1240E-03  0.2551E-01  0.1527E+02
   -0.104994    8.67860  0.0000E+00  0.6063E-04  0.3053E-04  0.1430E-03  0.1981E-01  0.1157E+02
   -0.139993    8.68758  0.0000E+00  0.5033E-04  0.1897E-04  0.1607E-03  0.1629E-01  0.1133E+02
   -0.174992    8.69397  0.0000E+00  0.4286E-04  0.1197E-04  0.1804E-03  0.1371E-01  0.5068E+02
   -0.209991    8.69912  0.0000E+00  0.3730E-04  0.7568E-05  0.2012E-03  0.1165E-01  0.9150E+01
   -0.244990    8.70331  0.0000E+00  0.3294E-04  0.4712E-05  0.2215E-03  0.9951E-02  0.6050E+01
   -0.279990    8.70702  0.0000E+00  0.2940E-04  0.2912E-05  0.2397E-03  0.8458E-02  0.2260E+02
   -0.314990    8.71069  0.0000E+00  0.2628E-04  0.1811E-05  0.2630E-03  0.7006E-02  0.1413E+02
   -0.349990    8.71383  0.0000E+00  0.2367E-04  0.1148E-05  0.2846E-03  0.5898E-02  0.1478E+02
   -0.384990    8.71670  0.0000E+00  0.2147E-04  0.7525E-06  0.3030E-03  0.4994E-02  0.9949E+01
   -0.419991    8.71935  0.0000E+00  0.1965E-04  0.5171E-06  0.3204E-03  0.4238E-02  0.6830E+01
   -0.454991    8.72190  0.0000E+00  0.1810E-04  0.3751E-06  0.3330E-03  0.3549E-02  0.4479E+02
   -0.489992    8.72445  0.0000E+00  0.1675E-04  0.2881E-06  0.3489E-03  0.2909E-02  0.1639E+02
   -0.524993    8.72698  0.0000E+00  0.1547E-04  0.2294E-06  0.3773E-03  0.2344E-02  0.1612E+02
   -0.559994    8.72909  0.0000E+00  0.1423E-04  0.1857E-06  0.4143E-03  0.1930E-02 -0.3889E+03
   -0.594995    8.73073  0.0000E+00  0.1291E-04  0.1472E-06  0.4427E-03  0.1652E-02  0.4279E+03
   -0.629996    8.73171  0.0000E+00  0.1178E-04  0.1182E-06  0.4644E-03  0.1488E-02  0.1676E+04
   -0.664997    8.73300  0.0000E+00  0.1083E-04  0.9649E-07  0.4930E-03  0.1331E-02  0.4734E+04
   -0.699998    8.73424  0.0000E+00  0.1001E-04  0.7999E-07  0.5147E-03  0.1181E-02  0.1147E+03
   -0.734999    8.73539  0.0000E+00  0.9305E-05  0.6701E-07  0.5300E-03  0.1043E-02  0.7641E+02
   -0.770000    8.73649  0.0000E+00  0.8688E-05  0.5682E-07  0.5409E-03  0.9161E-03  0.1194E+03
   -0.805001    8.73754  0.0000E+00  0.8151E-05  0.4868E-07  0.5485E-03  0.8026E-03  0.7275E+02
   -0.840002    8.73856  0.0000E+00  0.7683E-05  0.4214E-07  0.5540E-03  0.7003E-03  0.2817E+03
   -0.875003    8.73955  0.0000E+00  0.7272E-05  0.3690E-07  0.5568E-03  0.6091E-03  0.9991E+02
   -0.910003    8.74054  0.0000E+00  0.6906E-05  0.3268E-07  0.5560E-03  0.5286E-03  0.1472E+03
   -0.945004    8.74152  0.0000E+00  0.6583E-05  0.2933E-07  0.5526E-03  0.4557E-03  0.1375E+03
   -0.980005    8.74253  0.0000E+00  0.6296E-05  0.2674E-07  0.5461E-03  0.3896E-03  0.1525E+03
   -1.015005    8.74354  0.0000E+00  0.6038E-05  0.2479E-07  0.5367E-03  0.3298E-03  0.2031E+03
   -1.050005    8.74458  0.0000E+00  0.5804E-05  0.2341E-07  0.5227E-03  0.2782E-03  0.2686E+03
   -1.085005    8.74565  0.0000E+00  0.5590E-05  0.2260E-07  0.5042E-03  0.2348E-03  0.3369E+03
   -1.120005    8.74676  0.0000E+00  0.5392E-05  0.2241E-07  0.4804E-03  0.1990E-03  0.4913E+03
   -1.155005    8.74796  0.0000E+00  0.5200E-05  0.2318E-07  0.4538E-03  0.1677E-03  0.5950E+03
   -1.190004    8.74929  0.0000E+00  0.4997E-05  0.2548E-07  0.4156E-03  0.1384E-03  0.8863E+03
   -1.225004    8.75090  0.0000E+00  0.4758E-05  0.3043E-07  0.3815E-03  0.1093E-03  0.1055E+04
   -1.260003    8.75274  0.0000E+00  0.4432E-05  0.4307E-07  0.3023E-03  0.8307E-04  0.3535E+03
   -1.295001    8.75608  0.0000E+00  0.3972E-05  0.7153E-07  0.2851E-03  0.5851E-04  0.8168E+04
   -1.330000    8.75687  0.0000E+00  0.3299E-05  0.1597E-06  0.1270E-03  0.5071E-04 -0.3395E+06
   -1.364998    8.77172  0.0000E+00  0.2177E-05  0.3562E-06  0.5944E-04  0.3179E-04 -0.1148E+09
   -1.399995    8.78421  0.0000E+00  0.0000E+00  0.0000E+00  0.0000E+00  0.5260E-04  0.0000E+00
