 1 - depth, m
 2 - temperature, C
 3 - salinity, kg/kg
 4 - turbulent kinetic energy, m**2/s**2
 5 - dissipation rate, m**2/s**3
 6 - kinematic heat conductance, m**2/s
 7 - modulus of horizontal velocity, m/s
 8 - Richardson number, n/d
   -0.000000    0.00000  0.0000E+00  0.4702E-13  0.1132E-15  0.1000E-09  0.0000E+00  0.8749E+16
   -0.034998    0.13364  0.0000E+00  0.4702E-13  0.1132E-15  0.1000E-09  0.0000E+00  0.8614E+16
   -0.069996    0.27022  0.0000E+00  0.4702E-13  0.1132E-15  0.1000E-09  0.0000E+00  0.8460E+16
   -0.104995    0.40977  0.0000E+00  0.4702E-13  0.1132E-15  0.1000E-09  0.0000E+00  0.8156E+16
   -0.139993    0.55000  0.0000E+00  0.4702E-13  0.1132E-15  0.1000E-09  0.0000E+00  0.7774E+16
   -0.174993    0.68955  0.0000E+00  0.4702E-13  0.1132E-15  0.1000E-09  0.0000E+00  0.7392E+16
   -0.209992    0.82830  0.0000E+00  0.4702E-13  0.1132E-15  0.1000E-09  0.0000E+00  0.7013E+16
   -0.244991    0.96613  0.0000E+00  0.4702E-13  0.1132E-15  0.1000E-09  0.0000E+00  0.6636E+16
   -0.279991    1.10294  0.0000E+00  0.4702E-13  0.1132E-15  0.1000E-09  0.0000E+00  0.6264E+16
   -0.314991    1.23864  0.0000E+00  0.4702E-13  0.1132E-15  0.1000E-09  0.0000E+00  0.5864E+16
   -0.349992    1.37235  0.0000E+00  0.4702E-13  0.1132E-15  0.1000E-09  0.0000E+00  0.5465E+16
   -0.384992    1.50373  0.0000E+00  0.4702E-13  0.1132E-15  0.1000E-09  0.0000E+00  0.5073E+16
   -0.419993    1.63253  0.0000E+00  0.4702E-13  0.1132E-15  0.1000E-09  0.0000E+00  0.4728E+16
   -0.454993    1.75953  0.0000E+00  0.4702E-13  0.1132E-15  0.1000E-09  0.0000E+00  0.4414E+16
   -0.489994    1.88530  0.0000E+00  0.4702E-13  0.1132E-15  0.1000E-09  0.0000E+00  0.4094E+16
   -0.524995    2.00936  0.0000E+00  0.4702E-13  0.1132E-15  0.1000E-09  0.0000E+00  0.3723E+16
   -0.559996    2.12959  0.0000E+00  0.4702E-13  0.1132E-15  0.1000E-09  0.0000E+00  0.3304E+16
   -0.594997    2.24344  0.0000E+00  0.4702E-13  0.1132E-15  0.1000E-09  0.0000E+00  0.2879E+16
   -0.629998    2.34930  0.0000E+00  0.4702E-13  0.1132E-15  0.1000E-09  0.0000E+00  0.2636E+16
   -0.664999    2.45281  0.0000E+00  0.4702E-13  0.1132E-15  0.1000E-09  0.0000E+00  0.2401E+16
   -0.700001    2.55374  0.0000E+00  0.4702E-13  0.1132E-15  0.1000E-09  0.0000E+00  0.2170E+16
   -0.735002    2.65168  0.0000E+00  0.4702E-13  0.1132E-15  0.1000E-09  0.0000E+00  0.1960E+16
   -0.770003    2.74693  0.0000E+00  0.4702E-13  0.1132E-15  0.1000E-09  0.0000E+00  0.1790E+16
   -0.805004    2.84097  0.0000E+00  0.4702E-13  0.1132E-15  0.1000E-09  0.0000E+00  0.1625E+16
   -0.840005    2.93374  0.0000E+00  0.4702E-13  0.1132E-15  0.1000E-09  0.0000E+00  0.1465E+16
   -0.875006    3.02512  0.0000E+00  0.4702E-13  0.1132E-15  0.1000E-09  0.0000E+00  0.1308E+16
   -0.910007    3.11495  0.0000E+00  0.4702E-13  0.1132E-15  0.1000E-09  0.0000E+00  0.1159E+16
   -0.945008    3.20321  0.0000E+00  0.4702E-13  0.1132E-15  0.1000E-09  0.0000E+00  0.1015E+16
   -0.980009    3.28980  0.0000E+00  0.4702E-13  0.1132E-15  0.1000E-09  0.0000E+00  0.8770E+15
   -1.015009    3.37449  0.0000E+00  0.7165E-13  0.1132E-15  0.1000E-09  0.0000E+00  0.7409E+15
   -1.050010    3.45662  0.0000E+00  0.2914E-12  0.2525E-15  0.1000E-09  0.0000E+00  0.6147E+15
   -1.085010    3.53609  0.0000E+00  0.9813E-12  0.7742E-15  0.1000E-09  0.0000E+00  0.5145E+15
   -1.120010    3.61560  0.0000E+00  0.3095E-11  0.2363E-14  0.1000E-09  0.0000E+00  0.4141E+15
   -1.155010    3.69504  0.0000E+00  0.9574E-11  0.7131E-14  0.1000E-09  0.0000E+00  0.3145E+15
   -1.190009    3.77452  0.0000E+00  0.2948E-10  0.2149E-13  0.2447E-09  0.0000E+00  0.2153E+15
   -1.225009    3.85424  0.0000E+00  0.9488E-10  0.6795E-13  0.1380E-08  0.0000E+00  0.1158E+15
   -1.260008    3.93456  0.0000E+00  0.3209E-09  0.2284E-12  0.2084E-07  0.0000E+00  0.1729E+14
   -1.295007    4.00805  0.0000E+00  0.1119E-08  0.8609E-12  0.5711E-06  0.0000E+00 -0.8770E+13
   -1.330005    4.02622  0.0000E+00  0.1641E-08  0.1677E-11  0.5743E-06  0.0000E+00 -0.1483E+14
   -1.365003    4.04536  0.0000E+00  0.1702E-08  0.3320E-11  0.2514E-06  0.0000E+00 -0.4754E+14
   -1.400001    4.08411  0.0000E+00  0.0000E+00  0.0000E+00  0.0000E+00  0.0000E+00  0.0000E+00
