 1 - depth, m
 2 - temperature, C
 3 - salinity, kg/kg
 4 - turbulent kinetic energy, m**2/s**2
 5 - dissipation rate, m**2/s**3
 6 - kinematic heat conductance, m**2/s
 7 - modulus of horizontal velocity, m/s
 8 - Richardson number, n/d
   -0.000000    0.00000  0.0000E+00  0.2009E-04  0.1796E-05  0.2079E-04  0.2947E-01  0.2716E-02
   -0.034999    0.01053  0.0000E+00  0.1594E-04  0.6673E-06  0.3648E-04  0.1874E-01  0.7195E-02
   -0.069998    0.01636  0.0000E+00  0.1320E-04  0.3563E-06  0.4652E-04  0.1426E-01  0.1350E-01
   -0.104997    0.02102  0.0000E+00  0.1110E-04  0.2196E-06  0.5266E-04  0.1135E-01  0.2236E-01
   -0.139997    0.02517  0.0000E+00  0.9388E-05  0.1463E-06  0.5575E-04  0.9217E-02  0.3499E-01
   -0.174997    0.02912  0.0000E+00  0.7965E-05  0.1024E-06  0.5629E-04  0.7555E-02  0.5315E-01
   -0.209997    0.03307  0.0000E+00  0.6765E-05  0.7441E-07  0.5438E-04  0.6201E-02  0.7780E-01
   -0.244997    0.03723  0.0000E+00  0.5723E-05  0.5549E-07  0.4996E-04  0.5050E-02  0.1094E+00
   -0.279998    0.04185  0.0000E+00  0.4746E-05  0.4157E-07  0.4203E-04  0.4020E-02  0.1401E+00
   -0.314999    0.04762  0.0000E+00  0.3690E-05  0.2938E-07  0.3520E-04  0.3005E-02  0.3447E+00
   -0.350000    0.05531  0.0000E+00  0.2701E-05  0.1986E-07  0.2526E-04  0.2235E-02  0.1273E+01
   -0.385001    0.08200  0.0000E+00  0.1793E-05  0.1241E-07  0.1527E-04  0.1596E-02  0.2110E+02
   -0.420003    0.29945  0.0000E+00  0.1085E-05  0.7221E-08  0.7334E-05  0.1048E-02  0.4928E+03
   -0.455004    0.75510  0.0000E+00  0.5643E-06  0.3692E-08  0.2277E-05  0.6089E-03  0.1141E+05
   -0.490006    1.42144  0.0000E+00  0.2041E-06  0.1325E-08  0.1505E-06  0.2472E-03  0.4864E+06
   -0.525008    2.26829  0.0000E+00  0.4313E-07  0.2052E-09  0.1032E-07  0.2787E-04  0.8501E+08
   -0.560010    3.16556  0.0000E+00  0.3885E-07  0.3001E-10  0.1453E-07  0.1301E-05  0.8889E+10
   -0.595011    3.87599  0.0000E+00  0.4187E-07  0.1326E-10  0.5944E-04  0.6013E-07  0.1095E+12
   -0.630013    4.03331  0.0000E+00  0.4576E-07  0.1181E-10  0.6534E-04  0.7422E-08  0.7033E+11
   -0.665016    4.03595  0.0000E+00  0.4748E-07  0.1161E-10  0.6936E-04  0.3233E-08  0.8966E+11
   -0.700018    4.03770  0.0000E+00  0.4885E-07  0.1155E-10  0.7249E-04  0.1660E-08  0.1045E+12
   -0.735020    4.03906  0.0000E+00  0.5002E-07  0.1157E-10  0.7495E-04  0.9206E-09  0.1111E+12
   -0.770022    4.04019  0.0000E+00  0.5108E-07  0.1165E-10  0.7716E-04  0.5448E-09  0.9333E+11
   -0.805024    4.04125  0.0000E+00  0.5205E-07  0.1177E-10  0.7906E-04  0.3454E-09  0.6995E+11
   -0.840026    4.04226  0.0000E+00  0.5294E-07  0.1193E-10  0.8049E-04  0.2231E-09  0.3045E+11
   -0.875027    4.04324  0.0000E+00  0.5377E-07  0.1211E-10  0.8144E-04  0.1461E-09 -0.4060E+11
   -0.910029    4.04420  0.0000E+00  0.5452E-07  0.1233E-10  0.8199E-04  0.9797E-10 -0.1376E+12
   -0.945031    4.04514  0.0000E+00  0.5519E-07  0.1258E-10  0.8223E-04  0.6574E-10 -0.2604E+12
   -0.980032    4.04609  0.0000E+00  0.5579E-07  0.1287E-10  0.8203E-04  0.4357E-10 -0.4026E+12
   -1.015034    4.04704  0.0000E+00  0.5631E-07  0.1320E-10  0.8146E-04  0.2798E-10 -0.5864E+12
   -1.050035    4.04801  0.0000E+00  0.5675E-07  0.1359E-10  0.8039E-04  0.1777E-10 -0.7820E+12
   -1.085036    4.04901  0.0000E+00  0.5711E-07  0.1406E-10  0.7886E-04  0.1123E-10 -0.8832E+12
   -1.120037    4.05002  0.0000E+00  0.5737E-07  0.1462E-10  0.7679E-04  0.7206E-11 -0.9661E+12
   -1.155038    4.05104  0.0000E+00  0.5753E-07  0.1530E-10  0.7417E-04  0.4476E-11 -0.1038E+13
   -1.190038    4.05210  0.0000E+00  0.5755E-07  0.1616E-10  0.7075E-04  0.2620E-11 -0.1107E+13
   -1.225038    4.05321  0.0000E+00  0.5742E-07  0.1737E-10  0.6614E-04  0.1379E-11 -0.1209E+13
   -1.260038    4.05439  0.0000E+00  0.5704E-07  0.1941E-10  0.5890E-04  0.6647E-12 -0.1409E+13
   -1.295038    4.05574  0.0000E+00  0.5592E-07  0.2436E-10  0.4764E-04  0.3068E-12 -0.1860E+13
   -1.330037    4.05749  0.0000E+00  0.5291E-07  0.3777E-10  0.1815E-04  0.1619E-12 -0.5200E+13
   -1.365036    4.06217  0.0000E+00  0.3782E-07  0.1253E-09  0.1940E-05  0.5171E-13 -0.5981E+14
   -1.400035    4.10221  0.0000E+00  0.0000E+00  0.0000E+00  0.0000E+00  0.5159E-13  0.0000E+00
