 1 - depth, m
 2 - temperature, C
 3 - salinity, kg/kg
 4 - turbulent kinetic energy, m**2/s**2
 5 - dissipation rate, m**2/s**3
 6 - kinematic heat conductance, m**2/s
 7 - modulus of horizontal velocity, m/s
 8 - Richardson number, n/d
   -0.000000   -0.00146  0.0000E+00  0.2302E-03  0.2340E-03  0.6614E-04  0.1867E+00  0.4645E-02
   -0.034998    0.00830  0.0000E+00  0.1390E-03  0.8222E-04  0.1070E-03  0.6154E-01  0.1656E-01
   -0.069996    0.01366  0.0000E+00  0.9910E-04  0.2785E-04  0.1299E-03  0.3843E-01  0.1333E-01
   -0.104995    0.01677  0.0000E+00  0.8000E-04  0.1468E-04  0.1366E-03  0.3009E-01  0.5068E-02
   -0.139994    0.01905  0.0000E+00  0.6740E-04  0.8461E-05  0.1447E-03  0.2492E-01  0.4951E-02
   -0.174993    0.02092  0.0000E+00  0.5833E-04  0.5151E-05  0.1534E-03  0.2109E-01  0.7427E-02
   -0.209992    0.02253  0.0000E+00  0.5151E-04  0.3255E-05  0.1616E-03  0.1807E-01  0.8081E-02
   -0.244992    0.02400  0.0000E+00  0.4615E-04  0.2144E-05  0.1679E-03  0.1550E-01  0.1231E-01
   -0.279992    0.02542  0.0000E+00  0.4160E-04  0.1474E-05  0.1700E-03  0.1320E-01  0.1374E-01
   -0.314992    0.02693  0.0000E+00  0.3729E-04  0.1051E-05  0.1774E-03  0.1097E-01  0.3950E-01
   -0.349992    0.02831  0.0000E+00  0.3353E-04  0.7801E-06  0.1820E-03  0.9247E-02  0.2329E+00
   -0.384992    0.02966  0.0000E+00  0.3029E-04  0.6003E-06  0.1846E-03  0.7834E-02 -0.8181E+02
   -0.419993    0.03095  0.0000E+00  0.2751E-04  0.4768E-06  0.1830E-03  0.6645E-02  0.8208E+01
   -0.454994    0.03239  0.0000E+00  0.2505E-04  0.3884E-06  0.1792E-03  0.5553E-02  0.3606E+02
   -0.489995    0.03418  0.0000E+00  0.2282E-04  0.3228E-06  0.1760E-03  0.4527E-02  0.5927E+03
   -0.524996    0.03652  0.0000E+00  0.2064E-04  0.2693E-06  0.1808E-03  0.3606E-02  0.3764E+07
   -0.559997    0.03800  0.0000E+00  0.1851E-04  0.2239E-06  0.1857E-03  0.2935E-02  0.5564E+07
   -0.594998    0.03901  0.0000E+00  0.1621E-04  0.1802E-06  0.1839E-03  0.2494E-02  0.2024E+07
   -0.629999    0.03982  0.0000E+00  0.1416E-04  0.1447E-06  0.1721E-03  0.2232E-02  0.3165E+07
   -0.665000    0.04075  0.0000E+00  0.1239E-04  0.1169E-06  0.1604E-03  0.1981E-02 -0.1100E+09
   -0.700001    0.04179  0.0000E+00  0.1087E-04  0.9495E-07  0.1489E-03  0.1742E-02  0.1410E+08
   -0.735003    0.04297  0.0000E+00  0.9530E-05  0.7740E-07  0.1374E-03  0.1519E-02  0.9229E+07
   -0.770004    0.04428  0.0000E+00  0.8354E-05  0.6327E-07  0.1262E-03  0.1316E-02 -0.1594E+08
   -0.805005    0.04574  0.0000E+00  0.7313E-05  0.5182E-07  0.1148E-03  0.1134E-02  0.4958E+08
   -0.840006    0.04738  0.0000E+00  0.6393E-05  0.4253E-07  0.1034E-03  0.9697E-03 -0.1102E+08
   -0.875007    0.04923  0.0000E+00  0.5576E-05  0.3495E-07  0.9236E-04  0.8229E-03  0.5162E+09
   -0.910008    0.05128  0.0000E+00  0.4846E-05  0.2872E-07  0.8081E-04  0.6945E-03  0.9436E+08
   -0.945009    0.05375  0.0000E+00  0.4200E-05  0.2365E-07  0.6933E-04  0.5784E-03  0.2518E+09
   -0.980010    0.05700  0.0000E+00  0.3625E-05  0.1950E-07  0.5839E-04  0.4726E-03  0.4289E+10
   -1.015010    0.06202  0.0000E+00  0.3111E-05  0.1608E-07  0.4892E-04  0.3751E-03  0.1467E+12
   -1.050011    0.06858  0.0000E+00  0.2653E-05  0.1324E-07  0.4021E-04  0.2920E-03  0.3601E+13
   -1.085011    0.07644  0.0000E+00  0.2247E-05  0.1089E-07  0.3229E-04  0.2244E-03  0.3034E+13
   -1.120011    0.08840  0.0000E+00  0.1875E-05  0.8887E-08  0.2453E-04  0.1721E-03  0.6194E+14
   -1.155011    0.12320  0.0000E+00  0.1527E-05  0.7161E-08  0.1834E-04  0.1263E-03  0.3176E+15
   -1.190011    0.22564  0.0000E+00  0.1227E-05  0.5723E-08  0.1346E-04  0.8697E-04  0.1068E+16
   -1.225010    0.42077  0.0000E+00  0.9743E-06  0.4521E-08  0.9625E-05  0.5418E-04  0.2960E+16
   -1.260009    0.68941  0.0000E+00  0.7753E-06  0.3567E-08  0.5811E-05  0.3204E-04  0.4254E+16
   -1.295008    0.94701  0.0000E+00  0.5777E-06  0.2676E-08  0.2838E-05  0.1804E-04  0.1906E+16
   -1.330007    1.06968  0.0000E+00  0.3082E-06  0.1688E-08  0.2773E-06  0.9721E-05  0.6326E+16
   -1.365005    1.39966  0.0000E+00  0.9473E-07  0.1723E-08  0.1421E-06  0.2654E-05  0.8476E+16
   -1.400003    1.82938  0.0000E+00  0.0000E+00  0.0000E+00  0.0000E+00  0.2702E-05  0.0000E+00
