 1 - depth, m
 2 - temperature, C
 3 - salinity, kg/kg
 4 - turbulent kinetic energy, m**2/s**2
 5 - dissipation rate, m**2/s**3
 6 - kinematic heat conductance, m**2/s
 7 - modulus of horizontal velocity, m/s
 8 - Richardson number, n/d
   -0.000000    0.00000  0.0000E+00  0.1031E-04  0.6158E-06  0.1601E-04  0.2049E-01  0.4462E-02
   -0.034998    0.00951  0.0000E+00  0.8280E-05  0.2452E-06  0.2576E-04  0.1343E-01  0.1136E-01
   -0.069996    0.01534  0.0000E+00  0.6597E-05  0.1294E-06  0.3074E-04  0.9972E-02  0.2232E-01
   -0.104995    0.02015  0.0000E+00  0.5219E-05  0.7624E-07  0.3219E-04  0.7731E-02  0.3949E-01
   -0.139994    0.02465  0.0000E+00  0.4082E-05  0.4735E-07  0.3094E-04  0.6102E-02  0.6703E-01
   -0.174993    0.02921  0.0000E+00  0.3141E-05  0.3020E-07  0.2755E-04  0.4841E-02  0.1134E+00
   -0.209992    0.03423  0.0000E+00  0.2365E-05  0.1952E-07  0.2240E-04  0.3825E-02  0.1921E+00
   -0.244992    0.04030  0.0000E+00  0.1721E-05  0.1268E-07  0.1598E-04  0.2963E-02  0.3332E+00
   -0.279992    0.04893  0.0000E+00  0.1168E-05  0.8089E-08  0.8587E-05  0.2182E-02  0.5676E+00
   -0.314992    0.06949  0.0000E+00  0.5289E-06  0.3524E-08  0.2397E-05  0.1306E-02  0.7423E+01
   -0.349992    0.26749  0.0000E+00  0.1185E-06  0.7800E-09  0.7728E-07  0.5115E-03  0.2354E+03
   -0.384993    0.79534  0.0000E+00  0.1148E-07  0.7714E-10  0.5550E-08  0.9239E-04  0.8234E+04
   -0.419993    1.38085  0.0000E+00  0.1897E-08  0.8319E-11  0.8939E-09  0.1544E-04  0.2276E+06
   -0.454994    1.91166  0.0000E+00  0.5372E-08  0.3747E-11  0.6235E-09  0.2426E-05  0.6780E+07
   -0.489995    2.42077  0.0000E+00  0.1532E-07  0.4538E-11  0.1098E-08  0.2702E-06  0.3837E+09
   -0.524996    2.93134  0.0000E+00  0.3544E-07  0.7874E-11  0.3173E-08  0.1434E-07  0.9584E+11
   -0.559997    3.46122  0.0000E+00  0.7573E-07  0.1521E-10  0.2440E-07  0.6143E-09  0.2710E+14
   -0.594998    3.97507  0.0000E+00  0.8871E-07  0.1783E-10  0.1111E-03  0.1946E-10  0.1285E+15
   -0.630000    4.05540  0.0000E+00  0.9004E-07  0.1812E-10  0.1447E-03  0.1484E-10 -0.5118E+12
   -0.665001    4.05606  0.0000E+00  0.9110E-07  0.1839E-10  0.1450E-03  0.1202E-10 -0.5875E+12
   -0.700002    4.05672  0.0000E+00  0.9209E-07  0.1867E-10  0.1459E-03  0.9682E-11 -0.6618E+12
   -0.735003    4.05738  0.0000E+00  0.9303E-07  0.1897E-10  0.1464E-03  0.7749E-11 -0.7185E+12
   -0.770005    4.05805  0.0000E+00  0.9391E-07  0.1930E-10  0.1466E-03  0.6187E-11 -0.7405E+12
   -0.805006    4.05872  0.0000E+00  0.9473E-07  0.1965E-10  0.1466E-03  0.4930E-11 -0.7508E+12
   -0.840007    4.05939  0.0000E+00  0.9550E-07  0.2004E-10  0.1461E-03  0.3919E-11 -0.7640E+12
   -0.875008    4.06007  0.0000E+00  0.9621E-07  0.2047E-10  0.1452E-03  0.3104E-11 -0.7817E+12
   -0.910009    4.06075  0.0000E+00  0.9685E-07  0.2095E-10  0.1440E-03  0.2459E-11 -0.8016E+12
   -0.945010    4.06145  0.0000E+00  0.9742E-07  0.2147E-10  0.1423E-03  0.1930E-11 -0.8265E+12
   -0.980011    4.06215  0.0000E+00  0.9792E-07  0.2205E-10  0.1401E-03  0.1493E-11 -0.8570E+12
   -1.015012    4.06288  0.0000E+00  0.9833E-07  0.2270E-10  0.1373E-03  0.1129E-11 -0.9002E+12
   -1.050012    4.06364  0.0000E+00  0.9866E-07  0.2347E-10  0.1339E-03  0.8431E-12 -0.9515E+12
   -1.085012    4.06443  0.0000E+00  0.9890E-07  0.2439E-10  0.1299E-03  0.6223E-12 -0.9883E+12
   -1.120012    4.06525  0.0000E+00  0.9902E-07  0.2550E-10  0.1251E-03  0.4576E-12 -0.1037E+13
   -1.155012    4.06609  0.0000E+00  0.9902E-07  0.2683E-10  0.1196E-03  0.3261E-12 -0.1095E+13
   -1.190012    4.06697  0.0000E+00  0.9887E-07  0.2851E-10  0.1130E-03  0.2214E-12 -0.1175E+13
   -1.225012    4.06791  0.0000E+00  0.9852E-07  0.3087E-10  0.1046E-03  0.1390E-12 -0.1288E+13
   -1.260011    4.06892  0.0000E+00  0.9780E-07  0.3485E-10  0.9221E-04  0.8141E-13 -0.1509E+13
   -1.295010    4.07009  0.0000E+00  0.9599E-07  0.4428E-10  0.7498E-04  0.4558E-13 -0.1928E+13
   -1.330008    4.07157  0.0000E+00  0.9139E-07  0.6957E-10  0.3039E-04  0.2880E-13 -0.5009E+13
   -1.365006    4.07529  0.0000E+00  0.6422E-07  0.2588E-09  0.2469E-05  0.1158E-13 -0.7866E+14
   -1.400004    4.12055  0.0000E+00  0.0000E+00  0.0000E+00  0.0000E+00  0.1152E-13  0.0000E+00
