 1 - depth, m
 2 - temperature, C
 3 - salinity, kg/kg
 4 - turbulent kinetic energy, m**2/s**2
 5 - dissipation rate, m**2/s**3
 6 - kinematic heat conductance, m**2/s
 7 - modulus of horizontal velocity, m/s
 8 - Richardson number, n/d
   -0.000000    0.00000  0.0000E+00  0.1580E-10  0.8511E-14  0.1000E-09  0.0000E+00  0.2362E+17
   -0.034998    0.37288  0.0000E+00  0.2980E-10  0.7240E-14  0.1000E-09  0.0000E+00  0.2043E+17
   -0.069997    0.73207  0.0000E+00  0.5598E-10  0.8633E-14  0.1000E-09  0.0000E+00  0.1743E+17
   -0.104995    1.07549  0.0000E+00  0.9686E-10  0.1209E-13  0.1000E-09  0.0000E+00  0.1467E+17
   -0.139994    1.40153  0.0000E+00  0.1584E-09  0.1791E-13  0.1000E-09  0.0000E+00  0.1221E+17
   -0.174994    1.70989  0.0000E+00  0.2505E-09  0.2692E-13  0.1000E-09  0.0000E+00  0.1007E+17
   -0.209993    2.00139  0.0000E+00  0.3886E-09  0.4051E-13  0.1000E-09  0.0000E+00  0.8223E+16
   -0.244993    2.27729  0.0000E+00  0.5957E-09  0.6078E-13  0.1000E-09  0.0000E+00  0.6635E+16
   -0.279993    2.53892  0.0000E+00  0.9063E-09  0.9085E-13  0.1000E-09  0.0000E+00  0.5266E+16
   -0.314993    2.78765  0.0000E+00  0.1378E-08  0.1359E-12  0.1010E-09  0.0000E+00  0.4034E+16
   -0.349994    3.02162  0.0000E+00  0.2103E-08  0.2042E-12  0.1784E-09  0.0000E+00  0.2975E+16
   -0.384994    3.24071  0.0000E+00  0.3211E-08  0.3072E-12  0.3843E-09  0.0000E+00  0.2077E+16
   -0.419995    3.44455  0.0000E+00  0.4886E-08  0.4606E-12  0.8801E-09  0.0000E+00  0.1361E+16
   -0.454996    3.63845  0.0000E+00  0.7399E-08  0.6877E-12  0.2394E-08  0.0000E+00  0.7496E+15
   -0.489997    3.82596  0.0000E+00  0.1112E-07  0.1020E-11  0.1350E-07  0.0000E+00  0.2011E+15
   -0.524998    3.99753  0.0000E+00  0.1156E-07  0.1061E-11  0.4692E-04  0.0000E+00 -0.1033E+12
   -0.560000    3.99812  0.0000E+00  0.1182E-07  0.1090E-11  0.4645E-04  0.0000E+00 -0.1179E+12
   -0.595001    3.99875  0.0000E+00  0.1218E-07  0.1131E-11  0.4733E-04  0.0000E+00 -0.1325E+12
   -0.630002    3.99943  0.0000E+00  0.1255E-07  0.1177E-11  0.4824E-04  0.0000E+00 -0.1379E+12
   -0.665004    4.00009  0.0000E+00  0.1291E-07  0.1224E-11  0.4896E-04  0.0000E+00 -0.1439E+12
   -0.700005    4.00075  0.0000E+00  0.1325E-07  0.1273E-11  0.4953E-04  0.0000E+00 -0.1509E+12
   -0.735006    4.00141  0.0000E+00  0.1359E-07  0.1324E-11  0.4997E-04  0.0000E+00 -0.1585E+12
   -0.770008    4.00208  0.0000E+00  0.1392E-07  0.1379E-11  0.5027E-04  0.0000E+00 -0.1655E+12
   -0.805009    4.00274  0.0000E+00  0.1424E-07  0.1436E-11  0.5046E-04  0.0000E+00 -0.1731E+12
   -0.840011    4.00340  0.0000E+00  0.1455E-07  0.1498E-11  0.5051E-04  0.0000E+00 -0.1819E+12
   -0.875012    4.00408  0.0000E+00  0.1485E-07  0.1564E-11  0.5041E-04  0.0000E+00 -0.1922E+12
   -0.910013    4.00476  0.0000E+00  0.1514E-07  0.1635E-11  0.5014E-04  0.0000E+00 -0.2033E+12
   -0.945014    4.00545  0.0000E+00  0.1541E-07  0.1711E-11  0.4972E-04  0.0000E+00 -0.2160E+12
   -0.980015    4.00617  0.0000E+00  0.1566E-07  0.1793E-11  0.4911E-04  0.0000E+00 -0.2314E+12
   -1.015016    4.00690  0.0000E+00  0.1590E-07  0.1884E-11  0.4834E-04  0.0000E+00 -0.2521E+12
   -1.050016    4.00767  0.0000E+00  0.1612E-07  0.1986E-11  0.4732E-04  0.0000E+00 -0.2770E+12
   -1.085017    4.00849  0.0000E+00  0.1631E-07  0.2104E-11  0.4597E-04  0.0000E+00 -0.2959E+12
   -1.120017    4.00933  0.0000E+00  0.1647E-07  0.2241E-11  0.4434E-04  0.0000E+00 -0.3185E+12
   -1.155017    4.01020  0.0000E+00  0.1660E-07  0.2403E-11  0.4240E-04  0.0000E+00 -0.3464E+12
   -1.190017    4.01111  0.0000E+00  0.1668E-07  0.2599E-11  0.3995E-04  0.0000E+00 -0.3842E+12
   -1.225016    4.01209  0.0000E+00  0.1672E-07  0.2872E-11  0.3674E-04  0.0000E+00 -0.4431E+12
   -1.260016    4.01317  0.0000E+00  0.1667E-07  0.3325E-11  0.3199E-04  0.0000E+00 -0.5588E+12
   -1.295015    4.01447  0.0000E+00  0.1639E-07  0.4584E-11  0.2224E-04  0.0000E+00 -0.9449E+12
   -1.330014    4.01655  0.0000E+00  0.1534E-07  0.8375E-11  0.7350E-05  0.0000E+00 -0.3459E+13
   -1.365012    4.02316  0.0000E+00  0.1148E-07  0.2568E-10  0.1041E-05  0.0000E+00 -0.4410E+14
   -1.400010    4.06994  0.0000E+00  0.0000E+00  0.0000E+00  0.0000E+00  0.0000E+00  0.0000E+00
