 1 - depth, m
 2 - temperature, C
 3 - salinity, kg/kg
 4 - turbulent kinetic energy, m**2/s**2
 5 - dissipation rate, m**2/s**3
 6 - kinematic heat conductance, m**2/s
 7 - modulus of horizontal velocity, m/s
 8 - Richardson number, n/d
   -0.000000    0.00000  0.0000E+00  0.4702E-13  0.1132E-15  0.1000E-09  0.0000E+00  0.9674E+16
   -0.034998    0.14806  0.0000E+00  0.4702E-13  0.1132E-15  0.1000E-09  0.0000E+00  0.9448E+16
   -0.069996    0.29878  0.0000E+00  0.4702E-13  0.1132E-15  0.1000E-09  0.0000E+00  0.9223E+16
   -0.104994    0.45252  0.0000E+00  0.4702E-13  0.1132E-15  0.1000E-09  0.0000E+00  0.8827E+16
   -0.139993    0.60659  0.0000E+00  0.4702E-13  0.1132E-15  0.1000E-09  0.0000E+00  0.8345E+16
   -0.174992    0.75942  0.0000E+00  0.4702E-13  0.1132E-15  0.1000E-09  0.0000E+00  0.7874E+16
   -0.209991    0.91098  0.0000E+00  0.4702E-13  0.1132E-15  0.1000E-09  0.0000E+00  0.7414E+16
   -0.244990    1.06125  0.0000E+00  0.4702E-13  0.1132E-15  0.1000E-09  0.0000E+00  0.6964E+16
   -0.279990    1.21016  0.0000E+00  0.4702E-13  0.1132E-15  0.1000E-09  0.0000E+00  0.6521E+16
   -0.314990    1.35761  0.0000E+00  0.4702E-13  0.1132E-15  0.1000E-09  0.0000E+00  0.6007E+16
   -0.349990    1.50153  0.0000E+00  0.4702E-13  0.1132E-15  0.1000E-09  0.0000E+00  0.5497E+16
   -0.384990    1.64130  0.0000E+00  0.4702E-13  0.1132E-15  0.1000E-09  0.0000E+00  0.5000E+16
   -0.419990    1.77639  0.0000E+00  0.4702E-13  0.1132E-15  0.1000E-09  0.0000E+00  0.4599E+16
   -0.454991    1.90869  0.0000E+00  0.4702E-13  0.1132E-15  0.1000E-09  0.0000E+00  0.4256E+16
   -0.489992    2.03943  0.0000E+00  0.4702E-13  0.1132E-15  0.1000E-09  0.0000E+00  0.3894E+16
   -0.524992    2.16753  0.0000E+00  0.4702E-13  0.1132E-15  0.1000E-09  0.0000E+00  0.3413E+16
   -0.559993    2.28799  0.0000E+00  0.4702E-13  0.1132E-15  0.1000E-09  0.0000E+00  0.2837E+16
   -0.594994    2.39525  0.0000E+00  0.4702E-13  0.1132E-15  0.1000E-09  0.0000E+00  0.2258E+16
   -0.629995    2.48625  0.0000E+00  0.4702E-13  0.1132E-15  0.1000E-09  0.0000E+00  0.2046E+16
   -0.664996    2.57389  0.0000E+00  0.4702E-13  0.1132E-15  0.1000E-09  0.0000E+00  0.1845E+16
   -0.699997    2.65798  0.0000E+00  0.4702E-13  0.1132E-15  0.1000E-09  0.0000E+00  0.1647E+16
   -0.734998    2.73791  0.0000E+00  0.4702E-13  0.1132E-15  0.1000E-09  0.0000E+00  0.1476E+16
   -0.769999    2.81426  0.0000E+00  0.4702E-13  0.1132E-15  0.1000E-09  0.0000E+00  0.1364E+16
   -0.805000    2.88966  0.0000E+00  0.4702E-13  0.1132E-15  0.1000E-09  0.0000E+00  0.1257E+16
   -0.840001    2.96415  0.0000E+00  0.4702E-13  0.1132E-15  0.1000E-09  0.0000E+00  0.1154E+16
   -0.875002    3.03773  0.0000E+00  0.4702E-13  0.1132E-15  0.1000E-09  0.0000E+00  0.1052E+16
   -0.910003    3.11028  0.0000E+00  0.4702E-13  0.1132E-15  0.1000E-09  0.0000E+00  0.9573E+15
   -0.945003    3.18206  0.0000E+00  0.4702E-13  0.1132E-15  0.1000E-09  0.0000E+00  0.8658E+15
   -0.980004    3.25309  0.0000E+00  0.4702E-13  0.1132E-15  0.1000E-09  0.0000E+00  0.7756E+15
   -1.015004    3.32323  0.0000E+00  0.4702E-13  0.1132E-15  0.1000E-09  0.0000E+00  0.6802E+15
   -1.050004    3.39159  0.0000E+00  0.4702E-13  0.1132E-15  0.1000E-09  0.0000E+00  0.5904E+15
   -1.085004    3.45812  0.0000E+00  0.4702E-13  0.1132E-15  0.1000E-09  0.0000E+00  0.5285E+15
   -1.120004    3.52585  0.0000E+00  0.1242E-12  0.1683E-15  0.1000E-09  0.0000E+00  0.4646E+15
   -1.155004    3.59502  0.0000E+00  0.4975E-12  0.6138E-15  0.1000E-09  0.0000E+00  0.3974E+15
   -1.190003    3.66591  0.0000E+00  0.1982E-11  0.2403E-14  0.1000E-09  0.0000E+00  0.3263E+15
   -1.225002    3.73896  0.0000E+00  0.8283E-11  0.9971E-14  0.1028E-09  0.0000E+00  0.2515E+15
   -1.260001    3.81548  0.0000E+00  0.3680E-10  0.4435E-13  0.5733E-09  0.0000E+00  0.1686E+15
   -1.295000    3.89855  0.0000E+00  0.1895E-09  0.2325E-12  0.6558E-08  0.0000E+00  0.6022E+14
   -1.329998    3.99150  0.0000E+00  0.7518E-09  0.1003E-11  0.1702E-06  0.0000E+00 -0.2287E+14
   -1.364996    4.04085  0.0000E+00  0.1383E-08  0.2931E-11  0.2185E-06  0.0000E+00 -0.6162E+14
   -1.399994    4.09048  0.0000E+00  0.0000E+00  0.0000E+00  0.0000E+00  0.0000E+00  0.0000E+00
