 1 - depth, m
 2 - temperature, C
 3 - salinity, kg/kg
 4 - turbulent kinetic energy, m**2/s**2
 5 - dissipation rate, m**2/s**3
 6 - kinematic heat conductance, m**2/s
 7 - modulus of horizontal velocity, m/s
 8 - Richardson number, n/d
   -0.000000   12.16721  0.0000E+00  0.4882E-03  0.1573E-02  0.1005E-03  0.2713E+00 -0.1179E-01
   -0.034998   12.24187  0.0000E+00  0.2583E-03  0.6257E-03  0.1261E-03  0.8520E-01  0.5688E-02
   -0.069996   12.27009  0.0000E+00  0.1677E-03  0.2195E-03  0.1852E-03  0.4905E-01 -0.9594E-01
   -0.104995   12.28176  0.0000E+00  0.1296E-03  0.1270E-03  0.1917E-03  0.3748E-01 -0.1299E-01
   -0.139994   12.28756  0.0000E+00  0.1065E-03  0.7944E-04  0.1969E-03  0.3064E-01 -0.6016E-01
   -0.174993   12.29155  0.0000E+00  0.9024E-04  0.5028E-04  0.2026E-03  0.2573E-01 -0.1627E-01
   -0.209993   12.29456  0.0000E+00  0.7827E-04  0.3221E-04  0.2093E-03  0.2191E-01 -0.2161E-01
   -0.244992   12.29705  0.0000E+00  0.6909E-04  0.2074E-04  0.2143E-03  0.1883E-01 -0.1323E-01
   -0.279992   12.29929  0.0000E+00  0.6159E-04  0.1325E-04  0.2142E-03  0.1611E-01 -0.1817E-01
   -0.314992   12.30174  0.0000E+00  0.5471E-04  0.8495E-05  0.2250E-03  0.1320E-01  0.1670E+00
   -0.349993   12.30378  0.0000E+00  0.4907E-04  0.5540E-05  0.2324E-03  0.1121E-01  0.1167E+00
   -0.384993   12.30569  0.0000E+00  0.4433E-04  0.3661E-05  0.2387E-03  0.9611E-02  0.1468E+01
   -0.419994   12.30737  0.0000E+00  0.4035E-04  0.2483E-05  0.2419E-03  0.8308E-02  0.1984E+01
   -0.454995   12.30918  0.0000E+00  0.3693E-04  0.1746E-05  0.2446E-03  0.7053E-02  0.4340E+02
   -0.489996   12.31115  0.0000E+00  0.3396E-04  0.1289E-05  0.2503E-03  0.5840E-02  0.2552E+03
   -0.524997   12.31349  0.0000E+00  0.3116E-04  0.9873E-06  0.2663E-03  0.4769E-02 -0.3190E+01
   -0.559998   12.31531  0.0000E+00  0.2848E-04  0.7701E-06  0.2975E-03  0.4017E-02 -0.9606E+03
   -0.594999   12.31636  0.0000E+00  0.2559E-04  0.5796E-06  0.3231E-03  0.3521E-02  0.1433E+05
   -0.630000   12.31644  0.0000E+00  0.2302E-04  0.4392E-06  0.3396E-03  0.3269E-02  0.5618E+05
   -0.665001   12.31730  0.0000E+00  0.2084E-04  0.3421E-06  0.3520E-03  0.2965E-02  0.2838E+04
   -0.700003   12.31825  0.0000E+00  0.1896E-04  0.2701E-06  0.3779E-03  0.2662E-02  0.4643E+04
   -0.735004   12.31926  0.0000E+00  0.1732E-04  0.2151E-06  0.4060E-03  0.2377E-02  0.1467E+04
   -0.770005   12.32013  0.0000E+00  0.1589E-04  0.1746E-06  0.4279E-03  0.2119E-02  0.7394E+03
   -0.805007   12.32099  0.0000E+00  0.1462E-04  0.1440E-06  0.4446E-03  0.1884E-02  0.5490E+04
   -0.840008   12.32178  0.0000E+00  0.1351E-04  0.1206E-06  0.4665E-03  0.1672E-02  0.8547E+04
   -0.875009   12.32253  0.0000E+00  0.1252E-04  0.1020E-06  0.4829E-03  0.1479E-02  0.6113E+03
   -0.910010   12.32324  0.0000E+00  0.1163E-04  0.8740E-07  0.5025E-03  0.1305E-02  0.9637E+03
   -0.945011   12.32392  0.0000E+00  0.1084E-04  0.7581E-07  0.5078E-03  0.1145E-02  0.6675E+03
   -0.980012   12.32459  0.0000E+00  0.1012E-04  0.6678E-07  0.5057E-03  0.9953E-03  0.1246E+04
   -1.015012   12.32524  0.0000E+00  0.9471E-05  0.5968E-07  0.4994E-03  0.8551E-03  0.1253E+04
   -1.050013   12.32589  0.0000E+00  0.8874E-05  0.5422E-07  0.4880E-03  0.7305E-03  0.2407E+04
   -1.085013   12.32654  0.0000E+00  0.8323E-05  0.5037E-07  0.4710E-03  0.6223E-03  0.1976E+04
   -1.120013   12.32720  0.0000E+00  0.7810E-05  0.4843E-07  0.4442E-03  0.5301E-03  0.4095E+04
   -1.155013   12.32792  0.0000E+00  0.7325E-05  0.4914E-07  0.4192E-03  0.4462E-03  0.1130E+05
   -1.190013   12.32871  0.0000E+00  0.6840E-05  0.5428E-07  0.3746E-03  0.3683E-03  0.1333E+05
   -1.225013   12.32971  0.0000E+00  0.6318E-05  0.6643E-07  0.3416E-03  0.2900E-03  0.4741E+05
   -1.260012   12.33084  0.0000E+00  0.5683E-05  0.9771E-07  0.2772E-03  0.2211E-03  0.1732E+05
   -1.295011   12.33292  0.0000E+00  0.4840E-05  0.1681E-06  0.2383E-03  0.1584E-03  0.2344E+05
   -1.330009   12.33325  0.0000E+00  0.3839E-05  0.3645E-06  0.1329E-03  0.1374E-03  0.1390E+07
   -1.365008   12.34060  0.0000E+00  0.2580E-05  0.7430E-06  0.7197E-04  0.9256E-04 -0.4790E+09
   -1.400006   12.34809  0.0000E+00  0.0000E+00  0.0000E+00  0.0000E+00  0.1554E-03  0.0000E+00
