 1 - depth, m
 2 - temperature, C
 3 - salinity, kg/kg
 4 - turbulent kinetic energy, m**2/s**2
 5 - dissipation rate, m**2/s**3
 6 - kinematic heat conductance, m**2/s
 7 - modulus of horizontal velocity, m/s
 8 - Richardson number, n/d
   -0.000000   28.99686  0.2037E-13  0.3574E-05  0.7737E-07  0.3601E-04  0.3557E-02 -0.2915E+01
   -0.112493   29.04664  0.2037E-13  0.5973E-05  0.3293E-07  0.4073E-03  0.1108E-02 -0.3126E+02
   -0.224988   29.05035  0.2037E-13  0.6346E-05  0.2541E-07  0.5560E-03  0.8977E-03  0.2134E+03
   -0.337483   29.05263  0.2037E-13  0.6437E-05  0.2093E-07  0.6770E-03  0.7710E-03  0.3533E+05
   -0.449980   29.05420  0.2037E-13  0.6371E-05  0.1770E-07  0.7731E-03  0.6775E-03  0.2707E+04
   -0.562477   29.05535  0.2037E-13  0.6207E-05  0.1519E-07  0.8492E-03  0.6037E-03  0.3498E+03
   -0.674975   29.05623  0.2037E-13  0.5979E-05  0.1314E-07  0.9083E-03  0.5432E-03  0.2292E+03
   -0.787474   29.05691  0.2037E-13  0.5710E-05  0.1142E-07  0.9529E-03  0.4922E-03  0.1895E+03
   -0.899974   29.05744  0.2037E-13  0.5416E-05  0.9970E-08  0.9848E-03  0.4487E-03  0.1753E+03
   -1.012474   29.05785  0.2037E-13  0.5111E-05  0.8732E-08  0.1006E-02  0.4112E-03  0.2379E+03
   -1.124975   29.05817  0.2037E-13  0.4796E-05  0.7653E-08  0.9965E-03  0.3788E-03  0.9042E+03
   -1.237477   29.05842  0.2037E-13  0.4469E-05  0.6692E-08  0.9574E-03  0.3481E-03  0.3644E+03
   -1.349979   29.05862  0.2037E-13  0.4144E-05  0.5855E-08  0.9213E-03  0.3194E-03  0.2416E+04
   -1.462481   29.05877  0.2037E-13  0.3808E-05  0.5094E-08  0.7871E-03  0.2934E-03  0.1873E+05
   -1.574984   29.05887  0.2037E-13  0.3428E-05  0.4332E-08  0.4811E-03  0.2674E-03 -0.1066E+02
   -1.687487   29.05894  0.2037E-13  0.3013E-05  0.3604E-08  0.3197E-03  0.2400E-03 -0.1732E+01
   -1.799991   29.05893  0.2037E-13  0.2599E-05  0.2986E-08  0.1896E-03  0.2142E-03  0.1577E+03
   -1.912495   29.05868  0.2037E-13  0.2119E-05  0.2387E-08  0.6788E-04  0.1900E-03  0.5325E+03
   -2.024998   29.04685  0.2038E-13  0.1256E-05  0.1404E-08  0.1902E-05  0.1366E-03  0.1105E+05
   -2.137502   28.97093  0.2043E-13  0.1759E-06  0.1934E-09  0.2604E-07  0.3732E-04  0.2723E+07
   -2.250007   28.77726  0.2053E-13  0.8678E-08  0.1038E-10  0.1203E-08  0.2899E-05  0.1005E+10
   -2.362511   28.54857  0.2061E-13  0.2159E-09  0.1096E-11  0.1070E-09  0.1940E-06  0.4290E+12
   -2.475015   28.24218  0.2074E-13  0.4419E-11  0.1000E-11  0.1000E-09  0.1254E-07  0.1793E+15
   -2.587519   27.83020  0.2096E-13  0.4419E-11  0.1000E-11  0.1000E-09  0.7753E-09  0.1803E+17
   -2.700022   27.30614  0.2123E-13  0.4419E-11  0.1000E-11  0.1000E-09  0.4567E-10  0.1123E+18
   -2.812526   26.68114  0.2147E-13  0.4419E-11  0.1000E-11  0.1000E-09  0.2555E-11  0.1856E+18
   -2.925029   25.97739  0.2164E-13  0.4419E-11  0.1000E-11  0.1000E-09  0.1351E-12  0.1942E+18
   -3.037532   25.22190  0.2173E-13  0.4419E-11  0.1000E-11  0.1000E-09  0.6735E-14  0.1947E+18
   -3.150034   24.44276  0.2176E-13  0.4419E-11  0.1000E-11  0.1000E-09  0.3150E-15  0.1879E+18
   -3.262536   23.66848  0.2173E-13  0.4419E-11  0.1000E-11  0.1000E-09  0.1374E-16  0.1740E+18
   -3.375038   22.92911  0.2166E-13  0.4419E-11  0.1000E-11  0.1000E-09  0.5552E-18  0.1712E+18
   -3.487539   22.17846  0.2155E-13  0.4419E-11  0.1000E-11  0.1000E-09  0.2065E-19  0.1677E+18
   -3.600039   21.41838  0.2140E-13  0.4419E-11  0.1000E-11  0.1000E-09  0.7106E-21  0.1592E+18
   -3.712539   20.67142  0.2121E-13  0.4419E-11  0.1000E-11  0.1000E-09  0.2242E-22  0.1449E+18
   -3.825038   19.96700  0.2097E-13  0.4419E-11  0.1000E-11  0.1000E-09  0.6322E-24  0.1234E+18
   -3.937536   19.34677  0.2068E-13  0.8323E-09  0.1814E-11  0.1636E-09  0.1570E-25  0.9199E+17
   -4.050033   18.87052  0.2036E-13  0.3481E-07  0.7065E-10  0.1343E-07  0.3355E-27  0.4353E+17
   -4.162530   18.64071  0.2012E-13  0.2748E-06  0.5690E-09  0.2539E-04  0.5222E-29 -0.1103E+15
   -4.275025   18.64130  0.2012E-13  0.5226E-06  0.1696E-08  0.5618E-04  0.8896E-30 -0.4742E+15
   -4.387520   18.64382  0.2012E-13  0.5311E-06  0.6854E-08  0.1169E-04  0.2119E-30 -0.6620E+16
   -4.500013   18.67895  0.2012E-13  0.0000E+00  0.0000E+00  0.0000E+00  0.2071E-30  0.0000E+00
