 1 - depth, m
 2 - temperature, C
 3 - salinity, kg/kg
 4 - turbulent kinetic energy, m**2/s**2
 5 - dissipation rate, m**2/s**3
 6 - kinematic heat conductance, m**2/s
 7 - modulus of horizontal velocity, m/s
 8 - Richardson number, n/d
   -0.000000   30.27924  0.6554E-14  0.3530E-05  0.9251E-07  0.3108E-04  0.1198E-02 -0.1787E+03
   -0.112493   30.35190  0.6555E-14  0.7288E-05  0.4078E-07  0.4841E-03  0.3275E-03 -0.1848E+04
   -0.224988   30.35586  0.6556E-14  0.7862E-05  0.3247E-07  0.6503E-03  0.2724E-03  0.3777E+06
   -0.337483   30.35836  0.6556E-14  0.8076E-05  0.2724E-07  0.7989E-03  0.2360E-03  0.1137E+07
   -0.449980   30.36009  0.6556E-14  0.8088E-05  0.2342E-07  0.9195E-03  0.2090E-03  0.8673E+04
   -0.562477   30.36137  0.6556E-14  0.7972E-05  0.2041E-07  0.1019E-02  0.1875E-03  0.5796E+04
   -0.674975   30.36234  0.6556E-14  0.7772E-05  0.1793E-07  0.1099E-02  0.1698E-03  0.4687E+04
   -0.787474   30.36311  0.6556E-14  0.7514E-05  0.1584E-07  0.1163E-02  0.1547E-03  0.4119E+04
   -0.899974   30.36372  0.6556E-14  0.7219E-05  0.1404E-07  0.1212E-02  0.1417E-03  0.3797E+04
   -1.012475   30.36421  0.6556E-14  0.6901E-05  0.1249E-07  0.1250E-02  0.1304E-03  0.3651E+04
   -1.124976   30.36461  0.6556E-14  0.6569E-05  0.1113E-07  0.1276E-02  0.1204E-03  0.5141E+05
   -1.237477   30.36493  0.6556E-14  0.6227E-05  0.9929E-08  0.1270E-02  0.1116E-03  0.9651E+04
   -1.349979   30.36518  0.6556E-14  0.5876E-05  0.8856E-08  0.1250E-02  0.1035E-03  0.1184E+05
   -1.462482   30.36538  0.6556E-14  0.5525E-05  0.7905E-08  0.1227E-02  0.9611E-04  0.6518E+05
   -1.574985   30.36554  0.6556E-14  0.5166E-05  0.7042E-08  0.1126E-02  0.8923E-04  0.9454E+05
   -1.687488   30.36566  0.6556E-14  0.4787E-05  0.6231E-08  0.9539E-03  0.8205E-04  0.1056E+06
   -1.799991   30.36574  0.6556E-14  0.4392E-05  0.5480E-08  0.7983E-03  0.7465E-04  0.3844E+06
   -1.912495   30.36576  0.6556E-14  0.3983E-05  0.4793E-08  0.5814E-03  0.6756E-04  0.1872E+07
   -2.024999   30.36566  0.6556E-14  0.3528E-05  0.4121E-08  0.3225E-03  0.6080E-04  0.4888E+07
   -2.137503   30.36319  0.6556E-14  0.2882E-05  0.3299E-08  0.1709E-03  0.4813E-04  0.7981E+04
   -2.250007   30.34129  0.6558E-14  0.2041E-05  0.2317E-08  0.7852E-04  0.2485E-04  0.4241E+06
   -2.362511   30.28793  0.6561E-14  0.1255E-05  0.1420E-08  0.2093E-04  0.8030E-05  0.1148E+09
   -2.475015   30.21124  0.6564E-14  0.5768E-06  0.6466E-09  0.1932E-06  0.2502E-05  0.1868E+11
   -2.587519   30.12997  0.6567E-14  0.6122E-07  0.6927E-10  0.1478E-07  0.3753E-06  0.3750E+13
   -2.700023   30.06274  0.6567E-14  0.3256E-08  0.4543E-11  0.1484E-08  0.2522E-07  0.9373E+15
   -2.812527   30.00975  0.6566E-14  0.1213E-09  0.1049E-11  0.1622E-09  0.1372E-08  0.5886E+16
   -2.925030   29.96183  0.6564E-14  0.4419E-11  0.1000E-11  0.1000E-09  0.6935E-10  0.9748E+16
   -3.037533   29.91679  0.6562E-14  0.4419E-11  0.1000E-11  0.1000E-09  0.3314E-11  0.1241E+17
   -3.150035   29.87475  0.6560E-14  0.4419E-11  0.1000E-11  0.1000E-09  0.1492E-12  0.1106E+17
   -3.262538   29.83725  0.6558E-14  0.4419E-11  0.1000E-11  0.1000E-09  0.6280E-14  0.8652E+16
   -3.375039   29.80789  0.6554E-14  0.4419E-11  0.1000E-11  0.1000E-09  0.2457E-15  0.8919E+16
   -3.487540   29.77759  0.6550E-14  0.4419E-11  0.1000E-11  0.1000E-09  0.8877E-17  0.9199E+16
   -3.600041   29.74632  0.6544E-14  0.4419E-11  0.1000E-11  0.1000E-09  0.2974E-18  0.8444E+16
   -3.712540   29.71759  0.6538E-14  0.4633E-09  0.1183E-11  0.7925E-09  0.9158E-20  0.6753E+16
   -3.825039   29.69460  0.6531E-14  0.1150E-07  0.1106E-10  0.2858E-07  0.2526E-21  0.4155E+16
   -3.937537   29.68044  0.6523E-14  0.7122E-07  0.7023E-10  0.4729E-05  0.6144E-23  0.7819E+15
   -4.050035   29.67778  0.6521E-14  0.1752E-06  0.2008E-09  0.3262E-04  0.1493E-24 -0.3124E+14
   -4.162531   29.67789  0.6521E-14  0.2764E-06  0.4209E-09  0.5732E-04  0.2132E-25 -0.9718E+14
   -4.275027   29.67822  0.6521E-14  0.3698E-06  0.8455E-09  0.5989E-04  0.5113E-26 -0.2418E+15
   -4.387521   29.67904  0.6521E-14  0.3167E-06  0.3098E-08  0.9086E-05  0.1215E-26 -0.3753E+16
   -4.500015   29.69183  0.6521E-14  0.0000E+00  0.0000E+00  0.0000E+00  0.1175E-26  0.0000E+00
