 1 - depth, m
 2 - temperature, C
 3 - salinity, kg/kg
 4 - turbulent kinetic energy, m**2/s**2
 5 - dissipation rate, m**2/s**3
 6 - kinematic heat conductance, m**2/s
 7 - modulus of horizontal velocity, m/s
 8 - Richardson number, n/d
   -0.000000   29.85138  0.3918E-14  0.5620E-05  0.1363E-06  0.4280E-04  0.6514E-02 -0.1050E+01
   -0.112493   29.90429  0.3918E-14  0.8306E-05  0.5274E-07  0.4672E-03  0.2164E-02 -0.8424E+01
   -0.224987   29.90854  0.3918E-14  0.8835E-05  0.3976E-07  0.6780E-03  0.1720E-02  0.1090E+05
   -0.337482   29.91105  0.3918E-14  0.9065E-05  0.3285E-07  0.8373E-03  0.1486E-02  0.1055E+03
   -0.449978   29.91283  0.3918E-14  0.9127E-05  0.2808E-07  0.9776E-03  0.1311E-02  0.4211E+02
   -0.562475   29.91415  0.3918E-14  0.9075E-05  0.2448E-07  0.1098E-02  0.1173E-02  0.2838E+02
   -0.674973   29.91518  0.3918E-14  0.8943E-05  0.2161E-07  0.1202E-02  0.1059E-02  0.2254E+02
   -0.787471   29.91600  0.3918E-14  0.8753E-05  0.1923E-07  0.1290E-02  0.9620E-03  0.1941E+02
   -0.899971   29.91667  0.3918E-14  0.8521E-05  0.1721E-07  0.1364E-02  0.8787E-03  0.1763E+02
   -1.012471   29.91723  0.3918E-14  0.8258E-05  0.1547E-07  0.1425E-02  0.8058E-03  0.1655E+02
   -1.124971   29.91769  0.3918E-14  0.7973E-05  0.1395E-07  0.1475E-02  0.7413E-03  0.1599E+02
   -1.237472   29.91807  0.3918E-14  0.7673E-05  0.1261E-07  0.1514E-02  0.6839E-03  0.1576E+02
   -1.349974   29.91839  0.3918E-14  0.7363E-05  0.1142E-07  0.1544E-02  0.6325E-03  0.1584E+02
   -1.462476   29.91866  0.3918E-14  0.7050E-05  0.1036E-07  0.1566E-02  0.5865E-03  0.1613E+02
   -1.574978   29.91889  0.3918E-14  0.6737E-05  0.9424E-08  0.1582E-02  0.5453E-03  0.1734E+02
   -1.687481   29.91907  0.3918E-14  0.6424E-05  0.8581E-08  0.1563E-02  0.5085E-03  0.6012E+03
   -1.799984   29.91922  0.3918E-14  0.6108E-05  0.7813E-08  0.1526E-02  0.4732E-03  0.3313E+03
   -1.912488   29.91934  0.3918E-14  0.5796E-05  0.7124E-08  0.1487E-02  0.4401E-03  0.4564E+03
   -2.024991   29.91944  0.3918E-14  0.5478E-05  0.6489E-08  0.1310E-02  0.4096E-03  0.3240E+04
   -2.137495   29.91951  0.3918E-14  0.5133E-05  0.5867E-08  0.1059E-02  0.3800E-03  0.6020E+02
   -2.249998   29.91955  0.3918E-14  0.4747E-05  0.5243E-08  0.6463E-03  0.3503E-03  0.1984E+04
   -2.362502   29.91955  0.3918E-14  0.4321E-05  0.4629E-08  0.4027E-03  0.3188E-03  0.1232E+03
   -2.475006   29.91936  0.3918E-14  0.3834E-05  0.4018E-08  0.2348E-03  0.2890E-03  0.3040E+03
   -2.587509   29.90441  0.3919E-14  0.2884E-05  0.2968E-08  0.1065E-03  0.2359E-03  0.7198E+04
   -2.700012   29.86311  0.3920E-14  0.1784E-05  0.1814E-08  0.3047E-04  0.1545E-03  0.1164E+07
   -2.812516   29.78289  0.3921E-14  0.8764E-06  0.8786E-09  0.3853E-06  0.6968E-04  0.3911E+09
   -2.925018   29.69083  0.3920E-14  0.1062E-06  0.1064E-09  0.2138E-07  0.1155E-04  0.1578E+12
   -3.037521   29.61190  0.3917E-14  0.6245E-08  0.7150E-11  0.2589E-08  0.6719E-06  0.6748E+14
   -3.150023   29.56116  0.3914E-14  0.2752E-09  0.1113E-11  0.2823E-09  0.3139E-07  0.1569E+16
   -3.262525   29.52541  0.3910E-14  0.4419E-11  0.1000E-11  0.1000E-09  0.1338E-08  0.2828E+16
   -3.375026   29.50330  0.3907E-14  0.4419E-11  0.1000E-11  0.1000E-09  0.5289E-10  0.4049E+16
   -3.487526   29.48431  0.3903E-14  0.1241E-09  0.1000E-11  0.5375E-09  0.1928E-11  0.4987E+16
   -3.600026   29.46722  0.3900E-14  0.7830E-08  0.6011E-11  0.1592E-07  0.6512E-13  0.3602E+16
   -3.712526   29.45486  0.3896E-14  0.7203E-07  0.5422E-10  0.9213E-06  0.2021E-14  0.8241E+15
   -3.825024   29.45204  0.3894E-14  0.1713E-06  0.1338E-09  0.2913E-04  0.6187E-16 -0.1166E+13
   -3.937522   29.45204  0.3894E-14  0.2543E-06  0.2358E-09  0.6677E-04  0.1399E-16 -0.2955E+14
   -4.050019   29.45214  0.3894E-14  0.3409E-06  0.3879E-09  0.9356E-04  0.4649E-17 -0.5449E+14
   -4.162515   29.45233  0.3894E-14  0.4271E-06  0.6272E-09  0.1042E-03  0.1678E-17 -0.9818E+14
   -4.275010   29.45267  0.3894E-14  0.4946E-06  0.1064E-08  0.8811E-04  0.5866E-18 -0.2178E+15
   -4.387504   29.45341  0.3894E-14  0.3534E-06  0.3535E-08  0.9630E-05  0.1785E-18 -0.3850E+16
   -4.499997   29.46662  0.3894E-14  0.0000E+00  0.0000E+00  0.0000E+00  0.1701E-18  0.0000E+00
