 1 - depth, m
 2 - temperature, C
 3 - salinity, kg/kg
 4 - turbulent kinetic energy, m**2/s**2
 5 - dissipation rate, m**2/s**3
 6 - kinematic heat conductance, m**2/s
 7 - modulus of horizontal velocity, m/s
 8 - Richardson number, n/d
   -0.000000   29.29108  0.2011E-13  0.2961E-05  0.6696E-07  0.3080E-04  0.2097E-02 -0.1490E+02
   -0.112494   29.34865  0.2012E-13  0.5352E-05  0.2904E-07  0.3750E-03  0.6333E-03 -0.1899E+03
   -0.224990   29.35248  0.2012E-13  0.5618E-05  0.2237E-07  0.5008E-03  0.5159E-03  0.1072E+05
   -0.337486   29.35477  0.2012E-13  0.5603E-05  0.1822E-07  0.5968E-03  0.4454E-03  0.2079E+06
   -0.449983   29.35630  0.2012E-13  0.5437E-05  0.1515E-07  0.6643E-03  0.3934E-03  0.1471E+06
   -0.562481   29.35737  0.2012E-13  0.5175E-05  0.1270E-07  0.6988E-03  0.3503E-03  0.3585E+05
   -0.674980   29.35817  0.2012E-13  0.4856E-05  0.1069E-07  0.7137E-03  0.3133E-03  0.6854E+05
   -0.787480   29.35876  0.2012E-13  0.4508E-05  0.9026E-08  0.7136E-03  0.2808E-03  0.2906E+05
   -0.899981   29.35918  0.2012E-13  0.4145E-05  0.7644E-08  0.6973E-03  0.2519E-03  0.1805E+05
   -1.012482   29.35943  0.2012E-13  0.3761E-05  0.6455E-08  0.6568E-03  0.2251E-03  0.1540E+05
   -1.124984   29.35907  0.2012E-13  0.3350E-05  0.5383E-08  0.5765E-03  0.1936E-03  0.1597E+05
   -1.237486   29.35586  0.2012E-13  0.2948E-05  0.4449E-08  0.5077E-03  0.1573E-03  0.5014E+04
   -1.349989   29.35051  0.2013E-13  0.2564E-05  0.3653E-08  0.4530E-03  0.1317E-03  0.3834E+06
   -1.462492   29.34320  0.2013E-13  0.2187E-05  0.2957E-08  0.3917E-03  0.1107E-03  0.3950E+08
   -1.574996   29.33287  0.2014E-13  0.1812E-05  0.2332E-08  0.3315E-03  0.9210E-04  0.4362E+10
   -1.687500   29.31806  0.2015E-13  0.1462E-05  0.1784E-08  0.2667E-03  0.7540E-04  0.5121E+12
   -1.800004   29.30116  0.2015E-13  0.1271E-05  0.1471E-08  0.1724E-03  0.6427E-04  0.6456E+14
   -1.912509   29.28820  0.2016E-13  0.1120E-05  0.1233E-08  0.1194E-03  0.5669E-04  0.6302E+15
   -2.025014   29.27618  0.2016E-13  0.9742E-06  0.1034E-08  0.7782E-04  0.5007E-04  0.1149E+16
   -2.137519   29.26227  0.2016E-13  0.8287E-06  0.8613E-09  0.3837E-04  0.4401E-04  0.3226E+16
   -2.250024   29.23821  0.2016E-13  0.6340E-06  0.6568E-09  0.3432E-05  0.3797E-04  0.1574E+17
   -2.362528   29.15795  0.2017E-13  0.2397E-06  0.2515E-09  0.2181E-07  0.2201E-04  0.5007E+17
   -2.475033   28.82153  0.2040E-13  0.1395E-07  0.1609E-10  0.7623E-09  0.1896E-05  0.8141E+17
   -2.587538   28.24619  0.2080E-13  0.6466E-09  0.1539E-11  0.1166E-09  0.1263E-06  0.9679E+17
   -2.700043   27.61711  0.2106E-13  0.4419E-11  0.1000E-11  0.1000E-09  0.7922E-08  0.1055E+18
   -2.812547   26.95428  0.2128E-13  0.4419E-11  0.1000E-11  0.1000E-09  0.4700E-09  0.1185E+18
   -2.925051   26.24892  0.2145E-13  0.4419E-11  0.1000E-11  0.1000E-09  0.2626E-10  0.1578E+18
   -3.037555   25.50414  0.2155E-13  0.4419E-11  0.1000E-11  0.1000E-09  0.1378E-11  0.1941E+18
   -3.150058   24.73603  0.2160E-13  0.4419E-11  0.1000E-11  0.1000E-09  0.6758E-13  0.1882E+18
   -3.262561   23.96919  0.2158E-13  0.4419E-11  0.1000E-11  0.1000E-09  0.3079E-14  0.1752E+18
   -3.375063   23.23399  0.2152E-13  0.4419E-11  0.1000E-11  0.1000E-09  0.1295E-15  0.1734E+18
   -3.487565   22.48370  0.2141E-13  0.4419E-11  0.1000E-11  0.1000E-09  0.4994E-17  0.1706E+18
   -3.600066   21.72098  0.2125E-13  0.4419E-11  0.1000E-11  0.1000E-09  0.1776E-18  0.1623E+18
   -3.712567   20.96990  0.2105E-13  0.4419E-11  0.1000E-11  0.1000E-09  0.5773E-20  0.1481E+18
   -3.825067   20.26025  0.2080E-13  0.4419E-11  0.1000E-11  0.1000E-09  0.1670E-21  0.1269E+18
   -3.937566   19.63147  0.2050E-13  0.8719E-09  0.1926E-11  0.1661E-09  0.4241E-23  0.9629E+17
   -4.050064   19.14032  0.2017E-13  0.3699E-07  0.7618E-10  0.1354E-07  0.9229E-25  0.4713E+17
   -4.162561   18.89504  0.1991E-13  0.2847E-06  0.5968E-09  0.2613E-04  0.1463E-26 -0.1108E+15
   -4.275057   18.89562  0.1991E-13  0.5382E-06  0.1757E-08  0.5772E-04  0.2295E-27 -0.4808E+15
   -4.387553   18.89814  0.1991E-13  0.5397E-06  0.7015E-08  0.1178E-04  0.5399E-28 -0.6706E+16
   -4.500047   18.93323  0.1991E-13  0.0000E+00  0.0000E+00  0.0000E+00  0.5549E-28  0.0000E+00
