 1 - depth, m
 2 - temperature, C
 3 - salinity, kg/kg
 4 - turbulent kinetic energy, m**2/s**2
 5 - dissipation rate, m**2/s**3
 6 - kinematic heat conductance, m**2/s
 7 - modulus of horizontal velocity, m/s
 8 - Richardson number, n/d
   -0.000000   31.21587  0.4269E-15  0.4151E-05  0.1180E-06  0.3699E-04  0.1289E-02 -0.3251E+02
   -0.112493   31.28528  0.4270E-15  0.8673E-05  0.5213E-07  0.5308E-03  0.3569E-03 -0.1534E+03
   -0.224988   31.28951  0.4270E-15  0.9517E-05  0.4144E-07  0.7395E-03  0.2960E-03  0.3821E+06
   -0.337484   31.29213  0.4270E-15  0.9931E-05  0.3510E-07  0.9243E-03  0.2571E-03  0.2599E+04
   -0.449980   31.29396  0.4270E-15  0.1011E-04  0.3058E-07  0.1083E-02  0.2284E-03  0.1138E+04
   -0.562478   31.29532  0.4270E-15  0.1012E-04  0.2708E-07  0.1218E-02  0.2057E-03  0.8043E+03
   -0.674976   31.29639  0.4270E-15  0.1004E-04  0.2421E-07  0.1333E-02  0.1869E-03  0.6566E+03
   -0.787475   31.29724  0.4270E-15  0.9871E-05  0.2178E-07  0.1431E-02  0.1710E-03  0.5760E+03
   -0.899975   31.29794  0.4270E-15  0.9648E-05  0.1969E-07  0.1512E-02  0.1571E-03  0.5306E+03
   -1.012475   31.29852  0.4271E-15  0.9384E-05  0.1786E-07  0.1579E-02  0.1450E-03  0.5039E+03
   -1.124976   31.29900  0.4271E-15  0.9090E-05  0.1624E-07  0.1632E-02  0.1342E-03  0.4917E+03
   -1.237478   31.29940  0.4271E-15  0.8774E-05  0.1480E-07  0.1674E-02  0.1247E-03  0.4888E+03
   -1.349980   31.29974  0.4271E-15  0.8446E-05  0.1351E-07  0.1706E-02  0.1161E-03  0.5036E+03
   -1.462483   31.30002  0.4271E-15  0.8108E-05  0.1235E-07  0.1728E-02  0.1084E-03  0.2187E+06
   -1.574986   31.30025  0.4271E-15  0.7759E-05  0.1129E-07  0.1692E-02  0.1014E-03  0.1458E+05
   -1.687489   31.30044  0.4271E-15  0.7398E-05  0.1031E-07  0.1651E-02  0.9461E-04  0.5577E+04
   -1.799992   31.30060  0.4271E-15  0.7036E-05  0.9430E-08  0.1610E-02  0.8815E-04  0.6200E+04
   -1.912496   31.30073  0.4271E-15  0.6669E-05  0.8624E-08  0.1504E-02  0.8211E-04  0.1106E+06
   -2.025000   31.30082  0.4271E-15  0.6279E-05  0.7854E-08  0.1244E-02  0.7635E-04  0.8840E+06
   -2.137504   31.30087  0.4271E-15  0.5867E-05  0.7128E-08  0.1060E-02  0.7064E-04  0.1157E+05
   -2.250009   31.30087  0.4271E-15  0.5447E-05  0.6471E-08  0.8282E-03  0.6526E-04  0.2831E+05
   -2.362513   31.30072  0.4271E-15  0.4961E-05  0.5800E-08  0.5216E-03  0.6007E-04  0.6274E+05
   -2.475017   31.28793  0.4272E-15  0.3943E-05  0.4569E-08  0.2177E-03  0.5057E-04  0.2158E+06
   -2.587521   31.24539  0.4275E-15  0.2692E-05  0.3144E-08  0.1063E-03  0.3331E-04  0.1331E+08
   -2.700025   31.15042  0.4282E-15  0.1779E-05  0.2085E-08  0.3358E-04  0.1897E-04  0.4045E+10
   -2.812528   31.05759  0.4286E-15  0.9280E-06  0.1080E-08  0.4322E-06  0.9743E-05  0.1533E+13
   -2.925032   30.97016  0.4288E-15  0.1445E-06  0.1668E-09  0.2776E-07  0.2219E-05  0.4715E+15
   -3.037535   30.89748  0.4287E-15  0.9099E-08  0.1147E-10  0.3733E-08  0.1547E-06  0.3380E+16
   -3.150037   30.84547  0.4285E-15  0.3786E-09  0.1358E-11  0.3539E-09  0.7215E-08  0.7537E+16
   -3.262539   30.80604  0.4282E-15  0.4422E-11  0.1000E-11  0.1000E-09  0.2946E-09  0.5737E+16
   -3.375041   30.78073  0.4279E-15  0.4419E-11  0.1000E-11  0.1000E-09  0.1117E-10  0.6653E+16
   -3.487542   30.75647  0.4276E-15  0.4419E-11  0.1000E-11  0.1000E-09  0.3929E-12  0.7534E+16
   -3.600043   30.73157  0.4271E-15  0.4419E-11  0.1000E-11  0.1000E-09  0.1286E-13  0.6807E+16
   -3.712542   30.70905  0.4267E-15  0.1156E-09  0.1018E-11  0.2704E-09  0.3882E-15  0.5372E+16
   -3.825041   30.69128  0.4263E-15  0.3692E-08  0.3862E-11  0.7441E-08  0.1053E-16  0.3738E+16
   -3.937540   30.67890  0.4258E-15  0.3099E-07  0.2907E-10  0.1348E-05  0.2528E-18  0.1298E+16
   -4.050037   30.67460  0.4256E-15  0.8870E-07  0.8988E-10  0.1798E-04  0.5254E-20  0.3272E+15
   -4.162534   30.67351  0.4255E-15  0.1525E-06  0.1972E-09  0.3665E-04  0.9435E-22 -0.5321E+14
   -4.275029   30.67369  0.4255E-15  0.2190E-06  0.4215E-09  0.4241E-04  0.4547E-23 -0.1665E+15
   -4.387524   30.67424  0.4255E-15  0.1995E-06  0.1581E-08  0.7181E-05  0.5764E-24 -0.2399E+16
   -4.500017   30.68219  0.4254E-15  0.0000E+00  0.0000E+00  0.0000E+00  0.5304E-24  0.0000E+00
