 1 - depth, m
 2 - temperature, C
 3 - salinity, kg/kg
 4 - turbulent kinetic energy, m**2/s**2
 5 - dissipation rate, m**2/s**3
 6 - kinematic heat conductance, m**2/s
 7 - modulus of horizontal velocity, m/s
 8 - Richardson number, n/d
   -0.000000   29.61402  0.5745E-15  0.4169E-05  0.9745E-07  0.3914E-04  0.3973E-02 -0.2696E+01
   -0.112493   29.66953  0.5744E-15  0.6960E-05  0.4118E-07  0.4369E-03  0.1296E-02 -0.2175E+02
   -0.224987   29.67372  0.5744E-15  0.7384E-05  0.3170E-07  0.5962E-03  0.1049E-02  0.2328E+05
   -0.337482   29.67627  0.5744E-15  0.7492E-05  0.2613E-07  0.7264E-03  0.9064E-03  0.4109E+05
   -0.449978   29.67802  0.5744E-15  0.7425E-05  0.2213E-07  0.8312E-03  0.8004E-03  0.4665E+05
   -0.562475   29.67929  0.5744E-15  0.7251E-05  0.1904E-07  0.9152E-03  0.7164E-03  0.4638E+05
   -0.674973   29.68024  0.5744E-15  0.7011E-05  0.1655E-07  0.9816E-03  0.6475E-03  0.3496E+05
   -0.787472   29.68097  0.5744E-15  0.6724E-05  0.1447E-07  0.1029E-02  0.5896E-03  0.1147E+05
   -0.899971   29.68154  0.5744E-15  0.6394E-05  0.1266E-07  0.1025E-02  0.5374E-03  0.9948E+03
   -1.012471   29.68200  0.5744E-15  0.6030E-05  0.1106E-07  0.1007E-02  0.4878E-03  0.2132E+04
   -1.124972   29.68237  0.5744E-15  0.5649E-05  0.9665E-08  0.9830E-03  0.4413E-03  0.6264E+03
   -1.237473   29.68266  0.5744E-15  0.5260E-05  0.8450E-08  0.9497E-03  0.3982E-03  0.2918E+03
   -1.349975   29.68286  0.5744E-15  0.4871E-05  0.7402E-08  0.9118E-03  0.3581E-03  0.9010E+02
   -1.462477   29.68297  0.5744E-15  0.4483E-05  0.6494E-08  0.8707E-03  0.3203E-03  0.7065E+03
   -1.574979   29.68289  0.5744E-15  0.4076E-05  0.5670E-08  0.8149E-03  0.2827E-03  0.1409E+05
   -1.687482   29.68138  0.5744E-15  0.3652E-05  0.4905E-08  0.7516E-03  0.2298E-03  0.1196E+04
   -1.799985   29.67547  0.5744E-15  0.3266E-05  0.4241E-08  0.6855E-03  0.1774E-03  0.1587E+05
   -1.912489   29.66783  0.5744E-15  0.2921E-05  0.3665E-08  0.6166E-03  0.1448E-03  0.1969E+07
   -2.024992   29.66036  0.5744E-15  0.2580E-05  0.3119E-08  0.4045E-03  0.1227E-03  0.2972E+09
   -2.137496   29.65282  0.5744E-15  0.2220E-05  0.2577E-08  0.2290E-03  0.1028E-03  0.4375E+11
   -2.250000   29.64567  0.5743E-15  0.1870E-05  0.2091E-08  0.1489E-03  0.8525E-04  0.8625E+13
   -2.362503   29.63764  0.5743E-15  0.1529E-05  0.1659E-08  0.8121E-04  0.6992E-04  0.6864E+15
   -2.475007   29.62665  0.5743E-15  0.1167E-05  0.1232E-08  0.2642E-04  0.5588E-04  0.1755E+16
   -2.587510   29.60720  0.5742E-15  0.6572E-06  0.6730E-09  0.5762E-06  0.3671E-04  0.4807E+16
   -2.700014   29.55630  0.5738E-15  0.1003E-06  0.1019E-09  0.2290E-07  0.9285E-05  0.1288E+17
   -2.812517   29.44914  0.5726E-15  0.6260E-08  0.7257E-11  0.2289E-08  0.6669E-06  0.1392E+17
   -2.925020   29.35636  0.5719E-15  0.2864E-09  0.1140E-11  0.2396E-09  0.3682E-07  0.1179E+17
   -3.037522   29.28647  0.5714E-15  0.4419E-11  0.1000E-11  0.1000E-09  0.1866E-08  0.9705E+16
   -3.150025   29.23516  0.5710E-15  0.4419E-11  0.1000E-11  0.1000E-09  0.8852E-10  0.8063E+16
   -3.262526   29.20014  0.5704E-15  0.1480E-08  0.1632E-11  0.1625E-08  0.3912E-11  0.5485E+16
   -3.375027   29.18118  0.5700E-15  0.2197E-07  0.1485E-10  0.3500E-07  0.1599E-12  0.3346E+16
   -3.487528   29.16962  0.5695E-15  0.1069E-06  0.7122E-10  0.1949E-05  0.6052E-14  0.9379E+15
   -3.600028   29.16637  0.5693E-15  0.1923E-06  0.1302E-09  0.2960E-04  0.2530E-15  0.2033E+15
   -3.712527   29.16567  0.5693E-15  0.2694E-06  0.1989E-09  0.7186E-04  0.7257E-16  0.3160E+14
   -3.825026   29.16556  0.5693E-15  0.3492E-06  0.2887E-09  0.1134E-03  0.3278E-16 -0.2094E+14
   -3.937524   29.16563  0.5693E-15  0.4277E-06  0.4071E-09  0.1503E-03  0.1632E-16 -0.3409E+14
   -4.050021   29.16575  0.5693E-15  0.5034E-06  0.5654E-09  0.1689E-03  0.8353E-17 -0.5201E+14
   -4.162517   29.16593  0.5693E-15  0.5686E-06  0.7898E-09  0.1627E-03  0.4314E-17 -0.8563E+14
   -4.275012   29.16623  0.5693E-15  0.6047E-06  0.1187E-08  0.1226E-03  0.2120E-17 -0.1779E+15
   -4.387506   29.16684  0.5693E-15  0.3724E-06  0.3712E-08  0.9806E-05  0.8856E-18 -0.3585E+16
   -4.499999   29.17925  0.5692E-15  0.0000E+00  0.0000E+00  0.0000E+00  0.8806E-18  0.0000E+00
