 1 - depth, m
 2 - temperature, C
 3 - salinity, kg/kg
 4 - turbulent kinetic energy, m**2/s**2
 5 - dissipation rate, m**2/s**3
 6 - kinematic heat conductance, m**2/s
 7 - modulus of horizontal velocity, m/s
 8 - Richardson number, n/d
   -0.000000   27.00237  0.1758E-14  0.4864E-05  0.9630E-07  0.4154E-04  0.7822E-02 -0.5347E+00
   -0.112493   27.03872  0.1758E-14  0.5476E-05  0.3448E-07  0.2367E-03  0.3304E-02 -0.2195E+01
   -0.224987   27.04397  0.1758E-14  0.5390E-05  0.2309E-07  0.4136E-03  0.2447E-02  0.6408E+01
   -0.337482   27.04635  0.1758E-14  0.5162E-05  0.1767E-07  0.4922E-03  0.2033E-02  0.5277E+04
   -0.449978   27.04788  0.1758E-14  0.4866E-05  0.1409E-07  0.5407E-03  0.1747E-02  0.4737E+05
   -0.562475   27.04894  0.1758E-14  0.4527E-05  0.1144E-07  0.5612E-03  0.1526E-02  0.2497E+04
   -0.674972   27.04970  0.1757E-14  0.4161E-05  0.9364E-08  0.5565E-03  0.1340E-02  0.1314E+04
   -0.787471   27.05025  0.1757E-14  0.3783E-05  0.7708E-08  0.5374E-03  0.1181E-02  0.5769E+03
   -0.899970   27.05062  0.1757E-14  0.3405E-05  0.6378E-08  0.5063E-03  0.1041E-02  0.5533E+02
   -1.012470   27.05077  0.1757E-14  0.3010E-05  0.5262E-08  0.4580E-03  0.9107E-03  0.2348E+02
   -1.124971   27.04985  0.1757E-14  0.2589E-05  0.4270E-08  0.4000E-03  0.7518E-03  0.3865E+02
   -1.237472   27.04193  0.1757E-14  0.2207E-05  0.3437E-08  0.3511E-03  0.5508E-03  0.1320E+04
   -1.349973   27.02830  0.1757E-14  0.1878E-05  0.2757E-08  0.3207E-03  0.4134E-03  0.1336E+06
   -1.462475   27.01269  0.1757E-14  0.1579E-05  0.2186E-08  0.3019E-03  0.3115E-03  0.1482E+08
   -1.574978   26.99486  0.1757E-14  0.1317E-05  0.1713E-08  0.2947E-03  0.2232E-03  0.1743E+10
   -1.687480   26.97565  0.1757E-14  0.1155E-05  0.1418E-08  0.2931E-03  0.1575E-03  0.2182E+12
   -1.799984   26.95965  0.1757E-14  0.1079E-05  0.1267E-08  0.2902E-03  0.1326E-03  0.2912E+14
   -1.912487   26.94582  0.1757E-14  0.1016E-05  0.1145E-08  0.2790E-03  0.1193E-03  0.1032E+16
   -2.024990   26.93341  0.1756E-14  0.9482E-06  0.1023E-08  0.2144E-03  0.1083E-03  0.1605E+16
   -2.137494   26.92243  0.1756E-14  0.8706E-06  0.8939E-09  0.1399E-03  0.9657E-04  0.1569E+16
   -2.249997   26.91389  0.1756E-14  0.7911E-06  0.7729E-09  0.1103E-03  0.8518E-04  0.1882E+16
   -2.362501   26.90563  0.1756E-14  0.7138E-06  0.6674E-09  0.8642E-04  0.7489E-04  0.2381E+16
   -2.475005   26.89644  0.1756E-14  0.6394E-06  0.5781E-09  0.6140E-04  0.6572E-04  0.2322E+16
   -2.587508   26.88751  0.1756E-14  0.5668E-06  0.5012E-09  0.3591E-04  0.5755E-04  0.2416E+16
   -2.700011   26.87823  0.1756E-14  0.4833E-06  0.4223E-09  0.1140E-04  0.5021E-04  0.2990E+16
   -2.812514   26.86580  0.1756E-14  0.2972E-06  0.2537E-09  0.3505E-06  0.3566E-04  0.4591E+16
   -2.925017   26.84090  0.1755E-14  0.5051E-07  0.4331E-10  0.3377E-07  0.7632E-05  0.7140E+16
   -3.037520   26.80148  0.1754E-14  0.4169E-08  0.4363E-11  0.5198E-08  0.5400E-06  0.6559E+16
   -3.150022   26.76993  0.1753E-14  0.2242E-09  0.1054E-11  0.5402E-09  0.2736E-07  0.4856E+16
   -3.262523   26.74752  0.1752E-14  0.4419E-11  0.1000E-11  0.1000E-09  0.1220E-08  0.3095E+16
   -3.375024   26.73342  0.1751E-14  0.4419E-11  0.1000E-11  0.1000E-09  0.5000E-10  0.3016E+16
   -3.487525   26.72032  0.1751E-14  0.2731E-10  0.1000E-11  0.2395E-09  0.1884E-11  0.3534E+16
   -3.600025   26.70711  0.1750E-14  0.4126E-08  0.3643E-11  0.7794E-08  0.6558E-13  0.3052E+16
   -3.712524   26.69569  0.1749E-14  0.4422E-07  0.3318E-10  0.3370E-06  0.2089E-14  0.1259E+16
   -3.825022   26.69097  0.1748E-14  0.1093E-06  0.8433E-10  0.1798E-04  0.5985E-16  0.3415E+15
   -3.937520   26.68969  0.1747E-14  0.1793E-06  0.1579E-09  0.4573E-04  0.1945E-17  0.2105E+14
   -4.050017   26.68961  0.1747E-14  0.2545E-06  0.2692E-09  0.7260E-04  0.3921E-18 -0.4159E+14
   -4.162513   26.68977  0.1747E-14  0.3271E-06  0.4431E-09  0.8572E-04  0.1139E-18 -0.8005E+14
   -4.275008   26.69007  0.1747E-14  0.3852E-06  0.7610E-09  0.7451E-04  0.3454E-19 -0.1809E+15
   -4.387502   26.69075  0.1747E-14  0.2801E-06  0.2525E-08  0.8533E-05  0.9298E-20 -0.3068E+16
   -4.499995   26.70223  0.1747E-14  0.0000E+00  0.0000E+00  0.0000E+00  0.9232E-20  0.0000E+00
