 1 - depth, m
 2 - temperature, C
 3 - salinity, kg/kg
 4 - turbulent kinetic energy, m**2/s**2
 5 - dissipation rate, m**2/s**3
 6 - kinematic heat conductance, m**2/s
 7 - modulus of horizontal velocity, m/s
 8 - Richardson number, n/d
   -0.000000   30.16700  0.1034E-14  0.6611E-05  0.1549E-06  0.4720E-04  0.8860E-02 -0.7549E+00
   -0.112493   30.21297  0.1034E-14  0.7900E-05  0.5623E-07  0.3327E-03  0.3704E-02 -0.4985E+01
   -0.224987   30.21873  0.1034E-14  0.7960E-05  0.3858E-07  0.5491E-03  0.2788E-02  0.6839E+05
   -0.337482   30.22150  0.1034E-14  0.7821E-05  0.3021E-07  0.6843E-03  0.2347E-02  0.3718E+04
   -0.449978   30.22329  0.1034E-14  0.7590E-05  0.2482E-07  0.7803E-03  0.2055E-02  0.3046E+04
   -0.562475   30.22458  0.1034E-14  0.7290E-05  0.2084E-07  0.8485E-03  0.1836E-02  0.2639E+04
   -0.674973   30.22555  0.1034E-14  0.6932E-05  0.1765E-07  0.8838E-03  0.1648E-02  0.1429E+04
   -0.787471   30.22630  0.1034E-14  0.6533E-05  0.1502E-07  0.8958E-03  0.1482E-02  0.5758E+03
   -0.899970   30.22690  0.1034E-14  0.6109E-05  0.1281E-07  0.8969E-03  0.1333E-02  0.4816E+02
   -1.012470   30.22737  0.1034E-14  0.5675E-05  0.1095E-07  0.8895E-03  0.1199E-02  0.3482E+02
   -1.124971   30.22773  0.1034E-14  0.5240E-05  0.9390E-08  0.8713E-03  0.1078E-02  0.1215E+03
   -1.237472   30.22799  0.1034E-14  0.4812E-05  0.8075E-08  0.8457E-03  0.9683E-03  0.2021E+02
   -1.349974   30.22814  0.1034E-14  0.4393E-05  0.6963E-08  0.8088E-03  0.8672E-03  0.1194E+03
   -1.462476   30.22814  0.1034E-14  0.3969E-05  0.5991E-08  0.7558E-03  0.7698E-03  0.5577E+03
   -1.574978   30.22738  0.1034E-14  0.3523E-05  0.5093E-08  0.6730E-03  0.6500E-03  0.5127E+04
   -1.687481   30.22295  0.1034E-14  0.3086E-05  0.4262E-08  0.4742E-03  0.5072E-03  0.4155E+04
   -1.799984   30.21687  0.1034E-14  0.2657E-05  0.3483E-08  0.2965E-03  0.4126E-03  0.4710E+05
   -1.912487   30.21062  0.1034E-14  0.2232E-05  0.2784E-08  0.1939E-03  0.3422E-03  0.6506E+07
   -2.024991   30.20367  0.1034E-14  0.1819E-05  0.2180E-08  0.1132E-03  0.2827E-03  0.1020E+10
   -2.137494   30.19552  0.1034E-14  0.1382E-05  0.1608E-08  0.4549E-04  0.2298E-03  0.1754E+12
   -2.249998   30.18212  0.1033E-14  0.8117E-06  0.9206E-09  0.6679E-05  0.1557E-03  0.6555E+14
   -2.362501   30.15331  0.1033E-14  0.2371E-06  0.2601E-09  0.1037E-06  0.6794E-04  0.3239E+16
   -2.475005   30.09383  0.1032E-14  0.2002E-07  0.2271E-10  0.8729E-08  0.9089E-05  0.6189E+16
   -2.587509   30.02265  0.1031E-14  0.9843E-09  0.1904E-11  0.6386E-09  0.6429E-06  0.6807E+16
   -2.700012   29.95736  0.1031E-14  0.7763E-11  0.1000E-11  0.1084E-09  0.3868E-07  0.7296E+16
   -2.812515   29.89813  0.1030E-14  0.4419E-11  0.1000E-11  0.1000E-09  0.2189E-08  0.8435E+16
   -2.925018   29.84534  0.1030E-14  0.4419E-11  0.1000E-11  0.1000E-09  0.1171E-09  0.1045E+17
   -3.037520   29.79870  0.1030E-14  0.4419E-11  0.1000E-11  0.1000E-09  0.5907E-11  0.1163E+17
   -3.150022   29.75797  0.1030E-14  0.4419E-11  0.1000E-11  0.1000E-09  0.2794E-12  0.9994E+16
   -3.262524   29.72398  0.1029E-14  0.4419E-11  0.1000E-11  0.1000E-09  0.1232E-13  0.7195E+16
   -3.375025   29.69948  0.1029E-14  0.4419E-11  0.1000E-11  0.1000E-09  0.5028E-15  0.7604E+16
   -3.487525   29.67358  0.1029E-14  0.4419E-11  0.1000E-11  0.1000E-09  0.1888E-16  0.8055E+16
   -3.600025   29.64612  0.1028E-14  0.1758E-08  0.2180E-11  0.1795E-08  0.6554E-18  0.6920E+16
   -3.712525   29.62251  0.1027E-14  0.2811E-07  0.2320E-10  0.5606E-07  0.2083E-19  0.3698E+16
   -3.825023   29.60988  0.1026E-14  0.9262E-07  0.7719E-10  0.9390E-05  0.5792E-21  0.7521E+15
   -3.937521   29.60731  0.1026E-14  0.1744E-06  0.1615E-09  0.3843E-04  0.3636E-22  0.6325E+14
   -4.050018   29.60710  0.1026E-14  0.2585E-06  0.2854E-09  0.6882E-04  0.1203E-22 -0.4406E+14
   -4.162514   29.60725  0.1026E-14  0.3382E-06  0.4779E-09  0.8475E-04  0.4617E-23 -0.8645E+14
   -4.275009   29.60754  0.1026E-14  0.4027E-06  0.8295E-09  0.7501E-04  0.1746E-23 -0.1961E+15
   -4.387503   29.60821  0.1026E-14  0.2971E-06  0.2771E-08  0.8787E-05  0.5818E-24 -0.3284E+16
   -4.499996   29.61943  0.1026E-14  0.0000E+00  0.0000E+00  0.0000E+00  0.5791E-24  0.0000E+00
