 1 - depth, m
 2 - temperature, C
 3 - salinity, kg/kg
 4 - turbulent kinetic energy, m**2/s**2
 5 - dissipation rate, m**2/s**3
 6 - kinematic heat conductance, m**2/s
 7 - modulus of horizontal velocity, m/s
 8 - Richardson number, n/d
   -0.000000   27.83495  0.1493E-13  0.5954E-05  0.1429E-06  0.4419E-04  0.7608E-02 -0.7228E+00
   -0.112493   27.88901  0.1493E-13  0.8001E-05  0.5319E-07  0.4042E-03  0.2743E-02 -0.4061E+01
   -0.224987   27.89418  0.1493E-13  0.8325E-05  0.3887E-07  0.6246E-03  0.2129E-02  0.5149E+05
   -0.337482   27.89693  0.1493E-13  0.8393E-05  0.3158E-07  0.7551E-03  0.1839E-02  0.1623E+05
   -0.449978   27.89886  0.1493E-13  0.8314E-05  0.2654E-07  0.8695E-03  0.1621E-02  0.8991E+03
   -0.562475   27.90028  0.1493E-13  0.8138E-05  0.2274E-07  0.9644E-03  0.1447E-02  0.7799E+02
   -0.674972   27.90136  0.1493E-13  0.7899E-05  0.1973E-07  0.1043E-02  0.1304E-02  0.4538E+02
   -0.787471   27.90221  0.1493E-13  0.7619E-05  0.1727E-07  0.1106E-02  0.1184E-02  0.3570E+02
   -0.899970   27.90287  0.1493E-13  0.7315E-05  0.1522E-07  0.1157E-02  0.1081E-02  0.3747E+02
   -1.012470   27.90340  0.1493E-13  0.6993E-05  0.1349E-07  0.1197E-02  0.9911E-03  0.1184E+04
   -1.124970   27.90382  0.1493E-13  0.6647E-05  0.1194E-07  0.1171E-02  0.9102E-03  0.4743E+03
   -1.237471   27.90418  0.1493E-13  0.6271E-05  0.1054E-07  0.1123E-02  0.8303E-03  0.5106E+03
   -1.349973   27.90447  0.1493E-13  0.5880E-05  0.9280E-08  0.1077E-02  0.7534E-03  0.2388E+03
   -1.462475   27.90471  0.1493E-13  0.5485E-05  0.8168E-08  0.1030E-02  0.6808E-03  0.4009E+03
   -1.574977   27.90490  0.1493E-13  0.5092E-05  0.7194E-08  0.9786E-03  0.6132E-03  0.1899E+03
   -1.687480   27.90502  0.1493E-13  0.4703E-05  0.6344E-08  0.9199E-03  0.5501E-03  0.5572E+03
   -1.799983   27.90507  0.1493E-13  0.4321E-05  0.5601E-08  0.8650E-03  0.4906E-03  0.3036E+03
   -1.912487   27.90500  0.1493E-13  0.3937E-05  0.4938E-08  0.7978E-03  0.4334E-03  0.1151E+03
   -2.024990   27.90452  0.1493E-13  0.3520E-05  0.4301E-08  0.7162E-03  0.3723E-03  0.3001E+03
   -2.137493   27.90092  0.1493E-13  0.3098E-05  0.3702E-08  0.6176E-03  0.2883E-03  0.9449E+03
   -2.249997   27.89293  0.1493E-13  0.2722E-05  0.3174E-08  0.4828E-03  0.2244E-03  0.1071E+06
   -2.362501   27.88420  0.1493E-13  0.2366E-05  0.2679E-08  0.2839E-03  0.1826E-03  0.2150E+08
   -2.475004   27.87509  0.1493E-13  0.2004E-05  0.2196E-08  0.1732E-03  0.1490E-03  0.4592E+10
   -2.587508   27.86537  0.1492E-13  0.1645E-05  0.1748E-08  0.1086E-03  0.1187E-03  0.1130E+13
   -2.700011   27.85420  0.1492E-13  0.1285E-05  0.1328E-08  0.5680E-04  0.9069E-04  0.3474E+15
   -2.812514   27.83971  0.1492E-13  0.9138E-06  0.9195E-09  0.1950E-04  0.6394E-04  0.2005E+16
   -2.925017   27.81699  0.1492E-13  0.5339E-06  0.5264E-09  0.5846E-06  0.3910E-04  0.5828E+16
   -3.037519   27.76957  0.1491E-13  0.1064E-06  0.1037E-09  0.2756E-07  0.1102E-04  0.1549E+17
   -3.150021   27.66057  0.1488E-13  0.7291E-08  0.8106E-11  0.1736E-08  0.7684E-06  0.2368E+17
   -3.262523   27.51464  0.1483E-13  0.3558E-09  0.1248E-11  0.1512E-09  0.3507E-07  0.3134E+17
   -3.375024   27.33346  0.1473E-13  0.4419E-11  0.1000E-11  0.1000E-09  0.1437E-08  0.4309E+17
   -3.487524   27.11071  0.1463E-13  0.4419E-11  0.1000E-11  0.1000E-09  0.5404E-10  0.5461E+17
   -3.600024   26.87028  0.1452E-13  0.4419E-11  0.1000E-11  0.1000E-09  0.1879E-11  0.6407E+17
   -3.712523   26.63087  0.1440E-13  0.4419E-11  0.1000E-11  0.1000E-09  0.5984E-13  0.6097E+17
   -3.825022   26.40120  0.1427E-13  0.4419E-11  0.1000E-11  0.1000E-09  0.1700E-14  0.5558E+17
   -3.937519   26.19028  0.1412E-13  0.1385E-09  0.1005E-11  0.1260E-09  0.4251E-16  0.4566E+17
   -4.050016   26.01581  0.1397E-13  0.7864E-08  0.1397E-10  0.4275E-08  0.9132E-18  0.2742E+17
   -4.162512   25.91053  0.1385E-13  0.8974E-07  0.1697E-09  0.6858E-05  0.1631E-19  0.1105E+16
   -4.275007   25.90627  0.1384E-13  0.3017E-06  0.8334E-09  0.3671E-04  0.2964E-21 -0.3337E+15
   -4.387501   25.90755  0.1384E-13  0.3440E-06  0.3612E-08  0.9396E-05  0.4853E-22 -0.4383E+16
   -4.499994   25.92441  0.1384E-13  0.0000E+00  0.0000E+00  0.0000E+00  0.4826E-22  0.0000E+00
