 1 - depth, m
 2 - temperature, C
 3 - salinity, kg/kg
 4 - turbulent kinetic energy, m**2/s**2
 5 - dissipation rate, m**2/s**3
 6 - kinematic heat conductance, m**2/s
 7 - modulus of horizontal velocity, m/s
 8 - Richardson number, n/d
   -0.000000   29.57604  0.1974E-13  0.2983E-05  0.6953E-07  0.3017E-04  0.1586E-02 -0.2262E+02
   -0.112494   29.63517  0.1974E-13  0.5727E-05  0.3059E-07  0.4055E-03  0.4555E-03 -0.2961E+03
   -0.224989   29.63882  0.1974E-13  0.6086E-05  0.2396E-07  0.5424E-03  0.3719E-03  0.3434E+07
   -0.337485   29.64106  0.1974E-13  0.6149E-05  0.1982E-07  0.6529E-03  0.3213E-03  0.5954E+06
   -0.449981   29.64258  0.1974E-13  0.6049E-05  0.1676E-07  0.7355E-03  0.2840E-03  0.4194E+05
   -0.562479   29.64367  0.1974E-13  0.5845E-05  0.1431E-07  0.7866E-03  0.2535E-03  0.5297E+05
   -0.674978   29.64450  0.1974E-13  0.5573E-05  0.1229E-07  0.8151E-03  0.2274E-03  0.4284E+05
   -0.787477   29.64513  0.1974E-13  0.5257E-05  0.1058E-07  0.8265E-03  0.2045E-03  0.1910E+05
   -0.899977   29.64560  0.1974E-13  0.4917E-05  0.9136E-08  0.8259E-03  0.1842E-03  0.4077E+04
   -1.012478   29.64592  0.1974E-13  0.4557E-05  0.7900E-08  0.8135E-03  0.1656E-03  0.2314E+04
   -1.124979   29.64590  0.1975E-13  0.4178E-05  0.6813E-08  0.7854E-03  0.1459E-03  0.1635E+04
   -1.237481   29.64415  0.1975E-13  0.3802E-05  0.5864E-08  0.7468E-03  0.1208E-03  0.5333E+04
   -1.349984   29.64031  0.1975E-13  0.3445E-05  0.5039E-08  0.6966E-03  0.1007E-03  0.2074E+06
   -1.462487   29.63554  0.1975E-13  0.3095E-05  0.4304E-08  0.6204E-03  0.8560E-04  0.1947E+08
   -1.574990   29.62987  0.1975E-13  0.2744E-05  0.3636E-08  0.5216E-03  0.7234E-04  0.2063E+10
   -1.687494   29.62320  0.1976E-13  0.2388E-05  0.3018E-08  0.3939E-03  0.5996E-04  0.2325E+12
   -1.799998   29.61551  0.1976E-13  0.2027E-05  0.2439E-08  0.2619E-03  0.4826E-04  0.2811E+14
   -1.912502   29.60677  0.1976E-13  0.1666E-05  0.1908E-08  0.1570E-03  0.3732E-04  0.4443E+15
   -2.025006   29.59671  0.1977E-13  0.1311E-05  0.1429E-08  0.9752E-04  0.2712E-04  0.7432E+15
   -2.137510   29.58391  0.1977E-13  0.9672E-06  0.9993E-09  0.5388E-04  0.1723E-04  0.1477E+16
   -2.250015   29.56467  0.1977E-13  0.7520E-06  0.7619E-09  0.1326E-04  0.1151E-04  0.6120E+16
   -2.362519   29.51320  0.1978E-13  0.4634E-06  0.4724E-09  0.9277E-07  0.7845E-05  0.2541E+17
   -2.475024   29.29397  0.1990E-13  0.3314E-07  0.3585E-10  0.1580E-08  0.9209E-06  0.6151E+17
   -2.587528   28.72767  0.2047E-13  0.1653E-08  0.2576E-11  0.1542E-09  0.6075E-07  0.8833E+17
   -2.700032   28.06799  0.2083E-13  0.4852E-11  0.1000E-11  0.1000E-09  0.3757E-08  0.1085E+18
   -2.812536   27.37298  0.2107E-13  0.4419E-11  0.1000E-11  0.1000E-09  0.2200E-09  0.1233E+18
   -2.925040   26.64345  0.2125E-13  0.4419E-11  0.1000E-11  0.1000E-09  0.1214E-10  0.1864E+18
   -3.037543   25.88340  0.2137E-13  0.4419E-11  0.1000E-11  0.1000E-09  0.6297E-12  0.1988E+18
   -3.150046   25.10731  0.2143E-13  0.4419E-11  0.1000E-11  0.1000E-09  0.3057E-13  0.1917E+18
   -3.262549   24.33714  0.2143E-13  0.4419E-11  0.1000E-11  0.1000E-09  0.1380E-14  0.1781E+18
   -3.375050   23.60071  0.2138E-13  0.4419E-11  0.1000E-11  0.1000E-09  0.5754E-16  0.1764E+18
   -3.487552   22.84882  0.2128E-13  0.4419E-11  0.1000E-11  0.1000E-09  0.2202E-17  0.1743E+18
   -3.600053   22.08187  0.2112E-13  0.4419E-11  0.1000E-11  0.1000E-09  0.7781E-19  0.1670E+18
   -3.712553   21.32181  0.2092E-13  0.4419E-11  0.1000E-11  0.1000E-09  0.2515E-20  0.1540E+18
   -3.825052   20.59619  0.2066E-13  0.4419E-11  0.1000E-11  0.1000E-09  0.7240E-22  0.1343E+18
   -3.937551   19.94179  0.2036E-13  0.1915E-09  0.1138E-11  0.1057E-09  0.1832E-23  0.1056E+18
   -4.050048   19.41113  0.2003E-13  0.1182E-07  0.2525E-10  0.3459E-08  0.3975E-25  0.6145E+17
   -4.162545   19.09543  0.1972E-13  0.1517E-06  0.3384E-09  0.8701E-05  0.6890E-27  0.2676E+15
   -4.275041   19.09404  0.1971E-13  0.4694E-06  0.1550E-08  0.4827E-04  0.3724E-28 -0.4836E+15
   -4.387536   19.09655  0.1971E-13  0.5063E-06  0.6416E-08  0.1139E-04  0.7874E-29 -0.6390E+16
   -4.500030   19.12962  0.1971E-13  0.0000E+00  0.0000E+00  0.0000E+00  0.7929E-29  0.0000E+00
