 1 - depth, m
 2 - temperature, C
 3 - salinity, kg/kg
 4 - turbulent kinetic energy, m**2/s**2
 5 - dissipation rate, m**2/s**3
 6 - kinematic heat conductance, m**2/s
 7 - modulus of horizontal velocity, m/s
 8 - Richardson number, n/d
   -0.000000   27.45626  0.1492E-13  0.1017E-04  0.2729E-06  0.5644E-04  0.1182E-01 -0.3633E+00
   -0.112493   27.51158  0.1492E-13  0.1153E-04  0.9315E-07  0.3890E-03  0.4888E-02 -0.1424E+01
   -0.224987   27.51889  0.1492E-13  0.1172E-04  0.6432E-07  0.7543E-03  0.3665E-02  0.1928E+04
   -0.337482   27.52205  0.1492E-13  0.1175E-04  0.5186E-07  0.8922E-03  0.3200E-02  0.2165E+02
   -0.449978   27.52440  0.1492E-13  0.1167E-04  0.4349E-07  0.1034E-02  0.2841E-02  0.1006E+02
   -0.562474   27.52617  0.1492E-13  0.1149E-04  0.3735E-07  0.1156E-02  0.2555E-02  0.6900E+01
   -0.674972   27.52757  0.1491E-13  0.1125E-04  0.3257E-07  0.1262E-02  0.2318E-02  0.5524E+01
   -0.787470   27.52870  0.1491E-13  0.1094E-04  0.2869E-07  0.1352E-02  0.2117E-02  0.4787E+01
   -0.899970   27.52962  0.1491E-13  0.1060E-04  0.2546E-07  0.1427E-02  0.1944E-02  0.4375E+01
   -1.012469   27.53038  0.1491E-13  0.1023E-04  0.2270E-07  0.1488E-02  0.1792E-02  0.4140E+01
   -1.124970   27.53102  0.1491E-13  0.9831E-05  0.2033E-07  0.1538E-02  0.1659E-02  0.4037E+01
   -1.237471   27.53155  0.1491E-13  0.9420E-05  0.1825E-07  0.1576E-02  0.1540E-02  0.4025E+01
   -1.349972   27.53199  0.1491E-13  0.9001E-05  0.1643E-07  0.1604E-02  0.1434E-02  0.4100E+01
   -1.462474   27.53236  0.1491E-13  0.8581E-05  0.1484E-07  0.1623E-02  0.1339E-02  0.4242E+01
   -1.574977   27.53266  0.1491E-13  0.8168E-05  0.1344E-07  0.1636E-02  0.1255E-02  0.4561E+01
   -1.687479   27.53290  0.1491E-13  0.7764E-05  0.1221E-07  0.1646E-02  0.1181E-02  0.1116E+02
   -1.799982   27.53309  0.1491E-13  0.7344E-05  0.1107E-07  0.1457E-02  0.1114E-02  0.1129E+04
   -1.912486   27.53324  0.1491E-13  0.6863E-05  0.9912E-08  0.1121E-02  0.1044E-02  0.4944E+03
   -2.024989   27.53336  0.1491E-13  0.6340E-05  0.8800E-08  0.9154E-03  0.9695E-03  0.1537E+03
   -2.137492   27.53338  0.1491E-13  0.5786E-05  0.7783E-08  0.7389E-03  0.8994E-03  0.2563E+03
   -2.249996   27.52595  0.1491E-13  0.4915E-05  0.6435E-08  0.5129E-03  0.7943E-03  0.1724E+04
   -2.362500   27.50438  0.1491E-13  0.3933E-05  0.5035E-08  0.2211E-03  0.6681E-03  0.9102E+04
   -2.475003   27.46120  0.1490E-13  0.2787E-05  0.3564E-08  0.1065E-03  0.4783E-03  0.3254E+07
   -2.587506   27.36780  0.1488E-13  0.1789E-05  0.2325E-08  0.3597E-04  0.2668E-03  0.1368E+10
   -2.700010   27.25358  0.1485E-13  0.9639E-06  0.1255E-08  0.7565E-06  0.1372E-03  0.5854E+12
   -2.812513   27.14116  0.1484E-13  0.1635E-06  0.2101E-09  0.2796E-07  0.3737E-04  0.2609E+15
   -2.925015   27.03428  0.1483E-13  0.9056E-08  0.1263E-10  0.2822E-08  0.2773E-05  0.2288E+16
   -3.037518   26.94265  0.1482E-13  0.3258E-09  0.1336E-11  0.2195E-09  0.1319E-06  0.5187E+16
   -3.150020   26.85256  0.1481E-13  0.4445E-11  0.1000E-11  0.1000E-09  0.5608E-08  0.1388E+17
   -3.262521   26.76073  0.1480E-13  0.4419E-11  0.1000E-11  0.1000E-09  0.2247E-09  0.1961E+17
   -3.375022   26.66889  0.1477E-13  0.4419E-11  0.1000E-11  0.1000E-09  0.8437E-11  0.2985E+17
   -3.487523   26.54827  0.1473E-13  0.4419E-11  0.1000E-11  0.1000E-09  0.2941E-12  0.4112E+17
   -3.600022   26.39315  0.1465E-13  0.4419E-11  0.1000E-11  0.1000E-09  0.9549E-14  0.4798E+17
   -3.712522   26.21107  0.1454E-13  0.4419E-11  0.1000E-11  0.1000E-09  0.2860E-15  0.5097E+17
   -3.825020   26.01638  0.1440E-13  0.4419E-11  0.1000E-11  0.1000E-09  0.7700E-17  0.4865E+17
   -3.937518   25.82930  0.1425E-13  0.4714E-09  0.1321E-11  0.2283E-09  0.1837E-18  0.3939E+17
   -4.050014   25.67692  0.1412E-13  0.1783E-07  0.3093E-10  0.1298E-07  0.3792E-20  0.2028E+17
   -4.162510   25.59814  0.1403E-13  0.1414E-06  0.2544E-09  0.1492E-04  0.6518E-22  0.1333E+15
   -4.275005   25.59762  0.1402E-13  0.3262E-06  0.8856E-09  0.4143E-04  0.1618E-23 -0.3279E+15
   -4.387499   25.59890  0.1402E-13  0.3500E-06  0.3692E-08  0.9487E-05  0.2437E-24 -0.4408E+16
   -4.499992   25.61604  0.1402E-13  0.0000E+00  0.0000E+00  0.0000E+00  0.2174E-24  0.0000E+00
