 1 - depth, m
 2 - temperature, C
 3 - salinity, kg/kg
 4 - turbulent kinetic energy, m**2/s**2
 5 - dissipation rate, m**2/s**3
 6 - kinematic heat conductance, m**2/s
 7 - modulus of horizontal velocity, m/s
 8 - Richardson number, n/d
   -0.000000   25.69045  0.4649E-14  0.5336E-05  0.1122E-06  0.4313E-04  0.7293E-02 -0.6415E+00
   -0.112493   25.73292  0.4648E-14  0.6743E-05  0.4096E-07  0.3421E-03  0.2746E-02 -0.3260E+01
   -0.224987   25.73775  0.4648E-14  0.6939E-05  0.2906E-07  0.5913E-03  0.2046E-02  0.1070E+04
   -0.337482   25.73997  0.4648E-14  0.6949E-05  0.2347E-07  0.7055E-03  0.1740E-02  0.1022E+05
   -0.449978   25.74155  0.4648E-14  0.6867E-05  0.1969E-07  0.8091E-03  0.1525E-02  0.1907E+05
   -0.562475   25.74271  0.4648E-14  0.6721E-05  0.1687E-07  0.8968E-03  0.1354E-02  0.3476E+05
   -0.674973   25.74360  0.4648E-14  0.6534E-05  0.1465E-07  0.9710E-03  0.1213E-02  0.1955E+03
   -0.787471   25.74428  0.4648E-14  0.6322E-05  0.1285E-07  0.1033E-02  0.1095E-02  0.1049E+03
   -0.899970   25.74482  0.4648E-14  0.6098E-05  0.1138E-07  0.1085E-02  0.9943E-03  0.1080E+04
   -1.012470   25.74525  0.4648E-14  0.5856E-05  0.1011E-07  0.1104E-02  0.9075E-03  0.7731E+03
   -1.124971   25.74560  0.4648E-14  0.5587E-05  0.8964E-08  0.1075E-02  0.8223E-03  0.7524E+03
   -1.237472   25.74589  0.4648E-14  0.5301E-05  0.7943E-08  0.1043E-02  0.7403E-03  0.3309E+03
   -1.349974   25.74614  0.4648E-14  0.5011E-05  0.7046E-08  0.1017E-02  0.6632E-03  0.6439E+03
   -1.462476   25.74634  0.4648E-14  0.4721E-05  0.6267E-08  0.9861E-03  0.5917E-03  0.1766E+03
   -1.574978   25.74650  0.4648E-14  0.4437E-05  0.5593E-08  0.9526E-03  0.5260E-03  0.6428E+03
   -1.687481   25.74660  0.4648E-14  0.4159E-05  0.5013E-08  0.9147E-03  0.4652E-03  0.1522E+03
   -1.799984   25.74664  0.4648E-14  0.3884E-05  0.4506E-08  0.8673E-03  0.4085E-03  0.6971E+02
   -1.912487   25.74658  0.4648E-14  0.3603E-05  0.4046E-08  0.7926E-03  0.3541E-03  0.8016E+04
   -2.024991   25.74621  0.4648E-14  0.3294E-05  0.3599E-08  0.7112E-03  0.2975E-03  0.7459E+02
   -2.137494   25.74382  0.4648E-14  0.2985E-05  0.3185E-08  0.6669E-03  0.2291E-03  0.1294E+04
   -2.249998   25.73859  0.4648E-14  0.2725E-05  0.2839E-08  0.6383E-03  0.1779E-03  0.1693E+06
   -2.362502   25.73252  0.4647E-14  0.2490E-05  0.2534E-08  0.6164E-03  0.1439E-03  0.3438E+08
   -2.475005   25.72546  0.4647E-14  0.2262E-05  0.2252E-08  0.6051E-03  0.1167E-03  0.6915E+10
   -2.587509   25.71777  0.4646E-14  0.2055E-05  0.2005E-08  0.6011E-03  0.9335E-04  0.1556E+13
   -2.700012   25.71047  0.4646E-14  0.1955E-05  0.1875E-08  0.5978E-03  0.7873E-04  0.3255E+15
   -2.812515   25.70447  0.4646E-14  0.1901E-05  0.1796E-08  0.5929E-03  0.7025E-04  0.7208E+15
   -2.925018   25.69911  0.4646E-14  0.1856E-05  0.1732E-08  0.5888E-03  0.6360E-04  0.8525E+15
   -3.037520   25.69407  0.4645E-14  0.1816E-05  0.1679E-08  0.5826E-03  0.5778E-04  0.9331E+15
   -3.150022   25.68940  0.4645E-14  0.1794E-05  0.1643E-08  0.5765E-03  0.5262E-04  0.8176E+15
   -3.262524   25.68591  0.4644E-14  0.1801E-05  0.1632E-08  0.5695E-03  0.4796E-04  0.3085E+15
   -3.375025   25.68469  0.4644E-14  0.1815E-05  0.1635E-08  0.5726E-03  0.4375E-04  0.1167E+15
   -3.487526   25.68425  0.4643E-14  0.1830E-05  0.1655E-08  0.5811E-03  0.3987E-04  0.5794E+14
   -3.600026   25.68404  0.4643E-14  0.1852E-05  0.1701E-08  0.5934E-03  0.3630E-04  0.6772E+13
   -3.712525   25.68403  0.4643E-14  0.1878E-05  0.1777E-08  0.6044E-03  0.3296E-04 -0.1103E+14
   -3.825023   25.68409  0.4643E-14  0.1905E-05  0.1891E-08  0.6107E-03  0.2985E-04 -0.1804E+14
   -3.937521   25.68418  0.4643E-14  0.1930E-05  0.2058E-08  0.6071E-03  0.2692E-04 -0.2589E+14
   -4.050018   25.68431  0.4643E-14  0.1950E-05  0.2302E-08  0.5810E-03  0.2420E-04 -0.3903E+14
   -4.162514   25.68449  0.4643E-14  0.1948E-05  0.2699E-08  0.5193E-03  0.2171E-04 -0.6416E+14
   -4.275009   25.68479  0.4643E-14  0.1876E-05  0.3589E-08  0.2511E-03  0.1891E-04 -0.1359E+15
   -4.387503   25.68542  0.4643E-14  0.8559E-06  0.1268E-07  0.1241E-04  0.1541E-04 -0.2854E+16
   -4.499996   25.70048  0.4643E-14  0.0000E+00  0.0000E+00  0.0000E+00  0.1570E-04  0.0000E+00
