 1 - depth, m
 2 - temperature, C
 3 - salinity, kg/kg
 4 - turbulent kinetic energy, m**2/s**2
 5 - dissipation rate, m**2/s**3
 6 - kinematic heat conductance, m**2/s
 7 - modulus of horizontal velocity, m/s
 8 - Richardson number, n/d
   -0.000000   29.71102  0.3155E-14  0.4714E-05  0.1105E-06  0.4287E-04  0.4646E-02 -0.1888E+01
   -0.112493   29.76277  0.3155E-14  0.7604E-05  0.4584E-07  0.4650E-03  0.1547E-02 -0.4148E+01
   -0.224988   29.76688  0.3155E-14  0.8114E-05  0.3521E-07  0.6444E-03  0.1250E-02  0.1084E+06
   -0.337483   29.76938  0.3155E-14  0.8313E-05  0.2912E-07  0.7968E-03  0.1079E-02  0.2141E+05
   -0.449980   29.77110  0.3155E-14  0.8336E-05  0.2485E-07  0.9254E-03  0.9520E-03  0.3208E+05
   -0.562477   29.77236  0.3155E-14  0.8249E-05  0.2159E-07  0.1034E-02  0.8518E-03  0.3813E+05
   -0.674975   29.77331  0.3155E-14  0.8091E-05  0.1899E-07  0.1127E-02  0.7695E-03  0.2903E+05
   -0.787474   29.77405  0.3155E-14  0.7886E-05  0.1685E-07  0.1204E-02  0.7002E-03  0.1013E+05
   -0.899974   29.77464  0.3155E-14  0.7643E-05  0.1502E-07  0.1247E-02  0.6405E-03  0.1265E+04
   -1.012474   29.77511  0.3155E-14  0.7362E-05  0.1341E-07  0.1261E-02  0.5847E-03  0.8095E+03
   -1.124975   29.77550  0.3155E-14  0.7057E-05  0.1199E-07  0.1266E-02  0.5323E-03  0.1292E+03
   -1.237477   29.77582  0.3155E-14  0.6739E-05  0.1074E-07  0.1265E-02  0.4836E-03  0.1201E+04
   -1.349979   29.77607  0.3155E-14  0.6415E-05  0.9658E-08  0.1255E-02  0.4386E-03  0.2342E+03
   -1.462482   29.77625  0.3155E-14  0.6089E-05  0.8710E-08  0.1238E-02  0.3965E-03  0.5811E+02
   -1.574984   29.77633  0.3155E-14  0.5759E-05  0.7873E-08  0.1219E-02  0.3565E-03  0.1904E+04
   -1.687488   29.77618  0.3155E-14  0.5410E-05  0.7104E-08  0.1182E-02  0.3154E-03  0.3395E+03
   -1.799991   29.77457  0.3155E-14  0.5055E-05  0.6397E-08  0.1144E-02  0.2623E-03  0.4529E+03
   -1.912495   29.77049  0.3155E-14  0.4728E-05  0.5773E-08  0.1100E-02  0.2152E-03  0.3466E+05
   -2.024999   29.76570  0.3155E-14  0.4427E-05  0.5214E-08  0.1047E-02  0.1819E-03  0.4827E+07
   -2.137503   29.76087  0.3155E-14  0.4133E-05  0.4701E-08  0.9737E-03  0.1556E-03  0.6970E+09
   -2.250007   29.75622  0.3155E-14  0.3846E-05  0.4229E-08  0.9020E-03  0.1324E-03  0.1281E+12
   -2.362511   29.75112  0.3155E-14  0.3565E-05  0.3798E-08  0.8638E-03  0.1112E-03  0.2903E+14
   -2.475015   29.74500  0.3155E-14  0.3291E-05  0.3404E-08  0.8414E-03  0.9169E-04  0.4478E+15
   -2.587519   29.73854  0.3155E-14  0.3026E-05  0.3045E-08  0.8254E-03  0.7377E-04  0.6212E+15
   -2.700023   29.73173  0.3156E-14  0.2775E-05  0.2721E-08  0.8194E-03  0.5740E-04  0.6828E+15
   -2.812526   29.72464  0.3156E-14  0.2571E-05  0.2464E-08  0.8168E-03  0.4342E-04  0.7359E+15
   -2.925030   29.71856  0.3156E-14  0.2481E-05  0.2340E-08  0.8137E-03  0.3670E-04  0.8115E+15
   -3.037533   29.71346  0.3155E-14  0.2427E-05  0.2263E-08  0.8071E-03  0.3331E-04  0.8801E+15
   -3.150035   29.70886  0.3155E-14  0.2392E-05  0.2209E-08  0.7994E-03  0.3057E-04  0.7557E+15
   -3.262537   29.70539  0.3155E-14  0.2379E-05  0.2179E-08  0.7895E-03  0.2803E-04  0.3393E+15
   -3.375039   29.70396  0.3155E-14  0.2369E-05  0.2165E-08  0.7857E-03  0.2568E-04  0.2488E+15
   -3.487540   29.70310  0.3154E-14  0.2361E-05  0.2170E-08  0.7830E-03  0.2347E-04  0.2064E+15
   -3.600040   29.70241  0.3154E-14  0.2362E-05  0.2205E-08  0.7809E-03  0.2141E-04  0.1177E+15
   -3.712540   29.70202  0.3154E-14  0.2374E-05  0.2277E-08  0.7754E-03  0.1946E-04  0.2522E+13
   -3.825039   29.70203  0.3154E-14  0.2386E-05  0.2394E-08  0.7680E-03  0.1763E-04 -0.1552E+14
   -3.937537   29.70211  0.3154E-14  0.2397E-05  0.2572E-08  0.7457E-03  0.1590E-04 -0.2479E+14
   -4.050034   29.70221  0.3154E-14  0.2399E-05  0.2836E-08  0.7042E-03  0.1428E-04 -0.3914E+14
   -4.162531   29.70238  0.3154E-14  0.2376E-05  0.3282E-08  0.6293E-03  0.1278E-04 -0.6509E+14
   -4.275026   29.70264  0.3154E-14  0.2269E-05  0.4328E-08  0.2903E-03  0.1103E-04 -0.1342E+15
   -4.387521   29.70319  0.3154E-14  0.1006E-05  0.1543E-07  0.1314E-04  0.8923E-05 -0.2748E+16
   -4.500014   29.71676  0.3154E-14  0.0000E+00  0.0000E+00  0.0000E+00  0.9033E-05  0.0000E+00
