 1 - depth, m
 2 - temperature, C
 3 - salinity, kg/kg
 4 - turbulent kinetic energy, m**2/s**2
 5 - dissipation rate, m**2/s**3
 6 - kinematic heat conductance, m**2/s
 7 - modulus of horizontal velocity, m/s
 8 - Richardson number, n/d
   -0.000000   29.51238  0.5076E-15  0.4621E-05  0.1042E-06  0.4004E-04  0.5863E-02 -0.1113E+01
   -0.112493   29.56246  0.5076E-15  0.6679E-05  0.4057E-07  0.4035E-03  0.2008E-02 -0.6699E+01
   -0.224987   29.56662  0.5076E-15  0.6954E-05  0.3006E-07  0.5670E-03  0.1582E-02  0.1064E+03
   -0.337482   29.56905  0.5076E-15  0.6955E-05  0.2440E-07  0.6785E-03  0.1363E-02  0.5403E+04
   -0.449978   29.57073  0.5076E-15  0.6815E-05  0.2038E-07  0.7706E-03  0.1198E-02  0.8079E+04
   -0.562475   29.57195  0.5076E-15  0.6589E-05  0.1729E-07  0.8431E-03  0.1068E-02  0.5446E+04
   -0.674973   29.57287  0.5076E-15  0.6307E-05  0.1482E-07  0.8996E-03  0.9606E-03  0.5411E+04
   -0.787472   29.57356  0.5076E-15  0.5988E-05  0.1276E-07  0.9279E-03  0.8691E-03  0.1994E+04
   -0.899971   29.57411  0.5076E-15  0.5640E-05  0.1100E-07  0.9380E-03  0.7872E-03  0.8873E+03
   -1.012471   29.57454  0.5075E-15  0.5279E-05  0.9502E-08  0.9393E-03  0.7137E-03  0.1581E+03
   -1.124972   29.57488  0.5075E-15  0.4916E-05  0.8223E-08  0.9320E-03  0.6477E-03  0.6355E+02
   -1.237473   29.57513  0.5075E-15  0.4558E-05  0.7137E-08  0.9186E-03  0.5883E-03  0.1236E+03
   -1.349974   29.57531  0.5075E-15  0.4209E-05  0.6211E-08  0.8874E-03  0.5346E-03  0.2513E+03
   -1.462477   29.57540  0.5075E-15  0.3862E-05  0.5406E-08  0.8415E-03  0.4843E-03  0.1907E+03
   -1.574979   29.57527  0.5075E-15  0.3489E-05  0.4642E-08  0.6764E-03  0.4332E-03  0.4019E+03
   -1.687482   29.57423  0.5075E-15  0.3088E-05  0.3886E-08  0.5018E-03  0.3696E-03  0.1841E+04
   -1.799985   29.57238  0.5075E-15  0.2691E-05  0.3197E-08  0.3560E-03  0.3140E-03  0.1569E+05
   -1.912489   29.57017  0.5075E-15  0.2299E-05  0.2581E-08  0.2551E-03  0.2655E-03  0.1762E+07
   -2.024992   29.56745  0.5075E-15  0.1922E-05  0.2050E-08  0.1774E-03  0.2211E-03  0.2372E+09
   -2.137496   29.56408  0.5075E-15  0.1562E-05  0.1598E-08  0.1079E-03  0.1802E-03  0.3002E+11
   -2.249999   29.56023  0.5075E-15  0.1215E-05  0.1204E-08  0.4852E-04  0.1428E-03  0.5842E+13
   -2.362503   29.55456  0.5075E-15  0.8260E-06  0.7984E-09  0.6442E-05  0.1069E-03  0.3176E+15
   -2.475007   29.53966  0.5074E-15  0.2654E-06  0.2469E-09  0.1633E-06  0.4954E-04  0.1205E+16
   -2.587510   29.50021  0.5070E-15  0.2285E-07  0.2190E-10  0.1582E-07  0.5500E-05  0.2332E+16
   -2.700014   29.45894  0.5067E-15  0.1287E-08  0.1826E-11  0.1707E-08  0.3501E-06  0.2346E+16
   -2.812517   29.42963  0.5065E-15  0.5417E-09  0.1095E-11  0.1012E-08  0.1970E-07  0.2191E+16
   -2.925020   29.40844  0.5064E-15  0.8179E-08  0.4795E-11  0.1431E-07  0.1041E-08  0.2116E+16
   -3.037522   29.39306  0.5062E-15  0.5948E-07  0.3192E-10  0.2909E-06  0.5221E-10  0.1867E+16
   -3.150024   29.38443  0.5060E-15  0.1549E-06  0.8431E-10  0.6211E-05  0.2919E-11  0.7195E+15
   -3.262526   29.38196  0.5059E-15  0.2410E-06  0.1342E-09  0.3824E-04  0.6551E-12  0.1085E+15
   -3.375027   29.38159  0.5059E-15  0.3230E-06  0.1915E-09  0.7605E-04  0.3211E-12  0.6481E+13
   -3.487528   29.38157  0.5059E-15  0.4066E-06  0.2633E-09  0.1193E-03  0.1788E-12 -0.8426E+13
   -3.600028   29.38160  0.5059E-15  0.4950E-06  0.3555E-09  0.1694E-03  0.1049E-12 -0.1640E+14
   -3.712527   29.38165  0.5059E-15  0.5857E-06  0.4696E-09  0.2282E-03  0.6320E-13 -0.2292E+14
   -3.825026   29.38173  0.5059E-15  0.6717E-06  0.6022E-09  0.2718E-03  0.3855E-13 -0.3041E+14
   -3.937524   29.38184  0.5059E-15  0.7496E-06  0.7569E-09  0.2846E-03  0.2487E-13 -0.4212E+14
   -4.050021   29.38198  0.5059E-15  0.8190E-06  0.9527E-09  0.2784E-03  0.1638E-13 -0.6003E+14
   -4.162517   29.38219  0.5059E-15  0.8718E-06  0.1223E-08  0.2525E-03  0.1044E-13 -0.9087E+14
   -4.275012   29.38250  0.5059E-15  0.8856E-06  0.1714E-08  0.1901E-03  0.6402E-14 -0.1684E+15
   -4.387506   29.38308  0.5059E-15  0.4914E-06  0.5320E-08  0.1123E-04  0.3272E-14 -0.4107E+16
   -4.499999   29.39720  0.5058E-15  0.0000E+00  0.0000E+00  0.0000E+00  0.3291E-14  0.0000E+00
