 1 - depth, m
 2 - temperature, C
 3 - salinity, kg/kg
 4 - turbulent kinetic energy, m**2/s**2
 5 - dissipation rate, m**2/s**3
 6 - kinematic heat conductance, m**2/s
 7 - modulus of horizontal velocity, m/s
 8 - Richardson number, n/d
   -0.000000   26.65267  0.8381E-14  0.5426E-05  0.1263E-06  0.4136E-04  0.7127E-02 -0.7534E+00
   -0.112493   26.70467  0.8381E-14  0.7478E-05  0.4673E-07  0.4031E-03  0.2475E-02 -0.4278E+01
   -0.224987   26.70939  0.8381E-14  0.7819E-05  0.3431E-07  0.6260E-03  0.1905E-02  0.9911E+04
   -0.337482   26.71189  0.8380E-14  0.7916E-05  0.2806E-07  0.7567E-03  0.1642E-02  0.1780E+05
   -0.449978   26.71365  0.8380E-14  0.7881E-05  0.2372E-07  0.8744E-03  0.1444E-02  0.3426E+05
   -0.562475   26.71495  0.8380E-14  0.7759E-05  0.2046E-07  0.9739E-03  0.1287E-02  0.2327E+03
   -0.674972   26.71594  0.8380E-14  0.7580E-05  0.1788E-07  0.1058E-02  0.1158E-02  0.8557E+02
   -0.787471   26.71672  0.8380E-14  0.7364E-05  0.1578E-07  0.1129E-02  0.1048E-02  0.6065E+02
   -0.899970   26.71733  0.8380E-14  0.7125E-05  0.1403E-07  0.1188E-02  0.9551E-03  0.8056E+02
   -1.012470   26.71782  0.8380E-14  0.6869E-05  0.1254E-07  0.1234E-02  0.8742E-03  0.8925E+03
   -1.124971   26.71822  0.8380E-14  0.6590E-05  0.1122E-07  0.1225E-02  0.8004E-03  0.6827E+03
   -1.237472   26.71855  0.8380E-14  0.6288E-05  0.1003E-07  0.1197E-02  0.7291E-03  0.4481E+03
   -1.349973   26.71883  0.8380E-14  0.5972E-05  0.8969E-08  0.1166E-02  0.6609E-03  0.9271E+03
   -1.462475   26.71906  0.8380E-14  0.5650E-05  0.8025E-08  0.1132E-02  0.5968E-03  0.8813E+03
   -1.574978   26.71924  0.8380E-14  0.5328E-05  0.7193E-08  0.1091E-02  0.5369E-03  0.1967E+03
   -1.687481   26.71937  0.8380E-14  0.5008E-05  0.6463E-08  0.1047E-02  0.4810E-03  0.1970E+03
   -1.799984   26.71944  0.8380E-14  0.4691E-05  0.5819E-08  0.9981E-03  0.4284E-03  0.3936E+03
   -1.912487   26.71942  0.8380E-14  0.4371E-05  0.5243E-08  0.9494E-03  0.3781E-03  0.1296E+03
   -2.024990   26.71911  0.8380E-14  0.4031E-05  0.4702E-08  0.8918E-03  0.3267E-03  0.1610E+03
   -2.137494   26.71710  0.8380E-14  0.3680E-05  0.4191E-08  0.8234E-03  0.2636E-03  0.7907E+03
   -2.249997   26.71189  0.8379E-14  0.3359E-05  0.3735E-08  0.7475E-03  0.2093E-03  0.7694E+05
   -2.362501   26.70518  0.8378E-14  0.3064E-05  0.3322E-08  0.6637E-03  0.1705E-03  0.1561E+08
   -2.475005   26.69788  0.8378E-14  0.2788E-05  0.2943E-08  0.6218E-03  0.1418E-03  0.3222E+10
   -2.587508   26.69064  0.8377E-14  0.2523E-05  0.2594E-08  0.5938E-03  0.1185E-03  0.7480E+12
   -2.700011   26.68310  0.8377E-14  0.2267E-05  0.2272E-08  0.5760E-03  0.9796E-04  0.1952E+15
   -2.812514   26.67503  0.8376E-14  0.2024E-05  0.1978E-08  0.5668E-03  0.7964E-04  0.6949E+15
   -2.925017   26.66667  0.8376E-14  0.1849E-05  0.1770E-08  0.5624E-03  0.6522E-04  0.9596E+15
   -3.037520   26.65931  0.8375E-14  0.1773E-05  0.1671E-08  0.5558E-03  0.5740E-04  0.1097E+16
   -3.150022   26.65274  0.8375E-14  0.1722E-05  0.1604E-08  0.5493E-03  0.5209E-04  0.1141E+16
   -3.262523   26.64674  0.8374E-14  0.1676E-05  0.1547E-08  0.5404E-03  0.4747E-04  0.1027E+16
   -3.375024   26.64195  0.8374E-14  0.1632E-05  0.1500E-08  0.5313E-03  0.4332E-04  0.1318E+16
   -3.487525   26.63646  0.8373E-14  0.1589E-05  0.1461E-08  0.5191E-03  0.3952E-04  0.1647E+16
   -3.600025   26.63019  0.8372E-14  0.1550E-05  0.1432E-08  0.5060E-03  0.3607E-04  0.1628E+16
   -3.712524   26.62399  0.8370E-14  0.1527E-05  0.1427E-08  0.4913E-03  0.3291E-04  0.1049E+16
   -3.825022   26.62000  0.8368E-14  0.1529E-05  0.1459E-08  0.4189E-03  0.3001E-04  0.3407E+15
   -3.937520   26.61871  0.8367E-14  0.1528E-05  0.1539E-08  0.2727E-03  0.2675E-04  0.1400E+15
   -4.050017   26.61819  0.8367E-14  0.1521E-05  0.1713E-08  0.2199E-03  0.2291E-04 -0.1929E+14
   -4.162513   26.61828  0.8366E-14  0.1509E-05  0.2070E-08  0.1934E-03  0.1903E-04 -0.7172E+14
   -4.275008   26.61858  0.8366E-14  0.1453E-05  0.2860E-08  0.1440E-03  0.1532E-04 -0.1730E+15
   -4.387502   26.61931  0.8366E-14  0.6878E-06  0.9636E-08  0.1087E-04  0.1194E-04 -0.2727E+16
   -4.499995   26.63233  0.8366E-14  0.0000E+00  0.0000E+00  0.0000E+00  0.1220E-04  0.0000E+00
