 1 - depth, m
 2 - temperature, C
 3 - salinity, kg/kg
 4 - turbulent kinetic energy, m**2/s**2
 5 - dissipation rate, m**2/s**3
 6 - kinematic heat conductance, m**2/s
 7 - modulus of horizontal velocity, m/s
 8 - Richardson number, n/d
   -0.000000   27.71295  0.2927E-14  0.3344E-05  0.6082E-07  0.3249E-04  0.6823E-02 -0.7389E+00
   -0.112493   27.74379  0.2927E-14  0.3540E-05  0.2097E-07  0.1613E-03  0.2928E-02 -0.3259E+01
   -0.224987   27.74843  0.2927E-14  0.3292E-05  0.1308E-07  0.2656E-03  0.2147E-02 -0.5247E+01
   -0.337482   27.75045  0.2927E-14  0.2944E-05  0.9222E-08  0.2966E-03  0.1750E-02 -0.5661E+01
   -0.449978   27.75166  0.2927E-14  0.2555E-05  0.6723E-08  0.2890E-03  0.1482E-02 -0.3406E+01
   -0.562475   27.75242  0.2927E-14  0.2146E-05  0.4909E-08  0.2502E-03  0.1274E-02 -0.3037E+01
   -0.674973   27.75286  0.2927E-14  0.1720E-05  0.3503E-08  0.1715E-03  0.1102E-02 -0.3430E+01
   -0.787471   27.75290  0.2927E-14  0.1235E-05  0.2321E-08  0.8728E-04  0.9377E-03  0.8818E+01
   -0.899970   27.74426  0.2927E-14  0.7340E-06  0.1333E-08  0.2937E-04  0.6184E-03  0.4353E+03
   -1.012470   27.69029  0.2925E-14  0.2989E-06  0.5494E-09  0.2016E-05  0.2968E-03  0.6770E+05
   -1.124971   27.58769  0.2922E-14  0.3625E-07  0.6521E-10  0.1114E-07  0.8510E-04  0.5991E+07
   -1.237472   27.48244  0.2921E-14  0.1170E-08  0.2971E-11  0.5657E-09  0.8195E-05  0.5682E+09
   -1.349974   27.39240  0.2921E-14  0.1536E-10  0.1009E-11  0.1049E-09  0.6584E-06  0.5702E+11
   -1.462476   27.31301  0.2921E-14  0.4419E-11  0.1000E-11  0.1000E-09  0.5201E-07  0.6141E+13
   -1.574978   27.24220  0.2921E-14  0.4419E-11  0.1000E-11  0.1000E-09  0.4052E-08  0.7058E+15
   -1.687481   27.17887  0.2920E-14  0.4419E-11  0.1000E-11  0.1000E-09  0.3093E-09  0.9098E+16
   -1.799984   27.12212  0.2920E-14  0.4419E-11  0.1000E-11  0.1000E-09  0.2301E-10  0.1149E+17
   -1.912487   27.07127  0.2920E-14  0.4419E-11  0.1000E-11  0.1000E-09  0.1662E-11  0.1221E+17
   -2.024991   27.02615  0.2920E-14  0.4419E-11  0.1000E-11  0.1000E-09  0.1160E-12  0.1050E+17
   -2.137494   26.98728  0.2920E-14  0.4419E-11  0.1000E-11  0.1000E-09  0.7820E-14  0.8141E+16
   -2.249998   26.95712  0.2920E-14  0.4419E-11  0.1000E-11  0.1000E-09  0.5076E-15  0.7798E+16
   -2.362501   26.92819  0.2919E-14  0.4419E-11  0.1000E-11  0.1000E-09  0.3166E-16  0.8573E+16
   -2.475005   26.89635  0.2919E-14  0.4419E-11  0.1000E-11  0.1000E-09  0.1919E-17  0.8429E+16
   -2.587509   26.86502  0.2919E-14  0.4419E-11  0.1000E-11  0.1000E-09  0.1114E-18  0.8103E+16
   -2.700012   26.83486  0.2918E-14  0.4419E-11  0.1000E-11  0.1000E-09  0.6174E-20  0.7802E+16
   -2.812515   26.80579  0.2918E-14  0.4419E-11  0.1000E-11  0.1000E-09  0.3254E-21  0.7591E+16
   -2.925018   26.77748  0.2917E-14  0.4419E-11  0.1000E-11  0.1000E-09  0.1624E-22  0.7484E+16
   -3.037520   26.74954  0.2916E-14  0.4419E-11  0.1000E-11  0.1000E-09  0.7657E-24  0.7270E+16
   -3.150022   26.72236  0.2914E-14  0.4419E-11  0.1000E-11  0.1000E-09  0.3396E-25  0.6542E+16
   -3.262524   26.69789  0.2911E-14  0.4419E-11  0.1000E-11  0.1000E-09  0.1408E-26  0.4786E+16
   -3.375025   26.67997  0.2908E-14  0.7838E-09  0.1221E-11  0.1287E-08  0.5428E-28  0.4103E+16
   -3.487525   26.66460  0.2906E-14  0.1349E-07  0.9578E-11  0.2379E-07  0.1933E-29  0.3140E+16
   -3.600025   26.65284  0.2903E-14  0.8159E-07  0.5644E-10  0.1429E-05  0.6375E-31  0.8621E+15
   -3.712525   26.64961  0.2902E-14  0.1626E-06  0.1152E-09  0.2787E-04  0.2605E-32  0.1384E+15
   -3.825023   26.64909  0.2901E-14  0.2393E-06  0.1893E-09  0.6434E-04  0.4731E-33 -0.1165E+14
   -3.937521   26.64913  0.2901E-14  0.3167E-06  0.2916E-09  0.9809E-04  0.1999E-33 -0.3124E+14
   -4.050018   26.64925  0.2901E-14  0.3952E-06  0.4377E-09  0.1196E-03  0.9356E-34 -0.5212E+14
   -4.162514   26.64944  0.2901E-14  0.4696E-06  0.6601E-09  0.1234E-03  0.4378E-34 -0.8976E+14
   -4.275009   26.64978  0.2901E-14  0.5214E-06  0.1059E-08  0.9876E-04  0.1921E-34 -0.1930E+15
   -4.387503   26.65051  0.2901E-14  0.3465E-06  0.3390E-08  0.9501E-05  0.7341E-35 -0.3580E+16
   -4.499996   26.66393  0.2901E-14  0.0000E+00  0.0000E+00  0.0000E+00  0.7328E-35  0.0000E+00
