 1 - depth, m
 2 - temperature, C
 3 - salinity, kg/kg
 4 - turbulent kinetic energy, m**2/s**2
 5 - dissipation rate, m**2/s**3
 6 - kinematic heat conductance, m**2/s
 7 - modulus of horizontal velocity, m/s
 8 - Richardson number, n/d
   -0.000000   29.62571  0.1034E-14  0.4952E-05  0.1096E-06  0.4307E-04  0.6307E-02 -0.1143E+01
   -0.112493   29.67234  0.1033E-14  0.6668E-05  0.4211E-07  0.3600E-03  0.2372E-02 -0.8311E+01
   -0.224987   29.67702  0.1033E-14  0.6847E-05  0.3055E-07  0.5456E-03  0.1838E-02  0.1105E+03
   -0.337482   29.67950  0.1033E-14  0.6789E-05  0.2453E-07  0.6474E-03  0.1585E-02  0.3942E+04
   -0.449978   29.68120  0.1033E-14  0.6601E-05  0.2031E-07  0.7305E-03  0.1398E-02  0.5598E+04
   -0.562475   29.68241  0.1033E-14  0.6330E-05  0.1707E-07  0.7926E-03  0.1250E-02  0.3545E+04
   -0.674973   29.68331  0.1033E-14  0.5997E-05  0.1443E-07  0.8167E-03  0.1123E-02  0.2513E+04
   -0.787471   29.68401  0.1033E-14  0.5622E-05  0.1223E-07  0.8204E-03  0.1010E-02  0.8310E+03
   -0.899970   29.68455  0.1033E-14  0.5226E-05  0.1039E-07  0.8156E-03  0.9083E-03  0.8195E+02
   -1.012470   29.68497  0.1033E-14  0.4824E-05  0.8842E-08  0.8013E-03  0.8177E-03  0.2540E+03
   -1.124971   29.68527  0.1033E-14  0.4424E-05  0.7552E-08  0.7772E-03  0.7362E-03  0.5643E+02
   -1.237472   29.68545  0.1033E-14  0.4028E-05  0.6463E-08  0.7360E-03  0.6617E-03  0.3740E+02
   -1.349973   29.68543  0.1033E-14  0.3611E-05  0.5489E-08  0.6780E-03  0.5889E-03  0.2172E+04
   -1.462476   29.68383  0.1033E-14  0.3182E-05  0.4600E-08  0.5953E-03  0.4846E-03  0.3242E+03
   -1.574978   29.67821  0.1033E-14  0.2792E-05  0.3834E-08  0.5074E-03  0.3856E-03  0.4167E+04
   -1.687481   29.67162  0.1033E-14  0.2416E-05  0.3146E-08  0.4381E-03  0.3173E-03  0.4738E+06
   -1.799984   29.66423  0.1033E-14  0.2035E-05  0.2508E-08  0.2502E-03  0.2571E-03  0.6218E+08
   -1.912487   29.65554  0.1033E-14  0.1653E-05  0.1923E-08  0.1694E-03  0.1985E-03  0.8822E+10
   -2.024991   29.64527  0.1033E-14  0.1289E-05  0.1412E-08  0.1202E-03  0.1418E-03  0.1345E+13
   -2.137494   29.63326  0.1033E-14  0.9829E-06  0.1014E-08  0.8021E-04  0.8874E-04  0.1934E+15
   -2.249998   29.62349  0.1033E-14  0.8177E-06  0.8185E-09  0.3991E-04  0.6568E-04  0.6935E+15
   -2.362501   29.61403  0.1033E-14  0.6014E-06  0.5896E-09  0.1001E-04  0.5303E-04  0.1420E+16
   -2.475005   29.59587  0.1033E-14  0.2783E-06  0.2667E-09  0.2201E-06  0.3076E-04  0.3192E+16
   -2.587508   29.56180  0.1032E-14  0.3437E-07  0.3352E-10  0.2141E-07  0.5654E-05  0.6082E+16
   -2.700012   29.51670  0.1032E-14  0.2243E-08  0.2951E-11  0.2560E-08  0.4222E-06  0.6367E+16
   -2.812515   29.48172  0.1032E-14  0.4719E-10  0.1000E-11  0.2400E-09  0.2480E-07  0.5782E+16
   -2.925018   29.45424  0.1032E-14  0.4419E-11  0.1000E-11  0.1000E-09  0.1336E-08  0.5003E+16
   -3.037520   29.43069  0.1031E-14  0.4419E-11  0.1000E-11  0.1000E-09  0.6769E-10  0.5048E+16
   -3.150022   29.40976  0.1031E-14  0.4419E-11  0.1000E-11  0.1000E-09  0.3214E-11  0.5272E+16
   -3.262524   29.39165  0.1031E-14  0.4419E-11  0.1000E-11  0.1000E-09  0.1421E-12  0.4005E+16
   -3.375025   29.37789  0.1031E-14  0.4419E-11  0.1000E-11  0.1000E-09  0.5818E-14  0.4631E+16
   -3.487525   29.36197  0.1031E-14  0.1061E-08  0.1597E-11  0.1343E-08  0.2189E-15  0.5525E+16
   -3.600025   29.34296  0.1031E-14  0.1805E-07  0.1442E-10  0.2348E-07  0.7611E-17  0.4968E+16
   -3.712524   29.32586  0.1031E-14  0.8570E-07  0.6926E-10  0.3558E-05  0.2431E-18  0.1809E+16
   -3.825023   29.31962  0.1031E-14  0.1853E-06  0.1557E-09  0.3080E-04  0.7203E-20  0.4133E+14
   -3.937521   29.31948  0.1031E-14  0.2767E-06  0.2631E-09  0.7427E-04  0.2005E-20 -0.2935E+14
   -4.050018   29.31958  0.1031E-14  0.3614E-06  0.4108E-09  0.1038E-03  0.8015E-21 -0.5323E+14
   -4.162514   29.31976  0.1031E-14  0.4414E-06  0.6343E-09  0.1135E-03  0.3403E-21 -0.9277E+14
   -4.275009   29.32008  0.1031E-14  0.4986E-06  0.1031E-08  0.9346E-04  0.1390E-21 -0.1991E+15
   -4.387503   29.32077  0.1030E-14  0.3383E-06  0.3300E-08  0.9385E-05  0.4981E-22 -0.3555E+16
   -4.499996   29.33301  0.1030E-14  0.0000E+00  0.0000E+00  0.0000E+00  0.4951E-22  0.0000E+00
