 1 - depth, m
 2 - temperature, C
 3 - salinity, kg/kg
 4 - turbulent kinetic energy, m**2/s**2
 5 - dissipation rate, m**2/s**3
 6 - kinematic heat conductance, m**2/s
 7 - modulus of horizontal velocity, m/s
 8 - Richardson number, n/d
   -0.000000   29.88910  0.5073E-15  0.5915E-05  0.1425E-06  0.4322E-04  0.7459E-02 -0.7474E+00
   -0.112493   29.94014  0.5073E-15  0.8168E-05  0.5282E-07  0.4396E-03  0.2588E-02 -0.4418E+01
   -0.224987   29.94454  0.5073E-15  0.8567E-05  0.3887E-07  0.6587E-03  0.2011E-02  0.3532E+04
   -0.337482   29.94701  0.5073E-15  0.8693E-05  0.3184E-07  0.7992E-03  0.1737E-02  0.7936E+04
   -0.449978   29.94875  0.5073E-15  0.8672E-05  0.2697E-07  0.9256E-03  0.1530E-02  0.5323E+02
   -0.562475   29.95005  0.5073E-15  0.8554E-05  0.2330E-07  0.1033E-02  0.1367E-02  0.2675E+02
   -0.674973   29.95106  0.5073E-15  0.8367E-05  0.2038E-07  0.1124E-02  0.1231E-02  0.1978E+02
   -0.787472   29.95185  0.5073E-15  0.8133E-05  0.1798E-07  0.1201E-02  0.1116E-02  0.1656E+02
   -0.899971   29.95249  0.5073E-15  0.7866E-05  0.1596E-07  0.1264E-02  0.1018E-02  0.1483E+02
   -1.012471   29.95302  0.5073E-15  0.7578E-05  0.1423E-07  0.1316E-02  0.9310E-03  0.1387E+02
   -1.124972   29.95345  0.5073E-15  0.7275E-05  0.1274E-07  0.1357E-02  0.8547E-03  0.1401E+02
   -1.237473   29.95380  0.5073E-15  0.6963E-05  0.1143E-07  0.1389E-02  0.7870E-03  0.5285E+03
   -1.349975   29.95409  0.5073E-15  0.6642E-05  0.1027E-07  0.1386E-02  0.7253E-03  0.3031E+03
   -1.462477   29.95434  0.5073E-15  0.6312E-05  0.9220E-08  0.1374E-02  0.6673E-03  0.1015E+03
   -1.574980   29.95454  0.5073E-15  0.5981E-05  0.8285E-08  0.1360E-02  0.6134E-03  0.1755E+03
   -1.687482   29.95471  0.5073E-15  0.5654E-05  0.7458E-08  0.1343E-02  0.5638E-03  0.4102E+02
   -1.799986   29.95484  0.5073E-15  0.5337E-05  0.6730E-08  0.1322E-02  0.5186E-03  0.3784E+02
   -1.912489   29.95494  0.5073E-15  0.5021E-05  0.6075E-08  0.1224E-02  0.4775E-03  0.1135E+04
   -2.024993   29.95501  0.5073E-15  0.4690E-05  0.5454E-08  0.1051E-02  0.4376E-03  0.1535E+04
   -2.137496   29.95505  0.5073E-15  0.4339E-05  0.4857E-08  0.8655E-03  0.3978E-03  0.2071E+03
   -2.250000   29.95505  0.5073E-15  0.3966E-05  0.4285E-08  0.6062E-03  0.3582E-03  0.6860E+04
   -2.362504   29.95493  0.5073E-15  0.3566E-05  0.3736E-08  0.3678E-03  0.3183E-03  0.7505E+02
   -2.475008   29.95446  0.5073E-15  0.3123E-05  0.3197E-08  0.2250E-03  0.2773E-03  0.1903E+03
   -2.587511   29.94835  0.5072E-15  0.2443E-05  0.2460E-08  0.1177E-03  0.2165E-03  0.1259E+05
   -2.700015   29.92620  0.5070E-15  0.1653E-05  0.1642E-08  0.4656E-04  0.1418E-03  0.1185E+08
   -2.812518   29.87934  0.5066E-15  0.9233E-06  0.9056E-09  0.7555E-05  0.7092E-04  0.4879E+10
   -2.925021   29.81960  0.5060E-15  0.3160E-06  0.3047E-09  0.9001E-07  0.2502E-04  0.9354E+12
   -3.037523   29.76594  0.5054E-15  0.3221E-07  0.3174E-10  0.1286E-07  0.2611E-05  0.1989E+15
   -3.150025   29.73404  0.5051E-15  0.2329E-08  0.2838E-11  0.2517E-08  0.1436E-06  0.9441E+15
   -3.262527   29.71638  0.5048E-15  0.6136E-08  0.3785E-11  0.2382E-07  0.6174E-08  0.8734E+15
   -3.375028   29.70828  0.5046E-15  0.4094E-07  0.2311E-10  0.4701E-06  0.2370E-09  0.7067E+15
   -3.487529   29.70403  0.5044E-15  0.1089E-06  0.6304E-10  0.7330E-05  0.8375E-11  0.3634E+15
   -3.600029   29.70252  0.5043E-15  0.1872E-06  0.1142E-09  0.3506E-04  0.2896E-12  0.5704E+14
   -3.712528   29.70232  0.5043E-15  0.2610E-06  0.1755E-09  0.7912E-04  0.2642E-13 -0.1105E+14
   -3.825027   29.70236  0.5043E-15  0.3317E-06  0.2541E-09  0.1195E-03  0.9271E-14 -0.2181E+14
   -3.937525   29.70243  0.5043E-15  0.4033E-06  0.3582E-09  0.1518E-03  0.3903E-14 -0.3297E+14
   -4.050022   29.70255  0.5043E-15  0.4729E-06  0.4997E-09  0.1687E-03  0.1741E-14 -0.4926E+14
   -4.162518   29.70271  0.5043E-15  0.5340E-06  0.7073E-09  0.1604E-03  0.7762E-15 -0.8091E+14
   -4.275013   29.70299  0.5043E-15  0.5683E-06  0.1078E-08  0.1183E-03  0.3235E-15 -0.1701E+15
   -4.387507   29.70357  0.5043E-15  0.3511E-06  0.3369E-08  0.9578E-05  0.1152E-15 -0.3408E+16
   -4.500000   29.71517  0.5042E-15  0.0000E+00  0.0000E+00  0.0000E+00  0.1086E-15  0.0000E+00
