 1 - depth, m
 2 - temperature, C
 3 - salinity, kg/kg
 4 - turbulent kinetic energy, m**2/s**2
 5 - dissipation rate, m**2/s**3
 6 - kinematic heat conductance, m**2/s
 7 - modulus of horizontal velocity, m/s
 8 - Richardson number, n/d
   -0.000000   28.96243  0.1535E-14  0.2552E-05  0.6023E-07  0.2547E-04  0.5417E-03 -0.2726E+03
   -0.112494   29.02566  0.1536E-14  0.5289E-05  0.2656E-07  0.4004E-03  0.1385E-03 -0.4036E+04
   -0.224989   29.02901  0.1536E-14  0.5647E-05  0.2099E-07  0.5348E-03  0.1143E-03  0.1358E+08
   -0.337484   29.03109  0.1536E-14  0.5726E-05  0.1743E-07  0.6460E-03  0.9845E-04  0.3837E+07
   -0.449981   29.03251  0.1536E-14  0.5653E-05  0.1479E-07  0.7320E-03  0.8677E-04  0.2051E+07
   -0.562479   29.03354  0.1536E-14  0.5488E-05  0.1270E-07  0.7982E-03  0.7753E-04  0.3763E+07
   -0.674977   29.03432  0.1536E-14  0.5266E-05  0.1099E-07  0.8483E-03  0.6993E-04  0.3219E+07
   -0.787477   29.03491  0.1536E-14  0.5004E-05  0.9530E-08  0.8698E-03  0.6352E-04  0.1027E+07
   -0.899977   29.03537  0.1536E-14  0.4713E-05  0.8270E-08  0.8734E-03  0.5794E-04  0.6647E+06
   -1.012477   29.03573  0.1536E-14  0.4408E-05  0.7185E-08  0.8677E-03  0.5304E-04  0.7326E+05
   -1.124979   29.03600  0.1536E-14  0.4100E-05  0.6255E-08  0.8541E-03  0.4875E-04  0.6575E+05
   -1.237480   29.03621  0.1536E-14  0.3786E-05  0.5440E-08  0.7971E-03  0.4497E-04  0.1221E+06
   -1.349983   29.03634  0.1536E-14  0.3452E-05  0.4689E-08  0.6679E-03  0.4106E-04  0.2956E+05
   -1.462486   29.03639  0.1536E-14  0.3095E-05  0.3991E-08  0.5694E-03  0.3713E-04  0.1295E+06
   -1.574989   29.03605  0.1536E-14  0.2728E-05  0.3364E-08  0.4589E-03  0.3316E-04  0.9161E+06
   -1.687492   29.03468  0.1536E-14  0.2362E-05  0.2807E-08  0.3181E-03  0.2927E-04  0.1062E+07
   -1.799996   29.03244  0.1537E-14  0.1949E-05  0.2249E-08  0.1624E-03  0.2516E-04  0.1158E+09
   -1.912500   29.02287  0.1538E-14  0.1395E-05  0.1583E-08  0.7625E-04  0.1534E-04  0.3791E+11
   -2.025005   28.99727  0.1540E-14  0.8552E-06  0.9692E-09  0.2968E-04  0.8143E-05  0.1413E+14
   -2.137509   28.95339  0.1544E-14  0.4743E-06  0.5329E-09  0.3938E-05  0.4689E-05  0.9381E+15
   -2.250013   28.91429  0.1546E-14  0.1346E-06  0.1494E-09  0.5228E-07  0.1824E-05  0.1400E+16
   -2.362518   28.87823  0.1548E-14  0.1140E-07  0.1335E-10  0.6267E-08  0.2233E-06  0.1870E+16
   -2.475022   28.84701  0.1548E-14  0.5095E-09  0.1468E-11  0.5053E-09  0.1438E-07  0.3662E+16
   -2.587526   28.81863  0.1548E-14  0.8539E-11  0.1000E-11  0.1076E-09  0.7378E-09  0.5567E+16
   -2.700031   28.79198  0.1547E-14  0.4419E-11  0.1000E-11  0.1000E-09  0.3621E-10  0.6159E+16
   -2.812534   28.76699  0.1547E-14  0.4419E-11  0.1000E-11  0.1000E-09  0.1730E-11  0.6557E+16
   -2.925038   28.74393  0.1547E-14  0.4419E-11  0.1000E-11  0.1000E-09  0.8001E-13  0.5885E+16
   -3.037541   28.72330  0.1546E-14  0.4419E-11  0.1000E-11  0.1000E-09  0.3555E-14  0.4919E+16
   -3.150044   28.70605  0.1546E-14  0.1440E-09  0.1010E-11  0.5112E-09  0.1505E-15  0.3673E+16
   -3.262546   28.69317  0.1545E-14  0.2864E-08  0.2124E-11  0.1298E-07  0.6010E-17  0.2070E+16
   -3.375048   28.68591  0.1545E-14  0.2148E-07  0.1234E-10  0.2247E-06  0.2246E-18  0.1445E+16
   -3.487550   28.68084  0.1544E-14  0.7614E-07  0.4424E-10  0.3343E-05  0.7801E-20  0.6669E+15
   -3.600050   28.67850  0.1544E-14  0.1359E-06  0.8229E-10  0.2374E-04  0.2574E-21  0.2804E+15
   -3.712550   28.67751  0.1543E-14  0.2012E-06  0.1348E-09  0.5457E-04  0.1064E-22  0.3855E+14
   -3.825050   28.67738  0.1543E-14  0.2714E-06  0.2058E-09  0.8932E-04  0.1786E-23 -0.1723E+14
   -3.937548   28.67744  0.1543E-14  0.3417E-06  0.3024E-09  0.1188E-03  0.7703E-24 -0.3092E+14
   -4.050046   28.67755  0.1543E-14  0.4127E-06  0.4387E-09  0.1361E-03  0.3629E-24 -0.4925E+14
   -4.162543   28.67772  0.1543E-14  0.4788E-06  0.6452E-09  0.1345E-03  0.1701E-24 -0.8355E+14
   -4.275038   28.67802  0.1543E-14  0.5222E-06  0.1017E-08  0.1041E-03  0.7426E-25 -0.1789E+15
   -4.387533   28.67864  0.1543E-14  0.3387E-06  0.3248E-08  0.9401E-05  0.2797E-25 -0.3430E+16
   -4.500027   28.69069  0.1543E-14  0.0000E+00  0.0000E+00  0.0000E+00  0.2820E-25  0.0000E+00
