 1 - depth, m
 2 - temperature, C
 3 - salinity, kg/kg
 4 - turbulent kinetic energy, m**2/s**2
 5 - dissipation rate, m**2/s**3
 6 - kinematic heat conductance, m**2/s
 7 - modulus of horizontal velocity, m/s
 8 - Richardson number, n/d
   -0.000000   26.67236  0.2925E-14  0.3286E-05  0.5461E-07  0.3497E-04  0.6252E-02 -0.7583E+00
   -0.112493   26.69932  0.2925E-14  0.3534E-05  0.1962E-07  0.1714E-03  0.2736E-02 -0.3192E+01
   -0.224987   26.70350  0.2924E-14  0.3337E-05  0.1255E-07  0.2800E-03  0.1987E-02 -0.4344E+01
   -0.337482   26.70538  0.2924E-14  0.3051E-05  0.9079E-08  0.3158E-03  0.1599E-02  0.1275E+05
   -0.449978   26.70650  0.2924E-14  0.2728E-05  0.6813E-08  0.3195E-03  0.1327E-02  0.1108E+05
   -0.562475   26.70720  0.2924E-14  0.2392E-05  0.5201E-08  0.3009E-03  0.1114E-02  0.7208E+03
   -0.674973   26.70757  0.2924E-14  0.2040E-05  0.4003E-08  0.2709E-03  0.9338E-03  0.6647E+02
   -0.787471   26.70637  0.2924E-14  0.1681E-05  0.3059E-08  0.2466E-03  0.7112E-03  0.8927E+02
   -0.899971   26.69454  0.2924E-14  0.1381E-05  0.2349E-08  0.2443E-03  0.4557E-03  0.2236E+04
   -1.012471   26.66516  0.2923E-14  0.1231E-05  0.1948E-08  0.2463E-03  0.2919E-03  0.1827E+06
   -1.124971   26.63962  0.2923E-14  0.1137E-05  0.1678E-08  0.2472E-03  0.2300E-03  0.1608E+08
   -1.237472   26.61815  0.2923E-14  0.1055E-05  0.1456E-08  0.2421E-03  0.1944E-03  0.1643E+10
   -1.349974   26.59785  0.2923E-14  0.9771E-06  0.1264E-08  0.2282E-03  0.1682E-03  0.1678E+12
   -1.462476   26.57953  0.2923E-14  0.9017E-06  0.1095E-08  0.2097E-03  0.1472E-03  0.1813E+14
   -1.574979   26.56312  0.2923E-14  0.8272E-06  0.9443E-09  0.1876E-03  0.1291E-03  0.1158E+16
   -1.687482   26.54843  0.2923E-14  0.7534E-06  0.8089E-09  0.1629E-03  0.1129E-03  0.3144E+16
   -1.799985   26.53523  0.2923E-14  0.6798E-06  0.6870E-09  0.1346E-03  0.9799E-04  0.2956E+16
   -1.912488   26.52332  0.2923E-14  0.6065E-06  0.5772E-09  0.1032E-03  0.8411E-04  0.2699E+16
   -2.024992   26.51260  0.2922E-14  0.5342E-06  0.4797E-09  0.7976E-04  0.7108E-04  0.2414E+16
   -2.137495   26.50305  0.2922E-14  0.4645E-06  0.3951E-09  0.6314E-04  0.5912E-04  0.1917E+16
   -2.249999   26.49546  0.2922E-14  0.3973E-06  0.3218E-09  0.4892E-04  0.4819E-04  0.1920E+16
   -2.362503   26.48783  0.2922E-14  0.3325E-06  0.2579E-09  0.3636E-04  0.3819E-04  0.2225E+16
   -2.475006   26.47891  0.2922E-14  0.2717E-06  0.2030E-09  0.2613E-04  0.2910E-04  0.2193E+16
   -2.587510   26.47004  0.2922E-14  0.2178E-06  0.1575E-09  0.1782E-04  0.2142E-04  0.2139E+16
   -2.700013   26.46131  0.2922E-14  0.1714E-06  0.1207E-09  0.1131E-04  0.1534E-04  0.2113E+16
   -2.812516   26.45266  0.2922E-14  0.1320E-06  0.9099E-10  0.6423E-05  0.1066E-04  0.2152E+16
   -2.925019   26.44383  0.2921E-14  0.9805E-07  0.6681E-10  0.2886E-05  0.7131E-05  0.2370E+16
   -3.037522   26.43404  0.2921E-14  0.6448E-07  0.4397E-10  0.4500E-06  0.4487E-05  0.2862E+16
   -3.150024   26.42173  0.2920E-14  0.2247E-07  0.1585E-10  0.2514E-07  0.1725E-05  0.3518E+16
   -3.262525   26.40399  0.2917E-14  0.7650E-08  0.5494E-11  0.1219E-07  0.1443E-06  0.3111E+16
   -3.375026   26.38951  0.2914E-14  0.5132E-07  0.3279E-10  0.1437E-06  0.7655E-08  0.1719E+16
   -3.487527   26.38200  0.2912E-14  0.1408E-06  0.8953E-10  0.8594E-05  0.3393E-09  0.3509E+15
   -3.600027   26.38055  0.2912E-14  0.2262E-06  0.1500E-09  0.4413E-04  0.3978E-10  0.5745E+14
   -3.712526   26.38033  0.2912E-14  0.3062E-06  0.2239E-09  0.8903E-04  0.1466E-10 -0.1198E+14
   -3.825025   26.38038  0.2912E-14  0.3854E-06  0.3199E-09  0.1299E-03  0.6562E-11 -0.2392E+14
   -3.937523   26.38047  0.2912E-14  0.4660E-06  0.4471E-09  0.1636E-03  0.3139E-11 -0.3637E+14
   -4.050020   26.38061  0.2912E-14  0.5440E-06  0.6184E-09  0.1791E-03  0.1521E-11 -0.5457E+14
   -4.162516   26.38081  0.2912E-14  0.6118E-06  0.8651E-09  0.1703E-03  0.7144E-12 -0.8953E+14
   -4.275011   26.38115  0.2912E-14  0.6497E-06  0.1306E-08  0.1268E-03  0.3087E-12 -0.1877E+15
   -4.387505   26.38186  0.2912E-14  0.3993E-06  0.4094E-08  0.1018E-04  0.1143E-12 -0.3843E+16
   -4.499998   26.39640  0.2911E-14  0.0000E+00  0.0000E+00  0.0000E+00  0.1313E-12  0.0000E+00
