 1 - depth, m
 2 - temperature, C
 3 - salinity, kg/kg
 4 - turbulent kinetic energy, m**2/s**2
 5 - dissipation rate, m**2/s**3
 6 - kinematic heat conductance, m**2/s
 7 - modulus of horizontal velocity, m/s
 8 - Richardson number, n/d
   -0.000000   30.93990  0.1728E-13  0.4137E-05  0.1117E-06  0.3518E-04  0.1613E-02 -0.3381E+02
   -0.112493   31.01333  0.1728E-13  0.8376E-05  0.4944E-07  0.5222E-03  0.4534E-03 -0.1363E+03
   -0.224988   31.01758  0.1729E-13  0.9071E-05  0.3946E-07  0.7042E-03  0.3793E-03  0.5954E+06
   -0.337484   31.02029  0.1729E-13  0.9364E-05  0.3326E-07  0.8702E-03  0.3302E-03  0.8095E+04
   -0.449980   31.02217  0.1729E-13  0.9427E-05  0.2876E-07  0.1007E-02  0.2937E-03  0.1630E+04
   -0.562477   31.02357  0.1729E-13  0.9342E-05  0.2522E-07  0.1120E-02  0.2648E-03  0.1080E+04
   -0.674976   31.02466  0.1729E-13  0.9157E-05  0.2231E-07  0.1214E-02  0.2408E-03  0.8692E+03
   -0.787475   31.02551  0.1729E-13  0.8903E-05  0.1984E-07  0.1289E-02  0.2204E-03  0.7632E+03
   -0.899975   31.02620  0.1729E-13  0.8600E-05  0.1772E-07  0.1349E-02  0.2028E-03  0.7078E+03
   -1.012475   31.02675  0.1729E-13  0.8265E-05  0.1587E-07  0.1395E-02  0.1873E-03  0.6800E+03
   -1.124976   31.02721  0.1729E-13  0.7910E-05  0.1424E-07  0.1429E-02  0.1737E-03  0.6873E+03
   -1.237478   31.02758  0.1729E-13  0.7541E-05  0.1281E-07  0.1453E-02  0.1617E-03  0.3385E+05
   -1.349980   31.02787  0.1729E-13  0.7154E-05  0.1151E-07  0.1400E-02  0.1508E-03  0.2230E+05
   -1.462482   31.02812  0.1729E-13  0.6745E-05  0.1030E-07  0.1341E-02  0.1399E-03  0.1116E+05
   -1.574985   31.02832  0.1729E-13  0.6329E-05  0.9220E-08  0.1286E-02  0.1295E-03  0.2840E+05
   -1.687489   31.02847  0.1729E-13  0.5917E-05  0.8262E-08  0.1228E-02  0.1198E-03  0.8052E+04
   -1.799992   31.02856  0.1729E-13  0.5517E-05  0.7433E-08  0.1169E-02  0.1108E-03  0.2655E+05
   -1.912496   31.02860  0.1729E-13  0.5098E-05  0.6654E-08  0.8646E-03  0.1026E-03  0.2631E+06
   -2.025000   31.02857  0.1729E-13  0.4614E-05  0.5837E-08  0.4295E-03  0.9349E-04  0.1309E+04
   -2.137504   31.02835  0.1729E-13  0.4072E-05  0.5042E-08  0.2465E-03  0.8399E-04  0.3311E+04
   -2.250008   31.02682  0.1729E-13  0.3420E-05  0.4217E-08  0.7770E-04  0.7221E-04  0.2204E+05
   -2.362512   31.00687  0.1729E-13  0.2371E-05  0.2924E-08  0.4604E-06  0.5610E-04  0.7662E+07
   -2.475017   30.75781  0.1731E-13  0.1822E-06  0.2296E-09  0.1195E-07  0.8172E-05  0.3544E+10
   -2.587521   30.24527  0.1737E-13  0.7708E-08  0.1065E-10  0.6213E-09  0.5297E-06  0.8808E+12
   -2.700024   29.75530  0.1746E-13  0.1154E-09  0.1037E-11  0.1000E-09  0.3123E-07  0.2384E+15
   -2.812528   29.25242  0.1759E-13  0.4419E-11  0.1000E-11  0.1000E-09  0.1747E-08  0.3268E+17
   -2.925031   28.70917  0.1777E-13  0.4419E-11  0.1000E-11  0.1000E-09  0.9254E-10  0.7861E+17
   -3.037534   28.11839  0.1799E-13  0.4419E-11  0.1000E-11  0.1000E-09  0.4624E-11  0.1753E+18
   -3.150037   27.48571  0.1822E-13  0.4419E-11  0.1000E-11  0.1000E-09  0.2170E-12  0.1791E+18
   -3.262539   26.82531  0.1844E-13  0.4419E-11  0.1000E-11  0.1000E-09  0.9496E-14  0.1768E+18
   -3.375041   26.15882  0.1862E-13  0.4419E-11  0.1000E-11  0.1000E-09  0.3852E-15  0.1827E+18
   -3.487542   25.45353  0.1875E-13  0.4419E-11  0.1000E-11  0.1000E-09  0.1438E-16  0.1860E+18
   -3.600042   24.71645  0.1879E-13  0.4419E-11  0.1000E-11  0.1000E-09  0.4969E-18  0.1828E+18
   -3.712542   23.97148  0.1876E-13  0.4419E-11  0.1000E-11  0.1000E-09  0.1574E-19  0.1728E+18
   -3.825041   23.24658  0.1863E-13  0.4419E-11  0.1000E-11  0.1000E-09  0.4451E-21  0.1554E+18
   -3.937539   22.57576  0.1842E-13  0.4419E-11  0.1000E-11  0.1000E-09  0.1109E-22  0.1290E+18
   -4.050037   22.00387  0.1815E-13  0.3702E-09  0.1250E-11  0.1169E-09  0.2375E-24  0.9026E+17
   -4.162533   21.59488  0.1787E-13  0.2379E-07  0.7017E-10  0.1940E-07  0.4252E-26  0.2978E+17
   -4.275029   21.45826  0.1771E-13  0.2858E-06  0.8651E-09  0.2879E-04  0.5629E-28 -0.3802E+15
   -4.387523   21.46001  0.1771E-13  0.3939E-06  0.4462E-08  0.1002E-04  0.8149E-29 -0.5143E+16
   -4.500017   21.48366  0.1771E-13  0.0000E+00  0.0000E+00  0.0000E+00  0.8039E-29  0.0000E+00
