 1 - depth, m
 2 - temperature, C
 3 - salinity, kg/kg
 4 - turbulent kinetic energy, m**2/s**2
 5 - dissipation rate, m**2/s**3
 6 - kinematic heat conductance, m**2/s
 7 - modulus of horizontal velocity, m/s
 8 - Richardson number, n/d
   -0.000000   28.51459  0.9941E-14  0.4906E-05  0.1080E-06  0.3950E-04  0.6764E-02 -0.8006E+00
   -0.112493   28.56001  0.9943E-14  0.6704E-05  0.3998E-07  0.3801E-03  0.2358E-02 -0.4839E+01
   -0.224988   28.56418  0.9943E-14  0.6970E-05  0.2908E-07  0.5918E-03  0.1794E-02  0.2043E+03
   -0.337483   28.56635  0.9943E-14  0.7008E-05  0.2367E-07  0.7091E-03  0.1536E-02  0.5481E+04
   -0.449980   28.56789  0.9943E-14  0.6930E-05  0.1992E-07  0.8122E-03  0.1348E-02  0.6958E+04
   -0.562477   28.56903  0.9944E-14  0.6774E-05  0.1708E-07  0.8975E-03  0.1198E-02  0.1659E+04
   -0.674975   28.56990  0.9944E-14  0.6566E-05  0.1482E-07  0.9677E-03  0.1075E-02  0.1179E+03
   -0.787474   28.57058  0.9944E-14  0.6326E-05  0.1296E-07  0.1024E-02  0.9711E-03  0.8375E+02
   -0.899974   28.57112  0.9944E-14  0.6063E-05  0.1141E-07  0.1070E-02  0.8823E-03  0.8890E+03
   -1.012474   28.57155  0.9944E-14  0.5780E-05  0.1006E-07  0.1083E-02  0.8044E-03  0.4125E+03
   -1.124975   28.57191  0.9944E-14  0.5476E-05  0.8862E-08  0.1076E-02  0.7305E-03  0.1315E+03
   -1.237476   28.57220  0.9944E-14  0.5163E-05  0.7808E-08  0.1066E-02  0.6619E-03  0.1878E+03
   -1.349978   28.57244  0.9944E-14  0.4849E-05  0.6886E-08  0.1052E-02  0.5990E-03  0.1611E+03
   -1.462481   28.57264  0.9944E-14  0.4538E-05  0.6083E-08  0.1033E-02  0.5416E-03  0.7879E+02
   -1.574984   28.57278  0.9944E-14  0.4234E-05  0.5387E-08  0.1008E-02  0.4894E-03  0.4665E+02
   -1.687487   28.57288  0.9944E-14  0.3940E-05  0.4786E-08  0.9799E-03  0.4418E-03  0.8546E+02
   -1.799990   28.57293  0.9944E-14  0.3649E-05  0.4253E-08  0.9054E-03  0.3978E-03  0.1806E+04
   -1.912494   28.57288  0.9944E-14  0.3338E-05  0.3742E-08  0.7553E-03  0.3545E-03  0.6704E+04
   -2.024998   28.57252  0.9945E-14  0.2987E-05  0.3215E-08  0.4803E-03  0.3051E-03  0.1004E+04
   -2.137502   28.57101  0.9945E-14  0.2626E-05  0.2710E-08  0.3276E-03  0.2502E-03  0.9748E+03
   -2.250006   28.56901  0.9946E-14  0.2289E-05  0.2274E-08  0.2296E-03  0.2097E-03  0.1177E+06
   -2.362510   28.56685  0.9947E-14  0.1949E-05  0.1878E-08  0.1385E-03  0.1774E-03  0.2525E+08
   -2.475014   28.56271  0.9948E-14  0.1504E-05  0.1413E-08  0.6575E-04  0.1390E-03  0.5871E+10
   -2.587518   28.55434  0.9951E-14  0.1008E-05  0.9259E-09  0.1709E-04  0.9473E-04  0.2116E+13
   -2.700022   28.53996  0.9955E-14  0.4815E-06  0.4325E-09  0.3801E-06  0.4954E-04  0.7082E+15
   -2.812525   28.51153  0.9965E-14  0.6795E-07  0.6133E-10  0.4011E-07  0.9051E-05  0.2209E+16
   -2.925028   28.47408  0.9976E-14  0.5005E-08  0.5251E-11  0.4980E-08  0.6659E-06  0.2236E+16
   -3.037531   28.44522  0.9978E-14  0.2179E-09  0.1074E-11  0.4118E-09  0.3537E-07  0.2222E+16
   -3.150034   28.42197  0.9978E-14  0.4419E-11  0.1000E-11  0.1000E-09  0.1668E-08  0.2750E+16
   -3.262536   28.40162  0.9976E-14  0.4419E-11  0.1000E-11  0.1000E-09  0.7301E-10  0.3568E+16
   -3.375037   28.38431  0.9974E-14  0.4419E-11  0.1000E-11  0.1000E-09  0.2961E-11  0.5297E+16
   -3.487538   28.36553  0.9970E-14  0.4419E-11  0.1000E-11  0.1000E-09  0.1105E-12  0.5629E+16
   -3.600038   28.34557  0.9964E-14  0.3482E-09  0.1118E-11  0.7042E-09  0.3818E-14  0.5224E+16
   -3.712538   28.32703  0.9956E-14  0.1018E-07  0.9191E-11  0.2229E-07  0.1208E-15  0.3722E+16
   -3.825037   28.31381  0.9946E-14  0.7443E-07  0.6771E-10  0.2523E-05  0.3397E-17  0.7841E+15
   -3.937535   28.31103  0.9943E-14  0.1846E-06  0.1815E-09  0.3113E-04  0.1467E-18 -0.1094E+14
   -4.050032   28.31107  0.9943E-14  0.2876E-06  0.3515E-09  0.6348E-04  0.3950E-19 -0.5580E+14
   -4.162529   28.31126  0.9943E-14  0.3949E-06  0.6334E-09  0.8244E-04  0.1333E-19 -0.1126E+15
   -4.275024   28.31166  0.9943E-14  0.4892E-06  0.1165E-08  0.7686E-04  0.4560E-20 -0.2639E+15
   -4.387519   28.31260  0.9943E-14  0.3834E-06  0.4072E-08  0.1001E-04  0.1402E-20 -0.4387E+16
   -4.500012   28.32818  0.9942E-14  0.0000E+00  0.0000E+00  0.0000E+00  0.1392E-20  0.0000E+00
