 1 - depth, m
 2 - temperature, C
 3 - salinity, kg/kg
 4 - turbulent kinetic energy, m**2/s**2
 5 - dissipation rate, m**2/s**3
 6 - kinematic heat conductance, m**2/s
 7 - modulus of horizontal velocity, m/s
 8 - Richardson number, n/d
   -0.000000   30.30699  0.1731E-13  0.3082E-05  0.7541E-07  0.2996E-04  0.1012E-02 -0.5180E+02
   -0.112493   30.37233  0.1731E-13  0.6058E-05  0.3339E-07  0.4151E-03  0.2786E-03 -0.7012E+03
   -0.224987   30.37624  0.1731E-13  0.6440E-05  0.2621E-07  0.5529E-03  0.2306E-03  0.4148E+05
   -0.337482   30.37864  0.1731E-13  0.6497E-05  0.2161E-07  0.6664E-03  0.1992E-03  0.3680E+06
   -0.449979   30.38028  0.1731E-13  0.6378E-05  0.1822E-07  0.7527E-03  0.1760E-03  0.5214E+06
   -0.562476   30.38145  0.1731E-13  0.6157E-05  0.1554E-07  0.8178E-03  0.1577E-03  0.4674E+06
   -0.674974   30.38232  0.1731E-13  0.5873E-05  0.1336E-07  0.8656E-03  0.1427E-03  0.5129E+06
   -0.787472   30.38297  0.1731E-13  0.5541E-05  0.1149E-07  0.8694E-03  0.1301E-03  0.1590E+06
   -0.899972   30.38347  0.1731E-13  0.5167E-05  0.9854E-08  0.8493E-03  0.1184E-03  0.6077E+05
   -1.012472   30.38387  0.1731E-13  0.4774E-05  0.8436E-08  0.8221E-03  0.1078E-03  0.4337E+04
   -1.124972   30.38417  0.1731E-13  0.4378E-05  0.7227E-08  0.7897E-03  0.9808E-04  0.1064E+05
   -1.237474   30.38436  0.1731E-13  0.3987E-05  0.6209E-08  0.7488E-03  0.8932E-04  0.1312E+05
   -1.349975   30.38444  0.1731E-13  0.3596E-05  0.5336E-08  0.6869E-03  0.8119E-04  0.4616E+04
   -1.462478   30.38419  0.1731E-13  0.3163E-05  0.4501E-08  0.5636E-03  0.7274E-04  0.1283E+06
   -1.574980   30.38084  0.1731E-13  0.2701E-05  0.3676E-08  0.3036E-03  0.5950E-04  0.2714E+05
   -1.687483   30.37371  0.1732E-13  0.2258E-05  0.2933E-08  0.1881E-03  0.4854E-04  0.2579E+07
   -1.799986   30.36561  0.1732E-13  0.1827E-05  0.2287E-08  0.9665E-04  0.4010E-04  0.3983E+09
   -1.912490   30.35434  0.1732E-13  0.1344E-05  0.1642E-08  0.2090E-04  0.3154E-04  0.1085E+12
   -2.024993   30.32490  0.1732E-13  0.5635E-06  0.6689E-09  0.1669E-06  0.1705E-04  0.4799E+14
   -2.137497   30.22080  0.1733E-13  0.4156E-07  0.5054E-10  0.9618E-08  0.2253E-05  0.7210E+16
   -2.250001   30.07786  0.1734E-13  0.1783E-08  0.2916E-11  0.5506E-09  0.1610E-06  0.1330E+17
   -2.362505   29.92982  0.1735E-13  0.5288E-11  0.1000E-11  0.1000E-09  0.1041E-07  0.2000E+17
   -2.475008   29.74388  0.1736E-13  0.4419E-11  0.1000E-11  0.1000E-09  0.6567E-09  0.3256E+17
   -2.587512   29.49690  0.1740E-13  0.4419E-11  0.1000E-11  0.1000E-09  0.3993E-10  0.6988E+17
   -2.700016   29.17382  0.1749E-13  0.4419E-11  0.1000E-11  0.1000E-09  0.2328E-11  0.1160E+18
   -2.812519   28.77003  0.1762E-13  0.4419E-11  0.1000E-11  0.1000E-09  0.1295E-12  0.1364E+18
   -2.925022   28.28867  0.1782E-13  0.4419E-11  0.1000E-11  0.1000E-09  0.6838E-14  0.1538E+18
   -3.037524   27.73720  0.1807E-13  0.4419E-11  0.1000E-11  0.1000E-09  0.3411E-15  0.1671E+18
   -3.150027   27.12676  0.1835E-13  0.4419E-11  0.1000E-11  0.1000E-09  0.1600E-16  0.1751E+18
   -3.262528   26.47341  0.1860E-13  0.4419E-11  0.1000E-11  0.1000E-09  0.7003E-18  0.1766E+18
   -3.375030   25.79938  0.1880E-13  0.4419E-11  0.1000E-11  0.1000E-09  0.2843E-19  0.1828E+18
   -3.487530   25.08435  0.1894E-13  0.4419E-11  0.1000E-11  0.1000E-09  0.1062E-20  0.1855E+18
   -3.600030   24.33877  0.1901E-13  0.4419E-11  0.1000E-11  0.1000E-09  0.3674E-22  0.1819E+18
   -3.712530   23.58631  0.1899E-13  0.4419E-11  0.1000E-11  0.1000E-09  0.1165E-23  0.1717E+18
   -3.825028   22.85427  0.1887E-13  0.4419E-11  0.1000E-11  0.1000E-09  0.3299E-25  0.1544E+18
   -3.937526   22.17626  0.1866E-13  0.4419E-11  0.1000E-11  0.1000E-09  0.8229E-27  0.1280E+18
   -4.050023   21.59830  0.1839E-13  0.4489E-09  0.1422E-11  0.1321E-09  0.1765E-28  0.8882E+17
   -4.162519   21.18826  0.1809E-13  0.2709E-07  0.8018E-10  0.2464E-07  0.3164E-30  0.2665E+17
   -4.275015   21.06367  0.1793E-13  0.3077E-06  0.9372E-09  0.3115E-04  0.4204E-32 -0.3885E+15
   -4.387509   21.06549  0.1793E-13  0.4038E-06  0.4621E-08  0.1015E-04  0.6680E-33 -0.5245E+16
   -4.500002   21.09006  0.1792E-13  0.0000E+00  0.0000E+00  0.0000E+00  0.6597E-33  0.0000E+00
