 1 - depth, m
 2 - temperature, C
 3 - salinity, kg/kg
 4 - turbulent kinetic energy, m**2/s**2
 5 - dissipation rate, m**2/s**3
 6 - kinematic heat conductance, m**2/s
 7 - modulus of horizontal velocity, m/s
 8 - Richardson number, n/d
   -0.000000   29.29970  0.1500E-13  0.3214E-05  0.7641E-07  0.3123E-04  0.1786E-02 -0.1681E+02
   -0.112493   29.36055  0.1501E-13  0.6250E-05  0.3358E-07  0.4362E-03  0.4958E-03 -0.1913E+03
   -0.224987   29.36425  0.1501E-13  0.6705E-05  0.2649E-07  0.5884E-03  0.4077E-03  0.1376E+06
   -0.337482   29.36654  0.1501E-13  0.6851E-05  0.2206E-07  0.7201E-03  0.3503E-03  0.6479E+06
   -0.449978   29.36810  0.1501E-13  0.6827E-05  0.1884E-07  0.8257E-03  0.3079E-03  0.4759E+06
   -0.562475   29.36925  0.1501E-13  0.6697E-05  0.1631E-07  0.9112E-03  0.2744E-03  0.7424E+06
   -0.674973   29.37011  0.1501E-13  0.6501E-05  0.1426E-07  0.9797E-03  0.2469E-03  0.5771E+04
   -0.787472   29.37077  0.1501E-13  0.6264E-05  0.1254E-07  0.1034E-02  0.2237E-03  0.3359E+04
   -0.899971   29.37129  0.1501E-13  0.6004E-05  0.1110E-07  0.1075E-02  0.2040E-03  0.1292E+06
   -1.012471   29.37169  0.1501E-13  0.5718E-05  0.9828E-08  0.1067E-02  0.1869E-03  0.9282E+04
   -1.124972   29.37202  0.1501E-13  0.5398E-05  0.8660E-08  0.1022E-02  0.1697E-03  0.1386E+05
   -1.237473   29.37229  0.1501E-13  0.5059E-05  0.7612E-08  0.9780E-03  0.1529E-03  0.2002E+05
   -1.349975   29.37250  0.1501E-13  0.4715E-05  0.6688E-08  0.9341E-03  0.1370E-03  0.3937E+04
   -1.462477   29.37266  0.1501E-13  0.4371E-05  0.5883E-08  0.8833E-03  0.1222E-03  0.3767E+04
   -1.574980   29.37275  0.1501E-13  0.4030E-05  0.5183E-08  0.8305E-03  0.1082E-03  0.1864E+05
   -1.687483   29.37275  0.1501E-13  0.3687E-05  0.4563E-08  0.7681E-03  0.9474E-04  0.2561E+05
   -1.799986   29.37251  0.1501E-13  0.3315E-05  0.3974E-08  0.6905E-03  0.8077E-04  0.2493E+04
   -1.912489   29.37024  0.1501E-13  0.2919E-05  0.3403E-08  0.5986E-03  0.6067E-04  0.8038E+04
   -2.024993   29.36307  0.1501E-13  0.2565E-05  0.2900E-08  0.5102E-03  0.4463E-04  0.4548E+06
   -2.137496   29.35475  0.1501E-13  0.2249E-05  0.2458E-08  0.4668E-03  0.3555E-04  0.6647E+08
   -2.250000   29.34670  0.1501E-13  0.1949E-05  0.2059E-08  0.4349E-03  0.2923E-04  0.1252E+11
   -2.362504   29.33784  0.1501E-13  0.1659E-05  0.1694E-08  0.4174E-03  0.2409E-04  0.2774E+13
   -2.475008   29.32736  0.1501E-13  0.1376E-05  0.1349E-08  0.2802E-03  0.1971E-04  0.5407E+15
   -2.587511   29.31667  0.1501E-13  0.1206E-05  0.1137E-08  0.1731E-03  0.1638E-04  0.1187E+16
   -2.700015   29.30766  0.1501E-13  0.1106E-05  0.1012E-08  0.1326E-03  0.1435E-04  0.1424E+16
   -2.812518   29.29927  0.1501E-13  0.1018E-05  0.9102E-09  0.9557E-04  0.1273E-04  0.1696E+16
   -2.925021   29.29075  0.1501E-13  0.9318E-06  0.8208E-09  0.5740E-04  0.1132E-04  0.2294E+16
   -3.037523   29.28096  0.1501E-13  0.8291E-06  0.7239E-09  0.2116E-04  0.1005E-04  0.4039E+16
   -3.150025   29.26507  0.1501E-13  0.5650E-06  0.4860E-09  0.1067E-05  0.7239E-05  0.8455E+16
   -3.262527   29.22759  0.1501E-13  0.1505E-06  0.1274E-09  0.3847E-07  0.2295E-05  0.2052E+17
   -3.375028   29.13009  0.1501E-13  0.1269E-07  0.1176E-10  0.3367E-08  0.1504E-06  0.2960E+17
   -3.487529   29.00059  0.1501E-13  0.7403E-09  0.1512E-11  0.2097E-09  0.6005E-08  0.4586E+17
   -3.600029   28.79890  0.1502E-13  0.4672E-11  0.1000E-11  0.1000E-09  0.2099E-09  0.8429E+17
   -3.712528   28.42570  0.1506E-13  0.4419E-11  0.1000E-11  0.1000E-09  0.6702E-11  0.1702E+18
   -3.825027   27.78946  0.1523E-13  0.4419E-11  0.1000E-11  0.1000E-09  0.1910E-12  0.2358E+18
   -3.937525   26.92583  0.1538E-13  0.4419E-11  0.1000E-11  0.1000E-09  0.4787E-14  0.2467E+18
   -4.050022   25.99476  0.1532E-13  0.4419E-11  0.1000E-11  0.1000E-09  0.1031E-15  0.2136E+18
   -4.162518   25.16337  0.1511E-13  0.4419E-11  0.1000E-11  0.1000E-09  0.1856E-17  0.1455E+18
   -4.275013   24.58196  0.1485E-13  0.3770E-08  0.3373E-10  0.7315E-08  0.2668E-19  0.3268E+17
   -4.387507   24.44961  0.1470E-13  0.2792E-06  0.2716E-08  0.8313E-05  0.2924E-21 -0.3804E+16
   -4.500000   24.46505  0.1470E-13  0.0000E+00  0.0000E+00  0.0000E+00  0.2910E-21  0.0000E+00
