 1 - depth, m
 2 - temperature, C
 3 - salinity, kg/kg
 4 - turbulent kinetic energy, m**2/s**2
 5 - dissipation rate, m**2/s**3
 6 - kinematic heat conductance, m**2/s
 7 - modulus of horizontal velocity, m/s
 8 - Richardson number, n/d
   -0.000000   29.91813  0.6176E-14  0.3917E-05  0.9020E-07  0.3636E-04  0.4078E-02 -0.5541E+01
   -0.112493   29.97390  0.6176E-14  0.6365E-05  0.3728E-07  0.4026E-03  0.1352E-02 -0.6476E+02
   -0.224987   29.97805  0.6176E-14  0.6682E-05  0.2832E-07  0.5534E-03  0.1083E-02  0.3194E+05
   -0.337482   29.98052  0.6176E-14  0.6703E-05  0.2309E-07  0.6655E-03  0.9340E-03  0.1141E+05
   -0.449978   29.98220  0.6176E-14  0.6564E-05  0.1932E-07  0.7534E-03  0.8233E-03  0.1458E+05
   -0.562475   29.98341  0.6176E-14  0.6331E-05  0.1640E-07  0.8210E-03  0.7356E-03  0.1237E+05
   -0.674972   29.98431  0.6175E-14  0.6037E-05  0.1402E-07  0.8685E-03  0.6637E-03  0.9985E+04
   -0.787471   29.98499  0.6175E-14  0.5697E-05  0.1202E-07  0.8822E-03  0.6004E-03  0.3889E+04
   -0.899970   29.98553  0.6175E-14  0.5328E-05  0.1030E-07  0.8812E-03  0.5430E-03  0.2431E+04
   -1.012470   29.98594  0.6175E-14  0.4947E-05  0.8841E-08  0.8716E-03  0.4908E-03  0.3531E+03
   -1.124971   29.98625  0.6175E-14  0.4567E-05  0.7602E-08  0.8552E-03  0.4438E-03  0.4838E+03
   -1.237472   29.98648  0.6175E-14  0.4195E-05  0.6561E-08  0.8284E-03  0.4013E-03  0.3695E+03
   -1.349973   29.98660  0.6175E-14  0.3824E-05  0.5663E-08  0.7757E-03  0.3619E-03  0.1665E+04
   -1.462475   29.98654  0.6175E-14  0.3420E-05  0.4809E-08  0.6124E-03  0.3213E-03  0.5160E+04
   -1.574978   29.98533  0.6175E-14  0.2982E-05  0.3974E-08  0.4404E-03  0.2639E-03  0.2496E+04
   -1.687480   29.98229  0.6175E-14  0.2556E-05  0.3225E-08  0.2780E-03  0.2147E-03  0.8279E+04
   -1.799983   29.97873  0.6175E-14  0.2140E-05  0.2568E-08  0.1782E-03  0.1795E-03  0.9996E+06
   -1.912487   29.97445  0.6175E-14  0.1723E-05  0.1992E-08  0.9224E-04  0.1502E-03  0.1496E+09
   -2.024990   29.96775  0.6174E-14  0.1213E-05  0.1368E-08  0.2810E-04  0.1160E-03  0.3309E+11
   -2.137494   29.94941  0.6173E-14  0.5956E-06  0.6606E-09  0.6479E-06  0.6191E-04  0.1178E+14
   -2.249997   29.91040  0.6170E-14  0.7978E-07  0.8860E-10  0.3538E-07  0.1222E-04  0.1702E+16
   -2.362501   29.85722  0.6166E-14  0.4334E-08  0.5561E-11  0.3004E-08  0.9902E-06  0.2420E+16
   -2.475004   29.81564  0.6165E-14  0.1056E-09  0.1040E-11  0.2042E-09  0.6479E-07  0.2490E+16
   -2.587508   29.78245  0.6164E-14  0.4419E-11  0.1000E-11  0.1000E-09  0.3981E-08  0.2864E+16
   -2.700011   29.75361  0.6163E-14  0.4419E-11  0.1000E-11  0.1000E-09  0.2335E-09  0.4129E+16
   -2.812514   29.72739  0.6162E-14  0.4419E-11  0.1000E-11  0.1000E-09  0.1303E-10  0.6585E+16
   -2.925017   29.70338  0.6161E-14  0.4419E-11  0.1000E-11  0.1000E-09  0.6880E-12  0.6370E+16
   -3.037519   29.68169  0.6159E-14  0.4419E-11  0.1000E-11  0.1000E-09  0.3428E-13  0.5488E+16
   -3.150021   29.66300  0.6157E-14  0.3046E-09  0.1057E-11  0.9244E-09  0.1604E-14  0.4374E+16
   -3.262523   29.64809  0.6155E-14  0.6623E-08  0.4576E-11  0.2171E-07  0.6992E-16  0.2794E+16
   -3.375024   29.63856  0.6152E-14  0.5107E-07  0.3294E-10  0.4490E-06  0.2844E-17  0.1578E+16
   -3.487525   29.63318  0.6150E-14  0.1319E-06  0.8697E-10  0.8965E-05  0.1208E-18  0.5697E+15
   -3.600024   29.63124  0.6149E-14  0.2214E-06  0.1551E-09  0.3808E-04  0.2151E-19  0.1411E+15
   -3.712524   29.63076  0.6149E-14  0.3161E-06  0.2459E-09  0.7933E-04  0.8989E-20 -0.1086E+14
   -3.825022   29.63080  0.6149E-14  0.4098E-06  0.3654E-09  0.1204E-03  0.4454E-20 -0.2756E+14
   -3.937520   29.63089  0.6149E-14  0.5072E-06  0.5284E-09  0.1549E-03  0.2332E-20 -0.4347E+14
   -4.050017   29.63104  0.6149E-14  0.6048E-06  0.7555E-09  0.1755E-03  0.1238E-20 -0.6662E+14
   -4.162513   29.63127  0.6149E-14  0.6944E-06  0.1094E-08  0.1699E-03  0.6540E-21 -0.1122E+15
   -4.275008   29.63165  0.6149E-14  0.7513E-06  0.1702E-08  0.1290E-03  0.3286E-21 -0.2408E+15
   -4.387502   29.63247  0.6148E-14  0.4792E-06  0.5431E-08  0.1118E-04  0.1430E-21 -0.4794E+16
   -4.499995   29.64883  0.6148E-14  0.0000E+00  0.0000E+00  0.0000E+00  0.1428E-21  0.0000E+00
