 1 - depth, m
 2 - temperature, C
 3 - salinity, kg/kg
 4 - turbulent kinetic energy, m**2/s**2
 5 - dissipation rate, m**2/s**3
 6 - kinematic heat conductance, m**2/s
 7 - modulus of horizontal velocity, m/s
 8 - Richardson number, n/d
   -0.000000   29.33221  0.1219E-14  0.4348E-05  0.1088E-06  0.3784E-04  0.3385E-02 -0.1098E+02
   -0.112493   29.39651  0.1219E-14  0.7736E-05  0.4641E-07  0.4794E-03  0.1024E-02 -0.1371E+03
   -0.224987   29.40083  0.1219E-14  0.8316E-05  0.3629E-07  0.6533E-03  0.8450E-03  0.1667E+08
   -0.337482   29.40352  0.1219E-14  0.8547E-05  0.3020E-07  0.8089E-03  0.7289E-03  0.6633E+05
   -0.449978   29.40539  0.1219E-14  0.8577E-05  0.2587E-07  0.9372E-03  0.6436E-03  0.8631E+03
   -0.562475   29.40676  0.1219E-14  0.8479E-05  0.2252E-07  0.1044E-02  0.5761E-03  0.5111E+03
   -0.674973   29.40782  0.1219E-14  0.8297E-05  0.1980E-07  0.1133E-02  0.5206E-03  0.4008E+03
   -0.787472   29.40865  0.1219E-14  0.8055E-05  0.1752E-07  0.1206E-02  0.4736E-03  0.3470E+03
   -0.899971   29.40931  0.1219E-14  0.7774E-05  0.1557E-07  0.1264E-02  0.4330E-03  0.3200E+03
   -1.012471   29.40985  0.1219E-14  0.7468E-05  0.1390E-07  0.1310E-02  0.3977E-03  0.3082E+03
   -1.124972   29.41029  0.1219E-14  0.7145E-05  0.1243E-07  0.1344E-02  0.3666E-03  0.4263E+04
   -1.237473   29.41064  0.1219E-14  0.6807E-05  0.1113E-07  0.1344E-02  0.3388E-03  0.1966E+04
   -1.349975   29.41093  0.1219E-14  0.6456E-05  0.9964E-08  0.1330E-02  0.3125E-03  0.1916E+04
   -1.462477   29.41117  0.1219E-14  0.6101E-05  0.8922E-08  0.1314E-02  0.2881E-03  0.5970E+03
   -1.574980   29.41137  0.1219E-14  0.5750E-05  0.8003E-08  0.1293E-02  0.2656E-03  0.6679E+03
   -1.687483   29.41151  0.1219E-14  0.5402E-05  0.7189E-08  0.1245E-02  0.2450E-03  0.2181E+06
   -1.799986   29.41162  0.1219E-14  0.5045E-05  0.6438E-08  0.1098E-02  0.2259E-03  0.9123E+05
   -1.912489   29.41168  0.1219E-14  0.4667E-05  0.5726E-08  0.9091E-03  0.2079E-03  0.2775E+03
   -2.024993   29.41167  0.1219E-14  0.4271E-05  0.5059E-08  0.7258E-03  0.1902E-03  0.4780E+04
   -2.137497   29.41149  0.1219E-14  0.3851E-05  0.4428E-08  0.4794E-03  0.1715E-03  0.5624E+04
   -2.250000   29.41081  0.1219E-14  0.3386E-05  0.3802E-08  0.2564E-03  0.1508E-03  0.3619E+04
   -2.362504   29.40510  0.1218E-14  0.2685E-05  0.2974E-08  0.1335E-03  0.1287E-03  0.1688E+06
   -2.475008   29.37832  0.1218E-14  0.1819E-05  0.2008E-08  0.5681E-04  0.1022E-03  0.1209E+09
   -2.587511   29.31870  0.1217E-14  0.1056E-05  0.1164E-08  0.1177E-04  0.6662E-04  0.3600E+11
   -2.700015   29.24466  0.1216E-14  0.4063E-06  0.4437E-09  0.1074E-06  0.3037E-04  0.6095E+13
   -2.812518   29.17228  0.1215E-14  0.4061E-07  0.4506E-10  0.1201E-07  0.4074E-05  0.8913E+15
   -2.925021   29.11813  0.1214E-14  0.2227E-08  0.3317E-11  0.1286E-08  0.2519E-06  0.3284E+16
   -3.037524   29.07540  0.1214E-14  0.7873E-10  0.1035E-11  0.1559E-09  0.1206E-07  0.5321E+16
   -3.150026   29.03912  0.1213E-14  0.4419E-11  0.1000E-11  0.1000E-09  0.5267E-09  0.5885E+16
   -3.262527   29.01038  0.1212E-14  0.4419E-11  0.1000E-11  0.1000E-09  0.2144E-10  0.4627E+16
   -3.375029   28.99243  0.1211E-14  0.6715E-10  0.1000E-11  0.3699E-09  0.8099E-12  0.4485E+16
   -3.487529   28.97683  0.1210E-14  0.5297E-08  0.4049E-11  0.9048E-08  0.2823E-13  0.3825E+16
   -3.600029   28.96352  0.1209E-14  0.5512E-07  0.3758E-10  0.2963E-06  0.9120E-15  0.1571E+16
   -3.712529   28.95806  0.1208E-14  0.1367E-06  0.9453E-10  0.1737E-04  0.2716E-16  0.2172E+15
   -3.825027   28.95730  0.1208E-14  0.2163E-06  0.1661E-09  0.5441E-04  0.8926E-18 -0.1083E+14
   -3.937525   28.95734  0.1208E-14  0.2924E-06  0.2633E-09  0.9018E-04  0.1817E-18 -0.3021E+14
   -4.050022   28.95745  0.1208E-14  0.3699E-06  0.4024E-09  0.1136E-03  0.5750E-19 -0.5097E+14
   -4.162518   28.95762  0.1208E-14  0.4435E-06  0.6141E-09  0.1190E-03  0.2005E-19 -0.8803E+14
   -4.275013   28.95793  0.1208E-14  0.4954E-06  0.9931E-09  0.9582E-04  0.6818E-20 -0.1893E+15
   -4.387508   28.95859  0.1208E-14  0.3328E-06  0.3191E-08  0.9332E-05  0.2014E-20 -0.3472E+16
   -4.500001   28.97068  0.1208E-14  0.0000E+00  0.0000E+00  0.0000E+00  0.1821E-20  0.0000E+00
