 1 - depth, m
 2 - temperature, C
 3 - salinity, kg/kg
 4 - turbulent kinetic energy, m**2/s**2
 5 - dissipation rate, m**2/s**3
 6 - kinematic heat conductance, m**2/s
 7 - modulus of horizontal velocity, m/s
 8 - Richardson number, n/d
   -0.000000   30.85018  0.1718E-13  0.5134E-05  0.1459E-06  0.4156E-04  0.3013E-02 -0.2104E+02
   -0.112493   30.92305  0.1718E-13  0.9956E-05  0.6317E-07  0.5713E-03  0.9043E-03  0.4579E+03
   -0.224987   30.92769  0.1718E-13  0.1087E-04  0.5016E-07  0.7872E-03  0.7544E-03  0.2446E+06
   -0.337482   30.93063  0.1718E-13  0.1134E-04  0.4244E-07  0.9879E-03  0.6564E-03  0.7331E+03
   -0.449978   30.93270  0.1718E-13  0.1155E-04  0.3699E-07  0.1160E-02  0.5842E-03  0.4637E+03
   -0.562475   30.93425  0.1718E-13  0.1158E-04  0.3277E-07  0.1307E-02  0.5269E-03  0.3591E+03
   -0.674973   30.93547  0.1718E-13  0.1150E-04  0.2934E-07  0.1434E-02  0.4796E-03  0.3033E+03
   -0.787471   30.93644  0.1718E-13  0.1133E-04  0.2643E-07  0.1541E-02  0.4393E-03  0.2725E+03
   -0.899970   30.93725  0.1718E-13  0.1109E-04  0.2392E-07  0.1631E-02  0.4045E-03  0.2525E+03
   -1.012470   30.93792  0.1718E-13  0.1079E-04  0.2172E-07  0.1704E-02  0.3738E-03  0.2422E+03
   -1.124971   30.93848  0.1718E-13  0.1047E-04  0.1976E-07  0.1764E-02  0.3466E-03  0.2356E+03
   -1.237472   30.93895  0.1718E-13  0.1011E-04  0.1801E-07  0.1810E-02  0.3223E-03  0.2352E+03
   -1.349974   30.93935  0.1718E-13  0.9733E-05  0.1644E-07  0.1845E-02  0.3005E-03  0.2365E+03
   -1.462476   30.93968  0.1718E-13  0.9345E-05  0.1502E-07  0.1870E-02  0.2810E-03  0.2430E+03
   -1.574978   30.93996  0.1718E-13  0.8953E-05  0.1375E-07  0.1887E-02  0.2634E-03  0.2504E+03
   -1.687481   30.94019  0.1718E-13  0.8563E-05  0.1262E-07  0.1897E-02  0.2478E-03  0.2636E+03
   -1.799984   30.94037  0.1718E-13  0.8176E-05  0.1160E-07  0.1890E-02  0.2339E-03  0.3526E+03
   -1.912487   30.94051  0.1718E-13  0.7778E-05  0.1065E-07  0.1714E-02  0.2206E-03  0.5886E+04
   -2.024991   30.94062  0.1718E-13  0.7362E-05  0.9756E-08  0.1580E-02  0.2062E-03  0.5979E+04
   -2.137495   30.94069  0.1718E-13  0.6917E-05  0.8897E-08  0.1227E-02  0.1921E-03  0.5315E+06
   -2.249998   30.94073  0.1718E-13  0.6402E-05  0.8007E-08  0.5877E-03  0.1782E-03  0.8208E+03
   -2.362502   30.94069  0.1718E-13  0.5838E-05  0.7155E-08  0.3415E-03  0.1641E-03  0.3241E+04
   -2.475005   30.94041  0.1718E-13  0.5164E-05  0.6277E-08  0.9820E-04  0.1511E-03  0.1097E+05
   -2.587509   30.93597  0.1719E-13  0.3679E-05  0.4496E-08  0.5857E-06  0.1192E-03  0.5577E+05
   -2.700012   30.56472  0.1729E-13  0.2834E-06  0.3548E-09  0.1238E-07  0.1690E-04  0.9417E+07
   -2.812515   29.78571  0.1753E-13  0.1213E-07  0.1612E-10  0.6504E-09  0.9884E-06  0.2738E+10
   -2.925018   29.08655  0.1772E-13  0.2635E-09  0.1127E-11  0.1002E-09  0.5215E-07  0.1005E+13
   -3.037521   28.42091  0.1791E-13  0.4419E-11  0.1000E-11  0.1000E-09  0.2589E-08  0.4261E+15
   -3.150023   27.75342  0.1813E-13  0.4419E-11  0.1000E-11  0.1000E-09  0.1207E-09  0.6376E+17
   -3.262524   27.07856  0.1833E-13  0.4419E-11  0.1000E-11  0.1000E-09  0.5249E-11  0.1793E+18
   -3.375025   26.40823  0.1850E-13  0.4419E-11  0.1000E-11  0.1000E-09  0.2116E-12  0.1837E+18
   -3.487526   25.70504  0.1861E-13  0.4419E-11  0.1000E-11  0.1000E-09  0.7855E-14  0.1868E+18
   -3.600026   24.97168  0.1865E-13  0.4419E-11  0.1000E-11  0.1000E-09  0.2698E-15  0.1841E+18
   -3.712525   24.22874  0.1862E-13  0.4419E-11  0.1000E-11  0.1000E-09  0.8501E-17  0.1751E+18
   -3.825024   23.50176  0.1849E-13  0.4419E-11  0.1000E-11  0.1000E-09  0.2393E-18  0.1590E+18
   -3.937521   22.82261  0.1829E-13  0.4419E-11  0.1000E-11  0.1000E-09  0.5935E-20  0.1341E+18
   -4.050018   22.23403  0.1803E-13  0.2068E-09  0.1118E-11  0.1040E-09  0.1267E-21  0.9692E+17
   -4.162514   21.79910  0.1775E-13  0.2002E-07  0.5927E-10  0.1308E-07  0.2261E-23  0.3726E+17
   -4.275009   21.62959  0.1756E-13  0.2622E-06  0.7938E-09  0.2595E-04  0.2979E-25 -0.3764E+15
   -4.387503   21.63131  0.1756E-13  0.3879E-06  0.4372E-08  0.9932E-05  0.3966E-26 -0.5099E+16
   -4.499996   21.65458  0.1756E-13  0.0000E+00  0.0000E+00  0.0000E+00  0.3872E-26  0.0000E+00
