 1 - depth, m
 2 - temperature, C
 3 - salinity, kg/kg
 4 - turbulent kinetic energy, m**2/s**2
 5 - dissipation rate, m**2/s**3
 6 - kinematic heat conductance, m**2/s
 7 - modulus of horizontal velocity, m/s
 8 - Richardson number, n/d
   -0.000000   28.27242  0.2146E-13  0.3942E-05  0.8104E-07  0.3733E-04  0.5274E-02 -0.1424E+01
   -0.112494   28.31588  0.2146E-13  0.5625E-05  0.3176E-07  0.3507E-03  0.1857E-02 -0.1135E+02
   -0.224988   28.31984  0.2146E-13  0.5828E-05  0.2329E-07  0.5170E-03  0.1427E-02  0.4512E+02
   -0.337484   28.32199  0.2146E-13  0.5806E-05  0.1882E-07  0.6210E-03  0.1211E-02  0.7473E+04
   -0.449981   28.32347  0.2146E-13  0.5670E-05  0.1570E-07  0.7004E-03  0.1062E-02  0.3401E+04
   -0.562479   28.32454  0.2146E-13  0.5458E-05  0.1329E-07  0.7614E-03  0.9449E-03  0.2593E+04
   -0.674977   28.32534  0.2146E-13  0.5193E-05  0.1132E-07  0.7977E-03  0.8458E-03  0.2166E+04
   -0.787476   28.32596  0.2146E-13  0.4894E-05  0.9677E-08  0.8127E-03  0.7590E-03  0.1928E+04
   -0.899976   28.32644  0.2146E-13  0.4574E-05  0.8285E-08  0.8159E-03  0.6820E-03  0.4687E+03
   -1.012477   28.32682  0.2146E-13  0.4246E-05  0.7107E-08  0.8106E-03  0.6135E-03  0.1261E+03
   -1.124978   28.32710  0.2146E-13  0.3920E-05  0.6114E-08  0.7960E-03  0.5526E-03  0.1243E+03
   -1.237480   28.32731  0.2146E-13  0.3600E-05  0.5274E-08  0.7728E-03  0.4981E-03  0.2953E+05
   -1.349982   28.32743  0.2146E-13  0.3264E-05  0.4510E-08  0.6193E-03  0.4478E-03  0.1128E+03
   -1.462485   28.32745  0.2146E-13  0.2892E-05  0.3769E-08  0.4901E-03  0.3943E-03  0.8143E+03
   -1.574988   28.32698  0.2146E-13  0.2501E-05  0.3085E-08  0.3477E-03  0.3305E-03  0.1729E+04
   -1.687492   28.32519  0.2147E-13  0.2119E-05  0.2478E-08  0.2187E-03  0.2658E-03  0.9747E+03
   -1.799996   28.32265  0.2147E-13  0.1750E-05  0.1961E-08  0.1266E-03  0.2172E-03  0.1164E+06
   -1.912500   28.31908  0.2147E-13  0.1357E-05  0.1480E-08  0.4790E-04  0.1753E-03  0.2439E+08
   -2.025004   28.31024  0.2147E-13  0.8034E-06  0.8674E-09  0.5182E-05  0.1244E-03  0.9880E+10
   -2.137508   28.26871  0.2150E-13  0.1859E-06  0.2037E-09  0.5330E-07  0.3714E-04  0.3666E+13
   -2.250013   28.18287  0.2153E-13  0.1169E-07  0.1360E-10  0.2691E-08  0.3629E-05  0.8688E+15
   -2.362517   28.07338  0.2154E-13  0.3950E-09  0.1367E-11  0.1507E-09  0.2370E-06  0.7182E+16
   -2.475021   27.88662  0.2157E-13  0.4466E-11  0.1000E-11  0.1000E-09  0.1449E-07  0.1830E+17
   -2.587526   27.54707  0.2167E-13  0.4419E-11  0.1000E-11  0.1000E-09  0.8483E-09  0.4627E+17
   -2.700030   27.00140  0.2196E-13  0.4419E-11  0.1000E-11  0.1000E-09  0.4747E-10  0.1473E+18
   -2.812533   26.27307  0.2219E-13  0.4419E-11  0.1000E-11  0.1000E-09  0.2535E-11  0.2161E+18
   -2.925037   25.44010  0.2226E-13  0.4419E-11  0.1000E-11  0.1000E-09  0.1286E-12  0.2165E+18
   -3.037540   24.57966  0.2225E-13  0.4419E-11  0.1000E-11  0.1000E-09  0.6184E-14  0.2037E+18
   -3.150043   23.74341  0.2221E-13  0.4419E-11  0.1000E-11  0.1000E-09  0.2805E-15  0.1841E+18
   -3.262545   22.96297  0.2215E-13  0.4419E-11  0.1000E-11  0.1000E-09  0.1192E-16  0.1601E+18
   -3.375047   22.26291  0.2208E-13  0.4419E-11  0.1000E-11  0.1000E-09  0.4713E-18  0.1544E+18
   -3.487548   21.56681  0.2199E-13  0.4419E-11  0.1000E-11  0.1000E-09  0.1722E-19  0.1516E+18
   -3.600049   20.86099  0.2188E-13  0.4419E-11  0.1000E-11  0.1000E-09  0.5837E-21  0.1454E+18
   -3.712549   20.16067  0.2173E-13  0.4419E-11  0.1000E-11  0.1000E-09  0.1819E-22  0.1340E+18
   -3.825048   19.49267  0.2154E-13  0.4419E-11  0.1000E-11  0.1000E-09  0.5077E-24  0.1144E+18
   -3.937547   18.90330  0.2129E-13  0.1751E-08  0.4045E-11  0.4072E-09  0.1251E-25  0.8233E+17
   -4.050044   18.46694  0.2100E-13  0.7509E-07  0.1630E-09  0.5246E-07  0.2653E-27  0.2557E+17
   -4.162541   18.32918  0.2085E-13  0.4246E-06  0.9474E-09  0.4531E-04  0.4181E-29 -0.1702E+15
   -4.275037   18.33010  0.2085E-13  0.6607E-06  0.2215E-08  0.6973E-04  0.9862E-30 -0.5098E+15
   -4.387532   18.33285  0.2085E-13  0.6163E-06  0.8497E-08  0.1261E-04  0.2710E-30 -0.7520E+16
   -4.500025   18.37348  0.2085E-13  0.0000E+00  0.0000E+00  0.0000E+00  0.2616E-30  0.0000E+00
