 1 - depth, m
 2 - temperature, C
 3 - salinity, kg/kg
 4 - turbulent kinetic energy, m**2/s**2
 5 - dissipation rate, m**2/s**3
 6 - kinematic heat conductance, m**2/s
 7 - modulus of horizontal velocity, m/s
 8 - Richardson number, n/d
   -0.000000   28.82587  0.9912E-14  0.3230E-05  0.7177E-07  0.3261E-04  0.2720E-02 -0.7128E+01
   -0.112493   28.87963  0.9913E-14  0.5770E-05  0.3089E-07  0.4068E-03  0.8065E-03 -0.8395E+02
   -0.224987   28.88322  0.9913E-14  0.6142E-05  0.2402E-07  0.5510E-03  0.6546E-03  0.3925E+07
   -0.337482   28.88543  0.9913E-14  0.6235E-05  0.1984E-07  0.6702E-03  0.5618E-03  0.6731E+05
   -0.449978   28.88693  0.9913E-14  0.6175E-05  0.1682E-07  0.7645E-03  0.4935E-03  0.3888E+05
   -0.562475   28.88803  0.9913E-14  0.6024E-05  0.1447E-07  0.8396E-03  0.4395E-03  0.5466E+05
   -0.674973   28.88885  0.9913E-14  0.5811E-05  0.1255E-07  0.8964E-03  0.3952E-03  0.6063E+05
   -0.787472   28.88948  0.9913E-14  0.5552E-05  0.1092E-07  0.9185E-03  0.3568E-03  0.1978E+05
   -0.899971   28.88998  0.9913E-14  0.5261E-05  0.9508E-08  0.9253E-03  0.3221E-03  0.6243E+04
   -1.012471   28.89037  0.9913E-14  0.4950E-05  0.8290E-08  0.9230E-03  0.2905E-03  0.6772E+03
   -1.124972   28.89068  0.9913E-14  0.4633E-05  0.7241E-08  0.9137E-03  0.2620E-03  0.1736E+04
   -1.237473   28.89091  0.9913E-14  0.4313E-05  0.6340E-08  0.8947E-03  0.2361E-03  0.3747E+04
   -1.349975   28.89105  0.9913E-14  0.3992E-05  0.5554E-08  0.8627E-03  0.2120E-03  0.4121E+03
   -1.462477   28.89100  0.9913E-14  0.3656E-05  0.4845E-08  0.8204E-03  0.1879E-03  0.8487E+04
   -1.574979   28.88983  0.9913E-14  0.3320E-05  0.4206E-08  0.7667E-03  0.1587E-03  0.5658E+04
   -1.687482   28.88696  0.9914E-14  0.3007E-05  0.3646E-08  0.6994E-03  0.1343E-03  0.7114E+05
   -1.799985   28.88360  0.9914E-14  0.2706E-05  0.3141E-08  0.6174E-03  0.1170E-03  0.6560E+07
   -1.912489   28.87985  0.9914E-14  0.2394E-05  0.2655E-08  0.4418E-03  0.1023E-03  0.8975E+09
   -2.024992   28.87554  0.9914E-14  0.2066E-05  0.2181E-08  0.2799E-03  0.8775E-04  0.1331E+12
   -2.137496   28.87064  0.9915E-14  0.1742E-05  0.1749E-08  0.2037E-03  0.7387E-04  0.1864E+14
   -2.250000   28.86563  0.9915E-14  0.1434E-05  0.1370E-08  0.1483E-03  0.6154E-04  0.2797E+15
   -2.362503   28.85980  0.9915E-14  0.1137E-05  0.1033E-08  0.1022E-03  0.5061E-04  0.4520E+15
   -2.475007   28.85229  0.9915E-14  0.8626E-06  0.7419E-09  0.6650E-04  0.4081E-04  0.5785E+15
   -2.587510   28.84456  0.9915E-14  0.7093E-06  0.5925E-09  0.3361E-04  0.3374E-04  0.9147E+15
   -2.700014   28.83626  0.9916E-14  0.5669E-06  0.4684E-09  0.4875E-05  0.2845E-04  0.2153E+16
   -2.812517   28.82069  0.9919E-14  0.2468E-06  0.1998E-09  0.9192E-07  0.1634E-04  0.5998E+16
   -2.925020   28.76558  0.9938E-14  0.2210E-07  0.1900E-10  0.8312E-08  0.1451E-05  0.9527E+16
   -3.037522   28.69910  0.9955E-14  0.1414E-08  0.1874E-11  0.8979E-09  0.7881E-07  0.9624E+16
   -3.150025   28.64620  0.9959E-14  0.4419E-11  0.1000E-11  0.1000E-09  0.3802E-08  0.7796E+16
   -3.262526   28.60478  0.9957E-14  0.4419E-11  0.1000E-11  0.1000E-09  0.1697E-09  0.6094E+16
   -3.375027   28.57314  0.9953E-14  0.4419E-11  0.1000E-11  0.1000E-09  0.7006E-11  0.9139E+16
   -3.487528   28.54093  0.9947E-14  0.4419E-11  0.1000E-11  0.1000E-09  0.2658E-12  0.9656E+16
   -3.600028   28.50686  0.9939E-14  0.4419E-11  0.1000E-11  0.1000E-09  0.9315E-14  0.9317E+16
   -3.712527   28.47395  0.9927E-14  0.1553E-08  0.2149E-11  0.1946E-08  0.2989E-15  0.7727E+16
   -3.825026   28.44663  0.9912E-14  0.3221E-07  0.3270E-10  0.8077E-07  0.8551E-17  0.3826E+16
   -3.937524   28.43310  0.9899E-14  0.1344E-06  0.1399E-09  0.1381E-04  0.2057E-18  0.1510E+15
   -4.050021   28.43256  0.9898E-14  0.2574E-06  0.3207E-09  0.5098E-04  0.2627E-19 -0.5264E+14
   -4.162517   28.43275  0.9898E-14  0.3707E-06  0.6049E-09  0.7438E-04  0.7166E-20 -0.1146E+15
   -4.275012   28.43316  0.9897E-14  0.4717E-06  0.1143E-08  0.7252E-04  0.2140E-20 -0.2721E+15
   -4.387506   28.43412  0.9897E-14  0.3802E-06  0.4041E-08  0.9956E-05  0.5884E-21 -0.4403E+16
   -4.499999   28.44969  0.9897E-14  0.0000E+00  0.0000E+00  0.0000E+00  0.5908E-21  0.0000E+00
