 1 - depth, m
 2 - temperature, C
 3 - salinity, kg/kg
 4 - turbulent kinetic energy, m**2/s**2
 5 - dissipation rate, m**2/s**3
 6 - kinematic heat conductance, m**2/s
 7 - modulus of horizontal velocity, m/s
 8 - Richardson number, n/d
   -0.000000   28.17393  0.5745E-15  0.4598E-05  0.9929E-07  0.3971E-04  0.6490E-02 -0.9257E+00
   -0.112493   28.22024  0.5745E-15  0.6153E-05  0.3752E-07  0.3401E-03  0.2405E-02 -0.5900E+01
   -0.224987   28.22489  0.5745E-15  0.6300E-05  0.2690E-07  0.5228E-03  0.1843E-02  0.1187E+03
   -0.337482   28.22724  0.5745E-15  0.6227E-05  0.2151E-07  0.6238E-03  0.1568E-02  0.4352E+04
   -0.449978   28.22883  0.5745E-15  0.6048E-05  0.1782E-07  0.7015E-03  0.1382E-02  0.4213E+04
   -0.562475   28.22997  0.5745E-15  0.5789E-05  0.1495E-07  0.7489E-03  0.1231E-02  0.6443E+04
   -0.674973   28.23082  0.5745E-15  0.5471E-05  0.1260E-07  0.7624E-03  0.1099E-02  0.5486E+04
   -0.787472   28.23148  0.5745E-15  0.5117E-05  0.1065E-07  0.7600E-03  0.9801E-03  0.1214E+04
   -0.899971   28.23199  0.5745E-15  0.4744E-05  0.9025E-08  0.7482E-03  0.8739E-03  0.5447E+03
   -1.012471   28.23237  0.5745E-15  0.4368E-05  0.7671E-08  0.7288E-03  0.7786E-03  0.3139E+03
   -1.124972   28.23263  0.5745E-15  0.3994E-05  0.6547E-08  0.6994E-03  0.6923E-03  0.8788E+02
   -1.237473   28.23276  0.5745E-15  0.3616E-05  0.5589E-08  0.6536E-03  0.6117E-03  0.1014E+04
   -1.349974   28.23250  0.5745E-15  0.3207E-05  0.4714E-08  0.5959E-03  0.5260E-03  0.2835E+03
   -1.462477   28.22833  0.5745E-15  0.2810E-05  0.3938E-08  0.5302E-03  0.3954E-03  0.3779E+03
   -1.574979   28.21931  0.5745E-15  0.2461E-05  0.3277E-08  0.4560E-03  0.3043E-03  0.2923E+05
   -1.687482   28.20964  0.5744E-15  0.2133E-05  0.2697E-08  0.4168E-03  0.2454E-03  0.3512E+07
   -1.799985   28.19914  0.5744E-15  0.1823E-05  0.2196E-08  0.3899E-03  0.1978E-03  0.4644E+09
   -1.912488   28.18748  0.5744E-15  0.1535E-05  0.1761E-08  0.3747E-03  0.1569E-03  0.6581E+11
   -2.024992   28.17464  0.5744E-15  0.1274E-05  0.1385E-08  0.3305E-03  0.1216E-03  0.1003E+14
   -2.137496   28.16277  0.5744E-15  0.1139E-05  0.1176E-08  0.1955E-03  0.9975E-04  0.5827E+15
   -2.249999   28.15449  0.5744E-15  0.1037E-05  0.1019E-08  0.1485E-03  0.8734E-04  0.9126E+15
   -2.362503   28.14698  0.5743E-15  0.9393E-06  0.8846E-09  0.1165E-03  0.7712E-04  0.1233E+16
   -2.475007   28.13895  0.5743E-15  0.8450E-06  0.7694E-09  0.8350E-04  0.6808E-04  0.1371E+16
   -2.587510   28.13166  0.5743E-15  0.7484E-06  0.6658E-09  0.4906E-04  0.5999E-04  0.1585E+16
   -2.700014   28.12464  0.5743E-15  0.6083E-06  0.5304E-09  0.2004E-04  0.5068E-04  0.1922E+16
   -2.812517   28.11511  0.5744E-15  0.3783E-06  0.3196E-09  0.3849E-05  0.3243E-04  0.2407E+16
   -2.925020   28.10190  0.5745E-15  0.1804E-06  0.1399E-09  0.3049E-06  0.1361E-04  0.3421E+16
   -3.037522   28.08390  0.5746E-15  0.1920E-06  0.1193E-09  0.2571E-05  0.2064E-05  0.2173E+16
   -3.150024   28.07312  0.5746E-15  0.3397E-06  0.2056E-09  0.2191E-04  0.1809E-06  0.1502E+15
   -3.262526   28.07242  0.5745E-15  0.4503E-06  0.2806E-09  0.8349E-04  0.5617E-07  0.3565E+13
   -3.375027   28.07241  0.5745E-15  0.5494E-06  0.3671E-09  0.1499E-03  0.3101E-07 -0.6070E+13
   -3.487528   28.07244  0.5745E-15  0.6522E-06  0.4753E-09  0.2150E-03  0.1881E-07 -0.1102E+14
   -3.600028   28.07250  0.5745E-15  0.7568E-06  0.6057E-09  0.2980E-03  0.1183E-07 -0.1452E+14
   -3.712527   28.07258  0.5745E-15  0.8516E-06  0.7466E-09  0.3518E-03  0.7594E-08 -0.1911E+14
   -3.825026   28.07268  0.5745E-15  0.9375E-06  0.9041E-09  0.3663E-03  0.5319E-08 -0.2570E+14
   -3.937523   28.07281  0.5745E-15  0.1017E-05  0.1097E-08  0.3586E-03  0.3723E-08 -0.3565E+14
   -4.050020   28.07300  0.5745E-15  0.1086E-05  0.1345E-08  0.3387E-03  0.2544E-08 -0.4978E+14
   -4.162516   28.07325  0.5745E-15  0.1135E-05  0.1692E-08  0.3014E-03  0.1681E-08 -0.7310E+14
   -4.275011   28.07363  0.5745E-15  0.1136E-05  0.2313E-08  0.2318E-03  0.1067E-08 -0.1259E+15
   -4.387506   28.07427  0.5745E-15  0.6059E-06  0.7079E-08  0.1237E-04  0.5907E-09 -0.3325E+16
   -4.499999   28.09073  0.5745E-15  0.0000E+00  0.0000E+00  0.0000E+00  0.5917E-09  0.0000E+00
