 1 - depth, m
 2 - temperature, C
 3 - salinity, kg/kg
 4 - turbulent kinetic energy, m**2/s**2
 5 - dissipation rate, m**2/s**3
 6 - kinematic heat conductance, m**2/s
 7 - modulus of horizontal velocity, m/s
 8 - Richardson number, n/d
   -0.000000   28.44638  0.2054E-13  0.2746E-05  0.5741E-07  0.2981E-04  0.2453E-02 -0.1623E+02
   -0.112494   28.49659  0.2055E-13  0.4853E-05  0.2461E-07  0.3612E-03  0.7369E-03 -0.2357E+03
   -0.224988   28.49999  0.2055E-13  0.5110E-05  0.1894E-07  0.4920E-03  0.5857E-03  0.1405E+04
   -0.337484   28.50201  0.2055E-13  0.5121E-05  0.1549E-07  0.5892E-03  0.5006E-03  0.6362E+06
   -0.449981   28.50338  0.2055E-13  0.5002E-05  0.1296E-07  0.6630E-03  0.4377E-03  0.3668E+05
   -0.562478   28.50436  0.2055E-13  0.4806E-05  0.1098E-07  0.7183E-03  0.3884E-03  0.3277E+05
   -0.674977   28.50508  0.2055E-13  0.4557E-05  0.9343E-08  0.7447E-03  0.3472E-03  0.1512E+05
   -0.787476   28.50563  0.2055E-13  0.4273E-05  0.7956E-08  0.7504E-03  0.3102E-03  0.4684E+04
   -0.899976   28.50606  0.2055E-13  0.3971E-05  0.6781E-08  0.7459E-03  0.2771E-03  0.2476E+04
   -1.012476   28.50638  0.2055E-13  0.3665E-05  0.5792E-08  0.7341E-03  0.2476E-03  0.4394E+04
   -1.124978   28.50661  0.2055E-13  0.3359E-05  0.4955E-08  0.7023E-03  0.2212E-03  0.2821E+04
   -1.237479   28.50675  0.2055E-13  0.3040E-05  0.4206E-08  0.5991E-03  0.1964E-03  0.8852E+03
   -1.349982   28.50677  0.2055E-13  0.2696E-05  0.3513E-08  0.5232E-03  0.1700E-03  0.1121E+04
   -1.462484   28.50604  0.2055E-13  0.2348E-05  0.2897E-08  0.4454E-03  0.1358E-03  0.6302E+05
   -1.574988   28.50357  0.2056E-13  0.2008E-05  0.2345E-08  0.2960E-03  0.1039E-03  0.1941E+05
   -1.687491   28.50008  0.2056E-13  0.1662E-05  0.1833E-08  0.1929E-03  0.7963E-04  0.8591E+06
   -1.799995   28.49500  0.2056E-13  0.1310E-05  0.1366E-08  0.1350E-03  0.5708E-04  0.1129E+09
   -1.912499   28.48660  0.2057E-13  0.9696E-06  0.9568E-09  0.9547E-04  0.3378E-04  0.1640E+11
   -2.025003   28.47395  0.2058E-13  0.7760E-06  0.7348E-09  0.5886E-04  0.1967E-04  0.2910E+13
   -2.137507   28.46265  0.2058E-13  0.6444E-06  0.5959E-09  0.2636E-04  0.1548E-04  0.5120E+15
   -2.250011   28.44607  0.2058E-13  0.4714E-06  0.4321E-09  0.1315E-05  0.1269E-04  0.3427E+16
   -2.362516   28.39199  0.2060E-13  0.9877E-07  0.9100E-10  0.1267E-07  0.4045E-05  0.1615E+17
   -2.475020   28.16558  0.2074E-13  0.6031E-08  0.6462E-11  0.4891E-09  0.2921E-06  0.4189E+17
   -2.587524   27.76294  0.2103E-13  0.2413E-09  0.1073E-11  0.1000E-09  0.1877E-07  0.7958E+17
   -2.700028   27.20651  0.2137E-13  0.4419E-11  0.1000E-11  0.1000E-09  0.1145E-08  0.9779E+17
   -2.812532   26.54047  0.2161E-13  0.4419E-11  0.1000E-11  0.1000E-09  0.6621E-10  0.1164E+18
   -2.925035   25.80845  0.2176E-13  0.4419E-11  0.1000E-11  0.1000E-09  0.3614E-11  0.1964E+18
   -3.037538   25.03972  0.2184E-13  0.4419E-11  0.1000E-11  0.1000E-09  0.1856E-12  0.1944E+18
   -3.150041   24.25640  0.2186E-13  0.4419E-11  0.1000E-11  0.1000E-09  0.8933E-14  0.1864E+18
   -3.262544   23.48243  0.2182E-13  0.4419E-11  0.1000E-11  0.1000E-09  0.4001E-15  0.1717E+18
   -3.375045   22.74756  0.2175E-13  0.4419E-11  0.1000E-11  0.1000E-09  0.1658E-16  0.1686E+18
   -3.487547   22.00274  0.2165E-13  0.4419E-11  0.1000E-11  0.1000E-09  0.6310E-18  0.1652E+18
   -3.600047   21.24820  0.2150E-13  0.4419E-11  0.1000E-11  0.1000E-09  0.2219E-19  0.1570E+18
   -3.712547   20.50574  0.2132E-13  0.4419E-11  0.1000E-11  0.1000E-09  0.7143E-21  0.1432E+18
   -3.825046   19.80389  0.2108E-13  0.4419E-11  0.1000E-11  0.1000E-09  0.2050E-22  0.1224E+18
   -3.937545   19.18337  0.2080E-13  0.9532E-09  0.2103E-11  0.1904E-09  0.5176E-24  0.9162E+17
   -4.050042   18.70472  0.2049E-13  0.4037E-07  0.8308E-10  0.1632E-07  0.1121E-25  0.4210E+17
   -4.162539   18.48040  0.2026E-13  0.2997E-06  0.6299E-09  0.2845E-04  0.1755E-27 -0.1216E+15
   -4.275035   18.48106  0.2026E-13  0.5474E-06  0.1791E-08  0.5854E-04  0.3201E-28 -0.4830E+15
   -4.387529   18.48365  0.2026E-13  0.5479E-06  0.7172E-08  0.1187E-04  0.7868E-29 -0.6805E+16
   -4.500023   18.52009  0.2026E-13  0.0000E+00  0.0000E+00  0.0000E+00  0.7904E-29  0.0000E+00
