 1 - depth, m
 2 - temperature, C
 3 - salinity, kg/kg
 4 - turbulent kinetic energy, m**2/s**2
 5 - dissipation rate, m**2/s**3
 6 - kinematic heat conductance, m**2/s
 7 - modulus of horizontal velocity, m/s
 8 - Richardson number, n/d
   -0.000000   25.00793  0.2843E-14  0.8767E-05  0.2038E-06  0.5142E-04  0.1227E-01 -0.2445E+00
   -0.112493   25.04660  0.2843E-14  0.8617E-05  0.6886E-07  0.2192E-03  0.5589E-02 -0.8536E+00
   -0.224987   25.05441  0.2843E-14  0.8321E-05  0.4261E-07  0.4840E-03  0.3954E-02  0.3596E+01
   -0.337482   25.05755  0.2843E-14  0.8002E-05  0.3169E-07  0.6833E-03  0.3198E-02  0.9318E+03
   -0.449978   25.05932  0.2843E-14  0.7714E-05  0.2565E-07  0.7970E-03  0.2747E-02  0.1388E+05
   -0.562475   25.06059  0.2843E-14  0.7436E-05  0.2156E-07  0.8713E-03  0.2448E-02  0.3948E+03
   -0.674972   25.06157  0.2843E-14  0.7142E-05  0.1843E-07  0.9353E-03  0.2201E-02  0.9809E+03
   -0.787471   25.06234  0.2843E-14  0.6830E-05  0.1590E-07  0.9851E-03  0.1990E-02  0.5354E+03
   -0.899970   25.06296  0.2843E-14  0.6494E-05  0.1377E-07  0.9959E-03  0.1798E-02  0.3133E+03
   -1.012470   25.06346  0.2843E-14  0.6142E-05  0.1195E-07  0.9799E-03  0.1622E-02  0.2187E+03
   -1.124970   25.06389  0.2843E-14  0.5778E-05  0.1039E-07  0.9564E-03  0.1459E-02  0.8536E+02
   -1.237471   25.06425  0.2843E-14  0.5410E-05  0.9040E-08  0.9313E-03  0.1309E-02  0.1584E+03
   -1.349973   25.06455  0.2843E-14  0.5043E-05  0.7879E-08  0.9043E-03  0.1172E-02  0.5062E+02
   -1.462475   25.06478  0.2843E-14  0.4683E-05  0.6879E-08  0.8714E-03  0.1047E-02  0.1372E+03
   -1.574977   25.06496  0.2843E-14  0.4331E-05  0.6017E-08  0.8306E-03  0.9338E-03  0.6185E+02
   -1.687480   25.06508  0.2843E-14  0.3987E-05  0.5274E-08  0.7862E-03  0.8297E-03  0.2610E+02
   -1.799983   25.06513  0.2843E-14  0.3650E-05  0.4631E-08  0.7433E-03  0.7334E-03  0.4517E+02
   -1.912486   25.06505  0.2843E-14  0.3314E-05  0.4058E-08  0.6903E-03  0.6428E-03  0.5524E+02
   -2.024990   25.06457  0.2843E-14  0.2954E-05  0.3515E-08  0.6237E-03  0.5490E-03  0.7954E+02
   -2.137493   25.06147  0.2842E-14  0.2603E-05  0.3021E-08  0.5532E-03  0.4344E-03  0.7138E+03
   -2.249997   25.05534  0.2842E-14  0.2301E-05  0.2596E-08  0.4696E-03  0.3460E-03  0.7291E+05
   -2.362500   25.04885  0.2842E-14  0.2024E-05  0.2211E-08  0.3576E-03  0.2841E-03  0.1489E+08
   -2.475004   25.04217  0.2842E-14  0.1750E-05  0.1846E-08  0.2373E-03  0.2341E-03  0.3027E+10
   -2.587507   25.03556  0.2841E-14  0.1481E-05  0.1506E-08  0.1461E-03  0.1890E-03  0.6912E+12
   -2.700011   25.02878  0.2841E-14  0.1220E-05  0.1198E-08  0.9333E-04  0.1484E-03  0.1788E+15
   -2.812514   25.02164  0.2841E-14  0.9555E-06  0.9062E-09  0.5269E-04  0.1116E-03  0.6519E+15
   -2.925016   25.01304  0.2841E-14  0.6612E-06  0.6040E-09  0.2427E-04  0.7265E-04  0.9398E+15
   -3.037519   25.00301  0.2840E-14  0.4215E-06  0.3741E-09  0.6254E-05  0.4379E-04  0.1420E+16
   -3.150021   24.99042  0.2838E-14  0.2074E-06  0.1789E-09  0.2429E-06  0.2164E-04  0.2489E+16
   -3.262522   24.97189  0.2835E-14  0.5172E-07  0.4331E-10  0.6719E-07  0.4517E-05  0.3410E+16
   -3.375023   24.95105  0.2830E-14  0.5647E-07  0.3678E-10  0.1359E-06  0.4464E-06  0.2214E+16
   -3.487524   24.93953  0.2826E-14  0.1612E-06  0.1019E-09  0.6500E-05  0.2706E-07  0.2205E+15
   -3.600024   24.93848  0.2826E-14  0.2537E-06  0.1666E-09  0.5106E-04  0.3174E-08  0.6941E+13
   -3.712523   24.93845  0.2826E-14  0.3338E-06  0.2428E-09  0.1018E-03  0.1253E-08 -0.1284E+14
   -3.825021   24.93852  0.2826E-14  0.4139E-06  0.3412E-09  0.1440E-03  0.5915E-09 -0.2183E+14
   -3.937519   24.93862  0.2825E-14  0.4944E-06  0.4700E-09  0.1782E-03  0.2970E-09 -0.3190E+14
   -4.050016   24.93877  0.2825E-14  0.5713E-06  0.6421E-09  0.1946E-03  0.1509E-09 -0.4721E+14
   -4.162512   24.93898  0.2825E-14  0.6368E-06  0.8899E-09  0.1821E-03  0.7490E-10 -0.7800E+14
   -4.275007   24.93933  0.2825E-14  0.6704E-06  0.1331E-08  0.1319E-03  0.3437E-10 -0.1683E+15
   -4.387501   24.94006  0.2825E-14  0.4041E-06  0.4127E-08  0.1025E-04  0.1360E-10 -0.3712E+16
   -4.499994   24.95526  0.2825E-14  0.0000E+00  0.0000E+00  0.0000E+00  0.1349E-10  0.0000E+00
