 1 - depth, m
 2 - temperature, C
 3 - salinity, kg/kg
 4 - turbulent kinetic energy, m**2/s**2
 5 - dissipation rate, m**2/s**3
 6 - kinematic heat conductance, m**2/s
 7 - modulus of horizontal velocity, m/s
 8 - Richardson number, n/d
   -0.000000   28.11282  0.2125E-13  0.3340E-05  0.7997E-07  0.3115E-04  0.1630E-02 -0.1362E+03
   -0.112493   28.17529  0.2125E-13  0.6799E-05  0.3532E-07  0.4862E-03  0.4302E-03 -0.1834E+04
   -0.224988   28.17876  0.2125E-13  0.7399E-05  0.2831E-07  0.6615E-03  0.3548E-03  0.7092E+06
   -0.337483   28.18098  0.2126E-13  0.7684E-05  0.2400E-07  0.8208E-03  0.3055E-03  0.1420E+05
   -0.449979   28.18254  0.2126E-13  0.7785E-05  0.2089E-07  0.9535E-03  0.2693E-03  0.7594E+04
   -0.562476   28.18372  0.2126E-13  0.7767E-05  0.1845E-07  0.1066E-02  0.2407E-03  0.5691E+04
   -0.674974   28.18464  0.2126E-13  0.7665E-05  0.1644E-07  0.1159E-02  0.2172E-03  0.4763E+04
   -0.787473   28.18538  0.2126E-13  0.7502E-05  0.1473E-07  0.1237E-02  0.1973E-03  0.4354E+04
   -0.899973   28.18599  0.2126E-13  0.7294E-05  0.1325E-07  0.1300E-02  0.1803E-03  0.4083E+04
   -1.012473   28.18649  0.2126E-13  0.7053E-05  0.1195E-07  0.1350E-02  0.1654E-03  0.4036E+04
   -1.124974   28.18690  0.2126E-13  0.6790E-05  0.1079E-07  0.1389E-02  0.1522E-03  0.4000E+04
   -1.237475   28.18724  0.2126E-13  0.6511E-05  0.9759E-08  0.1417E-02  0.1406E-03  0.4141E+04
   -1.349977   28.18752  0.2126E-13  0.6224E-05  0.8841E-08  0.1437E-02  0.1303E-03  0.4261E+04
   -1.462480   28.18775  0.2126E-13  0.5934E-05  0.8025E-08  0.1449E-02  0.1212E-03  0.4554E+04
   -1.574982   28.18794  0.2126E-13  0.5649E-05  0.7306E-08  0.1457E-02  0.1132E-03  0.4824E+04
   -1.687485   28.18808  0.2126E-13  0.5368E-05  0.6667E-08  0.1424E-02  0.1061E-03  0.3397E+05
   -1.799989   28.18819  0.2126E-13  0.5081E-05  0.6080E-08  0.1326E-02  0.9954E-04  0.4931E+05
   -1.912492   28.18827  0.2126E-13  0.4749E-05  0.5471E-08  0.8300E-03  0.9292E-04  0.3311E+07
   -2.024996   28.18834  0.2126E-13  0.4348E-05  0.4812E-08  0.5102E-03  0.8516E-04 -0.8513E+03
   -2.137500   28.18835  0.2126E-13  0.3936E-05  0.4228E-08  0.3233E-03  0.7778E-04  0.1495E+05
   -2.250004   28.18825  0.2126E-13  0.3516E-05  0.3715E-08  0.1357E-03  0.7113E-04  0.9769E+05
   -2.362508   28.18769  0.2126E-13  0.2894E-05  0.3042E-08  0.1542E-05  0.6492E-04  0.2560E+06
   -2.475012   28.10796  0.2129E-13  0.3230E-06  0.3409E-09  0.1814E-07  0.1851E-04  0.3340E+08
   -2.587516   27.54369  0.2160E-13  0.1634E-07  0.1830E-10  0.8895E-09  0.1213E-05  0.9361E+10
   -2.700019   26.91521  0.2184E-13  0.4845E-09  0.1094E-11  0.1000E-09  0.7210E-07  0.3357E+13
   -2.812523   26.22902  0.2203E-13  0.4419E-11  0.1000E-11  0.1000E-09  0.4061E-08  0.1281E+16
   -2.925026   25.47363  0.2214E-13  0.4419E-11  0.1000E-11  0.1000E-09  0.2162E-09  0.4825E+17
   -3.037529   24.66981  0.2216E-13  0.4419E-11  0.1000E-11  0.1000E-09  0.1084E-10  0.1995E+18
   -3.150031   23.85402  0.2213E-13  0.4419E-11  0.1000E-11  0.1000E-09  0.5102E-12  0.1868E+18
   -3.262533   23.06534  0.2207E-13  0.4419E-11  0.1000E-11  0.1000E-09  0.2238E-13  0.1662E+18
   -3.375034   22.34133  0.2200E-13  0.4419E-11  0.1000E-11  0.1000E-09  0.9093E-15  0.1608E+18
   -3.487535   21.61841  0.2190E-13  0.4419E-11  0.1000E-11  0.1000E-09  0.3399E-16  0.1567E+18
   -3.600035   20.89042  0.2178E-13  0.4419E-11  0.1000E-11  0.1000E-09  0.1175E-17  0.1485E+18
   -3.712535   20.17600  0.2162E-13  0.4419E-11  0.1000E-11  0.1000E-09  0.3724E-19  0.1352E+18
   -3.825034   19.50256  0.2142E-13  0.4419E-11  0.1000E-11  0.1000E-09  0.1054E-20  0.1144E+18
   -3.937532   18.91369  0.2116E-13  0.1389E-08  0.3132E-11  0.3131E-09  0.2626E-22  0.8291E+17
   -4.050029   18.47445  0.2087E-13  0.5904E-07  0.1247E-09  0.3306E-07  0.5623E-24  0.3108E+17
   -4.162525   18.30694  0.2070E-13  0.3688E-06  0.7992E-09  0.3824E-04  0.8750E-26 -0.1512E+15
   -4.275021   18.30776  0.2070E-13  0.6056E-06  0.2002E-08  0.6443E-04  0.1903E-26 -0.4947E+15
   -4.387515   18.31044  0.2070E-13  0.5835E-06  0.7854E-08  0.1226E-04  0.4998E-27 -0.7181E+16
   -4.500008   18.34928  0.2069E-13  0.0000E+00  0.0000E+00  0.0000E+00  0.4923E-27  0.0000E+00
