 1 - depth, m
 2 - temperature, C
 3 - salinity, kg/kg
 4 - turbulent kinetic energy, m**2/s**2
 5 - dissipation rate, m**2/s**3
 6 - kinematic heat conductance, m**2/s
 7 - modulus of horizontal velocity, m/s
 8 - Richardson number, n/d
   -0.000000   28.52040  0.1041E-14  0.6393E-05  0.1411E-06  0.4486E-04  0.9580E-02 -0.4544E+00
   -0.112494   28.55980  0.1042E-14  0.7132E-05  0.4933E-07  0.2864E-03  0.4115E-02 -0.1994E+01
   -0.224989   28.56535  0.1042E-14  0.7062E-05  0.3270E-07  0.4960E-03  0.3029E-02  0.2418E+05
   -0.337485   28.56793  0.1042E-14  0.6861E-05  0.2512E-07  0.6015E-03  0.2510E-02  0.3069E+04
   -0.449982   28.56962  0.1042E-14  0.6594E-05  0.2026E-07  0.6834E-03  0.2153E-02  0.3073E+04
   -0.562480   28.57082  0.1042E-14  0.6282E-05  0.1676E-07  0.7436E-03  0.1880E-02  0.1364E+04
   -0.674979   28.57171  0.1042E-14  0.5940E-05  0.1406E-07  0.7837E-03  0.1657E-02  0.2869E+03
   -0.787478   28.57238  0.1042E-14  0.5580E-05  0.1191E-07  0.8050E-03  0.1469E-02  0.3921E+03
   -0.899979   28.57288  0.1042E-14  0.5211E-05  0.1015E-07  0.8121E-03  0.1305E-02  0.3762E+02
   -1.012480   28.57325  0.1042E-14  0.4841E-05  0.8698E-08  0.8092E-03  0.1160E-02  0.1448E+02
   -1.124981   28.57349  0.1042E-14  0.4472E-05  0.7488E-08  0.7942E-03  0.1028E-02  0.2083E+02
   -1.237483   28.57353  0.1042E-14  0.4090E-05  0.6433E-08  0.7663E-03  0.9002E-03  0.2559E+02
   -1.349986   28.57230  0.1042E-14  0.3706E-05  0.5502E-08  0.7312E-03  0.7352E-03  0.2937E+02
   -1.462489   28.56798  0.1043E-14  0.3355E-05  0.4710E-08  0.6887E-03  0.5775E-03  0.8705E+03
   -1.574993   28.56241  0.1043E-14  0.3033E-05  0.4028E-08  0.6385E-03  0.4700E-03  0.8738E+05
   -1.687496   28.55635  0.1043E-14  0.2723E-05  0.3424E-08  0.5793E-03  0.3872E-03  0.1018E+08
   -1.800001   28.54964  0.1043E-14  0.2424E-05  0.2888E-08  0.5226E-03  0.3165E-03  0.1280E+10
   -1.912505   28.54226  0.1044E-14  0.2138E-05  0.2416E-08  0.4794E-03  0.2553E-03  0.1725E+12
   -2.025009   28.53429  0.1044E-14  0.1868E-05  0.2001E-08  0.4447E-03  0.2024E-03  0.2501E+14
   -2.137514   28.52591  0.1044E-14  0.1619E-05  0.1638E-08  0.4190E-03  0.1571E-03  0.3549E+15
   -2.250019   28.51809  0.1045E-14  0.1427E-05  0.1363E-08  0.4001E-03  0.1210E-03  0.5173E+15
   -2.362523   28.51138  0.1045E-14  0.1331E-05  0.1214E-08  0.3799E-03  0.1010E-03  0.7351E+15
   -2.475028   28.50490  0.1045E-14  0.1258E-05  0.1103E-08  0.3611E-03  0.8795E-04  0.8280E+15
   -2.587532   28.49912  0.1045E-14  0.1190E-05  0.1005E-08  0.3400E-03  0.7651E-04  0.9289E+15
   -2.700037   28.49386  0.1045E-14  0.1126E-05  0.9187E-09  0.3235E-03  0.6606E-04  0.1062E+16
   -2.812541   28.48893  0.1045E-14  0.1067E-05  0.8441E-09  0.3105E-03  0.5652E-04  0.1217E+16
   -2.925045   28.48421  0.1045E-14  0.1023E-05  0.7860E-09  0.3015E-03  0.4793E-04  0.1148E+16
   -3.037548   28.48000  0.1045E-14  0.1017E-05  0.7568E-09  0.2948E-03  0.4025E-04  0.6136E+15
   -3.150051   28.47771  0.1045E-14  0.1023E-05  0.7417E-09  0.2989E-03  0.3355E-04  0.2792E+15
   -3.262554   28.47667  0.1045E-14  0.1040E-05  0.7435E-09  0.3153E-03  0.2792E-04  0.9556E+14
   -3.375056   28.47632  0.1045E-14  0.1072E-05  0.7679E-09  0.3410E-03  0.2345E-04  0.1577E+14
   -3.487558   28.47627  0.1045E-14  0.1111E-05  0.8136E-09  0.3747E-03  0.1982E-04 -0.3343E+13
   -3.600059   28.47630  0.1045E-14  0.1157E-05  0.8838E-09  0.4223E-03  0.1679E-04 -0.9096E+13
   -3.712559   28.47635  0.1045E-14  0.1205E-05  0.9792E-09  0.4770E-03  0.1423E-04 -0.1331E+14
   -3.825059   28.47642  0.1045E-14  0.1252E-05  0.1099E-08  0.4962E-03  0.1211E-04 -0.1884E+14
   -3.937557   28.47651  0.1045E-14  0.1295E-05  0.1252E-08  0.4797E-03  0.1032E-04 -0.2623E+14
   -4.050055   28.47664  0.1045E-14  0.1331E-05  0.1463E-08  0.4445E-03  0.8726E-05 -0.3741E+14
   -4.162552   28.47682  0.1044E-14  0.1350E-05  0.1780E-08  0.3880E-03  0.7269E-05 -0.5792E+14
   -4.275048   28.47711  0.1044E-14  0.1324E-05  0.2401E-08  0.2831E-03  0.5995E-05 -0.1114E+15
   -4.387543   28.47764  0.1044E-14  0.6597E-06  0.7972E-08  0.1217E-04  0.4582E-05 -0.2576E+16
   -4.500037   28.49210  0.1044E-14  0.0000E+00  0.0000E+00  0.0000E+00  0.4711E-05  0.0000E+00
