 1 - depth, m
 2 - temperature, C
 3 - salinity, kg/kg
 4 - turbulent kinetic energy, m**2/s**2
 5 - dissipation rate, m**2/s**3
 6 - kinematic heat conductance, m**2/s
 7 - modulus of horizontal velocity, m/s
 8 - Richardson number, n/d
   -0.000000   25.49461  0.4231E-15  0.8083E-05  0.1712E-06  0.4896E-04  0.1350E-01 -0.1876E+00
   -0.112493   25.52235  0.4231E-15  0.7056E-05  0.5876E-07  0.1465E-03  0.7020E-02 -0.5294E+00
   -0.224987   25.52959  0.4231E-15  0.6291E-05  0.3310E-07  0.2530E-03  0.5004E-02 -0.8494E+00
   -0.337482   25.53289  0.4231E-15  0.5617E-05  0.2216E-07  0.3879E-03  0.3927E-02  0.8485E+00
   -0.449978   25.53464  0.4231E-15  0.5023E-05  0.1623E-07  0.4256E-03  0.3262E-02  0.6374E+03
   -0.562475   25.53580  0.4231E-15  0.4472E-05  0.1237E-07  0.4405E-03  0.2784E-02  0.2798E+03
   -0.674972   25.53660  0.4231E-15  0.3949E-05  0.9586E-08  0.4373E-03  0.2402E-02  0.1733E+03
   -0.787471   25.53713  0.4231E-15  0.3453E-05  0.7509E-08  0.4177E-03  0.2086E-02  0.2624E+02
   -0.899970   25.53744  0.4231E-15  0.2979E-05  0.5918E-08  0.3778E-03  0.1813E-02  0.2310E+02
   -1.012470   25.53751  0.4231E-15  0.2510E-05  0.4633E-08  0.3216E-03  0.1565E-02  0.9835E+03
   -1.124971   25.53683  0.4231E-15  0.2013E-05  0.3487E-08  0.2338E-03  0.1298E-02  0.6024E+01
   -1.237472   25.52822  0.4230E-15  0.1566E-05  0.2538E-08  0.1554E-03  0.9053E-03  0.2020E+03
   -1.349973   25.51134  0.4230E-15  0.1196E-05  0.1809E-08  0.1045E-03  0.6403E-03  0.1798E+05
   -1.462475   25.49348  0.4229E-15  0.8746E-06  0.1226E-08  0.6744E-04  0.4628E-03  0.1949E+07
   -1.574978   25.47417  0.4229E-15  0.5976E-06  0.7681E-09  0.3961E-04  0.3157E-03  0.2416E+09
   -1.687480   25.45302  0.4228E-15  0.4101E-06  0.4945E-09  0.1495E-04  0.2094E-03  0.3761E+11
   -1.799983   25.43098  0.4228E-15  0.2279E-06  0.2679E-09  0.3805E-06  0.1451E-03  0.8146E+13
   -1.912487   25.39471  0.4226E-15  0.3077E-07  0.3639E-10  0.2061E-07  0.4186E-04  0.1934E+16
   -2.024990   25.33862  0.4223E-15  0.1735E-08  0.2870E-11  0.2185E-08  0.4087E-05  0.5204E+16
   -2.137494   25.29280  0.4222E-15  0.2735E-10  0.1000E-11  0.1828E-09  0.3104E-06  0.4800E+16
   -2.249997   25.25966  0.4221E-15  0.4419E-11  0.1000E-11  0.1000E-09  0.2201E-07  0.4917E+16
   -2.362501   25.23097  0.4221E-15  0.4419E-11  0.1000E-11  0.1000E-09  0.1494E-08  0.5580E+16
   -2.475004   25.20230  0.4220E-15  0.4419E-11  0.1000E-11  0.1000E-09  0.9850E-10  0.5337E+16
   -2.587508   25.17666  0.4219E-15  0.1568E-09  0.1002E-11  0.4363E-09  0.6209E-11  0.5417E+16
   -2.700011   25.15493  0.4218E-15  0.5472E-08  0.3106E-11  0.7894E-08  0.3722E-12  0.4366E+16
   -2.812514   25.13769  0.4217E-15  0.4866E-07  0.2425E-10  0.1323E-06  0.2127E-13  0.2830E+16
   -2.925017   25.12651  0.4215E-15  0.1708E-06  0.8652E-10  0.2622E-05  0.1282E-14  0.8978E+15
   -3.037519   25.12297  0.4214E-15  0.2797E-06  0.1438E-09  0.2679E-04  0.2640E-15  0.1541E+15
   -3.150021   25.12236  0.4214E-15  0.3688E-06  0.1965E-09  0.7483E-04  0.1313E-15  0.1053E+14
   -3.262523   25.12232  0.4214E-15  0.4510E-06  0.2563E-09  0.1359E-03  0.7669E-16 -0.5834E+13
   -3.375024   25.12234  0.4214E-15  0.5344E-06  0.3291E-09  0.1914E-03  0.4794E-16 -0.1109E+14
   -3.487525   25.12238  0.4214E-15  0.6208E-06  0.4174E-09  0.2542E-03  0.3081E-16 -0.1489E+14
   -3.600025   25.12244  0.4214E-15  0.7052E-06  0.5180E-09  0.3318E-03  0.2013E-16 -0.1804E+14
   -3.712524   25.12251  0.4214E-15  0.7817E-06  0.6266E-09  0.3567E-03  0.1419E-16 -0.2432E+14
   -3.825022   25.12261  0.4214E-15  0.8530E-06  0.7516E-09  0.3649E-03  0.1019E-16 -0.3252E+14
   -3.937520   25.12274  0.4214E-15  0.9194E-06  0.9056E-09  0.3554E-03  0.7200E-17 -0.4406E+14
   -4.050017   25.12291  0.4214E-15  0.9763E-06  0.1103E-08  0.3342E-03  0.4960E-17 -0.6047E+14
   -4.162513   25.12315  0.4214E-15  0.1015E-05  0.1379E-08  0.2964E-03  0.3301E-17 -0.8747E+14
   -4.275008   25.12350  0.4214E-15  0.1012E-05  0.1878E-08  0.2261E-03  0.2106E-17 -0.1492E+15
   -4.387502   25.12409  0.4214E-15  0.5322E-06  0.5780E-08  0.1156E-04  0.1180E-17 -0.3942E+16
   -4.499995   25.13969  0.4214E-15  0.0000E+00  0.0000E+00  0.0000E+00  0.1177E-17  0.0000E+00
