 1 - depth, m
 2 - temperature, C
 3 - salinity, kg/kg
 4 - turbulent kinetic energy, m**2/s**2
 5 - dissipation rate, m**2/s**3
 6 - kinematic heat conductance, m**2/s
 7 - modulus of horizontal velocity, m/s
 8 - Richardson number, n/d
   -0.000000   30.03512  0.3809E-15  0.3342E-05  0.8444E-07  0.3084E-04  0.1197E-02 -0.6905E+02
   -0.112494   30.10413  0.3810E-15  0.6731E-05  0.3734E-07  0.4539E-03  0.3257E-03 -0.9940E+03
   -0.224988   30.10809  0.3810E-15  0.7221E-05  0.2956E-07  0.6083E-03  0.2698E-03  0.1655E+07
   -0.337484   30.11056  0.3810E-15  0.7369E-05  0.2464E-07  0.7420E-03  0.2330E-03  0.1761E+06
   -0.449981   30.11225  0.3810E-15  0.7325E-05  0.2103E-07  0.8480E-03  0.2058E-03  0.1891E+06
   -0.562478   30.11350  0.3810E-15  0.7163E-05  0.1817E-07  0.9327E-03  0.1843E-03  0.2477E+06
   -0.674976   30.11444  0.3810E-15  0.6926E-05  0.1583E-07  0.9990E-03  0.1666E-03  0.2855E+06
   -0.787476   30.11517  0.3810E-15  0.6641E-05  0.1386E-07  0.1050E-02  0.1517E-03  0.7924E+05
   -0.899975   30.11573  0.3810E-15  0.6322E-05  0.1217E-07  0.1076E-02  0.1390E-03  0.2059E+05
   -1.012476   30.11618  0.3810E-15  0.5973E-05  0.1068E-07  0.1075E-02  0.1272E-03  0.8097E+04
   -1.124977   30.11655  0.3810E-15  0.5610E-05  0.9369E-08  0.1067E-02  0.1163E-03  0.2810E+05
   -1.237479   30.11683  0.3810E-15  0.5242E-05  0.8229E-08  0.1050E-02  0.1062E-03  0.4986E+04
   -1.349981   30.11704  0.3810E-15  0.4879E-05  0.7247E-08  0.1028E-02  0.9707E-04  0.1547E+05
   -1.462484   30.11719  0.3810E-15  0.4526E-05  0.6409E-08  0.9995E-03  0.8869E-04  0.6546E+04
   -1.574987   30.11725  0.3810E-15  0.4156E-05  0.5629E-08  0.7888E-03  0.8082E-04  0.1324E+06
   -1.687490   30.11715  0.3810E-15  0.3725E-05  0.4822E-08  0.5550E-03  0.7207E-04  0.9864E+05
   -1.799994   30.11633  0.3810E-15  0.3268E-05  0.4057E-08  0.3341E-03  0.6104E-04  0.2765E+04
   -1.912498   30.11452  0.3810E-15  0.2816E-05  0.3384E-08  0.1880E-03  0.5144E-04  0.1572E+06
   -2.025002   30.11166  0.3810E-15  0.2296E-05  0.2710E-08  0.6486E-04  0.4401E-04  0.5624E+08
   -2.137506   30.08899  0.3812E-15  0.1266E-05  0.1480E-08  0.8561E-05  0.3125E-04  0.3839E+11
   -2.250011   29.96406  0.3821E-15  0.3181E-06  0.3733E-09  0.5698E-07  0.1169E-04  0.9623E+13
   -2.362515   29.80426  0.3827E-15  0.2110E-07  0.2573E-10  0.4315E-08  0.1255E-05  0.1384E+16
   -2.475019   29.68370  0.3827E-15  0.8254E-09  0.1883E-11  0.3358E-09  0.8168E-07  0.3710E+16
   -2.587523   29.58781  0.3826E-15  0.7194E-11  0.1000E-11  0.1035E-09  0.4747E-08  0.5053E+16
   -2.700027   29.50430  0.3824E-15  0.4419E-11  0.1000E-11  0.1000E-09  0.2613E-09  0.1326E+17
   -2.812531   29.43000  0.3822E-15  0.4419E-11  0.1000E-11  0.1000E-09  0.1366E-10  0.1756E+17
   -2.925034   29.36463  0.3819E-15  0.4419E-11  0.1000E-11  0.1000E-09  0.6759E-12  0.1631E+17
   -3.037537   29.30850  0.3817E-15  0.4419E-11  0.1000E-11  0.1000E-09  0.3158E-13  0.1335E+17
   -3.150040   29.26248  0.3814E-15  0.4419E-11  0.1000E-11  0.1000E-09  0.1388E-14  0.9956E+16
   -3.262542   29.22812  0.3811E-15  0.4419E-11  0.1000E-11  0.1000E-09  0.5712E-16  0.5850E+16
   -3.375044   29.20791  0.3808E-15  0.2824E-09  0.1038E-11  0.5096E-09  0.2188E-17  0.4825E+16
   -3.487545   29.19124  0.3805E-15  0.7481E-08  0.5482E-11  0.1109E-07  0.7751E-19  0.3984E+16
   -3.600046   29.17747  0.3800E-15  0.6661E-07  0.4499E-10  0.4565E-06  0.2552E-20  0.1403E+16
   -3.712546   29.17261  0.3798E-15  0.1485E-06  0.1011E-09  0.2196E-04  0.8119E-22  0.1568E+15
   -3.825045   29.17207  0.3798E-15  0.2226E-06  0.1673E-09  0.6189E-04  0.6824E-23 -0.1152E+14
   -3.937543   29.17211  0.3798E-15  0.2931E-06  0.2556E-09  0.9826E-04  0.2449E-23 -0.2875E+14
   -4.050041   29.17221  0.3798E-15  0.3631E-06  0.3789E-09  0.1212E-03  0.1090E-23 -0.4686E+14
   -4.162537   29.17237  0.3798E-15  0.4277E-06  0.5632E-09  0.1242E-03  0.4989E-24 -0.7936E+14
   -4.275033   29.17265  0.3798E-15  0.4704E-06  0.8908E-09  0.9739E-04  0.2167E-24 -0.1684E+15
   -4.387528   29.17323  0.3798E-15  0.3071E-06  0.2816E-08  0.8953E-05  0.8204E-25 -0.3131E+16
   -4.500021   29.18406  0.3797E-15  0.0000E+00  0.0000E+00  0.0000E+00  0.8159E-25  0.0000E+00
