 1 - depth, m
 2 - temperature, C
 3 - salinity, kg/kg
 4 - turbulent kinetic energy, m**2/s**2
 5 - dissipation rate, m**2/s**3
 6 - kinematic heat conductance, m**2/s
 7 - modulus of horizontal velocity, m/s
 8 - Richardson number, n/d
   -0.000000   28.36608  0.1783E-13  0.3463E-05  0.8821E-07  0.3060E-04  0.8482E-03 -0.6412E+02
   -0.112493   28.43607  0.1784E-13  0.7403E-05  0.3926E-07  0.5161E-03  0.2121E-03 -0.7418E+03
   -0.224988   28.43971  0.1784E-13  0.8078E-05  0.3167E-07  0.6991E-03  0.1770E-03  0.9180E+07
   -0.337483   28.44206  0.1784E-13  0.8407E-05  0.2697E-07  0.8679E-03  0.1537E-03  0.1067E+05
   -0.449980   28.44372  0.1784E-13  0.8536E-05  0.2356E-07  0.1009E-02  0.1365E-03  0.4080E+04
   -0.562477   28.44497  0.1784E-13  0.8532E-05  0.2088E-07  0.1129E-02  0.1229E-03  0.2754E+04
   -0.674976   28.44595  0.1784E-13  0.8435E-05  0.1867E-07  0.1229E-02  0.1117E-03  0.2213E+04
   -0.787475   28.44674  0.1784E-13  0.8271E-05  0.1678E-07  0.1313E-02  0.1022E-03  0.1937E+04
   -0.899974   28.44739  0.1784E-13  0.8057E-05  0.1514E-07  0.1381E-02  0.9394E-04  0.1789E+04
   -1.012475   28.44793  0.1784E-13  0.7806E-05  0.1369E-07  0.1435E-02  0.8674E-04  0.1713E+04
   -1.124976   28.44837  0.1784E-13  0.7528E-05  0.1240E-07  0.1477E-02  0.8038E-04  0.1685E+04
   -1.237477   28.44874  0.1784E-13  0.7231E-05  0.1125E-07  0.1507E-02  0.7473E-04  0.1696E+04
   -1.349980   28.44905  0.1784E-13  0.6924E-05  0.1022E-07  0.1529E-02  0.6970E-04  0.1738E+04
   -1.462482   28.44930  0.1784E-13  0.6612E-05  0.9303E-08  0.1542E-02  0.6522E-04  0.1805E+04
   -1.574985   28.44951  0.1784E-13  0.6304E-05  0.8490E-08  0.1551E-02  0.6126E-04  0.2317E+04
   -1.687488   28.44967  0.1784E-13  0.5992E-05  0.7755E-08  0.1478E-02  0.5778E-04  0.2803E+06
   -1.799992   28.44979  0.1784E-13  0.5668E-05  0.7071E-08  0.1376E-02  0.5448E-04  0.1453E+06
   -1.912496   28.44989  0.1784E-13  0.5325E-05  0.6421E-08  0.1177E-02  0.5143E-04  0.2053E+06
   -2.025000   28.44994  0.1784E-13  0.4927E-05  0.5745E-08  0.5809E-03  0.4834E-04  0.1489E+04
   -2.137504   28.44996  0.1784E-13  0.4473E-05  0.5074E-08  0.3495E-03  0.4478E-04  0.5098E+04
   -2.250008   28.44982  0.1784E-13  0.3970E-05  0.4437E-08  0.1405E-03  0.4147E-04  0.2367E+05
   -2.362512   28.44456  0.1785E-13  0.2960E-05  0.3268E-08  0.1335E-04  0.3527E-04  0.8724E+05
   -2.475016   28.30014  0.1804E-13  0.7937E-06  0.8687E-09  0.7596E-07  0.1430E-04  0.1212E+08
   -2.587520   27.92419  0.1839E-13  0.4856E-07  0.5514E-10  0.4103E-08  0.1323E-05  0.2530E+10
   -2.700024   27.58166  0.1848E-13  0.1993E-08  0.3037E-11  0.2639E-09  0.7943E-07  0.7143E+12
   -2.812527   27.25489  0.1852E-13  0.6287E-11  0.1000E-11  0.1000E-09  0.4403E-08  0.2537E+15
   -2.925031   26.89218  0.1859E-13  0.4419E-11  0.1000E-11  0.1000E-09  0.2305E-09  0.5146E+17
   -3.037534   26.46888  0.1874E-13  0.4419E-11  0.1000E-11  0.1000E-09  0.1138E-10  0.1204E+18
   -3.150036   25.97432  0.1899E-13  0.4419E-11  0.1000E-11  0.1000E-09  0.5276E-12  0.1459E+18
   -3.262538   25.40854  0.1936E-13  0.4419E-11  0.1000E-11  0.1000E-09  0.2282E-13  0.1576E+18
   -3.375040   24.78404  0.1975E-13  0.4419E-11  0.1000E-11  0.1000E-09  0.9156E-15  0.1730E+18
   -3.487541   24.08147  0.2006E-13  0.4419E-11  0.1000E-11  0.1000E-09  0.3383E-16  0.1836E+18
   -3.600041   23.31388  0.2021E-13  0.4419E-11  0.1000E-11  0.1000E-09  0.1157E-17  0.1862E+18
   -3.712541   22.50989  0.2018E-13  0.4419E-11  0.1000E-11  0.1000E-09  0.3631E-19  0.1803E+18
   -3.825040   21.70395  0.2002E-13  0.4419E-11  0.1000E-11  0.1000E-09  0.1019E-20  0.1653E+18
   -3.937538   20.93821  0.1975E-13  0.4419E-11  0.1000E-11  0.1000E-09  0.2521E-22  0.1402E+18
   -4.050036   20.26637  0.1940E-13  0.3838E-09  0.1242E-11  0.1049E-09  0.5372E-24  0.1013E+18
   -4.162532   19.76645  0.1904E-13  0.2395E-07  0.7228E-10  0.1611E-07  0.9582E-26  0.3672E+17
   -4.275028   19.58198  0.1881E-13  0.2960E-06  0.9160E-09  0.2897E-04  0.1258E-27 -0.3974E+15
   -4.387522   19.58398  0.1881E-13  0.4137E-06  0.4802E-08  0.1026E-04  0.1845E-28 -0.5409E+16
   -4.500016   19.61126  0.1881E-13  0.0000E+00  0.0000E+00  0.0000E+00  0.1771E-28  0.0000E+00
