 1 - depth, m
 2 - temperature, C
 3 - salinity, kg/kg
 4 - turbulent kinetic energy, m**2/s**2
 5 - dissipation rate, m**2/s**3
 6 - kinematic heat conductance, m**2/s
 7 - modulus of horizontal velocity, m/s
 8 - Richardson number, n/d
   -0.000000   29.62363  0.8667E-14  0.5328E-05  0.1287E-06  0.4351E-04  0.5954E-02 -0.1208E+01
   -0.112493   29.67787  0.8666E-14  0.8084E-05  0.5124E-07  0.4559E-03  0.2028E-02 -0.6225E+01
   -0.224987   29.68235  0.8666E-14  0.8569E-05  0.3878E-07  0.6530E-03  0.1616E-02  0.9633E+04
   -0.337482   29.68499  0.8666E-14  0.8749E-05  0.3195E-07  0.8034E-03  0.1396E-02  0.2271E+05
   -0.449978   29.68682  0.8666E-14  0.8753E-05  0.2718E-07  0.9319E-03  0.1232E-02  0.7608E+04
   -0.562475   29.68816  0.8666E-14  0.8646E-05  0.2355E-07  0.1041E-02  0.1102E-02  0.1152E+03
   -0.674973   29.68919  0.8666E-14  0.8464E-05  0.2066E-07  0.1132E-02  0.9950E-03  0.6606E+02
   -0.787471   29.68999  0.8666E-14  0.8233E-05  0.1828E-07  0.1208E-02  0.9045E-03  0.5248E+02
   -0.899970   29.69063  0.8666E-14  0.7970E-05  0.1628E-07  0.1271E-02  0.8269E-03  0.8084E+02
   -1.012470   29.69114  0.8666E-14  0.7681E-05  0.1456E-07  0.1311E-02  0.7595E-03  0.1095E+04
   -1.124971   29.69156  0.8666E-14  0.7361E-05  0.1302E-07  0.1301E-02  0.6962E-03  0.6796E+03
   -1.237472   29.69191  0.8666E-14  0.7016E-05  0.1164E-07  0.1281E-02  0.6352E-03  0.3252E+03
   -1.349974   29.69220  0.8666E-14  0.6656E-05  0.1040E-07  0.1260E-02  0.5773E-03  0.2617E+03
   -1.462476   29.69244  0.8666E-14  0.6291E-05  0.9308E-08  0.1231E-02  0.5230E-03  0.3000E+03
   -1.574978   29.69263  0.8666E-14  0.5926E-05  0.8343E-08  0.1196E-02  0.4722E-03  0.6464E+03
   -1.687481   29.69275  0.8666E-14  0.5561E-05  0.7491E-08  0.1161E-02  0.4245E-03  0.2301E+03
   -1.799984   29.69279  0.8666E-14  0.5197E-05  0.6732E-08  0.1119E-02  0.3790E-03  0.1754E+03
   -1.912487   29.69263  0.8666E-14  0.4816E-05  0.6029E-08  0.1070E-02  0.3331E-03  0.1200E+04
   -2.024991   29.69134  0.8666E-14  0.4420E-05  0.5368E-08  0.1011E-02  0.2750E-03  0.3926E+03
   -2.137494   29.68703  0.8665E-14  0.4052E-05  0.4777E-08  0.9480E-03  0.2194E-03  0.1299E+05
   -2.249998   29.68177  0.8665E-14  0.3720E-05  0.4254E-08  0.8788E-03  0.1820E-03  0.2081E+07
   -2.362502   29.67659  0.8664E-14  0.3406E-05  0.3773E-08  0.7913E-03  0.1557E-03  0.4569E+09
   -2.475005   29.67097  0.8664E-14  0.3094E-05  0.3320E-08  0.6957E-03  0.1339E-03  0.9398E+11
   -2.587509   29.66516  0.8664E-14  0.2785E-05  0.2896E-08  0.6357E-03  0.1142E-03  0.2159E+14
   -2.700012   29.65903  0.8663E-14  0.2481E-05  0.2502E-08  0.5392E-03  0.9663E-04  0.4847E+15
   -2.812515   29.65251  0.8663E-14  0.2171E-05  0.2119E-08  0.3553E-03  0.8043E-04  0.7259E+15
   -2.925018   29.64558  0.8662E-14  0.1853E-05  0.1741E-08  0.2199E-03  0.6486E-04  0.8357E+15
   -3.037520   29.63814  0.8662E-14  0.1549E-05  0.1397E-08  0.1671E-03  0.5050E-04  0.9028E+15
   -3.150022   29.63095  0.8661E-14  0.1365E-05  0.1198E-08  0.1189E-03  0.4101E-04  0.9753E+15
   -3.262524   29.62489  0.8661E-14  0.1231E-05  0.1063E-08  0.7067E-04  0.3552E-04  0.9831E+15
   -3.375025   29.61871  0.8660E-14  0.9886E-06  0.8394E-09  0.3427E-04  0.2755E-04  0.1348E+16
   -3.487526   29.60968  0.8658E-14  0.6916E-06  0.5768E-09  0.1035E-04  0.1821E-04  0.2180E+16
   -3.600026   29.59668  0.8655E-14  0.3814E-06  0.3124E-09  0.4453E-06  0.9441E-05  0.3909E+16
   -3.712525   29.57671  0.8648E-14  0.1018E-06  0.8334E-10  0.8182E-07  0.1962E-05  0.5945E+16
   -3.825023   29.54924  0.8632E-14  0.8010E-07  0.7926E-10  0.4317E-06  0.1326E-06  0.2058E+16
   -3.937521   29.54007  0.8624E-14  0.1941E-06  0.2054E-09  0.2764E-04  0.5445E-08  0.1219E+15
   -4.050018   29.53964  0.8623E-14  0.3111E-06  0.3987E-09  0.6439E-04  0.8454E-09 -0.4595E+14
   -4.162514   29.53983  0.8623E-14  0.4265E-06  0.7111E-09  0.8602E-04  0.2442E-09 -0.9983E+14
   -4.275009   29.54024  0.8623E-14  0.5264E-06  0.1294E-08  0.8043E-04  0.7551E-10 -0.2403E+15
   -4.387503   29.54120  0.8623E-14  0.4079E-06  0.4475E-08  0.1031E-04  0.2137E-10 -0.4543E+16
   -4.499996   29.55707  0.8623E-14  0.0000E+00  0.0000E+00  0.0000E+00  0.2121E-10  0.0000E+00
