 1 - depth, m
 2 - temperature, C
 3 - salinity, kg/kg
 4 - turbulent kinetic energy, m**2/s**2
 5 - dissipation rate, m**2/s**3
 6 - kinematic heat conductance, m**2/s
 7 - modulus of horizontal velocity, m/s
 8 - Richardson number, n/d
   -0.000000   28.73599  0.6813E-14  0.6175E-05  0.1353E-06  0.4572E-04  0.8804E-02 -0.5180E+00
   -0.112493   28.77699  0.6813E-14  0.7001E-05  0.4761E-07  0.2824E-03  0.3614E-02 -0.2248E+01
   -0.224987   28.78262  0.6813E-14  0.6963E-05  0.3218E-07  0.5302E-03  0.2661E-02  0.1594E+01
   -0.337482   28.78505  0.6813E-14  0.6791E-05  0.2522E-07  0.6370E-03  0.2258E-02  0.1180E+06
   -0.449978   28.78668  0.6813E-14  0.6546E-05  0.2060E-07  0.7152E-03  0.1979E-02  0.4365E+04
   -0.562475   28.78788  0.6813E-14  0.6247E-05  0.1716E-07  0.7769E-03  0.1761E-02  0.2703E+04
   -0.674973   28.78877  0.6813E-14  0.5910E-05  0.1444E-07  0.8184E-03  0.1578E-02  0.1012E+04
   -0.787472   28.78945  0.6813E-14  0.5547E-05  0.1222E-07  0.8377E-03  0.1420E-02  0.2916E+03
   -0.899971   28.78999  0.6813E-14  0.5173E-05  0.1038E-07  0.8445E-03  0.1281E-02  0.3765E+02
   -1.012471   28.79040  0.6813E-14  0.4799E-05  0.8843E-08  0.8437E-03  0.1157E-02  0.2662E+03
   -1.124971   28.79072  0.6813E-14  0.4433E-05  0.7568E-08  0.8353E-03  0.1048E-02  0.6421E+02
   -1.237473   28.79096  0.6813E-14  0.4081E-05  0.6508E-08  0.8181E-03  0.9510E-03  0.1673E+03
   -1.349974   28.79113  0.6813E-14  0.3715E-05  0.5546E-08  0.7540E-03  0.8640E-03  0.5063E+04
   -1.462476   28.79124  0.6813E-14  0.3305E-05  0.4595E-08  0.4869E-03  0.7713E-03 -0.1746E+01
   -1.574979   28.79129  0.6813E-14  0.2871E-05  0.3714E-08  0.3560E-03  0.6744E-03 -0.1895E+01
   -1.687482   28.79109  0.6813E-14  0.2440E-05  0.2949E-08  0.2723E-03  0.5746E-03  0.4607E+01
   -1.799985   28.79004  0.6813E-14  0.2035E-05  0.2315E-08  0.1931E-03  0.4728E-03  0.1098E+03
   -1.912488   28.78829  0.6813E-14  0.1655E-05  0.1793E-08  0.1167E-03  0.3886E-03  0.9571E+04
   -2.024992   28.78574  0.6813E-14  0.1275E-05  0.1335E-08  0.5026E-04  0.3137E-03  0.1558E+07
   -2.137495   28.78078  0.6812E-14  0.8242E-06  0.8457E-09  0.6097E-05  0.2377E-03  0.4995E+09
   -2.249999   28.75992  0.6811E-14  0.2259E-06  0.2281E-09  0.7810E-07  0.1060E-03  0.3208E+12
   -2.362503   28.67986  0.6806E-14  0.1504E-07  0.1606E-10  0.5298E-08  0.1031E-04  0.8332E+14
   -2.475006   28.59170  0.6802E-14  0.6316E-09  0.1432E-11  0.4112E-09  0.7026E-06  0.1709E+16
   -2.587510   28.52107  0.6800E-14  0.4419E-11  0.1000E-11  0.1000E-09  0.4440E-07  0.2391E+16
   -2.700013   28.46187  0.6799E-14  0.4419E-11  0.1000E-11  0.1000E-09  0.2665E-08  0.3578E+16
   -2.812516   28.40871  0.6797E-14  0.4419E-11  0.1000E-11  0.1000E-09  0.1519E-09  0.7093E+16
   -2.925019   28.35889  0.6796E-14  0.4419E-11  0.1000E-11  0.1000E-09  0.8174E-11  0.1348E+17
   -3.037522   28.31106  0.6794E-14  0.4419E-11  0.1000E-11  0.1000E-09  0.4143E-12  0.1298E+17
   -3.150024   28.26493  0.6791E-14  0.4419E-11  0.1000E-11  0.1000E-09  0.1969E-13  0.1222E+17
   -3.262526   28.22143  0.6787E-14  0.4419E-11  0.1000E-11  0.1000E-09  0.8713E-15  0.1058E+17
   -3.375027   28.18372  0.6780E-14  0.4419E-11  0.1000E-11  0.1000E-09  0.3569E-16  0.1189E+17
   -3.487527   28.14131  0.6770E-14  0.4419E-11  0.1000E-11  0.1000E-09  0.1344E-17  0.1274E+17
   -3.600027   28.09577  0.6755E-14  0.1106E-09  0.1008E-11  0.2195E-09  0.4678E-19  0.1131E+17
   -3.712527   28.05531  0.6736E-14  0.8316E-08  0.7967E-11  0.9289E-08  0.1490E-20  0.7283E+16
   -3.825025   28.02923  0.6719E-14  0.8942E-07  0.8395E-10  0.1253E-05  0.4129E-22  0.9260E+15
   -3.937523   28.02591  0.6716E-14  0.2194E-06  0.2162E-09  0.4012E-04  0.2236E-23 -0.2139E+14
   -4.050020   28.02598  0.6716E-14  0.3202E-06  0.3868E-09  0.7554E-04  0.6838E-24 -0.5759E+14
   -4.162516   28.02619  0.6716E-14  0.4218E-06  0.6595E-09  0.9323E-04  0.2450E-24 -0.1092E+15
   -4.275011   28.02658  0.6716E-14  0.5051E-06  0.1158E-08  0.8337E-04  0.8732E-25 -0.2461E+15
   -4.387505   28.02746  0.6716E-14  0.3755E-06  0.3906E-08  0.9914E-05  0.2769E-25 -0.4186E+16
   -4.499998   28.04247  0.6715E-14  0.0000E+00  0.0000E+00  0.0000E+00  0.2772E-25  0.0000E+00
