 1 - depth, m
 2 - temperature, C
 3 - salinity, kg/kg
 4 - turbulent kinetic energy, m**2/s**2
 5 - dissipation rate, m**2/s**3
 6 - kinematic heat conductance, m**2/s
 7 - modulus of horizontal velocity, m/s
 8 - Richardson number, n/d
   -0.000000   29.60888  0.2894E-14  0.1503E-04  0.4600E-06  0.6154E-04  0.1849E-01 -0.1782E+00
   -0.112493   29.65521  0.2894E-14  0.1414E-04  0.1523E-06  0.2388E-03  0.9082E-02 -0.5942E+00
   -0.224987   29.66568  0.2894E-14  0.1334E-04  0.8955E-07  0.5248E-03  0.6531E-02  0.2232E+02
   -0.337482   29.66999  0.2894E-14  0.1261E-04  0.6407E-07  0.7873E-03  0.5299E-02  0.3614E+03
   -0.449978   29.67235  0.2894E-14  0.1204E-04  0.5092E-07  0.9654E-03  0.4596E-02  0.2998E+03
   -0.562475   29.67397  0.2894E-14  0.1153E-04  0.4238E-07  0.1050E-02  0.4145E-02  0.4158E+01
   -0.674972   29.67525  0.2894E-14  0.1101E-04  0.3591E-07  0.1124E-02  0.3773E-02  0.3320E+01
   -0.787471   29.67628  0.2894E-14  0.1049E-04  0.3080E-07  0.1186E-02  0.3456E-02  0.2925E+01
   -0.899970   29.67711  0.2894E-14  0.9963E-05  0.2666E-07  0.1235E-02  0.3182E-02  0.2742E+01
   -1.012470   29.67779  0.2894E-14  0.9437E-05  0.2325E-07  0.1273E-02  0.2944E-02  0.3229E+01
   -1.124970   29.67833  0.2894E-14  0.8902E-05  0.2031E-07  0.1282E-02  0.2735E-02  0.2980E+03
   -1.237471   29.67878  0.2894E-14  0.8341E-05  0.1770E-07  0.1238E-02  0.2532E-02  0.1919E+03
   -1.349973   29.67916  0.2894E-14  0.7770E-05  0.1539E-07  0.1175E-02  0.2341E-02  0.1219E+03
   -1.462475   29.67948  0.2894E-14  0.7199E-05  0.1339E-07  0.1116E-02  0.2162E-02  0.3169E+02
   -1.574977   29.67973  0.2894E-14  0.6622E-05  0.1161E-07  0.1020E-02  0.2000E-02  0.1054E+04
   -1.687480   29.67991  0.2894E-14  0.6022E-05  0.9973E-08  0.8070E-03  0.1844E-02  0.5707E+02
   -1.799983   29.68004  0.2894E-14  0.5396E-05  0.8489E-08  0.6116E-03  0.1696E-02  0.4741E+02
   -1.912486   29.68007  0.2894E-14  0.4746E-05  0.7174E-08  0.3188E-03  0.1557E-02  0.4906E+01
   -2.024990   29.67984  0.2894E-14  0.3991E-05  0.5892E-08  0.1389E-03  0.1427E-02  0.1670E+02
   -2.137493   29.64548  0.2895E-14  0.2465E-05  0.3543E-08  0.3741E-04  0.1058E-02  0.2081E+03
   -2.249997   29.46572  0.2899E-14  0.9870E-06  0.1409E-08  0.2259E-06  0.3668E-03  0.2056E+05
   -2.362500   29.19833  0.2903E-14  0.7318E-07  0.1055E-09  0.9064E-08  0.5599E-04  0.3928E+07
   -2.475004   28.97618  0.2903E-14  0.2746E-08  0.4911E-11  0.6536E-09  0.3809E-05  0.9451E+09
   -2.587507   28.80992  0.2901E-14  0.3044E-10  0.1002E-11  0.1058E-09  0.2298E-06  0.2646E+12
   -2.700010   28.66302  0.2900E-14  0.4419E-11  0.1000E-11  0.1000E-09  0.1316E-07  0.8364E+14
   -2.812513   28.52610  0.2898E-14  0.4419E-11  0.1000E-11  0.1000E-09  0.7168E-09  0.8144E+16
   -2.925016   28.39806  0.2895E-14  0.4419E-11  0.1000E-11  0.1000E-09  0.3698E-10  0.2687E+17
   -3.037519   28.28016  0.2892E-14  0.4419E-11  0.1000E-11  0.1000E-09  0.1802E-11  0.2945E+17
   -3.150021   28.17527  0.2888E-14  0.4419E-11  0.1000E-11  0.1000E-09  0.8248E-13  0.2445E+17
   -3.262522   28.08796  0.2884E-14  0.4419E-11  0.1000E-11  0.1000E-09  0.3526E-14  0.1760E+17
   -3.375023   28.02494  0.2880E-14  0.4419E-11  0.1000E-11  0.1000E-09  0.1399E-15  0.1749E+17
   -3.487524   27.96218  0.2875E-14  0.4419E-11  0.1000E-11  0.1000E-09  0.5114E-17  0.1821E+17
   -3.600024   27.89673  0.2868E-14  0.4419E-11  0.1000E-11  0.1000E-09  0.1732E-18  0.1733E+17
   -3.712523   27.83430  0.2861E-14  0.4419E-11  0.1000E-11  0.1000E-09  0.5383E-20  0.1464E+17
   -3.825021   27.78146  0.2852E-14  0.1962E-08  0.2891E-11  0.1896E-08  0.1497E-21  0.1033E+17
   -3.937519   27.74412  0.2843E-14  0.3856E-07  0.4463E-10  0.2060E-06  0.3669E-23  0.3232E+16
   -4.050016   27.73242  0.2839E-14  0.1360E-06  0.1613E-09  0.2199E-04  0.8097E-25  0.2180E+15
   -4.162512   27.73163  0.2838E-14  0.2357E-06  0.3501E-09  0.4932E-04  0.4890E-26 -0.8414E+14
   -4.275007   27.73194  0.2838E-14  0.3203E-06  0.6994E-09  0.5442E-04  0.1224E-26 -0.2148E+15
   -4.387501   27.73272  0.2838E-14  0.2733E-06  0.2510E-08  0.8400E-05  0.3162E-27 -0.3224E+16
   -4.499993   27.74438  0.2838E-14  0.0000E+00  0.0000E+00  0.0000E+00  0.3144E-27  0.0000E+00
