 1 - depth, m
 2 - temperature, C
 3 - salinity, kg/kg
 4 - turbulent kinetic energy, m**2/s**2
 5 - dissipation rate, m**2/s**3
 6 - kinematic heat conductance, m**2/s
 7 - modulus of horizontal velocity, m/s
 8 - Richardson number, n/d
   -0.000000   30.54286  0.1034E-14  0.3769E-05  0.9939E-07  0.3299E-04  0.1329E-02 -0.4935E+02
   -0.112493   30.61524  0.1034E-14  0.7625E-05  0.4386E-07  0.4913E-03  0.3705E-03 -0.5832E+03
   -0.224987   30.61936  0.1034E-14  0.8223E-05  0.3486E-07  0.6611E-03  0.3098E-03  0.1942E+07
   -0.337482   30.62195  0.1034E-14  0.8448E-05  0.2922E-07  0.8130E-03  0.2695E-03  0.2096E+07
   -0.449978   30.62374  0.1034E-14  0.8463E-05  0.2512E-07  0.9368E-03  0.2397E-03  0.6118E+05
   -0.562475   30.62506  0.1034E-14  0.8346E-05  0.2190E-07  0.1039E-02  0.2160E-03  0.1078E+05
   -0.674973   30.62606  0.1034E-14  0.8144E-05  0.1926E-07  0.1122E-02  0.1963E-03  0.6644E+04
   -0.787471   30.62685  0.1034E-14  0.7884E-05  0.1704E-07  0.1188E-02  0.1796E-03  0.5468E+04
   -0.899971   30.62747  0.1034E-14  0.7588E-05  0.1514E-07  0.1240E-02  0.1652E-03  0.7438E+04
   -1.012471   30.62797  0.1034E-14  0.7265E-05  0.1349E-07  0.1278E-02  0.1525E-03  0.1109E+06
   -1.124971   30.62836  0.1034E-14  0.6915E-05  0.1202E-07  0.1257E-02  0.1412E-03  0.6236E+05
   -1.237472   30.62869  0.1034E-14  0.6539E-05  0.1068E-07  0.1230E-02  0.1308E-03  0.6186E+05
   -1.349974   30.62897  0.1034E-14  0.6153E-05  0.9493E-08  0.1201E-02  0.1212E-03  0.1242E+05
   -1.462476   30.62918  0.1034E-14  0.5764E-05  0.8440E-08  0.1167E-02  0.1125E-03  0.6543E+04
   -1.574979   30.62933  0.1034E-14  0.5380E-05  0.7519E-08  0.1130E-02  0.1045E-03  0.7030E+04
   -1.687482   30.62942  0.1034E-14  0.5003E-05  0.6714E-08  0.1088E-02  0.9720E-04  0.4887E+04
   -1.799985   30.62940  0.1034E-14  0.4626E-05  0.5997E-08  0.1028E-02  0.9051E-04  0.1174E+05
   -1.912488   30.62904  0.1034E-14  0.4215E-05  0.5301E-08  0.8516E-03  0.8381E-04  0.1676E+05
   -2.024992   30.62685  0.1034E-14  0.3775E-05  0.4603E-08  0.5642E-03  0.7522E-04  0.1295E+06
   -2.137495   30.62291  0.1034E-14  0.3340E-05  0.3948E-08  0.3267E-03  0.6729E-04  0.1158E+08
   -2.249999   30.61921  0.1034E-14  0.2911E-05  0.3352E-08  0.1889E-03  0.6058E-04  0.2435E+10
   -2.362503   30.61443  0.1034E-14  0.2405E-05  0.2719E-08  0.7756E-04  0.5325E-04  0.1039E+13
   -2.475006   30.59483  0.1033E-14  0.1528E-05  0.1706E-08  0.1364E-04  0.3141E-04  0.6956E+15
   -2.587510   30.52850  0.1032E-14  0.4994E-06  0.5577E-09  0.1184E-06  0.1026E-04  0.7687E+16
   -2.700013   30.39951  0.1030E-14  0.4393E-07  0.4998E-10  0.9366E-08  0.1265E-05  0.8627E+16
   -2.812516   30.29371  0.1029E-14  0.2130E-08  0.3216E-11  0.7676E-09  0.7689E-07  0.7918E+16
   -2.925019   30.21131  0.1029E-14  0.6646E-10  0.1021E-11  0.1230E-09  0.3889E-08  0.8042E+16
   -3.037522   30.14145  0.1028E-14  0.4419E-11  0.1000E-11  0.1000E-09  0.1834E-09  0.1128E+17
   -3.150024   30.08129  0.1028E-14  0.4419E-11  0.1000E-11  0.1000E-09  0.8121E-11  0.1383E+17
   -3.262525   30.03199  0.1028E-14  0.4419E-11  0.1000E-11  0.1000E-09  0.3361E-12  0.1022E+17
   -3.375027   29.99750  0.1027E-14  0.4419E-11  0.1000E-11  0.1000E-09  0.1292E-13  0.1044E+17
   -3.487527   29.96223  0.1026E-14  0.4419E-11  0.1000E-11  0.1000E-09  0.4581E-15  0.1098E+17
   -3.600027   29.92508  0.1025E-14  0.4419E-11  0.1000E-11  0.1000E-09  0.1507E-16  0.9996E+16
   -3.712526   29.89124  0.1024E-14  0.7302E-09  0.1450E-11  0.8017E-09  0.4558E-18  0.7644E+16
   -3.825025   29.86535  0.1023E-14  0.1428E-07  0.1334E-10  0.2491E-07  0.1236E-19  0.4481E+16
   -3.937523   29.85016  0.1022E-14  0.6315E-07  0.6014E-10  0.6199E-05  0.2964E-21  0.1076E+16
   -4.050020   29.84651  0.1021E-14  0.1424E-06  0.1562E-09  0.2937E-04  0.6744E-23  0.5819E+14
   -4.162516   29.84631  0.1021E-14  0.2292E-06  0.3211E-09  0.5290E-04  0.6477E-24 -0.7854E+14
   -4.275011   29.84658  0.1021E-14  0.3031E-06  0.6281E-09  0.5492E-04  0.1617E-24 -0.1957E+15
   -4.387505   29.84724  0.1021E-14  0.2546E-06  0.2248E-08  0.8126E-05  0.3939E-25 -0.2987E+16
   -4.499998   29.85737  0.1021E-14  0.0000E+00  0.0000E+00  0.0000E+00  0.3867E-25  0.0000E+00
