 1 - depth, m
 2 - temperature, C
 3 - salinity, kg/kg
 4 - turbulent kinetic energy, m**2/s**2
 5 - dissipation rate, m**2/s**3
 6 - kinematic heat conductance, m**2/s
 7 - modulus of horizontal velocity, m/s
 8 - Richardson number, n/d
   -0.000000   30.72356  0.1715E-13  0.4807E-05  0.1498E-06  0.4593E-04  0.2006E-02 -0.1423E+02
   -0.112494   30.79181  0.1715E-13  0.9783E-05  0.6524E-07  0.5348E-03  0.6088E-03 -0.2258E+02
   -0.224988   30.79692  0.1715E-13  0.1082E-04  0.5112E-07  0.7746E-03  0.5018E-03  0.1141E+07
   -0.337484   30.79997  0.1716E-13  0.1135E-04  0.4315E-07  0.9753E-03  0.4368E-03  0.6595E+03
   -0.449981   30.80210  0.1716E-13  0.1160E-04  0.3759E-07  0.1152E-02  0.3891E-03  0.3491E+03
   -0.562479   30.80369  0.1716E-13  0.1166E-04  0.3331E-07  0.1305E-02  0.3514E-03  0.2520E+03
   -0.674977   30.80493  0.1716E-13  0.1160E-04  0.2984E-07  0.1436E-02  0.3203E-03  0.2057E+03
   -0.787476   30.80592  0.1716E-13  0.1145E-04  0.2692E-07  0.1547E-02  0.2939E-03  0.1797E+03
   -0.899976   30.80674  0.1716E-13  0.1123E-04  0.2440E-07  0.1642E-02  0.2710E-03  0.1639E+03
   -1.012477   30.80742  0.1716E-13  0.1096E-04  0.2219E-07  0.1720E-02  0.2508E-03  0.1542E+03
   -1.124978   30.80798  0.1716E-13  0.1065E-04  0.2023E-07  0.1784E-02  0.2329E-03  0.1484E+03
   -1.237480   30.80846  0.1716E-13  0.1031E-04  0.1848E-07  0.1835E-02  0.2168E-03  0.1456E+03
   -1.349982   30.80886  0.1716E-13  0.9951E-05  0.1691E-07  0.1874E-02  0.2024E-03  0.1449E+03
   -1.462485   30.80920  0.1716E-13  0.9579E-05  0.1550E-07  0.1904E-02  0.1894E-03  0.1460E+03
   -1.574988   30.80949  0.1716E-13  0.9202E-05  0.1422E-07  0.1925E-02  0.1777E-03  0.1578E+03
   -1.687492   30.80972  0.1716E-13  0.8817E-05  0.1306E-07  0.1903E-02  0.1672E-03  0.1885E+05
   -1.799996   30.80992  0.1716E-13  0.8416E-05  0.1198E-07  0.1819E-02  0.1571E-03  0.8043E+04
   -1.912500   30.81008  0.1716E-13  0.8001E-05  0.1097E-07  0.1736E-02  0.1473E-03  0.6575E+04
   -2.025004   30.81020  0.1716E-13  0.7583E-05  0.1005E-07  0.1643E-02  0.1378E-03  0.1337E+05
   -2.137508   30.81029  0.1716E-13  0.7169E-05  0.9233E-08  0.1555E-02  0.1289E-03  0.4851E+04
   -2.250013   30.81033  0.1716E-13  0.6741E-05  0.8463E-08  0.1215E-02  0.1206E-03  0.6358E+04
   -2.362517   30.81033  0.1716E-13  0.6250E-05  0.7659E-08  0.5987E-03  0.1122E-03  0.5376E+05
   -2.475021   30.81023  0.1716E-13  0.5706E-05  0.6863E-08  0.3564E-03  0.1032E-03  0.1606E+04
   -2.587526   30.80983  0.1716E-13  0.5077E-05  0.6068E-08  0.1398E-03  0.9456E-04  0.6308E+04
   -2.700030   30.80205  0.1716E-13  0.3952E-05  0.4776E-08  0.3818E-05  0.7576E-04  0.1682E+06
   -2.812534   30.59123  0.1721E-13  0.6181E-06  0.7593E-09  0.2533E-07  0.2045E-04  0.1420E+09
   -2.925037   29.74527  0.1759E-13  0.2966E-07  0.3840E-10  0.1299E-08  0.1295E-05  0.4954E+11
   -3.037540   28.90854  0.1785E-13  0.1059E-08  0.1991E-11  0.1246E-09  0.6363E-07  0.1713E+14
   -3.150043   28.12926  0.1805E-13  0.5268E-11  0.1000E-11  0.1000E-09  0.2898E-08  0.6850E+16
   -3.262545   27.39017  0.1824E-13  0.4419E-11  0.1000E-11  0.1000E-09  0.1232E-09  0.9336E+17
   -3.375047   26.68317  0.1838E-13  0.4419E-11  0.1000E-11  0.1000E-09  0.4865E-11  0.1889E+18
   -3.487549   25.96171  0.1848E-13  0.4419E-11  0.1000E-11  0.1000E-09  0.1772E-12  0.1906E+18
   -3.600049   25.22027  0.1852E-13  0.4419E-11  0.1000E-11  0.1000E-09  0.5983E-14  0.1867E+18
   -3.712549   24.47380  0.1847E-13  0.4419E-11  0.1000E-11  0.1000E-09  0.1857E-15  0.1772E+18
   -3.825048   23.74483  0.1834E-13  0.4419E-11  0.1000E-11  0.1000E-09  0.5161E-17  0.1610E+18
   -3.937547   23.06386  0.1814E-13  0.4419E-11  0.1000E-11  0.1000E-09  0.1267E-18  0.1359E+18
   -4.050045   22.47373  0.1788E-13  0.1952E-09  0.1117E-11  0.1040E-09  0.2682E-20  0.9804E+17
   -4.162541   22.03838  0.1760E-13  0.1904E-07  0.5648E-10  0.1240E-07  0.4761E-22  0.3773E+17
   -4.275037   21.86858  0.1742E-13  0.2543E-06  0.7704E-09  0.2502E-04  0.6287E-24 -0.3749E+15
   -4.387532   21.87027  0.1742E-13  0.3851E-06  0.4330E-08  0.9892E-05  0.7339E-25 -0.5071E+16
   -4.500025   21.89316  0.1742E-13  0.0000E+00  0.0000E+00  0.0000E+00  0.6971E-25  0.0000E+00
