 1 - depth, m
 2 - temperature, C
 3 - salinity, kg/kg
 4 - turbulent kinetic energy, m**2/s**2
 5 - dissipation rate, m**2/s**3
 6 - kinematic heat conductance, m**2/s
 7 - modulus of horizontal velocity, m/s
 8 - Richardson number, n/d
   -0.000000   29.15106  0.5746E-15  0.4256E-05  0.9713E-07  0.4066E-04  0.4197E-02 -0.2264E+01
   -0.112493   29.20408  0.5745E-15  0.6893E-05  0.4085E-07  0.4325E-03  0.1394E-02 -0.1864E+02
   -0.224987   29.20827  0.5745E-15  0.7305E-05  0.3131E-07  0.5920E-03  0.1126E-02  0.1777E+06
   -0.337482   29.21082  0.5745E-15  0.7408E-05  0.2575E-07  0.7219E-03  0.9713E-03  0.2849E+05
   -0.449978   29.21258  0.5745E-15  0.7341E-05  0.2178E-07  0.8269E-03  0.8563E-03  0.6394E+05
   -0.562475   29.21385  0.5745E-15  0.7169E-05  0.1871E-07  0.9115E-03  0.7653E-03  0.1209E+05
   -0.674973   29.21481  0.5745E-15  0.6931E-05  0.1624E-07  0.9787E-03  0.6905E-03  0.6934E+03
   -0.787471   29.21555  0.5745E-15  0.6654E-05  0.1420E-07  0.1031E-02  0.6275E-03  0.8539E+05
   -0.899971   29.21613  0.5745E-15  0.6344E-05  0.1247E-07  0.1063E-02  0.5739E-03  0.1926E+04
   -1.012471   29.21658  0.5745E-15  0.6000E-05  0.1092E-07  0.1032E-02  0.5239E-03  0.1129E+04
   -1.124971   29.21695  0.5745E-15  0.5628E-05  0.9538E-08  0.9996E-03  0.4755E-03  0.3079E+03
   -1.237472   29.21725  0.5745E-15  0.5247E-05  0.8327E-08  0.9675E-03  0.4300E-03  0.6909E+03
   -1.349974   29.21748  0.5745E-15  0.4865E-05  0.7276E-08  0.9299E-03  0.3878E-03  0.6596E+03
   -1.462476   29.21765  0.5745E-15  0.4489E-05  0.6373E-08  0.8888E-03  0.3488E-03  0.2120E+03
   -1.574978   29.21772  0.5745E-15  0.4118E-05  0.5591E-08  0.8384E-03  0.3121E-03  0.4114E+03
   -1.687481   29.21766  0.5745E-15  0.3736E-05  0.4886E-08  0.7713E-03  0.2764E-03  0.2008E+03
   -1.799984   29.21689  0.5745E-15  0.3324E-05  0.4216E-08  0.6984E-03  0.2326E-03  0.6915E+03
   -1.912488   29.21194  0.5745E-15  0.2936E-05  0.3612E-08  0.5598E-03  0.1786E-03  0.3512E+05
   -2.024991   29.20488  0.5744E-15  0.2572E-05  0.3052E-08  0.3377E-03  0.1457E-03  0.5809E+06
   -2.137495   29.19809  0.5744E-15  0.2203E-05  0.2517E-08  0.2040E-03  0.1214E-03  0.8381E+08
   -2.249998   29.19156  0.5744E-15  0.1844E-05  0.2043E-08  0.1207E-03  0.1007E-03  0.1706E+11
   -2.362502   29.18371  0.5743E-15  0.1472E-05  0.1595E-08  0.4894E-04  0.8204E-04  0.5192E+13
   -2.475006   29.16955  0.5743E-15  0.9183E-06  0.9731E-09  0.8920E-05  0.5756E-04  0.1412E+16
   -2.587509   29.13446  0.5740E-15  0.3251E-06  0.3357E-09  0.1118E-06  0.2452E-04  0.5657E+16
   -2.700013   29.06592  0.5735E-15  0.3383E-07  0.3572E-10  0.1284E-07  0.3335E-05  0.9107E+16
   -2.812516   28.98883  0.5729E-15  0.2022E-08  0.2953E-11  0.1425E-08  0.2308E-06  0.8206E+16
   -2.925019   28.93124  0.5727E-15  0.7341E-10  0.1019E-11  0.1685E-09  0.1271E-07  0.6889E+16
   -3.037521   28.88828  0.5724E-15  0.6095E-10  0.1000E-11  0.2807E-09  0.6432E-09  0.6242E+16
   -3.150023   28.85655  0.5720E-15  0.5602E-08  0.3835E-11  0.5136E-08  0.3047E-10  0.5353E+16
   -3.262525   28.83571  0.5716E-15  0.6010E-07  0.3668E-10  0.1569E-06  0.1344E-11  0.2104E+16
   -3.375026   28.82836  0.5713E-15  0.1554E-06  0.9450E-10  0.8598E-05  0.5503E-13  0.3626E+15
   -3.487526   28.82710  0.5712E-15  0.2434E-06  0.1533E-09  0.4193E-04  0.6101E-14  0.8777E+14
   -3.600026   28.82679  0.5712E-15  0.3287E-06  0.2252E-09  0.8731E-04  0.2538E-14 -0.6312E+13
   -3.712526   28.82681  0.5712E-15  0.4128E-06  0.3152E-09  0.1378E-03  0.1287E-14 -0.1893E+14
   -3.825024   28.82688  0.5712E-15  0.4973E-06  0.4289E-09  0.1847E-03  0.7017E-15 -0.2764E+14
   -3.937522   28.82697  0.5712E-15  0.5787E-06  0.5701E-09  0.2182E-03  0.3916E-15 -0.3826E+14
   -4.050019   28.82711  0.5712E-15  0.6509E-06  0.7452E-09  0.2237E-03  0.2240E-15 -0.5604E+14
   -4.162515   28.82730  0.5712E-15  0.7085E-06  0.9860E-09  0.2073E-03  0.1325E-15 -0.8795E+14
   -4.275010   28.82761  0.5712E-15  0.7331E-06  0.1422E-08  0.1554E-03  0.7548E-16 -0.1724E+15
   -4.387504   28.82821  0.5711E-15  0.4272E-06  0.4438E-08  0.1050E-04  0.3509E-16 -0.3853E+16
   -4.499997   28.84168  0.5711E-15  0.0000E+00  0.0000E+00  0.0000E+00  0.3490E-16  0.0000E+00
