 1 - depth, m
 2 - temperature, C
 3 - salinity, kg/kg
 4 - turbulent kinetic energy, m**2/s**2
 5 - dissipation rate, m**2/s**3
 6 - kinematic heat conductance, m**2/s
 7 - modulus of horizontal velocity, m/s
 8 - Richardson number, n/d
   -0.000000   28.08619  0.4717E-14  0.3235E-05  0.7675E-07  0.3167E-04  0.1787E-02 -0.3588E+02
   -0.112493   28.15101  0.4716E-14  0.6072E-05  0.3356E-07  0.4144E-03  0.5275E-03 -0.4788E+03
   -0.224987   28.15510  0.4716E-14  0.6461E-05  0.2622E-07  0.5562E-03  0.4355E-03  0.1708E+07
   -0.337482   28.15761  0.4716E-14  0.6537E-05  0.2161E-07  0.6747E-03  0.3755E-03  0.4298E+06
   -0.449978   28.15931  0.4716E-14  0.6445E-05  0.1824E-07  0.7667E-03  0.3312E-03  0.8226E+06
   -0.562475   28.16054  0.4716E-14  0.6251E-05  0.1560E-07  0.8384E-03  0.2962E-03  0.1683E+07
   -0.674972   28.16145  0.4716E-14  0.5997E-05  0.1346E-07  0.8928E-03  0.2673E-03  0.8144E+06
   -0.787471   28.16214  0.4716E-14  0.5710E-05  0.1169E-07  0.9332E-03  0.2431E-03  0.7017E+06
   -0.899970   28.16266  0.4716E-14  0.5392E-05  0.1016E-07  0.9368E-03  0.2223E-03  0.2634E+06
   -1.012470   28.16307  0.4716E-14  0.5036E-05  0.8784E-08  0.8829E-03  0.2026E-03  0.1325E+05
   -1.124971   28.16340  0.4716E-14  0.4659E-05  0.7557E-08  0.8349E-03  0.1838E-03  0.8293E+04
   -1.237472   28.16367  0.4716E-14  0.4277E-05  0.6495E-08  0.7882E-03  0.1663E-03  0.3259E+04
   -1.349973   28.16385  0.4716E-14  0.3901E-05  0.5589E-08  0.7405E-03  0.1503E-03  0.2134E+05
   -1.462475   28.16394  0.4716E-14  0.3532E-05  0.4820E-08  0.6826E-03  0.1353E-03  0.1783E+05
   -1.574978   28.16390  0.4716E-14  0.3158E-05  0.4138E-08  0.6034E-03  0.1211E-03  0.2825E+05
   -1.687481   28.16342  0.4716E-14  0.2733E-05  0.3467E-08  0.4968E-03  0.1059E-03  0.6107E+06
   -1.799984   28.15787  0.4716E-14  0.2312E-05  0.2845E-08  0.4108E-03  0.8531E-04  0.4197E+05
   -1.912487   28.14659  0.4715E-14  0.1953E-05  0.2316E-08  0.2707E-03  0.7209E-04  0.3601E+07
   -2.024990   28.13567  0.4715E-14  0.1599E-05  0.1814E-08  0.1562E-03  0.6230E-04  0.4976E+09
   -2.137494   28.12435  0.4715E-14  0.1251E-05  0.1358E-08  0.1006E-03  0.5363E-04  0.7292E+11
   -2.249997   28.11281  0.4714E-14  0.9308E-06  0.9694E-09  0.6119E-04  0.4576E-04  0.1501E+14
   -2.362501   28.10031  0.4714E-14  0.7383E-06  0.7522E-09  0.2425E-04  0.3968E-04  0.1441E+16
   -2.475005   28.08434  0.4713E-14  0.4603E-06  0.4593E-09  0.3428E-05  0.2653E-04  0.2920E+16
   -2.587508   28.05817  0.4712E-14  0.1566E-06  0.1527E-09  0.8369E-07  0.1033E-04  0.6081E+16
   -2.700011   28.01308  0.4708E-14  0.1779E-07  0.1808E-10  0.1283E-07  0.1363E-05  0.8096E+16
   -2.812514   27.96702  0.4706E-14  0.1165E-08  0.2009E-11  0.1439E-08  0.9806E-07  0.7840E+16
   -2.925017   27.93038  0.4704E-14  0.3599E-10  0.1003E-11  0.1569E-09  0.5450E-08  0.6657E+16
   -3.037520   27.89979  0.4704E-14  0.4419E-11  0.1000E-11  0.1000E-09  0.2765E-09  0.6140E+16
   -3.150022   27.87290  0.4703E-14  0.4419E-11  0.1000E-11  0.1000E-09  0.1313E-10  0.6007E+16
   -3.262523   27.84985  0.4702E-14  0.4419E-11  0.1000E-11  0.1000E-09  0.5804E-12  0.4633E+16
   -3.375024   27.83315  0.4701E-14  0.4419E-11  0.1000E-11  0.1000E-09  0.2376E-13  0.5196E+16
   -3.487525   27.81442  0.4699E-14  0.4419E-11  0.1000E-11  0.1000E-09  0.8939E-15  0.5865E+16
   -3.600025   27.79325  0.4697E-14  0.4419E-11  0.1000E-11  0.1000E-09  0.3109E-16  0.5797E+16
   -3.712524   27.77232  0.4694E-14  0.8455E-09  0.1483E-11  0.1277E-08  0.9903E-18  0.5109E+16
   -3.825022   27.75386  0.4691E-14  0.1603E-07  0.1522E-10  0.3536E-07  0.2814E-19  0.3518E+16
   -3.937520   27.74114  0.4686E-14  0.7170E-07  0.6981E-10  0.7153E-05  0.7050E-21  0.1054E+16
   -4.050017   27.73733  0.4685E-14  0.1559E-06  0.1811E-09  0.3015E-04  0.1764E-22  0.7054E+14
   -4.162513   27.73707  0.4684E-14  0.2550E-06  0.3800E-09  0.5407E-04  0.3655E-23 -0.8824E+14
   -4.275008   27.73739  0.4684E-14  0.3414E-06  0.7559E-09  0.5707E-04  0.1015E-23 -0.2236E+15
   -4.387502   27.73820  0.4684E-14  0.2907E-06  0.2741E-08  0.8677E-05  0.2635E-24 -0.3428E+16
   -4.499995   27.75060  0.4684E-14  0.0000E+00  0.0000E+00  0.0000E+00  0.2621E-24  0.0000E+00
