 1 - depth, m
 2 - temperature, C
 3 - salinity, kg/kg
 4 - turbulent kinetic energy, m**2/s**2
 5 - dissipation rate, m**2/s**3
 6 - kinematic heat conductance, m**2/s
 7 - modulus of horizontal velocity, m/s
 8 - Richardson number, n/d
   -0.000000   26.96922  0.4347E-15  0.6484E-05  0.1455E-06  0.4670E-04  0.8936E-02 -0.4700E+00
   -0.112493   27.01282  0.4346E-15  0.7475E-05  0.5103E-07  0.2958E-03  0.3607E-02 -0.1975E+01
   -0.224987   27.01868  0.4346E-15  0.7529E-05  0.3493E-07  0.5817E-03  0.2673E-02  0.3402E+03
   -0.337482   27.02113  0.4346E-15  0.7424E-05  0.2772E-07  0.6861E-03  0.2273E-02  0.1539E+04
   -0.449978   27.02285  0.4346E-15  0.7244E-05  0.2297E-07  0.7774E-03  0.2002E-02  0.3502E+04
   -0.562475   27.02411  0.4346E-15  0.7008E-05  0.1945E-07  0.8526E-03  0.1787E-02  0.5706E+04
   -0.674972   27.02506  0.4346E-15  0.6728E-05  0.1666E-07  0.9041E-03  0.1611E-02  0.2145E+04
   -0.787471   27.02579  0.4346E-15  0.6405E-05  0.1433E-07  0.9177E-03  0.1452E-02  0.1515E+04
   -0.899970   27.02638  0.4346E-15  0.6055E-05  0.1237E-07  0.9163E-03  0.1308E-02  0.2510E+03
   -1.012470   27.02686  0.4346E-15  0.5691E-05  0.1071E-07  0.9092E-03  0.1177E-02  0.1592E+03
   -1.124970   27.02724  0.4346E-15  0.5324E-05  0.9297E-08  0.8968E-03  0.1059E-02  0.3972E+02
   -1.237471   27.02753  0.4346E-15  0.4959E-05  0.8104E-08  0.8755E-03  0.9523E-03  0.2683E+02
   -1.349973   27.02772  0.4346E-15  0.4600E-05  0.7091E-08  0.8477E-03  0.8545E-03  0.3472E+02
   -1.462475   27.02780  0.4346E-15  0.4240E-05  0.6213E-08  0.8066E-03  0.7631E-03  0.1532E+02
   -1.574977   27.02754  0.4346E-15  0.3854E-05  0.5405E-08  0.7578E-03  0.6696E-03  0.3537E+02
   -1.687480   27.02454  0.4346E-15  0.3472E-05  0.4672E-08  0.7020E-03  0.5438E-03  0.5332E+03
   -1.799983   27.01775  0.4345E-15  0.3135E-05  0.4036E-08  0.6353E-03  0.4420E-03  0.3070E+05
   -1.912486   27.01053  0.4345E-15  0.2820E-05  0.3468E-08  0.5765E-03  0.3695E-03  0.3976E+07
   -2.024990   27.00310  0.4345E-15  0.2519E-05  0.2961E-08  0.5439E-03  0.3075E-03  0.6045E+09
   -2.137493   26.99522  0.4345E-15  0.2238E-05  0.2517E-08  0.5217E-03  0.2516E-03  0.8932E+11
   -2.249997   26.98755  0.4344E-15  0.1978E-05  0.2130E-08  0.5085E-03  0.2020E-03  0.1694E+14
   -2.362500   26.97919  0.4344E-15  0.1742E-05  0.1793E-08  0.5038E-03  0.1573E-03  0.6154E+15
   -2.475004   26.96967  0.4344E-15  0.1584E-05  0.1564E-08  0.5034E-03  0.1225E-03  0.8292E+15
   -2.587507   26.96187  0.4344E-15  0.1510E-05  0.1445E-08  0.5025E-03  0.1076E-03  0.8920E+15
   -2.700010   26.95526  0.4343E-15  0.1450E-05  0.1349E-08  0.4684E-03  0.9888E-04  0.9662E+15
   -2.812513   26.94927  0.4343E-15  0.1382E-05  0.1245E-08  0.3392E-03  0.9073E-04  0.1042E+16
   -2.925016   26.94379  0.4343E-15  0.1301E-05  0.1130E-08  0.2284E-03  0.8101E-04  0.1133E+16
   -3.037518   26.93871  0.4343E-15  0.1217E-05  0.1021E-08  0.1858E-03  0.7121E-04  0.1219E+16
   -3.150020   26.93400  0.4343E-15  0.1135E-05  0.9225E-09  0.1539E-03  0.6210E-04  0.1106E+16
   -3.262522   26.92981  0.4342E-15  0.1064E-05  0.8392E-09  0.1202E-03  0.5379E-04  0.7292E+15
   -3.375023   26.92701  0.4341E-15  0.1005E-05  0.7677E-09  0.8857E-04  0.4591E-04  0.3595E+15
   -3.487524   26.92516  0.4341E-15  0.8950E-06  0.6586E-09  0.7231E-04  0.3501E-04  0.1916E+15
   -3.600023   26.92350  0.4340E-15  0.7700E-06  0.5495E-09  0.7239E-04  0.2394E-04  0.1082E+15
   -3.712523   26.92209  0.4339E-15  0.6673E-06  0.4717E-09  0.8422E-04  0.1502E-04  0.4013E+12
   -3.825021   26.92124  0.4339E-15  0.5876E-06  0.4310E-09  0.1067E-03  0.8429E-05 -0.1294E+14
   -3.937519   26.92063  0.4338E-15  0.5424E-06  0.4441E-09  0.1353E-03  0.3773E-05 -0.2029E+14
   -4.050015   26.92042  0.4338E-15  0.5558E-06  0.5354E-09  0.1600E-03  0.1373E-05 -0.3066E+14
   -4.162511   26.92055  0.4338E-15  0.5847E-06  0.7026E-09  0.1625E-03  0.7831E-06 -0.5053E+14
   -4.275006   26.92079  0.4338E-15  0.5957E-06  0.1026E-08  0.1244E-03  0.4645E-06 -0.1079E+15
   -4.387500   26.92132  0.4338E-15  0.3436E-06  0.3199E-08  0.9316E-05  0.2653E-06 -0.2066E+16
   -4.499993   26.93265  0.4337E-15  0.0000E+00  0.0000E+00  0.0000E+00  0.2659E-06  0.0000E+00
