 1 - depth, m
 2 - temperature, C
 3 - salinity, kg/kg
 4 - turbulent kinetic energy, m**2/s**2
 5 - dissipation rate, m**2/s**3
 6 - kinematic heat conductance, m**2/s
 7 - modulus of horizontal velocity, m/s
 8 - Richardson number, n/d
   -0.000000   30.36950  0.4678E-15  0.4496E-05  0.1012E-06  0.4100E-04  0.4993E-02 -0.2200E+01
   -0.112494   30.41908  0.4679E-15  0.6814E-05  0.4096E-07  0.4117E-03  0.1757E-02 -0.1828E+02
   -0.224988   30.42323  0.4679E-15  0.7141E-05  0.3079E-07  0.5798E-03  0.1389E-02  0.7334E+05
   -0.337484   30.42565  0.4679E-15  0.7184E-05  0.2515E-07  0.6983E-03  0.1200E-02  0.4431E+04
   -0.449981   30.42732  0.4679E-15  0.7072E-05  0.2113E-07  0.7951E-03  0.1058E-02  0.1168E+05
   -0.562478   30.42853  0.4679E-15  0.6867E-05  0.1805E-07  0.8720E-03  0.9453E-03  0.1087E+05
   -0.674977   30.42944  0.4679E-15  0.6598E-05  0.1555E-07  0.9246E-03  0.8530E-03  0.7595E+04
   -0.787476   30.43013  0.4679E-15  0.6278E-05  0.1343E-07  0.9483E-03  0.7706E-03  0.2749E+04
   -0.899976   30.43069  0.4679E-15  0.5927E-05  0.1163E-07  0.9571E-03  0.6963E-03  0.9499E+03
   -1.012476   30.43112  0.4679E-15  0.5560E-05  0.1009E-07  0.9554E-03  0.6290E-03  0.7799E+02
   -1.124977   30.43146  0.4679E-15  0.5186E-05  0.8769E-08  0.9454E-03  0.5682E-03  0.1451E+03
   -1.237479   30.43171  0.4679E-15  0.4814E-05  0.7643E-08  0.9259E-03  0.5128E-03  0.1324E+03
   -1.349981   30.43186  0.4679E-15  0.4442E-05  0.6672E-08  0.8960E-03  0.4613E-03  0.2711E+03
   -1.462484   30.43181  0.4679E-15  0.4061E-05  0.5807E-08  0.8532E-03  0.4094E-03  0.1501E+04
   -1.574987   30.43055  0.4679E-15  0.3684E-05  0.5042E-08  0.8053E-03  0.3439E-03  0.6187E+03
   -1.687491   30.42744  0.4679E-15  0.3319E-05  0.4340E-08  0.6381E-03  0.2893E-03  0.1017E+05
   -1.799995   30.42385  0.4679E-15  0.2940E-05  0.3657E-08  0.4740E-03  0.2466E-03  0.9691E+06
   -1.912498   30.41997  0.4679E-15  0.2559E-05  0.3029E-08  0.3497E-03  0.2101E-03  0.1289E+09
   -2.025003   30.41563  0.4680E-15  0.2184E-05  0.2467E-08  0.2262E-03  0.1777E-03  0.1858E+11
   -2.137507   30.41083  0.4680E-15  0.1820E-05  0.1974E-08  0.1410E-03  0.1493E-03  0.2520E+13
   -2.250011   30.40602  0.4680E-15  0.1465E-05  0.1541E-08  0.7018E-04  0.1248E-03  0.2297E+15
   -2.362515   30.39964  0.4680E-15  0.1046E-05  0.1074E-08  0.1813E-04  0.9891E-04  0.6896E+15
   -2.475020   30.38427  0.4680E-15  0.4877E-06  0.4898E-09  0.3695E-06  0.5434E-04  0.1740E+16
   -2.587524   30.35117  0.4679E-15  0.6104E-07  0.6148E-10  0.3411E-07  0.9781E-05  0.3744E+16
   -2.700028   30.30795  0.4677E-15  0.3751E-08  0.4458E-11  0.3724E-08  0.7157E-06  0.3606E+16
   -2.812532   30.27661  0.4676E-15  0.7997E-10  0.1025E-11  0.3033E-09  0.4068E-07  0.3045E+16
   -2.925035   30.25409  0.4674E-15  0.8766E-09  0.1199E-11  0.1735E-08  0.2127E-08  0.2734E+16
   -3.037538   30.23708  0.4673E-15  0.1214E-07  0.6886E-11  0.2809E-07  0.1051E-09  0.2644E+16
   -3.150041   30.22487  0.4671E-15  0.7420E-07  0.4042E-10  0.6026E-06  0.4919E-11  0.1679E+16
   -3.262543   30.21924  0.4669E-15  0.1453E-06  0.8041E-10  0.1307E-04  0.2731E-12  0.3632E+15
   -3.375045   30.21803  0.4669E-15  0.2065E-06  0.1200E-09  0.3975E-04  0.7535E-13  0.2100E+15
   -3.487546   30.21732  0.4669E-15  0.2802E-06  0.1771E-09  0.7070E-04  0.3431E-13  0.9688E+14
   -3.600047   30.21700  0.4669E-15  0.3646E-06  0.2534E-09  0.1099E-03  0.1790E-13 -0.2617E+13
   -3.712547   30.21701  0.4669E-15  0.4491E-06  0.3479E-09  0.1586E-03  0.9983E-14 -0.1896E+14
   -3.825046   30.21707  0.4669E-15  0.5332E-06  0.4658E-09  0.2071E-03  0.5748E-14 -0.2712E+14
   -3.937544   30.21716  0.4669E-15  0.6123E-06  0.6081E-09  0.2303E-03  0.3343E-14 -0.3868E+14
   -4.050042   30.21729  0.4669E-15  0.6819E-06  0.7830E-09  0.2303E-03  0.2008E-14 -0.5709E+14
   -4.162538   30.21749  0.4668E-15  0.7375E-06  0.1025E-08  0.2134E-03  0.1225E-14 -0.8879E+14
   -4.275034   30.21778  0.4668E-15  0.7595E-06  0.1463E-08  0.1639E-03  0.7239E-15 -0.1690E+15
   -4.387529   30.21835  0.4668E-15  0.4384E-06  0.4596E-08  0.1062E-04  0.3467E-15 -0.3887E+16
   -4.500022   30.23139  0.4668E-15  0.0000E+00  0.0000E+00  0.0000E+00  0.3464E-15  0.0000E+00
