 1 - depth, m
 2 - temperature, C
 3 - salinity, kg/kg
 4 - turbulent kinetic energy, m**2/s**2
 5 - dissipation rate, m**2/s**3
 6 - kinematic heat conductance, m**2/s
 7 - modulus of horizontal velocity, m/s
 8 - Richardson number, n/d
   -0.000000   26.03224  0.1488E-13  0.8442E-05  0.2053E-06  0.5162E-04  0.1085E-01 -0.3583E+00
   -0.112493   26.08031  0.1488E-13  0.9354E-05  0.7058E-07  0.3175E-03  0.4508E-02 -0.1467E+01
   -0.224987   26.08736  0.1488E-13  0.9411E-05  0.4718E-07  0.6625E-03  0.3298E-02  0.9000E+03
   -0.337482   26.09013  0.1488E-13  0.9333E-05  0.3732E-07  0.7959E-03  0.2790E-02  0.8646E+05
   -0.449978   26.09212  0.1488E-13  0.9185E-05  0.3110E-07  0.9093E-03  0.2462E-02  0.1971E+02
   -0.562475   26.09362  0.1488E-13  0.8971E-05  0.2651E-07  0.1008E-02  0.2198E-02  0.1185E+02
   -0.674972   26.09479  0.1488E-13  0.8709E-05  0.2292E-07  0.1093E-02  0.1979E-02  0.8952E+01
   -0.787471   26.09572  0.1488E-13  0.8413E-05  0.2002E-07  0.1163E-02  0.1794E-02  0.7537E+01
   -0.899970   26.09648  0.1488E-13  0.8092E-05  0.1762E-07  0.1222E-02  0.1634E-02  0.6769E+01
   -1.012470   26.09709  0.1488E-13  0.7756E-05  0.1559E-07  0.1269E-02  0.1494E-02  0.6343E+01
   -1.124970   26.09759  0.1488E-13  0.7412E-05  0.1385E-07  0.1306E-02  0.1371E-02  0.6135E+01
   -1.237471   26.09801  0.1488E-13  0.7066E-05  0.1235E-07  0.1334E-02  0.1262E-02  0.6090E+01
   -1.349973   26.09835  0.1488E-13  0.6724E-05  0.1107E-07  0.1354E-02  0.1165E-02  0.6501E+01
   -1.462475   26.09863  0.1488E-13  0.6383E-05  0.9936E-08  0.1364E-02  0.1080E-02  0.1403E+04
   -1.574977   26.09885  0.1488E-13  0.6027E-05  0.8890E-08  0.1272E-02  0.1000E-02  0.5979E+03
   -1.687480   26.09904  0.1488E-13  0.5646E-05  0.7894E-08  0.1153E-02  0.9169E-03  0.2088E+03
   -1.799983   26.09921  0.1488E-13  0.5255E-05  0.6980E-08  0.1046E-02  0.8353E-03  0.3099E+03
   -1.912486   26.09934  0.1488E-13  0.4857E-05  0.6148E-08  0.9175E-03  0.7575E-03  0.3448E+03
   -2.024990   26.09944  0.1488E-13  0.4453E-05  0.5391E-08  0.7558E-03  0.6838E-03  0.1295E+03
   -2.137493   26.09948  0.1488E-13  0.4041E-05  0.4712E-08  0.6186E-03  0.6143E-03  0.7706E+02
   -2.249997   26.09895  0.1488E-13  0.3564E-05  0.4025E-08  0.4308E-03  0.5435E-03  0.1101E+03
   -2.362501   26.09613  0.1488E-13  0.3015E-05  0.3312E-08  0.2247E-03  0.4621E-03  0.1737E+03
   -2.475004   26.09090  0.1487E-13  0.2416E-05  0.2602E-08  0.1124E-03  0.3798E-03  0.3940E+05
   -2.587508   26.08138  0.1487E-13  0.1642E-05  0.1766E-08  0.4581E-04  0.2813E-03  0.2969E+08
   -2.700011   26.02904  0.1486E-13  0.8841E-06  0.9854E-09  0.7427E-05  0.1153E-03  0.2605E+11
   -2.812514   25.93794  0.1483E-13  0.3107E-06  0.3412E-09  0.6787E-07  0.4408E-04  0.2104E+14
   -2.925017   25.83781  0.1481E-13  0.2754E-07  0.3112E-10  0.7059E-08  0.4875E-05  0.8423E+15
   -3.037519   25.74763  0.1480E-13  0.1362E-08  0.2412E-11  0.5958E-09  0.2660E-06  0.1807E+16
   -3.150021   25.66528  0.1478E-13  0.3768E-10  0.1013E-11  0.1148E-09  0.1152E-07  0.3236E+16
   -3.262523   25.59031  0.1477E-13  0.4419E-11  0.1000E-11  0.1000E-09  0.4569E-09  0.1319E+17
   -3.375024   25.52594  0.1476E-13  0.4419E-11  0.1000E-11  0.1000E-09  0.1682E-10  0.1695E+17
   -3.487524   25.45283  0.1474E-13  0.4419E-11  0.1000E-11  0.1000E-09  0.5716E-12  0.2188E+17
   -3.600024   25.36713  0.1471E-13  0.4419E-11  0.1000E-11  0.1000E-09  0.1806E-13  0.2416E+17
   -3.712523   25.27221  0.1467E-13  0.4419E-11  0.1000E-11  0.1000E-09  0.5262E-15  0.2489E+17
   -3.825022   25.17405  0.1461E-13  0.1009E-09  0.1009E-11  0.1461E-09  0.1381E-16  0.2315E+17
   -3.937519   25.08245  0.1453E-13  0.5875E-08  0.8451E-11  0.4249E-08  0.3221E-18  0.1662E+17
   -4.050016   25.01648  0.1444E-13  0.7674E-07  0.1153E-09  0.2580E-05  0.6496E-20  0.2128E+16
   -4.162512   25.00801  0.1442E-13  0.2659E-06  0.4654E-09  0.4068E-04  0.1353E-21 -0.1128E+15
   -4.275007   25.00846  0.1442E-13  0.3986E-06  0.1038E-08  0.5490E-04  0.2393E-22 -0.3075E+15
   -4.387501   25.00968  0.1442E-13  0.3693E-06  0.3946E-08  0.9775E-05  0.4754E-23 -0.4493E+16
   -4.499994   25.02753  0.1442E-13  0.0000E+00  0.0000E+00  0.0000E+00  0.4134E-23  0.0000E+00
