 1 - depth, m
 2 - temperature, C
 3 - salinity, kg/kg
 4 - turbulent kinetic energy, m**2/s**2
 5 - dissipation rate, m**2/s**3
 6 - kinematic heat conductance, m**2/s
 7 - modulus of horizontal velocity, m/s
 8 - Richardson number, n/d
   -0.000000   29.47155  0.4372E-15  0.5515E-05  0.1333E-06  0.4213E-04  0.6720E-02 -0.1185E+01
   -0.112493   29.52557  0.4371E-15  0.7916E-05  0.5094E-07  0.4222E-03  0.2364E-02 -0.8087E+01
   -0.224987   29.53033  0.4371E-15  0.8305E-05  0.3780E-07  0.6348E-03  0.1840E-02  0.7952E+04
   -0.337482   29.53292  0.4371E-15  0.8425E-05  0.3092E-07  0.7737E-03  0.1589E-02  0.1215E+05
   -0.449978   29.53474  0.4371E-15  0.8385E-05  0.2614E-07  0.8936E-03  0.1400E-02  0.2604E+05
   -0.562475   29.53608  0.4371E-15  0.8241E-05  0.2252E-07  0.9937E-03  0.1251E-02  0.8822E+02
   -0.674972   29.53711  0.4371E-15  0.8028E-05  0.1964E-07  0.1077E-02  0.1128E-02  0.4990E+02
   -0.787471   29.53791  0.4371E-15  0.7769E-05  0.1727E-07  0.1144E-02  0.1024E-02  0.3941E+02
   -0.899970   29.53855  0.4371E-15  0.7481E-05  0.1529E-07  0.1199E-02  0.9348E-03  0.4643E+02
   -1.012470   29.53906  0.4371E-15  0.7168E-05  0.1358E-07  0.1236E-02  0.8578E-03  0.5552E+03
   -1.124970   29.53947  0.4371E-15  0.6828E-05  0.1206E-07  0.1223E-02  0.7857E-03  0.2306E+03
   -1.237471   29.53982  0.4371E-15  0.6464E-05  0.1069E-07  0.1197E-02  0.7160E-03  0.7314E+03
   -1.349973   29.54011  0.4371E-15  0.6089E-05  0.9470E-08  0.1169E-02  0.6497E-03  0.1782E+03
   -1.462475   29.54035  0.4371E-15  0.5710E-05  0.8394E-08  0.1138E-02  0.5880E-03  0.8629E+03
   -1.574977   29.54053  0.4371E-15  0.5334E-05  0.7451E-08  0.1101E-02  0.5309E-03  0.6090E+03
   -1.687480   29.54066  0.4371E-15  0.4965E-05  0.6628E-08  0.1057E-02  0.4780E-03  0.6791E+02
   -1.799983   29.54073  0.4371E-15  0.4604E-05  0.5912E-08  0.1014E-02  0.4284E-03  0.5645E+02
   -1.912486   29.54069  0.4371E-15  0.4246E-05  0.5278E-08  0.9570E-03  0.3811E-03  0.1290E+03
   -2.024990   29.54039  0.4371E-15  0.3857E-05  0.4662E-08  0.7739E-03  0.3314E-03  0.3194E+04
   -2.137493   29.53837  0.4371E-15  0.3436E-05  0.4040E-08  0.4861E-03  0.2647E-03  0.1231E+04
   -2.249997   29.53416  0.4371E-15  0.3027E-05  0.3460E-08  0.2840E-03  0.2134E-03  0.3506E+05
   -2.362500   29.52955  0.4370E-15  0.2629E-05  0.2935E-08  0.1631E-03  0.1799E-03  0.8278E+07
   -2.475004   29.52343  0.4370E-15  0.2140E-05  0.2349E-08  0.6435E-04  0.1512E-03  0.3031E+10
   -2.587507   29.50284  0.4368E-15  0.1310E-05  0.1415E-08  0.9511E-05  0.9819E-04  0.1987E+13
   -2.700011   29.44735  0.4364E-15  0.3943E-06  0.4220E-09  0.1050E-06  0.3038E-04  0.1204E+16
   -2.812514   29.34506  0.4355E-15  0.3561E-07  0.3885E-10  0.9889E-08  0.3194E-05  0.6396E+16
   -2.925016   29.26326  0.4350E-15  0.1797E-08  0.2749E-11  0.8086E-09  0.1851E-06  0.6498E+16
   -3.037519   29.19832  0.4347E-15  0.5198E-10  0.1019E-11  0.1233E-09  0.8878E-08  0.6514E+16
   -3.150021   29.14208  0.4344E-15  0.4419E-11  0.1000E-11  0.1000E-09  0.3942E-09  0.7992E+16
   -3.262522   29.09454  0.4341E-15  0.4419E-11  0.1000E-11  0.1000E-09  0.1633E-10  0.9111E+16
   -3.375023   29.05995  0.4337E-15  0.4419E-11  0.1000E-11  0.1000E-09  0.6285E-12  0.1047E+17
   -3.487524   29.02360  0.4334E-15  0.4419E-11  0.1000E-11  0.1000E-09  0.2232E-13  0.1145E+17
   -3.600024   28.98379  0.4329E-15  0.4419E-11  0.1000E-11  0.1000E-09  0.7358E-15  0.1140E+17
   -3.712523   28.94410  0.4324E-15  0.4419E-11  0.1000E-11  0.1000E-09  0.2232E-16  0.1034E+17
   -3.825021   28.90805  0.4317E-15  0.5251E-11  0.1000E-11  0.1005E-09  0.6076E-18  0.8741E+16
   -3.937519   28.87756  0.4309E-15  0.1544E-08  0.2420E-11  0.2375E-08  0.1464E-19  0.6273E+16
   -4.050016   28.85565  0.4301E-15  0.2259E-07  0.2797E-10  0.6894E-06  0.3049E-21  0.2245E+16
   -4.162512   28.84781  0.4296E-15  0.8611E-07  0.1211E-09  0.1610E-04  0.5334E-23  0.1897E+15
   -4.275007   28.84714  0.4295E-15  0.1693E-06  0.3369E-09  0.3022E-04  0.2848E-24 -0.1700E+15
   -4.387501   28.84774  0.4295E-15  0.1785E-06  0.1365E-08  0.6765E-05  0.4777E-25 -0.2230E+16
   -4.499994   28.85553  0.4295E-15  0.0000E+00  0.0000E+00  0.0000E+00  0.4666E-25  0.0000E+00
