 1 - depth, m
 2 - temperature, C
 3 - salinity, kg/kg
 4 - turbulent kinetic energy, m**2/s**2
 5 - dissipation rate, m**2/s**3
 6 - kinematic heat conductance, m**2/s
 7 - modulus of horizontal velocity, m/s
 8 - Richardson number, n/d
   -0.000000   29.96533  0.1593E-13  0.4255E-05  0.1082E-06  0.3806E-04  0.2719E-02 -0.6103E+01
   -0.112493   30.03050  0.1593E-13  0.7974E-05  0.4741E-07  0.4949E-03  0.8016E-03 -0.3587E+02
   -0.224987   30.03482  0.1593E-13  0.8602E-05  0.3745E-07  0.6726E-03  0.6660E-03  0.7638E+05
   -0.337482   30.03752  0.1593E-13  0.8857E-05  0.3135E-07  0.8317E-03  0.5768E-03  0.4047E+06
   -0.449978   30.03939  0.1593E-13  0.8899E-05  0.2697E-07  0.9628E-03  0.5109E-03  0.6603E+03
   -0.562475   30.04077  0.1593E-13  0.8805E-05  0.2356E-07  0.1072E-02  0.4587E-03  0.3259E+03
   -0.674972   30.04183  0.1593E-13  0.8621E-05  0.2077E-07  0.1162E-02  0.4154E-03  0.2392E+03
   -0.787471   30.04267  0.1593E-13  0.8376E-05  0.1843E-07  0.1235E-02  0.3788E-03  0.2025E+03
   -0.899970   30.04333  0.1593E-13  0.8089E-05  0.1643E-07  0.1293E-02  0.3472E-03  0.1857E+03
   -1.012470   30.04387  0.1593E-13  0.7776E-05  0.1470E-07  0.1339E-02  0.3195E-03  0.1788E+03
   -1.124970   30.04430  0.1593E-13  0.7449E-05  0.1321E-07  0.1374E-02  0.2952E-03  0.2372E+03
   -1.237471   30.04465  0.1593E-13  0.7103E-05  0.1186E-07  0.1362E-02  0.2738E-03  0.5504E+04
   -1.349973   30.04493  0.1593E-13  0.6729E-05  0.1062E-07  0.1302E-02  0.2530E-03  0.5613E+04
   -1.462475   30.04518  0.1593E-13  0.6335E-05  0.9481E-08  0.1244E-02  0.2325E-03  0.1891E+04
   -1.574977   30.04537  0.1593E-13  0.5936E-05  0.8455E-08  0.1189E-02  0.2131E-03  0.1519E+04
   -1.687480   30.04552  0.1593E-13  0.5538E-05  0.7546E-08  0.1128E-02  0.1947E-03  0.5514E+04
   -1.799983   30.04561  0.1593E-13  0.5144E-05  0.6744E-08  0.1062E-02  0.1775E-03  0.3324E+04
   -1.912486   30.04564  0.1593E-13  0.4757E-05  0.6037E-08  0.1003E-02  0.1611E-03  0.7323E+03
   -2.024990   30.04555  0.1593E-13  0.4358E-05  0.5386E-08  0.8284E-03  0.1454E-03  0.1249E+05
   -2.137493   30.04511  0.1593E-13  0.3906E-05  0.4721E-08  0.5838E-03  0.1280E-03  0.4161E+04
   -2.249997   30.04255  0.1593E-13  0.3420E-05  0.4059E-08  0.3219E-03  0.1050E-03  0.9385E+04
   -2.362501   30.03621  0.1593E-13  0.2941E-05  0.3441E-08  0.1703E-03  0.8513E-04  0.1059E+07
   -2.475004   30.02641  0.1593E-13  0.2364E-05  0.2736E-08  0.6732E-04  0.6919E-04  0.4137E+09
   -2.587508   29.99940  0.1592E-13  0.1446E-05  0.1663E-08  0.1191E-04  0.4633E-04  0.2776E+12
   -2.700011   29.92439  0.1591E-13  0.4754E-06  0.5506E-09  0.1025E-06  0.1826E-04  0.1381E+15
   -2.812514   29.79750  0.1590E-13  0.4203E-07  0.4956E-10  0.7968E-08  0.2358E-05  0.7911E+16
   -2.925017   29.67793  0.1590E-13  0.1928E-08  0.3127E-11  0.4821E-09  0.1361E-06  0.1438E+17
   -3.037519   29.54454  0.1590E-13  0.5655E-10  0.1028E-11  0.1053E-09  0.6298E-08  0.2551E+17
   -3.150021   29.36206  0.1590E-13  0.4419E-11  0.1000E-11  0.1000E-09  0.2704E-09  0.5456E+17
   -3.262523   29.09656  0.1593E-13  0.4419E-11  0.1000E-11  0.1000E-09  0.1084E-10  0.1019E+18
   -3.375024   28.72135  0.1600E-13  0.4419E-11  0.1000E-11  0.1000E-09  0.4031E-12  0.1442E+18
   -3.487524   28.21168  0.1615E-13  0.4419E-11  0.1000E-11  0.1000E-09  0.1384E-13  0.1768E+18
   -3.600024   27.57536  0.1634E-13  0.4419E-11  0.1000E-11  0.1000E-09  0.4415E-15  0.1988E+18
   -3.712523   26.84375  0.1648E-13  0.4419E-11  0.1000E-11  0.1000E-09  0.1297E-16  0.2074E+18
   -3.825022   26.06069  0.1649E-13  0.4419E-11  0.1000E-11  0.1000E-09  0.3425E-18  0.2020E+18
   -3.937519   25.27697  0.1639E-13  0.4419E-11  0.1000E-11  0.1000E-09  0.8029E-20  0.1819E+18
   -4.050016   24.55159  0.1618E-13  0.4419E-11  0.1000E-11  0.1000E-09  0.1633E-21  0.1450E+18
   -4.162512   23.95857  0.1591E-13  0.1178E-08  0.4525E-11  0.4437E-09  0.2802E-23  0.8520E+17
   -4.275007   23.60353  0.1566E-13  0.4450E-07  0.1653E-09  0.2955E-05  0.3876E-25  0.6243E+15
   -4.387501   23.60090  0.1564E-13  0.3164E-06  0.3277E-08  0.8880E-05  0.4619E-27 -0.4316E+16
   -4.499994   23.61901  0.1564E-13  0.0000E+00  0.0000E+00  0.0000E+00  0.3929E-27  0.0000E+00
