 1 - depth, m
 2 - temperature, C
 3 - salinity, kg/kg
 4 - turbulent kinetic energy, m**2/s**2
 5 - dissipation rate, m**2/s**3
 6 - kinematic heat conductance, m**2/s
 7 - modulus of horizontal velocity, m/s
 8 - Richardson number, n/d
   -0.000000   28.27907  0.2133E-13  0.3353E-05  0.8144E-07  0.3096E-04  0.1623E-02 -0.6001E+03
   -0.112493   28.34397  0.2134E-13  0.6788E-05  0.3584E-07  0.4785E-03  0.4567E-03 -0.8232E+04
   -0.224988   28.34757  0.2134E-13  0.7364E-05  0.2864E-07  0.6490E-03  0.3788E-03  0.1550E+07
   -0.337483   28.34986  0.2134E-13  0.7620E-05  0.2420E-07  0.8023E-03  0.3278E-03  0.5816E+05
   -0.449980   28.35148  0.2134E-13  0.7690E-05  0.2098E-07  0.9287E-03  0.2902E-03  0.3065E+05
   -0.562477   28.35269  0.2134E-13  0.7640E-05  0.1845E-07  0.1034E-02  0.2605E-03  0.2228E+05
   -0.674975   28.35363  0.2134E-13  0.7506E-05  0.1636E-07  0.1121E-02  0.2360E-03  0.1848E+05
   -0.787474   28.35439  0.2134E-13  0.7312E-05  0.1458E-07  0.1191E-02  0.2153E-03  0.1635E+05
   -0.899974   28.35500  0.2134E-13  0.7074E-05  0.1305E-07  0.1247E-02  0.1974E-03  0.1523E+05
   -1.012475   28.35550  0.2134E-13  0.6807E-05  0.1170E-07  0.1290E-02  0.1818E-03  0.1456E+05
   -1.124976   28.35591  0.2134E-13  0.6519E-05  0.1051E-07  0.1322E-02  0.1681E-03  0.1438E+05
   -1.237477   28.35624  0.2134E-13  0.6218E-05  0.9451E-08  0.1344E-02  0.1560E-03  0.1440E+05
   -1.349979   28.35652  0.2134E-13  0.5914E-05  0.8519E-08  0.1358E-02  0.1453E-03  0.1479E+05
   -1.462482   28.35673  0.2134E-13  0.5611E-05  0.7699E-08  0.1365E-02  0.1360E-03  0.1573E+05
   -1.574985   28.35690  0.2134E-13  0.5309E-05  0.6968E-08  0.1311E-02  0.1278E-03  0.3737E+05
   -1.687488   28.35703  0.2134E-13  0.4991E-05  0.6284E-08  0.1165E-02  0.1201E-03  0.5753E+05
   -1.799991   28.35713  0.2134E-13  0.4642E-05  0.5612E-08  0.9318E-03  0.1117E-03  0.3425E+05
   -1.912495   28.35720  0.2134E-13  0.4247E-05  0.4937E-08  0.5220E-03  0.1027E-03  0.1872E+06
   -2.024999   28.35721  0.2134E-13  0.3813E-05  0.4293E-08  0.3114E-03  0.9421E-04 -0.5319E+03
   -2.137503   28.35706  0.2134E-13  0.3321E-05  0.3674E-08  0.1315E-03  0.8644E-04  0.5513E+05
   -2.250007   28.34612  0.2135E-13  0.2344E-05  0.2574E-08  0.1703E-04  0.5676E-04  0.3064E+06
   -2.362511   28.23897  0.2141E-13  0.8097E-06  0.8915E-09  0.8513E-07  0.1049E-04  0.2841E+07
   -2.475015   27.91620  0.2154E-13  0.4944E-07  0.5665E-10  0.3441E-08  0.8211E-06  0.7249E+09
   -2.587519   27.48860  0.2167E-13  0.2075E-08  0.3182E-11  0.2059E-09  0.5238E-07  0.2479E+12
   -2.700023   26.94640  0.2189E-13  0.5198E-11  0.1000E-11  0.1000E-09  0.3149E-08  0.8826E+14
   -2.812527   26.27078  0.2210E-13  0.4419E-11  0.1000E-11  0.1000E-09  0.1797E-09  0.3098E+17
   -2.925030   25.49277  0.2220E-13  0.4419E-11  0.1000E-11  0.1000E-09  0.9683E-11  0.2091E+18
   -3.037533   24.66379  0.2221E-13  0.4419E-11  0.1000E-11  0.1000E-09  0.4915E-12  0.2029E+18
   -3.150035   23.83363  0.2217E-13  0.4419E-11  0.1000E-11  0.1000E-09  0.2338E-13  0.1872E+18
   -3.262538   23.04295  0.2211E-13  0.4419E-11  0.1000E-11  0.1000E-09  0.1036E-14  0.1644E+18
   -3.375039   22.32634  0.2204E-13  0.4419E-11  0.1000E-11  0.1000E-09  0.4251E-16  0.1584E+18
   -3.487540   21.61411  0.2195E-13  0.4419E-11  0.1000E-11  0.1000E-09  0.1603E-17  0.1546E+18
   -3.600041   20.89578  0.2183E-13  0.4419E-11  0.1000E-11  0.1000E-09  0.5589E-19  0.1473E+18
   -3.712540   20.18778  0.2168E-13  0.4419E-11  0.1000E-11  0.1000E-09  0.1785E-20  0.1347E+18
   -3.825039   19.51713  0.2148E-13  0.4419E-11  0.1000E-11  0.1000E-09  0.5086E-22  0.1143E+18
   -3.937537   18.92904  0.2123E-13  0.1499E-08  0.3408E-11  0.3428E-09  0.1275E-23  0.8242E+17
   -4.050035   18.49282  0.2093E-13  0.6399E-07  0.1365E-09  0.3931E-07  0.2746E-25  0.2863E+17
   -4.162531   18.33873  0.2077E-13  0.3866E-06  0.8463E-09  0.4048E-04  0.4315E-27 -0.1576E+15
   -4.275027   18.33958  0.2077E-13  0.6232E-06  0.2072E-08  0.6603E-04  0.9618E-28 -0.5005E+15
   -4.387521   18.34229  0.2077E-13  0.5952E-06  0.8084E-08  0.1239E-04  0.2562E-28 -0.7309E+16
   -4.500015   18.38175  0.2077E-13  0.0000E+00  0.0000E+00  0.0000E+00  0.2547E-28  0.0000E+00
