 1 - depth, m
 2 - temperature, C
 3 - salinity, kg/kg
 4 - turbulent kinetic energy, m**2/s**2
 5 - dissipation rate, m**2/s**3
 6 - kinematic heat conductance, m**2/s
 7 - modulus of horizontal velocity, m/s
 8 - Richardson number, n/d
   -0.000000   25.98837  0.5690E-15  0.9154E-05  0.2216E-06  0.5094E-04  0.1281E-01 -0.2449E+00
   -0.112493   26.02745  0.5689E-15  0.9092E-05  0.7401E-07  0.2323E-03  0.5840E-02 -0.9146E+00
   -0.224987   26.03501  0.5689E-15  0.8810E-05  0.4599E-07  0.4974E-03  0.4160E-02  0.2097E+04
   -0.337482   26.03818  0.5689E-15  0.8498E-05  0.3415E-07  0.6694E-03  0.3372E-02  0.1890E+04
   -0.449978   26.04004  0.5689E-15  0.8204E-05  0.2739E-07  0.8260E-03  0.2875E-02  0.2743E+04
   -0.562475   26.04127  0.5689E-15  0.7933E-05  0.2298E-07  0.9250E-03  0.2538E-02  0.1507E+05
   -0.674972   26.04220  0.5689E-15  0.7657E-05  0.1970E-07  0.9988E-03  0.2283E-02  0.2133E+03
   -0.787471   26.04292  0.5689E-15  0.7358E-05  0.1704E-07  0.1040E-02  0.2057E-02  0.2116E+03
   -0.899970   26.04351  0.5689E-15  0.7041E-05  0.1483E-07  0.1048E-02  0.1853E-02  0.2091E+03
   -1.012470   26.04399  0.5689E-15  0.6709E-05  0.1295E-07  0.1046E-02  0.1666E-02  0.6314E+02
   -1.124971   26.04440  0.5689E-15  0.6370E-05  0.1135E-07  0.1043E-02  0.1495E-02  0.1019E+03
   -1.237472   26.04475  0.5689E-15  0.6032E-05  0.9988E-08  0.1039E-02  0.1337E-02  0.1978E+03
   -1.349973   26.04502  0.5689E-15  0.5698E-05  0.8824E-08  0.1030E-02  0.1195E-02  0.2623E+02
   -1.462475   26.04523  0.5689E-15  0.5371E-05  0.7831E-08  0.1013E-02  0.1065E-02  0.2135E+03
   -1.574978   26.04539  0.5689E-15  0.5053E-05  0.6983E-08  0.9895E-03  0.9456E-03  0.9571E+02
   -1.687481   26.04548  0.5689E-15  0.4743E-05  0.6255E-08  0.9650E-03  0.8356E-03  0.1160E+02
   -1.799984   26.04547  0.5689E-15  0.4435E-05  0.5617E-08  0.9178E-03  0.7326E-03  0.1733E+04
   -1.912487   26.04527  0.5689E-15  0.4109E-05  0.5027E-08  0.8569E-03  0.6313E-03  0.9480E+02
   -2.024990   26.04388  0.5689E-15  0.3767E-05  0.4473E-08  0.7859E-03  0.5090E-03  0.4041E+03
   -2.137494   26.03886  0.5688E-15  0.3470E-05  0.4003E-08  0.7481E-03  0.3956E-03  0.4749E+04
   -2.249998   26.03320  0.5688E-15  0.3216E-05  0.3608E-08  0.7260E-03  0.3218E-03  0.7608E+06
   -2.362501   26.02737  0.5687E-15  0.2978E-05  0.3260E-08  0.7093E-03  0.2654E-03  0.1681E+09
   -2.475005   26.02044  0.5687E-15  0.2750E-05  0.2946E-08  0.7023E-03  0.2172E-03  0.3446E+11
   -2.587508   26.01296  0.5686E-15  0.2543E-05  0.2672E-08  0.7031E-03  0.1754E-03  0.7984E+13
   -2.700011   26.00551  0.5686E-15  0.2437E-05  0.2515E-08  0.7054E-03  0.1471E-03  0.5073E+15
   -2.812514   25.99953  0.5685E-15  0.2419E-05  0.2442E-08  0.7052E-03  0.1320E-03  0.5367E+15
   -2.925017   25.99549  0.5684E-15  0.2442E-05  0.2406E-08  0.7078E-03  0.1207E-03  0.2264E+15
   -3.037520   25.99378  0.5684E-15  0.2468E-05  0.2385E-08  0.7188E-03  0.1108E-03  0.6412E+14
   -3.150022   25.99325  0.5684E-15  0.2495E-05  0.2378E-08  0.7418E-03  0.1018E-03  0.1726E+14
   -3.262523   25.99316  0.5684E-15  0.2519E-05  0.2388E-08  0.7707E-03  0.9356E-04 -0.9437E+12
   -3.375024   25.99319  0.5684E-15  0.2542E-05  0.2421E-08  0.7992E-03  0.8591E-04 -0.5280E+13
   -3.487525   25.99324  0.5684E-15  0.2568E-05  0.2479E-08  0.8320E-03  0.7871E-04 -0.8219E+13
   -3.600025   25.99330  0.5684E-15  0.2591E-05  0.2562E-08  0.8736E-03  0.7201E-04 -0.1077E+14
   -3.712524   25.99337  0.5684E-15  0.2609E-05  0.2674E-08  0.8672E-03  0.6573E-04 -0.1451E+14
   -3.825023   25.99347  0.5684E-15  0.2620E-05  0.2827E-08  0.8389E-03  0.5982E-04 -0.1960E+14
   -3.937520   25.99358  0.5684E-15  0.2625E-05  0.3043E-08  0.7918E-03  0.5415E-04 -0.2654E+14
   -4.050017   25.99373  0.5684E-15  0.2615E-05  0.3357E-08  0.7193E-03  0.4876E-04 -0.3726E+14
   -4.162513   25.99394  0.5684E-15  0.2581E-05  0.3845E-08  0.6400E-03  0.4363E-04 -0.5502E+14
   -4.275008   25.99423  0.5684E-15  0.2468E-05  0.4903E-08  0.3861E-03  0.3908E-04 -0.9779E+14
   -4.387502   25.99474  0.5683E-15  0.1087E-05  0.1739E-07  0.1373E-04  0.3284E-04 -0.2490E+16
   -4.499995   26.00950  0.5683E-15  0.0000E+00  0.0000E+00  0.0000E+00  0.3326E-04  0.0000E+00
