 1 - depth, m
 2 - temperature, C
 3 - salinity, kg/kg
 4 - turbulent kinetic energy, m**2/s**2
 5 - dissipation rate, m**2/s**3
 6 - kinematic heat conductance, m**2/s
 7 - modulus of horizontal velocity, m/s
 8 - Richardson number, n/d
   -0.000000   28.90117  0.5694E-15  0.3269E-05  0.7633E-07  0.3232E-04  0.1801E-02 -0.1345E+02
   -0.112493   28.95942  0.5694E-15  0.6296E-05  0.3361E-07  0.4413E-03  0.5017E-03 -0.1466E+03
   -0.224988   28.96306  0.5694E-15  0.6772E-05  0.2654E-07  0.5980E-03  0.4134E-03  0.1286E+06
   -0.337483   28.96531  0.5694E-15  0.6943E-05  0.2216E-07  0.7346E-03  0.3560E-03  0.2150E+06
   -0.449979   28.96685  0.5694E-15  0.6945E-05  0.1899E-07  0.8456E-03  0.3136E-03  0.3463E+06
   -0.562476   28.96798  0.5694E-15  0.6843E-05  0.1652E-07  0.9367E-03  0.2802E-03  0.3672E+06
   -0.674974   28.96883  0.5694E-15  0.6676E-05  0.1452E-07  0.1011E-02  0.2527E-03  0.3771E+06
   -0.787473   28.96949  0.5694E-15  0.6468E-05  0.1285E-07  0.1071E-02  0.2296E-03  0.1529E+06
   -0.899973   28.97000  0.5694E-15  0.6227E-05  0.1142E-07  0.1102E-02  0.2098E-03  0.1140E+06
   -1.012473   28.97040  0.5694E-15  0.5952E-05  0.1015E-07  0.1093E-02  0.1915E-03  0.1669E+05
   -1.124974   28.97074  0.5694E-15  0.5652E-05  0.9006E-08  0.1071E-02  0.1741E-03  0.8007E+04
   -1.237475   28.97101  0.5694E-15  0.5338E-05  0.7998E-08  0.1045E-02  0.1579E-03  0.1247E+05
   -1.349977   28.97122  0.5694E-15  0.5019E-05  0.7114E-08  0.1011E-02  0.1428E-03  0.9612E+04
   -1.462480   28.97137  0.5694E-15  0.4699E-05  0.6343E-08  0.9732E-03  0.1287E-03  0.2430E+04
   -1.574982   28.97143  0.5694E-15  0.4375E-05  0.5660E-08  0.9297E-03  0.1154E-03  0.8813E+04
   -1.687485   28.97127  0.5694E-15  0.4030E-05  0.5027E-08  0.8690E-03  0.1018E-03  0.8909E+04
   -1.799989   28.96964  0.5694E-15  0.3670E-05  0.4433E-08  0.8043E-03  0.8515E-04  0.6485E+04
   -1.912492   28.96479  0.5694E-15  0.3334E-05  0.3899E-08  0.7267E-03  0.7058E-04  0.4376E+06
   -2.024996   28.95873  0.5694E-15  0.3023E-05  0.3417E-08  0.6481E-03  0.6001E-04  0.6395E+08
   -2.137500   28.95241  0.5694E-15  0.2725E-05  0.2978E-08  0.6082E-03  0.5151E-04  0.1026E+11
   -2.250004   28.94584  0.5694E-15  0.2439E-05  0.2583E-08  0.5799E-03  0.4399E-04  0.1945E+13
   -2.362508   28.93845  0.5694E-15  0.2164E-05  0.2223E-08  0.5606E-03  0.3699E-04  0.3696E+15
   -2.475012   28.92970  0.5693E-15  0.1907E-05  0.1900E-08  0.5539E-03  0.3013E-04  0.8187E+15
   -2.587516   28.92107  0.5693E-15  0.1765E-05  0.1718E-08  0.5487E-03  0.2532E-04  0.9834E+15
   -2.700019   28.91395  0.5693E-15  0.1686E-05  0.1608E-08  0.5369E-03  0.2311E-04  0.1089E+16
   -2.812522   28.90753  0.5693E-15  0.1603E-05  0.1496E-08  0.2374E-03  0.2138E-04  0.1219E+16
   -2.925026   28.90139  0.5693E-15  0.1508E-05  0.1377E-08  0.1718E-03  0.1943E-04  0.1430E+16
   -3.037528   28.89515  0.5692E-15  0.1414E-05  0.1272E-08  0.1163E-03  0.1767E-04  0.1932E+16
   -3.150031   28.88788  0.5692E-15  0.1319E-05  0.1178E-08  0.5698E-04  0.1610E-04  0.3151E+16
   -3.262533   28.87655  0.5691E-15  0.1185E-05  0.1055E-08  0.5332E-05  0.1469E-04  0.6810E+16
   -3.375034   28.84007  0.5683E-15  0.4328E-06  0.3745E-09  0.7113E-07  0.5775E-05  0.1834E+17
   -3.487535   28.72804  0.5649E-15  0.4372E-07  0.3918E-10  0.9827E-08  0.4147E-06  0.2372E+17
   -3.600035   28.60962  0.5616E-15  0.2906E-08  0.3404E-11  0.1065E-08  0.1660E-07  0.2026E+17
   -3.712535   28.51509  0.5589E-15  0.1095E-09  0.1033E-11  0.1411E-09  0.5384E-09  0.1719E+17
   -3.825033   28.43466  0.5561E-15  0.4419E-11  0.1000E-11  0.1000E-09  0.1534E-10  0.1881E+17
   -3.937531   28.36194  0.5530E-15  0.1837E-09  0.1049E-11  0.2093E-09  0.3839E-12  0.1791E+17
   -4.050029   28.29836  0.5499E-15  0.6331E-08  0.9371E-11  0.6720E-08  0.8255E-14  0.1231E+17
   -4.162525   28.25457  0.5467E-15  0.5103E-07  0.7785E-10  0.6279E-05  0.1482E-15  0.2824E+16
   -4.275020   28.24450  0.5456E-15  0.1623E-06  0.3520E-09  0.2552E-04  0.2070E-17 -0.1965E+15
   -4.387515   28.24520  0.5456E-15  0.1937E-06  0.1550E-08  0.7036E-05  0.1875E-18 -0.2476E+16
   -4.500008   28.25401  0.5455E-15  0.0000E+00  0.0000E+00  0.0000E+00  0.1849E-18  0.0000E+00
