 1 - depth, m
 2 - temperature, C
 3 - salinity, kg/kg
 4 - turbulent kinetic energy, m**2/s**2
 5 - dissipation rate, m**2/s**3
 6 - kinematic heat conductance, m**2/s
 7 - modulus of horizontal velocity, m/s
 8 - Richardson number, n/d
   -0.000000   29.43411  0.1178E-13  0.4348E-05  0.1069E-06  0.3819E-04  0.3580E-02 -0.4741E+01
   -0.112493   29.49528  0.1178E-13  0.7790E-05  0.4572E-07  0.4907E-03  0.1078E-02 -0.2697E+02
   -0.224988   29.49939  0.1178E-13  0.8406E-05  0.3588E-07  0.6718E-03  0.8891E-03  0.3901E+05
   -0.337483   29.50196  0.1178E-13  0.8678E-05  0.3001E-07  0.8357E-03  0.7670E-03  0.9778E+05
   -0.449979   29.50375  0.1178E-13  0.8753E-05  0.2584E-07  0.9728E-03  0.6771E-03  0.2021E+03
   -0.562477   29.50508  0.1178E-13  0.8701E-05  0.2262E-07  0.1089E-02  0.6059E-03  0.1290E+03
   -0.674975   29.50610  0.1178E-13  0.8562E-05  0.2000E-07  0.1187E-02  0.5471E-03  0.1014E+03
   -0.787473   29.50691  0.1178E-13  0.8362E-05  0.1781E-07  0.1270E-02  0.4973E-03  0.8730E+02
   -0.899973   29.50757  0.1178E-13  0.8119E-05  0.1594E-07  0.1337E-02  0.4542E-03  0.7904E+02
   -1.012473   29.50811  0.1178E-13  0.7847E-05  0.1432E-07  0.1392E-02  0.4164E-03  0.7430E+02
   -1.124974   29.50855  0.1178E-13  0.7555E-05  0.1289E-07  0.1436E-02  0.3831E-03  0.7167E+02
   -1.237476   29.50891  0.1178E-13  0.7251E-05  0.1164E-07  0.1470E-02  0.3534E-03  0.8277E+02
   -1.349978   29.50921  0.1178E-13  0.6936E-05  0.1052E-07  0.1476E-02  0.3269E-03  0.6451E+03
   -1.462480   29.50946  0.1178E-13  0.6610E-05  0.9505E-08  0.1466E-02  0.3019E-03  0.1352E+04
   -1.574983   29.50967  0.1178E-13  0.6281E-05  0.8592E-08  0.1452E-02  0.2785E-03  0.1589E+03
   -1.687486   29.50984  0.1178E-13  0.5954E-05  0.7777E-08  0.1435E-02  0.2569E-03  0.1512E+03
   -1.799989   29.50998  0.1178E-13  0.5635E-05  0.7057E-08  0.1415E-02  0.2372E-03  0.3005E+03
   -1.912493   29.51007  0.1178E-13  0.5317E-05  0.6406E-08  0.1340E-02  0.2192E-03  0.1395E+05
   -2.024997   29.51014  0.1178E-13  0.4977E-05  0.5776E-08  0.1095E-02  0.2012E-03  0.4244E+03
   -2.137501   29.51018  0.1178E-13  0.4613E-05  0.5162E-08  0.9211E-03  0.1821E-03  0.2110E+04
   -2.250005   29.51015  0.1178E-13  0.4229E-05  0.4580E-08  0.6682E-03  0.1631E-03  0.1927E+05
   -2.362508   29.50997  0.1178E-13  0.3820E-05  0.4022E-08  0.3841E-03  0.1439E-03  0.5938E+04
   -2.475012   29.50939  0.1178E-13  0.3394E-05  0.3501E-08  0.2272E-03  0.1249E-03  0.1768E+04
   -2.587516   29.50803  0.1178E-13  0.2893E-05  0.2953E-08  0.9315E-04  0.1081E-03  0.4967E+06
   -2.700020   29.49165  0.1178E-13  0.1839E-05  0.1884E-08  0.2046E-04  0.6573E-04  0.6349E+09
   -2.812523   29.38061  0.1178E-13  0.7436E-06  0.7700E-09  0.1460E-06  0.1853E-04  0.2398E+12
   -2.925026   29.21597  0.1178E-13  0.6856E-07  0.7225E-10  0.1028E-07  0.2031E-05  0.5423E+14
   -3.037529   29.07875  0.1177E-13  0.3554E-08  0.4627E-11  0.9528E-09  0.1110E-06  0.2083E+16
   -3.150032   28.97510  0.1177E-13  0.1336E-09  0.1047E-11  0.1388E-09  0.5143E-08  0.3394E+16
   -3.262533   28.89178  0.1176E-13  0.4419E-11  0.1000E-11  0.1000E-09  0.2200E-09  0.1011E+17
   -3.375035   28.82786  0.1175E-13  0.4419E-11  0.1000E-11  0.1000E-09  0.8726E-11  0.1745E+17
   -3.487536   28.76231  0.1173E-13  0.4419E-11  0.1000E-11  0.1000E-09  0.3190E-12  0.2007E+17
   -3.600036   28.69192  0.1172E-13  0.4419E-11  0.1000E-11  0.1000E-09  0.1080E-13  0.2014E+17
   -3.712536   28.62115  0.1170E-13  0.4419E-11  0.1000E-11  0.1000E-09  0.3358E-15  0.1854E+17
   -3.825034   28.55586  0.1167E-13  0.6009E-09  0.1278E-11  0.5409E-09  0.9341E-17  0.1497E+17
   -3.937532   28.50306  0.1164E-13  0.1701E-07  0.2065E-10  0.2444E-07  0.2293E-18  0.8017E+16
   -4.050030   28.47474  0.1161E-13  0.1087E-06  0.1370E-09  0.9900E-05  0.4797E-20  0.4501E+15
   -4.162526   28.47315  0.1161E-13  0.2524E-06  0.4176E-09  0.4293E-04  0.1579E-21 -0.1060E+15
   -4.275021   28.47353  0.1161E-13  0.3727E-06  0.9339E-09  0.5368E-04  0.3178E-22 -0.2867E+15
   -4.387516   28.47454  0.1161E-13  0.3480E-06  0.3606E-08  0.9502E-05  0.6910E-23 -0.4242E+16
   -4.500009   28.48953  0.1161E-13  0.0000E+00  0.0000E+00  0.0000E+00  0.6723E-23  0.0000E+00
