 1 - depth, m
 2 - temperature, C
 3 - salinity, kg/kg
 4 - turbulent kinetic energy, m**2/s**2
 5 - dissipation rate, m**2/s**3
 6 - kinematic heat conductance, m**2/s
 7 - modulus of horizontal velocity, m/s
 8 - Richardson number, n/d
   -0.000000   25.43124  0.1487E-13  0.7097E-05  0.1566E-06  0.4743E-04  0.1022E-01 -0.3584E+00
   -0.112493   25.47133  0.1487E-13  0.7545E-05  0.5428E-07  0.2583E-03  0.4403E-02 -0.1466E+01
   -0.224987   25.47793  0.1487E-13  0.7431E-05  0.3486E-07  0.5012E-03  0.3159E-02  0.8780E+02
   -0.337482   25.48074  0.1487E-13  0.7217E-05  0.2657E-07  0.6830E-03  0.2573E-02  0.4059E+04
   -0.449978   25.48238  0.1487E-13  0.6989E-05  0.2173E-07  0.7691E-03  0.2234E-02  0.1303E+05
   -0.562475   25.48361  0.1487E-13  0.6731E-05  0.1828E-07  0.8409E-03  0.1987E-02  0.1233E+03
   -0.674973   25.48455  0.1487E-13  0.6448E-05  0.1560E-07  0.9000E-03  0.1782E-02  0.4499E+02
   -0.787471   25.48528  0.1487E-13  0.6152E-05  0.1347E-07  0.9471E-03  0.1610E-02  0.4566E+02
   -0.899970   25.48585  0.1487E-13  0.5844E-05  0.1170E-07  0.9840E-03  0.1464E-02  0.1825E+04
   -1.012470   25.48630  0.1487E-13  0.5510E-05  0.1015E-07  0.9600E-03  0.1328E-02  0.1850E+03
   -1.124971   25.48668  0.1487E-13  0.5152E-05  0.8753E-08  0.9061E-03  0.1194E-02  0.7216E+02
   -1.237472   25.48700  0.1487E-13  0.4784E-05  0.7535E-08  0.8606E-03  0.1068E-02  0.2603E+03
   -1.349973   25.48727  0.1487E-13  0.4417E-05  0.6482E-08  0.8215E-03  0.9508E-03  0.2059E+03
   -1.462476   25.48749  0.1487E-13  0.4057E-05  0.5578E-08  0.7792E-03  0.8441E-03  0.2019E+03
   -1.574978   25.48765  0.1487E-13  0.3707E-05  0.4805E-08  0.7300E-03  0.7469E-03  0.3140E+03
   -1.687481   25.48775  0.1487E-13  0.3368E-05  0.4149E-08  0.6767E-03  0.6583E-03  0.2860E+03
   -1.799984   25.48779  0.1487E-13  0.3039E-05  0.3588E-08  0.6182E-03  0.5767E-03  0.6826E+03
   -1.912487   25.48773  0.1487E-13  0.2711E-05  0.3089E-08  0.5205E-03  0.4999E-03  0.8451E+02
   -2.024991   25.48747  0.1487E-13  0.2357E-05  0.2608E-08  0.4063E-03  0.4234E-03  0.1072E+03
   -2.137494   25.48617  0.1487E-13  0.1954E-05  0.2111E-08  0.2592E-03  0.3276E-03  0.7562E+03
   -2.249998   25.47852  0.1486E-13  0.1605E-05  0.1691E-08  0.1573E-03  0.2193E-03  0.4688E+04
   -2.362501   25.46861  0.1486E-13  0.1310E-05  0.1339E-08  0.9846E-04  0.1637E-03  0.7475E+06
   -2.475005   25.45848  0.1486E-13  0.1013E-05  0.1007E-08  0.5238E-04  0.1214E-03  0.1623E+09
   -2.587508   25.44645  0.1486E-13  0.7058E-06  0.6856E-09  0.1983E-04  0.8148E-04  0.4896E+11
   -2.700012   25.43004  0.1486E-13  0.4129E-06  0.3927E-09  0.1965E-05  0.4845E-04  0.2305E+14
   -2.812515   25.40507  0.1485E-13  0.1324E-06  0.1226E-09  0.7633E-07  0.1929E-04  0.4299E+16
   -2.925018   25.36125  0.1484E-13  0.1511E-07  0.1479E-10  0.1244E-07  0.2322E-05  0.6213E+16
   -3.037520   25.31689  0.1483E-13  0.9979E-09  0.1812E-11  0.1328E-08  0.1489E-06  0.5974E+16
   -3.150022   25.28041  0.1483E-13  0.1874E-10  0.1000E-11  0.1443E-09  0.7282E-08  0.5948E+16
   -3.262524   25.24908  0.1483E-13  0.4419E-11  0.1000E-11  0.1000E-09  0.3223E-09  0.5825E+16
   -3.375025   25.22172  0.1482E-13  0.4419E-11  0.1000E-11  0.1000E-09  0.1319E-10  0.8302E+16
   -3.487525   25.18661  0.1481E-13  0.4419E-11  0.1000E-11  0.1000E-09  0.4961E-12  0.1203E+17
   -3.600025   25.13907  0.1480E-13  0.4419E-11  0.1000E-11  0.1000E-09  0.1725E-13  0.1545E+17
   -3.712524   25.07790  0.1477E-13  0.4419E-11  0.1000E-11  0.1000E-09  0.5495E-15  0.1797E+17
   -3.825023   25.00657  0.1472E-13  0.4419E-11  0.1000E-11  0.1000E-09  0.1561E-16  0.1763E+17
   -3.937521   24.93641  0.1464E-13  0.3295E-08  0.5003E-11  0.3210E-08  0.3904E-18  0.1269E+17
   -4.050018   24.88578  0.1456E-13  0.6032E-07  0.9094E-10  0.1237E-05  0.8355E-20  0.1474E+16
   -4.162514   24.87989  0.1455E-13  0.2353E-06  0.3994E-09  0.3620E-04  0.1804E-21 -0.1044E+15
   -4.275009   24.88031  0.1455E-13  0.3622E-06  0.9231E-09  0.5054E-04  0.3666E-22 -0.2937E+15
   -4.387503   24.88148  0.1455E-13  0.3469E-06  0.3601E-08  0.9472E-05  0.8128E-23 -0.4257E+16
   -4.499995   24.89847  0.1455E-13  0.0000E+00  0.0000E+00  0.0000E+00  0.8090E-23  0.0000E+00
