 1 - depth, m
 2 - temperature, C
 3 - salinity, kg/kg
 4 - turbulent kinetic energy, m**2/s**2
 5 - dissipation rate, m**2/s**3
 6 - kinematic heat conductance, m**2/s
 7 - modulus of horizontal velocity, m/s
 8 - Richardson number, n/d
   -0.000000   27.71475  0.6817E-14  0.9902E-05  0.2366E-06  0.5324E-04  0.1446E-01 -0.1922E+00
   -0.112493   27.74729  0.6817E-14  0.9016E-05  0.8085E-07  0.1770E-03  0.7187E-02 -0.5700E+00
   -0.224987   27.75532  0.6817E-14  0.8336E-05  0.4653E-07  0.3283E-03  0.5076E-02 -0.9127E+00
   -0.337482   27.75890  0.6817E-14  0.7705E-05  0.3218E-07  0.5831E-03  0.3978E-02  0.1086E+04
   -0.449978   27.76060  0.6817E-14  0.7185E-05  0.2485E-07  0.6742E-03  0.3358E-02  0.1260E+06
   -0.562475   27.76179  0.6817E-14  0.6720E-05  0.2013E-07  0.7225E-03  0.2953E-02  0.4857E+02
   -0.674973   27.76267  0.6817E-14  0.6268E-05  0.1660E-07  0.7595E-03  0.2621E-02  0.7788E+02
   -0.787472   27.76333  0.6817E-14  0.5827E-05  0.1386E-07  0.7821E-03  0.2342E-02  0.5273E+02
   -0.899971   27.76384  0.6817E-14  0.5395E-05  0.1165E-07  0.7839E-03  0.2100E-02  0.2492E+03
   -1.012471   27.76422  0.6817E-14  0.4961E-05  0.9801E-08  0.7503E-03  0.1883E-02  0.6392E+03
   -1.124972   27.76451  0.6817E-14  0.4520E-05  0.8209E-08  0.6838E-03  0.1678E-02  0.1848E+03
   -1.237473   27.76473  0.6817E-14  0.4081E-05  0.6854E-08  0.6227E-03  0.1485E-02  0.8068E+02
   -1.349975   27.76481  0.6817E-14  0.3647E-05  0.5701E-08  0.5679E-03  0.1304E-02  0.1239E+03
   -1.462477   27.76448  0.6817E-14  0.3224E-05  0.4718E-08  0.5112E-03  0.1118E-02  0.9035E+02
   -1.574979   27.76305  0.6817E-14  0.2826E-05  0.3895E-08  0.4539E-03  0.9341E-03  0.1047E+03
   -1.687482   27.76071  0.6817E-14  0.2448E-05  0.3195E-08  0.3985E-03  0.7749E-03  0.7167E+04
   -1.799985   27.75700  0.6817E-14  0.2081E-05  0.2584E-08  0.3504E-03  0.6240E-03  0.8056E+06
   -1.912489   27.75091  0.6817E-14  0.1728E-05  0.2045E-08  0.3117E-03  0.4760E-03  0.9664E+08
   -2.024992   27.74085  0.6816E-14  0.1447E-05  0.1629E-08  0.2789E-03  0.3374E-03  0.1247E+11
   -2.137496   27.73168  0.6816E-14  0.1296E-05  0.1388E-08  0.2426E-03  0.2731E-03  0.1555E+13
   -2.250000   27.72579  0.6816E-14  0.1165E-05  0.1188E-08  0.2044E-03  0.2330E-03  0.1028E+15
   -2.362503   27.72037  0.6816E-14  0.1035E-05  0.1008E-08  0.1614E-03  0.1970E-03  0.2566E+15
   -2.475007   27.71431  0.6816E-14  0.9072E-06  0.8435E-09  0.1231E-03  0.1628E-03  0.4937E+15
   -2.587511   27.70810  0.6816E-14  0.7860E-06  0.6994E-09  0.9945E-04  0.1313E-03  0.9866E+15
   -2.700014   27.70162  0.6816E-14  0.6767E-06  0.5778E-09  0.8139E-04  0.1039E-03  0.1595E+16
   -2.812517   27.69492  0.6815E-14  0.5803E-06  0.4774E-09  0.6507E-04  0.8139E-04  0.1599E+16
   -2.925020   27.68817  0.6815E-14  0.4958E-06  0.3949E-09  0.4983E-04  0.6330E-04  0.1615E+16
   -3.037523   27.68138  0.6815E-14  0.4214E-06  0.3270E-09  0.3577E-04  0.4881E-04  0.1676E+16
   -3.150025   27.67439  0.6814E-14  0.3554E-06  0.2706E-09  0.2300E-04  0.3725E-04  0.1898E+16
   -3.262526   27.66661  0.6813E-14  0.2947E-06  0.2220E-09  0.1146E-04  0.2804E-04  0.2533E+16
   -3.375028   27.65634  0.6812E-14  0.2259E-06  0.1701E-09  0.1820E-05  0.2047E-04  0.4796E+16
   -3.487528   27.63593  0.6808E-14  0.1109E-06  0.8418E-10  0.3322E-07  0.1064E-04  0.8910E+16
   -3.600028   27.58275  0.6792E-14  0.1972E-07  0.1634E-10  0.1003E-07  0.6410E-06  0.9139E+16
   -3.712528   27.53476  0.6775E-14  0.1143E-06  0.9871E-10  0.2776E-06  0.2351E-07  0.2379E+16
   -3.825026   27.52366  0.6769E-14  0.2618E-06  0.2307E-09  0.4030E-04  0.8736E-09 -0.4909E+13
   -3.937524   27.52369  0.6769E-14  0.3684E-06  0.3822E-09  0.9099E-04  0.2848E-09 -0.3298E+14
   -4.050021   27.52383  0.6768E-14  0.4751E-06  0.5965E-09  0.1224E-03  0.1142E-09 -0.5847E+14
   -4.162517   27.52407  0.6768E-14  0.5761E-06  0.9202E-09  0.1313E-03  0.4757E-10 -0.1036E+15
   -4.275012   27.52450  0.6768E-14  0.6481E-06  0.1494E-08  0.1077E-03  0.1889E-10 -0.2287E+15
   -4.387506   27.52541  0.6768E-14  0.4366E-06  0.4792E-08  0.1069E-04  0.6584E-11 -0.4578E+16
   -4.499999   27.54208  0.6768E-14  0.0000E+00  0.0000E+00  0.0000E+00  0.7007E-11  0.0000E+00
