 1 - depth, m
 2 - temperature, C
 3 - salinity, kg/kg
 4 - turbulent kinetic energy, m**2/s**2
 5 - dissipation rate, m**2/s**3
 6 - kinematic heat conductance, m**2/s
 7 - modulus of horizontal velocity, m/s
 8 - Richardson number, n/d
   -0.000000   29.07559  0.1528E-14  0.3557E-05  0.9037E-07  0.3114E-04  0.9969E-03 -0.4367E+02
   -0.112493   29.14252  0.1528E-14  0.7644E-05  0.4006E-07  0.5374E-03  0.2446E-03 -0.4357E+03
   -0.224988   29.14594  0.1528E-14  0.8374E-05  0.3237E-07  0.7316E-03  0.2037E-03  0.3315E+05
   -0.337483   29.14815  0.1528E-14  0.8762E-05  0.2766E-07  0.9151E-03  0.1766E-03  0.3294E+04
   -0.449979   29.14971  0.1528E-14  0.8952E-05  0.2428E-07  0.1072E-02  0.1566E-03  0.1795E+04
   -0.562477   29.15089  0.1528E-14  0.9010E-05  0.2165E-07  0.1208E-02  0.1408E-03  0.1314E+04
   -0.674975   29.15182  0.1528E-14  0.8976E-05  0.1949E-07  0.1326E-02  0.1277E-03  0.1085E+04
   -0.787474   29.15257  0.1528E-14  0.8875E-05  0.1765E-07  0.1428E-02  0.1166E-03  0.9600E+03
   -0.899973   29.15319  0.1528E-14  0.8722E-05  0.1606E-07  0.1514E-02  0.1070E-03  0.8869E+03
   -1.012474   29.15372  0.1528E-14  0.8531E-05  0.1466E-07  0.1586E-02  0.9860E-04  0.8472E+03
   -1.124974   29.15415  0.1528E-14  0.8309E-05  0.1341E-07  0.1646E-02  0.9113E-04  0.8277E+03
   -1.237476   29.15453  0.1528E-14  0.8065E-05  0.1229E-07  0.1695E-02  0.8444E-04  0.8274E+03
   -1.349978   29.15485  0.1528E-14  0.7805E-05  0.1128E-07  0.1734E-02  0.7844E-04  0.8393E+03
   -1.462480   29.15512  0.1528E-14  0.7533E-05  0.1037E-07  0.1764E-02  0.7303E-04  0.8664E+03
   -1.574983   29.15535  0.1528E-14  0.7255E-05  0.9541E-08  0.1786E-02  0.6815E-04  0.9025E+03
   -1.687486   29.15554  0.1528E-14  0.6976E-05  0.8796E-08  0.1802E-02  0.6375E-04  0.9745E+03
   -1.799990   29.15569  0.1528E-14  0.6698E-05  0.8126E-08  0.1811E-02  0.5980E-04  0.2352E+04
   -1.912493   29.15582  0.1528E-14  0.6419E-05  0.7515E-08  0.1745E-02  0.5625E-04  0.8367E+04
   -2.024997   29.15592  0.1528E-14  0.6131E-05  0.6946E-08  0.1635E-02  0.5299E-04  0.7213E+05
   -2.137501   29.15599  0.1528E-14  0.5824E-05  0.6401E-08  0.1401E-02  0.4998E-04  0.4893E+06
   -2.250005   29.15601  0.1528E-14  0.5471E-05  0.5849E-08  0.1114E-02  0.4692E-04  0.2749E+05
   -2.362509   29.15299  0.1529E-14  0.4902E-05  0.5103E-08  0.9292E-03  0.4264E-04  0.4183E+05
   -2.475013   29.14039  0.1530E-14  0.4212E-05  0.4267E-08  0.4804E-03  0.3708E-04  0.1837E+07
   -2.587517   29.12196  0.1532E-14  0.3499E-05  0.3441E-08  0.2968E-03  0.3103E-04  0.3655E+09
   -2.700021   29.09957  0.1534E-14  0.2792E-05  0.2669E-08  0.1778E-03  0.2519E-04  0.1271E+12
   -2.812524   29.07049  0.1536E-14  0.2043E-05  0.1922E-08  0.8768E-04  0.1816E-04  0.5168E+14
   -2.925027   29.03157  0.1538E-14  0.1383E-05  0.1277E-08  0.2645E-04  0.1201E-04  0.8882E+15
   -3.037530   28.99206  0.1540E-14  0.7315E-06  0.6558E-09  0.5200E-06  0.6706E-05  0.1539E+16
   -3.150032   28.94917  0.1541E-14  0.1256E-06  0.1112E-09  0.3906E-07  0.1404E-05  0.1820E+16
   -3.262534   28.91285  0.1542E-14  0.1015E-07  0.9857E-11  0.7729E-08  0.8554E-07  0.1624E+16
   -3.375036   28.89482  0.1541E-14  0.5592E-09  0.1365E-11  0.8351E-09  0.3658E-08  0.2132E+16
   -3.487537   28.88105  0.1541E-14  0.4419E-11  0.1000E-11  0.1000E-09  0.1329E-09  0.2542E+16
   -3.600037   28.86830  0.1540E-14  0.6001E-09  0.1140E-11  0.1966E-08  0.4435E-11  0.3018E+16
   -3.712537   28.85760  0.1539E-14  0.1139E-07  0.8170E-11  0.5809E-07  0.1361E-12  0.1882E+16
   -3.825036   28.85103  0.1537E-14  0.6582E-07  0.4871E-10  0.3545E-05  0.3742E-14  0.3056E+15
   -3.937534   28.84996  0.1537E-14  0.1452E-06  0.1181E-09  0.3371E-04  0.1434E-15 -0.1579E+14
   -4.050031   28.85002  0.1537E-14  0.2140E-06  0.2153E-09  0.6147E-04  0.3556E-16 -0.4034E+14
   -4.162527   28.85016  0.1537E-14  0.2844E-06  0.3731E-09  0.7586E-04  0.1076E-16 -0.7733E+14
   -4.275023   28.85043  0.1537E-14  0.3435E-06  0.6669E-09  0.6767E-04  0.3248E-17 -0.1772E+15
   -4.387517   28.85105  0.1537E-14  0.2617E-06  0.2281E-08  0.8292E-05  0.8448E-18 -0.2951E+16
   -4.500010   28.86135  0.1537E-14  0.0000E+00  0.0000E+00  0.0000E+00  0.7676E-18  0.0000E+00
