 1 - depth, m
 2 - temperature, C
 3 - salinity, kg/kg
 4 - turbulent kinetic energy, m**2/s**2
 5 - dissipation rate, m**2/s**3
 6 - kinematic heat conductance, m**2/s
 7 - modulus of horizontal velocity, m/s
 8 - Richardson number, n/d
   -0.000000   29.20431  0.2292E-13  0.3248E-05  0.6199E-07  0.3574E-04  0.4739E-02 -0.1539E+01
   -0.112493   29.24425  0.2292E-13  0.4406E-05  0.2428E-07  0.2782E-03  0.1793E-02 -0.7955E+01
   -0.224987   29.24825  0.2292E-13  0.4379E-05  0.1717E-07  0.4064E-03  0.1382E-02 -0.1535E+02
   -0.337483   29.25031  0.2292E-13  0.4159E-05  0.1332E-07  0.4626E-03  0.1184E-02 -0.5402E+01
   -0.449979   29.25164  0.2292E-13  0.3845E-05  0.1053E-07  0.4903E-03  0.1040E-02  0.2516E+02
   -0.562476   29.25254  0.2292E-13  0.3486E-05  0.8395E-08  0.4935E-03  0.9239E-03  0.4470E+02
   -0.674974   29.25315  0.2292E-13  0.3085E-05  0.6608E-08  0.4668E-03  0.8279E-03 -0.3674E+01
   -0.787473   29.25356  0.2292E-13  0.2629E-05  0.5001E-08  0.3216E-03  0.7322E-03 -0.1233E+02
   -0.899972   29.25387  0.2292E-13  0.2154E-05  0.3658E-08  0.2202E-03  0.6402E-03 -0.9282E+01
   -1.012472   29.25395  0.2292E-13  0.1676E-05  0.2581E-08  0.1372E-03  0.5522E-03  0.2527E+01
   -1.124973   29.25244  0.2292E-13  0.1214E-05  0.1750E-08  0.5744E-04  0.4438E-03  0.8511E+02
   -1.237475   29.24693  0.2292E-13  0.6703E-06  0.9426E-09  0.1893E-05  0.3416E-03  0.8962E+04
   -1.349976   29.20985  0.2292E-13  0.7110E-07  0.9944E-10  0.2024E-07  0.1221E-03  0.3038E+07
   -1.462479   29.06481  0.2291E-13  0.2806E-08  0.4428E-11  0.1004E-08  0.1194E-04  0.3592E+09
   -1.574981   28.92578  0.2290E-13  0.4470E-11  0.1000E-11  0.1000E-09  0.1051E-05  0.3778E+11
   -1.687485   28.79997  0.2290E-13  0.4419E-11  0.1000E-11  0.1000E-09  0.8939E-07  0.4430E+13
   -1.799988   28.68000  0.2290E-13  0.4419E-11  0.1000E-11  0.1000E-09  0.7355E-08  0.5807E+15
   -1.912491   28.56134  0.2290E-13  0.4419E-11  0.1000E-11  0.1000E-09  0.5846E-09  0.5923E+16
   -2.024995   28.44345  0.2290E-13  0.4419E-11  0.1000E-11  0.1000E-09  0.4474E-10  0.2208E+17
   -2.137499   28.33212  0.2290E-13  0.4419E-11  0.1000E-11  0.1000E-09  0.3296E-11  0.2601E+17
   -2.250003   28.23955  0.2290E-13  0.4419E-11  0.1000E-11  0.1000E-09  0.2334E-12  0.2756E+17
   -2.362507   28.14115  0.2289E-13  0.4419E-11  0.1000E-11  0.1000E-09  0.1585E-13  0.3214E+17
   -2.475010   28.02602  0.2289E-13  0.4419E-11  0.1000E-11  0.1000E-09  0.1045E-14  0.3788E+17
   -2.587514   27.88978  0.2289E-13  0.4419E-11  0.1000E-11  0.1000E-09  0.6592E-16  0.4293E+17
   -2.700018   27.73462  0.2289E-13  0.4419E-11  0.1000E-11  0.1000E-09  0.3959E-17  0.4771E+17
   -2.812521   27.56126  0.2289E-13  0.4419E-11  0.1000E-11  0.1000E-09  0.2257E-18  0.5274E+17
   -2.925024   27.36843  0.2289E-13  0.4419E-11  0.1000E-11  0.1000E-09  0.1216E-19  0.5734E+17
   -3.037527   27.15740  0.2288E-13  0.4419E-11  0.1000E-11  0.1000E-09  0.6166E-21  0.6000E+17
   -3.150029   26.93499  0.2288E-13  0.4419E-11  0.1000E-11  0.1000E-09  0.2931E-22  0.5540E+17
   -3.262531   26.72820  0.2288E-13  0.4419E-11  0.1000E-11  0.1000E-09  0.1298E-23  0.3397E+17
   -3.375032   26.60056  0.2287E-13  0.4419E-11  0.1000E-11  0.1000E-09  0.5321E-25  0.5994E+17
   -3.487533   26.37411  0.2287E-13  0.4419E-11  0.1000E-11  0.1000E-09  0.2005E-26  0.8913E+17
   -3.600033   26.03390  0.2287E-13  0.4419E-11  0.1000E-11  0.1000E-09  0.6981E-28  0.1169E+18
   -3.712533   25.58108  0.2286E-13  0.4419E-11  0.1000E-11  0.1000E-09  0.2226E-29  0.1531E+18
   -3.825031   24.97641  0.2285E-13  0.4419E-11  0.1000E-11  0.1000E-09  0.6335E-31  0.1929E+18
   -3.937529   24.19466  0.2284E-13  0.8220E-09  0.3246E-11  0.1369E-09  0.1586E-32  0.2278E+18
   -4.050027   23.24051  0.2282E-13  0.5548E-07  0.1858E-09  0.8701E-08  0.3410E-34  0.1969E+18
   -4.162523   22.38965  0.2276E-13  0.5348E-06  0.1936E-08  0.2635E-04  0.5398E-36  0.8396E+16
   -4.275018   22.35434  0.2275E-13  0.1413E-05  0.7948E-08  0.8423E-04  0.7152E-37 -0.1392E+16
   -4.387512   22.36048  0.2275E-13  0.1568E-05  0.3511E-07  0.2000E-04  0.2342E-37 -0.1991E+17
   -4.500006   22.44822  0.2275E-13  0.0000E+00  0.0000E+00  0.0000E+00  0.2333E-37  0.0000E+00
