 1 - depth, m
 2 - temperature, C
 3 - salinity, kg/kg
 4 - turbulent kinetic energy, m**2/s**2
 5 - dissipation rate, m**2/s**3
 6 - kinematic heat conductance, m**2/s
 7 - modulus of horizontal velocity, m/s
 8 - Richardson number, n/d
   -0.000000   28.94913  0.4722E-14  0.6739E-05  0.1736E-06  0.4977E-04  0.7089E-02 -0.1091E+01
   -0.112493   29.00796  0.4722E-14  0.9577E-05  0.6758E-07  0.4981E-03  0.2551E-02 -0.5985E+01
   -0.224987   29.01303  0.4722E-14  0.1014E-04  0.5066E-07  0.6995E-03  0.2054E-02  0.1823E+05
   -0.337482   29.01614  0.4721E-14  0.1036E-04  0.4163E-07  0.8617E-03  0.1783E-02  0.2136E+03
   -0.449978   29.01833  0.4721E-14  0.1038E-04  0.3542E-07  0.1002E-02  0.1581E-02  0.5288E+02
   -0.562474   29.01995  0.4721E-14  0.1027E-04  0.3073E-07  0.1122E-02  0.1421E-02  0.3312E+02
   -0.674972   29.02121  0.4721E-14  0.1007E-04  0.2700E-07  0.1222E-02  0.1289E-02  0.2583E+02
   -0.787470   29.02221  0.4721E-14  0.9810E-05  0.2391E-07  0.1306E-02  0.1176E-02  0.2222E+02
   -0.899969   29.02301  0.4721E-14  0.9501E-05  0.2131E-07  0.1374E-02  0.1080E-02  0.2034E+02
   -1.012469   29.02367  0.4721E-14  0.9160E-05  0.1907E-07  0.1429E-02  0.9950E-03  0.1933E+02
   -1.124970   29.02420  0.4721E-14  0.8799E-05  0.1713E-07  0.1472E-02  0.9202E-03  0.1896E+02
   -1.237471   29.02465  0.4721E-14  0.8426E-05  0.1543E-07  0.1505E-02  0.8540E-03  0.2081E+02
   -1.349972   29.02501  0.4721E-14  0.8043E-05  0.1392E-07  0.1513E-02  0.7951E-03  0.1840E+04
   -1.462474   29.02531  0.4721E-14  0.7640E-05  0.1254E-07  0.1455E-02  0.7398E-03  0.1020E+04
   -1.574976   29.02556  0.4721E-14  0.7220E-05  0.1128E-07  0.1395E-02  0.6863E-03  0.4476E+03
   -1.687479   29.02576  0.4721E-14  0.6794E-05  0.1014E-07  0.1332E-02  0.6353E-03  0.4760E+03
   -1.799982   29.02593  0.4721E-14  0.6366E-05  0.9111E-08  0.1232E-02  0.5872E-03  0.4354E+03
   -1.912485   29.02604  0.4721E-14  0.5930E-05  0.8173E-08  0.1085E-02  0.5418E-03  0.1115E+04
   -2.024989   29.02610  0.4721E-14  0.5478E-05  0.7308E-08  0.8715E-03  0.4983E-03  0.6989E+03
   -2.137492   29.02609  0.4721E-14  0.5006E-05  0.6512E-08  0.7218E-03  0.4564E-03  0.2327E+03
   -2.249996   29.02494  0.4721E-14  0.4419E-05  0.5649E-08  0.5104E-03  0.4122E-03  0.3876E+04
   -2.362499   29.01933  0.4721E-14  0.3662E-05  0.4649E-08  0.2498E-03  0.3585E-03  0.6064E+04
   -2.475003   29.00139  0.4719E-14  0.2702E-05  0.3467E-08  0.1149E-03  0.2708E-03  0.1734E+07
   -2.587506   28.93424  0.4713E-14  0.1771E-05  0.2331E-08  0.4510E-04  0.1694E-03  0.1043E+10
   -2.700009   28.82628  0.4704E-14  0.1051E-05  0.1379E-08  0.5718E-05  0.1054E-03  0.5725E+12
   -2.812512   28.71836  0.4698E-14  0.3051E-06  0.3950E-09  0.5446E-07  0.4024E-04  0.2682E+15
   -2.925015   28.61485  0.4693E-14  0.2516E-07  0.3317E-10  0.6879E-08  0.4345E-05  0.1482E+16
   -3.037517   28.53196  0.4690E-14  0.1069E-08  0.2296E-11  0.5664E-09  0.2318E-06  0.7539E+16
   -3.150019   28.46183  0.4687E-14  0.2286E-10  0.1011E-11  0.1113E-09  0.9205E-08  0.1175E+17
   -3.262520   28.40382  0.4685E-14  0.4419E-11  0.1000E-11  0.1000E-09  0.3373E-09  0.9432E+16
   -3.375021   28.36228  0.4682E-14  0.4419E-11  0.1000E-11  0.1000E-09  0.1169E-10  0.1169E+17
   -3.487522   28.31730  0.4678E-14  0.4419E-11  0.1000E-11  0.1000E-09  0.3810E-12  0.1440E+17
   -3.600022   28.26611  0.4674E-14  0.4419E-11  0.1000E-11  0.1000E-09  0.1172E-13  0.1490E+17
   -3.712521   28.21309  0.4667E-14  0.4419E-11  0.1000E-11  0.1000E-09  0.3363E-15  0.1397E+17
   -3.825019   28.16329  0.4659E-14  0.8728E-09  0.1676E-11  0.8009E-09  0.8762E-17  0.1166E+17
   -3.937517   28.12166  0.4648E-14  0.2071E-07  0.2446E-10  0.3458E-07  0.2038E-18  0.6421E+16
   -4.050014   28.09870  0.4639E-14  0.9799E-07  0.1204E-09  0.1227E-04  0.4123E-20  0.9904E+15
   -4.162509   28.09516  0.4637E-14  0.2153E-06  0.3312E-09  0.4020E-04  0.7367E-22 -0.8516E+14
   -4.275004   28.09546  0.4636E-14  0.3141E-06  0.7217E-09  0.4991E-04  0.8823E-23 -0.2376E+15
   -4.387498   28.09631  0.4636E-14  0.2871E-06  0.2717E-08  0.8612E-05  0.1329E-23 -0.3469E+16
   -4.499991   28.10871  0.4636E-14  0.0000E+00  0.0000E+00  0.0000E+00  0.1118E-23  0.0000E+00
