 1 - depth, m
 2 - temperature, C
 3 - salinity, kg/kg
 4 - turbulent kinetic energy, m**2/s**2
 5 - dissipation rate, m**2/s**3
 6 - kinematic heat conductance, m**2/s
 7 - modulus of horizontal velocity, m/s
 8 - Richardson number, n/d
   -0.000000   29.15841  0.1180E-13  0.4279E-05  0.9758E-07  0.3974E-04  0.4505E-02 -0.1868E+01
   -0.112493   29.21144  0.1180E-13  0.6822E-05  0.4063E-07  0.4270E-03  0.1451E-02 -0.1786E+02
   -0.224987   29.21560  0.1180E-13  0.7242E-05  0.3110E-07  0.5868E-03  0.1178E-02  0.6491E+03
   -0.337483   29.21814  0.1180E-13  0.7361E-05  0.2552E-07  0.7205E-03  0.1012E-02  0.1527E+05
   -0.449979   29.21989  0.1180E-13  0.7313E-05  0.2157E-07  0.8291E-03  0.8889E-03  0.2480E+05
   -0.562476   29.22116  0.1180E-13  0.7158E-05  0.1853E-07  0.9177E-03  0.7918E-03  0.3286E+03
   -0.674974   29.22213  0.1180E-13  0.6936E-05  0.1608E-07  0.9893E-03  0.7119E-03  0.1412E+03
   -0.787472   29.22287  0.1180E-13  0.6669E-05  0.1405E-07  0.1046E-02  0.6443E-03  0.1167E+03
   -0.899972   29.22346  0.1180E-13  0.6375E-05  0.1233E-07  0.1090E-02  0.5863E-03  0.1166E+04
   -1.012472   29.22393  0.1180E-13  0.6060E-05  0.1085E-07  0.1109E-02  0.5357E-03  0.7864E+03
   -1.124973   29.22431  0.1180E-13  0.5728E-05  0.9545E-08  0.1109E-02  0.4890E-03  0.7735E+03
   -1.237474   29.22461  0.1180E-13  0.5389E-05  0.8401E-08  0.1104E-02  0.4462E-03  0.5843E+03
   -1.349976   29.22485  0.1180E-13  0.5051E-05  0.7404E-08  0.1093E-02  0.4072E-03  0.1810E+03
   -1.462478   29.22504  0.1180E-13  0.4720E-05  0.6541E-08  0.1076E-02  0.3718E-03  0.8705E+03
   -1.574980   29.22518  0.1180E-13  0.4399E-05  0.5793E-08  0.1045E-02  0.3395E-03  0.2892E+03
   -1.687483   29.22526  0.1180E-13  0.4083E-05  0.5137E-08  0.9941E-03  0.3095E-03  0.1505E+04
   -1.799987   29.22526  0.1180E-13  0.3742E-05  0.4499E-08  0.7797E-03  0.2808E-03  0.2021E+05
   -1.912490   29.22505  0.1180E-13  0.3346E-05  0.3824E-08  0.4908E-03  0.2460E-03  0.5660E+02
   -2.024994   29.22426  0.1180E-13  0.2940E-05  0.3189E-08  0.3626E-03  0.2084E-03  0.6390E+03
   -2.137497   29.22307  0.1180E-13  0.2552E-05  0.2640E-08  0.2688E-03  0.1766E-03  0.5408E+05
   -2.250001   29.22171  0.1180E-13  0.2180E-05  0.2171E-08  0.1767E-03  0.1494E-03  0.8690E+07
   -2.362505   29.21980  0.1180E-13  0.1808E-05  0.1753E-08  0.9084E-04  0.1245E-03  0.2113E+10
   -2.475009   29.21622  0.1180E-13  0.1383E-05  0.1317E-08  0.2041E-04  0.9992E-04  0.8473E+12
   -2.587512   29.20496  0.1180E-13  0.7477E-06  0.6974E-09  0.2526E-06  0.6703E-04  0.5987E+15
   -2.700016   29.12821  0.1180E-13  0.6210E-07  0.5969E-10  0.1230E-07  0.7907E-05  0.3345E+16
   -2.812519   28.99253  0.1180E-13  0.3397E-08  0.3838E-11  0.1044E-08  0.4716E-06  0.4334E+16
   -2.925022   28.88452  0.1180E-13  0.4952E-11  0.1000E-11  0.1000E-09  0.2534E-07  0.4892E+16
   -3.037525   28.79923  0.1179E-13  0.4419E-11  0.1000E-11  0.1000E-09  0.1278E-08  0.5922E+16
   -3.150027   28.72751  0.1179E-13  0.4419E-11  0.1000E-11  0.1000E-09  0.6042E-10  0.9593E+16
   -3.262529   28.66639  0.1178E-13  0.4419E-11  0.1000E-11  0.1000E-09  0.2663E-11  0.1368E+17
   -3.375030   28.61832  0.1177E-13  0.4419E-11  0.1000E-11  0.1000E-09  0.1087E-12  0.1441E+17
   -3.487531   28.56757  0.1176E-13  0.4419E-11  0.1000E-11  0.1000E-09  0.4080E-14  0.1557E+17
   -3.600031   28.51267  0.1175E-13  0.4419E-11  0.1000E-11  0.1000E-09  0.1416E-15  0.1545E+17
   -3.712530   28.45808  0.1173E-13  0.4419E-11  0.1000E-11  0.1000E-09  0.4506E-17  0.1384E+17
   -3.825029   28.40910  0.1171E-13  0.2415E-08  0.3060E-11  0.2459E-08  0.1279E-18  0.1047E+17
   -3.937527   28.37202  0.1168E-13  0.5145E-07  0.6192E-10  0.1983E-06  0.3187E-20  0.2848E+16
   -4.050024   28.36192  0.1167E-13  0.2014E-06  0.2501E-09  0.3019E-04  0.7802E-22 -0.3622E+14
   -4.162520   28.36205  0.1167E-13  0.3235E-06  0.5368E-09  0.6010E-04  0.1744E-22 -0.1150E+15
   -4.275015   28.36245  0.1167E-13  0.4369E-06  0.1088E-08  0.6450E-04  0.4775E-23 -0.2864E+15
   -4.387509   28.36347  0.1167E-13  0.3750E-06  0.3990E-08  0.9882E-05  0.1241E-23 -0.4453E+16
   -4.500003   28.37926  0.1167E-13  0.0000E+00  0.0000E+00  0.0000E+00  0.1239E-23  0.0000E+00
