 1 - depth, m
 2 - temperature, C
 3 - salinity, kg/kg
 4 - turbulent kinetic energy, m**2/s**2
 5 - dissipation rate, m**2/s**3
 6 - kinematic heat conductance, m**2/s
 7 - modulus of horizontal velocity, m/s
 8 - Richardson number, n/d
   -0.000000   29.96180  0.2247E-13  0.4665E-05  0.1131E-06  0.4111E-04  0.4472E-02 -0.2294E+01
   -0.112493   30.01975  0.2248E-13  0.7683E-05  0.4775E-07  0.4590E-03  0.1447E-02 -0.2282E+02
   -0.224987   30.02419  0.2248E-13  0.8207E-05  0.3697E-07  0.6274E-03  0.1197E-02  0.1613E+07
   -0.337483   30.02697  0.2248E-13  0.8386E-05  0.3057E-07  0.7729E-03  0.1037E-02  0.4761E+05
   -0.449979   30.02890  0.2248E-13  0.8363E-05  0.2602E-07  0.8900E-03  0.9194E-03  0.3213E+03
   -0.562476   30.03032  0.2248E-13  0.8208E-05  0.2249E-07  0.9846E-03  0.8267E-03  0.1349E+03
   -0.674974   30.03142  0.2248E-13  0.7963E-05  0.1961E-07  0.1060E-02  0.7506E-03  0.9959E+02
   -0.787472   30.03228  0.2248E-13  0.7657E-05  0.1719E-07  0.1117E-02  0.6866E-03  0.8607E+02
   -0.899972   30.03297  0.2248E-13  0.7309E-05  0.1513E-07  0.1160E-02  0.6317E-03  0.8090E+02
   -1.012472   30.03351  0.2248E-13  0.6936E-05  0.1334E-07  0.1189E-02  0.5843E-03  0.9699E+02
   -1.124973   30.03395  0.2248E-13  0.6546E-05  0.1178E-07  0.1197E-02  0.5431E-03  0.6039E+03
   -1.237474   30.03429  0.2248E-13  0.6143E-05  0.1041E-07  0.1174E-02  0.5059E-03  0.4752E+03
   -1.349976   30.03455  0.2248E-13  0.5737E-05  0.9201E-08  0.1141E-02  0.4721E-03  0.3364E+03
   -1.462478   30.03475  0.2248E-13  0.5342E-05  0.8166E-08  0.1108E-02  0.4416E-03  0.8645E+03
   -1.574981   30.03488  0.2248E-13  0.4912E-05  0.7176E-08  0.7579E-03  0.4148E-03  0.8566E+04
   -1.687484   30.03497  0.2248E-13  0.4393E-05  0.6126E-08  0.4148E-03  0.3844E-03  0.3588E+01
   -1.799987   30.03496  0.2248E-13  0.3836E-05  0.5177E-08  0.2236E-03  0.3533E-03  0.1243E+03
   -1.912490   30.03460  0.2248E-13  0.3120E-05  0.4167E-08  0.3917E-04  0.3230E-03  0.4776E+03
   -2.024994   30.01786  0.2248E-13  0.1552E-05  0.2070E-08  0.1379E-06  0.2338E-03  0.4053E+05
   -2.137498   29.51120  0.2258E-13  0.7772E-07  0.1083E-09  0.4429E-08  0.2539E-04  0.9551E+07
   -2.250002   28.81891  0.2263E-13  0.2890E-08  0.4528E-11  0.2235E-09  0.1788E-05  0.1685E+10
   -2.362506   28.18691  0.2263E-13  0.4420E-11  0.1000E-11  0.1000E-09  0.1188E-06  0.3336E+12
   -2.475009   27.57577  0.2262E-13  0.4419E-11  0.1000E-11  0.1000E-09  0.7664E-08  0.7310E+14
   -2.587513   26.96069  0.2260E-13  0.4419E-11  0.1000E-11  0.1000E-09  0.4736E-09  0.1669E+17
   -2.700016   26.33039  0.2258E-13  0.4419E-11  0.1000E-11  0.1000E-09  0.2790E-10  0.1428E+18
   -2.812520   25.68281  0.2256E-13  0.4419E-11  0.1000E-11  0.1000E-09  0.1562E-11  0.1685E+18
   -2.925023   25.02147  0.2254E-13  0.4419E-11  0.1000E-11  0.1000E-09  0.8271E-13  0.1658E+18
   -3.037525   24.35442  0.2251E-13  0.4419E-11  0.1000E-11  0.1000E-09  0.4129E-14  0.1600E+18
   -3.150028   23.69412  0.2248E-13  0.4419E-11  0.1000E-11  0.1000E-09  0.1935E-15  0.1499E+18
   -3.262529   23.05909  0.2244E-13  0.4419E-11  0.1000E-11  0.1000E-09  0.8455E-17  0.1341E+18
   -3.375031   22.47658  0.2240E-13  0.4419E-11  0.1000E-11  0.1000E-09  0.3424E-18  0.1406E+18
   -3.487531   21.84972  0.2234E-13  0.4419E-11  0.1000E-11  0.1000E-09  0.1276E-19  0.1483E+18
   -3.600032   21.16894  0.2227E-13  0.4419E-11  0.1000E-11  0.1000E-09  0.4400E-21  0.1485E+18
   -3.712531   20.46456  0.2216E-13  0.4419E-11  0.1000E-11  0.1000E-09  0.1391E-22  0.1391E+18
   -3.825030   19.78196  0.2202E-13  0.4419E-11  0.1000E-11  0.1000E-09  0.3928E-24  0.1169E+18
   -3.937528   19.18863  0.2182E-13  0.3101E-08  0.7649E-11  0.8068E-09  0.9772E-26  0.7848E+17
   -4.050025   18.77952  0.2159E-13  0.1249E-06  0.2934E-09  0.2664E-06  0.2073E-27  0.8879E+16
   -4.162521   18.73265  0.2154E-13  0.5774E-06  0.1417E-08  0.6155E-04  0.4415E-29 -0.2245E+15
   -4.275016   18.73383  0.2154E-13  0.8341E-06  0.2998E-08  0.8259E-04  0.1241E-29 -0.5879E+15
   -4.387510   18.73694  0.2154E-13  0.7414E-06  0.1115E-07  0.1384E-04  0.3833E-30 -0.8925E+16
   -4.500003   18.78405  0.2154E-13  0.0000E+00  0.0000E+00  0.0000E+00  0.3779E-30  0.0000E+00
