 1 - depth, m
 2 - temperature, C
 3 - salinity, kg/kg
 4 - turbulent kinetic energy, m**2/s**2
 5 - dissipation rate, m**2/s**3
 6 - kinematic heat conductance, m**2/s
 7 - modulus of horizontal velocity, m/s
 8 - Richardson number, n/d
   -0.000000   28.22898  0.2069E-13  0.2966E-05  0.6872E-07  0.2933E-04  0.1370E-02 -0.1181E+03
   -0.112494   28.28958  0.2070E-13  0.5929E-05  0.3036E-07  0.4351E-03  0.3698E-03 -0.1867E+04
   -0.224989   28.29304  0.2070E-13  0.6388E-05  0.2410E-07  0.5883E-03  0.3049E-03  0.1516E+07
   -0.337484   28.29521  0.2070E-13  0.6555E-05  0.2018E-07  0.7212E-03  0.2624E-03  0.1979E+06
   -0.449981   28.29672  0.2070E-13  0.6556E-05  0.1732E-07  0.8286E-03  0.2311E-03  0.2846E+06
   -0.562479   28.29783  0.2070E-13  0.6455E-05  0.1507E-07  0.9160E-03  0.2064E-03  0.1591E+05
   -0.674977   28.29867  0.2070E-13  0.6285E-05  0.1322E-07  0.9866E-03  0.1860E-03  0.8281E+04
   -0.787477   28.29934  0.2070E-13  0.6069E-05  0.1166E-07  0.1042E-02  0.1687E-03  0.6814E+04
   -0.899977   28.29986  0.2070E-13  0.5825E-05  0.1033E-07  0.1085E-02  0.1540E-03  0.7135E+04
   -1.012477   28.30028  0.2070E-13  0.5560E-05  0.9168E-08  0.1116E-02  0.1411E-03  0.1093E+05
   -1.124979   28.30062  0.2070E-13  0.5276E-05  0.8137E-08  0.1107E-02  0.1295E-03  0.9067E+04
   -1.237481   28.30089  0.2070E-13  0.4979E-05  0.7213E-08  0.1090E-02  0.1185E-03  0.6680E+04
   -1.349983   28.30111  0.2070E-13  0.4676E-05  0.6396E-08  0.1070E-02  0.1083E-03  0.9899E+04
   -1.462486   28.30129  0.2070E-13  0.4377E-05  0.5681E-08  0.1045E-02  0.9887E-04  0.6597E+04
   -1.574989   28.30141  0.2070E-13  0.4082E-05  0.5054E-08  0.1012E-02  0.9024E-04  0.1802E+07
   -1.687493   28.30149  0.2070E-13  0.3774E-05  0.4472E-08  0.8196E-03  0.8222E-04  0.8713E+04
   -1.799997   28.30151  0.2070E-13  0.3443E-05  0.3912E-08  0.7211E-03  0.7445E-04  0.7452E+03
   -1.912501   28.30138  0.2070E-13  0.3085E-05  0.3370E-08  0.4309E-03  0.6651E-04  0.9813E+03
   -2.025005   28.30063  0.2070E-13  0.2698E-05  0.2842E-08  0.2783E-03  0.5647E-04  0.7387E+04
   -2.137509   28.29887  0.2070E-13  0.2325E-05  0.2382E-08  0.1682E-03  0.4788E-04  0.2480E+06
   -2.250014   28.29618  0.2070E-13  0.1915E-05  0.1931E-08  0.7006E-04  0.4118E-04  0.8394E+08
   -2.362518   28.28530  0.2071E-13  0.1240E-05  0.1254E-08  0.3397E-05  0.3412E-04  0.8228E+11
   -2.475023   28.20443  0.2074E-13  0.3744E-06  0.3764E-09  0.2286E-07  0.1967E-04  0.7651E+14
   -2.587527   27.76176  0.2112E-13  0.2114E-07  0.2286E-10  0.1054E-08  0.1451E-05  0.1429E+17
   -2.700031   27.12009  0.2148E-13  0.1030E-08  0.1772E-11  0.1138E-09  0.8973E-07  0.3018E+17
   -2.812535   26.42410  0.2169E-13  0.4419E-11  0.1000E-11  0.1000E-09  0.5227E-08  0.5710E+17
   -2.925038   25.69154  0.2183E-13  0.4419E-11  0.1000E-11  0.1000E-09  0.2872E-09  0.1090E+18
   -3.037542   24.92678  0.2190E-13  0.4419E-11  0.1000E-11  0.1000E-09  0.1484E-10  0.1843E+18
   -3.150045   24.14486  0.2191E-13  0.4419E-11  0.1000E-11  0.1000E-09  0.7180E-12  0.1855E+18
   -3.262547   23.37114  0.2187E-13  0.4419E-11  0.1000E-11  0.1000E-09  0.3232E-13  0.1705E+18
   -3.375049   22.63785  0.2179E-13  0.4419E-11  0.1000E-11  0.1000E-09  0.1345E-14  0.1674E+18
   -3.487550   21.89486  0.2169E-13  0.4419E-11  0.1000E-11  0.1000E-09  0.5140E-16  0.1639E+18
   -3.600051   21.14276  0.2154E-13  0.4419E-11  0.1000E-11  0.1000E-09  0.1814E-17  0.1554E+18
   -3.712551   20.40400  0.2136E-13  0.4419E-11  0.1000E-11  0.1000E-09  0.5857E-19  0.1415E+18
   -3.825050   19.70720  0.2113E-13  0.4419E-11  0.1000E-11  0.1000E-09  0.1685E-20  0.1206E+18
   -3.937549   19.09257  0.2086E-13  0.1016E-08  0.2251E-11  0.2068E-09  0.4262E-22  0.9027E+17
   -4.050047   18.61867  0.2055E-13  0.4313E-07  0.8919E-10  0.1792E-07  0.9249E-24  0.4121E+17
   -4.162543   18.39806  0.2033E-13  0.3108E-06  0.6568E-09  0.2997E-04  0.1447E-25 -0.1266E+15
   -4.275039   18.39874  0.2033E-13  0.5572E-06  0.1826E-08  0.5956E-04  0.2669E-26 -0.4851E+15
   -4.387534   18.40135  0.2032E-13  0.5537E-06  0.7281E-08  0.1194E-04  0.6591E-27 -0.6865E+16
   -4.500028   18.43829  0.2032E-13  0.0000E+00  0.0000E+00  0.0000E+00  0.6664E-27  0.0000E+00
