 1 - depth, m
 2 - temperature, C
 3 - salinity, kg/kg
 4 - turbulent kinetic energy, m**2/s**2
 5 - dissipation rate, m**2/s**3
 6 - kinematic heat conductance, m**2/s
 7 - modulus of horizontal velocity, m/s
 8 - Richardson number, n/d
   -0.000000   29.88233  0.2581E-14  0.3866E-05  0.9120E-07  0.3638E-04  0.3477E-02 -0.3620E+01
   -0.112493   29.94085  0.2581E-14  0.6664E-05  0.3899E-07  0.4268E-03  0.1066E-02 -0.4045E+02
   -0.224987   29.94503  0.2581E-14  0.7081E-05  0.3017E-07  0.5783E-03  0.8751E-03  0.1067E+04
   -0.337482   29.94759  0.2581E-14  0.7175E-05  0.2479E-07  0.7052E-03  0.7538E-03  0.6604E+05
   -0.449978   29.94935  0.2581E-14  0.7091E-05  0.2092E-07  0.8054E-03  0.6643E-03  0.1567E+04
   -0.562475   29.95062  0.2581E-14  0.6896E-05  0.1790E-07  0.8846E-03  0.5934E-03  0.3376E+03
   -0.674973   29.95158  0.2581E-14  0.6631E-05  0.1544E-07  0.9461E-03  0.5351E-03  0.2334E+03
   -0.787472   29.95232  0.2581E-14  0.6322E-05  0.1339E-07  0.9924E-03  0.4860E-03  0.1964E+03
   -0.899971   29.95290  0.2581E-14  0.5988E-05  0.1166E-07  0.1026E-02  0.4439E-03  0.1946E+03
   -1.012471   29.95335  0.2581E-14  0.5642E-05  0.1018E-07  0.1048E-02  0.4075E-03  0.2647E+04
   -1.124972   29.95369  0.2581E-14  0.5286E-05  0.8898E-08  0.1035E-02  0.3752E-03  0.3853E+03
   -1.237473   29.95397  0.2581E-14  0.4927E-05  0.7776E-08  0.1014E-02  0.3453E-03  0.1630E+05
   -1.349975   29.95417  0.2581E-14  0.4563E-05  0.6784E-08  0.9467E-03  0.3179E-03  0.1511E+05
   -1.462477   29.95433  0.2581E-14  0.4185E-05  0.5879E-08  0.8218E-03  0.2920E-03  0.1269E+05
   -1.574980   29.95444  0.2581E-14  0.3782E-05  0.5027E-08  0.6469E-03  0.2668E-03  0.3083E+04
   -1.687483   29.95451  0.2581E-14  0.3348E-05  0.4221E-08  0.3806E-03  0.2412E-03  0.3697E+02
   -1.799986   29.95448  0.2581E-14  0.2881E-05  0.3475E-08  0.2375E-03  0.2156E-03  0.1680E+03
   -1.912489   29.95229  0.2581E-14  0.2284E-05  0.2672E-08  0.1270E-03  0.1843E-03  0.1132E+04
   -2.024993   29.93701  0.2581E-14  0.1563E-05  0.1797E-08  0.4783E-04  0.1342E-03  0.7599E+05
   -2.137496   29.89918  0.2580E-14  0.8339E-06  0.9416E-09  0.6516E-05  0.7201E-04  0.1404E+08
   -2.250000   29.83137  0.2579E-14  0.2418E-06  0.2659E-09  0.6193E-07  0.2515E-04  0.3344E+10
   -2.362504   29.75118  0.2578E-14  0.1678E-07  0.1942E-10  0.5180E-08  0.2578E-05  0.8951E+12
   -2.475008   29.68611  0.2578E-14  0.7164E-09  0.1669E-11  0.4329E-09  0.1710E-06  0.2324E+15
   -2.587511   29.63232  0.2578E-14  0.4438E-11  0.1000E-11  0.1000E-09  0.1023E-07  0.2204E+16
   -2.700015   29.58473  0.2577E-14  0.4419E-11  0.1000E-11  0.1000E-09  0.5797E-09  0.6002E+16
   -2.812518   29.54212  0.2577E-14  0.4419E-11  0.1000E-11  0.1000E-09  0.3121E-10  0.8705E+16
   -2.925021   29.50422  0.2576E-14  0.4419E-11  0.1000E-11  0.1000E-09  0.1589E-11  0.9657E+16
   -3.037523   29.47113  0.2575E-14  0.4419E-11  0.1000E-11  0.1000E-09  0.7627E-13  0.8012E+16
   -3.150026   29.44366  0.2573E-14  0.4419E-11  0.1000E-11  0.1000E-09  0.3439E-14  0.5975E+16
   -3.262527   29.42316  0.2572E-14  0.9063E-09  0.1194E-11  0.2286E-08  0.1447E-15  0.3383E+16
   -3.375028   29.41154  0.2570E-14  0.1332E-07  0.8571E-11  0.4425E-07  0.5655E-17  0.2437E+16
   -3.487529   29.40318  0.2569E-14  0.8080E-07  0.5129E-10  0.1163E-05  0.2038E-18  0.1004E+16
   -3.600029   29.39973  0.2568E-14  0.1740E-06  0.1136E-09  0.2154E-04  0.7113E-20  0.1532E+15
   -3.712529   29.39920  0.2568E-14  0.2598E-06  0.1858E-09  0.6397E-04  0.5687E-21 -0.8612E+13
   -3.825027   29.39923  0.2568E-14  0.3412E-06  0.2796E-09  0.1060E-03  0.2037E-21 -0.2356E+14
   -3.937525   29.39932  0.2568E-14  0.4254E-06  0.4071E-09  0.1392E-03  0.8980E-22 -0.3784E+14
   -4.050022   29.39945  0.2568E-14  0.5093E-06  0.5846E-09  0.1581E-03  0.4217E-22 -0.5839E+14
   -4.162518   29.39965  0.2568E-14  0.5860E-06  0.8501E-09  0.1546E-03  0.1987E-22 -0.9741E+14
   -4.275013   29.39998  0.2568E-14  0.6341E-06  0.1324E-08  0.1182E-03  0.8833E-23 -0.2059E+15
   -4.387507   29.40069  0.2568E-14  0.4034E-06  0.4186E-08  0.1027E-04  0.3421E-23 -0.4031E+16
   -4.500000   29.41454  0.2568E-14  0.0000E+00  0.0000E+00  0.0000E+00  0.3367E-23  0.0000E+00
