 1 - depth, m
 2 - temperature, C
 3 - salinity, kg/kg
 4 - turbulent kinetic energy, m**2/s**2
 5 - dissipation rate, m**2/s**3
 6 - kinematic heat conductance, m**2/s
 7 - modulus of horizontal velocity, m/s
 8 - Richardson number, n/d
   -0.000000   26.10332  0.1512E-13  0.9420E-05  0.2205E-06  0.5254E-04  0.1391E-01 -0.2023E+00
   -0.112493   26.13755  0.1512E-13  0.8668E-05  0.7504E-07  0.1815E-03  0.6888E-02 -0.6164E+00
   -0.224987   26.14569  0.1512E-13  0.8080E-05  0.4377E-07  0.3667E-03  0.4907E-02 -0.9107E+00
   -0.337482   26.14912  0.1512E-13  0.7539E-05  0.3110E-07  0.5448E-03  0.3902E-02  0.6008E+03
   -0.449978   26.15104  0.1512E-13  0.7054E-05  0.2418E-07  0.6146E-03  0.3321E-02  0.4362E+03
   -0.562475   26.15239  0.1512E-13  0.6581E-05  0.1944E-07  0.6640E-03  0.2884E-02  0.3531E+03
   -0.674972   26.15337  0.1512E-13  0.6115E-05  0.1593E-07  0.6951E-03  0.2534E-02  0.1559E+03
   -0.787471   26.15411  0.1512E-13  0.5655E-05  0.1321E-07  0.7067E-03  0.2240E-02  0.3424E+02
   -0.899970   26.15466  0.1512E-13  0.5204E-05  0.1104E-07  0.7024E-03  0.1987E-02  0.4086E+02
   -1.012470   26.15507  0.1512E-13  0.4766E-05  0.9284E-08  0.6840E-03  0.1764E-02  0.1423E+02
   -1.124970   26.15535  0.1512E-13  0.4339E-05  0.7852E-08  0.6588E-03  0.1566E-02  0.2248E+03
   -1.237471   26.15549  0.1512E-13  0.3918E-05  0.6649E-08  0.6106E-03  0.1384E-02  0.1476E+02
   -1.349973   26.15535  0.1512E-13  0.3476E-05  0.5580E-08  0.5510E-03  0.1205E-02  0.1389E+02
   -1.462475   26.15296  0.1512E-13  0.3028E-05  0.4616E-08  0.4859E-03  0.9672E-03  0.3458E+02
   -1.574977   26.14448  0.1512E-13  0.2636E-05  0.3813E-08  0.4458E-03  0.7402E-03  0.2491E+04
   -1.687480   26.13404  0.1511E-13  0.2296E-05  0.3149E-08  0.4179E-03  0.5843E-03  0.2955E+06
   -1.799983   26.12271  0.1511E-13  0.1986E-05  0.2586E-08  0.3985E-03  0.4584E-03  0.3917E+08
   -1.912486   26.11008  0.1511E-13  0.1704E-05  0.2105E-08  0.3880E-03  0.3479E-03  0.5574E+10
   -2.024989   26.09622  0.1511E-13  0.1471E-05  0.1721E-08  0.3876E-03  0.2511E-03  0.8500E+12
   -2.137493   26.08386  0.1511E-13  0.1373E-05  0.1537E-08  0.3860E-03  0.2023E-03  0.1247E+15
   -2.249997   26.07500  0.1511E-13  0.1306E-05  0.1406E-08  0.3815E-03  0.1809E-03  0.8152E+15
   -2.362500   26.06678  0.1511E-13  0.1241E-05  0.1287E-08  0.3502E-03  0.1644E-03  0.1210E+16
   -2.475004   26.05800  0.1511E-13  0.1172E-05  0.1169E-08  0.2978E-03  0.1488E-03  0.1388E+16
   -2.587507   26.04981  0.1511E-13  0.1096E-05  0.1047E-08  0.2162E-03  0.1329E-03  0.1581E+16
   -2.700010   26.04221  0.1511E-13  0.1015E-05  0.9266E-09  0.1651E-03  0.1163E-03  0.1787E+16
   -2.812513   26.03507  0.1511E-13  0.9348E-06  0.8165E-09  0.1396E-03  0.1007E-03  0.1721E+16
   -2.925016   26.02831  0.1511E-13  0.8568E-06  0.7191E-09  0.1172E-03  0.8642E-04  0.1660E+16
   -3.037518   26.02181  0.1511E-13  0.7810E-06  0.6336E-09  0.9361E-04  0.7351E-04  0.1620E+16
   -3.150020   26.01547  0.1511E-13  0.7067E-06  0.5580E-09  0.6918E-04  0.6181E-04  0.1614E+16
   -3.262522   26.00915  0.1510E-13  0.6326E-06  0.4895E-09  0.4463E-04  0.5120E-04  0.1660E+16
   -3.375023   26.00262  0.1510E-13  0.5573E-06  0.4255E-09  0.2399E-04  0.4147E-04  0.1954E+16
   -3.487523   25.99491  0.1510E-13  0.4668E-06  0.3536E-09  0.6109E-05  0.3263E-04  0.2722E+16
   -3.600023   25.98344  0.1510E-13  0.2733E-06  0.2033E-09  0.2845E-06  0.1866E-04  0.4288E+16
   -3.712522   25.96010  0.1508E-13  0.5535E-07  0.4347E-10  0.5390E-07  0.2171E-05  0.5262E+16
   -3.825021   25.93105  0.1504E-13  0.9129E-07  0.9191E-10  0.1169E-05  0.9021E-07  0.9898E+15
   -3.937519   25.92495  0.1503E-13  0.2262E-06  0.2407E-09  0.3497E-04  0.3496E-08 -0.7885E+13
   -4.050015   25.92499  0.1503E-13  0.3439E-06  0.4481E-09  0.7213E-04  0.8414E-09 -0.4789E+14
   -4.162511   25.92523  0.1503E-13  0.4632E-06  0.7835E-09  0.9229E-04  0.2626E-09 -0.9422E+14
   -4.275006   25.92571  0.1503E-13  0.5643E-06  0.1403E-08  0.8483E-04  0.8422E-10 -0.2204E+15
   -4.387500   25.92681  0.1503E-13  0.4289E-06  0.4798E-08  0.1057E-04  0.2446E-10 -0.4833E+16
   -4.499993   25.94539  0.1503E-13  0.0000E+00  0.0000E+00  0.0000E+00  0.2498E-10  0.0000E+00
