 1 - depth, m
 2 - temperature, C
 3 - salinity, kg/kg
 4 - turbulent kinetic energy, m**2/s**2
 5 - dissipation rate, m**2/s**3
 6 - kinematic heat conductance, m**2/s
 7 - modulus of horizontal velocity, m/s
 8 - Richardson number, n/d
   -0.000000   27.23553  0.1529E-13  0.6539E-05  0.1467E-06  0.4716E-04  0.8735E-02 -0.4754E+00
   -0.112493   27.27922  0.1529E-13  0.7758E-05  0.5195E-07  0.3252E-03  0.3438E-02 -0.2055E+01
   -0.224987   27.28471  0.1529E-13  0.7900E-05  0.3620E-07  0.6165E-03  0.2559E-02  0.7035E+04
   -0.337482   27.28712  0.1529E-13  0.7862E-05  0.2905E-07  0.7276E-03  0.2189E-02  0.3895E+04
   -0.449978   27.28884  0.1529E-13  0.7734E-05  0.2426E-07  0.8314E-03  0.1926E-02  0.9490E+04
   -0.562475   27.29011  0.1529E-13  0.7540E-05  0.2069E-07  0.9186E-03  0.1717E-02  0.2110E+05
   -0.674972   27.29109  0.1529E-13  0.7302E-05  0.1790E-07  0.9911E-03  0.1545E-02  0.2030E+05
   -0.787471   27.29185  0.1529E-13  0.7038E-05  0.1564E-07  0.1051E-02  0.1400E-02  0.6396E+04
   -0.899970   27.29245  0.1529E-13  0.6747E-05  0.1374E-07  0.1079E-02  0.1276E-02  0.3811E+03
   -1.012470   27.29293  0.1529E-13  0.6424E-05  0.1207E-07  0.1072E-02  0.1159E-02  0.8394E+02
   -1.124970   27.29334  0.1529E-13  0.6083E-05  0.1061E-07  0.1059E-02  0.1049E-02  0.1704E+03
   -1.237471   27.29368  0.1529E-13  0.5734E-05  0.9347E-08  0.1046E-02  0.9487E-03  0.6090E+02
   -1.349973   27.29395  0.1529E-13  0.5385E-05  0.8249E-08  0.1026E-02  0.8566E-03  0.2225E+03
   -1.462475   27.29416  0.1529E-13  0.5040E-05  0.7299E-08  0.9985E-03  0.7722E-03  0.6366E+02
   -1.574977   27.29430  0.1529E-13  0.4701E-05  0.6477E-08  0.9684E-03  0.6945E-03  0.3587E+02
   -1.687480   27.29436  0.1529E-13  0.4364E-05  0.5755E-08  0.9240E-03  0.6221E-03  0.2060E+02
   -1.799983   27.29426  0.1529E-13  0.4010E-05  0.5088E-08  0.8624E-03  0.5514E-03  0.9942E+02
   -1.912486   27.29321  0.1529E-13  0.3638E-05  0.4459E-08  0.7907E-03  0.4662E-03  0.2389E+03
   -2.024990   27.28903  0.1529E-13  0.3295E-05  0.3896E-08  0.7059E-03  0.3806E-03  0.5515E+04
   -2.137493   27.28381  0.1528E-13  0.2979E-05  0.3392E-08  0.6327E-03  0.3202E-03  0.7372E+06
   -2.249997   27.27883  0.1528E-13  0.2679E-05  0.2940E-08  0.5929E-03  0.2719E-03  0.1375E+09
   -2.362500   27.27329  0.1528E-13  0.2390E-05  0.2536E-08  0.5628E-03  0.2289E-03  0.3106E+11
   -2.475004   27.26652  0.1528E-13  0.2109E-05  0.2168E-08  0.5412E-03  0.1894E-03  0.6652E+13
   -2.587507   27.25883  0.1528E-13  0.1837E-05  0.1828E-08  0.5146E-03  0.1527E-03  0.4646E+15
   -2.700011   27.25005  0.1528E-13  0.1592E-05  0.1527E-08  0.2796E-03  0.1190E-03  0.7109E+15
   -2.812514   27.24205  0.1528E-13  0.1453E-05  0.1342E-08  0.2075E-03  0.9922E-04  0.8188E+15
   -2.925016   27.23527  0.1528E-13  0.1345E-05  0.1204E-08  0.1667E-03  0.8714E-04  0.9543E+15
   -3.037519   27.22879  0.1528E-13  0.1243E-05  0.1086E-08  0.1250E-03  0.7692E-04  0.1128E+16
   -3.150021   27.22234  0.1528E-13  0.1143E-05  0.9813E-09  0.8157E-04  0.6773E-04  0.1363E+16
   -3.262522   27.21580  0.1528E-13  0.1031E-05  0.8756E-09  0.3827E-04  0.5943E-04  0.1670E+16
   -3.375023   27.20800  0.1528E-13  0.7809E-06  0.6521E-09  0.8717E-05  0.4429E-04  0.3421E+16
   -3.487524   27.18936  0.1527E-13  0.3933E-06  0.3206E-09  0.2031E-06  0.2120E-04  0.7578E+16
   -3.600024   27.14514  0.1525E-13  0.5720E-07  0.4725E-10  0.2045E-07  0.2448E-05  0.1315E+17
   -3.712523   27.07514  0.1522E-13  0.4389E-08  0.4467E-11  0.2033E-08  0.1015E-06  0.1348E+17
   -3.825021   27.00687  0.1519E-13  0.2375E-09  0.1095E-11  0.2174E-09  0.2980E-08  0.1222E+17
   -3.937519   26.94476  0.1515E-13  0.1689E-08  0.2799E-11  0.1801E-08  0.7467E-10  0.1038E+17
   -4.050016   26.89799  0.1511E-13  0.4428E-07  0.7048E-10  0.3158E-06  0.1603E-11  0.2522E+16
   -4.162512   26.88860  0.1509E-13  0.2192E-06  0.3701E-09  0.3235E-04  0.2954E-13 -0.9922E+14
   -4.275007   26.88897  0.1509E-13  0.3486E-06  0.8947E-09  0.4805E-04  0.4765E-14 -0.2973E+15
   -4.387501   26.89008  0.1509E-13  0.3453E-06  0.3587E-08  0.9450E-05  0.9119E-15 -0.4274E+16
   -4.499994   26.90597  0.1509E-13  0.0000E+00  0.0000E+00  0.0000E+00  0.9061E-15  0.0000E+00
