 1 - depth, m
 2 - temperature, C
 3 - salinity, kg/kg
 4 - turbulent kinetic energy, m**2/s**2
 5 - dissipation rate, m**2/s**3
 6 - kinematic heat conductance, m**2/s
 7 - modulus of horizontal velocity, m/s
 8 - Richardson number, n/d
   -0.000000   28.56332  0.2211E-13  0.6928E-05  0.1764E-06  0.4579E-04  0.8005E-02 -0.6969E+00
   -0.112496   28.61763  0.2212E-13  0.9881E-05  0.6544E-07  0.5176E-03  0.2722E-02 -0.4081E+01
   -0.224992   28.62199  0.2213E-13  0.1056E-04  0.4920E-07  0.7797E-03  0.2165E-02  0.2090E+03
   -0.337490   28.62461  0.2213E-13  0.1092E-04  0.4111E-07  0.9590E-03  0.1893E-02  0.3035E+02
   -0.449989   28.62654  0.2213E-13  0.1110E-04  0.3560E-07  0.1126E-02  0.1689E-02  0.1784E+02
   -0.562488   28.62803  0.2213E-13  0.1115E-04  0.3146E-07  0.1271E-02  0.1527E-02  0.1338E+02
   -0.674989   28.62922  0.2213E-13  0.1109E-04  0.2816E-07  0.1398E-02  0.1394E-02  0.1122E+02
   -0.787490   28.63021  0.2213E-13  0.1096E-04  0.2540E-07  0.1506E-02  0.1282E-02  0.1005E+02
   -0.899992   28.63104  0.2213E-13  0.1076E-04  0.2303E-07  0.1597E-02  0.1185E-02  0.9388E+01
   -1.012495   28.63174  0.2213E-13  0.1050E-04  0.2096E-07  0.1673E-02  0.1100E-02  0.9066E+01
   -1.124998   28.63233  0.2213E-13  0.1020E-04  0.1911E-07  0.1733E-02  0.1025E-02  0.8961E+01
   -1.237502   28.63284  0.2213E-13  0.9874E-05  0.1745E-07  0.1780E-02  0.9585E-03  0.9064E+01
   -1.350006   28.63328  0.2213E-13  0.9517E-05  0.1595E-07  0.1815E-02  0.8991E-03  0.9316E+01
   -1.462511   28.63364  0.2213E-13  0.9143E-05  0.1460E-07  0.1839E-02  0.8461E-03  0.9749E+01
   -1.575016   28.63395  0.2213E-13  0.8759E-05  0.1338E-07  0.1854E-02  0.7989E-03  0.1031E+02
   -1.687522   28.63420  0.2213E-13  0.8375E-05  0.1229E-07  0.1863E-02  0.7571E-03  0.1100E+02
   -1.800027   28.63439  0.2213E-13  0.8001E-05  0.1133E-07  0.1871E-02  0.7206E-03  0.1212E+02
   -1.912533   28.63454  0.2213E-13  0.7643E-05  0.1051E-07  0.1877E-02  0.6892E-03  0.3668E+02
   -2.025040   28.63463  0.2213E-13  0.7228E-05  0.9656E-08  0.1142E-02  0.6626E-03  0.8741E+03
   -2.137546   28.63469  0.2213E-13  0.6675E-05  0.8665E-08  0.5552E-03  0.6270E-03  0.3474E+02
   -2.250052   28.63462  0.2213E-13  0.6053E-05  0.7719E-08  0.2579E-03  0.5901E-03  0.2246E+03
   -2.362559   28.63387  0.2213E-13  0.5153E-05  0.6517E-08  0.3814E-04  0.5541E-03  0.6232E+03
   -2.475065   28.42531  0.2219E-13  0.1882E-05  0.2372E-08  0.1131E-06  0.2913E-03  0.6586E+05
   -2.587571   27.57913  0.2238E-13  0.1031E-06  0.1353E-09  0.4060E-08  0.2814E-04  0.1434E+08
   -2.700077   26.64939  0.2243E-13  0.4016E-08  0.6055E-11  0.2524E-09  0.1723E-05  0.3844E+10
   -2.812583   25.80351  0.2241E-13  0.8929E-11  0.1000E-11  0.1000E-09  0.9830E-07  0.1163E+13
   -2.925088   24.99348  0.2238E-13  0.4419E-11  0.1000E-11  0.1000E-09  0.5296E-08  0.3924E+15
   -3.037593   24.20682  0.2234E-13  0.4419E-11  0.1000E-11  0.1000E-09  0.2690E-09  0.7021E+17
   -3.150098   23.44925  0.2230E-13  0.4419E-11  0.1000E-11  0.1000E-09  0.1282E-10  0.1629E+18
   -3.262603   22.73694  0.2224E-13  0.4419E-11  0.1000E-11  0.1000E-09  0.5700E-12  0.1448E+18
   -3.375106   22.09866  0.2218E-13  0.4419E-11  0.1000E-11  0.1000E-09  0.2347E-13  0.1436E+18
   -3.487610   21.44718  0.2210E-13  0.4419E-11  0.1000E-11  0.1000E-09  0.8897E-15  0.1446E+18
   -3.600112   20.77092  0.2200E-13  0.4419E-11  0.1000E-11  0.1000E-09  0.3120E-16  0.1403E+18
   -3.712614   20.09291  0.2185E-13  0.4419E-11  0.1000E-11  0.1000E-09  0.1003E-17  0.1292E+18
   -3.825115   19.44717  0.2167E-13  0.4419E-11  0.1000E-11  0.1000E-09  0.2881E-19  0.1090E+18
   -3.937616   18.88461  0.2144E-13  0.1687E-08  0.3911E-11  0.4232E-09  0.7287E-21  0.7704E+17
   -4.050116   18.47615  0.2119E-13  0.7273E-07  0.1585E-09  0.6143E-07  0.1584E-22  0.2236E+17
   -4.162614   18.35577  0.2108E-13  0.4186E-06  0.9389E-09  0.4402E-04  0.2539E-24 -0.1702E+15
   -4.275112   18.35669  0.2108E-13  0.6596E-06  0.2236E-08  0.6849E-04  0.5652E-25 -0.5203E+15
   -4.387609   18.35950  0.2108E-13  0.6267E-06  0.8728E-08  0.1271E-04  0.1512E-25 -0.7684E+16
   -4.500104   18.40094  0.2108E-13  0.0000E+00  0.0000E+00  0.0000E+00  0.1484E-25  0.0000E+00
