 1 - depth, m
 2 - temperature, C
 3 - salinity, kg/kg
 4 - turbulent kinetic energy, m**2/s**2
 5 - dissipation rate, m**2/s**3
 6 - kinematic heat conductance, m**2/s
 7 - modulus of horizontal velocity, m/s
 8 - Richardson number, n/d
   -0.000000   29.86114  0.9900E-14  0.3725E-05  0.9185E-07  0.3468E-04  0.2280E-02 -0.1049E+02
   -0.112493   29.92522  0.9900E-14  0.7034E-05  0.4029E-07  0.4576E-03  0.6591E-03 -0.1254E+03
   -0.224987   29.92933  0.9900E-14  0.7545E-05  0.3171E-07  0.6179E-03  0.5452E-03  0.4744E+07
   -0.337482   29.93189  0.9900E-14  0.7710E-05  0.2638E-07  0.7575E-03  0.4706E-03  0.9395E+05
   -0.449978   29.93364  0.9900E-14  0.7684E-05  0.2251E-07  0.8695E-03  0.4156E-03  0.1128E+06
   -0.562475   29.93493  0.9900E-14  0.7537E-05  0.1949E-07  0.9604E-03  0.3720E-03  0.2159E+06
   -0.674973   29.93590  0.9900E-14  0.7314E-05  0.1702E-07  0.1033E-02  0.3361E-03  0.4577E+04
   -0.787472   29.93665  0.9900E-14  0.7042E-05  0.1495E-07  0.1090E-02  0.3058E-03  0.8342E+05
   -0.899971   29.93725  0.9900E-14  0.6735E-05  0.1319E-07  0.1129E-02  0.2799E-03  0.1586E+05
   -1.012471   29.93771  0.9900E-14  0.6397E-05  0.1163E-07  0.1124E-02  0.2565E-03  0.4485E+04
   -1.124972   29.93809  0.9900E-14  0.6035E-05  0.1024E-07  0.1110E-02  0.2344E-03  0.1342E+04
   -1.237473   29.93840  0.9900E-14  0.5662E-05  0.9022E-08  0.1092E-02  0.2139E-03  0.8021E+03
   -1.349974   29.93864  0.9900E-14  0.5288E-05  0.7957E-08  0.1065E-02  0.1949E-03  0.1350E+04
   -1.462477   29.93881  0.9900E-14  0.4920E-05  0.7033E-08  0.1035E-02  0.1775E-03  0.5590E+03
   -1.574979   29.93891  0.9900E-14  0.4557E-05  0.6231E-08  0.9969E-03  0.1612E-03  0.2263E+04
   -1.687482   29.93887  0.9900E-14  0.4179E-05  0.5493E-08  0.8853E-03  0.1453E-03  0.1318E+05
   -1.799985   29.93817  0.9900E-14  0.3765E-05  0.4767E-08  0.7020E-03  0.1254E-03  0.5027E+05
   -1.912489   29.93548  0.9900E-14  0.3349E-05  0.4084E-08  0.5239E-03  0.1038E-03  0.4874E+05
   -2.024992   29.93196  0.9899E-14  0.2944E-05  0.3460E-08  0.3311E-03  0.8821E-04  0.2091E+07
   -2.137496   29.92831  0.9899E-14  0.2521E-05  0.2870E-08  0.1875E-03  0.7545E-04  0.2964E+09
   -2.249999   29.92270  0.9899E-14  0.1976E-05  0.2196E-08  0.9636E-04  0.6195E-04  0.7059E+11
   -2.362503   29.91081  0.9898E-14  0.1374E-05  0.1505E-08  0.3250E-04  0.4668E-04  0.3202E+14
   -2.475007   29.88729  0.9897E-14  0.7186E-06  0.7841E-09  0.3522E-05  0.2866E-04  0.2280E+16
   -2.587510   29.83648  0.9893E-14  0.1829E-06  0.1990E-09  0.5274E-07  0.9799E-05  0.4137E+16
   -2.700014   29.77377  0.9890E-14  0.1352E-07  0.1547E-10  0.4477E-08  0.9937E-06  0.4985E+16
   -2.812517   29.71243  0.9889E-14  0.5466E-09  0.1508E-11  0.2856E-09  0.5450E-07  0.8571E+16
   -2.925020   29.63730  0.9890E-14  0.6982E-11  0.1000E-11  0.1019E-09  0.2536E-08  0.1594E+17
   -3.037522   29.54085  0.9893E-14  0.4419E-11  0.1000E-11  0.1000E-09  0.1118E-09  0.2538E+17
   -3.150024   29.43236  0.9896E-14  0.4419E-11  0.1000E-11  0.1000E-09  0.4686E-11  0.2937E+17
   -3.262526   29.32889  0.9895E-14  0.4419E-11  0.1000E-11  0.1000E-09  0.1858E-12  0.2443E+17
   -3.375027   29.24466  0.9888E-14  0.4419E-11  0.1000E-11  0.1000E-09  0.6913E-14  0.2373E+17
   -3.487528   29.16265  0.9877E-14  0.4419E-11  0.1000E-11  0.1000E-09  0.2394E-15  0.2380E+17
   -3.600028   29.08019  0.9861E-14  0.4419E-11  0.1000E-11  0.1000E-09  0.7740E-17  0.2271E+17
   -3.712527   29.00132  0.9839E-14  0.4419E-11  0.1000E-11  0.1000E-09  0.2313E-18  0.1997E+17
   -3.825026   28.93182  0.9811E-14  0.1372E-08  0.2112E-11  0.1034E-08  0.6220E-20  0.1515E+17
   -3.937524   28.87898  0.9779E-14  0.3386E-07  0.4237E-10  0.6401E-07  0.1484E-21  0.6172E+16
   -4.050021   28.85743  0.9760E-14  0.1584E-06  0.2025E-09  0.1913E-04  0.2992E-23  0.5845E+14
   -4.162517   28.85723  0.9759E-14  0.2970E-06  0.4986E-09  0.5293E-04  0.2063E-24 -0.1135E+15
   -4.275012   28.85762  0.9759E-14  0.4149E-06  0.1041E-08  0.6049E-04  0.5038E-25 -0.2891E+15
   -4.387506   28.85863  0.9759E-14  0.3657E-06  0.3865E-08  0.9746E-05  0.1261E-25 -0.4380E+16
   -4.499999   28.87393  0.9758E-14  0.0000E+00  0.0000E+00  0.0000E+00  0.1205E-25  0.0000E+00
