 1 - depth, m
 2 - temperature, C
 3 - salinity, kg/kg
 4 - turbulent kinetic energy, m**2/s**2
 5 - dissipation rate, m**2/s**3
 6 - kinematic heat conductance, m**2/s
 7 - modulus of horizontal velocity, m/s
 8 - Richardson number, n/d
   -0.000000   26.04386  0.4649E-14  0.6463E-05  0.1571E-06  0.4330E-04  0.8705E-02 -0.6374E+00
   -0.112493   26.09148  0.4649E-14  0.7622E-05  0.5325E-07  0.3163E-03  0.3331E-02 -0.3775E+01
   -0.224987   26.09732  0.4649E-14  0.7731E-05  0.3653E-07  0.5981E-03  0.2441E-02  0.1614E+04
   -0.337482   26.09981  0.4649E-14  0.7698E-05  0.2918E-07  0.7091E-03  0.2090E-02  0.1871E+05
   -0.449978   26.10159  0.4649E-14  0.7575E-05  0.2428E-07  0.8120E-03  0.1834E-02  0.1857E+05
   -0.562475   26.10291  0.4649E-14  0.7387E-05  0.2066E-07  0.8982E-03  0.1631E-02  0.3419E+03
   -0.674972   26.10393  0.4649E-14  0.7154E-05  0.1784E-07  0.9699E-03  0.1464E-02  0.1081E+03
   -0.787471   26.10472  0.4649E-14  0.6893E-05  0.1557E-07  0.1029E-02  0.1324E-02  0.7316E+02
   -0.899970   26.10535  0.4649E-14  0.6615E-05  0.1369E-07  0.1076E-02  0.1204E-02  0.7655E+02
   -1.012470   26.10586  0.4649E-14  0.6326E-05  0.1211E-07  0.1114E-02  0.1099E-02  0.2036E+04
   -1.124970   26.10626  0.4649E-14  0.6018E-05  0.1073E-07  0.1092E-02  0.1007E-02  0.5040E+03
   -1.237471   26.10660  0.4649E-14  0.5684E-05  0.9472E-08  0.1048E-02  0.9177E-03  0.2382E+03
   -1.349973   26.10690  0.4649E-14  0.5339E-05  0.8358E-08  0.1009E-02  0.8338E-03  0.8210E+03
   -1.462475   26.10714  0.4649E-14  0.4991E-05  0.7375E-08  0.9658E-03  0.7557E-03  0.3584E+03
   -1.574977   26.10732  0.4649E-14  0.4645E-05  0.6511E-08  0.9188E-03  0.6835E-03  0.1217E+03
   -1.687480   26.10746  0.4649E-14  0.4303E-05  0.5754E-08  0.8625E-03  0.6168E-03  0.2926E+03
   -1.799983   26.10754  0.4649E-14  0.3964E-05  0.5089E-08  0.8056E-03  0.5545E-03  0.3797E+02
   -1.912486   26.10754  0.4649E-14  0.3629E-05  0.4500E-08  0.7460E-03  0.4963E-03  0.1413E+03
   -2.024990   26.10734  0.4649E-14  0.3279E-05  0.3958E-08  0.6883E-03  0.4398E-03  0.4557E+03
   -2.137493   26.10604  0.4649E-14  0.2910E-05  0.3443E-08  0.5811E-03  0.3735E-03  0.9547E+03
   -2.249997   26.10137  0.4648E-14  0.2565E-05  0.2975E-08  0.4311E-03  0.3053E-03  0.1766E+05
   -2.362500   26.09497  0.4648E-14  0.2242E-05  0.2547E-08  0.3191E-03  0.2504E-03  0.3075E+07
   -2.475004   26.08776  0.4648E-14  0.1934E-05  0.2151E-08  0.2082E-03  0.2047E-03  0.6371E+09
   -2.587507   26.08059  0.4647E-14  0.1627E-05  0.1772E-08  0.9874E-04  0.1667E-03  0.1641E+12
   -2.700010   26.07188  0.4647E-14  0.1229E-05  0.1322E-08  0.4459E-04  0.1288E-03  0.5992E+14
   -2.812513   26.05873  0.4646E-14  0.7912E-06  0.8523E-09  0.1270E-04  0.8911E-04  0.1513E+16
   -2.925016   26.03714  0.4644E-14  0.3632E-06  0.4040E-09  0.4633E-06  0.4877E-04  0.3518E+16
   -3.037519   26.00388  0.4640E-14  0.8380E-07  0.9363E-10  0.5367E-07  0.1529E-04  0.3714E+16
   -3.150021   25.97595  0.4637E-14  0.8479E-08  0.1013E-10  0.8985E-08  0.1740E-05  0.2928E+16
   -3.262522   25.95712  0.4635E-14  0.5090E-09  0.1419E-11  0.1565E-08  0.9075E-07  0.2034E+16
   -3.375023   25.94569  0.4633E-14  0.6145E-08  0.4423E-11  0.1417E-07  0.3074E-08  0.1915E+16
   -3.487524   25.93642  0.4630E-14  0.5942E-07  0.3861E-10  0.3286E-06  0.9132E-10  0.1048E+16
   -3.600024   25.93191  0.4628E-14  0.1438E-06  0.9490E-10  0.1488E-04  0.2527E-11  0.1844E+15
   -3.712523   25.93112  0.4628E-14  0.2230E-06  0.1596E-09  0.5198E-04  0.7072E-13  0.2386E+14
   -3.825021   25.93103  0.4628E-14  0.3022E-06  0.2460E-09  0.8975E-04  0.5208E-14 -0.1999E+14
   -3.937519   25.93111  0.4628E-14  0.3839E-06  0.3656E-09  0.1206E-03  0.1640E-14 -0.3560E+14
   -4.050016   25.93125  0.4628E-14  0.4671E-06  0.5354E-09  0.1388E-03  0.6463E-15 -0.5703E+14
   -4.162512   25.93147  0.4628E-14  0.5453E-06  0.7932E-09  0.1387E-03  0.2689E-15 -0.9689E+14
   -4.275007   25.93184  0.4628E-14  0.5979E-06  0.1256E-08  0.1091E-03  0.1077E-15 -0.2070E+15
   -4.387500   25.93263  0.4628E-14  0.3894E-06  0.4007E-08  0.1008E-04  0.3797E-16 -0.3962E+16
   -4.499993   25.94786  0.4627E-14  0.0000E+00  0.0000E+00  0.0000E+00  0.3588E-16  0.0000E+00
