 1 - depth, m
 2 - temperature, C
 3 - salinity, kg/kg
 4 - turbulent kinetic energy, m**2/s**2
 5 - dissipation rate, m**2/s**3
 6 - kinematic heat conductance, m**2/s
 7 - modulus of horizontal velocity, m/s
 8 - Richardson number, n/d
   -0.000000   28.66419  0.1753E-13  0.4755E-05  0.1022E-06  0.3925E-04  0.7191E-02 -0.8091E+00
   -0.112493   28.70739  0.1753E-13  0.5985E-05  0.3712E-07  0.3029E-03  0.2777E-02 -0.4442E+01
   -0.224987   28.71217  0.1753E-13  0.6044E-05  0.2589E-07  0.4847E-03  0.2095E-02  0.1637E+02
   -0.337482   28.71451  0.1753E-13  0.5904E-05  0.2036E-07  0.5809E-03  0.1766E-02  0.2448E+04
   -0.449979   28.71605  0.1753E-13  0.5669E-05  0.1661E-07  0.6481E-03  0.1538E-02  0.3789E+04
   -0.562476   28.71714  0.1753E-13  0.5369E-05  0.1376E-07  0.6835E-03  0.1358E-02  0.2024E+04
   -0.674973   28.71794  0.1753E-13  0.5026E-05  0.1149E-07  0.6962E-03  0.1205E-02  0.2117E+04
   -0.787472   28.71855  0.1753E-13  0.4660E-05  0.9636E-08  0.6957E-03  0.1072E-02  0.7119E+03
   -0.899972   28.71900  0.1753E-13  0.4287E-05  0.8121E-08  0.6836E-03  0.9547E-03  0.4633E+03
   -1.012472   28.71931  0.1753E-13  0.3912E-05  0.6871E-08  0.6544E-03  0.8496E-03  0.4987E+04
   -1.124972   28.71945  0.1753E-13  0.3519E-05  0.5784E-08  0.5930E-03  0.7506E-03  0.1054E+04
   -1.237474   28.71896  0.1753E-13  0.3093E-05  0.4787E-08  0.5124E-03  0.6339E-03  0.1868E+02
   -1.349975   28.71407  0.1753E-13  0.2696E-05  0.3941E-08  0.4648E-03  0.4839E-03  0.4923E+03
   -1.462478   28.70624  0.1753E-13  0.2337E-05  0.3237E-08  0.4297E-03  0.3859E-03  0.4647E+05
   -1.574980   28.69651  0.1753E-13  0.1994E-05  0.2632E-08  0.4037E-03  0.3095E-03  0.5398E+07
   -1.687483   28.68368  0.1753E-13  0.1670E-05  0.2106E-08  0.3773E-03  0.2422E-03  0.6769E+09
   -1.799986   28.66694  0.1753E-13  0.1436E-05  0.1727E-08  0.3324E-03  0.1882E-03  0.9095E+11
   -1.912490   28.65283  0.1753E-13  0.1312E-05  0.1503E-08  0.2668E-03  0.1631E-03  0.1311E+14
   -2.024993   28.64128  0.1753E-13  0.1193E-05  0.1297E-08  0.1806E-03  0.1449E-03  0.6840E+15
   -2.137497   28.63089  0.1752E-13  0.1070E-05  0.1104E-08  0.1355E-03  0.1276E-03  0.9493E+15
   -2.250001   28.62198  0.1752E-13  0.9495E-06  0.9363E-09  0.1022E-03  0.1116E-03  0.1349E+16
   -2.362505   28.61295  0.1752E-13  0.8334E-06  0.7933E-09  0.7031E-04  0.9705E-04  0.2478E+16
   -2.475008   28.60195  0.1752E-13  0.7198E-06  0.6690E-09  0.4009E-04  0.8388E-04  0.4643E+16
   -2.587512   28.58492  0.1752E-13  0.5925E-06  0.5445E-09  0.1273E-04  0.7170E-04  0.1109E+17
   -2.700015   28.54300  0.1753E-13  0.3849E-06  0.3540E-09  0.1917E-06  0.5522E-04  0.3169E+17
   -2.812519   28.39281  0.1757E-13  0.3839E-07  0.3700E-10  0.2216E-08  0.9029E-05  0.7051E+17
   -2.925022   27.94132  0.1788E-13  0.2189E-08  0.2910E-11  0.1720E-09  0.5234E-06  0.1006E+18
   -3.037524   27.31542  0.1834E-13  0.2927E-10  0.1000E-11  0.1000E-09  0.2777E-07  0.1156E+18
   -3.150026   26.61576  0.1867E-13  0.4419E-11  0.1000E-11  0.1000E-09  0.1374E-08  0.1215E+18
   -3.262528   25.89916  0.1892E-13  0.4419E-11  0.1000E-11  0.1000E-09  0.6312E-10  0.1365E+18
   -3.375029   25.19062  0.1913E-13  0.4419E-11  0.1000E-11  0.1000E-09  0.2674E-11  0.1811E+18
   -3.487530   24.46601  0.1929E-13  0.4419E-11  0.1000E-11  0.1000E-09  0.1038E-12  0.1803E+18
   -3.600030   23.72396  0.1938E-13  0.4419E-11  0.1000E-11  0.1000E-09  0.3714E-14  0.1761E+18
   -3.712530   22.97753  0.1938E-13  0.4419E-11  0.1000E-11  0.1000E-09  0.1214E-15  0.1668E+18
   -3.825028   22.24809  0.1926E-13  0.4419E-11  0.1000E-11  0.1000E-09  0.3527E-17  0.1510E+18
   -3.937526   21.56732  0.1904E-13  0.4419E-11  0.1000E-11  0.1000E-09  0.8992E-19  0.1260E+18
   -4.050023   20.98233  0.1875E-13  0.5190E-09  0.1652E-11  0.1558E-09  0.1964E-20  0.8762E+17
   -4.162519   20.56583  0.1843E-13  0.3126E-07  0.9319E-10  0.3233E-07  0.3570E-22  0.2410E+17
   -4.275015   20.44974  0.1826E-13  0.3337E-06  0.1027E-08  0.3388E-04  0.4779E-24 -0.3994E+15
   -4.387509   20.45167  0.1826E-13  0.4160E-06  0.4822E-08  0.1031E-04  0.7498E-25 -0.5371E+16
   -4.500002   20.47759  0.1826E-13  0.0000E+00  0.0000E+00  0.0000E+00  0.7824E-25  0.0000E+00
