 1 - depth, m
 2 - temperature, C
 3 - salinity, kg/kg
 4 - turbulent kinetic energy, m**2/s**2
 5 - dissipation rate, m**2/s**3
 6 - kinematic heat conductance, m**2/s
 7 - modulus of horizontal velocity, m/s
 8 - Richardson number, n/d
   -0.000000   28.94082  0.1765E-13  0.3457E-05  0.8009E-07  0.3421E-04  0.2371E-02 -0.2483E+02
   -0.112494   28.99948  0.1766E-13  0.6320E-05  0.3492E-07  0.4286E-03  0.7343E-03 -0.3117E+03
   -0.224989   29.00338  0.1766E-13  0.6745E-05  0.2729E-07  0.5794E-03  0.5998E-03  0.1707E+08
   -0.337486   29.00578  0.1766E-13  0.6859E-05  0.2262E-07  0.7055E-03  0.5168E-03  0.6759E+05
   -0.449983   29.00743  0.1766E-13  0.6802E-05  0.1922E-07  0.8055E-03  0.4554E-03  0.9722E+05
   -0.562481   29.00863  0.1766E-13  0.6641E-05  0.1656E-07  0.8848E-03  0.4069E-03  0.8376E+05
   -0.674980   29.00954  0.1766E-13  0.6413E-05  0.1440E-07  0.9467E-03  0.3670E-03  0.7791E+05
   -0.787479   29.01024  0.1766E-13  0.6139E-05  0.1258E-07  0.9888E-03  0.3336E-03  0.2654E+05
   -0.899980   29.01078  0.1766E-13  0.5825E-05  0.1099E-07  0.9900E-03  0.3033E-03  0.1253E+05
   -1.012481   29.01121  0.1766E-13  0.5483E-05  0.9596E-08  0.9787E-03  0.2749E-03  0.3679E+04
   -1.124983   29.01156  0.1766E-13  0.5127E-05  0.8376E-08  0.9606E-03  0.2486E-03  0.4287E+04
   -1.237485   29.01183  0.1767E-13  0.4768E-05  0.7319E-08  0.9349E-03  0.2244E-03  0.1022E+05
   -1.349988   29.01202  0.1767E-13  0.4410E-05  0.6409E-08  0.9014E-03  0.2021E-03  0.2015E+04
   -1.462491   29.01212  0.1767E-13  0.4054E-05  0.5618E-08  0.8588E-03  0.1810E-03  0.1519E+04
   -1.574995   29.01201  0.1767E-13  0.3684E-05  0.4907E-08  0.8020E-03  0.1595E-03  0.1672E+04
   -1.687499   29.01050  0.1767E-13  0.3298E-05  0.4233E-08  0.6826E-03  0.1308E-03  0.4041E+05
   -1.800003   29.00640  0.1767E-13  0.2907E-05  0.3576E-08  0.4144E-03  0.1062E-03  0.1175E+07
   -1.912507   29.00156  0.1767E-13  0.2512E-05  0.2955E-08  0.2564E-03  0.8934E-04  0.6727E+07
   -2.025012   28.99624  0.1768E-13  0.2121E-05  0.2402E-08  0.1601E-03  0.7629E-04  0.1083E+10
   -2.137517   28.98972  0.1768E-13  0.1731E-05  0.1908E-08  0.7350E-04  0.6538E-04  0.2295E+12
   -2.250021   28.97983  0.1768E-13  0.1260E-05  0.1364E-08  0.6689E-05  0.5591E-04  0.1267E+15
   -2.362526   28.94148  0.1770E-13  0.3619E-06  0.3789E-09  0.6520E-07  0.2884E-04  0.7702E+16
   -2.475031   28.78228  0.1776E-13  0.2236E-07  0.2472E-10  0.2732E-08  0.2791E-05  0.1963E+17
   -2.587536   28.51832  0.1791E-13  0.9743E-09  0.1797E-11  0.1642E-09  0.1803E-06  0.3099E+17
   -2.700040   28.16953  0.1815E-13  0.4419E-11  0.1000E-11  0.1000E-09  0.1086E-07  0.4525E+17
   -2.812544   27.74704  0.1837E-13  0.4419E-11  0.1000E-11  0.1000E-09  0.6199E-09  0.6563E+17
   -2.925048   27.26894  0.1853E-13  0.4419E-11  0.1000E-11  0.1000E-09  0.3344E-10  0.1116E+18
   -3.037552   26.74670  0.1869E-13  0.4419E-11  0.1000E-11  0.1000E-09  0.1699E-11  0.1490E+18
   -3.150055   26.18466  0.1892E-13  0.4419E-11  0.1000E-11  0.1000E-09  0.8095E-13  0.1554E+18
   -3.262558   25.58616  0.1920E-13  0.4419E-11  0.1000E-11  0.1000E-09  0.3592E-14  0.1590E+18
   -3.375060   24.96027  0.1950E-13  0.4419E-11  0.1000E-11  0.1000E-09  0.1476E-15  0.1693E+18
   -3.487562   24.27745  0.1975E-13  0.4419E-11  0.1000E-11  0.1000E-09  0.5572E-17  0.1775E+18
   -3.600063   23.54180  0.1990E-13  0.4419E-11  0.1000E-11  0.1000E-09  0.1945E-18  0.1794E+18
   -3.712564   22.77527  0.1991E-13  0.4419E-11  0.1000E-11  0.1000E-09  0.6218E-20  0.1738E+18
   -3.825063   22.00813  0.1978E-13  0.4419E-11  0.1000E-11  0.1000E-09  0.1774E-21  0.1593E+18
   -3.937562   21.28106  0.1954E-13  0.4419E-11  0.1000E-11  0.1000E-09  0.4452E-23  0.1339E+18
   -4.050060   20.65042  0.1920E-13  0.4574E-09  0.1466E-11  0.1297E-09  0.9602E-25  0.9352E+17
   -4.162557   20.19821  0.1884E-13  0.2806E-07  0.8406E-10  0.2508E-07  0.1729E-26  0.2755E+17
   -4.275054   20.06301  0.1865E-13  0.3176E-06  0.9794E-09  0.3175E-04  0.2308E-28 -0.3982E+15
   -4.387549   20.06497  0.1865E-13  0.4152E-06  0.4817E-08  0.1029E-04  0.3787E-29 -0.5390E+16
   -4.500043   20.09149  0.1865E-13  0.0000E+00  0.0000E+00  0.0000E+00  0.3774E-29  0.0000E+00
