 1 - depth, m
 2 - temperature, C
 3 - salinity, kg/kg
 4 - turbulent kinetic energy, m**2/s**2
 5 - dissipation rate, m**2/s**3
 6 - kinematic heat conductance, m**2/s
 7 - modulus of horizontal velocity, m/s
 8 - Richardson number, n/d
   -0.000000   29.66053  0.2897E-14  0.7898E-05  0.2046E-06  0.5112E-04  0.9002E-02 -0.7893E+00
   -0.112493   29.71379  0.2897E-14  0.1014E-04  0.7393E-07  0.4279E-03  0.3496E-02 -0.1903E+01
   -0.224987   29.71954  0.2897E-14  0.1055E-04  0.5328E-07  0.7291E-03  0.2681E-02  0.9111E+05
   -0.337482   29.72237  0.2897E-14  0.1071E-04  0.4355E-07  0.8810E-03  0.2339E-02  0.4639E+02
   -0.449978   29.72443  0.2897E-14  0.1071E-04  0.3691E-07  0.1024E-02  0.2078E-02  0.2199E+02
   -0.562475   29.72598  0.2897E-14  0.1060E-04  0.3197E-07  0.1147E-02  0.1870E-02  0.1537E+02
   -0.674972   29.72720  0.2897E-14  0.1040E-04  0.2806E-07  0.1252E-02  0.1698E-02  0.1243E+02
   -0.787471   29.72818  0.2897E-14  0.1015E-04  0.2485E-07  0.1340E-02  0.1553E-02  0.1082E+02
   -0.899970   29.72898  0.2897E-14  0.9842E-05  0.2214E-07  0.1414E-02  0.1427E-02  0.9914E+01
   -1.012470   29.72964  0.2897E-14  0.9504E-05  0.1981E-07  0.1473E-02  0.1317E-02  0.9377E+01
   -1.124970   29.73019  0.2897E-14  0.9141E-05  0.1779E-07  0.1520E-02  0.1220E-02  0.9130E+01
   -1.237471   29.73065  0.2897E-14  0.8762E-05  0.1601E-07  0.1555E-02  0.1133E-02  0.9068E+01
   -1.349973   29.73103  0.2897E-14  0.8373E-05  0.1444E-07  0.1581E-02  0.1057E-02  0.9197E+01
   -1.462475   29.73135  0.2897E-14  0.7982E-05  0.1306E-07  0.1598E-02  0.9884E-03  0.9454E+01
   -1.574977   29.73161  0.2897E-14  0.7597E-05  0.1185E-07  0.1609E-02  0.9280E-03  0.1043E+02
   -1.687480   29.73181  0.2897E-14  0.7211E-05  0.1076E-07  0.1574E-02  0.8751E-03  0.1145E+04
   -1.799983   29.73197  0.2897E-14  0.6808E-05  0.9745E-08  0.1424E-02  0.8236E-03  0.8147E+03
   -1.912486   29.73210  0.2897E-14  0.6374E-05  0.8768E-08  0.1199E-02  0.7724E-03  0.7032E+03
   -2.024990   29.73219  0.2897E-14  0.5905E-05  0.7824E-08  0.9326E-03  0.7187E-03  0.8496E+03
   -2.137493   29.73223  0.2897E-14  0.5403E-05  0.6944E-08  0.4926E-03  0.6668E-03  0.1987E+04
   -2.249997   29.73215  0.2897E-14  0.4838E-05  0.6086E-08  0.2486E-03  0.6173E-03  0.6352E+02
   -2.362500   29.72986  0.2897E-14  0.3941E-05  0.4886E-08  0.7490E-04  0.5475E-03  0.2360E+03
   -2.475004   29.63334  0.2898E-14  0.1804E-05  0.2234E-08  0.5539E-05  0.2038E-03  0.8399E+04
   -2.587507   29.33837  0.2898E-14  0.3908E-06  0.4769E-09  0.3499E-07  0.4342E-04  0.1430E+07
   -2.700010   29.05994  0.2896E-14  0.2258E-07  0.2876E-10  0.3027E-08  0.3386E-05  0.3549E+09
   -2.812513   28.86602  0.2893E-14  0.8966E-09  0.1940E-11  0.2636E-09  0.1880E-06  0.1084E+12
   -2.925016   28.70887  0.2891E-14  0.8990E-11  0.1000E-11  0.1020E-09  0.9453E-08  0.3742E+14
   -3.037519   28.57013  0.2887E-14  0.4419E-11  0.1000E-11  0.1000E-09  0.4472E-09  0.6470E+16
   -3.150021   28.44842  0.2883E-14  0.4419E-11  0.1000E-11  0.1000E-09  0.1990E-10  0.2536E+17
   -3.262522   28.34810  0.2879E-14  0.4419E-11  0.1000E-11  0.1000E-09  0.8288E-12  0.2007E+17
   -3.375023   28.27683  0.2874E-14  0.4419E-11  0.1000E-11  0.1000E-09  0.3211E-13  0.2011E+17
   -3.487524   28.20523  0.2868E-14  0.4419E-11  0.1000E-11  0.1000E-09  0.1150E-14  0.2121E+17
   -3.600024   28.12957  0.2861E-14  0.4419E-11  0.1000E-11  0.1000E-09  0.3829E-16  0.2051E+17
   -3.712523   28.05620  0.2853E-14  0.4419E-11  0.1000E-11  0.1000E-09  0.1173E-17  0.1799E+17
   -3.825021   27.99174  0.2843E-14  0.4419E-11  0.1000E-11  0.1000E-09  0.3225E-19  0.1416E+17
   -3.937519   27.94090  0.2834E-14  0.6702E-09  0.1528E-11  0.9210E-09  0.7840E-21  0.9358E+16
   -4.050016   27.90726  0.2827E-14  0.1980E-07  0.2743E-10  0.9917E-07  0.1645E-22  0.3023E+16
   -4.162512   27.89638  0.2823E-14  0.1114E-06  0.1601E-09  0.1790E-04  0.2946E-24 -0.1577E+14
   -4.275007   27.89643  0.2823E-14  0.2108E-06  0.4563E-09  0.3424E-04  0.1725E-25 -0.2084E+15
   -4.387501   27.89718  0.2823E-14  0.2236E-06  0.1888E-08  0.7597E-05  0.2751E-26 -0.2804E+16
   -4.499993   27.90727  0.2823E-14  0.0000E+00  0.0000E+00  0.0000E+00  0.2665E-26  0.0000E+00
