 1 - depth, m
 2 - temperature, C
 3 - salinity, kg/kg
 4 - turbulent kinetic energy, m**2/s**2
 5 - dissipation rate, m**2/s**3
 6 - kinematic heat conductance, m**2/s
 7 - modulus of horizontal velocity, m/s
 8 - Richardson number, n/d
   -0.000000    0.00000  0.0000E+00  0.1219E-13  0.7603E-17  0.1000E-09  0.0000E+00  0.1515E+17
   -0.068741    0.23467  0.0000E+00  0.1219E-13  0.7603E-17  0.1000E-09  0.0000E+00  0.1328E+17
   -0.137482    0.45408  0.0000E+00  0.1219E-13  0.7603E-17  0.1000E-09  0.0000E+00  0.1147E+17
   -0.206225    0.65590  0.0000E+00  0.1219E-13  0.7603E-17  0.1000E-09  0.0000E+00  0.9754E+16
   -0.274967    0.83826  0.0000E+00  0.1219E-13  0.7603E-17  0.1000E-09  0.0000E+00  0.8319E+16
   -0.343711    1.00309  0.0000E+00  0.1219E-13  0.7603E-17  0.1000E-09  0.0000E+00  0.7042E+16
   -0.412455    1.15048  0.0000E+00  0.1219E-13  0.7603E-17  0.1000E-09  0.0000E+00  0.5910E+16
   -0.481199    1.28069  0.0000E+00  0.1219E-13  0.7603E-17  0.1000E-09  0.0000E+00  0.4911E+16
   -0.549944    1.39409  0.0000E+00  0.1219E-13  0.7603E-17  0.1000E-09  0.0000E+00  0.3991E+16
   -0.618689    1.49021  0.0000E+00  0.1219E-13  0.7603E-17  0.1000E-09  0.0000E+00  0.3236E+16
   -0.687434    1.57108  0.0000E+00  0.1219E-13  0.7603E-17  0.1000E-09  0.0000E+00  0.2861E+16
   -0.756180    1.64500  0.0000E+00  0.4037E-13  0.7733E-17  0.1000E-09  0.0000E+00  0.2757E+16
   -0.824927    1.71859  0.0000E+00  0.1188E-12  0.1678E-16  0.1000E-09  0.0000E+00  0.2770E+16
   -0.893673    1.79513  0.0000E+00  0.3068E-12  0.4022E-16  0.1000E-09  0.0000E+00  0.2880E+16
   -0.962420    1.87774  0.0000E+00  0.7575E-12  0.9580E-16  0.1000E-09  0.0000E+00  0.3054E+16
   -1.031167    1.96918  0.0000E+00  0.1831E-11  0.2250E-15  0.1000E-09  0.0000E+00  0.3290E+16
   -1.099914    2.07274  0.0000E+00  0.4366E-11  0.5217E-15  0.1000E-09  0.0000E+00  0.3506E+16
   -1.168661    2.18985  0.0000E+00  0.1029E-10  0.1197E-14  0.1000E-09  0.0000E+00  0.3656E+16
   -1.237408    2.32101  0.0000E+00  0.2400E-10  0.2717E-14  0.1000E-09  0.0000E+00  0.3706E+16
   -1.306156    2.46578  0.0000E+00  0.5541E-10  0.6106E-14  0.1000E-09  0.0000E+00  0.3633E+16
   -1.374903    2.62293  0.0000E+00  0.1266E-09  0.1359E-13  0.1000E-09  0.0000E+00  0.3507E+16
   -1.443651    2.79461  0.0000E+00  0.2866E-09  0.2997E-13  0.1000E-09  0.0000E+00  0.3250E+16
   -1.512398    2.98008  0.0000E+00  0.6432E-09  0.6555E-13  0.1168E-09  0.0000E+00  0.2856E+16
   -1.581146    3.17816  0.0000E+00  0.1437E-08  0.1428E-12  0.3119E-09  0.0000E+00  0.2331E+16
   -1.649893    3.38724  0.0000E+00  0.3186E-08  0.3087E-12  0.9315E-09  0.0000E+00  0.1687E+16
   -1.718640    3.60519  0.0000E+00  0.6993E-08  0.6609E-12  0.3560E-08  0.0000E+00  0.9448E+15
   -1.787387    3.82767  0.0000E+00  0.1493E-07  0.1380E-11  0.3671E-07  0.0000E+00  0.1912E+15
   -1.856134    4.01460  0.0000E+00  0.1596E-07  0.1481E-11  0.6714E-04  0.0000E+00 -0.1899E+12
   -1.924880    4.01503  0.0000E+00  0.1642E-07  0.1535E-11  0.6604E-04  0.0000E+00 -0.2358E+12
   -1.993626    4.01555  0.0000E+00  0.1680E-07  0.1593E-11  0.6808E-04  0.0000E+00 -0.2480E+12
   -2.062372    4.01609  0.0000E+00  0.1711E-07  0.1658E-11  0.6793E-04  0.0000E+00 -0.2568E+12
   -2.131118    4.01663  0.0000E+00  0.1737E-07  0.1733E-11  0.6636E-04  0.0000E+00 -0.2696E+12
   -2.199863    4.01720  0.0000E+00  0.1757E-07  0.1824E-11  0.6325E-04  0.0000E+00 -0.2904E+12
   -2.268608    4.01779  0.0000E+00  0.1770E-07  0.1939E-11  0.5790E-04  0.0000E+00 -0.3265E+12
   -2.337352    4.01845  0.0000E+00  0.1774E-07  0.2092E-11  0.5183E-04  0.0000E+00 -0.3776E+12
   -2.406096    4.01919  0.0000E+00  0.1768E-07  0.2307E-11  0.4486E-04  0.0000E+00 -0.4551E+12
   -2.474839    4.02006  0.0000E+00  0.1748E-07  0.2636E-11  0.3646E-04  0.0000E+00 -0.5915E+12
   -2.543582    4.02116  0.0000E+00  0.1702E-07  0.3230E-11  0.2623E-04  0.0000E+00 -0.8933E+12
   -2.612324    4.02276  0.0000E+00  0.1597E-07  0.4691E-11  0.1400E-04  0.0000E+00 -0.1944E+13
   -2.681066    4.02602  0.0000E+00  0.1126E-07  0.1435E-10  0.1750E-05  0.0000E+00 -0.2706E+14
   -2.749807    4.05726  0.0000E+00  0.0000E+00  0.0000E+00  0.0000E+00  0.0000E+00  0.0000E+00
