 1 - depth, m
 2 - temperature, C
 3 - salinity, kg/kg
 4 - turbulent kinetic energy, m**2/s**2
 5 - dissipation rate, m**2/s**3
 6 - kinematic heat conductance, m**2/s
 7 - modulus of horizontal velocity, m/s
 8 - Richardson number, n/d
   -0.000000    0.00000  0.0000E+00  0.1219E-13  0.7603E-17  0.1000E-09  0.0000E+00  0.1342E+17
   -0.068743    0.20698  0.0000E+00  0.1219E-13  0.7603E-17  0.1000E-09  0.0000E+00  0.1258E+17
   -0.137487    0.41276  0.0000E+00  0.1219E-13  0.7603E-17  0.1000E-09  0.0000E+00  0.1175E+17
   -0.206232    0.61688  0.0000E+00  0.2319E-13  0.7603E-17  0.1000E-09  0.0000E+00  0.1091E+17
   -0.274977    0.81892  0.0000E+00  0.8305E-13  0.8807E-17  0.1000E-09  0.0000E+00  0.1010E+17
   -0.343723    1.01891  0.0000E+00  0.2002E-12  0.1562E-16  0.1000E-09  0.0000E+00  0.9305E+16
   -0.412469    1.21657  0.0000E+00  0.4194E-12  0.2981E-16  0.1000E-09  0.0000E+00  0.8525E+16
   -0.481216    1.41163  0.0000E+00  0.8329E-12  0.5687E-16  0.1000E-09  0.0000E+00  0.7763E+16
   -0.549963    1.60373  0.0000E+00  0.1620E-11  0.1077E-15  0.1000E-09  0.0000E+00  0.7014E+16
   -0.618711    1.79233  0.0000E+00  0.3115E-11  0.2024E-15  0.1000E-09  0.0000E+00  0.6293E+16
   -0.687459    1.97713  0.0000E+00  0.5942E-11  0.3779E-15  0.1000E-09  0.0000E+00  0.5624E+16
   -0.756207    2.15860  0.0000E+00  0.1126E-10  0.7011E-15  0.1000E-09  0.0000E+00  0.4993E+16
   -0.824956    2.33690  0.0000E+00  0.2120E-10  0.1293E-14  0.1000E-09  0.0000E+00  0.4386E+16
   -0.893705    2.51171  0.0000E+00  0.3969E-10  0.2370E-14  0.1000E-09  0.0000E+00  0.3804E+16
   -0.962454    2.68269  0.0000E+00  0.7384E-10  0.4321E-14  0.1000E-09  0.0000E+00  0.3251E+16
   -1.031203    2.84948  0.0000E+00  0.1364E-09  0.7824E-14  0.1000E-09  0.0000E+00  0.2733E+16
   -1.099953    3.01202  0.0000E+00  0.2504E-09  0.1407E-13  0.1000E-09  0.0000E+00  0.2248E+16
   -1.168702    3.17006  0.0000E+00  0.4566E-09  0.2515E-13  0.1000E-09  0.0000E+00  0.1798E+16
   -1.237452    3.32340  0.0000E+00  0.8280E-09  0.4472E-13  0.1647E-09  0.0000E+00  0.1382E+16
   -1.306202    3.47184  0.0000E+00  0.1493E-08  0.7906E-13  0.4020E-09  0.0000E+00  0.1001E+16
   -1.374952    3.61517  0.0000E+00  0.2677E-08  0.1390E-12  0.1069E-08  0.0000E+00  0.6620E+15
   -1.443702    3.75471  0.0000E+00  0.4767E-08  0.2429E-12  0.3556E-08  0.0000E+00  0.3478E+15
   -1.512452    3.88956  0.0000E+00  0.8342E-08  0.4177E-12  0.2979E-07  0.0000E+00  0.7147E+14
   -1.581202    4.00203  0.0000E+00  0.8708E-08  0.4370E-12  0.6952E-04  0.0000E+00 -0.5981E+11
   -1.649951    4.00227  0.0000E+00  0.8874E-08  0.4474E-12  0.6700E-04  0.0000E+00 -0.6980E+11
   -1.718701    4.00254  0.0000E+00  0.9018E-08  0.4583E-12  0.6793E-04  0.0000E+00 -0.7125E+11
   -1.787450    4.00282  0.0000E+00  0.9143E-08  0.4702E-12  0.6831E-04  0.0000E+00 -0.7235E+11
   -1.856199    4.00310  0.0000E+00  0.9252E-08  0.4835E-12  0.6788E-04  0.0000E+00 -0.7406E+11
   -1.924948    4.00338  0.0000E+00  0.9345E-08  0.4988E-12  0.6641E-04  0.0000E+00 -0.7690E+11
   -1.993697    4.00366  0.0000E+00  0.9420E-08  0.5164E-12  0.6394E-04  0.0000E+00 -0.8111E+11
   -2.062445    4.00396  0.0000E+00  0.9475E-08  0.5370E-12  0.6048E-04  0.0000E+00 -0.8722E+11
   -2.131193    4.00427  0.0000E+00  0.9506E-08  0.5615E-12  0.5647E-04  0.0000E+00 -0.9509E+11
   -2.199941    4.00461  0.0000E+00  0.9512E-08  0.5910E-12  0.5227E-04  0.0000E+00 -0.1048E+12
   -2.268688    4.00497  0.0000E+00  0.9489E-08  0.6280E-12  0.4767E-04  0.0000E+00 -0.1175E+12
   -2.337435    4.00537  0.0000E+00  0.9427E-08  0.6777E-12  0.4224E-04  0.0000E+00 -0.1362E+12
   -2.406181    4.00582  0.0000E+00  0.9316E-08  0.7485E-12  0.3580E-04  0.0000E+00 -0.1659E+12
   -2.474927    4.00635  0.0000E+00  0.9128E-08  0.8590E-12  0.2825E-04  0.0000E+00 -0.2190E+12
   -2.543672    4.00704  0.0000E+00  0.8801E-08  0.1062E-11  0.1947E-04  0.0000E+00 -0.3377E+12
   -2.612417    4.00805  0.0000E+00  0.8121E-08  0.1578E-11  0.9619E-05  0.0000E+00 -0.7629E+12
   -2.681161    4.01019  0.0000E+00  0.5266E-08  0.5046E-11  0.9514E-06  0.0000E+00 -0.1201E+14
   -2.749904    4.03217  0.0000E+00  0.0000E+00  0.0000E+00  0.0000E+00  0.0000E+00  0.0000E+00
