 1 - depth, m
 2 - temperature, C
 3 - salinity, kg/kg
 4 - turbulent kinetic energy, m**2/s**2
 5 - dissipation rate, m**2/s**3
 6 - kinematic heat conductance, m**2/s
 7 - modulus of horizontal velocity, m/s
 8 - Richardson number, n/d
   -0.000000    1.36578  0.0000E+00  0.5070E-03  0.3925E-03  0.1166E-03  0.2349E+00  0.4247E-02
   -0.068734    1.41654  0.0000E+00  0.2822E-03  0.1105E-03  0.3942E-03  0.6785E-01  0.1768E-01
   -0.137469    1.42508  0.0000E+00  0.2088E-03  0.5489E-04  0.3479E-03  0.5335E-01  0.3761E+00
   -0.206204    1.43114  0.0000E+00  0.1595E-03  0.2960E-04  0.3329E-03  0.4545E-01  0.1451E-01
   -0.274940    1.43576  0.0000E+00  0.1264E-03  0.1686E-04  0.3189E-03  0.4020E-01  0.9793E-02
   -0.343676    1.43966  0.0000E+00  0.1016E-03  0.9565E-05  0.3153E-03  0.3552E-01  0.1105E-01
   -0.412413    1.44319  0.0000E+00  0.8352E-04  0.5511E-05  0.3188E-03  0.3139E-01  0.1493E-01
   -0.481150    1.44646  0.0000E+00  0.6999E-04  0.3244E-05  0.3225E-03  0.2780E-01  0.1883E-01
   -0.549888    1.44960  0.0000E+00  0.5954E-04  0.1985E-05  0.3287E-03  0.2464E-01  0.2631E-01
   -0.618626    1.45267  0.0000E+00  0.5134E-04  0.1279E-05  0.3324E-03  0.2194E-01  0.3491E-01
   -0.687365    1.45574  0.0000E+00  0.4478E-04  0.8689E-06  0.3338E-03  0.1960E-01  0.4802E-01
   -0.756104    1.45885  0.0000E+00  0.3939E-04  0.6194E-06  0.3331E-03  0.1758E-01  0.6703E-01
   -0.824843    1.46203  0.0000E+00  0.3488E-04  0.4588E-06  0.3302E-03  0.1581E-01  0.9634E-01
   -0.893582    1.46536  0.0000E+00  0.3102E-04  0.3498E-06  0.3255E-03  0.1425E-01  0.1457E+00
   -0.962322    1.46892  0.0000E+00  0.2770E-04  0.2729E-06  0.3195E-03  0.1288E-01  0.2479E+00
   -1.031062    1.47286  0.0000E+00  0.2485E-04  0.2173E-06  0.3082E-03  0.1167E-01  0.4007E+00
   -1.099802    1.47771  0.0000E+00  0.2235E-04  0.1757E-06  0.2954E-03  0.1056E-01  0.7985E+00
   -1.168542    1.48766  0.0000E+00  0.2012E-04  0.1438E-06  0.2817E-03  0.9498E-02  0.4451E+01
   -1.237283    1.51059  0.0000E+00  0.1813E-04  0.1190E-06  0.2670E-03  0.8503E-02  0.6070E+02
   -1.306023    1.53424  0.0000E+00  0.1633E-04  0.9921E-07  0.2506E-03  0.7592E-02  0.1003E+04
   -1.374764    1.55317  0.0000E+00  0.1467E-04  0.8322E-07  0.2325E-03  0.6754E-02  0.3807E+05
   -1.443504    1.57236  0.0000E+00  0.1312E-04  0.6993E-07  0.2116E-03  0.5967E-02  0.2254E+07
   -1.512244    1.59867  0.0000E+00  0.1163E-04  0.5852E-07  0.1927E-03  0.5198E-02  0.1617E+09
   -1.580985    1.63157  0.0000E+00  0.1020E-04  0.4868E-07  0.1730E-03  0.4514E-02  0.1741E+11
   -1.649725    1.66958  0.0000E+00  0.8848E-05  0.4022E-07  0.1513E-03  0.3916E-02  0.2602E+13
   -1.718465    1.72905  0.0000E+00  0.7571E-05  0.3295E-07  0.1284E-03  0.3364E-02  0.4037E+15
   -1.787205    1.83185  0.0000E+00  0.6359E-05  0.2664E-07  0.1053E-03  0.2850E-02  0.1491E+16
   -1.855945    2.01029  0.0000E+00  0.5192E-05  0.2095E-07  0.8399E-04  0.2342E-02  0.2296E+16
   -1.924684    2.38032  0.0000E+00  0.4209E-05  0.1601E-07  0.6492E-04  0.1799E-02  0.2373E+16
   -1.993424    2.82598  0.0000E+00  0.3369E-05  0.1215E-07  0.9204E-04  0.1428E-02  0.3533E+15
   -2.062163    3.03119  0.0000E+00  0.2602E-05  0.8927E-08  0.1071E-03  0.1099E-02 -0.1280E+13
   -2.130901    3.15740  0.0000E+00  0.1900E-05  0.6175E-08  0.9649E-04  0.7981E-03 -0.1384E+13
   -2.199639    3.31917  0.0000E+00  0.1263E-05  0.3876E-08  0.8940E-04  0.5200E-03 -0.1453E+13
   -2.268377    3.56640  0.0000E+00  0.7326E-06  0.2044E-08  0.8632E-04  0.2474E-03 -0.1556E+13
   -2.337114    3.78821  0.0000E+00  0.3258E-06  0.6930E-09  0.8726E-04  0.8346E-04 -0.1672E+13
   -2.405851    4.02021  0.0000E+00  0.2147E-06  0.3041E-09  0.8704E-04  0.7704E-05 -0.1841E+13
   -2.474588    4.07423  0.0000E+00  0.1828E-06  0.1921E-09  0.8414E-04  0.2224E-05 -0.2093E+13
   -2.543323    4.09542  0.0000E+00  0.1669E-06  0.1552E-09  0.7423E-04  0.6199E-06 -0.2584E+13
   -2.612059    4.11248  0.0000E+00  0.1530E-06  0.1636E-09  0.4362E-04  0.1576E-06 -0.5456E+13
   -2.680793    4.13035  0.0000E+00  0.9830E-07  0.3929E-09  0.4741E-05  0.3167E-07 -0.9589E+14
   -2.749527    4.20999  0.0000E+00  0.0000E+00  0.0000E+00  0.0000E+00  0.3331E-07  0.0000E+00
