 1 - depth, m
 2 - temperature, C
 3 - salinity, kg/kg
 4 - turbulent kinetic energy, m**2/s**2
 5 - dissipation rate, m**2/s**3
 6 - kinematic heat conductance, m**2/s
 7 - modulus of horizontal velocity, m/s
 8 - Richardson number, n/d
   -0.000000    0.00000  0.0000E+00  0.1219E-13  0.7603E-17  0.1000E-09  0.0000E+00  0.9404E+16
   -0.068763    0.14384  0.0000E+00  0.1219E-13  0.7603E-17  0.1000E-09  0.0000E+00  0.8887E+16
   -0.137527    0.28526  0.0000E+00  0.1219E-13  0.7603E-17  0.1000E-09  0.0000E+00  0.8366E+16
   -0.206291    0.42385  0.0000E+00  0.1219E-13  0.7603E-17  0.1000E-09  0.0000E+00  0.7845E+16
   -0.275055    0.55922  0.0000E+00  0.1219E-13  0.7603E-17  0.1000E-09  0.0000E+00  0.7357E+16
   -0.343821    0.69152  0.0000E+00  0.1219E-13  0.7603E-17  0.1000E-09  0.0000E+00  0.6883E+16
   -0.412587    0.82058  0.0000E+00  0.1219E-13  0.7603E-17  0.1000E-09  0.0000E+00  0.6421E+16
   -0.481353    0.94620  0.0000E+00  0.1219E-13  0.7603E-17  0.1000E-09  0.0000E+00  0.5971E+16
   -0.550120    1.06812  0.0000E+00  0.1219E-13  0.7603E-17  0.1000E-09  0.0000E+00  0.5523E+16
   -0.618887    1.18586  0.0000E+00  0.1219E-13  0.7603E-17  0.1000E-09  0.0000E+00  0.5095E+16
   -0.687655    1.29925  0.0000E+00  0.1219E-13  0.7603E-17  0.1000E-09  0.0000E+00  0.4741E+16
   -0.756422    1.40946  0.0000E+00  0.1219E-13  0.7603E-17  0.1000E-09  0.0000E+00  0.4434E+16
   -0.825191    1.51718  0.0000E+00  0.1219E-13  0.7603E-17  0.1000E-09  0.0000E+00  0.4140E+16
   -0.893959    1.62238  0.0000E+00  0.1219E-13  0.7603E-17  0.1000E-09  0.0000E+00  0.3859E+16
   -0.962728    1.72501  0.0000E+00  0.1219E-13  0.7603E-17  0.1000E-09  0.0000E+00  0.3589E+16
   -1.031497    1.82501  0.0000E+00  0.1219E-13  0.7603E-17  0.1000E-09  0.0000E+00  0.3337E+16
   -1.100266    1.92246  0.0000E+00  0.1219E-13  0.7603E-17  0.1000E-09  0.0000E+00  0.3096E+16
   -1.169035    2.01734  0.0000E+00  0.1219E-13  0.7603E-17  0.1000E-09  0.0000E+00  0.2866E+16
   -1.237805    2.10959  0.0000E+00  0.1219E-13  0.7603E-17  0.1000E-09  0.0000E+00  0.2646E+16
   -1.306574    2.19915  0.0000E+00  0.1219E-13  0.7603E-17  0.1000E-09  0.0000E+00  0.2438E+16
   -1.375343    2.28593  0.0000E+00  0.1219E-13  0.7603E-17  0.1000E-09  0.0000E+00  0.2270E+16
   -1.444113    2.37106  0.0000E+00  0.1219E-13  0.7603E-17  0.1000E-09  0.0000E+00  0.2119E+16
   -1.512882    2.45491  0.0000E+00  0.1219E-13  0.7603E-17  0.1000E-09  0.0000E+00  0.1977E+16
   -1.581652    2.53760  0.0000E+00  0.1219E-13  0.7603E-17  0.1000E-09  0.0000E+00  0.1840E+16
   -1.650421    2.61919  0.0000E+00  0.1219E-13  0.7603E-17  0.1000E-09  0.0000E+00  0.1708E+16
   -1.719190    2.69964  0.0000E+00  0.1219E-13  0.7603E-17  0.1000E-09  0.0000E+00  0.1580E+16
   -1.787959    2.77892  0.0000E+00  0.1219E-13  0.7603E-17  0.1000E-09  0.0000E+00  0.1455E+16
   -1.856728    2.85696  0.0000E+00  0.1219E-13  0.7603E-17  0.1000E-09  0.0000E+00  0.1335E+16
   -1.925496    2.93371  0.0000E+00  0.1219E-13  0.7603E-17  0.1000E-09  0.0000E+00  0.1218E+16
   -1.994264    3.00909  0.0000E+00  0.1219E-13  0.7603E-17  0.1000E-09  0.0000E+00  0.1105E+16
   -2.063032    3.08299  0.0000E+00  0.1219E-13  0.7603E-17  0.1000E-09  0.0000E+00  0.1018E+16
   -2.131800    3.15698  0.0000E+00  0.1219E-13  0.7603E-17  0.1000E-09  0.0000E+00  0.9353E+15
   -2.200567    3.23141  0.0000E+00  0.1219E-13  0.7603E-17  0.1000E-09  0.0000E+00  0.8528E+15
   -2.269334    3.30644  0.0000E+00  0.1219E-13  0.7603E-17  0.1000E-09  0.0000E+00  0.7824E+15
   -2.338100    3.38353  0.0000E+00  0.1219E-13  0.7604E-17  0.1000E-09  0.0000E+00  0.7152E+15
   -2.406866    3.46396  0.0000E+00  0.2581E-13  0.1633E-16  0.1000E-09  0.0000E+00  0.6457E+15
   -2.475631    3.54923  0.0000E+00  0.1541E-12  0.9401E-16  0.1000E-09  0.0000E+00  0.5716E+15
   -2.544396    3.64205  0.0000E+00  0.9864E-12  0.5806E-15  0.1000E-09  0.0000E+00  0.4913E+15
   -2.613160    3.74951  0.0000E+00  0.6517E-11  0.3706E-14  0.1000E-09  0.0000E+00  0.3649E+15
   -2.681924    3.88827  0.0000E+00  0.4770E-10  0.2637E-13  0.3085E-07  0.0000E+00 -0.7896E+13
   -2.750687    4.08947  0.0000E+00  0.0000E+00  0.0000E+00  0.0000E+00  0.0000E+00  0.0000E+00
