 1 - depth, m
 2 - temperature, C
 3 - salinity, kg/kg
 4 - turbulent kinetic energy, m**2/s**2
 5 - dissipation rate, m**2/s**3
 6 - kinematic heat conductance, m**2/s
 7 - modulus of horizontal velocity, m/s
 8 - Richardson number, n/d
   -0.000000    0.00000  0.0000E+00  0.1219E-13  0.7603E-17  0.1000E-09  0.0000E+00  0.1169E+17
   -0.068744    0.17967  0.0000E+00  0.1219E-13  0.7603E-17  0.1000E-09  0.0000E+00  0.1140E+17
   -0.137489    0.36408  0.0000E+00  0.1219E-13  0.7603E-17  0.1000E-09  0.0000E+00  0.1092E+17
   -0.206234    0.55062  0.0000E+00  0.1219E-13  0.7603E-17  0.1000E-09  0.0000E+00  0.1034E+17
   -0.274980    0.73758  0.0000E+00  0.1776E-13  0.7603E-17  0.1000E-09  0.0000E+00  0.9725E+16
   -0.343726    0.92450  0.0000E+00  0.7111E-13  0.7688E-17  0.1000E-09  0.0000E+00  0.9088E+16
   -0.412473    1.11075  0.0000E+00  0.1737E-12  0.1195E-16  0.1000E-09  0.0000E+00  0.8437E+16
   -0.481221    1.29577  0.0000E+00  0.3530E-12  0.2110E-16  0.1000E-09  0.0000E+00  0.7779E+16
   -0.549969    1.47900  0.0000E+00  0.6682E-12  0.3777E-16  0.1000E-09  0.0000E+00  0.7112E+16
   -0.618717    1.65966  0.0000E+00  0.1226E-11  0.6712E-16  0.1000E-09  0.0000E+00  0.6457E+16
   -0.687465    1.83733  0.0000E+00  0.2213E-11  0.1182E-15  0.1000E-09  0.0000E+00  0.5837E+16
   -0.756214    2.01219  0.0000E+00  0.3952E-11  0.2064E-15  0.1000E-09  0.0000E+00  0.5246E+16
   -0.824964    2.18429  0.0000E+00  0.6995E-11  0.3576E-15  0.1000E-09  0.0000E+00  0.4674E+16
   -0.893713    2.35329  0.0000E+00  0.1228E-10  0.6149E-15  0.1000E-09  0.0000E+00  0.4122E+16
   -0.962463    2.51888  0.0000E+00  0.2140E-10  0.1050E-14  0.1000E-09  0.0000E+00  0.3594E+16
   -1.031213    2.68073  0.0000E+00  0.3698E-10  0.1776E-14  0.1000E-09  0.0000E+00  0.3101E+16
   -1.099963    2.83902  0.0000E+00  0.6335E-10  0.2982E-14  0.1000E-09  0.0000E+00  0.2635E+16
   -1.168714    2.99354  0.0000E+00  0.1077E-09  0.4968E-14  0.1000E-09  0.0000E+00  0.2196E+16
   -1.237464    3.14410  0.0000E+00  0.1818E-09  0.8221E-14  0.1000E-09  0.0000E+00  0.1786E+16
   -1.306215    3.29055  0.0000E+00  0.3049E-09  0.1352E-13  0.1000E-09  0.0000E+00  0.1405E+16
   -1.374965    3.43271  0.0000E+00  0.5080E-09  0.2209E-13  0.1177E-09  0.0000E+00  0.1068E+16
   -1.443716    3.57257  0.0000E+00  0.8416E-09  0.3590E-13  0.2454E-09  0.0000E+00  0.7498E+15
   -1.512466    3.71067  0.0000E+00  0.1388E-08  0.5812E-13  0.6755E-09  0.0000E+00  0.4416E+15
   -1.581217    3.84583  0.0000E+00  0.2285E-08  0.9399E-13  0.3310E-08  0.0000E+00  0.1502E+15
   -1.649967    3.97164  0.0000E+00  0.2836E-08  0.1170E-12  0.1015E-04  0.0000E+00  0.5175E+13
   -1.718717    3.99050  0.0000E+00  0.3048E-08  0.1271E-12  0.2180E-04  0.0000E+00 -0.4166E+11
   -1.787467    3.99122  0.0000E+00  0.3197E-08  0.1357E-12  0.2401E-04  0.0000E+00 -0.4655E+11
   -1.856217    3.99186  0.0000E+00  0.3336E-08  0.1450E-12  0.2552E-04  0.0000E+00 -0.5043E+11
   -1.924967    3.99246  0.0000E+00  0.3465E-08  0.1554E-12  0.2636E-04  0.0000E+00 -0.5458E+11
   -1.993716    3.99303  0.0000E+00  0.3583E-08  0.1670E-12  0.2659E-04  0.0000E+00 -0.5942E+11
   -2.062465    3.99360  0.0000E+00  0.3692E-08  0.1800E-12  0.2658E-04  0.0000E+00 -0.6571E+11
   -2.131214    3.99417  0.0000E+00  0.3787E-08  0.1950E-12  0.2609E-04  0.0000E+00 -0.7367E+11
   -2.199962    3.99477  0.0000E+00  0.3868E-08  0.2123E-12  0.2508E-04  0.0000E+00 -0.8401E+11
   -2.268710    3.99539  0.0000E+00  0.3931E-08  0.2333E-12  0.2349E-04  0.0000E+00 -0.9809E+11
   -2.337457    3.99607  0.0000E+00  0.3974E-08  0.2604E-12  0.2122E-04  0.0000E+00 -0.1190E+12
   -2.406204    3.99682  0.0000E+00  0.3988E-08  0.2980E-12  0.1821E-04  0.0000E+00 -0.1527E+12
   -2.474951    3.99772  0.0000E+00  0.3959E-08  0.3551E-12  0.1444E-04  0.0000E+00 -0.2152E+12
   -2.543697    3.99887  0.0000E+00  0.3852E-08  0.4590E-12  0.9833E-05  0.0000E+00 -0.3641E+12
   -2.612442    4.00061  0.0000E+00  0.3549E-08  0.7235E-12  0.4636E-05  0.0000E+00 -0.9697E+12
   -2.681187    4.00443  0.0000E+00  0.2440E-08  0.2178E-11  0.5868E-06  0.0000E+00 -0.1489E+14
   -2.749931    4.03352  0.0000E+00  0.0000E+00  0.0000E+00  0.0000E+00  0.0000E+00  0.0000E+00
