 1 - depth, m
 2 - temperature, C
 3 - salinity, kg/kg
 4 - turbulent kinetic energy, m**2/s**2
 5 - dissipation rate, m**2/s**3
 6 - kinematic heat conductance, m**2/s
 7 - modulus of horizontal velocity, m/s
 8 - Richardson number, n/d
   -0.000000    1.10037  0.0000E+00  0.1375E-03  0.5249E-04  0.9721E-04  0.1134E+00  0.1507E-01
   -0.068748    1.15216  0.0000E+00  0.7223E-04  0.1338E-04  0.1247E-03  0.4265E-01  0.3492E-01
   -0.137496    1.16214  0.0000E+00  0.4994E-04  0.5085E-05  0.1161E-03  0.3261E-01  0.8388E-02
   -0.206245    1.16958  0.0000E+00  0.3601E-04  0.1907E-05  0.1206E-03  0.2655E-01  0.1305E-01
   -0.274994    1.17592  0.0000E+00  0.2775E-04  0.8609E-06  0.1276E-03  0.2217E-01  0.1668E-01
   -0.343744    1.18158  0.0000E+00  0.2242E-04  0.4574E-06  0.1354E-03  0.1858E-01  0.2110E-01
   -0.412495    1.18663  0.0000E+00  0.1865E-04  0.2736E-06  0.1417E-03  0.1565E-01  0.2699E-01
   -0.481246    1.19117  0.0000E+00  0.1572E-04  0.1769E-06  0.1448E-03  0.1323E-01  0.3510E-01
   -0.549997    1.19534  0.0000E+00  0.1322E-04  0.1196E-06  0.1454E-03  0.1120E-01  0.4919E-01
   -0.618749    1.19924  0.0000E+00  0.1108E-04  0.8333E-07  0.1415E-03  0.9526E-02  0.6796E-01
   -0.687501    1.20299  0.0000E+00  0.9229E-05  0.5914E-07  0.1339E-03  0.8113E-02  0.9367E-01
   -0.756254    1.20668  0.0000E+00  0.7613E-05  0.4235E-07  0.1232E-03  0.6906E-02  0.1302E+00
   -0.825006    1.21041  0.0000E+00  0.6196E-05  0.3034E-07  0.1099E-03  0.5867E-02  0.1852E+00
   -0.893760    1.21425  0.0000E+00  0.4954E-05  0.2159E-07  0.9480E-04  0.4969E-02  0.2765E+00
   -0.962513    1.21832  0.0000E+00  0.3879E-05  0.1519E-07  0.7891E-04  0.4195E-02  0.4789E+00
   -1.031267    1.22275  0.0000E+00  0.2974E-05  0.1060E-07  0.6101E-04  0.3543E-02  0.6420E+00
   -1.100020    1.22795  0.0000E+00  0.2202E-05  0.7223E-08  0.4372E-04  0.2947E-02  0.9508E+00
   -1.168774    1.23460  0.0000E+00  0.1542E-05  0.4729E-08  0.2780E-04  0.2398E-02  0.1694E+01
   -1.237528    1.24502  0.0000E+00  0.9689E-06  0.2847E-08  0.1419E-04  0.1883E-02  0.5603E+01
   -1.306282    1.28815  0.0000E+00  0.5110E-06  0.1470E-08  0.4733E-05  0.1310E-02  0.6265E+02
   -1.375036    1.38760  0.0000E+00  0.1453E-06  0.4296E-09  0.1574E-06  0.7861E-03  0.1107E+04
   -1.443791    1.60270  0.0000E+00  0.1090E-07  0.3345E-10  0.1206E-07  0.1900E-03  0.3030E+05
   -1.512545    1.84922  0.0000E+00  0.5543E-09  0.2238E-11  0.1384E-08  0.2503E-04  0.1417E+07
   -1.581299    1.99367  0.0000E+00  0.5832E-11  0.1000E-11  0.1088E-09  0.2804E-05  0.8390E+08
   -1.650053    2.07902  0.0000E+00  0.4419E-11  0.1000E-11  0.1000E-09  0.3009E-06  0.5945E+10
   -1.718806    2.14004  0.0000E+00  0.4419E-11  0.1000E-11  0.1000E-09  0.3108E-07  0.4901E+12
   -1.787560    2.19092  0.0000E+00  0.4419E-11  0.1000E-11  0.1000E-09  0.3083E-08  0.4402E+14
   -1.856313    2.23569  0.0000E+00  0.4419E-11  0.1000E-11  0.1000E-09  0.2931E-09  0.4029E+15
   -1.925066    2.27347  0.0000E+00  0.4419E-11  0.1000E-11  0.1000E-09  0.2662E-10  0.5114E+15
   -1.993819    2.30094  0.0000E+00  0.4419E-11  0.1000E-11  0.1000E-09  0.2302E-11  0.3774E+15
   -2.062572    2.31529  0.0000E+00  0.4419E-11  0.1000E-11  0.1000E-09  0.1889E-12  0.1284E+16
   -2.131324    2.36475  0.0000E+00  0.4419E-11  0.1000E-11  0.1000E-09  0.1465E-13  0.2637E+16
   -2.200076    2.47129  0.0000E+00  0.4419E-11  0.1000E-11  0.1000E-09  0.1067E-14  0.4127E+16
   -2.268827    2.65535  0.0000E+00  0.4419E-11  0.1000E-11  0.1000E-09  0.5446E-16  0.4582E+16
   -2.337578    2.89805  0.0000E+00  0.4419E-11  0.1000E-11  0.1000E-09  0.2325E-17  0.4438E+16
   -2.406329    3.20515  0.0000E+00  0.4419E-11  0.1000E-11  0.1000E-09  0.8670E-19  0.3507E+16
   -2.475079    3.58425  0.0000E+00  0.4419E-11  0.1000E-11  0.1000E-09  0.2714E-20  0.1088E+16
   -2.543828    4.06665  0.0000E+00  0.4419E-11  0.1000E-11  0.1000E-09  0.6384E-22 -0.4258E+16
   -2.612577    4.69686  0.0000E+00  0.4419E-11  0.1000E-11  0.1000E-09  0.1129E-23 -0.1167E+17
   -2.681325    5.40811  0.0000E+00  0.4419E-11  0.1000E-11  0.1000E-09  0.1325E-25 -0.6377E+16
   -2.750073    5.67152  0.0000E+00  0.0000E+00  0.0000E+00  0.0000E+00  0.1317E-25  0.0000E+00
