 1 - depth, m
 2 - temperature, C
 3 - salinity, kg/kg
 4 - turbulent kinetic energy, m**2/s**2
 5 - dissipation rate, m**2/s**3
 6 - kinematic heat conductance, m**2/s
 7 - modulus of horizontal velocity, m/s
 8 - Richardson number, n/d
   -0.000000    0.00000  0.0000E+00  0.1219E-13  0.7603E-17  0.1000E-09  0.0000E+00  0.1452E+17
   -0.068738    0.22463  0.0000E+00  0.1219E-13  0.7603E-17  0.1000E-09  0.0000E+00  0.1283E+17
   -0.137476    0.43565  0.0000E+00  0.1219E-13  0.7603E-17  0.1000E-09  0.0000E+00  0.1120E+17
   -0.206215    0.63143  0.0000E+00  0.1219E-13  0.7603E-17  0.1000E-09  0.0000E+00  0.9663E+16
   -0.274954    0.81058  0.0000E+00  0.1219E-13  0.7603E-17  0.1000E-09  0.0000E+00  0.8387E+16
   -0.343694    0.97518  0.0000E+00  0.1219E-13  0.7603E-17  0.1000E-09  0.0000E+00  0.7249E+16
   -0.412435    1.12546  0.0000E+00  0.1219E-13  0.7603E-17  0.1000E-09  0.0000E+00  0.6235E+16
   -0.481176    1.26169  0.0000E+00  0.1219E-13  0.7603E-17  0.1000E-09  0.0000E+00  0.5330E+16
   -0.549917    1.38407  0.0000E+00  0.1219E-13  0.7603E-17  0.1000E-09  0.0000E+00  0.4483E+16
   -0.618659    1.49185  0.0000E+00  0.1219E-13  0.7603E-17  0.1000E-09  0.0000E+00  0.3774E+16
   -0.687401    1.58649  0.0000E+00  0.1219E-13  0.7603E-17  0.1000E-09  0.0000E+00  0.3401E+16
   -0.756144    1.67523  0.0000E+00  0.4222E-13  0.7971E-17  0.1000E-09  0.0000E+00  0.3255E+16
   -0.824887    1.76362  0.0000E+00  0.1240E-12  0.1739E-16  0.1000E-09  0.0000E+00  0.3192E+16
   -0.893630    1.85399  0.0000E+00  0.3189E-12  0.4160E-16  0.1000E-09  0.0000E+00  0.3194E+16
   -0.962373    1.94855  0.0000E+00  0.7848E-12  0.9882E-16  0.1000E-09  0.0000E+00  0.3236E+16
   -1.031117    2.04925  0.0000E+00  0.1892E-11  0.2315E-15  0.1000E-09  0.0000E+00  0.3324E+16
   -1.099861    2.15864  0.0000E+00  0.4500E-11  0.5359E-15  0.1000E-09  0.0000E+00  0.3397E+16
   -1.168604    2.27788  0.0000E+00  0.1059E-10  0.1227E-14  0.1000E-09  0.0000E+00  0.3427E+16
   -1.237348    2.40752  0.0000E+00  0.2465E-10  0.2783E-14  0.1000E-09  0.0000E+00  0.3391E+16
   -1.306093    2.54758  0.0000E+00  0.5682E-10  0.6251E-14  0.1000E-09  0.0000E+00  0.3276E+16
   -1.374837    2.69760  0.0000E+00  0.1297E-09  0.1391E-13  0.1000E-09  0.0000E+00  0.3136E+16
   -1.443581    2.86022  0.0000E+00  0.2935E-09  0.3068E-13  0.1000E-09  0.0000E+00  0.2901E+16
   -1.512325    3.03563  0.0000E+00  0.6588E-09  0.6714E-13  0.1338E-09  0.0000E+00  0.2554E+16
   -1.581069    3.22335  0.0000E+00  0.1473E-08  0.1464E-12  0.3565E-09  0.0000E+00  0.2091E+16
   -1.649813    3.42243  0.0000E+00  0.3268E-08  0.3170E-12  0.1066E-08  0.0000E+00  0.1514E+16
   -1.718557    3.63119  0.0000E+00  0.7179E-08  0.6799E-12  0.4145E-08  0.0000E+00  0.8355E+15
   -1.787300    3.84526  0.0000E+00  0.1526E-07  0.1415E-11  0.4848E-07  0.0000E+00  0.1491E+15
   -1.856044    4.01639  0.0000E+00  0.1629E-07  0.1517E-11  0.6877E-04  0.0000E+00 -0.1960E+12
   -1.924787    4.01681  0.0000E+00  0.1675E-07  0.1572E-11  0.6749E-04  0.0000E+00 -0.2389E+12
   -1.993530    4.01730  0.0000E+00  0.1713E-07  0.1630E-11  0.6954E-04  0.0000E+00 -0.2502E+12
   -2.062272    4.01781  0.0000E+00  0.1744E-07  0.1694E-11  0.6942E-04  0.0000E+00 -0.2586E+12
   -2.131014    4.01833  0.0000E+00  0.1770E-07  0.1770E-11  0.6791E-04  0.0000E+00 -0.2710E+12
   -2.199756    4.01887  0.0000E+00  0.1789E-07  0.1861E-11  0.6488E-04  0.0000E+00 -0.2910E+12
   -2.268498    4.01944  0.0000E+00  0.1802E-07  0.1977E-11  0.5944E-04  0.0000E+00 -0.3267E+12
   -2.337239    4.02006  0.0000E+00  0.1806E-07  0.2131E-11  0.5308E-04  0.0000E+00 -0.3782E+12
   -2.405979    4.02077  0.0000E+00  0.1800E-07  0.2347E-11  0.4589E-04  0.0000E+00 -0.4554E+12
   -2.474719    4.02160  0.0000E+00  0.1779E-07  0.2677E-11  0.3730E-04  0.0000E+00 -0.5900E+12
   -2.543459    4.02265  0.0000E+00  0.1732E-07  0.3272E-11  0.2684E-04  0.0000E+00 -0.8864E+12
   -2.612197    4.02418  0.0000E+00  0.1624E-07  0.4734E-11  0.1432E-04  0.0000E+00 -0.1910E+13
   -2.680936    4.02727  0.0000E+00  0.1138E-07  0.1446E-10  0.1746E-05  0.0000E+00 -0.2630E+14
   -2.749673    4.05729  0.0000E+00  0.0000E+00  0.0000E+00  0.0000E+00  0.0000E+00  0.0000E+00
