 1 - depth, m
 2 - temperature, C
 3 - salinity, kg/kg
 4 - turbulent kinetic energy, m**2/s**2
 5 - dissipation rate, m**2/s**3
 6 - kinematic heat conductance, m**2/s
 7 - modulus of horizontal velocity, m/s
 8 - Richardson number, n/d
   -0.000000    0.00000  0.0000E+00  0.1219E-13  0.7603E-17  0.1000E-09  0.0000E+00  0.1302E+17
   -0.068731    0.20066  0.0000E+00  0.1219E-13  0.7603E-17  0.1000E-09  0.0000E+00  0.1088E+17
   -0.137462    0.37750  0.0000E+00  0.1219E-13  0.7603E-17  0.1000E-09  0.0000E+00  0.9446E+16
   -0.206194    0.53886  0.0000E+00  0.1219E-13  0.7603E-17  0.1000E-09  0.0000E+00  0.8425E+16
   -0.274926    0.68986  0.0000E+00  0.1219E-13  0.7603E-17  0.1000E-09  0.0000E+00  0.7845E+16
   -0.343660    0.83731  0.0000E+00  0.1219E-13  0.7603E-17  0.1000E-09  0.0000E+00  0.7423E+16
   -0.412393    0.98388  0.0000E+00  0.1219E-13  0.7603E-17  0.1000E-09  0.0000E+00  0.7074E+16
   -0.481127    1.13090  0.0000E+00  0.1219E-13  0.7603E-17  0.1000E-09  0.0000E+00  0.6737E+16
   -0.549862    1.27872  0.0000E+00  0.1219E-13  0.7603E-17  0.1000E-09  0.0000E+00  0.6340E+16
   -0.618597    1.42596  0.0000E+00  0.1219E-13  0.7603E-17  0.1000E-09  0.0000E+00  0.5952E+16
   -0.687332    1.57272  0.0000E+00  0.1251E-13  0.7603E-17  0.1000E-09  0.0000E+00  0.5563E+16
   -0.756068    1.71884  0.0000E+00  0.4302E-13  0.9219E-17  0.1000E-09  0.0000E+00  0.5170E+16
   -0.824804    1.86398  0.0000E+00  0.1351E-12  0.2149E-16  0.1000E-09  0.0000E+00  0.4770E+16
   -0.893540    2.00769  0.0000E+00  0.3719E-12  0.5539E-16  0.1000E-09  0.0000E+00  0.4365E+16
   -0.962276    2.14932  0.0000E+00  0.9824E-12  0.1420E-15  0.1000E-09  0.0000E+00  0.3953E+16
   -1.031013    2.28809  0.0000E+00  0.2550E-11  0.3596E-15  0.1000E-09  0.0000E+00  0.3605E+16
   -1.099750    2.42571  0.0000E+00  0.6543E-11  0.9018E-15  0.1000E-09  0.0000E+00  0.3256E+16
   -1.168487    2.56171  0.0000E+00  0.1665E-10  0.2243E-14  0.1000E-09  0.0000E+00  0.2911E+16
   -1.237224    2.69563  0.0000E+00  0.4202E-10  0.5536E-14  0.1000E-09  0.0000E+00  0.2575E+16
   -1.305961    2.82721  0.0000E+00  0.1053E-09  0.1357E-13  0.1000E-09  0.0000E+00  0.2255E+16
   -1.374698    2.95648  0.0000E+00  0.2619E-09  0.3302E-13  0.1096E-09  0.0000E+00  0.2011E+16
   -1.443436    3.08761  0.0000E+00  0.6469E-09  0.7982E-13  0.2245E-09  0.0000E+00  0.1803E+16
   -1.512173    3.22445  0.0000E+00  0.1590E-08  0.1920E-12  0.6053E-09  0.0000E+00  0.1590E+16
   -1.580910    3.37044  0.0000E+00  0.3900E-08  0.4614E-12  0.1658E-08  0.0000E+00  0.1387E+16
   -1.649647    3.53609  0.0000E+00  0.9494E-08  0.1101E-11  0.5094E-08  0.0000E+00  0.1099E+16
   -1.718384    3.74210  0.0000E+00  0.2209E-07  0.2519E-11  0.5567E-07  0.0000E+00  0.4582E+15
   -1.787121    3.96898  0.0000E+00  0.2715E-07  0.3067E-11  0.6264E-04  0.0000E+00  0.3651E+14
   -1.855857    4.02684  0.0000E+00  0.2805E-07  0.3186E-11  0.9365E-04  0.0000E+00 -0.3409E+12
   -1.924593    4.02738  0.0000E+00  0.2865E-07  0.3290E-11  0.9471E-04  0.0000E+00 -0.3639E+12
   -1.993329    4.02795  0.0000E+00  0.2917E-07  0.3405E-11  0.9637E-04  0.0000E+00 -0.3742E+12
   -2.062065    4.02853  0.0000E+00  0.2959E-07  0.3531E-11  0.9654E-04  0.0000E+00 -0.3862E+12
   -2.130800    4.02912  0.0000E+00  0.2992E-07  0.3671E-11  0.9549E-04  0.0000E+00 -0.4026E+12
   -2.199535    4.02972  0.0000E+00  0.3016E-07  0.3833E-11  0.9310E-04  0.0000E+00 -0.4258E+12
   -2.268270    4.03035  0.0000E+00  0.3031E-07  0.4029E-11  0.8929E-04  0.0000E+00 -0.4571E+12
   -2.337004    4.03101  0.0000E+00  0.3035E-07  0.4291E-11  0.8303E-04  0.0000E+00 -0.5068E+12
   -2.405737    4.03174  0.0000E+00  0.3024E-07  0.4679E-11  0.7165E-04  0.0000E+00 -0.6079E+12
   -2.474470    4.03259  0.0000E+00  0.2990E-07  0.5294E-11  0.5617E-04  0.0000E+00 -0.8050E+12
   -2.543203    4.03370  0.0000E+00  0.2914E-07  0.6398E-11  0.3993E-04  0.0000E+00 -0.1189E+13
   -2.611935    4.03529  0.0000E+00  0.2740E-07  0.9070E-11  0.2127E-04  0.0000E+00 -0.2411E+13
   -2.680666    4.03835  0.0000E+00  0.1839E-07  0.2887E-10  0.2106E-05  0.0000E+00 -0.3350E+14
   -2.749397    4.06987  0.0000E+00  0.0000E+00  0.0000E+00  0.0000E+00  0.0000E+00  0.0000E+00
