 1 - depth, m
 2 - temperature, C
 3 - salinity, kg/kg
 4 - turbulent kinetic energy, m**2/s**2
 5 - dissipation rate, m**2/s**3
 6 - kinematic heat conductance, m**2/s
 7 - modulus of horizontal velocity, m/s
 8 - Richardson number, n/d
   -0.000000    0.00000  0.0000E+00  0.1705E-12  0.2575E-16  0.1000E-09  0.0000E+00  0.1584E+17
   -0.068758    0.24572  0.0000E+00  0.3347E-12  0.3055E-16  0.1000E-09  0.0000E+00  0.1453E+17
   -0.137516    0.48734  0.0000E+00  0.6979E-12  0.5209E-16  0.1000E-09  0.0000E+00  0.1329E+17
   -0.206276    0.72488  0.0000E+00  0.1403E-11  0.9731E-16  0.1000E-09  0.0000E+00  0.1210E+17
   -0.275035    0.95835  0.0000E+00  0.2744E-11  0.1836E-15  0.1000E-09  0.0000E+00  0.1100E+17
   -0.343796    1.18821  0.0000E+00  0.5277E-11  0.3443E-15  0.1000E-09  0.0000E+00  0.9938E+16
   -0.412556    1.41446  0.0000E+00  0.1005E-10  0.6411E-15  0.1000E-09  0.0000E+00  0.8924E+16
   -0.481318    1.63696  0.0000E+00  0.1898E-10  0.1186E-14  0.1000E-09  0.0000E+00  0.7948E+16
   -0.550079    1.85545  0.0000E+00  0.3568E-10  0.2182E-14  0.1000E-09  0.0000E+00  0.7007E+16
   -0.618842    2.06938  0.0000E+00  0.6670E-10  0.3996E-14  0.1000E-09  0.0000E+00  0.6112E+16
   -0.687604    2.27852  0.0000E+00  0.1240E-09  0.7276E-14  0.1000E-09  0.0000E+00  0.5311E+16
   -0.756367    2.48443  0.0000E+00  0.2291E-09  0.1317E-13  0.1000E-09  0.0000E+00  0.4567E+16
   -0.825130    2.68805  0.0000E+00  0.4209E-09  0.2372E-13  0.1000E-09  0.0000E+00  0.3848E+16
   -0.893894    2.88925  0.0000E+00  0.7691E-09  0.4250E-13  0.1000E-09  0.0000E+00  0.3154E+16
   -0.962657    3.08789  0.0000E+00  0.1398E-08  0.7572E-13  0.1549E-09  0.0000E+00  0.2487E+16
   -1.031421    3.28373  0.0000E+00  0.2523E-08  0.1340E-12  0.3693E-09  0.0000E+00  0.1848E+16
   -1.100185    3.47639  0.0000E+00  0.4523E-08  0.2357E-12  0.9698E-09  0.0000E+00  0.1237E+16
   -1.168950    3.66518  0.0000E+00  0.8053E-08  0.4117E-12  0.3175E-08  0.0000E+00  0.6601E+15
   -1.237714    3.84786  0.0000E+00  0.1410E-07  0.7085E-12  0.2440E-07  0.0000E+00  0.1479E+15
   -1.306478    4.00414  0.0000E+00  0.1445E-07  0.7271E-12  0.1051E-03  0.0000E+00 -0.5407E+11
   -1.375243    4.00433  0.0000E+00  0.1462E-07  0.7374E-12  0.1041E-03  0.0000E+00 -0.6711E+11
   -1.444007    4.00457  0.0000E+00  0.1477E-07  0.7486E-12  0.1065E-03  0.0000E+00 -0.6815E+11
   -1.512772    4.00481  0.0000E+00  0.1490E-07  0.7605E-12  0.1090E-03  0.0000E+00 -0.6805E+11
   -1.581536    4.00504  0.0000E+00  0.1501E-07  0.7734E-12  0.1115E-03  0.0000E+00 -0.6778E+11
   -1.650300    4.00527  0.0000E+00  0.1511E-07  0.7872E-12  0.1119E-03  0.0000E+00 -0.6856E+11
   -1.719064    4.00550  0.0000E+00  0.1519E-07  0.8022E-12  0.1113E-03  0.0000E+00 -0.6999E+11
   -1.787828    4.00573  0.0000E+00  0.1526E-07  0.8188E-12  0.1101E-03  0.0000E+00 -0.7185E+11
   -1.856592    4.00596  0.0000E+00  0.1531E-07  0.8374E-12  0.1085E-03  0.0000E+00 -0.7405E+11
   -1.925355    4.00620  0.0000E+00  0.1535E-07  0.8583E-12  0.1066E-03  0.0000E+00 -0.7666E+11
   -1.994118    4.00645  0.0000E+00  0.1538E-07  0.8822E-12  0.1041E-03  0.0000E+00 -0.7981E+11
   -2.062881    4.00670  0.0000E+00  0.1538E-07  0.9116E-12  0.1011E-03  0.0000E+00 -0.8333E+11
   -2.131644    4.00696  0.0000E+00  0.1537E-07  0.9499E-12  0.9496E-04  0.0000E+00 -0.8991E+11
   -2.200406    4.00723  0.0000E+00  0.1532E-07  0.9995E-12  0.8237E-04  0.0000E+00 -0.1052E+12
   -2.269168    4.00755  0.0000E+00  0.1524E-07  0.1063E-11  0.7100E-04  0.0000E+00 -0.1243E+12
   -2.337929    4.00792  0.0000E+00  0.1511E-07  0.1151E-11  0.6106E-04  0.0000E+00 -0.1478E+12
   -2.406690    4.00836  0.0000E+00  0.1491E-07  0.1276E-11  0.5103E-04  0.0000E+00 -0.1817E+12
   -2.475450    4.00888  0.0000E+00  0.1461E-07  0.1470E-11  0.3992E-04  0.0000E+00 -0.2405E+12
   -2.544210    4.00955  0.0000E+00  0.1412E-07  0.1826E-11  0.2741E-04  0.0000E+00 -0.3687E+12
   -2.612969    4.01054  0.0000E+00  0.1313E-07  0.2719E-11  0.1373E-04  0.0000E+00 -0.8077E+12
   -2.681728    4.01258  0.0000E+00  0.8751E-08  0.9081E-11  0.1370E-05  0.0000E+00 -0.1206E+14
   -2.750485    4.03354  0.0000E+00  0.0000E+00  0.0000E+00  0.0000E+00  0.0000E+00  0.0000E+00
