 1 - depth, m
 2 - temperature, C
 3 - salinity, kg/kg
 4 - turbulent kinetic energy, m**2/s**2
 5 - dissipation rate, m**2/s**3
 6 - kinematic heat conductance, m**2/s
 7 - modulus of horizontal velocity, m/s
 8 - Richardson number, n/d
   -0.000000    0.00000  0.0000E+00  0.1219E-13  0.7604E-17  0.1000E-09  0.0000E+00  0.1537E+17
   -0.068742    0.23818  0.0000E+00  0.5846E-13  0.8122E-17  0.1000E-09  0.0000E+00  0.1394E+17
   -0.137485    0.46898  0.0000E+00  0.1576E-12  0.1544E-16  0.1000E-09  0.0000E+00  0.1263E+17
   -0.206229    0.69294  0.0000E+00  0.3574E-12  0.3192E-16  0.1000E-09  0.0000E+00  0.1143E+17
   -0.274973    0.91057  0.0000E+00  0.7644E-12  0.6568E-16  0.1000E-09  0.0000E+00  0.1038E+17
   -0.343717    1.12325  0.0000E+00  0.1595E-11  0.1334E-15  0.1000E-09  0.0000E+00  0.9415E+16
   -0.412463    1.33160  0.0000E+00  0.3288E-11  0.2685E-15  0.1000E-09  0.0000E+00  0.8518E+16
   -0.481208    1.53602  0.0000E+00  0.6715E-11  0.5360E-15  0.1000E-09  0.0000E+00  0.7673E+16
   -0.549954    1.73671  0.0000E+00  0.1363E-10  0.1064E-14  0.1000E-09  0.0000E+00  0.6862E+16
   -0.618701    1.93341  0.0000E+00  0.2749E-10  0.2098E-14  0.1000E-09  0.0000E+00  0.6100E+16
   -0.687448    2.12628  0.0000E+00  0.5507E-10  0.4109E-14  0.1000E-09  0.0000E+00  0.5459E+16
   -0.756195    2.31835  0.0000E+00  0.1095E-09  0.7997E-14  0.1000E-09  0.0000E+00  0.4876E+16
   -0.824942    2.51154  0.0000E+00  0.2165E-09  0.1546E-13  0.1000E-09  0.0000E+00  0.4290E+16
   -0.893690    2.70602  0.0000E+00  0.4250E-09  0.2971E-13  0.1000E-09  0.0000E+00  0.3697E+16
   -0.962438    2.90192  0.0000E+00  0.8291E-09  0.5674E-13  0.1000E-09  0.0000E+00  0.3096E+16
   -1.031187    3.09934  0.0000E+00  0.1605E-08  0.1076E-12  0.2206E-09  0.0000E+00  0.2482E+16
   -1.099935    3.29801  0.0000E+00  0.3084E-08  0.2024E-12  0.5543E-09  0.0000E+00  0.1858E+16
   -1.168684    3.49772  0.0000E+00  0.5882E-08  0.3781E-12  0.1571E-08  0.0000E+00  0.1225E+16
   -1.237432    3.69777  0.0000E+00  0.1112E-07  0.7007E-12  0.6078E-08  0.0000E+00  0.5872E+15
   -1.306181    3.89397  0.0000E+00  0.1994E-07  0.1238E-11  0.1047E-06  0.0000E+00  0.6102E+14
   -1.374930    4.01405  0.0000E+00  0.2045E-07  0.1272E-11  0.1207E-03  0.0000E+00 -0.9489E+11
   -1.443678    4.01426  0.0000E+00  0.2068E-07  0.1290E-11  0.1210E-03  0.0000E+00 -0.1044E+12
   -1.512427    4.01450  0.0000E+00  0.2088E-07  0.1310E-11  0.1243E-03  0.0000E+00 -0.1043E+12
   -1.581176    4.01474  0.0000E+00  0.2106E-07  0.1331E-11  0.1267E-03  0.0000E+00 -0.1042E+12
   -1.649924    4.01497  0.0000E+00  0.2122E-07  0.1354E-11  0.1268E-03  0.0000E+00 -0.1055E+12
   -1.718673    4.01520  0.0000E+00  0.2135E-07  0.1379E-11  0.1261E-03  0.0000E+00 -0.1075E+12
   -1.787421    4.01544  0.0000E+00  0.2146E-07  0.1407E-11  0.1249E-03  0.0000E+00 -0.1101E+12
   -1.856169    4.01568  0.0000E+00  0.2155E-07  0.1438E-11  0.1233E-03  0.0000E+00 -0.1131E+12
   -1.924917    4.01593  0.0000E+00  0.2162E-07  0.1474E-11  0.1213E-03  0.0000E+00 -0.1168E+12
   -1.993665    4.01618  0.0000E+00  0.2166E-07  0.1514E-11  0.1188E-03  0.0000E+00 -0.1213E+12
   -2.062412    4.01644  0.0000E+00  0.2168E-07  0.1560E-11  0.1156E-03  0.0000E+00 -0.1260E+12
   -2.131159    4.01670  0.0000E+00  0.2167E-07  0.1614E-11  0.1119E-03  0.0000E+00 -0.1316E+12
   -2.199905    4.01698  0.0000E+00  0.2162E-07  0.1682E-11  0.1074E-03  0.0000E+00 -0.1387E+12
   -2.268651    4.01726  0.0000E+00  0.2152E-07  0.1779E-11  0.9342E-04  0.0000E+00 -0.1616E+12
   -2.337397    4.01760  0.0000E+00  0.2135E-07  0.1917E-11  0.7667E-04  0.0000E+00 -0.2003E+12
   -2.406142    4.01800  0.0000E+00  0.2109E-07  0.2117E-11  0.6260E-04  0.0000E+00 -0.2506E+12
   -2.474887    4.01850  0.0000E+00  0.2068E-07  0.2430E-11  0.4896E-04  0.0000E+00 -0.3298E+12
   -2.543631    4.01915  0.0000E+00  0.2002E-07  0.2998E-11  0.3389E-04  0.0000E+00 -0.4979E+12
   -2.612374    4.02010  0.0000E+00  0.1869E-07  0.4411E-11  0.1728E-04  0.0000E+00 -0.1059E+13
   -2.681117    4.02205  0.0000E+00  0.1236E-07  0.1495E-10  0.1637E-05  0.0000E+00 -0.1578E+14
   -2.749859    4.04370  0.0000E+00  0.0000E+00  0.0000E+00  0.0000E+00  0.0000E+00  0.0000E+00
