 1 - depth, m
 2 - temperature, C
 3 - salinity, kg/kg
 4 - turbulent kinetic energy, m**2/s**2
 5 - dissipation rate, m**2/s**3
 6 - kinematic heat conductance, m**2/s
 7 - modulus of horizontal velocity, m/s
 8 - Richardson number, n/d
   -0.000000    0.00000  0.0000E+00  0.1219E-13  0.7603E-17  0.1000E-09  0.0000E+00  0.1378E+17
   -0.068765    0.21270  0.0000E+00  0.1219E-13  0.7603E-17  0.1000E-09  0.0000E+00  0.1286E+17
   -0.137530    0.42348  0.0000E+00  0.1219E-13  0.7603E-17  0.1000E-09  0.0000E+00  0.1194E+17
   -0.206297    0.63185  0.0000E+00  0.1755E-13  0.7603E-17  0.1000E-09  0.0000E+00  0.1104E+17
   -0.275063    0.83735  0.0000E+00  0.7150E-13  0.8204E-17  0.1000E-09  0.0000E+00  0.1017E+17
   -0.343831    1.04012  0.0000E+00  0.1786E-12  0.1445E-16  0.1000E-09  0.0000E+00  0.9328E+16
   -0.412599    1.23992  0.0000E+00  0.3794E-12  0.2775E-16  0.1000E-09  0.0000E+00  0.8509E+16
   -0.481367    1.43644  0.0000E+00  0.7603E-12  0.5334E-16  0.1000E-09  0.0000E+00  0.7712E+16
   -0.550136    1.62933  0.0000E+00  0.1490E-11  0.1018E-15  0.1000E-09  0.0000E+00  0.6934E+16
   -0.618905    1.81796  0.0000E+00  0.2886E-11  0.1928E-15  0.1000E-09  0.0000E+00  0.6191E+16
   -0.687674    2.00206  0.0000E+00  0.5549E-11  0.3629E-15  0.1000E-09  0.0000E+00  0.5524E+16
   -0.756444    2.18269  0.0000E+00  0.1060E-10  0.6788E-15  0.1000E-09  0.0000E+00  0.4907E+16
   -0.825215    2.36042  0.0000E+00  0.2012E-10  0.1263E-14  0.1000E-09  0.0000E+00  0.4312E+16
   -0.893985    2.53499  0.0000E+00  0.3797E-10  0.2335E-14  0.1000E-09  0.0000E+00  0.3740E+16
   -0.962756    2.70604  0.0000E+00  0.7126E-10  0.4295E-14  0.1000E-09  0.0000E+00  0.3192E+16
   -1.031527    2.87310  0.0000E+00  0.1328E-09  0.7850E-14  0.1000E-09  0.0000E+00  0.2674E+16
   -1.100298    3.03585  0.0000E+00  0.2460E-09  0.1425E-13  0.1000E-09  0.0000E+00  0.2186E+16
   -1.169069    3.19374  0.0000E+00  0.4528E-09  0.2573E-13  0.1000E-09  0.0000E+00  0.1731E+16
   -1.237840    3.34627  0.0000E+00  0.8290E-09  0.4619E-13  0.1789E-09  0.0000E+00  0.1315E+16
   -1.306612    3.49303  0.0000E+00  0.1510E-08  0.8251E-13  0.4474E-09  0.0000E+00  0.9388E+15
   -1.375383    3.63378  0.0000E+00  0.2733E-08  0.1466E-12  0.1224E-08  0.0000E+00  0.6094E+15
   -1.444155    3.76989  0.0000E+00  0.4915E-08  0.2587E-12  0.4247E-08  0.0000E+00  0.3101E+15
   -1.512926    3.90056  0.0000E+00  0.8642E-08  0.4475E-12  0.4114E-07  0.0000E+00  0.5537E+14
   -1.581697    4.00338  0.0000E+00  0.9036E-08  0.4691E-12  0.6947E-04  0.0000E+00 -0.6329E+11
   -1.650469    4.00362  0.0000E+00  0.9213E-08  0.4805E-12  0.6707E-04  0.0000E+00 -0.7412E+11
   -1.719240    4.00389  0.0000E+00  0.9365E-08  0.4925E-12  0.6796E-04  0.0000E+00 -0.7595E+11
   -1.788011    4.00416  0.0000E+00  0.9500E-08  0.5058E-12  0.6831E-04  0.0000E+00 -0.7742E+11
   -1.856781    4.00444  0.0000E+00  0.9620E-08  0.5207E-12  0.6790E-04  0.0000E+00 -0.7950E+11
   -1.925552    4.00472  0.0000E+00  0.9722E-08  0.5377E-12  0.6663E-04  0.0000E+00 -0.8264E+11
   -1.994322    4.00500  0.0000E+00  0.9806E-08  0.5575E-12  0.6444E-04  0.0000E+00 -0.8718E+11
   -2.063092    4.00530  0.0000E+00  0.9870E-08  0.5807E-12  0.6106E-04  0.0000E+00 -0.9380E+11
   -2.131862    4.00561  0.0000E+00  0.9910E-08  0.6084E-12  0.5691E-04  0.0000E+00 -0.1027E+12
   -2.200631    4.00594  0.0000E+00  0.9924E-08  0.6418E-12  0.5258E-04  0.0000E+00 -0.1136E+12
   -2.269400    4.00631  0.0000E+00  0.9907E-08  0.6837E-12  0.4792E-04  0.0000E+00 -0.1280E+12
   -2.338168    4.00672  0.0000E+00  0.9852E-08  0.7400E-12  0.4246E-04  0.0000E+00 -0.1492E+12
   -2.406936    4.00718  0.0000E+00  0.9744E-08  0.8203E-12  0.3599E-04  0.0000E+00 -0.1829E+12
   -2.475703    4.00773  0.0000E+00  0.9559E-08  0.9457E-12  0.2842E-04  0.0000E+00 -0.2437E+12
   -2.544470    4.00844  0.0000E+00  0.9231E-08  0.1176E-11  0.1965E-04  0.0000E+00 -0.3811E+12
   -2.613236    4.00952  0.0000E+00  0.8542E-08  0.1761E-11  0.9790E-05  0.0000E+00 -0.8825E+12
   -2.682002    4.01183  0.0000E+00  0.5675E-08  0.5633E-11  0.1042E-05  0.0000E+00 -0.1432E+14
   -2.750767    4.03611  0.0000E+00  0.0000E+00  0.0000E+00  0.0000E+00  0.0000E+00  0.0000E+00
