 1 - depth, m
 2 - temperature, C
 3 - salinity, kg/kg
 4 - turbulent kinetic energy, m**2/s**2
 5 - dissipation rate, m**2/s**3
 6 - kinematic heat conductance, m**2/s
 7 - modulus of horizontal velocity, m/s
 8 - Richardson number, n/d
   -0.000000    0.00000  0.0000E+00  0.1218E-13  0.7602E-17  0.1000E-09  0.0000E+00  0.1494E+17
   -0.068742    0.23233  0.0000E+00  0.1218E-13  0.7602E-17  0.1000E-09  0.0000E+00  0.1037E+17
   -0.137484    0.40260  0.0000E+00  0.1218E-13  0.7602E-17  0.1000E-09  0.0000E+00  0.8452E+16
   -0.206227    0.54750  0.0000E+00  0.1218E-13  0.7602E-17  0.1000E-09  0.0000E+00  0.7050E+16
   -0.274970    0.67336  0.0000E+00  0.1218E-13  0.7602E-17  0.1000E-09  0.0000E+00  0.6545E+16
   -0.343714    0.79501  0.0000E+00  0.1218E-13  0.7602E-17  0.1000E-09  0.0000E+00  0.6229E+16
   -0.412458    0.91559  0.0000E+00  0.1218E-13  0.7602E-17  0.1000E-09  0.0000E+00  0.6040E+16
   -0.481203    1.03752  0.0000E+00  0.1218E-13  0.7602E-17  0.1000E-09  0.0000E+00  0.5916E+16
   -0.549949    1.16235  0.0000E+00  0.1218E-13  0.7602E-17  0.1000E-09  0.0000E+00  0.5589E+16
   -0.618695    1.28580  0.0000E+00  0.1218E-13  0.7602E-17  0.1000E-09  0.0000E+00  0.5348E+16
   -0.687441    1.40973  0.0000E+00  0.1218E-13  0.7602E-17  0.1000E-09  0.0000E+00  0.5101E+16
   -0.756187    1.53403  0.0000E+00  0.1218E-13  0.7602E-17  0.1000E-09  0.0000E+00  0.4838E+16
   -0.824934    1.65831  0.0000E+00  0.1218E-13  0.7602E-17  0.1000E-09  0.0000E+00  0.4563E+16
   -0.893681    1.78222  0.0000E+00  0.1218E-13  0.7602E-17  0.1000E-09  0.0000E+00  0.4254E+16
   -0.962429    1.90461  0.0000E+00  0.1282E-13  0.7856E-17  0.1000E-09  0.0000E+00  0.3860E+16
   -1.031176    2.02244  0.0000E+00  0.2129E-13  0.1185E-16  0.1000E-09  0.0000E+00  0.3694E+16
   -1.099924    2.14256  0.0000E+00  0.9245E-13  0.3976E-16  0.1000E-09  0.0000E+00  0.3473E+16
   -1.168672    2.26336  0.0000E+00  0.4982E-12  0.2047E-15  0.1000E-09  0.0000E+00  0.3222E+16
   -1.237420    2.38380  0.0000E+00  0.2667E-11  0.1093E-14  0.1000E-09  0.0000E+00  0.2954E+16
   -1.306168    2.50300  0.0000E+00  0.1423E-10  0.5767E-14  0.1032E-09  0.0000E+00  0.2659E+16
   -1.374916    2.61938  0.0000E+00  0.7456E-10  0.2959E-13  0.1445E-09  0.0000E+00  0.2483E+16
   -1.443664    2.73811  0.0000E+00  0.3785E-09  0.1461E-12  0.3638E-09  0.0000E+00  0.2383E+16
   -1.512412    2.86416  0.0000E+00  0.1837E-08  0.6865E-12  0.1498E-08  0.0000E+00  0.2129E+16
   -1.581160    2.99065  0.0000E+00  0.8288E-08  0.3002E-11  0.5196E-08  0.0000E+00  0.1954E+16
   -1.649908    3.12624  0.0000E+00  0.3215E-07  0.1139E-10  0.2222E-07  0.0000E+00  0.1812E+16
   -1.718656    3.30928  0.0000E+00  0.5722E-07  0.2021E-10  0.2158E-04  0.0000E+00  0.1425E+16
   -1.787403    3.48436  0.0000E+00  0.7699E-07  0.2711E-10  0.4879E-04  0.0000E+00  0.1133E+16
   -1.856151    3.64423  0.0000E+00  0.9254E-07  0.3210E-10  0.6838E-04  0.0000E+00  0.9313E+15
   -1.924898    3.81103  0.0000E+00  0.1073E-06  0.3566E-10  0.8255E-04  0.0000E+00  0.5135E+15
   -1.993645    4.01866  0.0000E+00  0.1137E-06  0.3763E-10  0.1206E-03  0.0000E+00  0.3049E+14
   -2.062391    4.06462  0.0000E+00  0.1164E-06  0.3920E-10  0.1381E-03  0.0000E+00 -0.1919E+13
   -2.131138    4.06596  0.0000E+00  0.1184E-06  0.4094E-10  0.1379E-03  0.0000E+00 -0.2053E+13
   -2.199883    4.06736  0.0000E+00  0.1199E-06  0.4294E-10  0.1364E-03  0.0000E+00 -0.2197E+13
   -2.268629    4.06882  0.0000E+00  0.1210E-06  0.4532E-10  0.1325E-03  0.0000E+00 -0.2363E+13
   -2.337374    4.07036  0.0000E+00  0.1216E-06  0.4833E-10  0.1267E-03  0.0000E+00 -0.2566E+13
   -2.406118    4.07200  0.0000E+00  0.1217E-06  0.5233E-10  0.1168E-03  0.0000E+00 -0.2884E+13
   -2.474862    4.07382  0.0000E+00  0.1210E-06  0.5803E-10  0.1021E-03  0.0000E+00 -0.3443E+13
   -2.543606    4.07599  0.0000E+00  0.1190E-06  0.6749E-10  0.8229E-04  0.0000E+00 -0.4445E+13
   -2.612348    4.07880  0.0000E+00  0.1138E-06  0.9084E-10  0.4506E-04  0.0000E+00 -0.8595E+13
   -2.681091    4.08402  0.0000E+00  0.7485E-07  0.3148E-09  0.3818E-05  0.0000E+00 -0.1397E+15
   -2.749832    4.14299  0.0000E+00  0.0000E+00  0.0000E+00  0.0000E+00  0.0000E+00  0.0000E+00
