 1 - depth, m
 2 - temperature, C
 3 - salinity, kg/kg
 4 - turbulent kinetic energy, m**2/s**2
 5 - dissipation rate, m**2/s**3
 6 - kinematic heat conductance, m**2/s
 7 - modulus of horizontal velocity, m/s
 8 - Richardson number, n/d
   -0.000000    0.00000  0.0000E+00  0.1219E-13  0.7603E-17  0.1000E-09  0.0000E+00  0.1302E+17
   -0.068770    0.20065  0.0000E+00  0.1219E-13  0.7603E-17  0.1000E-09  0.0000E+00  0.1223E+17
   -0.137540    0.40012  0.0000E+00  0.1219E-13  0.7603E-17  0.1000E-09  0.0000E+00  0.1144E+17
   -0.206311    0.59790  0.0000E+00  0.1219E-13  0.7603E-17  0.1000E-09  0.0000E+00  0.1064E+17
   -0.275083    0.79352  0.0000E+00  0.1669E-13  0.7603E-17  0.1000E-09  0.0000E+00  0.9865E+16
   -0.343855    0.98696  0.0000E+00  0.6987E-13  0.7796E-17  0.1000E-09  0.0000E+00  0.9105E+16
   -0.412628    1.17792  0.0000E+00  0.1739E-12  0.1322E-16  0.1000E-09  0.0000E+00  0.8360E+16
   -0.481401    1.36610  0.0000E+00  0.3645E-12  0.2473E-16  0.1000E-09  0.0000E+00  0.7633E+16
   -0.550175    1.55117  0.0000E+00  0.7180E-12  0.4651E-16  0.1000E-09  0.0000E+00  0.6920E+16
   -0.618949    1.73261  0.0000E+00  0.1378E-11  0.8676E-16  0.1000E-09  0.0000E+00  0.6233E+16
   -0.687724    1.91012  0.0000E+00  0.2610E-11  0.1605E-15  0.1000E-09  0.0000E+00  0.5602E+16
   -0.756498    2.08426  0.0000E+00  0.4901E-11  0.2949E-15  0.1000E-09  0.0000E+00  0.5010E+16
   -0.825274    2.25527  0.0000E+00  0.9139E-11  0.5383E-15  0.1000E-09  0.0000E+00  0.4441E+16
   -0.894049    2.42291  0.0000E+00  0.1693E-10  0.9766E-15  0.1000E-09  0.0000E+00  0.3897E+16
   -0.962825    2.58691  0.0000E+00  0.3117E-10  0.1761E-14  0.1000E-09  0.0000E+00  0.3379E+16
   -1.031600    2.74701  0.0000E+00  0.5699E-10  0.3154E-14  0.1000E-09  0.0000E+00  0.2894E+16
   -1.100376    2.90319  0.0000E+00  0.1034E-09  0.5609E-14  0.1000E-09  0.0000E+00  0.2437E+16
   -1.169153    3.05523  0.0000E+00  0.1866E-09  0.9915E-14  0.1000E-09  0.0000E+00  0.2011E+16
   -1.237929    3.20295  0.0000E+00  0.3347E-09  0.1743E-13  0.1000E-09  0.0000E+00  0.1615E+16
   -1.306705    3.34619  0.0000E+00  0.5968E-09  0.3046E-13  0.1240E-09  0.0000E+00  0.1251E+16
   -1.375482    3.48479  0.0000E+00  0.1058E-08  0.5294E-13  0.2910E-09  0.0000E+00  0.9262E+15
   -1.444258    3.62013  0.0000E+00  0.1865E-08  0.9152E-13  0.7454E-09  0.0000E+00  0.6252E+15
   -1.513034    3.75254  0.0000E+00  0.3272E-08  0.1574E-12  0.2341E-08  0.0000E+00  0.3425E+15
   -1.581811    3.88124  0.0000E+00  0.5692E-08  0.2689E-12  0.1601E-07  0.0000E+00  0.8569E+14
   -1.650587    3.99692  0.0000E+00  0.6043E-08  0.2863E-12  0.4857E-04  0.0000E+00 -0.5509E+11
   -1.719363    3.99725  0.0000E+00  0.6205E-08  0.2959E-12  0.4854E-04  0.0000E+00 -0.6303E+11
   -1.788139    3.99761  0.0000E+00  0.6348E-08  0.3062E-12  0.4883E-04  0.0000E+00 -0.6525E+11
   -1.856914    3.99797  0.0000E+00  0.6473E-08  0.3173E-12  0.4861E-04  0.0000E+00 -0.6753E+11
   -1.925690    3.99834  0.0000E+00  0.6581E-08  0.3297E-12  0.4787E-04  0.0000E+00 -0.7039E+11
   -1.994465    3.99871  0.0000E+00  0.6670E-08  0.3435E-12  0.4663E-04  0.0000E+00 -0.7407E+11
   -2.063240    3.99908  0.0000E+00  0.6742E-08  0.3594E-12  0.4500E-04  0.0000E+00 -0.7897E+11
   -2.132014    3.99947  0.0000E+00  0.6793E-08  0.3779E-12  0.4285E-04  0.0000E+00 -0.8541E+11
   -2.200788    3.99988  0.0000E+00  0.6823E-08  0.3999E-12  0.4014E-04  0.0000E+00 -0.9400E+11
   -2.269562    4.00032  0.0000E+00  0.6829E-08  0.4273E-12  0.3687E-04  0.0000E+00 -0.1060E+12
   -2.338335    4.00079  0.0000E+00  0.6804E-08  0.4640E-12  0.3280E-04  0.0000E+00 -0.1240E+12
   -2.407108    4.00133  0.0000E+00  0.6739E-08  0.5161E-12  0.2786E-04  0.0000E+00 -0.1530E+12
   -2.475880    4.00196  0.0000E+00  0.6613E-08  0.5972E-12  0.2198E-04  0.0000E+00 -0.2058E+12
   -2.544652    4.00278  0.0000E+00  0.6376E-08  0.7472E-12  0.1507E-04  0.0000E+00 -0.3276E+12
   -2.613423    4.00401  0.0000E+00  0.5858E-08  0.1132E-11  0.7300E-05  0.0000E+00 -0.7907E+12
   -2.682193    4.00666  0.0000E+00  0.3837E-08  0.3556E-11  0.7817E-06  0.0000E+00 -0.1328E+14
   -2.750963    4.03225  0.0000E+00  0.0000E+00  0.0000E+00  0.0000E+00  0.0000E+00  0.0000E+00
