 1 - depth, m
 2 - temperature, C
 3 - salinity, kg/kg
 4 - turbulent kinetic energy, m**2/s**2
 5 - dissipation rate, m**2/s**3
 6 - kinematic heat conductance, m**2/s
 7 - modulus of horizontal velocity, m/s
 8 - Richardson number, n/d
   -0.000000    0.00000  0.0000E+00  0.1218E-13  0.7603E-17  0.1000E-09  0.0000E+00  0.3608E+17
   -0.068742    0.58817  0.0000E+00  0.1218E-13  0.7603E-17  0.1000E-09  0.0000E+00  0.1822E+17
   -0.137484    0.93269  0.0000E+00  0.1218E-13  0.7603E-17  0.1000E-09  0.0000E+00  0.9253E+16
   -0.206227    1.12527  0.0000E+00  0.1218E-13  0.7603E-17  0.1000E-09  0.0000E+00  0.4627E+16
   -0.274971    1.22645  0.0000E+00  0.1218E-13  0.7603E-17  0.1000E-09  0.0000E+00  0.3518E+16
   -0.343715    1.30504  0.0000E+00  0.1218E-13  0.7603E-17  0.1000E-09  0.0000E+00  0.3463E+16
   -0.412460    1.38438  0.0000E+00  0.1279E-13  0.7768E-17  0.1000E-09  0.0000E+00  0.3775E+16
   -0.481205    1.47397  0.0000E+00  0.2329E-13  0.1230E-16  0.1000E-09  0.0000E+00  0.4111E+16
   -0.549951    1.57572  0.0000E+00  0.8828E-13  0.4021E-16  0.1000E-09  0.0000E+00  0.3901E+16
   -0.618697    1.67671  0.0000E+00  0.4424E-12  0.1874E-15  0.1000E-09  0.0000E+00  0.3783E+16
   -0.687443    1.77921  0.0000E+00  0.2299E-11  0.9316E-15  0.1000E-09  0.0000E+00  0.3667E+16
   -0.756190    1.88358  0.0000E+00  0.1177E-10  0.4595E-14  0.1003E-09  0.0000E+00  0.3515E+16
   -0.824937    1.98901  0.0000E+00  0.5868E-10  0.2214E-13  0.1185E-09  0.0000E+00  0.3313E+16
   -0.893685    2.09396  0.0000E+00  0.2833E-09  0.1034E-12  0.2718E-09  0.0000E+00  0.3025E+16
   -0.962432    2.19531  0.0000E+00  0.1315E-08  0.4640E-12  0.1070E-08  0.0000E+00  0.2619E+16
   -1.031180    2.28819  0.0000E+00  0.5766E-08  0.1969E-11  0.3326E-08  0.0000E+00  0.2824E+16
   -1.099928    2.39522  0.0000E+00  0.2363E-07  0.7821E-11  0.7445E-08  0.0000E+00  0.3404E+16
   -1.168676    2.54160  0.0000E+00  0.8832E-07  0.2842E-10  0.2116E-07  0.0000E+00  0.4195E+16
   -1.237425    2.81576  0.0000E+00  0.1767E-06  0.5608E-10  0.5340E-04  0.0000E+00  0.3690E+16
   -1.306173    3.13156  0.0000E+00  0.2576E-06  0.8168E-10  0.1494E-03  0.0000E+00  0.2936E+16
   -1.374921    3.41173  0.0000E+00  0.3307E-06  0.1052E-09  0.2385E-03  0.0000E+00  0.2382E+16
   -1.443670    3.66549  0.0000E+00  0.3950E-06  0.1266E-09  0.3142E-03  0.0000E+00  0.1787E+16
   -1.512418    3.88354  0.0000E+00  0.4476E-06  0.1446E-09  0.3850E-03  0.0000E+00  0.1093E+16
   -1.581166    4.04974  0.0000E+00  0.4854E-06  0.1583E-09  0.4386E-03  0.0000E+00  0.4597E+15
   -1.649914    4.15558  0.0000E+00  0.4974E-06  0.1637E-09  0.4833E-03  0.0000E+00  0.2762E+14
   -1.718662    4.17585  0.0000E+00  0.5012E-06  0.1670E-09  0.4931E-03  0.0000E+00 -0.3139E+13
   -1.787410    4.17695  0.0000E+00  0.5044E-06  0.1706E-09  0.4897E-03  0.0000E+00 -0.3264E+13
   -1.856158    4.17808  0.0000E+00  0.5070E-06  0.1747E-09  0.4832E-03  0.0000E+00 -0.3382E+13
   -1.924905    4.17923  0.0000E+00  0.5090E-06  0.1795E-09  0.4745E-03  0.0000E+00 -0.3532E+13
   -1.993652    4.18043  0.0000E+00  0.5104E-06  0.1849E-09  0.4637E-03  0.0000E+00 -0.3709E+13
   -2.062399    4.18167  0.0000E+00  0.5112E-06  0.1913E-09  0.4506E-03  0.0000E+00 -0.3876E+13
   -2.131145    4.18296  0.0000E+00  0.5111E-06  0.1987E-09  0.4351E-03  0.0000E+00 -0.4071E+13
   -2.199892    4.18429  0.0000E+00  0.5102E-06  0.2075E-09  0.4170E-03  0.0000E+00 -0.4310E+13
   -2.268637    4.18570  0.0000E+00  0.5084E-06  0.2184E-09  0.3959E-03  0.0000E+00 -0.4605E+13
   -2.337382    4.18718  0.0000E+00  0.5055E-06  0.2324E-09  0.3706E-03  0.0000E+00 -0.4990E+13
   -2.406127    4.18878  0.0000E+00  0.5011E-06  0.2514E-09  0.3404E-03  0.0000E+00 -0.5517E+13
   -2.474871    4.19053  0.0000E+00  0.4947E-06  0.2787E-09  0.3043E-03  0.0000E+00 -0.6286E+13
   -2.543615    4.19250  0.0000E+00  0.4851E-06  0.3235E-09  0.2591E-03  0.0000E+00 -0.7487E+13
   -2.612358    4.19483  0.0000E+00  0.4646E-06  0.4356E-09  0.1332E-03  0.0000E+00 -0.1471E+14
   -2.681101    4.19935  0.0000E+00  0.2925E-06  0.1733E-08  0.7631E-05  0.0000E+00 -0.3065E+15
   -2.749842    4.27748  0.0000E+00  0.0000E+00  0.0000E+00  0.0000E+00  0.0000E+00  0.0000E+00
