 1 - depth, m
 2 - temperature, C
 3 - salinity, kg/kg
 4 - turbulent kinetic energy, m**2/s**2
 5 - dissipation rate, m**2/s**3
 6 - kinematic heat conductance, m**2/s
 7 - modulus of horizontal velocity, m/s
 8 - Richardson number, n/d
   -0.000000    0.00000  0.0000E+00  0.3192E-13  0.7603E-17  0.1000E-09  0.0000E+00  0.1389E+17
   -0.068738    0.21454  0.0000E+00  0.8129E-13  0.7986E-17  0.1000E-09  0.0000E+00  0.1300E+17
   -0.137476    0.42780  0.0000E+00  0.1837E-12  0.1311E-16  0.1000E-09  0.0000E+00  0.1212E+17
   -0.206215    0.63963  0.0000E+00  0.3735E-12  0.2398E-16  0.1000E-09  0.0000E+00  0.1125E+17
   -0.274954    0.84985  0.0000E+00  0.7217E-12  0.4428E-16  0.1000E-09  0.0000E+00  0.1042E+17
   -0.343694    1.05879  0.0000E+00  0.1360E-11  0.8111E-16  0.1000E-09  0.0000E+00  0.9605E+16
   -0.412435    1.26623  0.0000E+00  0.2529E-11  0.1474E-15  0.1000E-09  0.0000E+00  0.8794E+16
   -0.481176    1.47184  0.0000E+00  0.4661E-11  0.2658E-15  0.1000E-09  0.0000E+00  0.7989E+16
   -0.549917    1.67514  0.0000E+00  0.8543E-11  0.4770E-15  0.1000E-09  0.0000E+00  0.7186E+16
   -0.618659    1.87535  0.0000E+00  0.1557E-10  0.8514E-15  0.1000E-09  0.0000E+00  0.6404E+16
   -0.687401    2.07202  0.0000E+00  0.2821E-10  0.1511E-14  0.1000E-09  0.0000E+00  0.5676E+16
   -0.756144    2.26567  0.0000E+00  0.5081E-10  0.2667E-14  0.1000E-09  0.0000E+00  0.4987E+16
   -0.824887    2.45651  0.0000E+00  0.9100E-10  0.4680E-14  0.1000E-09  0.0000E+00  0.4319E+16
   -0.893630    2.64417  0.0000E+00  0.1621E-09  0.8168E-14  0.1000E-09  0.0000E+00  0.3678E+16
   -0.962373    2.82830  0.0000E+00  0.2870E-09  0.1418E-13  0.1000E-09  0.0000E+00  0.3068E+16
   -1.031117    3.00861  0.0000E+00  0.5050E-09  0.2445E-13  0.1000E-09  0.0000E+00  0.2495E+16
   -1.099861    3.18518  0.0000E+00  0.8824E-09  0.4190E-13  0.1091E-09  0.0000E+00  0.1956E+16
   -1.168605    3.35785  0.0000E+00  0.1533E-08  0.7137E-13  0.2507E-09  0.0000E+00  0.1449E+16
   -1.237349    3.52641  0.0000E+00  0.2648E-08  0.1209E-12  0.6298E-09  0.0000E+00  0.9774E+15
   -1.306093    3.69056  0.0000E+00  0.4546E-08  0.2036E-12  0.1920E-08  0.0000E+00  0.5401E+15
   -1.374837    3.84933  0.0000E+00  0.7724E-08  0.3396E-12  0.1183E-07  0.0000E+00  0.1465E+15
   -1.443581    3.99588  0.0000E+00  0.8045E-08  0.3545E-12  0.6720E-04  0.0000E+00 -0.4304E+11
   -1.512325    3.99617  0.0000E+00  0.8194E-08  0.3626E-12  0.6630E-04  0.0000E+00 -0.5099E+11
   -1.581069    3.99649  0.0000E+00  0.8327E-08  0.3713E-12  0.6740E-04  0.0000E+00 -0.5284E+11
   -1.649813    3.99682  0.0000E+00  0.8448E-08  0.3807E-12  0.6811E-04  0.0000E+00 -0.5429E+11
   -1.718557    3.99714  0.0000E+00  0.8558E-08  0.3912E-12  0.6832E-04  0.0000E+00 -0.5593E+11
   -1.787301    3.99747  0.0000E+00  0.8656E-08  0.4030E-12  0.6794E-04  0.0000E+00 -0.5800E+11
   -1.856044    3.99780  0.0000E+00  0.8742E-08  0.4163E-12  0.6696E-04  0.0000E+00 -0.6065E+11
   -1.924787    3.99813  0.0000E+00  0.8815E-08  0.4313E-12  0.6524E-04  0.0000E+00 -0.6414E+11
   -1.993530    3.99847  0.0000E+00  0.8874E-08  0.4487E-12  0.6281E-04  0.0000E+00 -0.6871E+11
   -2.062273    3.99883  0.0000E+00  0.8917E-08  0.4689E-12  0.5939E-04  0.0000E+00 -0.7472E+11
   -2.131015    3.99920  0.0000E+00  0.8941E-08  0.4928E-12  0.5557E-04  0.0000E+00 -0.8220E+11
   -2.199757    3.99960  0.0000E+00  0.8943E-08  0.5216E-12  0.5145E-04  0.0000E+00 -0.9154E+11
   -2.268498    4.00004  0.0000E+00  0.8920E-08  0.5575E-12  0.4684E-04  0.0000E+00 -0.1040E+12
   -2.337239    4.00051  0.0000E+00  0.8864E-08  0.6057E-12  0.4138E-04  0.0000E+00 -0.1224E+12
   -2.405980    4.00105  0.0000E+00  0.8762E-08  0.6742E-12  0.3494E-04  0.0000E+00 -0.1515E+12
   -2.474720    4.00169  0.0000E+00  0.8590E-08  0.7808E-12  0.2743E-04  0.0000E+00 -0.2039E+12
   -2.543459    4.00252  0.0000E+00  0.8288E-08  0.9769E-12  0.1877E-04  0.0000E+00 -0.3221E+12
   -2.612198    4.00374  0.0000E+00  0.7650E-08  0.1476E-11  0.9166E-05  0.0000E+00 -0.7559E+12
   -2.680936    4.00632  0.0000E+00  0.5002E-08  0.4791E-11  0.9335E-06  0.0000E+00 -0.1282E+14
   -2.749674    4.03145  0.0000E+00  0.0000E+00  0.0000E+00  0.0000E+00  0.0000E+00  0.0000E+00
