 1 - depth, m
 2 - temperature, C
 3 - salinity, kg/kg
 4 - turbulent kinetic energy, m**2/s**2
 5 - dissipation rate, m**2/s**3
 6 - kinematic heat conductance, m**2/s
 7 - modulus of horizontal velocity, m/s
 8 - Richardson number, n/d
   -0.000000    0.00000  0.0000E+00  0.1219E-13  0.7604E-17  0.1000E-09  0.0000E+00  0.1377E+17
   -0.068729    0.21256  0.0000E+00  0.1219E-13  0.7604E-17  0.1000E-09  0.0000E+00  0.1238E+17
   -0.137459    0.41518  0.0000E+00  0.1219E-13  0.7604E-17  0.1000E-09  0.0000E+00  0.1110E+17
   -0.206189    0.60782  0.0000E+00  0.1219E-13  0.7604E-17  0.1000E-09  0.0000E+00  0.9914E+16
   -0.274920    0.79031  0.0000E+00  0.1219E-13  0.7604E-17  0.1000E-09  0.0000E+00  0.8946E+16
   -0.343651    0.96498  0.0000E+00  0.1219E-13  0.7604E-17  0.1000E-09  0.0000E+00  0.8074E+16
   -0.412383    1.13227  0.0000E+00  0.2120E-13  0.7604E-17  0.1000E-09  0.0000E+00  0.7277E+16
   -0.481115    1.29239  0.0000E+00  0.7851E-13  0.1069E-16  0.1000E-09  0.0000E+00  0.6536E+16
   -0.549848    1.44518  0.0000E+00  0.2046E-12  0.2250E-16  0.1000E-09  0.0000E+00  0.5810E+16
   -0.618581    1.58954  0.0000E+00  0.4759E-12  0.4926E-16  0.1000E-09  0.0000E+00  0.5161E+16
   -0.687315    1.72583  0.0000E+00  0.1066E-11  0.1069E-15  0.1000E-09  0.0000E+00  0.4733E+16
   -0.756049    1.85876  0.0000E+00  0.2347E-11  0.2297E-15  0.1000E-09  0.0000E+00  0.4436E+16
   -0.824783    1.99170  0.0000E+00  0.5121E-11  0.4895E-15  0.1000E-09  0.0000E+00  0.4170E+16
   -0.893518    2.12559  0.0000E+00  0.1108E-10  0.1035E-14  0.1000E-09  0.0000E+00  0.3927E+16
   -0.962252    2.26147  0.0000E+00  0.2380E-10  0.2173E-14  0.1000E-09  0.0000E+00  0.3701E+16
   -1.030987    2.40047  0.0000E+00  0.5067E-10  0.4525E-14  0.1000E-09  0.0000E+00  0.3502E+16
   -1.099722    2.54463  0.0000E+00  0.1070E-09  0.9348E-14  0.1000E-09  0.0000E+00  0.3297E+16
   -1.168458    2.69538  0.0000E+00  0.2244E-09  0.1918E-13  0.1000E-09  0.0000E+00  0.3072E+16
   -1.237193    2.85418  0.0000E+00  0.4673E-09  0.3909E-13  0.1000E-09  0.0000E+00  0.2809E+16
   -1.305929    3.02249  0.0000E+00  0.9669E-09  0.7917E-13  0.1622E-09  0.0000E+00  0.2486E+16
   -1.374664    3.20147  0.0000E+00  0.1987E-08  0.1594E-12  0.3869E-09  0.0000E+00  0.2099E+16
   -1.443400    3.39393  0.0000E+00  0.4058E-08  0.3187E-12  0.1021E-08  0.0000E+00  0.1592E+16
   -1.512135    3.59992  0.0000E+00  0.8235E-08  0.6337E-12  0.3421E-08  0.0000E+00  0.9470E+15
   -1.580870    3.81606  0.0000E+00  0.1645E-07  0.1242E-11  0.2878E-07  0.0000E+00  0.2236E+15
   -1.649606    4.01002  0.0000E+00  0.1720E-07  0.1303E-11  0.8182E-04  0.0000E+00 -0.1299E+12
   -1.718341    4.01037  0.0000E+00  0.1755E-07  0.1337E-11  0.8272E-04  0.0000E+00 -0.1534E+12
   -1.787076    4.01077  0.0000E+00  0.1787E-07  0.1375E-11  0.8555E-04  0.0000E+00 -0.1579E+12
   -1.855811    4.01118  0.0000E+00  0.1814E-07  0.1416E-11  0.8825E-04  0.0000E+00 -0.1613E+12
   -1.924545    4.01159  0.0000E+00  0.1838E-07  0.1461E-11  0.9072E-04  0.0000E+00 -0.1651E+12
   -1.993279    4.01201  0.0000E+00  0.1858E-07  0.1510E-11  0.9122E-04  0.0000E+00 -0.1728E+12
   -2.062013    4.01243  0.0000E+00  0.1874E-07  0.1564E-11  0.8972E-04  0.0000E+00 -0.1806E+12
   -2.130747    4.01287  0.0000E+00  0.1886E-07  0.1627E-11  0.8731E-04  0.0000E+00 -0.1901E+12
   -2.199480    4.01333  0.0000E+00  0.1894E-07  0.1708E-11  0.8339E-04  0.0000E+00 -0.2041E+12
   -2.268213    4.01380  0.0000E+00  0.1897E-07  0.1814E-11  0.7404E-04  0.0000E+00 -0.2361E+12
   -2.336945    4.01435  0.0000E+00  0.1893E-07  0.1957E-11  0.6352E-04  0.0000E+00 -0.2837E+12
   -2.405677    4.01499  0.0000E+00  0.1879E-07  0.2160E-11  0.5346E-04  0.0000E+00 -0.3494E+12
   -2.474409    4.01576  0.0000E+00  0.1851E-07  0.2473E-11  0.4268E-04  0.0000E+00 -0.4574E+12
   -2.543139    4.01674  0.0000E+00  0.1798E-07  0.3034E-11  0.3012E-04  0.0000E+00 -0.6892E+12
   -2.611870    4.01815  0.0000E+00  0.1683E-07  0.4414E-11  0.1565E-04  0.0000E+00 -0.1474E+13
   -2.680599    4.02098  0.0000E+00  0.1148E-07  0.1406E-10  0.1682E-05  0.0000E+00 -0.2110E+14
   -2.749328    4.04875  0.0000E+00  0.0000E+00  0.0000E+00  0.0000E+00  0.0000E+00  0.0000E+00
