 1 - depth, m
 2 - temperature, C
 3 - salinity, kg/kg
 4 - turbulent kinetic energy, m**2/s**2
 5 - dissipation rate, m**2/s**3
 6 - kinematic heat conductance, m**2/s
 7 - modulus of horizontal velocity, m/s
 8 - Richardson number, n/d
   -0.000000    8.56077  0.0000E+00  0.4842E-04  0.8755E-05  0.5105E-04  0.5352E-01 -0.1399E-01
   -0.068760    8.62106  0.0000E+00  0.2934E-04  0.1933E-05  0.7994E-04  0.2448E-01 -0.2804E-01
   -0.137521    8.64156  0.0000E+00  0.2271E-04  0.7439E-06  0.1105E-03  0.1782E-01 -0.4785E-01
   -0.206283    8.65575  0.0000E+00  0.1880E-04  0.3574E-06  0.1461E-03  0.1381E-01 -0.7975E-01
   -0.275045    8.66640  0.0000E+00  0.1643E-04  0.2047E-06  0.1854E-03  0.1112E-01 -0.1139E+00
   -0.343807    8.67468  0.0000E+00  0.1481E-04  0.1331E-06  0.2301E-03  0.9128E-02 -0.1548E+00
   -0.412570    8.68122  0.0000E+00  0.1359E-04  0.9419E-07  0.2881E-03  0.7621E-02 -0.1663E+00
   -0.481334    8.68638  0.0000E+00  0.1264E-04  0.7081E-07  0.4406E-03  0.6455E-02  0.4622E+03
   -0.550098    8.69014  0.0000E+00  0.1189E-04  0.5590E-07  0.6555E-03  0.5567E-02  0.3061E+03
   -0.618863    8.69279  0.0000E+00  0.1132E-04  0.4590E-07  0.8167E-03  0.4897E-02  0.2420E+02
   -0.687627    8.69475  0.0000E+00  0.1087E-04  0.3879E-07  0.9645E-03  0.4353E-02  0.6127E+02
   -0.756393    8.69625  0.0000E+00  0.1052E-04  0.3350E-07  0.1072E-02  0.3900E-02  0.3940E+02
   -0.825158    8.69748  0.0000E+00  0.1022E-04  0.2935E-07  0.1142E-02  0.3507E-02  0.1365E+02
   -0.893924    8.69860  0.0000E+00  0.9970E-05  0.2599E-07  0.1200E-02  0.3156E-02  0.3223E+02
   -0.962690    8.69963  0.0000E+00  0.9750E-05  0.2326E-07  0.1254E-02  0.2844E-02  0.2975E+01
   -1.031456    8.70061  0.0000E+00  0.9556E-05  0.2099E-07  0.1295E-02  0.2566E-02  0.2875E+01
   -1.100223    8.70153  0.0000E+00  0.9380E-05  0.1910E-07  0.1336E-02  0.2312E-02  0.2779E+01
   -1.168989    8.70240  0.0000E+00  0.9216E-05  0.1751E-07  0.1377E-02  0.2079E-02  0.2681E+01
   -1.237756    8.70324  0.0000E+00  0.9060E-05  0.1616E-07  0.1418E-02  0.1865E-02  0.2583E+01
   -1.306523    8.70403  0.0000E+00  0.8907E-05  0.1502E-07  0.1458E-02  0.1668E-02  0.2488E+01
   -1.375289    8.70478  0.0000E+00  0.8755E-05  0.1405E-07  0.1496E-02  0.1487E-02  0.2397E+01
   -1.444056    8.70551  0.0000E+00  0.8601E-05  0.1323E-07  0.1535E-02  0.1319E-02  0.2316E+01
   -1.512823    8.70619  0.0000E+00  0.8446E-05  0.1254E-07  0.1591E-02  0.1164E-02  0.2139E+01
   -1.581590    8.70685  0.0000E+00  0.8288E-05  0.1196E-07  0.1659E-02  0.1025E-02  0.1953E+01
   -1.650356    8.70746  0.0000E+00  0.8130E-05  0.1150E-07  0.1734E-02  0.9026E-03  0.1795E+01
   -1.719122    8.70804  0.0000E+00  0.7972E-05  0.1114E-07  0.1755E-02  0.7950E-03  0.1644E+01
   -1.787889    8.70860  0.0000E+00  0.7816E-05  0.1088E-07  0.1737E-02  0.7010E-03  0.1503E+01
   -1.856655    8.70916  0.0000E+00  0.7664E-05  0.1071E-07  0.1696E-02  0.6191E-03  0.1370E+01
   -1.925421    8.70971  0.0000E+00  0.7517E-05  0.1062E-07  0.1644E-02  0.5481E-03  0.1246E+01
   -1.994186    8.71028  0.0000E+00  0.7376E-05  0.1061E-07  0.1583E-02  0.4865E-03  0.1130E+01
   -2.062951    8.71085  0.0000E+00  0.7242E-05  0.1068E-07  0.1516E-02  0.4331E-03  0.1019E+01
   -2.131716    8.71144  0.0000E+00  0.7116E-05  0.1083E-07  0.1446E-02  0.3869E-03  0.9139E+00
   -2.200481    8.71204  0.0000E+00  0.6997E-05  0.1106E-07  0.1380E-02  0.3468E-03  0.8839E+00
   -2.269245    8.71266  0.0000E+00  0.6878E-05  0.1140E-07  0.1307E-02  0.3112E-03  0.1031E+01
   -2.338008    8.71330  0.0000E+00  0.6748E-05  0.1192E-07  0.1213E-02  0.2778E-03  0.1377E+01
   -2.406771    8.71398  0.0000E+00  0.6600E-05  0.1272E-07  0.1098E-02  0.2456E-03  0.2013E+01
   -2.475534    8.71471  0.0000E+00  0.6428E-05  0.1401E-07  0.9597E-03  0.2141E-03  0.3265E+01
   -2.544296    8.71553  0.0000E+00  0.6212E-05  0.1630E-07  0.7940E-03  0.1831E-03  0.6305E+01
   -2.613058    8.71651  0.0000E+00  0.5885E-05  0.2156E-07  0.5854E-03  0.1529E-03  0.8408E+03
   -2.681819    8.71801  0.0000E+00  0.3702E-05  0.8057E-07  0.3121E-04  0.1214E-03 -0.2350E+04
   -2.750579    8.74320  0.0000E+00  0.0000E+00  0.0000E+00  0.0000E+00  0.1229E-03  0.0000E+00
