 1 - depth, m
 2 - temperature, C
 3 - salinity, kg/kg
 4 - turbulent kinetic energy, m**2/s**2
 5 - dissipation rate, m**2/s**3
 6 - kinematic heat conductance, m**2/s
 7 - modulus of horizontal velocity, m/s
 8 - Richardson number, n/d
   -0.000000    0.00000  0.0000E+00  0.1219E-13  0.7603E-17  0.1000E-09  0.0000E+00  0.1521E+17
   -0.068736    0.23564  0.0000E+00  0.1219E-13  0.7603E-17  0.1000E-09  0.0000E+00  0.1336E+17
   -0.137473    0.45648  0.0000E+00  0.1219E-13  0.7603E-17  0.1000E-09  0.0000E+00  0.1158E+17
   -0.206211    0.66043  0.0000E+00  0.1219E-13  0.7603E-17  0.1000E-09  0.0000E+00  0.9895E+16
   -0.274949    0.84580  0.0000E+00  0.1219E-13  0.7603E-17  0.1000E-09  0.0000E+00  0.8498E+16
   -0.343688    1.01473  0.0000E+00  0.1219E-13  0.7603E-17  0.1000E-09  0.0000E+00  0.7258E+16
   -0.412427    1.16744  0.0000E+00  0.1219E-13  0.7603E-17  0.1000E-09  0.0000E+00  0.6160E+16
   -0.481167    1.30419  0.0000E+00  0.1219E-13  0.7603E-17  0.1000E-09  0.0000E+00  0.5187E+16
   -0.549907    1.42526  0.0000E+00  0.1219E-13  0.7603E-17  0.1000E-09  0.0000E+00  0.4283E+16
   -0.618648    1.52994  0.0000E+00  0.2834E-13  0.7603E-17  0.1000E-09  0.0000E+00  0.3534E+16
   -0.687389    1.61994  0.0000E+00  0.9378E-13  0.1175E-16  0.1000E-09  0.0000E+00  0.3142E+16
   -0.756130    1.70304  0.0000E+00  0.2364E-12  0.2484E-16  0.1000E-09  0.0000E+00  0.2998E+16
   -0.824872    1.78537  0.0000E+00  0.5426E-12  0.5397E-16  0.1000E-09  0.0000E+00  0.2955E+16
   -0.893614    1.86980  0.0000E+00  0.1204E-11  0.1162E-15  0.1000E-09  0.0000E+00  0.2996E+16
   -0.962356    1.95909  0.0000E+00  0.2633E-11  0.2477E-15  0.1000E-09  0.0000E+00  0.3094E+16
   -1.031098    2.05579  0.0000E+00  0.5691E-11  0.5230E-15  0.1000E-09  0.0000E+00  0.3255E+16
   -1.099841    2.16322  0.0000E+00  0.1219E-10  0.1094E-14  0.1000E-09  0.0000E+00  0.3404E+16
   -1.168583    2.28306  0.0000E+00  0.2589E-10  0.2272E-14  0.1000E-09  0.0000E+00  0.3505E+16
   -1.237326    2.41624  0.0000E+00  0.5459E-10  0.4684E-14  0.1000E-09  0.0000E+00  0.3526E+16
   -1.306069    2.56309  0.0000E+00  0.1143E-09  0.9589E-14  0.1000E-09  0.0000E+00  0.3444E+16
   -1.374812    2.72328  0.0000E+00  0.2376E-09  0.1950E-13  0.1000E-09  0.0000E+00  0.3313E+16
   -1.443555    2.89998  0.0000E+00  0.4906E-09  0.3940E-13  0.1000E-09  0.0000E+00  0.3046E+16
   -1.512298    3.09337  0.0000E+00  0.1008E-08  0.7920E-13  0.1543E-09  0.0000E+00  0.2618E+16
   -1.581041    3.30272  0.0000E+00  0.2066E-08  0.1590E-12  0.4009E-09  0.0000E+00  0.2023E+16
   -1.649783    3.52649  0.0000E+00  0.4214E-08  0.3176E-12  0.1278E-08  0.0000E+00  0.1268E+16
   -1.718526    3.76178  0.0000E+00  0.8515E-08  0.6288E-12  0.8144E-08  0.0000E+00  0.3952E+15
   -1.787268    3.99641  0.0000E+00  0.9313E-08  0.6909E-12  0.4117E-04  0.0000E+00 -0.1290E+12
   -1.856010    3.99721  0.0000E+00  0.9707E-08  0.7288E-12  0.4351E-04  0.0000E+00 -0.1498E+12
   -1.924752    3.99806  0.0000E+00  0.1007E-07  0.7715E-12  0.4590E-04  0.0000E+00 -0.1608E+12
   -1.993494    3.99891  0.0000E+00  0.1040E-07  0.8191E-12  0.4772E-04  0.0000E+00 -0.1733E+12
   -2.062235    3.99976  0.0000E+00  0.1070E-07  0.8724E-12  0.4776E-04  0.0000E+00 -0.1869E+12
   -2.130976    4.00063  0.0000E+00  0.1095E-07  0.9332E-12  0.4682E-04  0.0000E+00 -0.2041E+12
   -2.199717    4.00151  0.0000E+00  0.1117E-07  0.1004E-11  0.4503E-04  0.0000E+00 -0.2269E+12
   -2.268457    4.00244  0.0000E+00  0.1134E-07  0.1090E-11  0.4236E-04  0.0000E+00 -0.2584E+12
   -2.337197    4.00343  0.0000E+00  0.1145E-07  0.1201E-11  0.3858E-04  0.0000E+00 -0.3051E+12
   -2.405936    4.00454  0.0000E+00  0.1150E-07  0.1355E-11  0.3358E-04  0.0000E+00 -0.3796E+12
   -2.474675    4.00582  0.0000E+00  0.1145E-07  0.1587E-11  0.2725E-04  0.0000E+00 -0.5137E+12
   -2.543413    4.00744  0.0000E+00  0.1123E-07  0.2002E-11  0.1942E-04  0.0000E+00 -0.8171E+12
   -2.612151    4.00978  0.0000E+00  0.1060E-07  0.3025E-11  0.1013E-04  0.0000E+00 -0.1926E+13
   -2.680888    4.01454  0.0000E+00  0.7863E-08  0.9215E-11  0.1478E-05  0.0000E+00 -0.2644E+14
   -2.749624    4.05092  0.0000E+00  0.0000E+00  0.0000E+00  0.0000E+00  0.0000E+00  0.0000E+00
