 1 - depth, m
 2 - temperature, C
 3 - salinity, kg/kg
 4 - turbulent kinetic energy, m**2/s**2
 5 - dissipation rate, m**2/s**3
 6 - kinematic heat conductance, m**2/s
 7 - modulus of horizontal velocity, m/s
 8 - Richardson number, n/d
   -0.000000    0.00000  0.0000E+00  0.1219E-13  0.7603E-17  0.1000E-09  0.0000E+00  0.1247E+17
   -0.068740    0.19207  0.0000E+00  0.1219E-13  0.7603E-17  0.1000E-09  0.0000E+00  0.1098E+17
   -0.137481    0.37017  0.0000E+00  0.1219E-13  0.7603E-17  0.1000E-09  0.0000E+00  0.9927E+16
   -0.206222    0.53958  0.0000E+00  0.1219E-13  0.7603E-17  0.1000E-09  0.0000E+00  0.9146E+16
   -0.274964    0.70387  0.0000E+00  0.1219E-13  0.7603E-17  0.1000E-09  0.0000E+00  0.8643E+16
   -0.343707    0.86752  0.0000E+00  0.1219E-13  0.7603E-17  0.1000E-09  0.0000E+00  0.8225E+16
   -0.412450    1.03213  0.0000E+00  0.1219E-13  0.7603E-17  0.1000E-09  0.0000E+00  0.7825E+16
   -0.481194    1.19821  0.0000E+00  0.4883E-13  0.8561E-17  0.1000E-09  0.0000E+00  0.7405E+16
   -0.549938    1.36551  0.0000E+00  0.1427E-12  0.1779E-16  0.1000E-09  0.0000E+00  0.6923E+16
   -0.618682    1.53271  0.0000E+00  0.3561E-12  0.4084E-16  0.1000E-09  0.0000E+00  0.6432E+16
   -0.687427    1.69944  0.0000E+00  0.8429E-12  0.9320E-16  0.1000E-09  0.0000E+00  0.5934E+16
   -0.756172    1.86532  0.0000E+00  0.1952E-11  0.2100E-15  0.1000E-09  0.0000E+00  0.5431E+16
   -0.824917    2.02991  0.0000E+00  0.4463E-11  0.4676E-15  0.1000E-09  0.0000E+00  0.4926E+16
   -0.893663    2.19267  0.0000E+00  0.1009E-10  0.1031E-14  0.1000E-09  0.0000E+00  0.4425E+16
   -0.962409    2.35305  0.0000E+00  0.2258E-10  0.2250E-14  0.1000E-09  0.0000E+00  0.3931E+16
   -1.031155    2.51052  0.0000E+00  0.4997E-10  0.4857E-14  0.1000E-09  0.0000E+00  0.3488E+16
   -1.099901    2.66631  0.0000E+00  0.1094E-09  0.1038E-13  0.1000E-09  0.0000E+00  0.3060E+16
   -1.168648    2.82039  0.0000E+00  0.2374E-09  0.2199E-13  0.1000E-09  0.0000E+00  0.2652E+16
   -1.237395    2.97310  0.0000E+00  0.5107E-09  0.4621E-13  0.1039E-09  0.0000E+00  0.2272E+16
   -1.306141    3.12564  0.0000E+00  0.1090E-08  0.9640E-13  0.2547E-09  0.0000E+00  0.1925E+16
   -1.374888    3.28062  0.0000E+00  0.2308E-08  0.1997E-12  0.6235E-09  0.0000E+00  0.1629E+16
   -1.443635    3.44603  0.0000E+00  0.4852E-08  0.4110E-12  0.1608E-08  0.0000E+00  0.1302E+16
   -1.512381    3.63043  0.0000E+00  0.1012E-07  0.8404E-12  0.5262E-08  0.0000E+00  0.8242E+15
   -1.581128    3.83882  0.0000E+00  0.2046E-07  0.1670E-11  0.6040E-07  0.0000E+00  0.1671E+15
   -1.649874    4.01826  0.0000E+00  0.2124E-07  0.1738E-11  0.9982E-04  0.0000E+00 -0.1607E+12
   -1.718621    4.01858  0.0000E+00  0.2161E-07  0.1776E-11  0.9738E-04  0.0000E+00 -0.1842E+12
   -1.787367    4.01895  0.0000E+00  0.2193E-07  0.1820E-11  0.1002E-03  0.0000E+00 -0.1867E+12
   -1.856113    4.01931  0.0000E+00  0.2222E-07  0.1867E-11  0.1018E-03  0.0000E+00 -0.1892E+12
   -1.924858    4.01968  0.0000E+00  0.2245E-07  0.1918E-11  0.1027E-03  0.0000E+00 -0.1922E+12
   -1.993604    4.02004  0.0000E+00  0.2264E-07  0.1974E-11  0.1020E-03  0.0000E+00 -0.1984E+12
   -2.062349    4.02042  0.0000E+00  0.2279E-07  0.2037E-11  0.1003E-03  0.0000E+00 -0.2062E+12
   -2.131094    4.02080  0.0000E+00  0.2289E-07  0.2110E-11  0.9786E-04  0.0000E+00 -0.2160E+12
   -2.199838    4.02120  0.0000E+00  0.2295E-07  0.2198E-11  0.9455E-04  0.0000E+00 -0.2287E+12
   -2.268582    4.02162  0.0000E+00  0.2295E-07  0.2315E-11  0.8837E-04  0.0000E+00 -0.2503E+12
   -2.337326    4.02207  0.0000E+00  0.2288E-07  0.2482E-11  0.7579E-04  0.0000E+00 -0.2991E+12
   -2.406069    4.02260  0.0000E+00  0.2268E-07  0.2726E-11  0.6215E-04  0.0000E+00 -0.3748E+12
   -2.474811    4.02326  0.0000E+00  0.2233E-07  0.3102E-11  0.4912E-04  0.0000E+00 -0.4904E+12
   -2.543553    4.02410  0.0000E+00  0.2167E-07  0.3780E-11  0.3464E-04  0.0000E+00 -0.7272E+12
   -2.612295    4.02532  0.0000E+00  0.2029E-07  0.5441E-11  0.1802E-04  0.0000E+00 -0.1503E+13
   -2.681036    4.02771  0.0000E+00  0.1354E-07  0.1760E-10  0.1763E-05  0.0000E+00 -0.2083E+14
   -2.749776    4.05248  0.0000E+00  0.0000E+00  0.0000E+00  0.0000E+00  0.0000E+00  0.0000E+00
