 1 - depth, m
 2 - temperature, C
 3 - salinity, kg/kg
 4 - turbulent kinetic energy, m**2/s**2
 5 - dissipation rate, m**2/s**3
 6 - kinematic heat conductance, m**2/s
 7 - modulus of horizontal velocity, m/s
 8 - Richardson number, n/d
   -0.000000    0.00000  0.0000E+00  0.1219E-13  0.7603E-17  0.1000E-09  0.0000E+00  0.9467E+16
   -0.068741    0.14482  0.0000E+00  0.1219E-13  0.7603E-17  0.1000E-09  0.0000E+00  0.8937E+16
   -0.137483    0.28709  0.0000E+00  0.1219E-13  0.7603E-17  0.1000E-09  0.0000E+00  0.8403E+16
   -0.206225    0.42639  0.0000E+00  0.1219E-13  0.7603E-17  0.1000E-09  0.0000E+00  0.7871E+16
   -0.274968    0.56233  0.0000E+00  0.1219E-13  0.7603E-17  0.1000E-09  0.0000E+00  0.7373E+16
   -0.343712    0.69506  0.0000E+00  0.1219E-13  0.7603E-17  0.1000E-09  0.0000E+00  0.6891E+16
   -0.412456    0.82442  0.0000E+00  0.1219E-13  0.7603E-17  0.1000E-09  0.0000E+00  0.6422E+16
   -0.481201    0.95023  0.0000E+00  0.1219E-13  0.7603E-17  0.1000E-09  0.0000E+00  0.5967E+16
   -0.549946    1.07224  0.0000E+00  0.1219E-13  0.7603E-17  0.1000E-09  0.0000E+00  0.5516E+16
   -0.618691    1.19000  0.0000E+00  0.1219E-13  0.7603E-17  0.1000E-09  0.0000E+00  0.5085E+16
   -0.687437    1.30336  0.0000E+00  0.1219E-13  0.7603E-17  0.1000E-09  0.0000E+00  0.4730E+16
   -0.756183    1.41350  0.0000E+00  0.1219E-13  0.7603E-17  0.1000E-09  0.0000E+00  0.4424E+16
   -0.824930    1.52114  0.0000E+00  0.1219E-13  0.7603E-17  0.1000E-09  0.0000E+00  0.4130E+16
   -0.893676    1.62626  0.0000E+00  0.1219E-13  0.7603E-17  0.1000E-09  0.0000E+00  0.3849E+16
   -0.962423    1.72881  0.0000E+00  0.1219E-13  0.7603E-17  0.1000E-09  0.0000E+00  0.3580E+16
   -1.031171    1.82874  0.0000E+00  0.1219E-13  0.7603E-17  0.1000E-09  0.0000E+00  0.3328E+16
   -1.099918    1.92613  0.0000E+00  0.1219E-13  0.7603E-17  0.1000E-09  0.0000E+00  0.3088E+16
   -1.168665    2.02096  0.0000E+00  0.1219E-13  0.7603E-17  0.1000E-09  0.0000E+00  0.2859E+16
   -1.237413    2.11317  0.0000E+00  0.1219E-13  0.7603E-17  0.1000E-09  0.0000E+00  0.2640E+16
   -1.306161    2.20269  0.0000E+00  0.1219E-13  0.7603E-17  0.1000E-09  0.0000E+00  0.2432E+16
   -1.374908    2.28946  0.0000E+00  0.1219E-13  0.7603E-17  0.1000E-09  0.0000E+00  0.2265E+16
   -1.443656    2.37458  0.0000E+00  0.1219E-13  0.7603E-17  0.1000E-09  0.0000E+00  0.2114E+16
   -1.512404    2.45843  0.0000E+00  0.1219E-13  0.7603E-17  0.1000E-09  0.0000E+00  0.1972E+16
   -1.581151    2.54115  0.0000E+00  0.1219E-13  0.7603E-17  0.1000E-09  0.0000E+00  0.1836E+16
   -1.649899    2.62277  0.0000E+00  0.1219E-13  0.7603E-17  0.1000E-09  0.0000E+00  0.1704E+16
   -1.718646    2.70328  0.0000E+00  0.1219E-13  0.7603E-17  0.1000E-09  0.0000E+00  0.1576E+16
   -1.787393    2.78263  0.0000E+00  0.1219E-13  0.7603E-17  0.1000E-09  0.0000E+00  0.1452E+16
   -1.856140    2.86076  0.0000E+00  0.1219E-13  0.7603E-17  0.1000E-09  0.0000E+00  0.1332E+16
   -1.924887    2.93761  0.0000E+00  0.1219E-13  0.7603E-17  0.1000E-09  0.0000E+00  0.1215E+16
   -1.993634    3.01309  0.0000E+00  0.1219E-13  0.7603E-17  0.1000E-09  0.0000E+00  0.1102E+16
   -2.062380    3.08712  0.0000E+00  0.1219E-13  0.7603E-17  0.1000E-09  0.0000E+00  0.1015E+16
   -2.131126    3.16126  0.0000E+00  0.1219E-13  0.7603E-17  0.1000E-09  0.0000E+00  0.9323E+15
   -2.199871    3.23587  0.0000E+00  0.1219E-13  0.7603E-17  0.1000E-09  0.0000E+00  0.8498E+15
   -2.268616    3.31112  0.0000E+00  0.1219E-13  0.7603E-17  0.1000E-09  0.0000E+00  0.7794E+15
   -2.337361    3.38850  0.0000E+00  0.1219E-13  0.7610E-17  0.1000E-09  0.0000E+00  0.7121E+15
   -2.406105    3.46933  0.0000E+00  0.3316E-13  0.2385E-16  0.1000E-09  0.0000E+00  0.6422E+15
   -2.474848    3.55517  0.0000E+00  0.2213E-12  0.1551E-15  0.1000E-09  0.0000E+00  0.5671E+15
   -2.543591    3.64880  0.0000E+00  0.1562E-11  0.1059E-14  0.1000E-09  0.0000E+00  0.4845E+15
   -2.612334    3.75754  0.0000E+00  0.1138E-10  0.7479E-14  0.1098E-09  0.0000E+00  0.3505E+15
   -2.681076    3.89853  0.0000E+00  0.9141E-10  0.5869E-13  0.5179E-07  0.0000E+00 -0.1100E+14
   -2.749817    4.08184  0.0000E+00  0.0000E+00  0.0000E+00  0.0000E+00  0.0000E+00  0.0000E+00
