 1 - depth, m
 2 - temperature, C
 3 - salinity, kg/kg
 4 - turbulent kinetic energy, m**2/s**2
 5 - dissipation rate, m**2/s**3
 6 - kinematic heat conductance, m**2/s
 7 - modulus of horizontal velocity, m/s
 8 - Richardson number, n/d
   -0.000000   16.33191  0.0000E+00  0.8027E-04  0.2070E-04  0.7796E-04  0.7394E-01 -0.8979E-01
   -0.068753   16.38407  0.0000E+00  0.4376E-04  0.4573E-05  0.9881E-04  0.2878E-01 -0.3059E-01
   -0.137508   16.39591  0.0000E+00  0.3219E-04  0.1730E-05  0.1201E-03  0.2116E-01 -0.5434E-01
   -0.206262   16.40398  0.0000E+00  0.2545E-04  0.7767E-06  0.1525E-03  0.1669E-01 -0.8773E-01
   -0.275018   16.41014  0.0000E+00  0.2150E-04  0.4069E-06  0.1909E-03  0.1358E-01 -0.1190E+00
   -0.343773   16.41503  0.0000E+00  0.1898E-04  0.2434E-06  0.2393E-03  0.1120E-01 -0.1452E+00
   -0.412530   16.41890  0.0000E+00  0.1726E-04  0.1616E-06  0.3371E-03  0.9368E-02  0.7257E+02
   -0.481287   16.42188  0.0000E+00  0.1601E-04  0.1160E-06  0.4635E-03  0.7959E-02  0.1563E+02
   -0.550044   16.42416  0.0000E+00  0.1508E-04  0.8852E-07  0.6400E-03  0.6873E-02  0.9420E+02
   -0.618802   16.42582  0.0000E+00  0.1442E-04  0.7115E-07  0.8595E-03  0.6043E-02  0.8075E+03
   -0.687560   16.42695  0.0000E+00  0.1395E-04  0.5956E-07  0.1041E-02  0.5396E-02  0.4162E+02
   -0.756318   16.42778  0.0000E+00  0.1360E-04  0.5119E-07  0.1148E-02  0.4859E-02  0.8565E+02
   -0.825077   16.42848  0.0000E+00  0.1333E-04  0.4476E-07  0.1228E-02  0.4385E-02  0.1654E+02
   -0.893836   16.42912  0.0000E+00  0.1312E-04  0.3968E-07  0.1294E-02  0.3964E-02  0.5637E+01
   -0.962595   16.42972  0.0000E+00  0.1296E-04  0.3559E-07  0.1356E-02  0.3586E-02  0.3137E+01
   -1.031355   16.43028  0.0000E+00  0.1283E-04  0.3228E-07  0.1405E-02  0.3249E-02  0.3032E+01
   -1.100114   16.43083  0.0000E+00  0.1273E-04  0.2956E-07  0.1453E-02  0.2938E-02  0.2945E+01
   -1.168874   16.43136  0.0000E+00  0.1263E-04  0.2731E-07  0.1502E-02  0.2651E-02  0.2858E+01
   -1.237634   16.43187  0.0000E+00  0.1254E-04  0.2545E-07  0.1551E-02  0.2386E-02  0.2769E+01
   -1.306394   16.43237  0.0000E+00  0.1245E-04  0.2391E-07  0.1598E-02  0.2140E-02  0.2681E+01
   -1.375154   16.43286  0.0000E+00  0.1235E-04  0.2265E-07  0.1643E-02  0.1911E-02  0.2594E+01
   -1.443914   16.43333  0.0000E+00  0.1224E-04  0.2161E-07  0.1688E-02  0.1699E-02  0.2509E+01
   -1.512674   16.43380  0.0000E+00  0.1211E-04  0.2080E-07  0.1748E-02  0.1502E-02  0.2312E+01
   -1.581434   16.43425  0.0000E+00  0.1196E-04  0.2017E-07  0.1819E-02  0.1324E-02  0.2102E+01
   -1.650193   16.43468  0.0000E+00  0.1180E-04  0.1973E-07  0.1895E-02  0.1166E-02  0.1923E+01
   -1.718953   16.43510  0.0000E+00  0.1163E-04  0.1946E-07  0.1939E-02  0.1028E-02  0.1765E+01
   -1.787713   16.43552  0.0000E+00  0.1145E-04  0.1935E-07  0.1972E-02  0.9079E-03  0.1625E+01
   -1.856472   16.43592  0.0000E+00  0.1126E-04  0.1940E-07  0.1977E-02  0.8031E-03  0.1497E+01
   -1.925231   16.43633  0.0000E+00  0.1107E-04  0.1960E-07  0.1907E-02  0.7125E-03  0.1371E+01
   -1.993990   16.43675  0.0000E+00  0.1088E-04  0.1994E-07  0.1807E-02  0.6342E-03  0.1252E+01
   -2.062748   16.43720  0.0000E+00  0.1070E-04  0.2042E-07  0.1702E-02  0.5669E-03  0.1141E+01
   -2.131506   16.43769  0.0000E+00  0.1051E-04  0.2106E-07  0.1597E-02  0.5089E-03  0.1069E+01
   -2.200264   16.43821  0.0000E+00  0.1033E-04  0.2186E-07  0.1495E-02  0.4583E-03  0.1093E+01
   -2.269021   16.43877  0.0000E+00  0.1014E-04  0.2293E-07  0.1390E-02  0.4135E-03  0.1304E+01
   -2.337778   16.43938  0.0000E+00  0.9914E-05  0.2448E-07  0.1259E-02  0.3719E-03  0.1851E+01
   -2.406534   16.44005  0.0000E+00  0.9641E-05  0.2686E-07  0.1109E-02  0.3309E-03  0.2992E+01
   -2.475290   16.44083  0.0000E+00  0.9290E-05  0.3083E-07  0.8853E-03  0.2901E-03  0.5759E+01
   -2.544046   16.44181  0.0000E+00  0.8805E-05  0.3835E-07  0.8051E-03  0.2467E-03  0.1281E+02
   -2.612800   16.44290  0.0000E+00  0.7822E-05  0.6353E-07  0.3441E-03  0.2083E-03 -0.5152E+00
   -2.681554   16.44769  0.0000E+00  0.4682E-05  0.2095E-06  0.9058E-04  0.1348E-03 -0.9372E+03
   -2.750308   16.45761  0.0000E+00  0.0000E+00  0.0000E+00  0.0000E+00  0.1546E-03  0.0000E+00
