 1 - depth, m
 2 - temperature, C
 3 - salinity, kg/kg
 4 - turbulent kinetic energy, m**2/s**2
 5 - dissipation rate, m**2/s**3
 6 - kinematic heat conductance, m**2/s
 7 - modulus of horizontal velocity, m/s
 8 - Richardson number, n/d
   -0.000000    0.00000  0.0000E+00  0.1219E-13  0.7603E-17  0.1000E-09  0.0000E+00  0.1358E+17
   -0.068745    0.20967  0.0000E+00  0.1219E-13  0.7603E-17  0.1000E-09  0.0000E+00  0.1273E+17
   -0.137491    0.41804  0.0000E+00  0.4339E-13  0.7603E-17  0.1000E-09  0.0000E+00  0.1188E+17
   -0.206238    0.62484  0.0000E+00  0.1242E-12  0.1075E-16  0.1000E-09  0.0000E+00  0.1103E+17
   -0.274985    0.82981  0.0000E+00  0.2758E-12  0.1953E-16  0.1000E-09  0.0000E+00  0.1023E+17
   -0.343733    1.03317  0.0000E+00  0.5551E-12  0.3669E-16  0.1000E-09  0.0000E+00  0.9432E+16
   -0.412482    1.23473  0.0000E+00  0.1074E-11  0.6860E-16  0.1000E-09  0.0000E+00  0.8649E+16
   -0.481230    1.43420  0.0000E+00  0.2042E-11  0.1272E-15  0.1000E-09  0.0000E+00  0.7877E+16
   -0.549980    1.63119  0.0000E+00  0.3845E-11  0.2342E-15  0.1000E-09  0.0000E+00  0.7111E+16
   -0.618729    1.82504  0.0000E+00  0.7192E-11  0.4288E-15  0.1000E-09  0.0000E+00  0.6368E+16
   -0.687479    2.01537  0.0000E+00  0.1337E-10  0.7805E-15  0.1000E-09  0.0000E+00  0.5675E+16
   -0.756230    2.20261  0.0000E+00  0.2469E-10  0.1412E-14  0.1000E-09  0.0000E+00  0.5018E+16
   -0.824980    2.38691  0.0000E+00  0.4534E-10  0.2540E-14  0.1000E-09  0.0000E+00  0.4382E+16
   -0.893731    2.56790  0.0000E+00  0.8277E-10  0.4544E-14  0.1000E-09  0.0000E+00  0.3773E+16
   -0.962483    2.74521  0.0000E+00  0.1503E-09  0.8082E-14  0.1000E-09  0.0000E+00  0.3192E+16
   -1.031234    2.91850  0.0000E+00  0.2709E-09  0.1428E-13  0.1000E-09  0.0000E+00  0.2648E+16
   -1.099986    3.08777  0.0000E+00  0.4851E-09  0.2507E-13  0.1000E-09  0.0000E+00  0.2138E+16
   -1.168737    3.25284  0.0000E+00  0.8635E-09  0.4376E-13  0.1341E-09  0.0000E+00  0.1661E+16
   -1.237489    3.41352  0.0000E+00  0.1528E-08  0.7595E-13  0.3171E-09  0.0000E+00  0.1219E+16
   -1.306241    3.56959  0.0000E+00  0.2690E-08  0.1311E-12  0.8219E-09  0.0000E+00  0.8120E+15
   -1.374993    3.72070  0.0000E+00  0.4704E-08  0.2249E-12  0.2583E-08  0.0000E+00  0.4434E+15
   -1.443745    3.86751  0.0000E+00  0.8120E-08  0.3813E-12  0.1775E-07  0.0000E+00  0.1095E+15
   -1.512497    3.99876  0.0000E+00  0.8460E-08  0.3981E-12  0.6969E-04  0.0000E+00 -0.5032E+11
   -1.581249    3.99902  0.0000E+00  0.8615E-08  0.4071E-12  0.6759E-04  0.0000E+00 -0.5981E+11
   -1.650001    3.99931  0.0000E+00  0.8751E-08  0.4167E-12  0.6865E-04  0.0000E+00 -0.6147E+11
   -1.718752    3.99961  0.0000E+00  0.8873E-08  0.4272E-12  0.6924E-04  0.0000E+00 -0.6271E+11
   -1.787504    3.99991  0.0000E+00  0.8981E-08  0.4389E-12  0.6915E-04  0.0000E+00 -0.6431E+11
   -1.856255    4.00021  0.0000E+00  0.9076E-08  0.4521E-12  0.6829E-04  0.0000E+00 -0.6661E+11
   -1.925006    4.00051  0.0000E+00  0.9156E-08  0.4672E-12  0.6659E-04  0.0000E+00 -0.6983E+11
   -1.993756    4.00082  0.0000E+00  0.9220E-08  0.4846E-12  0.6405E-04  0.0000E+00 -0.7426E+11
   -2.062507    4.00115  0.0000E+00  0.9266E-08  0.5050E-12  0.6051E-04  0.0000E+00 -0.8030E+11
   -2.131257    4.00149  0.0000E+00  0.9291E-08  0.5292E-12  0.5649E-04  0.0000E+00 -0.8796E+11
   -2.200007    4.00185  0.0000E+00  0.9293E-08  0.5583E-12  0.5225E-04  0.0000E+00 -0.9743E+11
   -2.268756    4.00225  0.0000E+00  0.9267E-08  0.5949E-12  0.4759E-04  0.0000E+00 -0.1100E+12
   -2.337505    4.00268  0.0000E+00  0.9206E-08  0.6439E-12  0.4209E-04  0.0000E+00 -0.1284E+12
   -2.406253    4.00318  0.0000E+00  0.9096E-08  0.7137E-12  0.3558E-04  0.0000E+00 -0.1576E+12
   -2.475001    4.00376  0.0000E+00  0.8914E-08  0.8226E-12  0.2800E-04  0.0000E+00 -0.2099E+12
   -2.543748    4.00451  0.0000E+00  0.8596E-08  0.1023E-11  0.1922E-04  0.0000E+00 -0.3273E+12
   -2.612495    4.00563  0.0000E+00  0.7933E-08  0.1532E-11  0.9439E-05  0.0000E+00 -0.7526E+12
   -2.681241    4.00797  0.0000E+00  0.5161E-08  0.4943E-11  0.9447E-06  0.0000E+00 -0.1233E+14
   -2.749986    4.03151  0.0000E+00  0.0000E+00  0.0000E+00  0.0000E+00  0.0000E+00  0.0000E+00
