 1 - depth, m
 2 - temperature, C
 3 - salinity, kg/kg
 4 - turbulent kinetic energy, m**2/s**2
 5 - dissipation rate, m**2/s**3
 6 - kinematic heat conductance, m**2/s
 7 - modulus of horizontal velocity, m/s
 8 - Richardson number, n/d
   -0.000000    0.00000  0.0000E+00  0.1218E-13  0.7603E-17  0.1000E-09  0.0000E+00  0.3696E+17
   -0.068764    0.60358  0.0000E+00  0.1501E-13  0.8583E-17  0.1000E-09  0.0000E+00  0.1979E+17
   -0.137528    0.98094  0.0000E+00  0.3597E-13  0.1673E-16  0.1000E-09  0.0000E+00  0.1087E+17
   -0.206293    1.21182  0.0000E+00  0.1434E-12  0.5831E-16  0.1000E-09  0.0000E+00  0.6144E+16
   -0.275059    1.35140  0.0000E+00  0.6484E-12  0.2478E-15  0.1000E-09  0.0000E+00  0.4814E+16
   -0.343825    1.46553  0.0000E+00  0.2937E-11  0.1074E-14  0.1000E-09  0.0000E+00  0.4541E+16
   -0.412592    1.57788  0.0000E+00  0.1304E-10  0.4577E-14  0.1000E-09  0.0000E+00  0.4636E+16
   -0.481359    1.69847  0.0000E+00  0.5659E-10  0.1908E-13  0.1044E-09  0.0000E+00  0.4741E+16
   -0.550127    1.82914  0.0000E+00  0.2412E-09  0.7807E-13  0.1752E-09  0.0000E+00  0.4341E+16
   -0.618895    1.95645  0.0000E+00  0.1015E-08  0.3156E-12  0.5457E-09  0.0000E+00  0.3946E+16
   -0.687664    2.07973  0.0000E+00  0.4271E-08  0.1277E-11  0.1889E-08  0.0000E+00  0.3843E+16
   -0.756432    2.20871  0.0000E+00  0.1797E-07  0.5207E-11  0.5256E-08  0.0000E+00  0.4135E+16
   -0.825201    2.36216  0.0000E+00  0.7245E-07  0.2059E-10  0.1247E-07  0.0000E+00  0.5178E+16
   -0.893971    2.61691  0.0000E+00  0.1922E-06  0.5332E-10  0.2248E-04  0.0000E+00  0.4901E+16
   -0.962741    2.99580  0.0000E+00  0.3016E-06  0.8332E-10  0.1715E-03  0.0000E+00  0.3837E+16
   -1.031510    3.32965  0.0000E+00  0.4001E-06  0.1104E-09  0.3118E-03  0.0000E+00  0.3009E+16
   -1.100280    3.62510  0.0000E+00  0.4855E-06  0.1343E-09  0.4279E-03  0.0000E+00  0.2158E+16
   -1.169051    3.87170  0.0000E+00  0.5554E-06  0.1540E-09  0.5332E-03  0.0000E+00  0.1338E+16
   -1.237821    4.06273  0.0000E+00  0.6027E-06  0.1677E-09  0.6214E-03  0.0000E+00  0.4618E+15
   -1.306591    4.17742  0.0000E+00  0.6096E-06  0.1705E-09  0.6950E-03  0.0000E+00  0.3110E+13
   -1.375361    4.18404  0.0000E+00  0.6125E-06  0.1725E-09  0.6988E-03  0.0000E+00 -0.2307E+13
   -1.444132    4.18482  0.0000E+00  0.6149E-06  0.1748E-09  0.6961E-03  0.0000E+00 -0.2347E+13
   -1.512902    4.18561  0.0000E+00  0.6169E-06  0.1772E-09  0.6909E-03  0.0000E+00 -0.2377E+13
   -1.581672    4.18640  0.0000E+00  0.6185E-06  0.1801E-09  0.6840E-03  0.0000E+00 -0.2421E+13
   -1.650443    4.18719  0.0000E+00  0.6197E-06  0.1832E-09  0.6749E-03  0.0000E+00 -0.2474E+13
   -1.719213    4.18800  0.0000E+00  0.6205E-06  0.1869E-09  0.6642E-03  0.0000E+00 -0.2536E+13
   -1.787982    4.18881  0.0000E+00  0.6208E-06  0.1910E-09  0.6513E-03  0.0000E+00 -0.2610E+13
   -1.856752    4.18965  0.0000E+00  0.6207E-06  0.1957E-09  0.6364E-03  0.0000E+00 -0.2697E+13
   -1.925521    4.19051  0.0000E+00  0.6201E-06  0.2011E-09  0.6192E-03  0.0000E+00 -0.2801E+13
   -1.994291    4.19139  0.0000E+00  0.6190E-06  0.2074E-09  0.5998E-03  0.0000E+00 -0.2923E+13
   -2.063059    4.19231  0.0000E+00  0.6173E-06  0.2148E-09  0.5778E-03  0.0000E+00 -0.3064E+13
   -2.131828    4.19327  0.0000E+00  0.6150E-06  0.2235E-09  0.5534E-03  0.0000E+00 -0.3232E+13
   -2.200596    4.19427  0.0000E+00  0.6121E-06  0.2339E-09  0.5263E-03  0.0000E+00 -0.3435E+13
   -2.269364    4.19533  0.0000E+00  0.6083E-06  0.2468E-09  0.4960E-03  0.0000E+00 -0.3684E+13
   -2.338131    4.19646  0.0000E+00  0.6035E-06  0.2634E-09  0.4610E-03  0.0000E+00 -0.4005E+13
   -2.406898    4.19768  0.0000E+00  0.5973E-06  0.2861E-09  0.4207E-03  0.0000E+00 -0.4439E+13
   -2.475664    4.19903  0.0000E+00  0.5893E-06  0.3186E-09  0.3736E-03  0.0000E+00 -0.5066E+13
   -2.544430    4.20055  0.0000E+00  0.5779E-06  0.3716E-09  0.3198E-03  0.0000E+00 -0.5977E+13
   -2.613195    4.20234  0.0000E+00  0.5546E-06  0.5054E-09  0.1555E-03  0.0000E+00 -0.1232E+14
   -2.681959    4.20600  0.0000E+00  0.3461E-06  0.2176E-08  0.8046E-05  0.0000E+00 -0.2758E+15
   -2.750723    4.27559  0.0000E+00  0.0000E+00  0.0000E+00  0.0000E+00  0.0000E+00  0.0000E+00
