 1 - depth, m
 2 - temperature, C
 3 - salinity, kg/kg
 4 - turbulent kinetic energy, m**2/s**2
 5 - dissipation rate, m**2/s**3
 6 - kinematic heat conductance, m**2/s
 7 - modulus of horizontal velocity, m/s
 8 - Richardson number, n/d
   -0.000000    0.00000  0.0000E+00  0.1219E-13  0.7603E-17  0.1000E-09  0.0000E+00  0.1387E+17
   -0.068731    0.21423  0.0000E+00  0.5504E-13  0.7604E-17  0.1000E-09  0.0000E+00  0.1302E+17
   -0.137463    0.42789  0.0000E+00  0.1478E-12  0.1202E-16  0.1000E-09  0.0000E+00  0.1217E+17
   -0.206195    0.64060  0.0000E+00  0.3202E-12  0.2240E-16  0.1000E-09  0.0000E+00  0.1131E+17
   -0.274928    0.85202  0.0000E+00  0.6403E-12  0.4238E-16  0.1000E-09  0.0000E+00  0.1048E+17
   -0.343662    1.06235  0.0000E+00  0.1237E-11  0.7941E-16  0.1000E-09  0.0000E+00  0.9661E+16
   -0.412396    1.27134  0.0000E+00  0.2353E-11  0.1475E-15  0.1000E-09  0.0000E+00  0.8843E+16
   -0.481131    1.47860  0.0000E+00  0.4433E-11  0.2718E-15  0.1000E-09  0.0000E+00  0.8029E+16
   -0.549866    1.68360  0.0000E+00  0.8300E-11  0.4982E-15  0.1000E-09  0.0000E+00  0.7216E+16
   -0.618601    1.88555  0.0000E+00  0.1545E-10  0.9083E-15  0.1000E-09  0.0000E+00  0.6423E+16
   -0.687337    2.08392  0.0000E+00  0.2860E-10  0.1647E-14  0.1000E-09  0.0000E+00  0.5683E+16
   -0.756073    2.27919  0.0000E+00  0.5262E-10  0.2968E-14  0.1000E-09  0.0000E+00  0.4980E+16
   -0.824809    2.47149  0.0000E+00  0.9625E-10  0.5320E-14  0.1000E-09  0.0000E+00  0.4299E+16
   -0.893546    2.66036  0.0000E+00  0.1751E-09  0.9483E-14  0.1000E-09  0.0000E+00  0.3645E+16
   -0.962283    2.84533  0.0000E+00  0.3167E-09  0.1681E-13  0.1000E-09  0.0000E+00  0.3024E+16
   -1.031020    3.02602  0.0000E+00  0.5690E-09  0.2962E-13  0.1000E-09  0.0000E+00  0.2444E+16
   -1.099758    3.20247  0.0000E+00  0.1015E-08  0.5183E-13  0.1388E-09  0.0000E+00  0.1901E+16
   -1.168495    3.37448  0.0000E+00  0.1802E-08  0.9017E-13  0.3287E-09  0.0000E+00  0.1397E+16
   -1.237233    3.54187  0.0000E+00  0.3178E-08  0.1560E-12  0.8541E-09  0.0000E+00  0.9301E+15
   -1.305970    3.70441  0.0000E+00  0.5570E-08  0.2683E-12  0.2728E-08  0.0000E+00  0.5010E+15
   -1.374708    3.86092  0.0000E+00  0.9630E-08  0.4556E-12  0.1906E-07  0.0000E+00  0.1219E+15
   -1.443446    3.99990  0.0000E+00  0.9963E-08  0.4722E-12  0.8054E-04  0.0000E+00 -0.4937E+11
   -1.512183    4.00013  0.0000E+00  0.1012E-07  0.4812E-12  0.7801E-04  0.0000E+00 -0.6000E+11
   -1.580921    4.00040  0.0000E+00  0.1025E-07  0.4908E-12  0.7924E-04  0.0000E+00 -0.6166E+11
   -1.649658    4.00068  0.0000E+00  0.1038E-07  0.5014E-12  0.8013E-04  0.0000E+00 -0.6267E+11
   -1.718396    4.00096  0.0000E+00  0.1048E-07  0.5131E-12  0.8056E-04  0.0000E+00 -0.6376E+11
   -1.787133    4.00123  0.0000E+00  0.1058E-07  0.5261E-12  0.8078E-04  0.0000E+00 -0.6494E+11
   -1.855870    4.00151  0.0000E+00  0.1066E-07  0.5406E-12  0.8000E-04  0.0000E+00 -0.6692E+11
   -1.924607    4.00179  0.0000E+00  0.1073E-07  0.5572E-12  0.7814E-04  0.0000E+00 -0.6992E+11
   -1.993343    4.00207  0.0000E+00  0.1078E-07  0.5767E-12  0.7523E-04  0.0000E+00 -0.7418E+11
   -2.062079    4.00237  0.0000E+00  0.1081E-07  0.5998E-12  0.7082E-04  0.0000E+00 -0.8029E+11
   -2.130815    4.00269  0.0000E+00  0.1082E-07  0.6278E-12  0.6501E-04  0.0000E+00 -0.8910E+11
   -2.199550    4.00303  0.0000E+00  0.1081E-07  0.6619E-12  0.5921E-04  0.0000E+00 -0.9989E+11
   -2.268285    4.00341  0.0000E+00  0.1076E-07  0.7048E-12  0.5348E-04  0.0000E+00 -0.1134E+12
   -2.337020    4.00382  0.0000E+00  0.1068E-07  0.7627E-12  0.4711E-04  0.0000E+00 -0.1325E+12
   -2.405754    4.00430  0.0000E+00  0.1055E-07  0.8452E-12  0.3973E-04  0.0000E+00 -0.1626E+12
   -2.474488    4.00487  0.0000E+00  0.1033E-07  0.9738E-12  0.3121E-04  0.0000E+00 -0.2161E+12
   -2.543221    4.00560  0.0000E+00  0.9970E-08  0.1210E-11  0.2143E-04  0.0000E+00 -0.3352E+12
   -2.611953    4.00668  0.0000E+00  0.9224E-08  0.1809E-11  0.1059E-04  0.0000E+00 -0.7590E+12
   -2.680685    4.00893  0.0000E+00  0.6030E-08  0.5911E-11  0.1053E-05  0.0000E+00 -0.1224E+14
   -2.749416    4.03186  0.0000E+00  0.0000E+00  0.0000E+00  0.0000E+00  0.0000E+00  0.0000E+00
