 1 - depth, m
 2 - temperature, C
 3 - salinity, kg/kg
 4 - turbulent kinetic energy, m**2/s**2
 5 - dissipation rate, m**2/s**3
 6 - kinematic heat conductance, m**2/s
 7 - modulus of horizontal velocity, m/s
 8 - Richardson number, n/d
   -0.000000    0.00000  0.0000E+00  0.1219E-13  0.7604E-17  0.1000E-09  0.0000E+00  0.1435E+17
   -0.068764    0.22184  0.0000E+00  0.1219E-13  0.7604E-17  0.1000E-09  0.0000E+00  0.1325E+17
   -0.137528    0.43978  0.0000E+00  0.2633E-13  0.7604E-17  0.1000E-09  0.0000E+00  0.1221E+17
   -0.206293    0.65398  0.0000E+00  0.8950E-13  0.9342E-17  0.1000E-09  0.0000E+00  0.1121E+17
   -0.275059    0.86440  0.0000E+00  0.2137E-12  0.1695E-16  0.1000E-09  0.0000E+00  0.1028E+17
   -0.343825    1.07149  0.0000E+00  0.4480E-12  0.3266E-16  0.1000E-09  0.0000E+00  0.9393E+16
   -0.412592    1.27517  0.0000E+00  0.8945E-12  0.6279E-16  0.1000E-09  0.0000E+00  0.8537E+16
   -0.481359    1.47528  0.0000E+00  0.1749E-11  0.1196E-15  0.1000E-09  0.0000E+00  0.7711E+16
   -0.550127    1.67149  0.0000E+00  0.3385E-11  0.2264E-15  0.1000E-09  0.0000E+00  0.6906E+16
   -0.618895    1.86322  0.0000E+00  0.6506E-11  0.4257E-15  0.1000E-09  0.0000E+00  0.6140E+16
   -0.687663    2.05016  0.0000E+00  0.1242E-10  0.7954E-15  0.1000E-09  0.0000E+00  0.5460E+16
   -0.756432    2.23363  0.0000E+00  0.2356E-10  0.1477E-14  0.1000E-09  0.0000E+00  0.4833E+16
   -0.825201    2.41437  0.0000E+00  0.4441E-10  0.2728E-14  0.1000E-09  0.0000E+00  0.4229E+16
   -0.893970    2.59216  0.0000E+00  0.8323E-10  0.5008E-14  0.1000E-09  0.0000E+00  0.3650E+16
   -0.962740    2.76676  0.0000E+00  0.1551E-09  0.9142E-14  0.1000E-09  0.0000E+00  0.3096E+16
   -1.031510    2.93795  0.0000E+00  0.2869E-09  0.1657E-13  0.1000E-09  0.0000E+00  0.2573E+16
   -1.100280    3.10565  0.0000E+00  0.5272E-09  0.2985E-13  0.1000E-09  0.0000E+00  0.2079E+16
   -1.169050    3.26972  0.0000E+00  0.9627E-09  0.5344E-13  0.1686E-09  0.0000E+00  0.1614E+16
   -1.237820    3.42994  0.0000E+00  0.1748E-08  0.9514E-13  0.4109E-09  0.0000E+00  0.1178E+16
   -1.306590    3.58601  0.0000E+00  0.3155E-08  0.1684E-12  0.1108E-08  0.0000E+00  0.7737E+15
   -1.375361    3.73739  0.0000E+00  0.5656E-08  0.2962E-12  0.3738E-08  0.0000E+00  0.4033E+15
   -1.444131    3.88328  0.0000E+00  0.9942E-08  0.5117E-12  0.3215E-07  0.0000E+00  0.8099E+14
   -1.512901    4.00322  0.0000E+00  0.1033E-07  0.5326E-12  0.7816E-04  0.0000E+00 -0.6059E+11
   -1.581671    4.00345  0.0000E+00  0.1050E-07  0.5439E-12  0.7526E-04  0.0000E+00 -0.7194E+11
   -1.650441    4.00372  0.0000E+00  0.1066E-07  0.5560E-12  0.7645E-04  0.0000E+00 -0.7382E+11
   -1.719211    4.00398  0.0000E+00  0.1079E-07  0.5692E-12  0.7725E-04  0.0000E+00 -0.7501E+11
   -1.787981    4.00425  0.0000E+00  0.1091E-07  0.5837E-12  0.7759E-04  0.0000E+00 -0.7637E+11
   -1.856751    4.00452  0.0000E+00  0.1102E-07  0.5999E-12  0.7717E-04  0.0000E+00 -0.7844E+11
   -1.925520    4.00480  0.0000E+00  0.1111E-07  0.6184E-12  0.7573E-04  0.0000E+00 -0.8165E+11
   -1.994289    4.00507  0.0000E+00  0.1118E-07  0.6401E-12  0.7340E-04  0.0000E+00 -0.8616E+11
   -2.063058    4.00537  0.0000E+00  0.1123E-07  0.6659E-12  0.6973E-04  0.0000E+00 -0.9241E+11
   -2.131826    4.00567  0.0000E+00  0.1125E-07  0.6971E-12  0.6422E-04  0.0000E+00 -0.1022E+12
   -2.200595    4.00601  0.0000E+00  0.1125E-07  0.7352E-12  0.5855E-04  0.0000E+00 -0.1144E+12
   -2.269362    4.00637  0.0000E+00  0.1122E-07  0.7831E-12  0.5296E-04  0.0000E+00 -0.1297E+12
   -2.338129    4.00678  0.0000E+00  0.1115E-07  0.8477E-12  0.4674E-04  0.0000E+00 -0.1515E+12
   -2.406896    4.00725  0.0000E+00  0.1102E-07  0.9399E-12  0.3951E-04  0.0000E+00 -0.1860E+12
   -2.475662    4.00781  0.0000E+00  0.1080E-07  0.1084E-11  0.3115E-04  0.0000E+00 -0.2476E+12
   -2.544428    4.00853  0.0000E+00  0.1044E-07  0.1348E-11  0.2152E-04  0.0000E+00 -0.3859E+12
   -2.613193    4.00961  0.0000E+00  0.9673E-08  0.2015E-11  0.1077E-04  0.0000E+00 -0.8839E+12
   -2.681957    4.01192  0.0000E+00  0.6447E-08  0.6515E-11  0.1139E-05  0.0000E+00 -0.1426E+14
   -2.750721    4.03607  0.0000E+00  0.0000E+00  0.0000E+00  0.0000E+00  0.0000E+00  0.0000E+00
