 1 - depth, m
 2 - temperature, C
 3 - salinity, kg/kg
 4 - turbulent kinetic energy, m**2/s**2
 5 - dissipation rate, m**2/s**3
 6 - kinematic heat conductance, m**2/s
 7 - modulus of horizontal velocity, m/s
 8 - Richardson number, n/d
   -0.000000    0.00000  0.0000E+00  0.1046E-03  0.4354E-04  0.8242E-04  0.1005E+00  0.1987E-01
   -0.068729    0.00725  0.0000E+00  0.5532E-04  0.9894E-05  0.9088E-04  0.3990E-01  0.2865E-02
   -0.137459    0.01139  0.0000E+00  0.3842E-04  0.3441E-05  0.9991E-04  0.2982E-01  0.5594E-02
   -0.206189    0.01463  0.0000E+00  0.2862E-04  0.1378E-05  0.1131E-03  0.2378E-01  0.8459E-02
   -0.274921    0.01730  0.0000E+00  0.2287E-04  0.6290E-06  0.1259E-03  0.1956E-01  0.1112E-01
   -0.343652    0.01957  0.0000E+00  0.1908E-04  0.3352E-06  0.1380E-03  0.1623E-01  0.1465E-01
   -0.412384    0.02153  0.0000E+00  0.1631E-04  0.2046E-06  0.1475E-03  0.1358E-01  0.1920E-01
   -0.481117    0.02325  0.0000E+00  0.1405E-04  0.1364E-06  0.1533E-03  0.1143E-01  0.2514E-01
   -0.549850    0.02481  0.0000E+00  0.1206E-04  0.9531E-07  0.1567E-03  0.9661E-02  0.3467E-01
   -0.618583    0.02624  0.0000E+00  0.1033E-04  0.6872E-07  0.1558E-03  0.8215E-02  0.4708E-01
   -0.687317    0.02759  0.0000E+00  0.8805E-05  0.5050E-07  0.1515E-03  0.7005E-02  0.6353E-01
   -0.756051    0.02889  0.0000E+00  0.7466E-05  0.3752E-07  0.1443E-03  0.5980E-02  0.8588E-01
   -0.824786    0.03017  0.0000E+00  0.6287E-05  0.2803E-07  0.1348E-03  0.5103E-02  0.1174E+00
   -0.893520    0.03143  0.0000E+00  0.5250E-05  0.2097E-07  0.1236E-03  0.4351E-02  0.1642E+00
   -0.962255    0.03270  0.0000E+00  0.4350E-05  0.1569E-07  0.1116E-03  0.3708E-02  0.2406E+00
   -1.030991    0.03398  0.0000E+00  0.3582E-05  0.1178E-07  0.9680E-04  0.3165E-02  0.3226E+00
   -1.099726    0.03535  0.0000E+00  0.2919E-05  0.8819E-08  0.8168E-04  0.2679E-02  0.4426E+00
   -1.168462    0.03685  0.0000E+00  0.2343E-05  0.6561E-08  0.6662E-04  0.2240E-02  0.6311E+00
   -1.237197    0.03853  0.0000E+00  0.1845E-05  0.4830E-08  0.5203E-04  0.1845E-02  0.9527E+00
   -1.305933    0.04053  0.0000E+00  0.1416E-05  0.3503E-08  0.3846E-04  0.1488E-02  0.1585E+01
   -1.374669    0.04309  0.0000E+00  0.1048E-05  0.2485E-08  0.2606E-04  0.1165E-02  0.3371E+01
   -1.443404    0.04757  0.0000E+00  0.7230E-06  0.1679E-08  0.1577E-04  0.8606E-03  0.2165E+02
   -1.512140    0.06875  0.0000E+00  0.4731E-06  0.1079E-08  0.9888E-05  0.5261E-03  0.1145E+04
   -1.580876    0.10368  0.0000E+00  0.3010E-06  0.6744E-09  0.5734E-05  0.3185E-03  0.6579E+05
   -1.649611    0.13856  0.0000E+00  0.1738E-06  0.3878E-09  0.2992E-05  0.1867E-03  0.4790E+07
   -1.718346    0.18286  0.0000E+00  0.9511E-07  0.2118E-09  0.1581E-05  0.9399E-04  0.3703E+09
   -1.787082    0.23038  0.0000E+00  0.5192E-07  0.1146E-09  0.7563E-06  0.4736E-04  0.2751E+11
   -1.855817    0.26936  0.0000E+00  0.2716E-07  0.5855E-10  0.3282E-06  0.2349E-04  0.1992E+13
   -1.924551    0.29851  0.0000E+00  0.1498E-07  0.2755E-10  0.1482E-06  0.1114E-04  0.1194E+15
   -1.993286    0.31543  0.0000E+00  0.1010E-07  0.1283E-10  0.6104E-05  0.4625E-05  0.2493E+15
   -2.062020    0.32012  0.0000E+00  0.4294E-08  0.4206E-11  0.2010E-07  0.1840E-05  0.2305E+16
   -2.130754    0.37509  0.0000E+00  0.8226E-09  0.6337E-12  0.7469E-09  0.3356E-06  0.6002E+16
   -2.199487    0.51937  0.0000E+00  0.1624E-09  0.9108E-13  0.1108E-09  0.2577E-07  0.1252E+17
   -2.268220    0.79674  0.0000E+00  0.3973E-10  0.2097E-13  0.1000E-09  0.1309E-08  0.1835E+17
   -2.336953    1.20800  0.0000E+00  0.4239E-10  0.4003E-13  0.1000E-09  0.5552E-10  0.2081E+17
   -2.405685    1.74377  0.0000E+00  0.3267E-09  0.3313E-12  0.1650E-09  0.2057E-11  0.1933E+17
   -2.474417    2.39177  0.0000E+00  0.3008E-08  0.2962E-11  0.1890E-08  0.6396E-13  0.1402E+17
   -2.543148    3.20289  0.0000E+00  0.1207E-07  0.1300E-10  0.3518E-05  0.1495E-14  0.5769E+16
   -2.611878    3.83097  0.0000E+00  0.2629E-07  0.3649E-10  0.7222E-05  0.2627E-16  0.1214E+16
   -2.680608    4.11676  0.0000E+00  0.2678E-07  0.8772E-10  0.2379E-05  0.3078E-18 -0.1666E+15
   -2.749337    4.17130  0.0000E+00  0.0000E+00  0.0000E+00  0.0000E+00  0.5411E-18  0.0000E+00
