 1 - depth, m
 2 - temperature, C
 3 - salinity, kg/kg
 4 - turbulent kinetic energy, m**2/s**2
 5 - dissipation rate, m**2/s**3
 6 - kinematic heat conductance, m**2/s
 7 - modulus of horizontal velocity, m/s
 8 - Richardson number, n/d
   -0.000000    0.00000  0.0000E+00  0.9881E-13  0.1482E-16  0.1000E-09  0.0000E+00  0.1596E+17
   -0.068750    0.24759  0.0000E+00  0.1930E-12  0.1994E-16  0.1000E-09  0.0000E+00  0.1446E+17
   -0.137500    0.48812  0.0000E+00  0.4163E-12  0.3741E-16  0.1000E-09  0.0000E+00  0.1309E+17
   -0.206251    0.72203  0.0000E+00  0.8830E-12  0.7527E-16  0.1000E-09  0.0000E+00  0.1183E+17
   -0.275003    0.94977  0.0000E+00  0.1838E-11  0.1520E-15  0.1000E-09  0.0000E+00  0.1071E+17
   -0.343755    1.17261  0.0000E+00  0.3772E-11  0.3044E-15  0.1000E-09  0.0000E+00  0.9672E+16
   -0.412508    1.39115  0.0000E+00  0.7671E-11  0.6049E-15  0.1000E-09  0.0000E+00  0.8709E+16
   -0.481261    1.60582  0.0000E+00  0.1548E-10  0.1193E-14  0.1000E-09  0.0000E+00  0.7802E+16
   -0.550015    1.81686  0.0000E+00  0.3105E-10  0.2341E-14  0.1000E-09  0.0000E+00  0.6932E+16
   -0.618769    2.02407  0.0000E+00  0.6190E-10  0.4566E-14  0.1000E-09  0.0000E+00  0.6113E+16
   -0.687523    2.22765  0.0000E+00  0.1226E-09  0.8849E-14  0.1000E-09  0.0000E+00  0.5410E+16
   -0.756278    2.43058  0.0000E+00  0.2413E-09  0.1704E-13  0.1000E-09  0.0000E+00  0.4759E+16
   -0.825033    2.63478  0.0000E+00  0.4717E-09  0.3261E-13  0.1000E-09  0.0000E+00  0.4103E+16
   -0.893789    2.84037  0.0000E+00  0.9164E-09  0.6204E-13  0.1000E-09  0.0000E+00  0.3438E+16
   -0.962544    3.04743  0.0000E+00  0.1769E-08  0.1173E-12  0.2162E-09  0.0000E+00  0.2761E+16
   -1.031300    3.25582  0.0000E+00  0.3390E-08  0.2202E-12  0.5410E-09  0.0000E+00  0.2072E+16
   -1.100056    3.46502  0.0000E+00  0.6446E-08  0.4102E-12  0.1520E-08  0.0000E+00  0.1374E+16
   -1.168812    3.67411  0.0000E+00  0.1215E-07  0.7578E-12  0.5716E-08  0.0000E+00  0.6751E+15
   -1.237568    3.87868  0.0000E+00  0.2193E-07  0.1347E-11  0.8154E-07  0.0000E+00  0.8447E+14
   -1.306325    4.01505  0.0000E+00  0.2242E-07  0.1379E-11  0.1337E-03  0.0000E+00 -0.9121E+11
   -1.375081    4.01526  0.0000E+00  0.2265E-07  0.1397E-11  0.1340E-03  0.0000E+00 -0.1006E+12
   -1.443837    4.01548  0.0000E+00  0.2285E-07  0.1416E-11  0.1377E-03  0.0000E+00 -0.1007E+12
   -1.512594    4.01570  0.0000E+00  0.2303E-07  0.1437E-11  0.1388E-03  0.0000E+00 -0.1015E+12
   -1.581350    4.01592  0.0000E+00  0.2318E-07  0.1459E-11  0.1388E-03  0.0000E+00 -0.1029E+12
   -1.650106    4.01614  0.0000E+00  0.2332E-07  0.1484E-11  0.1380E-03  0.0000E+00 -0.1047E+12
   -1.718862    4.01636  0.0000E+00  0.2343E-07  0.1511E-11  0.1369E-03  0.0000E+00 -0.1068E+12
   -1.787618    4.01659  0.0000E+00  0.2352E-07  0.1541E-11  0.1354E-03  0.0000E+00 -0.1094E+12
   -1.856373    4.01682  0.0000E+00  0.2359E-07  0.1575E-11  0.1335E-03  0.0000E+00 -0.1125E+12
   -1.925129    4.01705  0.0000E+00  0.2364E-07  0.1614E-11  0.1310E-03  0.0000E+00 -0.1162E+12
   -1.993884    4.01729  0.0000E+00  0.2366E-07  0.1658E-11  0.1281E-03  0.0000E+00 -0.1207E+12
   -2.062639    4.01754  0.0000E+00  0.2366E-07  0.1709E-11  0.1245E-03  0.0000E+00 -0.1254E+12
   -2.131393    4.01780  0.0000E+00  0.2364E-07  0.1768E-11  0.1204E-03  0.0000E+00 -0.1311E+12
   -2.200147    4.01806  0.0000E+00  0.2357E-07  0.1840E-11  0.1155E-03  0.0000E+00 -0.1381E+12
   -2.268901    4.01834  0.0000E+00  0.2346E-07  0.1941E-11  0.1041E-03  0.0000E+00 -0.1551E+12
   -2.337654    4.01864  0.0000E+00  0.2327E-07  0.2090E-11  0.8400E-04  0.0000E+00 -0.1952E+12
   -2.406407    4.01903  0.0000E+00  0.2297E-07  0.2309E-11  0.6745E-04  0.0000E+00 -0.2479E+12
   -2.475159    4.01951  0.0000E+00  0.2253E-07  0.2652E-11  0.5241E-04  0.0000E+00 -0.3272E+12
   -2.543911    4.02013  0.0000E+00  0.2181E-07  0.3275E-11  0.3616E-04  0.0000E+00 -0.4928E+12
   -2.612662    4.02105  0.0000E+00  0.2037E-07  0.4822E-11  0.1838E-04  0.0000E+00 -0.1038E+13
   -2.681412    4.02291  0.0000E+00  0.1336E-07  0.1664E-10  0.1675E-05  0.0000E+00 -0.1546E+14
   -2.750162    4.04388  0.0000E+00  0.0000E+00  0.0000E+00  0.0000E+00  0.0000E+00  0.0000E+00
