 1 - depth, m
 2 - temperature, C
 3 - salinity, kg/kg
 4 - turbulent kinetic energy, m**2/s**2
 5 - dissipation rate, m**2/s**3
 6 - kinematic heat conductance, m**2/s
 7 - modulus of horizontal velocity, m/s
 8 - Richardson number, n/d
   -0.000000    0.00000  0.0000E+00  0.1219E-13  0.7603E-17  0.1000E-09  0.0000E+00  0.1424E+17
   -0.068737    0.22012  0.0000E+00  0.1219E-13  0.7603E-17  0.1000E-09  0.0000E+00  0.1272E+17
   -0.137475    0.42900  0.0000E+00  0.1219E-13  0.7603E-17  0.1000E-09  0.0000E+00  0.1124E+17
   -0.206214    0.62503  0.0000E+00  0.1219E-13  0.7603E-17  0.1000E-09  0.0000E+00  0.9830E+16
   -0.274953    0.80698  0.0000E+00  0.1219E-13  0.7603E-17  0.1000E-09  0.0000E+00  0.8669E+16
   -0.343693    0.97707  0.0000E+00  0.1219E-13  0.7603E-17  0.1000E-09  0.0000E+00  0.7630E+16
   -0.412433    1.13561  0.0000E+00  0.1219E-13  0.7603E-17  0.1000E-09  0.0000E+00  0.6698E+16
   -0.481174    1.28282  0.0000E+00  0.1219E-13  0.7603E-17  0.1000E-09  0.0000E+00  0.5854E+16
   -0.549915    1.41871  0.0000E+00  0.1219E-13  0.7603E-17  0.1000E-09  0.0000E+00  0.5048E+16
   -0.618657    1.54220  0.0000E+00  0.1224E-13  0.7603E-17  0.1000E-09  0.0000E+00  0.4354E+16
   -0.687399    1.65419  0.0000E+00  0.5809E-13  0.1008E-16  0.1000E-09  0.0000E+00  0.3951E+16
   -0.756141    1.76091  0.0000E+00  0.1693E-12  0.2309E-16  0.1000E-09  0.0000E+00  0.3737E+16
   -0.824884    1.86697  0.0000E+00  0.4303E-12  0.5519E-16  0.1000E-09  0.0000E+00  0.3582E+16
   -0.893627    1.97405  0.0000E+00  0.1050E-11  0.1303E-15  0.1000E-09  0.0000E+00  0.3471E+16
   -0.962370    2.08377  0.0000E+00  0.2518E-11  0.3042E-15  0.1000E-09  0.0000E+00  0.3390E+16
   -1.031113    2.19762  0.0000E+00  0.5962E-11  0.7014E-15  0.1000E-09  0.0000E+00  0.3351E+16
   -1.099857    2.31799  0.0000E+00  0.1396E-10  0.1600E-14  0.1000E-09  0.0000E+00  0.3302E+16
   -1.168600    2.44604  0.0000E+00  0.3236E-10  0.3616E-14  0.1000E-09  0.0000E+00  0.3224E+16
   -1.237344    2.58261  0.0000E+00  0.7433E-10  0.8099E-14  0.1000E-09  0.0000E+00  0.3101E+16
   -1.306088    2.72824  0.0000E+00  0.1692E-09  0.1798E-13  0.1000E-09  0.0000E+00  0.2921E+16
   -1.374832    2.88322  0.0000E+00  0.3818E-09  0.3958E-13  0.1000E-09  0.0000E+00  0.2721E+16
   -1.443576    3.05089  0.0000E+00  0.8542E-09  0.8641E-13  0.1808E-09  0.0000E+00  0.2434E+16
   -1.512319    3.23240  0.0000E+00  0.1897E-08  0.1874E-12  0.4693E-09  0.0000E+00  0.2033E+16
   -1.581063    3.42820  0.0000E+00  0.4198E-08  0.4048E-12  0.1373E-08  0.0000E+00  0.1502E+16
   -1.649807    3.63839  0.0000E+00  0.9203E-08  0.8670E-12  0.5360E-08  0.0000E+00  0.8258E+15
   -1.718550    3.85978  0.0000E+00  0.1922E-07  0.1778E-11  0.8052E-07  0.0000E+00  0.1177E+15
   -1.787294    4.02002  0.0000E+00  0.2025E-07  0.1878E-11  0.8156E-04  0.0000E+00 -0.2093E+12
   -1.856037    4.02042  0.0000E+00  0.2071E-07  0.1934E-11  0.8260E-04  0.0000E+00 -0.2378E+12
   -1.924780    4.02086  0.0000E+00  0.2110E-07  0.1995E-11  0.8532E-04  0.0000E+00 -0.2443E+12
   -1.993522    4.02131  0.0000E+00  0.2143E-07  0.2059E-11  0.8788E-04  0.0000E+00 -0.2499E+12
   -2.062265    4.02176  0.0000E+00  0.2169E-07  0.2130E-11  0.8818E-04  0.0000E+00 -0.2549E+12
   -2.131007    4.02222  0.0000E+00  0.2189E-07  0.2211E-11  0.8656E-04  0.0000E+00 -0.2645E+12
   -2.199748    4.02269  0.0000E+00  0.2203E-07  0.2310E-11  0.8354E-04  0.0000E+00 -0.2793E+12
   -2.268489    4.02317  0.0000E+00  0.2210E-07  0.2440E-11  0.7608E-04  0.0000E+00 -0.3134E+12
   -2.337230    4.02371  0.0000E+00  0.2208E-07  0.2619E-11  0.6560E-04  0.0000E+00 -0.3725E+12
   -2.405970    4.02434  0.0000E+00  0.2195E-07  0.2874E-11  0.5539E-04  0.0000E+00 -0.4547E+12
   -2.474710    4.02510  0.0000E+00  0.2164E-07  0.3265E-11  0.4459E-04  0.0000E+00 -0.5871E+12
   -2.543449    4.02605  0.0000E+00  0.2103E-07  0.3967E-11  0.3188E-04  0.0000E+00 -0.8693E+12
   -2.612188    4.02743  0.0000E+00  0.1969E-07  0.5686E-11  0.1691E-04  0.0000E+00 -0.1814E+13
   -2.680926    4.03016  0.0000E+00  0.1338E-07  0.1781E-10  0.1817E-05  0.0000E+00 -0.2527E+14
   -2.749663    4.05808  0.0000E+00  0.0000E+00  0.0000E+00  0.0000E+00  0.0000E+00  0.0000E+00
