 1 - depth, m
 2 - temperature, C
 3 - salinity, kg/kg
 4 - turbulent kinetic energy, m**2/s**2
 5 - dissipation rate, m**2/s**3
 6 - kinematic heat conductance, m**2/s
 7 - modulus of horizontal velocity, m/s
 8 - Richardson number, n/d
   -0.000000    0.00000  0.0000E+00  0.3544E-05  0.1080E-06  0.1095E-04  0.1133E-01  0.6431E+03
   -0.068745    0.02323  0.0000E+00  0.2385E-05  0.3214E-07  0.1608E-04  0.6207E-02  0.3511E+04
   -0.137491    0.03600  0.0000E+00  0.1562E-05  0.1327E-07  0.1628E-04  0.4022E-02  0.2524E+05
   -0.206238    0.04507  0.0000E+00  0.9741E-06  0.5885E-08  0.1390E-04  0.2761E-02  0.4332E+05
   -0.274985    0.05047  0.0000E+00  0.6059E-06  0.2806E-08  0.1032E-04  0.1979E-02  0.2460E+07
   -0.343732    0.05690  0.0000E+00  0.3538E-06  0.1329E-08  0.6516E-05  0.1392E-02  0.5750E+08
   -0.412480    0.06615  0.0000E+00  0.1755E-06  0.5658E-09  0.3032E-05  0.9257E-03  0.1047E+10
   -0.481229    0.08347  0.0000E+00  0.5898E-07  0.1671E-09  0.9326E-06  0.5230E-03  0.1638E+11
   -0.549978    0.12437  0.0000E+00  0.1815E-07  0.4149E-10  0.2799E-06  0.1861E-03  0.2485E+12
   -0.618728    0.15758  0.0000E+00  0.7469E-08  0.8733E-11  0.5715E-07  0.5923E-04  0.3179E+13
   -0.687477    0.17612  0.0000E+00  0.9223E-08  0.1883E-11  0.1285E-07  0.1609E-04  0.2394E+14
   -0.756228    0.18677  0.0000E+00  0.1847E-07  0.1732E-11  0.6737E-07  0.3513E-05  0.1020E+14
   -0.824978    0.19322  0.0000E+00  0.2191E-07  0.2124E-11  0.7084E-04  0.6992E-06 -0.5325E+11
   -0.893729    0.19692  0.0000E+00  0.2342E-07  0.2444E-11  0.1109E-03  0.1345E-06 -0.1230E+12
   -0.962480    0.19854  0.0000E+00  0.2441E-07  0.2749E-11  0.1232E-03  0.2678E-07 -0.1940E+12
   -1.031231    0.19859  0.0000E+00  0.2349E-07  0.2460E-11  0.1031E-03  0.7500E-08 -0.9912E+11
   -1.099982    0.19964  0.0000E+00  0.2193E-07  0.2140E-11  0.1069E-06  0.2483E-08  0.1844E+14
   -1.168734    0.20350  0.0000E+00  0.1062E-07  0.1017E-11  0.6721E-08  0.5280E-09  0.2510E+15
   -1.237486    0.21431  0.0000E+00  0.4565E-08  0.4434E-12  0.1533E-08  0.1075E-09  0.8581E+15
   -1.306237    0.23380  0.0000E+00  0.1911E-08  0.1897E-12  0.4269E-09  0.2189E-10  0.1987E+16
   -1.374989    0.26749  0.0000E+00  0.7827E-09  0.7972E-13  0.1521E-09  0.4460E-11  0.3663E+16
   -1.443741    0.32846  0.0000E+00  0.3140E-09  0.3294E-13  0.1017E-09  0.8988E-12  0.5753E+16
   -1.512493    0.42444  0.0000E+00  0.1239E-09  0.1342E-13  0.1000E-09  0.1366E-12  0.6300E+16
   -1.581244    0.53266  0.0000E+00  0.4779E-10  0.5359E-14  0.1000E-09  0.1817E-13  0.5820E+16
   -1.649996    0.63593  0.0000E+00  0.1800E-10  0.2096E-14  0.1000E-09  0.2329E-14  0.5045E+16
   -1.718747    0.72832  0.0000E+00  0.6596E-11  0.8052E-15  0.1000E-09  0.2867E-15  0.4235E+16
   -1.787498    0.80820  0.0000E+00  0.2311E-11  0.3133E-15  0.1000E-09  0.3377E-16  0.3610E+16
   -1.856249    0.87815  0.0000E+00  0.7602E-12  0.1631E-15  0.1000E-09  0.3792E-17  0.3302E+16
   -1.925000    0.94377  0.0000E+00  0.4910E-12  0.3001E-15  0.1000E-09  0.4043E-18  0.3417E+16
   -1.993751    1.01352  0.0000E+00  0.2254E-11  0.1647E-14  0.1000E-09  0.4077E-19  0.4098E+16
   -2.062501    1.09978  0.0000E+00  0.1496E-10  0.1056E-13  0.1000E-09  0.3871E-20  0.8183E+16
   -2.131251    1.28016  0.0000E+00  0.9816E-10  0.6651E-13  0.1000E-09  0.3444E-21  0.1285E+17
   -2.200000    1.59233  0.0000E+00  0.6277E-09  0.4089E-12  0.1604E-09  0.2851E-22  0.1676E+17
   -2.268749    2.08095  0.0000E+00  0.3949E-08  0.2477E-11  0.7951E-09  0.1582E-23  0.1711E+17
   -2.337498    2.78888  0.0000E+00  0.2410E-07  0.1463E-10  0.1534E-07  0.7215E-25  0.1051E+17
   -2.406246    3.72663  0.0000E+00  0.5010E-07  0.3235E-10  0.2260E-04  0.2828E-26  0.1846E+16
   -2.474994    4.16476  0.0000E+00  0.6762E-07  0.4670E-10  0.3980E-04  0.8792E-28 -0.1297E+14
   -2.543741    4.16957  0.0000E+00  0.7338E-07  0.5749E-10  0.3521E-04  0.1975E-28 -0.1699E+14
   -2.612487    4.17565  0.0000E+00  0.7443E-07  0.7856E-10  0.2380E-04  0.3610E-29 -0.2955E+14
   -2.681233    4.18580  0.0000E+00  0.5818E-07  0.2020E-09  0.4187E-05  0.3813E-30 -0.2592E+15
   -2.749978    4.25794  0.0000E+00  0.0000E+00  0.0000E+00  0.0000E+00  0.4243E-30  0.0000E+00
