 1 - depth, m
 2 - temperature, C
 3 - salinity, kg/kg
 4 - turbulent kinetic energy, m**2/s**2
 5 - dissipation rate, m**2/s**3
 6 - kinematic heat conductance, m**2/s
 7 - modulus of horizontal velocity, m/s
 8 - Richardson number, n/d
   -0.000000    0.00000  0.0000E+00  0.1219E-13  0.7603E-17  0.1000E-09  0.0000E+00  0.1339E+17
   -0.068749    0.20651  0.0000E+00  0.1219E-13  0.7603E-17  0.1000E-09  0.0000E+00  0.1151E+17
   -0.137498    0.39427  0.0000E+00  0.1219E-13  0.7603E-17  0.1000E-09  0.0000E+00  0.1019E+17
   -0.206249    0.56952  0.0000E+00  0.1219E-13  0.7603E-17  0.1000E-09  0.0000E+00  0.9202E+16
   -0.274999    0.73646  0.0000E+00  0.1219E-13  0.7603E-17  0.1000E-09  0.0000E+00  0.8575E+16
   -0.343751    0.90059  0.0000E+00  0.1219E-13  0.7603E-17  0.1000E-09  0.0000E+00  0.8084E+16
   -0.412502    1.06420  0.0000E+00  0.2937E-13  0.7987E-17  0.1000E-09  0.0000E+00  0.7650E+16
   -0.481255    1.22844  0.0000E+00  0.9597E-13  0.1357E-16  0.1000E-09  0.0000E+00  0.7224E+16
   -0.550007    1.39351  0.0000E+00  0.2553E-12  0.3143E-16  0.1000E-09  0.0000E+00  0.6746E+16
   -0.618761    1.55823  0.0000E+00  0.6295E-12  0.7399E-16  0.1000E-09  0.0000E+00  0.6267E+16
   -0.687514    1.72245  0.0000E+00  0.1509E-11  0.1722E-15  0.1000E-09  0.0000E+00  0.5789E+16
   -0.756268    1.88596  0.0000E+00  0.3566E-11  0.3963E-15  0.1000E-09  0.0000E+00  0.5308E+16
   -0.825022    2.04842  0.0000E+00  0.8334E-11  0.9029E-15  0.1000E-09  0.0000E+00  0.4824E+16
   -0.893777    2.20936  0.0000E+00  0.1928E-10  0.2038E-14  0.1000E-09  0.0000E+00  0.4343E+16
   -0.962531    2.36832  0.0000E+00  0.4421E-10  0.4559E-14  0.1000E-09  0.0000E+00  0.3871E+16
   -1.031286    2.52492  0.0000E+00  0.1003E-09  0.1010E-13  0.1000E-09  0.0000E+00  0.3457E+16
   -1.100041    2.68095  0.0000E+00  0.2253E-09  0.2215E-13  0.1000E-09  0.0000E+00  0.3061E+16
   -1.168796    2.83706  0.0000E+00  0.5017E-09  0.4820E-13  0.1029E-09  0.0000E+00  0.2690E+16
   -1.237552    2.99477  0.0000E+00  0.1108E-08  0.1041E-12  0.2253E-09  0.0000E+00  0.2347E+16
   -1.306307    3.15702  0.0000E+00  0.2429E-08  0.2231E-12  0.5589E-09  0.0000E+00  0.2027E+16
   -1.375063    3.32923  0.0000E+00  0.5280E-08  0.4747E-12  0.1407E-08  0.0000E+00  0.1714E+16
   -1.443818    3.52340  0.0000E+00  0.1138E-07  0.1002E-11  0.4107E-08  0.0000E+00  0.1250E+16
   -1.512573    3.75271  0.0000E+00  0.2399E-07  0.2074E-11  0.2937E-07  0.0000E+00  0.4304E+15
   -1.581329    3.99912  0.0000E+00  0.2674E-07  0.2321E-11  0.9386E-04  0.0000E+00  0.6729E+13
   -1.650084    4.01821  0.0000E+00  0.2726E-07  0.2376E-11  0.1134E-03  0.0000E+00 -0.2023E+12
   -1.718839    4.01862  0.0000E+00  0.2766E-07  0.2430E-11  0.1161E-03  0.0000E+00 -0.2085E+12
   -1.787594    4.01904  0.0000E+00  0.2801E-07  0.2488E-11  0.1181E-03  0.0000E+00 -0.2118E+12
   -1.856348    4.01945  0.0000E+00  0.2831E-07  0.2550E-11  0.1192E-03  0.0000E+00 -0.2158E+12
   -1.925103    4.01987  0.0000E+00  0.2855E-07  0.2618E-11  0.1188E-03  0.0000E+00 -0.2223E+12
   -1.993857    4.02029  0.0000E+00  0.2875E-07  0.2694E-11  0.1175E-03  0.0000E+00 -0.2309E+12
   -2.062611    4.02072  0.0000E+00  0.2889E-07  0.2781E-11  0.1151E-03  0.0000E+00 -0.2404E+12
   -2.131364    4.02117  0.0000E+00  0.2899E-07  0.2881E-11  0.1117E-03  0.0000E+00 -0.2521E+12
   -2.200118    4.02163  0.0000E+00  0.2903E-07  0.3001E-11  0.1073E-03  0.0000E+00 -0.2676E+12
   -2.268870    4.02211  0.0000E+00  0.2900E-07  0.3151E-11  0.1007E-03  0.0000E+00 -0.2903E+12
   -2.337623    4.02263  0.0000E+00  0.2888E-07  0.3360E-11  0.9069E-04  0.0000E+00 -0.3291E+12
   -2.406374    4.02321  0.0000E+00  0.2863E-07  0.3675E-11  0.7488E-04  0.0000E+00 -0.4080E+12
   -2.475126    4.02391  0.0000E+00  0.2817E-07  0.4177E-11  0.5769E-04  0.0000E+00 -0.5446E+12
   -2.543876    4.02483  0.0000E+00  0.2735E-07  0.5087E-11  0.4033E-04  0.0000E+00 -0.8097E+12
   -2.612627    4.02616  0.0000E+00  0.2563E-07  0.7318E-11  0.2097E-04  0.0000E+00 -0.1659E+13
   -2.681376    4.02874  0.0000E+00  0.1690E-07  0.2438E-10  0.1940E-05  0.0000E+00 -0.2414E+14
   -2.750125    4.05618  0.0000E+00  0.0000E+00  0.0000E+00  0.0000E+00  0.0000E+00  0.0000E+00
