 1 - depth, m
 2 - temperature, C
 3 - salinity, kg/kg
 4 - turbulent kinetic energy, m**2/s**2
 5 - dissipation rate, m**2/s**3
 6 - kinematic heat conductance, m**2/s
 7 - modulus of horizontal velocity, m/s
 8 - Richardson number, n/d
   -0.000000    0.80186  0.0000E+00  0.9483E-03  0.1744E-02  0.1459E-03  0.3771E+00  0.7334E-02
   -0.068734    0.82951  0.0000E+00  0.5027E-03  0.3936E-03  0.5541E-03  0.9955E-01  0.5841E-01
   -0.137469    0.83503  0.0000E+00  0.3696E-03  0.1912E-03  0.5350E-03  0.7545E-01  0.1032E-01
   -0.206205    0.83874  0.0000E+00  0.2853E-03  0.1150E-03  0.5100E-03  0.6398E-01  0.1496E-01
   -0.274941    0.84143  0.0000E+00  0.2285E-03  0.7064E-04  0.4788E-03  0.5709E-01  0.2084E-01
   -0.343678    0.84365  0.0000E+00  0.1848E-03  0.4255E-04  0.4695E-03  0.5082E-01  0.5187E-02
   -0.412415    0.84565  0.0000E+00  0.1529E-03  0.2543E-04  0.4687E-03  0.4537E-01  0.7091E-02
   -0.481153    0.84757  0.0000E+00  0.1289E-03  0.1510E-04  0.4727E-03  0.4055E-01  0.6562E-02
   -0.549891    0.84950  0.0000E+00  0.1103E-03  0.9040E-05  0.4835E-03  0.3618E-01  0.9097E-02
   -0.618630    0.85144  0.0000E+00  0.9582E-04  0.5551E-05  0.4937E-03  0.3256E-01  0.1222E-01
   -0.687369    0.85343  0.0000E+00  0.8435E-04  0.3525E-05  0.5024E-03  0.2944E-01  0.1641E-01
   -0.756108    0.85546  0.0000E+00  0.7503E-04  0.2324E-05  0.5110E-03  0.2672E-01  0.2370E-01
   -0.824848    0.85755  0.0000E+00  0.6738E-04  0.1595E-05  0.5174E-03  0.2433E-01  0.3434E-01
   -0.893588    0.85970  0.0000E+00  0.6096E-04  0.1139E-05  0.5221E-03  0.2223E-01  0.5017E-01
   -0.962328    0.86194  0.0000E+00  0.5551E-04  0.8456E-06  0.5257E-03  0.2037E-01  0.7532E-01
   -1.031068    0.86428  0.0000E+00  0.5089E-04  0.6516E-06  0.5219E-03  0.1874E-01  0.9057E-01
   -1.099809    0.86678  0.0000E+00  0.4687E-04  0.5185E-06  0.5159E-03  0.1722E-01  0.1101E+00
   -1.168549    0.86948  0.0000E+00  0.4331E-04  0.4236E-06  0.5072E-03  0.1581E-01  0.1353E+00
   -1.237290    0.87245  0.0000E+00  0.4010E-04  0.3532E-06  0.4952E-03  0.1450E-01  0.1678E+00
   -1.306031    0.87577  0.0000E+00  0.3717E-04  0.2992E-06  0.4796E-03  0.1327E-01  0.2099E+00
   -1.374772    0.87961  0.0000E+00  0.3445E-04  0.2564E-06  0.4600E-03  0.1211E-01  0.2613E+00
   -1.443513    0.88420  0.0000E+00  0.3186E-04  0.2215E-06  0.4353E-03  0.1100E-01  0.3172E+00
   -1.512254    0.89014  0.0000E+00  0.2932E-04  0.1921E-06  0.4132E-03  0.9902E-02  0.5388E+00
   -1.580994    0.89881  0.0000E+00  0.2683E-04  0.1668E-06  0.3892E-03  0.8873E-02  0.1208E+01
   -1.649735    0.94119  0.0000E+00  0.2436E-04  0.1446E-06  0.3645E-03  0.7823E-02  0.9154E+01
   -1.718476    1.11915  0.0000E+00  0.2205E-04  0.1255E-06  0.3405E-03  0.6755E-02  0.3772E+03
   -1.787216    1.35223  0.0000E+00  0.1995E-04  0.1092E-06  0.3167E-03  0.5824E-02  0.1064E+05
   -1.855956    1.56552  0.0000E+00  0.1804E-04  0.9511E-07  0.2929E-03  0.5039E-02  0.1470E+06
   -1.924696    1.73185  0.0000E+00  0.1629E-04  0.8295E-07  0.2695E-03  0.4349E-02  0.6611E+07
   -1.993436    1.86467  0.0000E+00  0.1469E-04  0.7253E-07  0.2461E-03  0.3743E-02  0.4776E+09
   -2.062175    1.98055  0.0000E+00  0.1319E-04  0.6350E-07  0.2249E-03  0.3201E-02  0.1777E+12
   -2.130914    2.18298  0.0000E+00  0.1174E-04  0.5525E-07  0.2062E-03  0.2649E-02  0.4691E+14
   -2.199653    2.53693  0.0000E+00  0.1058E-04  0.4880E-07  0.1934E-03  0.2082E-02  0.4011E+15
   -2.268391    2.70228  0.0000E+00  0.9546E-05  0.4384E-07  0.1779E-03  0.1733E-02  0.4474E+15
   -2.337129    2.91528  0.0000E+00  0.8493E-05  0.3947E-07  0.1624E-03  0.1401E-02  0.9636E+14
   -2.405866    3.21885  0.0000E+00  0.7630E-05  0.3665E-07  0.1483E-03  0.1063E-02 -0.1163E+16
   -2.474603    3.53553  0.0000E+00  0.6897E-05  0.3580E-07  0.1297E-03  0.8792E-03 -0.3743E+16
   -2.543339    3.84824  0.0000E+00  0.6122E-05  0.3741E-07  0.1046E-03  0.7109E-03 -0.6704E+16
   -2.612074    4.18610  0.0000E+00  0.5191E-05  0.4626E-07  0.7043E-04  0.5517E-03 -0.8820E+16
   -2.680809    4.51949  0.0000E+00  0.2754E-05  0.1320E-06  0.1014E-04  0.4176E-03 -0.5600E+16
   -2.749544    4.77088  0.0000E+00  0.0000E+00  0.0000E+00  0.0000E+00  0.4212E-03  0.0000E+00
