 1 - depth, m
 2 - temperature, C
 3 - salinity, kg/kg
 4 - turbulent kinetic energy, m**2/s**2
 5 - dissipation rate, m**2/s**3
 6 - kinematic heat conductance, m**2/s
 7 - modulus of horizontal velocity, m/s
 8 - Richardson number, n/d
   -0.000000    0.00000  0.0000E+00  0.9571E-13  0.1279E-16  0.1000E-09  0.0000E+00  0.1428E+17
   -0.068731    0.22079  0.0000E+00  0.1779E-12  0.1531E-16  0.1000E-09  0.0000E+00  0.1357E+17
   -0.137463    0.44406  0.0000E+00  0.3609E-12  0.2580E-16  0.1000E-09  0.0000E+00  0.1272E+17
   -0.206196    0.66798  0.0000E+00  0.7153E-12  0.4763E-16  0.1000E-09  0.0000E+00  0.1180E+17
   -0.274929    0.89097  0.0000E+00  0.1385E-11  0.8898E-16  0.1000E-09  0.0000E+00  0.1087E+17
   -0.343663    1.11254  0.0000E+00  0.2639E-11  0.1653E-15  0.1000E-09  0.0000E+00  0.9934E+16
   -0.412397    1.33193  0.0000E+00  0.4980E-11  0.3049E-15  0.1000E-09  0.0000E+00  0.9002E+16
   -0.481132    1.54856  0.0000E+00  0.9324E-11  0.5585E-15  0.1000E-09  0.0000E+00  0.8085E+16
   -0.549867    1.76180  0.0000E+00  0.1736E-10  0.1018E-14  0.1000E-09  0.0000E+00  0.7181E+16
   -0.618603    1.97077  0.0000E+00  0.3215E-10  0.1845E-14  0.1000E-09  0.0000E+00  0.6312E+16
   -0.687339    2.17500  0.0000E+00  0.5916E-10  0.3325E-14  0.1000E-09  0.0000E+00  0.5521E+16
   -0.756075    2.37540  0.0000E+00  0.1082E-09  0.5958E-14  0.1000E-09  0.0000E+00  0.4783E+16
   -0.824812    2.57246  0.0000E+00  0.1968E-09  0.1061E-13  0.1000E-09  0.0000E+00  0.4076E+16
   -0.893548    2.76591  0.0000E+00  0.3558E-09  0.1879E-13  0.1000E-09  0.0000E+00  0.3404E+16
   -0.962286    2.95553  0.0000E+00  0.6395E-09  0.3309E-13  0.1000E-09  0.0000E+00  0.2769E+16
   -1.031023    3.14117  0.0000E+00  0.1141E-08  0.5788E-13  0.1355E-09  0.0000E+00  0.2175E+16
   -1.099761    3.32307  0.0000E+00  0.2023E-08  0.1005E-12  0.3165E-09  0.0000E+00  0.1617E+16
   -1.168498    3.50128  0.0000E+00  0.3562E-08  0.1735E-12  0.8075E-09  0.0000E+00  0.1095E+16
   -1.237236    3.67586  0.0000E+00  0.6229E-08  0.2975E-12  0.2514E-08  0.0000E+00  0.6033E+15
   -1.305974    3.84614  0.0000E+00  0.1075E-07  0.5039E-12  0.1687E-07  0.0000E+00  0.1528E+15
   -1.374712    3.99964  0.0000E+00  0.1108E-07  0.5201E-12  0.8763E-04  0.0000E+00 -0.4558E+11
   -1.443450    3.99986  0.0000E+00  0.1123E-07  0.5288E-12  0.8625E-04  0.0000E+00 -0.5789E+11
   -1.512187    4.00013  0.0000E+00  0.1136E-07  0.5380E-12  0.8766E-04  0.0000E+00 -0.5944E+11
   -1.580925    4.00040  0.0000E+00  0.1148E-07  0.5481E-12  0.8873E-04  0.0000E+00 -0.6030E+11
   -1.649663    4.00067  0.0000E+00  0.1159E-07  0.5592E-12  0.8974E-04  0.0000E+00 -0.6095E+11
   -1.718400    4.00094  0.0000E+00  0.1168E-07  0.5713E-12  0.9062E-04  0.0000E+00 -0.6158E+11
   -1.787138    4.00121  0.0000E+00  0.1176E-07  0.5845E-12  0.9101E-04  0.0000E+00 -0.6249E+11
   -1.855875    4.00147  0.0000E+00  0.1182E-07  0.5995E-12  0.9037E-04  0.0000E+00 -0.6413E+11
   -1.924612    4.00174  0.0000E+00  0.1187E-07  0.6169E-12  0.8837E-04  0.0000E+00 -0.6684E+11
   -1.993348    4.00202  0.0000E+00  0.1191E-07  0.6376E-12  0.8467E-04  0.0000E+00 -0.7118E+11
   -2.062085    4.00230  0.0000E+00  0.1193E-07  0.6626E-12  0.7918E-04  0.0000E+00 -0.7744E+11
   -2.130821    4.00261  0.0000E+00  0.1193E-07  0.6931E-12  0.7160E-04  0.0000E+00 -0.8708E+11
   -2.199556    4.00295  0.0000E+00  0.1190E-07  0.7306E-12  0.6437E-04  0.0000E+00 -0.9871E+11
   -2.268291    4.00332  0.0000E+00  0.1184E-07  0.7781E-12  0.5770E-04  0.0000E+00 -0.1127E+12
   -2.337026    4.00374  0.0000E+00  0.1175E-07  0.8422E-12  0.5062E-04  0.0000E+00 -0.1321E+12
   -2.405760    4.00422  0.0000E+00  0.1159E-07  0.9339E-12  0.4258E-04  0.0000E+00 -0.1622E+12
   -2.474494    4.00479  0.0000E+00  0.1135E-07  0.1077E-11  0.3338E-04  0.0000E+00 -0.2157E+12
   -2.543227    4.00552  0.0000E+00  0.1096E-07  0.1340E-11  0.2290E-04  0.0000E+00 -0.3341E+12
   -2.611960    4.00660  0.0000E+00  0.1015E-07  0.2004E-11  0.1135E-04  0.0000E+00 -0.7518E+12
   -2.680692    4.00884  0.0000E+00  0.6661E-08  0.6623E-11  0.1127E-05  0.0000E+00 -0.1210E+14
   -2.749423    4.03163  0.0000E+00  0.0000E+00  0.0000E+00  0.0000E+00  0.0000E+00  0.0000E+00
