 1 - depth, m
 2 - temperature, C
 3 - salinity, kg/kg
 4 - turbulent kinetic energy, m**2/s**2
 5 - dissipation rate, m**2/s**3
 6 - kinematic heat conductance, m**2/s
 7 - modulus of horizontal velocity, m/s
 8 - Richardson number, n/d
   -0.000000    1.48741  0.0000E+00  0.1157E-03  0.3740E-04  0.7726E-04  0.9398E-01  0.3014E-02
   -0.068733    1.51752  0.0000E+00  0.6389E-04  0.9524E-05  0.1189E-03  0.3709E-01  0.3766E-01
   -0.137467    1.52489  0.0000E+00  0.4580E-04  0.4005E-05  0.1221E-03  0.2835E-01  0.7176E-02
   -0.206201    1.53049  0.0000E+00  0.3440E-04  0.1853E-05  0.1311E-03  0.2311E-01  0.1206E-01
   -0.274936    1.53508  0.0000E+00  0.2730E-04  0.9427E-06  0.1401E-03  0.1941E-01  0.1665E-01
   -0.343672    1.53905  0.0000E+00  0.2243E-04  0.5244E-06  0.1484E-03  0.1642E-01  0.2228E-01
   -0.412408    1.54256  0.0000E+00  0.1886E-04  0.3184E-06  0.1541E-03  0.1397E-01  0.2916E-01
   -0.481144    1.54576  0.0000E+00  0.1603E-04  0.2074E-06  0.1563E-03  0.1192E-01  0.3785E-01
   -0.549881    1.54875  0.0000E+00  0.1365E-04  0.1417E-06  0.1565E-03  0.1018E-01  0.5227E-01
   -0.618619    1.55160  0.0000E+00  0.1162E-04  0.1002E-06  0.1530E-03  0.8730E-02  0.7150E-01
   -0.687356    1.55437  0.0000E+00  0.9874E-05  0.7254E-07  0.1464E-03  0.7498E-02  0.9791E-01
   -0.756095    1.55714  0.0000E+00  0.8356E-05  0.5340E-07  0.1373E-03  0.6442E-02  0.1355E+00
   -0.824833    1.55997  0.0000E+00  0.7029E-05  0.3970E-07  0.1262E-03  0.5529E-02  0.1919E+00
   -0.893572    1.56292  0.0000E+00  0.5867E-05  0.2969E-07  0.1137E-03  0.4738E-02  0.2838E+00
   -0.962311    1.56608  0.0000E+00  0.4860E-05  0.2229E-07  0.1008E-03  0.4055E-02  0.4615E+00
   -1.031050    1.56959  0.0000E+00  0.4004E-05  0.1686E-07  0.8581E-04  0.3477E-02  0.6939E+00
   -1.099789    1.57389  0.0000E+00  0.3266E-05  0.1277E-07  0.7121E-04  0.2950E-02  0.1180E+01
   -1.168528    1.58053  0.0000E+00  0.2633E-05  0.9667E-08  0.5754E-04  0.2462E-02  0.3636E+01
   -1.237268    1.59211  0.0000E+00  0.2090E-05  0.7290E-08  0.4500E-04  0.2021E-02  0.3660E+02
   -1.306008    1.61501  0.0000E+00  0.1638E-05  0.5470E-08  0.3433E-04  0.1609E-02  0.5658E+03
   -1.374747    1.64596  0.0000E+00  0.1265E-05  0.4075E-08  0.2498E-04  0.1263E-02  0.1750E+05
   -1.443487    1.67905  0.0000E+00  0.9505E-06  0.2982E-08  0.1678E-04  0.9683E-03  0.8287E+06
   -1.512226    1.72103  0.0000E+00  0.6757E-06  0.2077E-08  0.1061E-04  0.6947E-03  0.4902E+08
   -1.580966    1.76598  0.0000E+00  0.4450E-06  0.1346E-08  0.5816E-05  0.4729E-03  0.4543E+10
   -1.649705    1.81448  0.0000E+00  0.2634E-06  0.7829E-09  0.2387E-05  0.3021E-03  0.6355E+12
   -1.718445    1.87923  0.0000E+00  0.1155E-06  0.3404E-09  0.2465E-06  0.1778E-03  0.9441E+14
   -1.787184    1.98970  0.0000E+00  0.1952E-07  0.5793E-10  0.3280E-07  0.6004E-04  0.1118E+16
   -1.855923    2.17846  0.0000E+00  0.2541E-08  0.5771E-11  0.5790E-08  0.8866E-05  0.1820E+16
   -1.924661    2.34041  0.0000E+00  0.6095E-08  0.3441E-11  0.2332E-08  0.8930E-06  0.2290E+16
   -1.993400    2.52171  0.0000E+00  0.2935E-07  0.1275E-10  0.9841E-08  0.7824E-07  0.2616E+16
   -2.062138    2.85475  0.0000E+00  0.6997E-07  0.3064E-10  0.1697E-04  0.6492E-08  0.2937E+16
   -2.130876    3.30204  0.0000E+00  0.1090E-06  0.5021E-10  0.5382E-04  0.4872E-09  0.4499E+16
   -2.199613    3.74208  0.0000E+00  0.1446E-06  0.6928E-10  0.8413E-04  0.2175E-10  0.2475E+16
   -2.268350    4.10158  0.0000E+00  0.1619E-06  0.8032E-10  0.1150E-03  0.1389E-10  0.1068E+15
   -2.337087    4.15970  0.0000E+00  0.1686E-06  0.8684E-10  0.1227E-03  0.8698E-11 -0.7314E+13
   -2.405823    4.16252  0.0000E+00  0.1722E-06  0.9379E-10  0.1185E-03  0.5322E-11 -0.8144E+13
   -2.474558    4.16551  0.0000E+00  0.1737E-06  0.1031E-09  0.1095E-03  0.3116E-11 -0.9209E+13
   -2.543293    4.16882  0.0000E+00  0.1723E-06  0.1187E-09  0.9206E-04  0.1682E-11 -0.1148E+14
   -2.612028    4.17288  0.0000E+00  0.1649E-06  0.1564E-09  0.5220E-04  0.7653E-12 -0.2152E+14
   -2.680761    4.18026  0.0000E+00  0.1105E-06  0.4576E-09  0.5324E-05  0.2240E-12 -0.2761E+15
   -2.749494    4.25703  0.0000E+00  0.0000E+00  0.0000E+00  0.0000E+00  0.2276E-12  0.0000E+00
