 1 - depth, m
 2 - temperature, C
 3 - salinity, kg/kg
 4 - turbulent kinetic energy, m**2/s**2
 5 - dissipation rate, m**2/s**3
 6 - kinematic heat conductance, m**2/s
 7 - modulus of horizontal velocity, m/s
 8 - Richardson number, n/d
   -0.000000    0.00000  0.0000E+00  0.1219E-13  0.7604E-17  0.1000E-09  0.0000E+00  0.1360E+17
   -0.068730    0.20990  0.0000E+00  0.1219E-13  0.7604E-17  0.1000E-09  0.0000E+00  0.1225E+17
   -0.137460    0.41014  0.0000E+00  0.1219E-13  0.7604E-17  0.1000E-09  0.0000E+00  0.1100E+17
   -0.206191    0.60070  0.0000E+00  0.1219E-13  0.7604E-17  0.1000E-09  0.0000E+00  0.9843E+16
   -0.274923    0.78143  0.0000E+00  0.1219E-13  0.7604E-17  0.1000E-09  0.0000E+00  0.8897E+16
   -0.343655    0.95458  0.0000E+00  0.1219E-13  0.7604E-17  0.1000E-09  0.0000E+00  0.8044E+16
   -0.412388    1.12060  0.0000E+00  0.2839E-13  0.7604E-17  0.1000E-09  0.0000E+00  0.7263E+16
   -0.481121    1.27967  0.0000E+00  0.9378E-13  0.1151E-16  0.1000E-09  0.0000E+00  0.6536E+16
   -0.549855    1.43167  0.0000E+00  0.2349E-12  0.2400E-16  0.1000E-09  0.0000E+00  0.5823E+16
   -0.618589    1.57551  0.0000E+00  0.5338E-12  0.5149E-16  0.1000E-09  0.0000E+00  0.5185E+16
   -0.687324    1.71155  0.0000E+00  0.1171E-11  0.1094E-15  0.1000E-09  0.0000E+00  0.4763E+16
   -0.756059    1.84444  0.0000E+00  0.2526E-11  0.2299E-15  0.1000E-09  0.0000E+00  0.4470E+16
   -0.824794    1.97744  0.0000E+00  0.5391E-11  0.4787E-15  0.1000E-09  0.0000E+00  0.4205E+16
   -0.893529    2.11143  0.0000E+00  0.1140E-10  0.9881E-15  0.1000E-09  0.0000E+00  0.3959E+16
   -0.962265    2.24731  0.0000E+00  0.2390E-10  0.2023E-14  0.1000E-09  0.0000E+00  0.3726E+16
   -1.031001    2.38603  0.0000E+00  0.4965E-10  0.4106E-14  0.1000E-09  0.0000E+00  0.3516E+16
   -1.099737    2.52934  0.0000E+00  0.1022E-09  0.8261E-14  0.1000E-09  0.0000E+00  0.3300E+16
   -1.168473    2.67843  0.0000E+00  0.2088E-09  0.1650E-13  0.1000E-09  0.0000E+00  0.3069E+16
   -1.237209    2.83466  0.0000E+00  0.4233E-09  0.3271E-13  0.1000E-09  0.0000E+00  0.2812E+16
   -1.305946    2.99972  0.0000E+00  0.8523E-09  0.6443E-13  0.1306E-09  0.0000E+00  0.2511E+16
   -1.374682    3.17554  0.0000E+00  0.1704E-08  0.1261E-12  0.2973E-09  0.0000E+00  0.2160E+16
   -1.443418    3.36608  0.0000E+00  0.3385E-08  0.2452E-12  0.7413E-09  0.0000E+00  0.1686E+16
   -1.512155    3.57253  0.0000E+00  0.6684E-08  0.4740E-12  0.2303E-08  0.0000E+00  0.1052E+16
   -1.580891    3.79222  0.0000E+00  0.1307E-07  0.9092E-12  0.1589E-07  0.0000E+00  0.2939E+15
   -1.649627    4.00319  0.0000E+00  0.1378E-07  0.9611E-12  0.7060E-04  0.0000E+00 -0.1039E+12
   -1.718363    4.00358  0.0000E+00  0.1411E-07  0.9903E-12  0.7163E-04  0.0000E+00 -0.1274E+12
   -1.787099    4.00405  0.0000E+00  0.1440E-07  0.1022E-11  0.7346E-04  0.0000E+00 -0.1336E+12
   -1.855835    4.00452  0.0000E+00  0.1466E-07  0.1056E-11  0.7516E-04  0.0000E+00 -0.1388E+12
   -1.924570    4.00500  0.0000E+00  0.1488E-07  0.1095E-11  0.7655E-04  0.0000E+00 -0.1446E+12
   -1.993305    4.00549  0.0000E+00  0.1508E-07  0.1137E-11  0.7729E-04  0.0000E+00 -0.1519E+12
   -2.062040    4.00599  0.0000E+00  0.1524E-07  0.1185E-11  0.7586E-04  0.0000E+00 -0.1603E+12
   -2.130775    4.00650  0.0000E+00  0.1538E-07  0.1243E-11  0.7295E-04  0.0000E+00 -0.1721E+12
   -2.199509    4.00704  0.0000E+00  0.1547E-07  0.1314E-11  0.6784E-04  0.0000E+00 -0.1913E+12
   -2.268242    4.00762  0.0000E+00  0.1551E-07  0.1403E-11  0.6101E-04  0.0000E+00 -0.2202E+12
   -2.336976    4.00827  0.0000E+00  0.1550E-07  0.1521E-11  0.5383E-04  0.0000E+00 -0.2598E+12
   -2.405708    4.00902  0.0000E+00  0.1540E-07  0.1687E-11  0.4599E-04  0.0000E+00 -0.3185E+12
   -2.474441    4.00990  0.0000E+00  0.1519E-07  0.1941E-11  0.3685E-04  0.0000E+00 -0.4206E+12
   -2.543172    4.01101  0.0000E+00  0.1477E-07  0.2399E-11  0.2600E-04  0.0000E+00 -0.6447E+12
   -2.611904    4.01263  0.0000E+00  0.1382E-07  0.3529E-11  0.1346E-04  0.0000E+00 -0.1423E+13
   -2.680634    4.01588  0.0000E+00  0.9647E-08  0.1107E-10  0.1588E-05  0.0000E+00 -0.2037E+14
   -2.749364    4.04527  0.0000E+00  0.0000E+00  0.0000E+00  0.0000E+00  0.0000E+00  0.0000E+00
