 1 - depth, m
 2 - temperature, C
 3 - salinity, kg/kg
 4 - turbulent kinetic energy, m**2/s**2
 5 - dissipation rate, m**2/s**3
 6 - kinematic heat conductance, m**2/s
 7 - modulus of horizontal velocity, m/s
 8 - Richardson number, n/d
   -0.000000    0.00000  0.0000E+00  0.1219E-13  0.7603E-17  0.1000E-09  0.0000E+00  0.1293E+17
   -0.068745    0.19921  0.0000E+00  0.1219E-13  0.7603E-17  0.1000E-09  0.0000E+00  0.1215E+17
   -0.137491    0.39723  0.0000E+00  0.1219E-13  0.7603E-17  0.1000E-09  0.0000E+00  0.1138E+17
   -0.206237    0.59385  0.0000E+00  0.1219E-13  0.7603E-17  0.1000E-09  0.0000E+00  0.1062E+17
   -0.274984    0.78879  0.0000E+00  0.1252E-13  0.7603E-17  0.1000E-09  0.0000E+00  0.9879E+16
   -0.343731    0.98218  0.0000E+00  0.6035E-13  0.7607E-17  0.1000E-09  0.0000E+00  0.9151E+16
   -0.412479    1.17380  0.0000E+00  0.1573E-12  0.1291E-16  0.1000E-09  0.0000E+00  0.8432E+16
   -0.481228    1.36335  0.0000E+00  0.3378E-12  0.2458E-16  0.1000E-09  0.0000E+00  0.7722E+16
   -0.549977    1.55045  0.0000E+00  0.6786E-12  0.4717E-16  0.1000E-09  0.0000E+00  0.7019E+16
   -0.618726    1.73453  0.0000E+00  0.1328E-11  0.8981E-16  0.1000E-09  0.0000E+00  0.6336E+16
   -0.687476    1.91527  0.0000E+00  0.2566E-11  0.1697E-15  0.1000E-09  0.0000E+00  0.5698E+16
   -0.756226    2.09303  0.0000E+00  0.4919E-11  0.3186E-15  0.1000E-09  0.0000E+00  0.5093E+16
   -0.824976    2.26795  0.0000E+00  0.9369E-11  0.5947E-15  0.1000E-09  0.0000E+00  0.4509E+16
   -0.893727    2.43973  0.0000E+00  0.1774E-10  0.1104E-14  0.1000E-09  0.0000E+00  0.3947E+16
   -0.962478    2.60804  0.0000E+00  0.3341E-10  0.2038E-14  0.1000E-09  0.0000E+00  0.3408E+16
   -1.031229    2.77247  0.0000E+00  0.6251E-10  0.3738E-14  0.1000E-09  0.0000E+00  0.2900E+16
   -1.099980    2.93284  0.0000E+00  0.1162E-09  0.6814E-14  0.1000E-09  0.0000E+00  0.2418E+16
   -1.168731    3.08860  0.0000E+00  0.2147E-09  0.1235E-13  0.1000E-09  0.0000E+00  0.1965E+16
   -1.237483    3.23914  0.0000E+00  0.3947E-09  0.2227E-13  0.1000E-09  0.0000E+00  0.1546E+16
   -1.306235    3.38382  0.0000E+00  0.7217E-09  0.3996E-13  0.1746E-09  0.0000E+00  0.1165E+16
   -1.374986    3.52208  0.0000E+00  0.1313E-08  0.7134E-13  0.4349E-09  0.0000E+00  0.8350E+15
   -1.443738    3.65527  0.0000E+00  0.2376E-08  0.1267E-12  0.1195E-08  0.0000E+00  0.5398E+15
   -1.512489    3.78392  0.0000E+00  0.4275E-08  0.2238E-12  0.4185E-08  0.0000E+00  0.2722E+15
   -1.581241    3.90700  0.0000E+00  0.7546E-08  0.3888E-12  0.4198E-07  0.0000E+00  0.4710E+14
   -1.649992    4.00312  0.0000E+00  0.7940E-08  0.4103E-12  0.6213E-04  0.0000E+00 -0.6532E+11
   -1.718743    4.00336  0.0000E+00  0.8116E-08  0.4217E-12  0.6089E-04  0.0000E+00 -0.7543E+11
   -1.787494    4.00364  0.0000E+00  0.8266E-08  0.4336E-12  0.6115E-04  0.0000E+00 -0.7725E+11
   -1.856245    4.00392  0.0000E+00  0.8398E-08  0.4468E-12  0.6073E-04  0.0000E+00 -0.7912E+11
   -1.924996    4.00421  0.0000E+00  0.8510E-08  0.4616E-12  0.5956E-04  0.0000E+00 -0.8181E+11
   -1.993746    4.00450  0.0000E+00  0.8602E-08  0.4784E-12  0.5754E-04  0.0000E+00 -0.8572E+11
   -2.062496    4.00480  0.0000E+00  0.8673E-08  0.4980E-12  0.5498E-04  0.0000E+00 -0.9136E+11
   -2.131246    4.00511  0.0000E+00  0.8720E-08  0.5209E-12  0.5191E-04  0.0000E+00 -0.9868E+11
   -2.199995    4.00544  0.0000E+00  0.8741E-08  0.5484E-12  0.4842E-04  0.0000E+00 -0.1080E+12
   -2.268744    4.00580  0.0000E+00  0.8732E-08  0.5826E-12  0.4437E-04  0.0000E+00 -0.1208E+12
   -2.337493    4.00619  0.0000E+00  0.8686E-08  0.6285E-12  0.3946E-04  0.0000E+00 -0.1396E+12
   -2.406241    4.00663  0.0000E+00  0.8592E-08  0.6938E-12  0.3355E-04  0.0000E+00 -0.1698E+12
   -2.474988    4.00716  0.0000E+00  0.8424E-08  0.7955E-12  0.2655E-04  0.0000E+00 -0.2238E+12
   -2.543735    4.00783  0.0000E+00  0.8124E-08  0.9824E-12  0.1834E-04  0.0000E+00 -0.3449E+12
   -2.612481    4.00883  0.0000E+00  0.7490E-08  0.1457E-11  0.9054E-05  0.0000E+00 -0.7819E+12
   -2.681227    4.01095  0.0000E+00  0.4851E-08  0.4598E-11  0.9007E-06  0.0000E+00 -0.1217E+14
   -2.749972    4.03280  0.0000E+00  0.0000E+00  0.0000E+00  0.0000E+00  0.0000E+00  0.0000E+00
