 1 - depth, m
 2 - temperature, C
 3 - salinity, kg/kg
 4 - turbulent kinetic energy, m**2/s**2
 5 - dissipation rate, m**2/s**3
 6 - kinematic heat conductance, m**2/s
 7 - modulus of horizontal velocity, m/s
 8 - Richardson number, n/d
   -0.000000    0.00000  0.0000E+00  0.1847E-13  0.7604E-17  0.1000E-09  0.0000E+00  0.1431E+17
   -0.068772    0.22116  0.0000E+00  0.6626E-13  0.8429E-17  0.1000E-09  0.0000E+00  0.1303E+17
   -0.137545    0.43541  0.0000E+00  0.1683E-12  0.1568E-16  0.1000E-09  0.0000E+00  0.1187E+17
   -0.206319    0.64321  0.0000E+00  0.3721E-12  0.3177E-16  0.1000E-09  0.0000E+00  0.1080E+17
   -0.275093    0.84497  0.0000E+00  0.7809E-12  0.6423E-16  0.1000E-09  0.0000E+00  0.9889E+16
   -0.343867    1.04247  0.0000E+00  0.1602E-11  0.1285E-15  0.1000E-09  0.0000E+00  0.9055E+16
   -0.412643    1.23636  0.0000E+00  0.3250E-11  0.2547E-15  0.1000E-09  0.0000E+00  0.8279E+16
   -0.481418    1.42709  0.0000E+00  0.6539E-11  0.5014E-15  0.1000E-09  0.0000E+00  0.7545E+16
   -0.550194    1.61486  0.0000E+00  0.1308E-10  0.9819E-15  0.1000E-09  0.0000E+00  0.6831E+16
   -0.618971    1.79928  0.0000E+00  0.2603E-10  0.1912E-14  0.1000E-09  0.0000E+00  0.6166E+16
   -0.687748    1.98085  0.0000E+00  0.5146E-10  0.3703E-14  0.1000E-09  0.0000E+00  0.5651E+16
   -0.756525    2.16361  0.0000E+00  0.1011E-09  0.7128E-14  0.1000E-09  0.0000E+00  0.5203E+16
   -0.825303    2.35043  0.0000E+00  0.1976E-09  0.1364E-13  0.1000E-09  0.0000E+00  0.4740E+16
   -0.894080    2.54212  0.0000E+00  0.3838E-09  0.2597E-13  0.1000E-09  0.0000E+00  0.4248E+16
   -0.962858    2.73940  0.0000E+00  0.7413E-09  0.4917E-13  0.1000E-09  0.0000E+00  0.3717E+16
   -1.031637    2.94283  0.0000E+00  0.1422E-08  0.9247E-13  0.1504E-09  0.0000E+00  0.3130E+16
   -1.100415    3.15254  0.0000E+00  0.2709E-08  0.1728E-12  0.3547E-09  0.0000E+00  0.2481E+16
   -1.169194    3.36815  0.0000E+00  0.5131E-08  0.3209E-12  0.9247E-09  0.0000E+00  0.1768E+16
   -1.237972    3.58844  0.0000E+00  0.9651E-08  0.5922E-12  0.3015E-08  0.0000E+00  0.1001E+16
   -1.306751    3.80996  0.0000E+00  0.1786E-07  0.1077E-11  0.2286E-07  0.0000E+00  0.2407E+15
   -1.375530    4.00722  0.0000E+00  0.1835E-07  0.1108E-11  0.1112E-03  0.0000E+00 -0.8262E+11
   -1.444309    4.00747  0.0000E+00  0.1858E-07  0.1126E-11  0.1102E-03  0.0000E+00 -0.9463E+11
   -1.513088    4.00776  0.0000E+00  0.1880E-07  0.1146E-11  0.1133E-03  0.0000E+00 -0.9660E+11
   -1.581866    4.00804  0.0000E+00  0.1899E-07  0.1168E-11  0.1156E-03  0.0000E+00 -0.9748E+11
   -1.650645    4.00833  0.0000E+00  0.1916E-07  0.1191E-11  0.1175E-03  0.0000E+00 -0.9837E+11
   -1.719423    4.00861  0.0000E+00  0.1930E-07  0.1216E-11  0.1177E-03  0.0000E+00 -0.1006E+12
   -1.788201    4.00890  0.0000E+00  0.1942E-07  0.1243E-11  0.1168E-03  0.0000E+00 -0.1037E+12
   -1.856980    4.00919  0.0000E+00  0.1953E-07  0.1273E-11  0.1154E-03  0.0000E+00 -0.1075E+12
   -1.925757    4.00949  0.0000E+00  0.1961E-07  0.1307E-11  0.1136E-03  0.0000E+00 -0.1121E+12
   -1.994535    4.00979  0.0000E+00  0.1967E-07  0.1346E-11  0.1113E-03  0.0000E+00 -0.1175E+12
   -2.063312    4.01011  0.0000E+00  0.1971E-07  0.1390E-11  0.1083E-03  0.0000E+00 -0.1230E+12
   -2.132089    4.01044  0.0000E+00  0.1972E-07  0.1441E-11  0.1048E-03  0.0000E+00 -0.1295E+12
   -2.200866    4.01078  0.0000E+00  0.1970E-07  0.1507E-11  0.1005E-03  0.0000E+00 -0.1375E+12
   -2.269642    4.01113  0.0000E+00  0.1964E-07  0.1599E-11  0.8773E-04  0.0000E+00 -0.1608E+12
   -2.338417    4.01155  0.0000E+00  0.1951E-07  0.1727E-11  0.7266E-04  0.0000E+00 -0.1989E+12
   -2.407193    4.01204  0.0000E+00  0.1929E-07  0.1913E-11  0.5962E-04  0.0000E+00 -0.2495E+12
   -2.475967    4.01266  0.0000E+00  0.1894E-07  0.2202E-11  0.4670E-04  0.0000E+00 -0.3304E+12
   -2.544741    4.01345  0.0000E+00  0.1835E-07  0.2725E-11  0.3231E-04  0.0000E+00 -0.5028E+12
   -2.613515    4.01460  0.0000E+00  0.1714E-07  0.4024E-11  0.1640E-04  0.0000E+00 -0.1084E+13
   -2.682288    4.01695  0.0000E+00  0.1146E-07  0.1352E-10  0.1610E-05  0.0000E+00 -0.1640E+14
   -2.751060    4.04139  0.0000E+00  0.0000E+00  0.0000E+00  0.0000E+00  0.0000E+00  0.0000E+00
