 1 - depth, m
 2 - temperature, C
 3 - salinity, kg/kg
 4 - turbulent kinetic energy, m**2/s**2
 5 - dissipation rate, m**2/s**3
 6 - kinematic heat conductance, m**2/s
 7 - modulus of horizontal velocity, m/s
 8 - Richardson number, n/d
   -0.000000    0.00000  0.0000E+00  0.1219E-13  0.7603E-17  0.1000E-09  0.0000E+00  0.1382E+17
   -0.068744    0.21339  0.0000E+00  0.1219E-13  0.7603E-17  0.1000E-09  0.0000E+00  0.1261E+17
   -0.137488    0.42002  0.0000E+00  0.2453E-13  0.7603E-17  0.1000E-09  0.0000E+00  0.1150E+17
   -0.206233    0.62022  0.0000E+00  0.8551E-13  0.1068E-16  0.1000E-09  0.0000E+00  0.1048E+17
   -0.274978    0.81425  0.0000E+00  0.2153E-12  0.2175E-16  0.1000E-09  0.0000E+00  0.9617E+16
   -0.343724    1.00403  0.0000E+00  0.4845E-12  0.4598E-16  0.1000E-09  0.0000E+00  0.8826E+16
   -0.412471    1.19013  0.0000E+00  0.1049E-11  0.9643E-16  0.1000E-09  0.0000E+00  0.8089E+16
   -0.481218    1.37287  0.0000E+00  0.2233E-11  0.2002E-15  0.1000E-09  0.0000E+00  0.7388E+16
   -0.549965    1.55230  0.0000E+00  0.4713E-11  0.4129E-15  0.1000E-09  0.0000E+00  0.6699E+16
   -0.618713    1.72780  0.0000E+00  0.9875E-11  0.8457E-15  0.1000E-09  0.0000E+00  0.6059E+16
   -0.687461    1.89973  0.0000E+00  0.2054E-10  0.1720E-14  0.1000E-09  0.0000E+00  0.5578E+16
   -0.756210    2.07210  0.0000E+00  0.4244E-10  0.3476E-14  0.1000E-09  0.0000E+00  0.5175E+16
   -0.824959    2.24776  0.0000E+00  0.8708E-10  0.6977E-14  0.1000E-09  0.0000E+00  0.4765E+16
   -0.893708    2.42747  0.0000E+00  0.1775E-09  0.1392E-13  0.1000E-09  0.0000E+00  0.4340E+16
   -0.962458    2.61200  0.0000E+00  0.3594E-09  0.2758E-13  0.1000E-09  0.0000E+00  0.3887E+16
   -1.031207    2.80203  0.0000E+00  0.7222E-09  0.5426E-13  0.1000E-09  0.0000E+00  0.3398E+16
   -1.099957    2.99830  0.0000E+00  0.1440E-08  0.1060E-12  0.1889E-09  0.0000E+00  0.2856E+16
   -1.168707    3.20104  0.0000E+00  0.2853E-08  0.2056E-12  0.4645E-09  0.0000E+00  0.2254E+16
   -1.237457    3.41010  0.0000E+00  0.5614E-08  0.3964E-12  0.1272E-08  0.0000E+00  0.1588E+16
   -1.306207    3.62459  0.0000E+00  0.1096E-07  0.7584E-12  0.4484E-08  0.0000E+00  0.8622E+15
   -1.374957    3.84059  0.0000E+00  0.2080E-07  0.1415E-11  0.4524E-07  0.0000E+00  0.1608E+15
   -1.443707    4.01416  0.0000E+00  0.2139E-07  0.1458E-11  0.1153E-03  0.0000E+00 -0.1081E+12
   -1.512458    4.01441  0.0000E+00  0.2168E-07  0.1482E-11  0.1144E-03  0.0000E+00 -0.1224E+12
   -1.581208    4.01468  0.0000E+00  0.2194E-07  0.1510E-11  0.1185E-03  0.0000E+00 -0.1234E+12
   -1.649958    4.01496  0.0000E+00  0.2217E-07  0.1540E-11  0.1207E-03  0.0000E+00 -0.1247E+12
   -1.718707    4.01524  0.0000E+00  0.2236E-07  0.1571E-11  0.1215E-03  0.0000E+00 -0.1269E+12
   -1.787457    4.01552  0.0000E+00  0.2252E-07  0.1606E-11  0.1212E-03  0.0000E+00 -0.1304E+12
   -1.856206    4.01580  0.0000E+00  0.2266E-07  0.1644E-11  0.1200E-03  0.0000E+00 -0.1349E+12
   -1.924956    4.01609  0.0000E+00  0.2278E-07  0.1687E-11  0.1183E-03  0.0000E+00 -0.1403E+12
   -1.993704    4.01639  0.0000E+00  0.2287E-07  0.1735E-11  0.1162E-03  0.0000E+00 -0.1469E+12
   -2.062453    4.01670  0.0000E+00  0.2292E-07  0.1791E-11  0.1133E-03  0.0000E+00 -0.1531E+12
   -2.131201    4.01702  0.0000E+00  0.2295E-07  0.1854E-11  0.1098E-03  0.0000E+00 -0.1605E+12
   -2.199949    4.01735  0.0000E+00  0.2293E-07  0.1931E-11  0.1056E-03  0.0000E+00 -0.1695E+12
   -2.268697    4.01770  0.0000E+00  0.2287E-07  0.2036E-11  0.9871E-04  0.0000E+00 -0.1845E+12
   -2.337444    4.01807  0.0000E+00  0.2273E-07  0.2191E-11  0.8077E-04  0.0000E+00 -0.2299E+12
   -2.406190    4.01853  0.0000E+00  0.2248E-07  0.2417E-11  0.6509E-04  0.0000E+00 -0.2922E+12
   -2.474936    4.01911  0.0000E+00  0.2208E-07  0.2769E-11  0.5083E-04  0.0000E+00 -0.3859E+12
   -2.543682    4.01985  0.0000E+00  0.2140E-07  0.3408E-11  0.3533E-04  0.0000E+00 -0.5803E+12
   -2.612427    4.02094  0.0000E+00  0.2002E-07  0.4984E-11  0.1810E-04  0.0000E+00 -0.1224E+13
   -2.681171    4.02313  0.0000E+00  0.1326E-07  0.1677E-10  0.1714E-05  0.0000E+00 -0.1813E+14
   -2.749915    4.04691  0.0000E+00  0.0000E+00  0.0000E+00  0.0000E+00  0.0000E+00  0.0000E+00
