 1 - depth, m
 2 - temperature, C
 3 - salinity, kg/kg
 4 - turbulent kinetic energy, m**2/s**2
 5 - dissipation rate, m**2/s**3
 6 - kinematic heat conductance, m**2/s
 7 - modulus of horizontal velocity, m/s
 8 - Richardson number, n/d
   -0.000000    0.00000  0.0000E+00  0.1219E-13  0.7603E-17  0.1000E-09  0.0000E+00  0.1294E+17
   -0.068741    0.19948  0.0000E+00  0.1219E-13  0.7603E-17  0.1000E-09  0.0000E+00  0.1217E+17
   -0.137483    0.39792  0.0000E+00  0.1219E-13  0.7603E-17  0.1000E-09  0.0000E+00  0.1141E+17
   -0.206226    0.59505  0.0000E+00  0.1219E-13  0.7603E-17  0.1000E-09  0.0000E+00  0.1064E+17
   -0.274969    0.79058  0.0000E+00  0.1726E-13  0.7603E-17  0.1000E-09  0.0000E+00  0.9903E+16
   -0.343713    0.98459  0.0000E+00  0.7060E-13  0.7833E-17  0.1000E-09  0.0000E+00  0.9172E+16
   -0.412457    1.17683  0.0000E+00  0.1742E-12  0.1328E-16  0.1000E-09  0.0000E+00  0.8448E+16
   -0.481202    1.36698  0.0000E+00  0.3634E-12  0.2485E-16  0.1000E-09  0.0000E+00  0.7733E+16
   -0.549947    1.55465  0.0000E+00  0.7142E-12  0.4686E-16  0.1000E-09  0.0000E+00  0.7024E+16
   -0.618692    1.73924  0.0000E+00  0.1371E-11  0.8788E-16  0.1000E-09  0.0000E+00  0.6337E+16
   -0.687438    1.92043  0.0000E+00  0.2606E-11  0.1639E-15  0.1000E-09  0.0000E+00  0.5695E+16
   -0.756185    2.09861  0.0000E+00  0.4921E-11  0.3042E-15  0.1000E-09  0.0000E+00  0.5088E+16
   -0.824931    2.27393  0.0000E+00  0.9251E-11  0.5624E-15  0.1000E-09  0.0000E+00  0.4503E+16
   -0.893678    2.44615  0.0000E+00  0.1732E-10  0.1036E-14  0.1000E-09  0.0000E+00  0.3941E+16
   -0.962425    2.61499  0.0000E+00  0.3231E-10  0.1899E-14  0.1000E-09  0.0000E+00  0.3403E+16
   -1.031173    2.78014  0.0000E+00  0.5995E-10  0.3465E-14  0.1000E-09  0.0000E+00  0.2897E+16
   -1.099920    2.94152  0.0000E+00  0.1107E-09  0.6288E-14  0.1000E-09  0.0000E+00  0.2415E+16
   -1.168668    3.09866  0.0000E+00  0.2033E-09  0.1136E-13  0.1000E-09  0.0000E+00  0.1960E+16
   -1.237415    3.25083  0.0000E+00  0.3720E-09  0.2044E-13  0.1000E-09  0.0000E+00  0.1533E+16
   -1.306163    3.39702  0.0000E+00  0.6779E-09  0.3662E-13  0.1634E-09  0.0000E+00  0.1141E+16
   -1.374911    3.53595  0.0000E+00  0.1230E-08  0.6532E-13  0.4153E-09  0.0000E+00  0.8001E+15
   -1.443659    3.66803  0.0000E+00  0.2221E-08  0.1160E-12  0.1171E-08  0.0000E+00  0.5037E+15
   -1.512407    3.79326  0.0000E+00  0.3991E-08  0.2050E-12  0.4199E-08  0.0000E+00  0.2483E+15
   -1.581154    3.91114  0.0000E+00  0.7038E-08  0.3564E-12  0.4284E-07  0.0000E+00  0.4222E+14
   -1.649902    4.00257  0.0000E+00  0.7425E-08  0.3772E-12  0.5942E-04  0.0000E+00 -0.6374E+11
   -1.718649    4.00282  0.0000E+00  0.7600E-08  0.3883E-12  0.5843E-04  0.0000E+00 -0.7320E+11
   -1.787397    4.00310  0.0000E+00  0.7750E-08  0.4001E-12  0.5866E-04  0.0000E+00 -0.7516E+11
   -1.856144    4.00339  0.0000E+00  0.7883E-08  0.4130E-12  0.5828E-04  0.0000E+00 -0.7717E+11
   -1.924891    4.00367  0.0000E+00  0.7996E-08  0.4274E-12  0.5716E-04  0.0000E+00 -0.7999E+11
   -1.993637    4.00397  0.0000E+00  0.8091E-08  0.4439E-12  0.5525E-04  0.0000E+00 -0.8403E+11
   -2.062384    4.00427  0.0000E+00  0.8165E-08  0.4628E-12  0.5289E-04  0.0000E+00 -0.8973E+11
   -2.131130    4.00458  0.0000E+00  0.8217E-08  0.4850E-12  0.5008E-04  0.0000E+00 -0.9704E+11
   -2.199875    4.00492  0.0000E+00  0.8244E-08  0.5116E-12  0.4681E-04  0.0000E+00 -0.1065E+12
   -2.268620    4.00528  0.0000E+00  0.8243E-08  0.5446E-12  0.4294E-04  0.0000E+00 -0.1193E+12
   -2.337365    4.00568  0.0000E+00  0.8207E-08  0.5887E-12  0.3821E-04  0.0000E+00 -0.1385E+12
   -2.406109    4.00613  0.0000E+00  0.8124E-08  0.6514E-12  0.3249E-04  0.0000E+00 -0.1690E+12
   -2.474853    4.00667  0.0000E+00  0.7971E-08  0.7487E-12  0.2570E-04  0.0000E+00 -0.2239E+12
   -2.543596    4.00736  0.0000E+00  0.7692E-08  0.9274E-12  0.1772E-04  0.0000E+00 -0.3476E+12
   -2.612339    4.00839  0.0000E+00  0.7091E-08  0.1381E-11  0.8712E-05  0.0000E+00 -0.7981E+12
   -2.681081    4.01058  0.0000E+00  0.4610E-08  0.4351E-11  0.8764E-06  0.0000E+00 -0.1256E+14
   -2.749822    4.03314  0.0000E+00  0.0000E+00  0.0000E+00  0.0000E+00  0.0000E+00  0.0000E+00
