 1 - depth, m
 2 - temperature, C
 3 - salinity, kg/kg
 4 - turbulent kinetic energy, m**2/s**2
 5 - dissipation rate, m**2/s**3
 6 - kinematic heat conductance, m**2/s
 7 - modulus of horizontal velocity, m/s
 8 - Richardson number, n/d
   -0.000000   17.00375  0.0000E+00  0.3385E-04  0.4849E-05  0.4128E-04  0.4160E-01 -0.1639E-01
   -0.068748   17.02362  0.0000E+00  0.2163E-04  0.1067E-05  0.7144E-04  0.2039E-01 -0.2611E-01
   -0.137497   17.02999  0.0000E+00  0.1704E-04  0.4164E-06  0.1001E-03  0.1470E-01 -0.4437E-01
   -0.206247   17.03400  0.0000E+00  0.1427E-04  0.2084E-06  0.1303E-03  0.1125E-01 -0.6709E-01
   -0.274997   17.03676  0.0000E+00  0.1258E-04  0.1250E-06  0.1627E-03  0.8939E-02 -0.9102E-01
   -0.343748   17.03878  0.0000E+00  0.1140E-04  0.8406E-07  0.1999E-03  0.7246E-02 -0.1191E+00
   -0.412499   17.04031  0.0000E+00  0.1053E-04  0.6077E-07  0.2527E-03  0.5969E-02 -0.6850E-01
   -0.481251   17.04148  0.0000E+00  0.9863E-05  0.4626E-07  0.3453E-03  0.4988E-02  0.4187E+01
   -0.550003   17.04239  0.0000E+00  0.9360E-05  0.3666E-07  0.4247E-03  0.4238E-02  0.5010E+01
   -0.618756   17.04309  0.0000E+00  0.9004E-05  0.3020E-07  0.5676E-03  0.3656E-02  0.9942E+02
   -0.687509   17.04359  0.0000E+00  0.8773E-05  0.2585E-07  0.7720E-03  0.3211E-02  0.2990E+03
   -0.756262   17.04395  0.0000E+00  0.8635E-05  0.2278E-07  0.1045E-02  0.2864E-02  0.5425E+03
   -0.825016   17.04423  0.0000E+00  0.8563E-05  0.2049E-07  0.1216E-02  0.2585E-02  0.2041E+01
   -0.893770   17.04448  0.0000E+00  0.8541E-05  0.1869E-07  0.1293E-02  0.2339E-02  0.1963E+01
   -0.962524   17.04472  0.0000E+00  0.8560E-05  0.1727E-07  0.1371E-02  0.2115E-02  0.1905E+01
   -1.031278   17.04496  0.0000E+00  0.8613E-05  0.1618E-07  0.1433E-02  0.1915E-02  0.1949E+01
   -1.100033   17.04521  0.0000E+00  0.8691E-05  0.1535E-07  0.1491E-02  0.1731E-02  0.1989E+01
   -1.168787   17.04547  0.0000E+00  0.8788E-05  0.1473E-07  0.1549E-02  0.1561E-02  0.2007E+01
   -1.237542   17.04574  0.0000E+00  0.8897E-05  0.1430E-07  0.1605E-02  0.1403E-02  0.2005E+01
   -1.306297   17.04602  0.0000E+00  0.9009E-05  0.1402E-07  0.1659E-02  0.1258E-02  0.1987E+01
   -1.375052   17.04630  0.0000E+00  0.9119E-05  0.1388E-07  0.1709E-02  0.1124E-02  0.1959E+01
   -1.443807   17.04660  0.0000E+00  0.9221E-05  0.1386E-07  0.1758E-02  0.1000E-02  0.1918E+01
   -1.512562   17.04691  0.0000E+00  0.9310E-05  0.1394E-07  0.1813E-02  0.8877E-03  0.1812E+01
   -1.581316   17.04723  0.0000E+00  0.9383E-05  0.1412E-07  0.1861E-02  0.7879E-03  0.1694E+01
   -1.650071   17.04756  0.0000E+00  0.9440E-05  0.1437E-07  0.1872E-02  0.7014E-03  0.1589E+01
   -1.718825   17.04789  0.0000E+00  0.9482E-05  0.1470E-07  0.1862E-02  0.6268E-03  0.1498E+01
   -1.787580   17.04825  0.0000E+00  0.9508E-05  0.1509E-07  0.1831E-02  0.5627E-03  0.1415E+01
   -1.856334   17.04863  0.0000E+00  0.9519E-05  0.1554E-07  0.1781E-02  0.5076E-03  0.1342E+01
   -1.925088   17.04904  0.0000E+00  0.9518E-05  0.1605E-07  0.1723E-02  0.4603E-03  0.1321E+01
   -1.993842   17.04948  0.0000E+00  0.9505E-05  0.1663E-07  0.1660E-02  0.4192E-03  0.1396E+01
   -2.062595   17.04996  0.0000E+00  0.9480E-05  0.1730E-07  0.1590E-02  0.3828E-03  0.1572E+01
   -2.131348   17.05048  0.0000E+00  0.9442E-05  0.1809E-07  0.1512E-02  0.3497E-03  0.1921E+01
   -2.200100   17.05106  0.0000E+00  0.9384E-05  0.1907E-07  0.1422E-02  0.3183E-03  0.2493E+01
   -2.268853   17.05170  0.0000E+00  0.9302E-05  0.2031E-07  0.1316E-02  0.2877E-03  0.3398E+01
   -2.337604   17.05241  0.0000E+00  0.9181E-05  0.2202E-07  0.1188E-02  0.2576E-03  0.5024E+01
   -2.406356   17.05323  0.0000E+00  0.9010E-05  0.2447E-07  0.1045E-02  0.2279E-03  0.8289E+01
   -2.475106   17.05420  0.0000E+00  0.8763E-05  0.2831E-07  0.8434E-03  0.1985E-03  0.1595E+02
   -2.543857   17.05544  0.0000E+00  0.8390E-05  0.3519E-07  0.7605E-03  0.1678E-03  0.3394E+02
   -2.612606   17.05685  0.0000E+00  0.7593E-05  0.5717E-07  0.3391E-03  0.1408E-03 -0.1061E+03
   -2.681355   17.06236  0.0000E+00  0.4638E-05  0.1896E-06  0.8193E-04  0.9222E-04 -0.2759E+04
   -2.750104   17.07690  0.0000E+00  0.0000E+00  0.0000E+00  0.0000E+00  0.1026E-03  0.0000E+00
