 1 - depth, m
 2 - temperature, C
 3 - salinity, kg/kg
 4 - turbulent kinetic energy, m**2/s**2
 5 - dissipation rate, m**2/s**3
 6 - kinematic heat conductance, m**2/s
 7 - modulus of horizontal velocity, m/s
 8 - Richardson number, n/d
   -0.000000    0.00000  0.0000E+00  0.2854E-08  0.6030E-11  0.5883E-09  0.0000E+00  0.5082E+17
   -0.068764    0.86134  0.0000E+00  0.3716E-07  0.1162E-10  0.1700E-08  0.0000E+00  0.2972E+17
   -0.137528    1.51379  0.0000E+00  0.1649E-06  0.4490E-10  0.8567E-08  0.0000E+00  0.1934E+17
   -0.206293    2.13338  0.0000E+00  0.4041E-06  0.1063E-09  0.6559E-04  0.0000E+00  0.1099E+17
   -0.275058    2.74340  0.0000E+00  0.6028E-06  0.1576E-09  0.3770E-03  0.0000E+00  0.6588E+16
   -0.343824    3.17710  0.0000E+00  0.7801E-06  0.2035E-09  0.6293E-03  0.0000E+00  0.4762E+16
   -0.412591    3.53467  0.0000E+00  0.9410E-06  0.2452E-09  0.8567E-03  0.0000E+00  0.3842E+16
   -0.481358    3.85435  0.0000E+00  0.1077E-05  0.2801E-09  0.1079E-02  0.0000E+00  0.2695E+16
   -0.550125    4.13625  0.0000E+00  0.1147E-05  0.2978E-09  0.1266E-02  0.0000E+00  0.5818E+15
   -0.618893    4.26750  0.0000E+00  0.1149E-05  0.2992E-09  0.1400E-02  0.0000E+00 -0.1879E+13
   -0.687662    4.26795  0.0000E+00  0.1151E-05  0.3007E-09  0.1392E-02  0.0000E+00 -0.1892E+13
   -0.756430    4.26840  0.0000E+00  0.1153E-05  0.3025E-09  0.1384E-02  0.0000E+00 -0.1940E+13
   -0.825199    4.26885  0.0000E+00  0.1154E-05  0.3045E-09  0.1377E-02  0.0000E+00 -0.1888E+13
   -0.893968    4.26930  0.0000E+00  0.1155E-05  0.3067E-09  0.1368E-02  0.0000E+00 -0.1894E+13
   -0.962738    4.26975  0.0000E+00  0.1156E-05  0.3092E-09  0.1357E-02  0.0000E+00 -0.1909E+13
   -1.031508    4.27019  0.0000E+00  0.1157E-05  0.3120E-09  0.1345E-02  0.0000E+00 -0.1926E+13
   -1.100277    4.27064  0.0000E+00  0.1157E-05  0.3151E-09  0.1332E-02  0.0000E+00 -0.1957E+13
   -1.169047    4.27110  0.0000E+00  0.1157E-05  0.3185E-09  0.1316E-02  0.0000E+00 -0.1989E+13
   -1.237817    4.27155  0.0000E+00  0.1157E-05  0.3223E-09  0.1297E-02  0.0000E+00 -0.2032E+13
   -1.306588    4.27202  0.0000E+00  0.1156E-05  0.3265E-09  0.1277E-02  0.0000E+00 -0.2077E+13
   -1.375358    4.27249  0.0000E+00  0.1155E-05  0.3312E-09  0.1256E-02  0.0000E+00 -0.2127E+13
   -1.444128    4.27298  0.0000E+00  0.1154E-05  0.3363E-09  0.1233E-02  0.0000E+00 -0.2179E+13
   -1.512898    4.27347  0.0000E+00  0.1152E-05  0.3420E-09  0.1206E-02  0.0000E+00 -0.2241E+13
   -1.581668    4.27397  0.0000E+00  0.1150E-05  0.3484E-09  0.1178E-02  0.0000E+00 -0.2302E+13
   -1.650438    4.27449  0.0000E+00  0.1148E-05  0.3557E-09  0.1146E-02  0.0000E+00 -0.2376E+13
   -1.719208    4.27502  0.0000E+00  0.1145E-05  0.3639E-09  0.1111E-02  0.0000E+00 -0.2458E+13
   -1.787978    4.27557  0.0000E+00  0.1141E-05  0.3734E-09  0.1074E-02  0.0000E+00 -0.2555E+13
   -1.856747    4.27614  0.0000E+00  0.1137E-05  0.3842E-09  0.1034E-02  0.0000E+00 -0.2661E+13
   -1.925516    4.27673  0.0000E+00  0.1132E-05  0.3966E-09  0.1009E-02  0.0000E+00 -0.2706E+13
   -1.994285    4.27733  0.0000E+00  0.1127E-05  0.4110E-09  0.9460E-03  0.0000E+00 -0.2967E+13
   -2.063054    4.27798  0.0000E+00  0.1121E-05  0.4280E-09  0.9006E-03  0.0000E+00 -0.3102E+13
   -2.131822    4.27866  0.0000E+00  0.1114E-05  0.4483E-09  0.8528E-03  0.0000E+00 -0.3305E+13
   -2.200590    4.27938  0.0000E+00  0.1107E-05  0.4727E-09  0.8010E-03  0.0000E+00 -0.3550E+13
   -2.269357    4.28016  0.0000E+00  0.1098E-05  0.5027E-09  0.7574E-03  0.0000E+00 -0.3784E+13
   -2.338124    4.28098  0.0000E+00  0.1087E-05  0.5419E-09  0.6833E-03  0.0000E+00 -0.4253E+13
   -2.406891    4.28191  0.0000E+00  0.1075E-05  0.5953E-09  0.6161E-03  0.0000E+00 -0.4782E+13
   -2.475657    4.28293  0.0000E+00  0.1059E-05  0.6727E-09  0.5377E-03  0.0000E+00 -0.5585E+13
   -2.544423    4.28414  0.0000E+00  0.1038E-05  0.7981E-09  0.4596E-03  0.0000E+00 -0.6715E+13
   -2.613187    4.28558  0.0000E+00  0.9969E-06  0.1101E-08  0.2456E-03  0.0000E+00 -0.1277E+14
   -2.681952    4.28832  0.0000E+00  0.6186E-06  0.5109E-08  0.1039E-04  0.0000E+00 -0.3337E+15
   -2.750715    4.35237  0.0000E+00  0.0000E+00  0.0000E+00  0.0000E+00  0.0000E+00  0.0000E+00
