 1 - depth, m
 2 - temperature, C
 3 - salinity, kg/kg
 4 - turbulent kinetic energy, m**2/s**2
 5 - dissipation rate, m**2/s**3
 6 - kinematic heat conductance, m**2/s
 7 - modulus of horizontal velocity, m/s
 8 - Richardson number, n/d
   -0.000000    7.72672  0.0000E+00  0.4346E-03  0.3764E-03  0.1277E-03  0.2290E+00  0.3748E-01
   -0.068735    7.76705  0.0000E+00  0.2335E-03  0.8990E-04  0.3345E-03  0.6816E-01 -0.6210E-02
   -0.137471    7.77364  0.0000E+00  0.1679E-03  0.3834E-04  0.3013E-03  0.5147E-01  0.4953E-02
   -0.206207    7.77834  0.0000E+00  0.1261E-03  0.1852E-04  0.2987E-03  0.4282E-01 -0.8332E-02
   -0.274944    7.78167  0.0000E+00  0.9996E-04  0.9552E-05  0.2993E-03  0.3713E-01 -0.9519E-01
   -0.343681    7.78440  0.0000E+00  0.8174E-04  0.5140E-05  0.3095E-03  0.3225E-01 -0.7109E-02
   -0.412419    7.78674  0.0000E+00  0.6880E-04  0.2924E-05  0.3249E-03  0.2814E-01 -0.8783E-02
   -0.481157    7.78876  0.0000E+00  0.5922E-04  0.1772E-05  0.3427E-03  0.2466E-01 -0.1005E-01
   -0.549896    7.79058  0.0000E+00  0.5179E-04  0.1145E-05  0.3645E-03  0.2167E-01 -0.1290E-01
   -0.618635    7.79223  0.0000E+00  0.4596E-04  0.7868E-06  0.3857E-03  0.1919E-01 -0.1626E-01
   -0.687375    7.79374  0.0000E+00  0.4124E-04  0.5679E-06  0.4068E-03  0.1708E-01 -0.2046E-01
   -0.756115    7.79515  0.0000E+00  0.3733E-04  0.4264E-06  0.4279E-03  0.1525E-01 -0.2569E-01
   -0.824855    7.79646  0.0000E+00  0.3402E-04  0.3299E-06  0.4490E-03  0.1366E-01 -0.3221E-01
   -0.893596    7.79770  0.0000E+00  0.3119E-04  0.2614E-06  0.4704E-03  0.1228E-01 -0.4043E-01
   -0.962336    7.79887  0.0000E+00  0.2876E-04  0.2113E-06  0.4926E-03  0.1106E-01 -0.5080E-01
   -1.031077    7.79998  0.0000E+00  0.2666E-04  0.1737E-06  0.5117E-03  0.9995E-02 -0.4549E-01
   -1.099818    7.80104  0.0000E+00  0.2483E-04  0.1449E-06  0.5321E-03  0.9031E-02 -0.1992E-01
   -1.168560    7.80206  0.0000E+00  0.2321E-04  0.1224E-06  0.5521E-03  0.8158E-02 -0.6516E-01
   -1.237301    7.80304  0.0000E+00  0.2176E-04  0.1045E-06  0.5715E-03  0.7364E-02 -0.4278E-01
   -1.306043    7.80398  0.0000E+00  0.2045E-04  0.9003E-07  0.5906E-03  0.6639E-02 -0.4219E-01
   -1.374784    7.80489  0.0000E+00  0.1926E-04  0.7818E-07  0.6104E-03  0.5976E-02  0.2206E+00
   -1.443526    7.80577  0.0000E+00  0.1816E-04  0.6835E-07  0.6415E-03  0.5366E-02  0.4003E+01
   -1.512267    7.80661  0.0000E+00  0.1715E-04  0.6011E-07  0.6983E-03  0.4802E-02  0.2288E+02
   -1.581008    7.80740  0.0000E+00  0.1620E-04  0.5312E-07  0.7713E-03  0.4293E-02  0.1432E+03
   -1.649750    7.80813  0.0000E+00  0.1533E-04  0.4721E-07  0.8334E-03  0.3840E-02  0.6415E+01
   -1.718491    7.80882  0.0000E+00  0.1452E-04  0.4218E-07  0.8979E-03  0.3433E-02  0.1268E+03
   -1.787232    7.80946  0.0000E+00  0.1377E-04  0.3792E-07  0.9696E-03  0.3065E-02  0.6187E+02
   -1.855973    7.81006  0.0000E+00  0.1308E-04  0.3431E-07  0.1044E-02  0.2733E-02  0.4711E+03
   -1.924713    7.81062  0.0000E+00  0.1245E-04  0.3127E-07  0.1102E-02  0.2432E-02  0.8304E+02
   -1.993453    7.81114  0.0000E+00  0.1186E-04  0.2872E-07  0.1148E-02  0.2157E-02  0.8493E+02
   -2.062193    7.81165  0.0000E+00  0.1132E-04  0.2661E-07  0.1174E-02  0.1905E-02  0.5054E+01
   -2.130933    7.81214  0.0000E+00  0.1082E-04  0.2491E-07  0.1173E-02  0.1674E-02  0.8203E+02
   -2.199672    7.81263  0.0000E+00  0.1035E-04  0.2362E-07  0.1159E-02  0.1460E-02  0.4619E+02
   -2.268411    7.81312  0.0000E+00  0.9922E-05  0.2272E-07  0.1126E-02  0.1261E-02  0.4709E+02
   -2.337149    7.81362  0.0000E+00  0.9514E-05  0.2223E-07  0.1062E-02  0.1083E-02  0.1075E+02
   -2.405887    7.81415  0.0000E+00  0.9123E-05  0.2223E-07  0.9643E-03  0.9251E-03  0.3302E+02
   -2.474624    7.81474  0.0000E+00  0.8732E-05  0.2293E-07  0.8399E-03  0.7844E-03  0.2610E+02
   -2.543361    7.81541  0.0000E+00  0.8284E-05  0.2499E-07  0.6590E-03  0.6549E-03  0.2624E+03
   -2.612098    7.81629  0.0000E+00  0.7621E-05  0.3134E-07  0.3348E-03  0.5251E-03  0.1009E+04
   -2.680833    7.81791  0.0000E+00  0.4334E-05  0.9897E-07  0.2523E-04  0.3847E-03 -0.1350E+05
   -2.749568    7.83922  0.0000E+00  0.0000E+00  0.0000E+00  0.0000E+00  0.3842E-03  0.0000E+00
