 1 - depth, m
 2 - temperature, C
 3 - salinity, kg/kg
 4 - turbulent kinetic energy, m**2/s**2
 5 - dissipation rate, m**2/s**3
 6 - kinematic heat conductance, m**2/s
 7 - modulus of horizontal velocity, m/s
 8 - Richardson number, n/d
   -0.000000    0.00000  0.0000E+00  0.1219E-13  0.7603E-17  0.1000E-09  0.0000E+00  0.1121E+17
   -0.068794    0.17215  0.0000E+00  0.1219E-13  0.7603E-17  0.1000E-09  0.0000E+00  0.1063E+17
   -0.137588    0.34342  0.0000E+00  0.1219E-13  0.7603E-17  0.1000E-09  0.0000E+00  0.1005E+17
   -0.206384    0.51354  0.0000E+00  0.1219E-13  0.7603E-17  0.1000E-09  0.0000E+00  0.9462E+16
   -0.275179    0.68223  0.0000E+00  0.1219E-13  0.7603E-17  0.1000E-09  0.0000E+00  0.8906E+16
   -0.343976    0.84976  0.0000E+00  0.1219E-13  0.7603E-17  0.1000E-09  0.0000E+00  0.8352E+16
   -0.412773    1.01593  0.0000E+00  0.1219E-13  0.7603E-17  0.1000E-09  0.0000E+00  0.7798E+16
   -0.481570    1.18042  0.0000E+00  0.1219E-13  0.7603E-17  0.1000E-09  0.0000E+00  0.7242E+16
   -0.550368    1.34278  0.0000E+00  0.1219E-13  0.7603E-17  0.1000E-09  0.0000E+00  0.6678E+16
   -0.619166    1.50232  0.0000E+00  0.1219E-13  0.7603E-17  0.1000E-09  0.0000E+00  0.6124E+16
   -0.687964    1.65863  0.0000E+00  0.1219E-13  0.7603E-17  0.1000E-09  0.0000E+00  0.5621E+16
   -0.756763    1.81240  0.0000E+00  0.1219E-13  0.7603E-17  0.1000E-09  0.0000E+00  0.5151E+16
   -0.825562    1.96393  0.0000E+00  0.1220E-13  0.7603E-17  0.1000E-09  0.0000E+00  0.4691E+16
   -0.894362    2.11295  0.0000E+00  0.5235E-13  0.7748E-17  0.1000E-09  0.0000E+00  0.4244E+16
   -0.963162    2.25918  0.0000E+00  0.1440E-12  0.1376E-16  0.1000E-09  0.0000E+00  0.3812E+16
   -1.031961    2.40233  0.0000E+00  0.3276E-12  0.2791E-16  0.1000E-09  0.0000E+00  0.3404E+16
   -1.100762    2.54242  0.0000E+00  0.6975E-12  0.5696E-16  0.1000E-09  0.0000E+00  0.3014E+16
   -1.169562    2.67925  0.0000E+00  0.1448E-11  0.1153E-15  0.1000E-09  0.0000E+00  0.2643E+16
   -1.238362    2.81261  0.0000E+00  0.2972E-11  0.2315E-15  0.1000E-09  0.0000E+00  0.2293E+16
   -1.307162    2.94229  0.0000E+00  0.6052E-11  0.4618E-15  0.1000E-09  0.0000E+00  0.1964E+16
   -1.375963    3.06810  0.0000E+00  0.1225E-10  0.9157E-15  0.1000E-09  0.0000E+00  0.1673E+16
   -1.444763    3.19110  0.0000E+00  0.2463E-10  0.1805E-14  0.1000E-09  0.0000E+00  0.1402E+16
   -1.513564    3.31148  0.0000E+00  0.4931E-10  0.3541E-14  0.1000E-09  0.0000E+00  0.1144E+16
   -1.582364    3.42881  0.0000E+00  0.9858E-10  0.6939E-14  0.1000E-09  0.0000E+00  0.8979E+15
   -1.651164    3.54238  0.0000E+00  0.1963E-09  0.1354E-13  0.1058E-09  0.0000E+00  0.6681E+15
   -1.719964    3.65120  0.0000E+00  0.3887E-09  0.2629E-13  0.2913E-09  0.0000E+00  0.4587E+15
   -1.788764    3.75394  0.0000E+00  0.7658E-09  0.5077E-13  0.9305E-09  0.0000E+00  0.2771E+15
   -1.857564    3.84945  0.0000E+00  0.1498E-08  0.9740E-13  0.3867E-08  0.0000E+00  0.1279E+15
   -1.926364    3.93690  0.0000E+00  0.2846E-08  0.1820E-12  0.5167E-07  0.0000E+00  0.1774E+14
   -1.995163    3.99969  0.0000E+00  0.3332E-08  0.2146E-12  0.2082E-04  0.0000E+00 -0.1135E+12
   -2.063962    4.00023  0.0000E+00  0.3552E-08  0.2328E-12  0.2114E-04  0.0000E+00 -0.1239E+12
   -2.132760    4.00078  0.0000E+00  0.3735E-08  0.2525E-12  0.2113E-04  0.0000E+00 -0.1314E+12
   -2.201558    4.00135  0.0000E+00  0.3884E-08  0.2747E-12  0.2058E-04  0.0000E+00 -0.1426E+12
   -2.270356    4.00195  0.0000E+00  0.4001E-08  0.3011E-12  0.1952E-04  0.0000E+00 -0.1600E+12
   -2.339153    4.00259  0.0000E+00  0.4088E-08  0.3353E-12  0.1784E-04  0.0000E+00 -0.1878E+12
   -2.407950    4.00331  0.0000E+00  0.4138E-08  0.3829E-12  0.1548E-04  0.0000E+00 -0.2352E+12
   -2.476746    4.00417  0.0000E+00  0.4138E-08  0.4567E-12  0.1240E-04  0.0000E+00 -0.3264E+12
   -2.545542    4.00530  0.0000E+00  0.4056E-08  0.5935E-12  0.8583E-05  0.0000E+00 -0.5524E+12
   -2.614337    4.00707  0.0000E+00  0.3783E-08  0.9477E-12  0.4179E-05  0.0000E+00 -0.1501E+13
   -2.683132    4.01126  0.0000E+00  0.2842E-08  0.2823E-11  0.6851E-06  0.0000E+00 -0.2076E+14
   -2.751926    4.04353  0.0000E+00  0.0000E+00  0.0000E+00  0.0000E+00  0.0000E+00  0.0000E+00
