 1 - depth, m
 2 - temperature, C
 3 - salinity, kg/kg
 4 - turbulent kinetic energy, m**2/s**2
 5 - dissipation rate, m**2/s**3
 6 - kinematic heat conductance, m**2/s
 7 - modulus of horizontal velocity, m/s
 8 - Richardson number, n/d
   -0.000000   14.56812  0.0000E+00  0.4938E-04  0.1178E-04  0.6060E-04  0.5177E-01 -0.1971E+00
   -0.068746   14.58413  0.0000E+00  0.2647E-04  0.2378E-05  0.8891E-04  0.2125E-01 -0.3609E+00
   -0.137493   14.58761  0.0000E+00  0.1926E-04  0.8379E-06  0.1321E-03  0.1559E-01  0.8043E+01
   -0.206241   14.58973  0.0000E+00  0.1504E-04  0.3642E-06  0.1668E-03  0.1218E-01  0.3317E+01
   -0.274989   14.59127  0.0000E+00  0.1262E-04  0.1902E-06  0.2036E-03  0.9788E-02  0.2330E+01
   -0.343738   14.59247  0.0000E+00  0.1106E-04  0.1147E-06  0.2417E-03  0.7951E-02  0.1913E+01
   -0.412487   14.59344  0.0000E+00  0.9934E-05  0.7658E-07  0.2809E-03  0.6517E-02  0.1122E+02
   -0.481237   14.59425  0.0000E+00  0.9052E-05  0.5465E-07  0.3219E-03  0.5381E-02  0.8403E+01
   -0.549987   14.59495  0.0000E+00  0.8327E-05  0.4070E-07  0.3654E-03  0.4470E-02  0.2190E+01
   -0.618737   14.59556  0.0000E+00  0.7743E-05  0.3137E-07  0.4132E-03  0.3749E-02  0.3255E+01
   -0.687488   14.59610  0.0000E+00  0.7283E-05  0.2489E-07  0.4664E-03  0.3173E-02  0.9152E+01
   -0.756240   14.59659  0.0000E+00  0.6928E-05  0.2030E-07  0.5310E-03  0.2712E-02  0.2091E+02
   -0.824991   14.59703  0.0000E+00  0.6665E-05  0.1702E-07  0.6396E-03  0.2341E-02  0.6797E+02
   -0.893743   14.59740  0.0000E+00  0.6486E-05  0.1472E-07  0.8281E-03  0.2048E-02  0.7035E+02
   -0.962495   14.59768  0.0000E+00  0.6375E-05  0.1313E-07  0.1050E-02  0.1824E-02  0.9620E+02
   -1.031247   14.59790  0.0000E+00  0.6315E-05  0.1200E-07  0.1184E-02  0.1648E-02  0.1437E+02
   -1.100000   14.59810  0.0000E+00  0.6288E-05  0.1112E-07  0.1238E-02  0.1495E-02  0.2000E+01
   -1.168753   14.59830  0.0000E+00  0.6285E-05  0.1042E-07  0.1291E-02  0.1349E-02  0.2145E+01
   -1.237505   14.59851  0.0000E+00  0.6299E-05  0.9869E-08  0.1337E-02  0.1215E-02  0.2261E+01
   -1.306258   14.59873  0.0000E+00  0.6327E-05  0.9448E-08  0.1375E-02  0.1091E-02  0.2379E+01
   -1.375011   14.59895  0.0000E+00  0.6363E-05  0.9136E-08  0.1408E-02  0.9752E-03  0.2486E+01
   -1.443764   14.59919  0.0000E+00  0.6403E-05  0.8915E-08  0.1438E-02  0.8675E-03  0.2608E+01
   -1.512517   14.59945  0.0000E+00  0.6444E-05  0.8775E-08  0.1476E-02  0.7676E-03  0.2655E+01
   -1.581269   14.59970  0.0000E+00  0.6483E-05  0.8709E-08  0.1511E-02  0.6777E-03  0.2733E+01
   -1.650022   14.59997  0.0000E+00  0.6519E-05  0.8711E-08  0.1531E-02  0.5987E-03  0.2867E+01
   -1.718774   14.60025  0.0000E+00  0.6550E-05  0.8775E-08  0.1531E-02  0.5296E-03  0.3090E+01
   -1.787527   14.60054  0.0000E+00  0.6577E-05  0.8897E-08  0.1518E-02  0.4696E-03  0.3383E+01
   -1.856279   14.60085  0.0000E+00  0.6598E-05  0.9072E-08  0.1494E-02  0.4176E-03  0.3810E+01
   -1.925031   14.60117  0.0000E+00  0.6614E-05  0.9297E-08  0.1462E-02  0.3725E-03  0.4356E+01
   -1.993782   14.60152  0.0000E+00  0.6622E-05  0.9571E-08  0.1421E-02  0.3334E-03  0.5125E+01
   -2.062534   14.60190  0.0000E+00  0.6624E-05  0.9895E-08  0.1374E-02  0.2994E-03  0.6126E+01
   -2.131285   14.60231  0.0000E+00  0.6618E-05  0.1028E-07  0.1322E-02  0.2696E-03  0.7578E+01
   -2.200035   14.60276  0.0000E+00  0.6602E-05  0.1074E-07  0.1263E-02  0.2430E-03  0.9770E+01
   -2.268785   14.60325  0.0000E+00  0.6572E-05  0.1131E-07  0.1190E-02  0.2174E-03  0.1308E+02
   -2.337535   14.60378  0.0000E+00  0.6524E-05  0.1209E-07  0.1101E-02  0.1928E-03  0.1869E+02
   -2.406284   14.60438  0.0000E+00  0.6451E-05  0.1317E-07  0.9934E-03  0.1691E-03  0.2933E+02
   -2.475033   14.60507  0.0000E+00  0.6344E-05  0.1477E-07  0.8668E-03  0.1461E-03  0.5118E+02
   -2.543781   14.60589  0.0000E+00  0.6180E-05  0.1744E-07  0.7002E-03  0.1235E-03  0.1089E+03
   -2.612529   14.60693  0.0000E+00  0.5900E-05  0.2297E-07  0.5546E-03  0.1011E-03  0.3007E+03
   -2.681276   14.60828  0.0000E+00  0.3806E-05  0.8208E-07  0.2956E-04  0.8157E-04 -0.2672E+05
   -2.750022   14.63450  0.0000E+00  0.0000E+00  0.0000E+00  0.0000E+00  0.8157E-04  0.0000E+00
