 1 - depth, m
 2 - temperature, C
 3 - salinity, kg/kg
 4 - turbulent kinetic energy, m**2/s**2
 5 - dissipation rate, m**2/s**3
 6 - kinematic heat conductance, m**2/s
 7 - modulus of horizontal velocity, m/s
 8 - Richardson number, n/d
   -0.000000    0.00000  0.0000E+00  0.1239E-11  0.6107E-15  0.1000E-09  0.0000E+00  0.4265E+17
   -0.068739    0.70637  0.0000E+00  0.5591E-11  0.1949E-14  0.1000E-09  0.0000E+00  0.2356E+17
   -0.137479    1.17770  0.0000E+00  0.2470E-10  0.8081E-14  0.1000E-09  0.0000E+00  0.1303E+17
   -0.206219    1.47913  0.0000E+00  0.1071E-09  0.3356E-13  0.1014E-09  0.0000E+00  0.7208E+16
   -0.274960    1.66356  0.0000E+00  0.4621E-09  0.1390E-12  0.2007E-09  0.0000E+00  0.5041E+16
   -0.343702    1.80160  0.0000E+00  0.1980E-08  0.5743E-12  0.7898E-09  0.0000E+00  0.4246E+16
   -0.412444    1.92482  0.0000E+00  0.8272E-08  0.2329E-11  0.2874E-08  0.0000E+00  0.4149E+16
   -0.481187    2.05346  0.0000E+00  0.3263E-07  0.8967E-11  0.7066E-08  0.0000E+00  0.4732E+16
   -0.549929    2.21735  0.0000E+00  0.1180E-06  0.3180E-10  0.1723E-07  0.0000E+00  0.5892E+16
   -0.618673    2.50997  0.0000E+00  0.2653E-06  0.6986E-10  0.6040E-04  0.0000E+00  0.5582E+16
   -0.687417    2.90985  0.0000E+00  0.4090E-06  0.1073E-09  0.2455E-03  0.0000E+00  0.4907E+16
   -0.756161    3.29169  0.0000E+00  0.5446E-06  0.1429E-09  0.4413E-03  0.0000E+00  0.4082E+16
   -0.824905    3.64709  0.0000E+00  0.6649E-06  0.1748E-09  0.6066E-03  0.0000E+00  0.2968E+16
   -0.893650    3.95084  0.0000E+00  0.7553E-06  0.1990E-09  0.7757E-03  0.0000E+00  0.1420E+16
   -0.962395    4.16485  0.0000E+00  0.7812E-06  0.2062E-09  0.9061E-03  0.0000E+00  0.1077E+15
   -1.031140    4.20947  0.0000E+00  0.7842E-06  0.2079E-09  0.9488E-03  0.0000E+00 -0.1973E+13
   -1.099885    4.21005  0.0000E+00  0.7866E-06  0.2096E-09  0.9411E-03  0.0000E+00 -0.2012E+13
   -1.168631    4.21065  0.0000E+00  0.7888E-06  0.2116E-09  0.9357E-03  0.0000E+00 -0.2016E+13
   -1.237376    4.21125  0.0000E+00  0.7906E-06  0.2139E-09  0.9298E-03  0.0000E+00 -0.2054E+13
   -1.306122    4.21185  0.0000E+00  0.7921E-06  0.2164E-09  0.9225E-03  0.0000E+00 -0.2098E+13
   -1.374868    4.21246  0.0000E+00  0.7933E-06  0.2191E-09  0.9136E-03  0.0000E+00 -0.2133E+13
   -1.443613    4.21308  0.0000E+00  0.7940E-06  0.2222E-09  0.9033E-03  0.0000E+00 -0.2168E+13
   -1.512359    4.21370  0.0000E+00  0.7944E-06  0.2256E-09  0.8910E-03  0.0000E+00 -0.2211E+13
   -1.581105    4.21433  0.0000E+00  0.7944E-06  0.2294E-09  0.8770E-03  0.0000E+00 -0.2256E+13
   -1.649850    4.21497  0.0000E+00  0.7940E-06  0.2337E-09  0.8607E-03  0.0000E+00 -0.2311E+13
   -1.718595    4.21562  0.0000E+00  0.7932E-06  0.2386E-09  0.8425E-03  0.0000E+00 -0.2374E+13
   -1.787341    4.21629  0.0000E+00  0.7920E-06  0.2442E-09  0.8220E-03  0.0000E+00 -0.2449E+13
   -1.856086    4.21697  0.0000E+00  0.7902E-06  0.2505E-09  0.7992E-03  0.0000E+00 -0.2535E+13
   -1.924830    4.21768  0.0000E+00  0.7880E-06  0.2578E-09  0.7739E-03  0.0000E+00 -0.2638E+13
   -1.993575    4.21841  0.0000E+00  0.7853E-06  0.2663E-09  0.7461E-03  0.0000E+00 -0.2757E+13
   -2.062319    4.21917  0.0000E+00  0.7820E-06  0.2762E-09  0.7156E-03  0.0000E+00 -0.2898E+13
   -2.131063    4.21997  0.0000E+00  0.7780E-06  0.2879E-09  0.6824E-03  0.0000E+00 -0.3064E+13
   -2.199806    4.22081  0.0000E+00  0.7734E-06  0.3019E-09  0.6462E-03  0.0000E+00 -0.3265E+13
   -2.268549    4.22170  0.0000E+00  0.7680E-06  0.3192E-09  0.6055E-03  0.0000E+00 -0.3511E+13
   -2.337292    4.22265  0.0000E+00  0.7613E-06  0.3417E-09  0.5591E-03  0.0000E+00 -0.3827E+13
   -2.406034    4.22368  0.0000E+00  0.7532E-06  0.3723E-09  0.5069E-03  0.0000E+00 -0.4255E+13
   -2.474775    4.22483  0.0000E+00  0.7428E-06  0.4165E-09  0.4465E-03  0.0000E+00 -0.4877E+13
   -2.543516    4.22613  0.0000E+00  0.7287E-06  0.4881E-09  0.3838E-03  0.0000E+00 -0.5732E+13
   -2.612257    4.22766  0.0000E+00  0.7004E-06  0.6675E-09  0.1848E-03  0.0000E+00 -0.1189E+14
   -2.680996    4.23081  0.0000E+00  0.4348E-06  0.3021E-08  0.8840E-05  0.0000E+00 -0.2814E+15
   -2.749735    4.29593  0.0000E+00  0.0000E+00  0.0000E+00  0.0000E+00  0.0000E+00  0.0000E+00
