 1 - depth, m
 2 - temperature, C
 3 - salinity, kg/kg
 4 - turbulent kinetic energy, m**2/s**2
 5 - dissipation rate, m**2/s**3
 6 - kinematic heat conductance, m**2/s
 7 - modulus of horizontal velocity, m/s
 8 - Richardson number, n/d
   -0.000000   16.29080  0.0000E+00  0.8001E-04  0.2114E-04  0.8780E-04  0.7372E-01 -0.1271E+00
   -0.068753   16.33972  0.0000E+00  0.4338E-04  0.4544E-05  0.9661E-04  0.2891E-01 -0.6650E-01
   -0.137507   16.35098  0.0000E+00  0.3176E-04  0.1672E-05  0.1188E-03  0.2120E-01 -0.5262E-01
   -0.206262   16.35895  0.0000E+00  0.2515E-04  0.7466E-06  0.1516E-03  0.1668E-01 -0.8528E-01
   -0.275017   16.36505  0.0000E+00  0.2131E-04  0.3923E-06  0.1903E-03  0.1356E-01 -0.1166E+00
   -0.343773   16.36985  0.0000E+00  0.1887E-04  0.2362E-06  0.2389E-03  0.1119E-01  0.9478E+00
   -0.412529   16.37365  0.0000E+00  0.1718E-04  0.1579E-06  0.3283E-03  0.9359E-02  0.1734E+02
   -0.481286   16.37659  0.0000E+00  0.1594E-04  0.1140E-06  0.4556E-03  0.7950E-02  0.1674E+03
   -0.550043   16.37885  0.0000E+00  0.1502E-04  0.8729E-07  0.6327E-03  0.6864E-02  0.6334E+02
   -0.618801   16.38050  0.0000E+00  0.1434E-04  0.7026E-07  0.8491E-03  0.6035E-02  0.9113E+02
   -0.687559   16.38163  0.0000E+00  0.1386E-04  0.5886E-07  0.1041E-02  0.5387E-02  0.6558E+03
   -0.756317   16.38244  0.0000E+00  0.1350E-04  0.5064E-07  0.1155E-02  0.4852E-02  0.3007E+02
   -0.825076   16.38312  0.0000E+00  0.1323E-04  0.4430E-07  0.1230E-02  0.4381E-02  0.2471E+02
   -0.893834   16.38374  0.0000E+00  0.1301E-04  0.3926E-07  0.1292E-02  0.3961E-02  0.3541E+01
   -0.962594   16.38432  0.0000E+00  0.1284E-04  0.3520E-07  0.1352E-02  0.3584E-02  0.3134E+01
   -1.031353   16.38488  0.0000E+00  0.1270E-04  0.3191E-07  0.1399E-02  0.3247E-02  0.3035E+01
   -1.100112   16.38542  0.0000E+00  0.1259E-04  0.2920E-07  0.1447E-02  0.2937E-02  0.2951E+01
   -1.168872   16.38594  0.0000E+00  0.1249E-04  0.2697E-07  0.1495E-02  0.2650E-02  0.2865E+01
   -1.237632   16.38644  0.0000E+00  0.1240E-04  0.2512E-07  0.1543E-02  0.2385E-02  0.2778E+01
   -1.306392   16.38693  0.0000E+00  0.1230E-04  0.2358E-07  0.1589E-02  0.2139E-02  0.2690E+01
   -1.375152   16.38741  0.0000E+00  0.1220E-04  0.2232E-07  0.1633E-02  0.1911E-02  0.2603E+01
   -1.443911   16.38788  0.0000E+00  0.1209E-04  0.2129E-07  0.1677E-02  0.1698E-02  0.2519E+01
   -1.512671   16.38833  0.0000E+00  0.1195E-04  0.2047E-07  0.1736E-02  0.1501E-02  0.2321E+01
   -1.581431   16.38878  0.0000E+00  0.1181E-04  0.1984E-07  0.1807E-02  0.1323E-02  0.2109E+01
   -1.650191   16.38921  0.0000E+00  0.1165E-04  0.1939E-07  0.1879E-02  0.1166E-02  0.1928E+01
   -1.718950   16.38962  0.0000E+00  0.1148E-04  0.1911E-07  0.1925E-02  0.1027E-02  0.1769E+01
   -1.787710   16.39003  0.0000E+00  0.1130E-04  0.1900E-07  0.1958E-02  0.9067E-03  0.1629E+01
   -1.856469   16.39043  0.0000E+00  0.1112E-04  0.1904E-07  0.1964E-02  0.8018E-03  0.1500E+01
   -1.925228   16.39083  0.0000E+00  0.1093E-04  0.1922E-07  0.1894E-02  0.7109E-03  0.1375E+01
   -1.993986   16.39125  0.0000E+00  0.1074E-04  0.1955E-07  0.1796E-02  0.6325E-03  0.1254E+01
   -2.062745   16.39170  0.0000E+00  0.1056E-04  0.2002E-07  0.1693E-02  0.5650E-03  0.1144E+01
   -2.131503   16.39217  0.0000E+00  0.1038E-04  0.2063E-07  0.1589E-02  0.5069E-03  0.1072E+01
   -2.200260   16.39269  0.0000E+00  0.1020E-04  0.2142E-07  0.1488E-02  0.4562E-03  0.1096E+01
   -2.269017   16.39324  0.0000E+00  0.1001E-04  0.2245E-07  0.1383E-02  0.4113E-03  0.1300E+01
   -2.337774   16.39384  0.0000E+00  0.9790E-05  0.2396E-07  0.1254E-02  0.3698E-03  0.1848E+01
   -2.406530   16.39450  0.0000E+00  0.9524E-05  0.2627E-07  0.1104E-02  0.3289E-03  0.2968E+01
   -2.475286   16.39527  0.0000E+00  0.9183E-05  0.3007E-07  0.8823E-03  0.2882E-03  0.5621E+01
   -2.544041   16.39624  0.0000E+00  0.8717E-05  0.3721E-07  0.8089E-03  0.2451E-03  0.1097E+02
   -2.612796   16.39729  0.0000E+00  0.7775E-05  0.6120E-07  0.3403E-03  0.2076E-03 -0.3809E+02
   -2.681550   16.40202  0.0000E+00  0.4662E-05  0.2022E-06  0.8962E-04  0.1346E-03 -0.5759E+03
   -2.750303   16.41196  0.0000E+00  0.0000E+00  0.0000E+00  0.0000E+00  0.1531E-03  0.0000E+00
