 1 - depth, m
 2 - temperature, C
 3 - salinity, kg/kg
 4 - turbulent kinetic energy, m**2/s**2
 5 - dissipation rate, m**2/s**3
 6 - kinematic heat conductance, m**2/s
 7 - modulus of horizontal velocity, m/s
 8 - Richardson number, n/d
   -0.000000    0.00000  0.0000E+00  0.1937E-12  0.2936E-16  0.1000E-09  0.0000E+00  0.1570E+17
   -0.068753    0.24341  0.0000E+00  0.3812E-12  0.3368E-16  0.1000E-09  0.0000E+00  0.1447E+17
   -0.137507    0.48382  0.0000E+00  0.7888E-12  0.5586E-16  0.1000E-09  0.0000E+00  0.1327E+17
   -0.206262    0.72078  0.0000E+00  0.1565E-11  0.1022E-15  0.1000E-09  0.0000E+00  0.1210E+17
   -0.275017    0.95392  0.0000E+00  0.3011E-11  0.1893E-15  0.1000E-09  0.0000E+00  0.1100E+17
   -0.343772    1.18350  0.0000E+00  0.5692E-11  0.3487E-15  0.1000E-09  0.0000E+00  0.9942E+16
   -0.412528    1.40940  0.0000E+00  0.1064E-10  0.6376E-15  0.1000E-09  0.0000E+00  0.8926E+16
   -0.481285    1.63147  0.0000E+00  0.1975E-10  0.1158E-14  0.1000E-09  0.0000E+00  0.7951E+16
   -0.550042    1.84945  0.0000E+00  0.3647E-10  0.2095E-14  0.1000E-09  0.0000E+00  0.7011E+16
   -0.618799    2.06282  0.0000E+00  0.6697E-10  0.3768E-14  0.1000E-09  0.0000E+00  0.6119E+16
   -0.687557    2.27137  0.0000E+00  0.1223E-09  0.6742E-14  0.1000E-09  0.0000E+00  0.5320E+16
   -0.756316    2.47664  0.0000E+00  0.2220E-09  0.1200E-13  0.1000E-09  0.0000E+00  0.4578E+16
   -0.825074    2.67958  0.0000E+00  0.4009E-09  0.2124E-13  0.1000E-09  0.0000E+00  0.3862E+16
   -0.893833    2.88005  0.0000E+00  0.7199E-09  0.3739E-13  0.1000E-09  0.0000E+00  0.3173E+16
   -0.962592    3.07791  0.0000E+00  0.1286E-08  0.6547E-13  0.1328E-09  0.0000E+00  0.2510E+16
   -1.031351    3.27297  0.0000E+00  0.2282E-08  0.1139E-12  0.3094E-09  0.0000E+00  0.1875E+16
   -1.100110    3.46494  0.0000E+00  0.4021E-08  0.1970E-12  0.7900E-09  0.0000E+00  0.1269E+16
   -1.168870    3.65333  0.0000E+00  0.7040E-08  0.3384E-12  0.2477E-08  0.0000E+00  0.6956E+15
   -1.237630    3.83656  0.0000E+00  0.1217E-07  0.5744E-12  0.1678E-07  0.0000E+00  0.1743E+15
   -1.306389    4.00049  0.0000E+00  0.1249E-07  0.5905E-12  0.9656E-04  0.0000E+00 -0.4720E+11
   -1.375149    4.00070  0.0000E+00  0.1264E-07  0.5994E-12  0.9572E-04  0.0000E+00 -0.5853E+11
   -1.443909    4.00096  0.0000E+00  0.1278E-07  0.6090E-12  0.9757E-04  0.0000E+00 -0.5977E+11
   -1.512668    4.00122  0.0000E+00  0.1290E-07  0.6193E-12  0.9996E-04  0.0000E+00 -0.5986E+11
   -1.581428    4.00147  0.0000E+00  0.1301E-07  0.6304E-12  0.1017E-03  0.0000E+00 -0.6009E+11
   -1.650188    4.00172  0.0000E+00  0.1310E-07  0.6424E-12  0.1029E-03  0.0000E+00 -0.6059E+11
   -1.718947    4.00197  0.0000E+00  0.1318E-07  0.6554E-12  0.1030E-03  0.0000E+00 -0.6164E+11
   -1.787706    4.00222  0.0000E+00  0.1325E-07  0.6697E-12  0.1023E-03  0.0000E+00 -0.6324E+11
   -1.856465    4.00247  0.0000E+00  0.1330E-07  0.6857E-12  0.1008E-03  0.0000E+00 -0.6536E+11
   -1.925224    4.00273  0.0000E+00  0.1334E-07  0.7042E-12  0.9890E-04  0.0000E+00 -0.6791E+11
   -1.993983    4.00299  0.0000E+00  0.1337E-07  0.7265E-12  0.9643E-04  0.0000E+00 -0.7106E+11
   -2.062741    4.00326  0.0000E+00  0.1338E-07  0.7542E-12  0.9201E-04  0.0000E+00 -0.7572E+11
   -2.131499    4.00354  0.0000E+00  0.1337E-07  0.7889E-12  0.8215E-04  0.0000E+00 -0.8627E+11
   -2.200256    4.00386  0.0000E+00  0.1334E-07  0.8319E-12  0.7228E-04  0.0000E+00 -0.9993E+11
   -2.269013    4.00422  0.0000E+00  0.1327E-07  0.8867E-12  0.6375E-04  0.0000E+00 -0.1159E+12
   -2.337770    4.00463  0.0000E+00  0.1316E-07  0.9610E-12  0.5553E-04  0.0000E+00 -0.1367E+12
   -2.406526    4.00510  0.0000E+00  0.1298E-07  0.1067E-11  0.4657E-04  0.0000E+00 -0.1684E+12
   -2.475281    4.00566  0.0000E+00  0.1272E-07  0.1232E-11  0.3644E-04  0.0000E+00 -0.2242E+12
   -2.544036    4.00639  0.0000E+00  0.1229E-07  0.1535E-11  0.2497E-04  0.0000E+00 -0.3470E+12
   -2.612791    4.00746  0.0000E+00  0.1141E-07  0.2298E-11  0.1242E-04  0.0000E+00 -0.7759E+12
   -2.681545    4.00969  0.0000E+00  0.7549E-08  0.7664E-11  0.1237E-05  0.0000E+00 -0.1228E+14
   -2.750298    4.03230  0.0000E+00  0.0000E+00  0.0000E+00  0.0000E+00  0.0000E+00  0.0000E+00
