 1 - depth, m
 2 - temperature, C
 3 - salinity, kg/kg
 4 - turbulent kinetic energy, m**2/s**2
 5 - dissipation rate, m**2/s**3
 6 - kinematic heat conductance, m**2/s
 7 - modulus of horizontal velocity, m/s
 8 - Richardson number, n/d
   -0.000000    9.80032  0.0000E+00  0.1350E-03  0.4843E-04  0.9149E-04  0.9577E-01  0.3195E+00
   -0.068739    9.85617  0.0000E+00  0.7436E-04  0.1169E-04  0.1480E-03  0.3366E-01 -0.3629E-01
   -0.137478    9.86820  0.0000E+00  0.5386E-04  0.4827E-05  0.1588E-03  0.2524E-01 -0.7185E-01
   -0.206218    9.87601  0.0000E+00  0.4125E-04  0.2296E-05  0.1889E-03  0.2062E-01  0.1786E+02
   -0.274959    9.88175  0.0000E+00  0.3325E-04  0.1196E-05  0.2334E-03  0.1740E-01  0.1381E+02
   -0.343700    9.88634  0.0000E+00  0.2788E-04  0.6792E-06  0.2805E-03  0.1480E-01  0.9692E+01
   -0.412442    9.89014  0.0000E+00  0.2410E-04  0.4188E-06  0.3311E-03  0.1266E-01  0.9126E+01
   -0.481184    9.89337  0.0000E+00  0.2128E-04  0.2770E-06  0.3845E-03  0.1088E-01  0.1225E+02
   -0.549927    9.89614  0.0000E+00  0.1906E-04  0.1936E-06  0.4417E-03  0.9391E-02  0.3006E+01
   -0.618670    9.89855  0.0000E+00  0.1728E-04  0.1416E-06  0.5025E-03  0.8156E-02  0.1303E+01
   -0.687414    9.90067  0.0000E+00  0.1582E-04  0.1073E-06  0.5676E-03  0.7124E-02  0.1083E+02
   -0.756157    9.90252  0.0000E+00  0.1460E-04  0.8380E-07  0.6329E-03  0.6254E-02  0.2517E+01
   -0.824901    9.90416  0.0000E+00  0.1358E-04  0.6703E-07  0.7008E-03  0.5518E-02  0.1145E+02
   -0.893646    9.90562  0.0000E+00  0.1272E-04  0.5476E-07  0.7735E-03  0.4892E-02  0.2165E+01
   -0.962390    9.90691  0.0000E+00  0.1199E-04  0.4560E-07  0.8665E-03  0.4359E-02  0.2105E+03
   -1.031135    9.90803  0.0000E+00  0.1138E-04  0.3868E-07  0.9726E-03  0.3905E-02  0.2602E+03
   -1.099880    9.90898  0.0000E+00  0.1086E-04  0.3336E-07  0.1093E-02  0.3508E-02  0.3479E+02
   -1.168625    9.90978  0.0000E+00  0.1042E-04  0.2920E-07  0.1208E-02  0.3157E-02  0.5003E+02
   -1.237371    9.91046  0.0000E+00  0.1004E-04  0.2587E-07  0.1294E-02  0.2844E-02  0.4555E+02
   -1.306116    9.91105  0.0000E+00  0.9691E-05  0.2316E-07  0.1359E-02  0.2558E-02  0.5343E+02
   -1.374861    9.91158  0.0000E+00  0.9375E-05  0.2090E-07  0.1399E-02  0.2296E-02  0.1705E+02
   -1.443607    9.91208  0.0000E+00  0.9079E-05  0.1899E-07  0.1420E-02  0.2051E-02  0.3367E+01
   -1.512352    9.91256  0.0000E+00  0.8797E-05  0.1736E-07  0.1440E-02  0.1822E-02  0.2742E+01
   -1.581097    9.91303  0.0000E+00  0.8526E-05  0.1596E-07  0.1456E-02  0.1613E-02  0.2374E+01
   -1.649842    9.91348  0.0000E+00  0.8266E-05  0.1477E-07  0.1468E-02  0.1425E-02  0.2103E+01
   -1.718588    9.91393  0.0000E+00  0.8016E-05  0.1376E-07  0.1476E-02  0.1256E-02  0.1887E+01
   -1.787332    9.91436  0.0000E+00  0.7778E-05  0.1292E-07  0.1479E-02  0.1104E-02  0.1719E+01
   -1.856077    9.91479  0.0000E+00  0.7550E-05  0.1223E-07  0.1478E-02  0.9686E-03  0.1583E+01
   -1.924821    9.91521  0.0000E+00  0.7333E-05  0.1169E-07  0.1468E-02  0.8477E-03  0.1482E+01
   -1.993565    9.91563  0.0000E+00  0.7126E-05  0.1128E-07  0.1444E-02  0.7401E-03  0.1405E+01
   -2.062309    9.91604  0.0000E+00  0.6931E-05  0.1101E-07  0.1401E-02  0.6446E-03  0.1366E+01
   -2.131053    9.91647  0.0000E+00  0.6748E-05  0.1087E-07  0.1343E-02  0.5600E-03  0.1363E+01
   -2.199796    9.91690  0.0000E+00  0.6576E-05  0.1087E-07  0.1274E-02  0.4850E-03  0.1446E+01
   -2.268539    9.91735  0.0000E+00  0.6416E-05  0.1103E-07  0.1196E-02  0.4183E-03  0.1591E+01
   -2.337281    9.91782  0.0000E+00  0.6263E-05  0.1136E-07  0.1110E-02  0.3611E-03  0.1968E+01
   -2.406023    9.91832  0.0000E+00  0.6111E-05  0.1192E-07  0.1017E-02  0.3128E-03  0.2783E+01
   -2.474764    9.91886  0.0000E+00  0.5947E-05  0.1288E-07  0.9037E-03  0.2703E-03  0.4587E+01
   -2.543504    9.91947  0.0000E+00  0.5749E-05  0.1462E-07  0.7713E-03  0.2299E-03  0.9106E+01
   -2.612245    9.92017  0.0000E+00  0.5443E-05  0.1885E-07  0.5496E-03  0.1923E-03  0.5429E+03
   -2.680984    9.92120  0.0000E+00  0.3374E-05  0.6816E-07  0.2698E-04  0.1486E-03 -0.7491E+04
   -2.749723    9.94084  0.0000E+00  0.0000E+00  0.0000E+00  0.0000E+00  0.1494E-03  0.0000E+00
