 1 - depth, m
 2 - temperature, C
 3 - salinity, kg/kg
 4 - turbulent kinetic energy, m**2/s**2
 5 - dissipation rate, m**2/s**3
 6 - kinematic heat conductance, m**2/s
 7 - modulus of horizontal velocity, m/s
 8 - Richardson number, n/d
   -0.000000    0.00000  0.0000E+00  0.2323E-12  0.3541E-16  0.1000E-09  0.0000E+00  0.1553E+17
   -0.068764    0.24069  0.0000E+00  0.4584E-12  0.3845E-16  0.1000E-09  0.0000E+00  0.1435E+17
   -0.137529    0.47874  0.0000E+00  0.9363E-12  0.6081E-16  0.1000E-09  0.0000E+00  0.1319E+17
   -0.206295    0.71377  0.0000E+00  0.1816E-11  0.1073E-15  0.1000E-09  0.0000E+00  0.1206E+17
   -0.275061    0.94538  0.0000E+00  0.3402E-11  0.1924E-15  0.1000E-09  0.0000E+00  0.1098E+17
   -0.343828    1.17378  0.0000E+00  0.6244E-11  0.3436E-15  0.1000E-09  0.0000E+00  0.9941E+16
   -0.412595    1.39878  0.0000E+00  0.1133E-10  0.6093E-15  0.1000E-09  0.0000E+00  0.8938E+16
   -0.481363    1.62012  0.0000E+00  0.2039E-10  0.1074E-14  0.1000E-09  0.0000E+00  0.7972E+16
   -0.550131    1.83751  0.0000E+00  0.3649E-10  0.1883E-14  0.1000E-09  0.0000E+00  0.7037E+16
   -0.618899    2.05037  0.0000E+00  0.6498E-10  0.3285E-14  0.1000E-09  0.0000E+00  0.6149E+16
   -0.687668    2.25846  0.0000E+00  0.1151E-09  0.5702E-14  0.1000E-09  0.0000E+00  0.5353E+16
   -0.756438    2.46330  0.0000E+00  0.2026E-09  0.9844E-14  0.1000E-09  0.0000E+00  0.4613E+16
   -0.825207    2.66579  0.0000E+00  0.3550E-09  0.1690E-13  0.1000E-09  0.0000E+00  0.3900E+16
   -0.893977    2.86583  0.0000E+00  0.6185E-09  0.2888E-13  0.1000E-09  0.0000E+00  0.3213E+16
   -0.962747    3.06330  0.0000E+00  0.1072E-08  0.4909E-13  0.1008E-09  0.0000E+00  0.2553E+16
   -1.031517    3.25810  0.0000E+00  0.1846E-08  0.8291E-13  0.2199E-09  0.0000E+00  0.1920E+16
   -1.100288    3.44998  0.0000E+00  0.3158E-08  0.1392E-12  0.5386E-09  0.0000E+00  0.1315E+16
   -1.169058    3.63862  0.0000E+00  0.5369E-08  0.2321E-12  0.1595E-08  0.0000E+00  0.7411E+15
   -1.237829    3.82301  0.0000E+00  0.9044E-08  0.3839E-12  0.9380E-08  0.0000E+00  0.2086E+15
   -1.306600    3.99510  0.0000E+00  0.9361E-08  0.3981E-12  0.7649E-04  0.0000E+00 -0.3840E+11
   -1.375371    3.99538  0.0000E+00  0.9509E-08  0.4058E-12  0.7700E-04  0.0000E+00 -0.4631E+11
   -1.444142    3.99571  0.0000E+00  0.9641E-08  0.4140E-12  0.7852E-04  0.0000E+00 -0.4792E+11
   -1.512912    3.99603  0.0000E+00  0.9760E-08  0.4228E-12  0.8002E-04  0.0000E+00 -0.4891E+11
   -1.581683    3.99634  0.0000E+00  0.9867E-08  0.4323E-12  0.8122E-04  0.0000E+00 -0.4990E+11
   -1.650454    3.99666  0.0000E+00  0.9965E-08  0.4427E-12  0.8214E-04  0.0000E+00 -0.5097E+11
   -1.719224    3.99697  0.0000E+00  0.1005E-07  0.4543E-12  0.8254E-04  0.0000E+00 -0.5234E+11
   -1.787995    3.99727  0.0000E+00  0.1013E-07  0.4673E-12  0.8200E-04  0.0000E+00 -0.5430E+11
   -1.856765    3.99759  0.0000E+00  0.1020E-07  0.4821E-12  0.8047E-04  0.0000E+00 -0.5702E+11
   -1.925535    3.99791  0.0000E+00  0.1025E-07  0.4990E-12  0.7805E-04  0.0000E+00 -0.6062E+11
   -1.994304    3.99823  0.0000E+00  0.1030E-07  0.5188E-12  0.7476E-04  0.0000E+00 -0.6532E+11
   -2.063073    3.99858  0.0000E+00  0.1033E-07  0.5422E-12  0.7013E-04  0.0000E+00 -0.7164E+11
   -2.131842    3.99895  0.0000E+00  0.1034E-07  0.5703E-12  0.6437E-04  0.0000E+00 -0.8030E+11
   -2.200611    3.99935  0.0000E+00  0.1033E-07  0.6044E-12  0.5867E-04  0.0000E+00 -0.9091E+11
   -2.269379    3.99978  0.0000E+00  0.1029E-07  0.6472E-12  0.5296E-04  0.0000E+00 -0.1044E+12
   -2.338147    4.00027  0.0000E+00  0.1022E-07  0.7046E-12  0.4656E-04  0.0000E+00 -0.1235E+12
   -2.406914    4.00082  0.0000E+00  0.1009E-07  0.7863E-12  0.3917E-04  0.0000E+00 -0.1537E+12
   -2.475681    4.00149  0.0000E+00  0.9898E-08  0.9132E-12  0.3067E-04  0.0000E+00 -0.2077E+12
   -2.544447    4.00234  0.0000E+00  0.9559E-08  0.1146E-11  0.2095E-04  0.0000E+00 -0.3290E+12
   -2.613212    4.00360  0.0000E+00  0.8852E-08  0.1737E-11  0.1027E-04  0.0000E+00 -0.7693E+12
   -2.681977    4.00624  0.0000E+00  0.5837E-08  0.5740E-11  0.1048E-05  0.0000E+00 -0.1317E+14
   -2.750742    4.03191  0.0000E+00  0.0000E+00  0.0000E+00  0.0000E+00  0.0000E+00  0.0000E+00
