 1 - depth, m
 2 - temperature, C
 3 - salinity, kg/kg
 4 - turbulent kinetic energy, m**2/s**2
 5 - dissipation rate, m**2/s**3
 6 - kinematic heat conductance, m**2/s
 7 - modulus of horizontal velocity, m/s
 8 - Richardson number, n/d
   -0.000000    0.00000  0.0000E+00  0.1219E-13  0.7603E-17  0.1000E-09  0.0000E+00  0.1510E+17
   -0.068756    0.23376  0.0000E+00  0.1219E-13  0.7603E-17  0.1000E-09  0.0000E+00  0.1322E+17
   -0.137512    0.45196  0.0000E+00  0.1219E-13  0.7603E-17  0.1000E-09  0.0000E+00  0.1138E+17
   -0.206269    0.65203  0.0000E+00  0.1219E-13  0.7603E-17  0.1000E-09  0.0000E+00  0.9622E+16
   -0.275027    0.83161  0.0000E+00  0.1219E-13  0.7603E-17  0.1000E-09  0.0000E+00  0.8125E+16
   -0.343785    0.99211  0.0000E+00  0.1219E-13  0.7603E-17  0.1000E-09  0.0000E+00  0.6776E+16
   -0.412543    1.13322  0.0000E+00  0.1219E-13  0.7603E-17  0.1000E-09  0.0000E+00  0.5572E+16
   -0.481302    1.25498  0.0000E+00  0.1219E-13  0.7603E-17  0.1000E-09  0.0000E+00  0.4504E+16
   -0.550062    1.35771  0.0000E+00  0.1219E-13  0.7603E-17  0.1000E-09  0.0000E+00  0.3518E+16
   -0.618822    1.44097  0.0000E+00  0.1219E-13  0.7603E-17  0.1000E-09  0.0000E+00  0.2703E+16
   -0.687582    1.50693  0.0000E+00  0.1219E-13  0.7603E-17  0.1000E-09  0.0000E+00  0.2272E+16
   -0.756343    1.56383  0.0000E+00  0.1219E-13  0.7603E-17  0.1000E-09  0.0000E+00  0.2127E+16
   -0.825104    1.61838  0.0000E+00  0.1219E-13  0.7603E-17  0.1000E-09  0.0000E+00  0.2124E+16
   -0.893865    1.67419  0.0000E+00  0.1219E-13  0.7603E-17  0.1000E-09  0.0000E+00  0.2248E+16
   -0.962627    1.73481  0.0000E+00  0.4393E-13  0.8502E-17  0.1000E-09  0.0000E+00  0.2474E+16
   -1.031388    1.80357  0.0000E+00  0.1307E-12  0.1929E-16  0.1000E-09  0.0000E+00  0.2814E+16
   -1.100150    1.88461  0.0000E+00  0.3423E-12  0.4731E-16  0.1000E-09  0.0000E+00  0.3178E+16
   -1.168912    1.98019  0.0000E+00  0.8604E-12  0.1150E-15  0.1000E-09  0.0000E+00  0.3511E+16
   -1.237674    2.09157  0.0000E+00  0.2125E-11  0.2760E-15  0.1000E-09  0.0000E+00  0.3763E+16
   -1.306437    2.21897  0.0000E+00  0.5184E-11  0.6555E-15  0.1000E-09  0.0000E+00  0.3890E+16
   -1.375199    2.36142  0.0000E+00  0.1252E-10  0.1541E-14  0.1000E-09  0.0000E+00  0.3959E+16
   -1.443961    2.52099  0.0000E+00  0.2991E-10  0.3586E-14  0.1000E-09  0.0000E+00  0.3863E+16
   -1.512723    2.69603  0.0000E+00  0.7089E-10  0.8280E-14  0.1000E-09  0.0000E+00  0.3582E+16
   -1.581485    2.88350  0.0000E+00  0.1672E-09  0.1904E-13  0.1000E-09  0.0000E+00  0.3133E+16
   -1.650247    3.07939  0.0000E+00  0.3914E-09  0.4343E-13  0.1000E-09  0.0000E+00  0.2558E+16
   -1.719009    3.27913  0.0000E+00  0.9084E-09  0.9826E-13  0.2609E-09  0.0000E+00  0.1917E+16
   -1.787771    3.47863  0.0000E+00  0.2090E-08  0.2204E-12  0.8829E-09  0.0000E+00  0.1270E+16
   -1.856532    3.67542  0.0000E+00  0.4759E-08  0.4898E-12  0.3837E-08  0.0000E+00  0.6491E+15
   -1.925294    3.86763  0.0000E+00  0.1046E-07  0.1054E-11  0.5139E-07  0.0000E+00  0.1040E+15
   -1.994055    4.01498  0.0000E+00  0.1165E-07  0.1180E-11  0.4539E-04  0.0000E+00 -0.2760E+12
   -2.062815    4.01559  0.0000E+00  0.1216E-07  0.1249E-11  0.4535E-04  0.0000E+00 -0.3007E+12
   -2.131576    4.01624  0.0000E+00  0.1258E-07  0.1325E-11  0.4492E-04  0.0000E+00 -0.3160E+12
   -2.200336    4.01691  0.0000E+00  0.1292E-07  0.1412E-11  0.4357E-04  0.0000E+00 -0.3379E+12
   -2.269095    4.01761  0.0000E+00  0.1317E-07  0.1516E-11  0.4135E-04  0.0000E+00 -0.3715E+12
   -2.337854    4.01835  0.0000E+00  0.1335E-07  0.1652E-11  0.3802E-04  0.0000E+00 -0.4245E+12
   -2.406613    4.01919  0.0000E+00  0.1343E-07  0.1841E-11  0.3345E-04  0.0000E+00 -0.5122E+12
   -2.475371    4.02017  0.0000E+00  0.1338E-07  0.2130E-11  0.2750E-04  0.0000E+00 -0.6733E+12
   -2.544129    4.02142  0.0000E+00  0.1314E-07  0.2651E-11  0.2001E-04  0.0000E+00 -0.1042E+13
   -2.612886    4.02326  0.0000E+00  0.1243E-07  0.3935E-11  0.1083E-04  0.0000E+00 -0.2381E+13
   -2.681642    4.02717  0.0000E+00  0.9380E-08  0.1166E-10  0.1689E-05  0.0000E+00 -0.3028E+14
   -2.750398    4.06073  0.0000E+00  0.0000E+00  0.0000E+00  0.0000E+00  0.0000E+00  0.0000E+00
