 1 - depth, m
 2 - temperature, C
 3 - salinity, kg/kg
 4 - turbulent kinetic energy, m**2/s**2
 5 - dissipation rate, m**2/s**3
 6 - kinematic heat conductance, m**2/s
 7 - modulus of horizontal velocity, m/s
 8 - Richardson number, n/d
   -0.000000    0.00000  0.0000E+00  0.1218E-13  0.7603E-17  0.1000E-09  0.0000E+00  0.4053E+17
   -0.068749    0.66823  0.0000E+00  0.1218E-13  0.7603E-17  0.1000E-09  0.0000E+00  0.1923E+17
   -0.137499    1.04363  0.0000E+00  0.1218E-13  0.7603E-17  0.1000E-09  0.0000E+00  0.8277E+16
   -0.206249    1.22345  0.0000E+00  0.1218E-13  0.7603E-17  0.1000E-09  0.0000E+00  0.2446E+16
   -0.275000    1.27968  0.0000E+00  0.1218E-13  0.7603E-17  0.1000E-09  0.0000E+00  0.7829E+15
   -0.343751    1.29751  0.0000E+00  0.1218E-13  0.7603E-17  0.1000E-09  0.0000E+00  0.6084E+15
   -0.412503    1.31066  0.0000E+00  0.1218E-13  0.7603E-17  0.1000E-09  0.0000E+00  0.1085E+16
   -0.481255    1.33465  0.0000E+00  0.1218E-13  0.7603E-17  0.1000E-09  0.0000E+00  0.1730E+16
   -0.550008    1.37402  0.0000E+00  0.1218E-13  0.7603E-17  0.1000E-09  0.0000E+00  0.1785E+16
   -0.618762    1.41545  0.0000E+00  0.1218E-13  0.7603E-17  0.1000E-09  0.0000E+00  0.1991E+16
   -0.687515    1.46269  0.0000E+00  0.1218E-13  0.7603E-17  0.1000E-09  0.0000E+00  0.2122E+16
   -0.756269    1.51420  0.0000E+00  0.1218E-13  0.7603E-17  0.1000E-09  0.0000E+00  0.2168E+16
   -0.825023    1.56807  0.0000E+00  0.1218E-13  0.7603E-17  0.1000E-09  0.0000E+00  0.2159E+16
   -0.893778    1.62301  0.0000E+00  0.1218E-13  0.7603E-17  0.1000E-09  0.0000E+00  0.2014E+16
   -0.962533    1.67547  0.0000E+00  0.1274E-13  0.7915E-17  0.1000E-09  0.0000E+00  0.1641E+16
   -1.031288    1.71909  0.0000E+00  0.2121E-13  0.1282E-16  0.1000E-09  0.0000E+00  0.2054E+16
   -1.100043    1.77515  0.0000E+00  0.8294E-13  0.4756E-16  0.1000E-09  0.0000E+00  0.2369E+16
   -1.168798    1.84185  0.0000E+00  0.4757E-12  0.2611E-15  0.1000E-09  0.0000E+00  0.2561E+16
   -1.237554    1.91660  0.0000E+00  0.2853E-11  0.1506E-14  0.1000E-09  0.0000E+00  0.2667E+16
   -1.306309    1.99763  0.0000E+00  0.1671E-10  0.8487E-14  0.1070E-09  0.0000E+00  0.2708E+16
   -1.375065    2.08349  0.0000E+00  0.9459E-10  0.4613E-13  0.1597E-09  0.0000E+00  0.3139E+16
   -1.443820    2.18861  0.0000E+00  0.5154E-09  0.2410E-12  0.4036E-09  0.0000E+00  0.3789E+16
   -1.512576    2.32484  0.0000E+00  0.2687E-08  0.1204E-11  0.1576E-08  0.0000E+00  0.3632E+16
   -1.581331    2.46794  0.0000E+00  0.1314E-07  0.5659E-11  0.5087E-08  0.0000E+00  0.3523E+16
   -1.650087    2.62858  0.0000E+00  0.5673E-07  0.2369E-10  0.2015E-07  0.0000E+00  0.3646E+16
   -1.718842    2.88635  0.0000E+00  0.1110E-06  0.4638E-10  0.3196E-04  0.0000E+00  0.2966E+16
   -1.787597    3.15062  0.0000E+00  0.1586E-06  0.6701E-10  0.8253E-04  0.0000E+00  0.2333E+16
   -1.856352    3.38033  0.0000E+00  0.2001E-06  0.8591E-10  0.1202E-03  0.0000E+00  0.1808E+16
   -1.925106    3.57896  0.0000E+00  0.2362E-06  0.1034E-09  0.1545E-03  0.0000E+00  0.1373E+16
   -1.993860    3.74990  0.0000E+00  0.2683E-06  0.1204E-09  0.1799E-03  0.0000E+00  0.1034E+16
   -2.062614    3.89784  0.0000E+00  0.2975E-06  0.1376E-09  0.2012E-03  0.0000E+00  0.8938E+15
   -2.131368    4.03934  0.0000E+00  0.3222E-06  0.1544E-09  0.2176E-03  0.0000E+00  0.5283E+15
   -2.200121    4.15592  0.0000E+00  0.3344E-06  0.1660E-09  0.2296E-03  0.0000E+00  0.4207E+14
   -2.268874    4.18628  0.0000E+00  0.3395E-06  0.1753E-09  0.2296E-03  0.0000E+00 -0.7822E+13
   -2.337626    4.18882  0.0000E+00  0.3421E-06  0.1864E-09  0.2204E-03  0.0000E+00 -0.8389E+13
   -2.406378    4.19147  0.0000E+00  0.3429E-06  0.2010E-09  0.2068E-03  0.0000E+00 -0.9229E+13
   -2.475130    4.19435  0.0000E+00  0.3412E-06  0.2217E-09  0.1876E-03  0.0000E+00 -0.1055E+14
   -2.543881    4.19759  0.0000E+00  0.3360E-06  0.2559E-09  0.1573E-03  0.0000E+00 -0.1305E+14
   -2.612631    4.20155  0.0000E+00  0.3216E-06  0.3396E-09  0.9029E-04  0.0000E+00 -0.2403E+14
   -2.681381    4.20868  0.0000E+00  0.2097E-06  0.1143E-08  0.7027E-05  0.0000E+00 -0.3964E+15
   -2.750130    4.30322  0.0000E+00  0.0000E+00  0.0000E+00  0.0000E+00  0.0000E+00  0.0000E+00
