 1 - depth, m
 2 - temperature, C
 3 - salinity, kg/kg
 4 - turbulent kinetic energy, m**2/s**2
 5 - dissipation rate, m**2/s**3
 6 - kinematic heat conductance, m**2/s
 7 - modulus of horizontal velocity, m/s
 8 - Richardson number, n/d
   -0.000000    0.74929  0.0000E+00  0.9716E-03  0.1777E-02  0.1073E-03  0.3816E+00 -0.7649E-02
   -0.068739    0.77683  0.0000E+00  0.4885E-03  0.4055E-03  0.5308E-03  0.1066E+00  0.4124E-01
   -0.137478    0.78298  0.0000E+00  0.3524E-03  0.1903E-03  0.4741E-03  0.7905E-01  0.1458E-01
   -0.206218    0.78693  0.0000E+00  0.2676E-03  0.1048E-03  0.4454E-03  0.6649E-01  0.1713E-01
   -0.274959    0.78956  0.0000E+00  0.2107E-03  0.5934E-04  0.4166E-03  0.5869E-01  0.3939E-02
   -0.343700    0.79184  0.0000E+00  0.1686E-03  0.3245E-04  0.4160E-03  0.5147E-01  0.5165E-02
   -0.412441    0.79399  0.0000E+00  0.1390E-03  0.1819E-04  0.4188E-03  0.4527E-01  0.5027E-02
   -0.481183    0.79606  0.0000E+00  0.1171E-03  0.1037E-04  0.4250E-03  0.3994E-01  0.6006E-02
   -0.549926    0.79811  0.0000E+00  0.1003E-03  0.6101E-05  0.4368E-03  0.3527E-01  0.9224E-02
   -0.618669    0.80015  0.0000E+00  0.8739E-04  0.3712E-05  0.4474E-03  0.3148E-01  0.1286E-01
   -0.687412    0.80221  0.0000E+00  0.7713E-04  0.2400E-05  0.4590E-03  0.2828E-01  0.1876E-01
   -0.756156    0.80428  0.0000E+00  0.6882E-04  0.1643E-05  0.4684E-03  0.2555E-01  0.2726E-01
   -0.824900    0.80640  0.0000E+00  0.6190E-04  0.1183E-05  0.4759E-03  0.2318E-01  0.3957E-01
   -0.893644    0.80858  0.0000E+00  0.5602E-04  0.8870E-06  0.4816E-03  0.2111E-01  0.5836E-01
   -0.962389    0.81084  0.0000E+00  0.5100E-04  0.6882E-06  0.4859E-03  0.1930E-01  0.9088E-01
   -1.031133    0.81319  0.0000E+00  0.4671E-04  0.5494E-06  0.4827E-03  0.1771E-01  0.1105E+00
   -1.099878    0.81568  0.0000E+00  0.4294E-04  0.4482E-06  0.4768E-03  0.1626E-01  0.1357E+00
   -1.168623    0.81836  0.0000E+00  0.3956E-04  0.3718E-06  0.4676E-03  0.1491E-01  0.1682E+00
   -1.237369    0.82129  0.0000E+00  0.3648E-04  0.3126E-06  0.4549E-03  0.1365E-01  0.2094E+00
   -1.306114    0.82455  0.0000E+00  0.3364E-04  0.2655E-06  0.4381E-03  0.1247E-01  0.2604E+00
   -1.374859    0.82830  0.0000E+00  0.3099E-04  0.2273E-06  0.4172E-03  0.1136E-01  0.3165E+00
   -1.443604    0.83274  0.0000E+00  0.2845E-04  0.1956E-06  0.3908E-03  0.1029E-01  0.3615E+00
   -1.512349    0.83839  0.0000E+00  0.2598E-04  0.1684E-06  0.3664E-03  0.9234E-02  0.6518E+00
   -1.581094    0.84643  0.0000E+00  0.2356E-04  0.1450E-06  0.3400E-03  0.8245E-02  0.3874E+01
   -1.649840    0.87665  0.0000E+00  0.2116E-04  0.1245E-06  0.3117E-03  0.7285E-02  0.7673E+02
   -1.718584    1.01648  0.0000E+00  0.1888E-04  0.1067E-06  0.2839E-03  0.6271E-02  0.6068E+03
   -1.787329    1.22119  0.0000E+00  0.1680E-04  0.9136E-07  0.2565E-03  0.5378E-02  0.7613E+04
   -1.856074    1.42181  0.0000E+00  0.1492E-04  0.7830E-07  0.2299E-03  0.4583E-02  0.2194E+06
   -1.924818    1.61956  0.0000E+00  0.1321E-04  0.6712E-07  0.2037E-03  0.3912E-02  0.1155E+08
   -1.993562    1.77806  0.0000E+00  0.1165E-04  0.5754E-07  0.1780E-03  0.3313E-02  0.6800E+09
   -2.062306    1.90974  0.0000E+00  0.1024E-04  0.4938E-07  0.1549E-03  0.2789E-02  0.2188E+12
   -2.131049    2.05198  0.0000E+00  0.8897E-05  0.4219E-07  0.1329E-03  0.2324E-02  0.5343E+14
   -2.199792    2.27011  0.0000E+00  0.7496E-05  0.3514E-07  0.1153E-03  0.1816E-02  0.3492E+15
   -2.268534    2.79933  0.0000E+00  0.6536E-05  0.3016E-07  0.1094E-03  0.1216E-02  0.4432E+15
   -2.337277    2.98656  0.0000E+00  0.5745E-05  0.2666E-07  0.9655E-04  0.9837E-03  0.2186E+15
   -2.406018    3.18552  0.0000E+00  0.4965E-05  0.2377E-07  0.8311E-04  0.7758E-03 -0.8616E+15
   -2.474759    3.56200  0.0000E+00  0.4172E-05  0.2170E-07  0.7016E-04  0.5757E-03 -0.3343E+16
   -2.543500    4.06963  0.0000E+00  0.3518E-05  0.2172E-07  0.5788E-04  0.3988E-03 -0.6660E+16
   -2.612240    4.48404  0.0000E+00  0.2964E-05  0.2674E-07  0.4082E-04  0.3066E-03 -0.9340E+16
   -2.680979    4.84405  0.0000E+00  0.1555E-05  0.7481E-07  0.6723E-05  0.2327E-03 -0.6826E+16
   -2.749718    5.14154  0.0000E+00  0.0000E+00  0.0000E+00  0.0000E+00  0.2330E-03  0.0000E+00
