 1 - depth, m
 2 - temperature, C
 3 - salinity, kg/kg
 4 - turbulent kinetic energy, m**2/s**2
 5 - dissipation rate, m**2/s**3
 6 - kinematic heat conductance, m**2/s
 7 - modulus of horizontal velocity, m/s
 8 - Richardson number, n/d
   -0.000000   10.96551  0.0000E+00  0.3403E-03  0.2090E-03  0.9528E-04  0.1870E+00  0.2234E-02
   -0.068741   10.98924  0.0000E+00  0.1864E-03  0.5590E-04  0.2850E-03  0.5670E-01 -0.9500E-02
   -0.137483   10.99343  0.0000E+00  0.1356E-03  0.2555E-04  0.2657E-03  0.4367E-01 -0.1284E-01
   -0.206226   10.99648  0.0000E+00  0.1029E-03  0.1273E-04  0.2661E-03  0.3657E-01 -0.1420E-01
   -0.274969   10.99872  0.0000E+00  0.8171E-04  0.6599E-05  0.2711E-03  0.3171E-01 -0.1215E-01
   -0.343713   11.00055  0.0000E+00  0.6701E-04  0.3545E-05  0.2834E-03  0.2754E-01 -0.1487E-01
   -0.412457   11.00210  0.0000E+00  0.5654E-04  0.2023E-05  0.2994E-03  0.2398E-01 -0.1844E-01
   -0.481202   11.00342  0.0000E+00  0.4879E-04  0.1246E-05  0.3175E-03  0.2097E-01 -0.2325E-01
   -0.549947   11.00459  0.0000E+00  0.4273E-04  0.8244E-06  0.3390E-03  0.1842E-01 -0.3073E-01
   -0.618692   11.00562  0.0000E+00  0.3792E-04  0.5783E-06  0.3604E-03  0.1628E-01 -0.4020E-01
   -0.687438   11.00655  0.0000E+00  0.3400E-04  0.4236E-06  0.3818E-03  0.1446E-01 -0.5206E-01
   -0.756185   11.00740  0.0000E+00  0.3073E-04  0.3205E-06  0.4035E-03  0.1290E-01 -0.6610E-01
   -0.824931   11.00818  0.0000E+00  0.2797E-04  0.2487E-06  0.4286E-03  0.1153E-01 -0.2298E-01
   -0.893678   11.00891  0.0000E+00  0.2561E-04  0.1971E-06  0.4713E-03  0.1034E-01  0.2833E+02
   -0.962425   11.00955  0.0000E+00  0.2359E-04  0.1591E-06  0.5287E-03  0.9300E-02  0.3179E+01
   -1.031173   11.01014  0.0000E+00  0.2187E-04  0.1306E-06  0.5634E-03  0.8392E-02  0.3539E+01
   -1.099920   11.01069  0.0000E+00  0.2037E-04  0.1088E-06  0.5999E-03  0.7570E-02  0.3529E+01
   -1.168668   11.01120  0.0000E+00  0.1904E-04  0.9174E-07  0.6355E-03  0.6827E-02  0.7808E+02
   -1.237416   11.01169  0.0000E+00  0.1787E-04  0.7824E-07  0.6697E-03  0.6152E-02  0.4319E+01
   -1.306163   11.01215  0.0000E+00  0.1681E-04  0.6737E-07  0.7108E-03  0.5537E-02  0.1065E+02
   -1.374911   11.01259  0.0000E+00  0.1585E-04  0.5850E-07  0.7481E-03  0.4974E-02  0.1566E+02
   -1.443659   11.01301  0.0000E+00  0.1497E-04  0.5116E-07  0.7831E-03  0.4457E-02  0.1915E+01
   -1.512407   11.01341  0.0000E+00  0.1415E-04  0.4502E-07  0.8244E-03  0.3977E-02  0.9041E+01
   -1.581155   11.01380  0.0000E+00  0.1339E-04  0.3982E-07  0.8651E-03  0.3545E-02  0.9523E+01
   -1.649902   11.01418  0.0000E+00  0.1269E-04  0.3543E-07  0.8973E-03  0.3158E-02  0.1603E+01
   -1.718650   11.01454  0.0000E+00  0.1204E-04  0.3172E-07  0.9310E-03  0.2811E-02  0.1457E+02
   -1.787397   11.01488  0.0000E+00  0.1145E-04  0.2858E-07  0.9724E-03  0.2500E-02  0.1787E+02
   -1.856144   11.01522  0.0000E+00  0.1090E-04  0.2594E-07  0.1015E-02  0.2219E-02  0.2301E+02
   -1.924891   11.01554  0.0000E+00  0.1039E-04  0.2373E-07  0.1049E-02  0.1967E-02  0.1713E+02
   -1.993638   11.01586  0.0000E+00  0.9929E-05  0.2189E-07  0.1084E-02  0.1737E-02  0.3567E+02
   -2.062384   11.01616  0.0000E+00  0.9500E-05  0.2040E-07  0.1118E-02  0.1529E-02  0.5716E+02
   -2.131130   11.01646  0.0000E+00  0.9104E-05  0.1921E-07  0.1141E-02  0.1338E-02  0.5728E+02
   -2.199876   11.01675  0.0000E+00  0.8739E-05  0.1833E-07  0.1145E-02  0.1163E-02  0.1651E+02
   -2.268621   11.01704  0.0000E+00  0.8399E-05  0.1775E-07  0.1126E-02  0.9999E-03  0.1037E+03
   -2.337366   11.01733  0.0000E+00  0.8076E-05  0.1750E-07  0.1068E-02  0.8544E-03  0.4593E+02
   -2.406110   11.01765  0.0000E+00  0.7768E-05  0.1763E-07  0.9728E-03  0.7263E-03  0.5760E+03
   -2.474853   11.01800  0.0000E+00  0.7460E-05  0.1831E-07  0.8423E-03  0.6135E-03  0.1778E+03
   -2.543597   11.01841  0.0000E+00  0.7106E-05  0.2007E-07  0.6552E-03  0.5109E-03  0.1966E+03
   -2.612339   11.01895  0.0000E+00  0.6577E-05  0.2525E-07  0.3948E-03  0.4088E-03  0.1774E+03
   -2.681081   11.01989  0.0000E+00  0.3827E-05  0.8135E-07  0.2473E-04  0.2992E-03 -0.2065E+05
   -2.749823   11.03585  0.0000E+00  0.0000E+00  0.0000E+00  0.0000E+00  0.2989E-03  0.0000E+00
