 1 - depth, m
 2 - temperature, C
 3 - salinity, kg/kg
 4 - turbulent kinetic energy, m**2/s**2
 5 - dissipation rate, m**2/s**3
 6 - kinematic heat conductance, m**2/s
 7 - modulus of horizontal velocity, m/s
 8 - Richardson number, n/d
   -0.000000    0.00000  0.0000E+00  0.1219E-13  0.7603E-17  0.1000E-09  0.0000E+00  0.1152E+17
   -0.068728    0.17706  0.0000E+00  0.1219E-13  0.7603E-17  0.1000E-09  0.0000E+00  0.1049E+17
   -0.137457    0.34628  0.0000E+00  0.1219E-13  0.7603E-17  0.1000E-09  0.0000E+00  0.9774E+16
   -0.206187    0.51179  0.0000E+00  0.1219E-13  0.7603E-17  0.1000E-09  0.0000E+00  0.9203E+16
   -0.274917    0.67565  0.0000E+00  0.1219E-13  0.7603E-17  0.1000E-09  0.0000E+00  0.8805E+16
   -0.343648    0.84087  0.0000E+00  0.1219E-13  0.7603E-17  0.1000E-09  0.0000E+00  0.8421E+16
   -0.412379    1.00792  0.0000E+00  0.1219E-13  0.7603E-17  0.1000E-09  0.0000E+00  0.8018E+16
   -0.481111    1.17668  0.0000E+00  0.2781E-13  0.7607E-17  0.1000E-09  0.0000E+00  0.7578E+16
   -0.549843    1.34658  0.0000E+00  0.8994E-13  0.1093E-16  0.1000E-09  0.0000E+00  0.7075E+16
   -0.618576    1.51621  0.0000E+00  0.2206E-12  0.2251E-16  0.1000E-09  0.0000E+00  0.6562E+16
   -0.687309    1.68518  0.0000E+00  0.4946E-12  0.4833E-16  0.1000E-09  0.0000E+00  0.6045E+16
   -0.756042    1.85313  0.0000E+00  0.1082E-11  0.1040E-15  0.1000E-09  0.0000E+00  0.5524E+16
   -0.824776    2.01959  0.0000E+00  0.2354E-11  0.2239E-15  0.1000E-09  0.0000E+00  0.5004E+16
   -0.893509    2.18407  0.0000E+00  0.5131E-11  0.4831E-15  0.1000E-09  0.0000E+00  0.4488E+16
   -0.962244    2.34598  0.0000E+00  0.1121E-10  0.1045E-14  0.1000E-09  0.0000E+00  0.3979E+16
   -1.030978    2.50470  0.0000E+00  0.2450E-10  0.2259E-14  0.1000E-09  0.0000E+00  0.3519E+16
   -1.099713    2.66125  0.0000E+00  0.5355E-10  0.4880E-14  0.1000E-09  0.0000E+00  0.3072E+16
   -1.168447    2.81530  0.0000E+00  0.1170E-09  0.1053E-13  0.1000E-09  0.0000E+00  0.2642E+16
   -1.237182    2.96661  0.0000E+00  0.2553E-09  0.2264E-13  0.1002E-09  0.0000E+00  0.2233E+16
   -1.305917    3.11515  0.0000E+00  0.5556E-09  0.4853E-13  0.1401E-09  0.0000E+00  0.1850E+16
   -1.374652    3.26128  0.0000E+00  0.1204E-08  0.1035E-12  0.3430E-09  0.0000E+00  0.1525E+16
   -1.443387    3.40927  0.0000E+00  0.2597E-08  0.2192E-12  0.9029E-09  0.0000E+00  0.1219E+16
   -1.512121    3.56378  0.0000E+00  0.5567E-08  0.4613E-12  0.2573E-08  0.0000E+00  0.8920E+15
   -1.580856    3.73208  0.0000E+00  0.1181E-07  0.9612E-12  0.1185E-07  0.0000E+00  0.4554E+15
   -1.649591    3.92320  0.0000E+00  0.1741E-07  0.1398E-11  0.2753E-04  0.0000E+00  0.5200E+14
   -1.718325    4.01359  0.0000E+00  0.1807E-07  0.1456E-11  0.8620E-04  0.0000E+00 -0.1665E+12
   -1.787060    4.01399  0.0000E+00  0.1842E-07  0.1496E-11  0.8620E-04  0.0000E+00 -0.1818E+12
   -1.855794    4.01441  0.0000E+00  0.1873E-07  0.1539E-11  0.8775E-04  0.0000E+00 -0.1849E+12
   -1.924528    4.01483  0.0000E+00  0.1900E-07  0.1585E-11  0.8853E-04  0.0000E+00 -0.1881E+12
   -1.993261    4.01525  0.0000E+00  0.1922E-07  0.1636E-11  0.8837E-04  0.0000E+00 -0.1929E+12
   -2.061995    4.01567  0.0000E+00  0.1939E-07  0.1693E-11  0.8704E-04  0.0000E+00 -0.2005E+12
   -2.130728    4.01611  0.0000E+00  0.1952E-07  0.1760E-11  0.8464E-04  0.0000E+00 -0.2111E+12
   -2.199460    4.01656  0.0000E+00  0.1961E-07  0.1841E-11  0.8091E-04  0.0000E+00 -0.2262E+12
   -2.268192    4.01704  0.0000E+00  0.1963E-07  0.1946E-11  0.7440E-04  0.0000E+00 -0.2521E+12
   -2.336924    4.01756  0.0000E+00  0.1959E-07  0.2089E-11  0.6523E-04  0.0000E+00 -0.2953E+12
   -2.405655    4.01816  0.0000E+00  0.1944E-07  0.2292E-11  0.5508E-04  0.0000E+00 -0.3605E+12
   -2.474386    4.01888  0.0000E+00  0.1915E-07  0.2606E-11  0.4400E-04  0.0000E+00 -0.4679E+12
   -2.543116    4.01979  0.0000E+00  0.1859E-07  0.3171E-11  0.3111E-04  0.0000E+00 -0.6945E+12
   -2.611846    4.02110  0.0000E+00  0.1739E-07  0.4561E-11  0.1615E-04  0.0000E+00 -0.1447E+13
   -2.680575    4.02367  0.0000E+00  0.1173E-07  0.1447E-10  0.1662E-05  0.0000E+00 -0.1950E+14
   -2.749303    4.04867  0.0000E+00  0.0000E+00  0.0000E+00  0.0000E+00  0.0000E+00  0.0000E+00
