 1 - depth, m
 2 - temperature, C
 3 - salinity, kg/kg
 4 - turbulent kinetic energy, m**2/s**2
 5 - dissipation rate, m**2/s**3
 6 - kinematic heat conductance, m**2/s
 7 - modulus of horizontal velocity, m/s
 8 - Richardson number, n/d
   -0.000000    0.00000  0.0000E+00  0.1219E-13  0.7603E-17  0.1000E-09  0.0000E+00  0.1399E+17
   -0.068761    0.21616  0.0000E+00  0.1219E-13  0.7603E-17  0.1000E-09  0.0000E+00  0.1277E+17
   -0.137522    0.42561  0.0000E+00  0.1688E-13  0.7603E-17  0.1000E-09  0.0000E+00  0.1163E+17
   -0.206284    0.62854  0.0000E+00  0.7046E-13  0.9834E-17  0.1000E-09  0.0000E+00  0.1059E+17
   -0.275047    0.82523  0.0000E+00  0.1882E-12  0.2036E-16  0.1000E-09  0.0000E+00  0.9705E+16
   -0.343810    1.01757  0.0000E+00  0.4388E-12  0.4425E-16  0.1000E-09  0.0000E+00  0.8899E+16
   -0.412574    1.20621  0.0000E+00  0.9791E-12  0.9543E-16  0.1000E-09  0.0000E+00  0.8149E+16
   -0.481338    1.39157  0.0000E+00  0.2148E-11  0.2039E-15  0.1000E-09  0.0000E+00  0.7441E+16
   -0.550103    1.57377  0.0000E+00  0.4676E-11  0.4329E-15  0.1000E-09  0.0000E+00  0.6744E+16
   -0.618868    1.75228  0.0000E+00  0.1012E-10  0.9145E-15  0.1000E-09  0.0000E+00  0.6096E+16
   -0.687634    1.92742  0.0000E+00  0.2178E-10  0.1922E-14  0.1000E-09  0.0000E+00  0.5599E+16
   -0.756399    2.10312  0.0000E+00  0.4664E-10  0.4019E-14  0.1000E-09  0.0000E+00  0.5175E+16
   -0.825166    2.28209  0.0000E+00  0.9936E-10  0.8363E-14  0.1000E-09  0.0000E+00  0.4740E+16
   -0.893932    2.46491  0.0000E+00  0.2105E-09  0.1731E-13  0.1000E-09  0.0000E+00  0.4285E+16
   -0.962699    2.65220  0.0000E+00  0.4434E-09  0.3564E-13  0.1000E-09  0.0000E+00  0.3804E+16
   -1.031465    2.84453  0.0000E+00  0.9266E-09  0.7277E-13  0.1151E-09  0.0000E+00  0.3290E+16
   -1.100232    3.04262  0.0000E+00  0.1920E-08  0.1473E-12  0.2746E-09  0.0000E+00  0.2732E+16
   -1.169000    3.24710  0.0000E+00  0.3942E-08  0.2955E-12  0.7071E-09  0.0000E+00  0.2126E+16
   -1.237767    3.45930  0.0000E+00  0.8016E-08  0.5869E-12  0.2037E-08  0.0000E+00  0.1462E+16
   -1.306534    3.68292  0.0000E+00  0.1607E-07  0.1150E-11  0.9001E-08  0.0000E+00  0.6762E+15
   -1.375302    3.92169  0.0000E+00  0.2457E-07  0.1749E-11  0.2938E-04  0.0000E+00  0.4394E+14
   -1.444069    4.01490  0.0000E+00  0.2514E-07  0.1793E-11  0.1280E-03  0.0000E+00 -0.1306E+12
   -1.512836    4.01520  0.0000E+00  0.2544E-07  0.1821E-11  0.1280E-03  0.0000E+00 -0.1400E+12
   -1.581603    4.01551  0.0000E+00  0.2570E-07  0.1851E-11  0.1312E-03  0.0000E+00 -0.1399E+12
   -1.650371    4.01582  0.0000E+00  0.2592E-07  0.1883E-11  0.1334E-03  0.0000E+00 -0.1399E+12
   -1.719138    4.01613  0.0000E+00  0.2611E-07  0.1917E-11  0.1335E-03  0.0000E+00 -0.1417E+12
   -1.787905    4.01644  0.0000E+00  0.2627E-07  0.1955E-11  0.1329E-03  0.0000E+00 -0.1443E+12
   -1.856671    4.01675  0.0000E+00  0.2640E-07  0.1998E-11  0.1315E-03  0.0000E+00 -0.1479E+12
   -1.925438    4.01706  0.0000E+00  0.2649E-07  0.2046E-11  0.1295E-03  0.0000E+00 -0.1524E+12
   -1.994204    4.01738  0.0000E+00  0.2655E-07  0.2100E-11  0.1268E-03  0.0000E+00 -0.1581E+12
   -2.062970    4.01771  0.0000E+00  0.2658E-07  0.2162E-11  0.1232E-03  0.0000E+00 -0.1636E+12
   -2.131735    4.01804  0.0000E+00  0.2657E-07  0.2235E-11  0.1185E-03  0.0000E+00 -0.1709E+12
   -2.200500    4.01839  0.0000E+00  0.2651E-07  0.2324E-11  0.1122E-03  0.0000E+00 -0.1812E+12
   -2.269265    4.01876  0.0000E+00  0.2640E-07  0.2441E-11  0.1049E-03  0.0000E+00 -0.1957E+12
   -2.338029    4.01915  0.0000E+00  0.2620E-07  0.2615E-11  0.8731E-04  0.0000E+00 -0.2374E+12
   -2.406793    4.01961  0.0000E+00  0.2588E-07  0.2873E-11  0.6994E-04  0.0000E+00 -0.3004E+12
   -2.475556    4.02019  0.0000E+00  0.2538E-07  0.3279E-11  0.5437E-04  0.0000E+00 -0.3944E+12
   -2.544319    4.02094  0.0000E+00  0.2456E-07  0.4018E-11  0.3778E-04  0.0000E+00 -0.5866E+12
   -2.613081    4.02201  0.0000E+00  0.2295E-07  0.5851E-11  0.1941E-04  0.0000E+00 -0.1216E+13
   -2.681842    4.02414  0.0000E+00  0.1500E-07  0.1995E-10  0.1780E-05  0.0000E+00 -0.1807E+14
   -2.750603    4.04750  0.0000E+00  0.0000E+00  0.0000E+00  0.0000E+00  0.0000E+00  0.0000E+00
