 1 - depth, m
 2 - temperature, C
 3 - salinity, kg/kg
 4 - turbulent kinetic energy, m**2/s**2
 5 - dissipation rate, m**2/s**3
 6 - kinematic heat conductance, m**2/s
 7 - modulus of horizontal velocity, m/s
 8 - Richardson number, n/d
   -0.000000    7.90173  0.0000E+00  0.2527E-03  0.1248E-03  0.1353E-03  0.1637E+00  0.3722E-02
   -0.068758    7.97516  0.0000E+00  0.1371E-03  0.3256E-04  0.2234E-03  0.5265E-01 -0.4261E-01
   -0.137517    7.98587  0.0000E+00  0.9725E-04  0.1218E-04  0.2110E-03  0.3993E-01 -0.5429E-01
   -0.206277    7.99465  0.0000E+00  0.7322E-04  0.5552E-05  0.2152E-03  0.3294E-01 -0.2729E-01
   -0.275037    8.00131  0.0000E+00  0.5816E-04  0.2794E-05  0.2265E-03  0.2815E-01 -0.1822E-01
   -0.343797    8.00680  0.0000E+00  0.4804E-04  0.1538E-05  0.2439E-03  0.2415E-01 -0.2166E-01
   -0.412558    8.01146  0.0000E+00  0.4095E-04  0.9261E-06  0.2639E-03  0.2081E-01 -0.2546E-01
   -0.481320    8.01555  0.0000E+00  0.3565E-04  0.6021E-06  0.2850E-03  0.1800E-01 -0.3074E-01
   -0.550082    8.01918  0.0000E+00  0.3146E-04  0.4147E-06  0.3087E-03  0.1562E-01 -0.3942E-01
   -0.618844    8.02244  0.0000E+00  0.2807E-04  0.2989E-06  0.3321E-03  0.1364E-01 -0.5004E-01
   -0.687607    8.02541  0.0000E+00  0.2526E-04  0.2231E-06  0.3560E-03  0.1197E-01 -0.5620E-01
   -0.756370    8.02812  0.0000E+00  0.2290E-04  0.1712E-06  0.3805E-03  0.1054E-01 -0.6666E-01
   -0.825134    8.03062  0.0000E+00  0.2088E-04  0.1343E-06  0.4061E-03  0.9308E-02  0.1544E-01
   -0.893898    8.03293  0.0000E+00  0.1914E-04  0.1074E-06  0.4335E-03  0.8250E-02 -0.8045E-01
   -0.962662    8.03507  0.0000E+00  0.1766E-04  0.8739E-07  0.4659E-03  0.7337E-02  0.6907E+00
   -1.031426    8.03704  0.0000E+00  0.1639E-04  0.7228E-07  0.5058E-03  0.6550E-02  0.1987E+00
   -1.100190    8.03885  0.0000E+00  0.1529E-04  0.6065E-07  0.5702E-03  0.5855E-02  0.8672E+02
   -1.168955    8.04049  0.0000E+00  0.1434E-04  0.5160E-07  0.6904E-03  0.5239E-02  0.1135E+03
   -1.237719    8.04191  0.0000E+00  0.1351E-04  0.4446E-07  0.8496E-03  0.4695E-02  0.3936E+03
   -1.306484    8.04310  0.0000E+00  0.1279E-04  0.3877E-07  0.9983E-03  0.4212E-02  0.7383E+02
   -1.375249    8.04410  0.0000E+00  0.1215E-04  0.3416E-07  0.1124E-02  0.3776E-02  0.1369E+03
   -1.444014    8.04494  0.0000E+00  0.1157E-04  0.3036E-07  0.1234E-02  0.3378E-02  0.4528E+03
   -1.512778    8.04565  0.0000E+00  0.1104E-04  0.2718E-07  0.1305E-02  0.3010E-02  0.1880E+02
   -1.581543    8.04630  0.0000E+00  0.1055E-04  0.2446E-07  0.1351E-02  0.2674E-02  0.1208E+02
   -1.650307    8.04689  0.0000E+00  0.1008E-04  0.2213E-07  0.1381E-02  0.2369E-02  0.7080E+01
   -1.719072    8.04746  0.0000E+00  0.9637E-05  0.2013E-07  0.1397E-02  0.2092E-02  0.2484E+01
   -1.787836    8.04802  0.0000E+00  0.9221E-05  0.1842E-07  0.1410E-02  0.1841E-02  0.2843E+01
   -1.856600    8.04856  0.0000E+00  0.8828E-05  0.1697E-07  0.1420E-02  0.1613E-02  0.2012E+01
   -1.925364    8.04909  0.0000E+00  0.8459E-05  0.1577E-07  0.1423E-02  0.1407E-02  0.1602E+01
   -1.994127    8.04962  0.0000E+00  0.8113E-05  0.1480E-07  0.1413E-02  0.1222E-02  0.1434E+01
   -2.062890    8.05014  0.0000E+00  0.7791E-05  0.1406E-07  0.1383E-02  0.1056E-02  0.1279E+01
   -2.131653    8.05066  0.0000E+00  0.7493E-05  0.1353E-07  0.1332E-02  0.9073E-03  0.1133E+01
   -2.200416    8.05120  0.0000E+00  0.7221E-05  0.1321E-07  0.1266E-02  0.7749E-03  0.9961E+00
   -2.269178    8.05176  0.0000E+00  0.6978E-05  0.1312E-07  0.1187E-02  0.6573E-03  0.8194E+00
   -2.337939    8.05235  0.0000E+00  0.6758E-05  0.1326E-07  0.1102E-02  0.5580E-03  0.6746E+00
   -2.406701    8.05298  0.0000E+00  0.6561E-05  0.1366E-07  0.1020E-02  0.4766E-03  0.6436E+00
   -2.475461    8.05365  0.0000E+00  0.6370E-05  0.1442E-07  0.9260E-03  0.4098E-03  0.8757E+00
   -2.544221    8.05438  0.0000E+00  0.6158E-05  0.1590E-07  0.8320E-03  0.3491E-03  0.1639E+01
   -2.612981    8.05519  0.0000E+00  0.5820E-05  0.1986E-07  0.5416E-03  0.2945E-03  0.2660E+02
   -2.681739    8.05642  0.0000E+00  0.3508E-05  0.6900E-07  0.2448E-04  0.2243E-03 -0.7649E+03
   -2.750498    8.08305  0.0000E+00  0.0000E+00  0.0000E+00  0.0000E+00  0.2240E-03  0.0000E+00
