 1 - depth, m
 2 - temperature, C
 3 - salinity, kg/kg
 4 - turbulent kinetic energy, m**2/s**2
 5 - dissipation rate, m**2/s**3
 6 - kinematic heat conductance, m**2/s
 7 - modulus of horizontal velocity, m/s
 8 - Richardson number, n/d
   -0.000000    0.00000  0.0000E+00  0.4332E-12  0.7449E-16  0.1000E-09  0.0000E+00  0.1620E+17
   -0.068738    0.25140  0.0000E+00  0.9076E-12  0.7638E-16  0.1000E-09  0.0000E+00  0.1486E+17
   -0.137476    0.49902  0.0000E+00  0.1880E-11  0.1165E-15  0.1000E-09  0.0000E+00  0.1356E+17
   -0.206215    0.74243  0.0000E+00  0.3620E-11  0.2005E-15  0.1000E-09  0.0000E+00  0.1230E+17
   -0.274954    0.98133  0.0000E+00  0.6674E-11  0.3522E-15  0.1000E-09  0.0000E+00  0.1113E+17
   -0.343694    1.21621  0.0000E+00  0.1202E-10  0.6165E-15  0.1000E-09  0.0000E+00  0.1002E+17
   -0.412435    1.44713  0.0000E+00  0.2137E-10  0.1072E-14  0.1000E-09  0.0000E+00  0.8969E+16
   -0.481176    1.67411  0.0000E+00  0.3770E-10  0.1854E-14  0.1000E-09  0.0000E+00  0.7963E+16
   -0.549917    1.89706  0.0000E+00  0.6618E-10  0.3193E-14  0.1000E-09  0.0000E+00  0.6997E+16
   -0.618659    2.11559  0.0000E+00  0.1156E-09  0.5475E-14  0.1000E-09  0.0000E+00  0.6084E+16
   -0.687401    2.32965  0.0000E+00  0.2011E-09  0.9346E-14  0.1000E-09  0.0000E+00  0.5278E+16
   -0.756144    2.54159  0.0000E+00  0.3481E-09  0.1588E-13  0.1000E-09  0.0000E+00  0.4528E+16
   -0.824887    2.75289  0.0000E+00  0.5998E-09  0.2687E-13  0.1000E-09  0.0000E+00  0.3790E+16
   -0.893630    2.96353  0.0000E+00  0.1029E-08  0.4525E-13  0.1000E-09  0.0000E+00  0.3063E+16
   -0.962373    3.17345  0.0000E+00  0.1757E-08  0.7587E-13  0.1647E-09  0.0000E+00  0.2346E+16
   -1.031117    3.38244  0.0000E+00  0.2982E-08  0.1265E-12  0.3930E-09  0.0000E+00  0.1639E+16
   -1.099860    3.59001  0.0000E+00  0.5032E-08  0.2098E-12  0.1125E-08  0.0000E+00  0.9489E+15
   -1.168604    3.79530  0.0000E+00  0.8429E-08  0.3453E-12  0.6148E-08  0.0000E+00  0.2860E+15
   -1.237348    3.99231  0.0000E+00  0.8750E-08  0.3592E-12  0.6614E-04  0.0000E+00 -0.3777E+11
   -1.306092    3.99271  0.0000E+00  0.8909E-08  0.3674E-12  0.6881E-04  0.0000E+00 -0.4264E+11
   -1.374837    3.99312  0.0000E+00  0.9059E-08  0.3763E-12  0.7150E-04  0.0000E+00 -0.4414E+11
   -1.443581    3.99352  0.0000E+00  0.9198E-08  0.3860E-12  0.7370E-04  0.0000E+00 -0.4545E+11
   -1.512325    3.99391  0.0000E+00  0.9327E-08  0.3964E-12  0.7560E-04  0.0000E+00 -0.4677E+11
   -1.581069    3.99430  0.0000E+00  0.9448E-08  0.4077E-12  0.7714E-04  0.0000E+00 -0.4822E+11
   -1.649813    3.99467  0.0000E+00  0.9560E-08  0.4202E-12  0.7801E-04  0.0000E+00 -0.5002E+11
   -1.718556    3.99505  0.0000E+00  0.9663E-08  0.4338E-12  0.7815E-04  0.0000E+00 -0.5226E+11
   -1.787300    3.99542  0.0000E+00  0.9757E-08  0.4489E-12  0.7755E-04  0.0000E+00 -0.5506E+11
   -1.856043    3.99580  0.0000E+00  0.9841E-08  0.4657E-12  0.7631E-04  0.0000E+00 -0.5847E+11
   -1.924787    3.99618  0.0000E+00  0.9915E-08  0.4848E-12  0.7448E-04  0.0000E+00 -0.6260E+11
   -1.993529    3.99658  0.0000E+00  0.9977E-08  0.5068E-12  0.7205E-04  0.0000E+00 -0.6767E+11
   -2.062272    3.99699  0.0000E+00  0.1003E-07  0.5327E-12  0.6831E-04  0.0000E+00 -0.7433E+11
   -2.131014    3.99743  0.0000E+00  0.1006E-07  0.5635E-12  0.6325E-04  0.0000E+00 -0.8360E+11
   -2.199756    3.99790  0.0000E+00  0.1007E-07  0.6008E-12  0.5774E-04  0.0000E+00 -0.9558E+11
   -2.268497    3.99841  0.0000E+00  0.1006E-07  0.6472E-12  0.5214E-04  0.0000E+00 -0.1110E+12
   -2.337238    3.99898  0.0000E+00  0.1001E-07  0.7090E-12  0.4589E-04  0.0000E+00 -0.1328E+12
   -2.405979    3.99963  0.0000E+00  0.9914E-08  0.7962E-12  0.3865E-04  0.0000E+00 -0.1671E+12
   -2.474719    4.00041  0.0000E+00  0.9744E-08  0.9309E-12  0.3029E-04  0.0000E+00 -0.2287E+12
   -2.543458    4.00141  0.0000E+00  0.9435E-08  0.1177E-11  0.2070E-04  0.0000E+00 -0.3678E+12
   -2.612197    4.00289  0.0000E+00  0.8763E-08  0.1798E-11  0.1015E-04  0.0000E+00 -0.8793E+12
   -2.680935    4.00599  0.0000E+00  0.5895E-08  0.5922E-11  0.1089E-05  0.0000E+00 -0.1516E+14
   -2.749673    4.03451  0.0000E+00  0.0000E+00  0.0000E+00  0.0000E+00  0.0000E+00  0.0000E+00
