 1 - depth, m
 2 - temperature, C
 3 - salinity, kg/kg
 4 - turbulent kinetic energy, m**2/s**2
 5 - dissipation rate, m**2/s**3
 6 - kinematic heat conductance, m**2/s
 7 - modulus of horizontal velocity, m/s
 8 - Richardson number, n/d
   -0.000000    0.00000  0.0000E+00  0.1219E-13  0.7603E-17  0.1000E-09  0.0000E+00  0.1361E+17
   -0.068762    0.21011  0.0000E+00  0.1219E-13  0.7603E-17  0.1000E-09  0.0000E+00  0.1275E+17
   -0.137525    0.41891  0.0000E+00  0.3909E-13  0.7603E-17  0.1000E-09  0.0000E+00  0.1190E+17
   -0.206289    0.62616  0.0000E+00  0.1155E-12  0.1046E-16  0.1000E-09  0.0000E+00  0.1105E+17
   -0.275053    0.83159  0.0000E+00  0.2605E-12  0.1903E-16  0.1000E-09  0.0000E+00  0.1024E+17
   -0.343817    1.03544  0.0000E+00  0.5298E-12  0.3603E-16  0.1000E-09  0.0000E+00  0.9448E+16
   -0.412582    1.23752  0.0000E+00  0.1034E-11  0.6791E-16  0.1000E-09  0.0000E+00  0.8664E+16
   -0.481348    1.43758  0.0000E+00  0.1982E-11  0.1269E-15  0.1000E-09  0.0000E+00  0.7890E+16
   -0.550114    1.63519  0.0000E+00  0.3763E-11  0.2356E-15  0.1000E-09  0.0000E+00  0.7122E+16
   -0.618881    1.82971  0.0000E+00  0.7096E-11  0.4349E-15  0.1000E-09  0.0000E+00  0.6375E+16
   -0.687647    2.02073  0.0000E+00  0.1330E-10  0.7980E-15  0.1000E-09  0.0000E+00  0.5678E+16
   -0.756415    2.20867  0.0000E+00  0.2476E-10  0.1455E-14  0.1000E-09  0.0000E+00  0.5017E+16
   -0.825182    2.39365  0.0000E+00  0.4583E-10  0.2639E-14  0.1000E-09  0.0000E+00  0.4376E+16
   -0.893950    2.57525  0.0000E+00  0.8434E-10  0.4759E-14  0.1000E-09  0.0000E+00  0.3761E+16
   -0.962718    2.75307  0.0000E+00  0.1543E-09  0.8535E-14  0.1000E-09  0.0000E+00  0.3176E+16
   -1.031486    2.92673  0.0000E+00  0.2805E-09  0.1520E-13  0.1000E-09  0.0000E+00  0.2628E+16
   -1.100255    3.09618  0.0000E+00  0.5064E-09  0.2691E-13  0.1000E-09  0.0000E+00  0.2115E+16
   -1.169023    3.26120  0.0000E+00  0.9087E-09  0.4734E-13  0.1472E-09  0.0000E+00  0.1637E+16
   -1.237792    3.42161  0.0000E+00  0.1621E-08  0.8284E-13  0.3527E-09  0.0000E+00  0.1196E+16
   -1.306561    3.57716  0.0000E+00  0.2877E-08  0.1441E-12  0.9279E-09  0.0000E+00  0.7909E+15
   -1.375329    3.72753  0.0000E+00  0.5071E-08  0.2493E-12  0.2982E-08  0.0000E+00  0.4257E+15
   -1.444098    3.87322  0.0000E+00  0.8806E-08  0.4253E-12  0.2195E-07  0.0000E+00  0.9874E+14
   -1.512867    4.00044  0.0000E+00  0.9148E-08  0.4427E-12  0.7430E-04  0.0000E+00 -0.5366E+11
   -1.581635    4.00068  0.0000E+00  0.9305E-08  0.4522E-12  0.7134E-04  0.0000E+00 -0.6363E+11
   -1.650404    4.00096  0.0000E+00  0.9443E-08  0.4622E-12  0.7263E-04  0.0000E+00 -0.6509E+11
   -1.719172    4.00124  0.0000E+00  0.9565E-08  0.4731E-12  0.7343E-04  0.0000E+00 -0.6604E+11
   -1.787941    4.00152  0.0000E+00  0.9672E-08  0.4851E-12  0.7364E-04  0.0000E+00 -0.6726E+11
   -1.856709    4.00180  0.0000E+00  0.9766E-08  0.4988E-12  0.7294E-04  0.0000E+00 -0.6923E+11
   -1.925477    4.00209  0.0000E+00  0.9845E-08  0.5145E-12  0.7124E-04  0.0000E+00 -0.7225E+11
   -1.994244    4.00238  0.0000E+00  0.9907E-08  0.5328E-12  0.6851E-04  0.0000E+00 -0.7662E+11
   -2.063011    4.00268  0.0000E+00  0.9951E-08  0.5544E-12  0.6455E-04  0.0000E+00 -0.8285E+11
   -2.131778    4.00300  0.0000E+00  0.9973E-08  0.5802E-12  0.5979E-04  0.0000E+00 -0.9117E+11
   -2.200545    4.00334  0.0000E+00  0.9970E-08  0.6114E-12  0.5499E-04  0.0000E+00 -0.1012E+12
   -2.269311    4.00372  0.0000E+00  0.9938E-08  0.6506E-12  0.4996E-04  0.0000E+00 -0.1142E+12
   -2.338076    4.00413  0.0000E+00  0.9869E-08  0.7033E-12  0.4415E-04  0.0000E+00 -0.1330E+12
   -2.406841    4.00460  0.0000E+00  0.9749E-08  0.7785E-12  0.3732E-04  0.0000E+00 -0.1628E+12
   -2.475606    4.00516  0.0000E+00  0.9552E-08  0.8957E-12  0.2938E-04  0.0000E+00 -0.2159E+12
   -2.544370    4.00588  0.0000E+00  0.9213E-08  0.1111E-11  0.2020E-04  0.0000E+00 -0.3345E+12
   -2.613134    4.00694  0.0000E+00  0.8511E-08  0.1657E-11  0.9967E-05  0.0000E+00 -0.7593E+12
   -2.681896    4.00917  0.0000E+00  0.5541E-08  0.5358E-11  0.9899E-06  0.0000E+00 -0.1218E+14
   -2.750659    4.03190  0.0000E+00  0.0000E+00  0.0000E+00  0.0000E+00  0.0000E+00  0.0000E+00
