 1 - depth, m
 2 - temperature, C
 3 - salinity, kg/kg
 4 - turbulent kinetic energy, m**2/s**2
 5 - dissipation rate, m**2/s**3
 6 - kinematic heat conductance, m**2/s
 7 - modulus of horizontal velocity, m/s
 8 - Richardson number, n/d
   -0.000000   16.90601  0.0000E+00  0.2042E-04  0.1794E-05  0.3219E-04  0.2829E-01 -0.3508E-01
   -0.068731   16.93218  0.0000E+00  0.1492E-04  0.4418E-06  0.7576E-04  0.1430E-01 -0.1159E+00
   -0.137463   16.94102  0.0000E+00  0.1254E-04  0.1951E-06  0.1411E-03  0.1004E-01  0.1136E+00
   -0.206196   16.94596  0.0000E+00  0.1112E-04  0.1105E-06  0.2138E-03  0.7595E-02  0.2131E+02
   -0.274929   16.94910  0.0000E+00  0.1027E-04  0.7295E-07  0.2862E-03  0.6059E-02  0.7584E+02
   -0.343663   16.95125  0.0000E+00  0.9714E-05  0.5308E-07  0.4111E-03  0.4987E-02  0.2784E+03
   -0.412397   16.95270  0.0000E+00  0.9347E-05  0.4130E-07  0.5287E-03  0.4222E-02  0.1560E+02
   -0.481132   16.95376  0.0000E+00  0.9107E-05  0.3369E-07  0.6769E-03  0.3643E-02  0.2395E+02
   -0.549867   16.95454  0.0000E+00  0.8967E-05  0.2862E-07  0.8909E-03  0.3194E-02  0.2071E+03
   -0.618602   16.95507  0.0000E+00  0.8909E-05  0.2515E-07  0.1068E-02  0.2853E-02  0.1681E+02
   -0.687338   16.95548  0.0000E+00  0.8903E-05  0.2254E-07  0.1164E-02  0.2571E-02  0.2427E+01
   -0.756075   16.95586  0.0000E+00  0.8930E-05  0.2046E-07  0.1262E-02  0.2314E-02  0.2302E+01
   -0.824811   16.95621  0.0000E+00  0.8986E-05  0.1883E-07  0.1348E-02  0.2087E-02  0.2159E+01
   -0.893548   16.95654  0.0000E+00  0.9063E-05  0.1754E-07  0.1433E-02  0.1885E-02  0.2036E+01
   -0.962285   16.95686  0.0000E+00  0.9156E-05  0.1655E-07  0.1515E-02  0.1704E-02  0.1927E+01
   -1.031023   16.95716  0.0000E+00  0.9261E-05  0.1578E-07  0.1587E-02  0.1544E-02  0.1905E+01
   -1.099760   16.95747  0.0000E+00  0.9372E-05  0.1521E-07  0.1654E-02  0.1397E-02  0.1884E+01
   -1.168498   16.95777  0.0000E+00  0.9485E-05  0.1479E-07  0.1718E-02  0.1262E-02  0.1855E+01
   -1.237236   16.95808  0.0000E+00  0.9595E-05  0.1452E-07  0.1779E-02  0.1138E-02  0.1823E+01
   -1.305973   16.95839  0.0000E+00  0.9699E-05  0.1436E-07  0.1836E-02  0.1024E-02  0.1785E+01
   -1.374711   16.95870  0.0000E+00  0.9791E-05  0.1432E-07  0.1888E-02  0.9204E-03  0.1748E+01
   -1.443449   16.95901  0.0000E+00  0.9870E-05  0.1436E-07  0.1938E-02  0.8253E-03  0.1706E+01
   -1.512187   16.95934  0.0000E+00  0.9933E-05  0.1449E-07  0.1997E-02  0.7387E-03  0.1626E+01
   -1.580925   16.95966  0.0000E+00  0.9980E-05  0.1470E-07  0.2050E-02  0.6621E-03  0.1537E+01
   -1.649662   16.95999  0.0000E+00  0.1001E-04  0.1497E-07  0.2049E-02  0.5954E-03  0.1455E+01
   -1.718400   16.96032  0.0000E+00  0.1003E-04  0.1530E-07  0.2011E-02  0.5379E-03  0.1394E+01
   -1.787137   16.96068  0.0000E+00  0.1003E-04  0.1570E-07  0.1960E-02  0.4881E-03  0.1384E+01
   -1.855874   16.96106  0.0000E+00  0.1002E-04  0.1615E-07  0.1901E-02  0.4447E-03  0.1412E+01
   -1.924611   16.96146  0.0000E+00  0.1000E-04  0.1666E-07  0.1833E-02  0.4065E-03  0.1486E+01
   -1.993348   16.96189  0.0000E+00  0.9972E-05  0.1725E-07  0.1760E-02  0.3728E-03  0.1607E+01
   -2.062084   16.96236  0.0000E+00  0.9929E-05  0.1792E-07  0.1685E-02  0.3427E-03  0.1833E+01
   -2.130820   16.96287  0.0000E+00  0.9871E-05  0.1872E-07  0.1602E-02  0.3153E-03  0.2268E+01
   -2.199556   16.96342  0.0000E+00  0.9793E-05  0.1973E-07  0.1501E-02  0.2886E-03  0.2970E+01
   -2.268291   16.96403  0.0000E+00  0.9687E-05  0.2102E-07  0.1382E-02  0.2619E-03  0.4017E+01
   -2.337025   16.96471  0.0000E+00  0.9542E-05  0.2280E-07  0.1242E-02  0.2355E-03  0.5920E+01
   -2.405760   16.96548  0.0000E+00  0.9345E-05  0.2538E-07  0.1089E-02  0.2093E-03  0.9703E+01
   -2.474493   16.96639  0.0000E+00  0.9070E-05  0.2945E-07  0.8696E-03  0.1831E-03  0.1868E+02
   -2.543227   16.96757  0.0000E+00  0.8664E-05  0.3682E-07  0.7908E-03  0.1554E-03  0.3862E+02
   -2.611959   16.96889  0.0000E+00  0.7804E-05  0.6072E-07  0.3429E-03  0.1312E-03 -0.1332E+03
   -2.680691   16.97441  0.0000E+00  0.4748E-05  0.2019E-06  0.8620E-04  0.8580E-04 -0.2801E+04
   -2.749422   16.98760  0.0000E+00  0.0000E+00  0.0000E+00  0.0000E+00  0.9625E-04  0.0000E+00
