 1 - depth, m
 2 - temperature, C
 3 - salinity, kg/kg
 4 - turbulent kinetic energy, m**2/s**2
 5 - dissipation rate, m**2/s**3
 6 - kinematic heat conductance, m**2/s
 7 - modulus of horizontal velocity, m/s
 8 - Richardson number, n/d
   -0.000000    0.00000  0.0000E+00  0.2004E-12  0.3028E-16  0.1000E-09  0.0000E+00  0.1580E+17
   -0.068747    0.24497  0.0000E+00  0.3931E-12  0.3413E-16  0.1000E-09  0.0000E+00  0.1443E+17
   -0.137494    0.48479  0.0000E+00  0.8080E-12  0.5568E-16  0.1000E-09  0.0000E+00  0.1314E+17
   -0.206241    0.71943  0.0000E+00  0.1588E-11  0.1006E-15  0.1000E-09  0.0000E+00  0.1193E+17
   -0.274990    0.94888  0.0000E+00  0.3025E-11  0.1843E-15  0.1000E-09  0.0000E+00  0.1081E+17
   -0.343739    1.17380  0.0000E+00  0.5658E-11  0.3360E-15  0.1000E-09  0.0000E+00  0.9754E+16
   -0.412488    1.39438  0.0000E+00  0.1047E-10  0.6085E-15  0.1000E-09  0.0000E+00  0.8761E+16
   -0.481238    1.61071  0.0000E+00  0.1924E-10  0.1096E-14  0.1000E-09  0.0000E+00  0.7820E+16
   -0.549989    1.82277  0.0000E+00  0.3518E-10  0.1964E-14  0.1000E-09  0.0000E+00  0.6918E+16
   -0.618739    2.03020  0.0000E+00  0.6402E-10  0.3505E-14  0.1000E-09  0.0000E+00  0.6071E+16
   -0.687490    2.23302  0.0000E+00  0.1159E-09  0.6225E-14  0.1000E-09  0.0000E+00  0.5337E+16
   -0.756242    2.43377  0.0000E+00  0.2088E-09  0.1100E-13  0.1000E-09  0.0000E+00  0.4663E+16
   -0.824994    2.63404  0.0000E+00  0.3743E-09  0.1935E-13  0.1000E-09  0.0000E+00  0.3999E+16
   -0.893746    2.83388  0.0000E+00  0.6676E-09  0.3387E-13  0.1000E-09  0.0000E+00  0.3344E+16
   -0.962498    3.03325  0.0000E+00  0.1185E-08  0.5901E-13  0.1115E-09  0.0000E+00  0.2695E+16
   -1.031251    3.23205  0.0000E+00  0.2091E-08  0.1022E-12  0.2536E-09  0.0000E+00  0.2051E+16
   -1.100003    3.42979  0.0000E+00  0.3667E-08  0.1760E-12  0.6315E-09  0.0000E+00  0.1419E+16
   -1.168756    3.62590  0.0000E+00  0.6393E-08  0.3014E-12  0.1915E-08  0.0000E+00  0.8014E+15
   -1.237509    3.81891  0.0000E+00  0.1104E-07  0.5114E-12  0.1190E-07  0.0000E+00  0.2188E+15
   -1.306262    3.99772  0.0000E+00  0.1140E-07  0.5290E-12  0.8672E-04  0.0000E+00 -0.4772E+11
   -1.375015    3.99798  0.0000E+00  0.1156E-07  0.5387E-12  0.8743E-04  0.0000E+00 -0.5604E+11
   -1.443768    3.99828  0.0000E+00  0.1171E-07  0.5488E-12  0.8974E-04  0.0000E+00 -0.5712E+11
   -1.512521    3.99858  0.0000E+00  0.1184E-07  0.5595E-12  0.9209E-04  0.0000E+00 -0.5757E+11
   -1.581274    3.99888  0.0000E+00  0.1195E-07  0.5710E-12  0.9415E-04  0.0000E+00 -0.5801E+11
   -1.650027    3.99917  0.0000E+00  0.1206E-07  0.5835E-12  0.9595E-04  0.0000E+00 -0.5857E+11
   -1.718780    3.99946  0.0000E+00  0.1215E-07  0.5971E-12  0.9614E-04  0.0000E+00 -0.6005E+11
   -1.787532    3.99975  0.0000E+00  0.1223E-07  0.6123E-12  0.9527E-04  0.0000E+00 -0.6224E+11
   -1.856285    4.00004  0.0000E+00  0.1230E-07  0.6295E-12  0.9382E-04  0.0000E+00 -0.6495E+11
   -1.925037    4.00034  0.0000E+00  0.1235E-07  0.6495E-12  0.9188E-04  0.0000E+00 -0.6820E+11
   -1.993789    4.00064  0.0000E+00  0.1240E-07  0.6732E-12  0.8944E-04  0.0000E+00 -0.7214E+11
   -2.062540    4.00096  0.0000E+00  0.1243E-07  0.7020E-12  0.8400E-04  0.0000E+00 -0.7872E+11
   -2.131291    4.00130  0.0000E+00  0.1244E-07  0.7372E-12  0.7569E-04  0.0000E+00 -0.8962E+11
   -2.200042    4.00168  0.0000E+00  0.1242E-07  0.7804E-12  0.6743E-04  0.0000E+00 -0.1035E+12
   -2.268793    4.00210  0.0000E+00  0.1237E-07  0.8352E-12  0.6001E-04  0.0000E+00 -0.1201E+12
   -2.337542    4.00258  0.0000E+00  0.1229E-07  0.9089E-12  0.5250E-04  0.0000E+00 -0.1424E+12
   -2.406292    4.00313  0.0000E+00  0.1215E-07  0.1014E-11  0.4412E-04  0.0000E+00 -0.1770E+12
   -2.475041    4.00379  0.0000E+00  0.1192E-07  0.1177E-11  0.3458E-04  0.0000E+00 -0.2384E+12
   -2.543789    4.00464  0.0000E+00  0.1152E-07  0.1474E-11  0.2372E-04  0.0000E+00 -0.3753E+12
   -2.612537    4.00590  0.0000E+00  0.1071E-07  0.2225E-11  0.1178E-04  0.0000E+00 -0.8648E+12
   -2.681284    4.00854  0.0000E+00  0.7191E-08  0.7378E-11  0.1237E-05  0.0000E+00 -0.1436E+14
   -2.750031    4.03456  0.0000E+00  0.0000E+00  0.0000E+00  0.0000E+00  0.0000E+00  0.0000E+00
