 1 - depth, m
 2 - temperature, C
 3 - salinity, kg/kg
 4 - turbulent kinetic energy, m**2/s**2
 5 - dissipation rate, m**2/s**3
 6 - kinematic heat conductance, m**2/s
 7 - modulus of horizontal velocity, m/s
 8 - Richardson number, n/d
   -0.000000    7.75002  0.0000E+00  0.4324E-03  0.3941E-03  0.1329E-03  0.2275E+00  0.1286E+00
   -0.068732    7.78924  0.0000E+00  0.2358E-03  0.9422E-04  0.3371E-03  0.6775E-01 -0.4158E+00
   -0.137465    7.79598  0.0000E+00  0.1692E-03  0.3915E-04  0.3116E-03  0.5173E-01 -0.5029E-01
   -0.206198    7.80091  0.0000E+00  0.1274E-03  0.1896E-04  0.3090E-03  0.4276E-01 -0.7066E-02
   -0.274932    7.80427  0.0000E+00  0.1008E-03  0.9754E-05  0.3102E-03  0.3711E-01 -0.7974E-02
   -0.343666    7.80698  0.0000E+00  0.8230E-04  0.5204E-05  0.3201E-03  0.3233E-01 -0.7639E-02
   -0.412401    7.80930  0.0000E+00  0.6930E-04  0.2940E-05  0.3347E-03  0.2824E-01 -0.8697E-02
   -0.481137    7.81134  0.0000E+00  0.5966E-04  0.1746E-05  0.3519E-03  0.2477E-01 -0.1017E-01
   -0.549873    7.81318  0.0000E+00  0.5219E-04  0.1114E-05  0.3726E-03  0.2179E-01 -0.1280E-01
   -0.618609    7.81484  0.0000E+00  0.4633E-04  0.7651E-06  0.3929E-03  0.1928E-01 -0.1605E-01
   -0.687346    7.81637  0.0000E+00  0.4160E-04  0.5554E-06  0.4131E-03  0.1715E-01 -0.2016E-01
   -0.756083    7.81779  0.0000E+00  0.3769E-04  0.4197E-06  0.4334E-03  0.1531E-01 -0.2539E-01
   -0.824820    7.81911  0.0000E+00  0.3439E-04  0.3267E-06  0.4541E-03  0.1373E-01 -0.3207E-01
   -0.893558    7.82035  0.0000E+00  0.3156E-04  0.2601E-06  0.4756E-03  0.1234E-01 -0.4068E-01
   -0.962296    7.82152  0.0000E+00  0.2913E-04  0.2110E-06  0.4980E-03  0.1113E-01 -0.5181E-01
   -1.031034    7.82262  0.0000E+00  0.2704E-04  0.1740E-06  0.5174E-03  0.1006E-01 -0.6220E-01
   -1.099772    7.82368  0.0000E+00  0.2521E-04  0.1456E-06  0.5371E-03  0.9101E-02 -0.7357E-01
   -1.168510    7.82470  0.0000E+00  0.2358E-04  0.1233E-06  0.5584E-03  0.8228E-02  0.2800E+00
   -1.237249    7.82568  0.0000E+00  0.2213E-04  0.1055E-06  0.5807E-03  0.7435E-02 -0.1368E-01
   -1.305987    7.82661  0.0000E+00  0.2081E-04  0.9106E-07  0.6045E-03  0.6710E-02  0.2485E-01
   -1.374726    7.82752  0.0000E+00  0.1961E-04  0.7923E-07  0.6322E-03  0.6046E-02  0.5099E+01
   -1.443464    7.82838  0.0000E+00  0.1851E-04  0.6940E-07  0.6660E-03  0.5435E-02  0.1357E+02
   -1.512203    7.82921  0.0000E+00  0.1749E-04  0.6113E-07  0.7183E-03  0.4869E-02  0.1872E+02
   -1.580941    7.83000  0.0000E+00  0.1653E-04  0.5411E-07  0.7697E-03  0.4359E-02  0.1037E+02
   -1.649680    7.83074  0.0000E+00  0.1564E-04  0.4815E-07  0.8286E-03  0.3901E-02  0.2483E+02
   -1.718418    7.83144  0.0000E+00  0.1482E-04  0.4308E-07  0.8983E-03  0.3490E-02  0.2656E+03
   -1.787156    7.83209  0.0000E+00  0.1407E-04  0.3878E-07  0.9788E-03  0.3119E-02  0.1049E+03
   -1.855894    7.83269  0.0000E+00  0.1337E-04  0.3513E-07  0.1038E-02  0.2784E-02  0.1114E+03
   -1.924632    7.83326  0.0000E+00  0.1273E-04  0.3204E-07  0.1082E-02  0.2479E-02  0.2069E+03
   -1.993369    7.83381  0.0000E+00  0.1213E-04  0.2945E-07  0.1133E-02  0.2200E-02  0.5938E+02
   -2.062106    7.83432  0.0000E+00  0.1158E-04  0.2731E-07  0.1169E-02  0.1945E-02  0.4917E+02
   -2.130843    7.83482  0.0000E+00  0.1106E-04  0.2558E-07  0.1185E-02  0.1710E-02  0.1395E+02
   -2.199579    7.83531  0.0000E+00  0.1059E-04  0.2426E-07  0.1177E-02  0.1493E-02  0.1246E+03
   -2.268315    7.83579  0.0000E+00  0.1015E-04  0.2335E-07  0.1144E-02  0.1290E-02  0.2911E+03
   -2.337050    7.83629  0.0000E+00  0.9732E-05  0.2285E-07  0.1076E-02  0.1109E-02  0.4133E+02
   -2.405785    7.83682  0.0000E+00  0.9332E-05  0.2287E-07  0.9778E-03  0.9474E-03  0.2457E+02
   -2.474520    7.83741  0.0000E+00  0.8931E-05  0.2359E-07  0.8466E-03  0.8040E-03  0.2833E+02
   -2.543254    7.83809  0.0000E+00  0.8470E-05  0.2574E-07  0.6578E-03  0.6715E-03  0.1589E+03
   -2.611987    7.83897  0.0000E+00  0.7788E-05  0.3230E-07  0.3349E-03  0.5384E-03  0.4838E+03
   -2.680720    7.84061  0.0000E+00  0.4426E-05  0.1020E-06  0.2547E-04  0.3950E-03 -0.1628E+05
   -2.749452    7.86178  0.0000E+00  0.0000E+00  0.0000E+00  0.0000E+00  0.3944E-03  0.0000E+00
