 1 - depth, m
 2 - temperature, C
 3 - salinity, kg/kg
 4 - turbulent kinetic energy, m**2/s**2
 5 - dissipation rate, m**2/s**3
 6 - kinematic heat conductance, m**2/s
 7 - modulus of horizontal velocity, m/s
 8 - Richardson number, n/d
   -0.000000    0.00000  0.0000E+00  0.1253E-12  0.1681E-16  0.1000E-09  0.0000E+00  0.1505E+17
   -0.068747    0.23302  0.0000E+00  0.2327E-12  0.1871E-16  0.1000E-09  0.0000E+00  0.1393E+17
   -0.137494    0.46330  0.0000E+00  0.4626E-12  0.2963E-16  0.1000E-09  0.0000E+00  0.1282E+17
   -0.206242    0.69043  0.0000E+00  0.8882E-12  0.5214E-16  0.1000E-09  0.0000E+00  0.1174E+17
   -0.274991    0.91402  0.0000E+00  0.1657E-11  0.9331E-16  0.1000E-09  0.0000E+00  0.1072E+17
   -0.343740    1.13427  0.0000E+00  0.3034E-11  0.1663E-15  0.1000E-09  0.0000E+00  0.9737E+16
   -0.412490    1.35099  0.0000E+00  0.5495E-11  0.2946E-15  0.1000E-09  0.0000E+00  0.8787E+16
   -0.481240    1.56394  0.0000E+00  0.9876E-11  0.5183E-15  0.1000E-09  0.0000E+00  0.7873E+16
   -0.549991    1.77282  0.0000E+00  0.1765E-10  0.9077E-15  0.1000E-09  0.0000E+00  0.6988E+16
   -0.618742    1.97706  0.0000E+00  0.3139E-10  0.1582E-14  0.1000E-09  0.0000E+00  0.6149E+16
   -0.687493    2.17642  0.0000E+00  0.5552E-10  0.2741E-14  0.1000E-09  0.0000E+00  0.5400E+16
   -0.756245    2.37233  0.0000E+00  0.9764E-10  0.4726E-14  0.1000E-09  0.0000E+00  0.4707E+16
   -0.824997    2.56564  0.0000E+00  0.1708E-09  0.8104E-14  0.1000E-09  0.0000E+00  0.4041E+16
   -0.893749    2.75622  0.0000E+00  0.2971E-09  0.1382E-13  0.1000E-09  0.0000E+00  0.3402E+16
   -0.962502    2.94395  0.0000E+00  0.5141E-09  0.2346E-13  0.1000E-09  0.0000E+00  0.2791E+16
   -1.031255    3.12869  0.0000E+00  0.8841E-09  0.3956E-13  0.1000E-09  0.0000E+00  0.2209E+16
   -1.100008    3.31040  0.0000E+00  0.1510E-08  0.6630E-13  0.2039E-09  0.0000E+00  0.1655E+16
   -1.168761    3.48885  0.0000E+00  0.2565E-08  0.1105E-12  0.4975E-09  0.0000E+00  0.1131E+16
   -1.237514    3.66371  0.0000E+00  0.4332E-08  0.1831E-12  0.1465E-08  0.0000E+00  0.6363E+15
   -1.306267    3.83416  0.0000E+00  0.7253E-08  0.3009E-12  0.8466E-08  0.0000E+00  0.1812E+15
   -1.375020    3.99351  0.0000E+00  0.7562E-08  0.3144E-12  0.6038E-04  0.0000E+00 -0.4058E+11
   -1.443774    3.99386  0.0000E+00  0.7711E-08  0.3221E-12  0.6145E-04  0.0000E+00 -0.4564E+11
   -1.512527    3.99424  0.0000E+00  0.7849E-08  0.3306E-12  0.6296E-04  0.0000E+00 -0.4726E+11
   -1.581280    3.99461  0.0000E+00  0.7977E-08  0.3399E-12  0.6407E-04  0.0000E+00 -0.4876E+11
   -1.650033    3.99498  0.0000E+00  0.8096E-08  0.3501E-12  0.6473E-04  0.0000E+00 -0.5046E+11
   -1.718786    3.99535  0.0000E+00  0.8205E-08  0.3614E-12  0.6493E-04  0.0000E+00 -0.5248E+11
   -1.787539    3.99571  0.0000E+00  0.8303E-08  0.3740E-12  0.6458E-04  0.0000E+00 -0.5498E+11
   -1.856292    3.99608  0.0000E+00  0.8390E-08  0.3881E-12  0.6366E-04  0.0000E+00 -0.5808E+11
   -1.925044    3.99645  0.0000E+00  0.8466E-08  0.4040E-12  0.6217E-04  0.0000E+00 -0.6194E+11
   -1.993796    3.99683  0.0000E+00  0.8528E-08  0.4222E-12  0.6013E-04  0.0000E+00 -0.6673E+11
   -2.062548    3.99723  0.0000E+00  0.8575E-08  0.4432E-12  0.5728E-04  0.0000E+00 -0.7268E+11
   -2.131299    3.99765  0.0000E+00  0.8605E-08  0.4679E-12  0.5391E-04  0.0000E+00 -0.8019E+11
   -2.200050    3.99809  0.0000E+00  0.8615E-08  0.4975E-12  0.5002E-04  0.0000E+00 -0.8986E+11
   -2.268801    3.99857  0.0000E+00  0.8601E-08  0.5344E-12  0.4556E-04  0.0000E+00 -0.1030E+12
   -2.337551    3.99909  0.0000E+00  0.8555E-08  0.5837E-12  0.4023E-04  0.0000E+00 -0.1224E+12
   -2.406301    3.99969  0.0000E+00  0.8466E-08  0.6537E-12  0.3392E-04  0.0000E+00 -0.1533E+12
   -2.475050    4.00040  0.0000E+00  0.8310E-08  0.7624E-12  0.2660E-04  0.0000E+00 -0.2093E+12
   -2.543799    4.00132  0.0000E+00  0.8028E-08  0.9622E-12  0.1816E-04  0.0000E+00 -0.3371E+12
   -2.612547    4.00269  0.0000E+00  0.7421E-08  0.1472E-11  0.8839E-05  0.0000E+00 -0.8168E+12
   -2.681294    4.00562  0.0000E+00  0.4934E-08  0.4795E-11  0.9489E-06  0.0000E+00 -0.1436E+14
   -2.750041    4.03329  0.0000E+00  0.0000E+00  0.0000E+00  0.0000E+00  0.0000E+00  0.0000E+00
