 1 - depth, m
 2 - temperature, C
 3 - salinity, kg/kg
 4 - turbulent kinetic energy, m**2/s**2
 5 - dissipation rate, m**2/s**3
 6 - kinematic heat conductance, m**2/s
 7 - modulus of horizontal velocity, m/s
 8 - Richardson number, n/d
   -0.000000   12.61019  0.0000E+00  0.6664E-05  0.2608E-06  0.2226E-04  0.1146E-01 -0.1834E+01
   -0.068729   12.62418  0.0000E+00  0.5594E-05  0.8620E-07  0.7776E-04  0.6180E-02 -0.1244E+02
   -0.137459   12.62848  0.0000E+00  0.4888E-05  0.4409E-07  0.1448E-03  0.4203E-02  0.5082E+03
   -0.206190   12.63093  0.0000E+00  0.4430E-05  0.2702E-07  0.2077E-03  0.3104E-02  0.8923E+02
   -0.274921   12.63251  0.0000E+00  0.4150E-05  0.1861E-07  0.2801E-03  0.2422E-02  0.2461E+03
   -0.343653   12.63361  0.0000E+00  0.3967E-05  0.1385E-07  0.3709E-03  0.1951E-02  0.1155E+03
   -0.412386   12.63438  0.0000E+00  0.3845E-05  0.1095E-07  0.4685E-03  0.1614E-02  0.2321E+03
   -0.481118   12.63494  0.0000E+00  0.3767E-05  0.9093E-08  0.5785E-03  0.1369E-02  0.1220E+03
   -0.549852   12.63534  0.0000E+00  0.3725E-05  0.7850E-08  0.6677E-03  0.1185E-02  0.4556E+02
   -0.618585   12.63566  0.0000E+00  0.3708E-05  0.6963E-08  0.7382E-03  0.1044E-02  0.3286E+02
   -0.687319   12.63593  0.0000E+00  0.3708E-05  0.6286E-08  0.8072E-03  0.9261E-03  0.2733E+02
   -0.756054   12.63617  0.0000E+00  0.3722E-05  0.5769E-08  0.8755E-03  0.8265E-03  0.3954E+02
   -0.824788   12.63639  0.0000E+00  0.3745E-05  0.5370E-08  0.9396E-03  0.7420E-03  0.2715E+02
   -0.893523   12.63660  0.0000E+00  0.3776E-05  0.5056E-08  0.9933E-03  0.6693E-03  0.2919E+02
   -0.962259   12.63679  0.0000E+00  0.3811E-05  0.4808E-08  0.1044E-02  0.6051E-03  0.3218E+02
   -1.030994   12.63698  0.0000E+00  0.3849E-05  0.4613E-08  0.1090E-02  0.5485E-03  0.3593E+02
   -1.099730   12.63717  0.0000E+00  0.3890E-05  0.4461E-08  0.1132E-02  0.4974E-03  0.4014E+02
   -1.168465   12.63736  0.0000E+00  0.3930E-05  0.4347E-08  0.1170E-02  0.4508E-03  0.4508E+02
   -1.237201   12.63754  0.0000E+00  0.3971E-05  0.4263E-08  0.1204E-02  0.4085E-03  0.5091E+02
   -1.305937   12.63773  0.0000E+00  0.4010E-05  0.4206E-08  0.1233E-02  0.3699E-03  0.5772E+02
   -1.374673   12.63793  0.0000E+00  0.4047E-05  0.4173E-08  0.1256E-02  0.3346E-03  0.6573E+02
   -1.443409   12.63812  0.0000E+00  0.4082E-05  0.4160E-08  0.1274E-02  0.3022E-03  0.7572E+02
   -1.512145   12.63833  0.0000E+00  0.4113E-05  0.4167E-08  0.1287E-02  0.2724E-03  0.8779E+02
   -1.580881   12.63853  0.0000E+00  0.4142E-05  0.4193E-08  0.1294E-02  0.2458E-03  0.1035E+03
   -1.649616   12.63875  0.0000E+00  0.4168E-05  0.4236E-08  0.1292E-02  0.2222E-03  0.1243E+03
   -1.718352   12.63897  0.0000E+00  0.4190E-05  0.4297E-08  0.1284E-02  0.2012E-03  0.1506E+03
   -1.787087   12.63920  0.0000E+00  0.4210E-05  0.4375E-08  0.1271E-02  0.1825E-03  0.1843E+03
   -1.855823   12.63944  0.0000E+00  0.4226E-05  0.4472E-08  0.1251E-02  0.1656E-03  0.2277E+03
   -1.924558   12.63969  0.0000E+00  0.4239E-05  0.4589E-08  0.1225E-02  0.1503E-03  0.2845E+03
   -1.993292   12.63996  0.0000E+00  0.4247E-05  0.4730E-08  0.1193E-02  0.1363E-03  0.3597E+03
   -2.062027   12.64024  0.0000E+00  0.4250E-05  0.4897E-08  0.1154E-02  0.1233E-03  0.4608E+03
   -2.130761   12.64054  0.0000E+00  0.4246E-05  0.5097E-08  0.1108E-02  0.1111E-03  0.5989E+03
   -2.199494   12.64086  0.0000E+00  0.4235E-05  0.5340E-08  0.1055E-02  0.9948E-04  0.8055E+03
   -2.268228   12.64121  0.0000E+00  0.4215E-05  0.5644E-08  0.9908E-03  0.8814E-04  0.1113E+04
   -2.336961   12.64160  0.0000E+00  0.4183E-05  0.6047E-08  0.9149E-03  0.7732E-04  0.1662E+04
   -2.405693   12.64202  0.0000E+00  0.4135E-05  0.6606E-08  0.8245E-03  0.6697E-04  0.2725E+04
   -2.474425   12.64251  0.0000E+00  0.4065E-05  0.7430E-08  0.7185E-03  0.5702E-04  0.5032E+04
   -2.543156   12.64308  0.0000E+00  0.3960E-05  0.8808E-08  0.5818E-03  0.4735E-04  0.1137E+05
   -2.611887   12.64381  0.0000E+00  0.3783E-05  0.1165E-07  0.4549E-03  0.3795E-04  0.3428E+05
   -2.680617   12.64476  0.0000E+00  0.2459E-05  0.4220E-07  0.2304E-04  0.2973E-04 -0.2829E+07
   -2.749346   12.66408  0.0000E+00  0.0000E+00  0.0000E+00  0.0000E+00  0.2975E-04  0.0000E+00
