 1 - depth, m
 2 - temperature, C
 3 - salinity, kg/kg
 4 - turbulent kinetic energy, m**2/s**2
 5 - dissipation rate, m**2/s**3
 6 - kinematic heat conductance, m**2/s
 7 - modulus of horizontal velocity, m/s
 8 - Richardson number, n/d
   -0.000000    0.00000  0.0000E+00  0.1219E-13  0.7603E-17  0.1000E-09  0.0000E+00  0.1270E+17
   -0.068737    0.19568  0.0000E+00  0.1219E-13  0.7603E-17  0.1000E-09  0.0000E+00  0.1165E+17
   -0.137475    0.38506  0.0000E+00  0.1219E-13  0.7603E-17  0.1000E-09  0.0000E+00  0.1066E+17
   -0.206213    0.56810  0.0000E+00  0.1219E-13  0.7603E-17  0.1000E-09  0.0000E+00  0.9731E+16
   -0.274952    0.74483  0.0000E+00  0.1219E-13  0.7603E-17  0.1000E-09  0.0000E+00  0.8936E+16
   -0.343692    0.91656  0.0000E+00  0.1219E-13  0.7603E-17  0.1000E-09  0.0000E+00  0.8206E+16
   -0.412432    1.08369  0.0000E+00  0.1219E-13  0.7603E-17  0.1000E-09  0.0000E+00  0.7526E+16
   -0.481172    1.24638  0.0000E+00  0.1219E-13  0.7603E-17  0.1000E-09  0.0000E+00  0.6884E+16
   -0.549913    1.40458  0.0000E+00  0.1228E-13  0.7603E-17  0.1000E-09  0.0000E+00  0.6254E+16
   -0.618654    1.55764  0.0000E+00  0.6079E-13  0.8785E-17  0.1000E-09  0.0000E+00  0.5669E+16
   -0.687396    1.70561  0.0000E+00  0.1665E-12  0.1763E-16  0.1000E-09  0.0000E+00  0.5211E+16
   -0.756138    1.85101  0.0000E+00  0.3873E-12  0.3779E-16  0.1000E-09  0.0000E+00  0.4826E+16
   -0.824881    1.99548  0.0000E+00  0.8547E-12  0.8045E-16  0.1000E-09  0.0000E+00  0.4455E+16
   -0.893623    2.13920  0.0000E+00  0.1848E-11  0.1694E-15  0.1000E-09  0.0000E+00  0.4096E+16
   -0.962366    2.28233  0.0000E+00  0.3950E-11  0.3532E-15  0.1000E-09  0.0000E+00  0.3745E+16
   -1.031109    2.42500  0.0000E+00  0.8356E-11  0.7298E-15  0.1000E-09  0.0000E+00  0.3411E+16
   -1.099852    2.56770  0.0000E+00  0.1751E-10  0.1494E-14  0.1000E-09  0.0000E+00  0.3081E+16
   -1.168596    2.71058  0.0000E+00  0.3642E-10  0.3036E-14  0.1000E-09  0.0000E+00  0.2752E+16
   -1.237339    2.85369  0.0000E+00  0.7515E-10  0.6124E-14  0.1000E-09  0.0000E+00  0.2423E+16
   -1.306083    2.99707  0.0000E+00  0.1539E-09  0.1226E-13  0.1000E-09  0.0000E+00  0.2094E+16
   -1.374827    3.14070  0.0000E+00  0.3131E-09  0.2439E-13  0.1000E-09  0.0000E+00  0.1785E+16
   -1.443570    3.28634  0.0000E+00  0.6323E-09  0.4818E-13  0.1671E-09  0.0000E+00  0.1467E+16
   -1.512314    3.43452  0.0000E+00  0.1270E-08  0.9464E-13  0.4249E-09  0.0000E+00  0.1134E+16
   -1.581057    3.58528  0.0000E+00  0.2543E-08  0.1855E-12  0.1208E-08  0.0000E+00  0.7815E+15
   -1.649801    3.73818  0.0000E+00  0.5059E-08  0.3613E-12  0.4467E-08  0.0000E+00  0.4116E+15
   -1.718544    3.89057  0.0000E+00  0.9764E-08  0.6848E-12  0.5115E-07  0.0000E+00  0.6815E+14
   -1.787287    4.00817  0.0000E+00  0.1045E-07  0.7354E-12  0.5669E-04  0.0000E+00 -0.1278E+12
   -1.856030    4.00854  0.0000E+00  0.1076E-07  0.7635E-12  0.5724E-04  0.0000E+00 -0.1402E+12
   -1.924773    4.00894  0.0000E+00  0.1102E-07  0.7938E-12  0.5781E-04  0.0000E+00 -0.1455E+12
   -1.993515    4.00934  0.0000E+00  0.1125E-07  0.8273E-12  0.5767E-04  0.0000E+00 -0.1520E+12
   -2.062257    4.00976  0.0000E+00  0.1144E-07  0.8651E-12  0.5615E-04  0.0000E+00 -0.1604E+12
   -2.130999    4.01019  0.0000E+00  0.1159E-07  0.9089E-12  0.5371E-04  0.0000E+00 -0.1720E+12
   -2.199740    4.01065  0.0000E+00  0.1169E-07  0.9607E-12  0.5063E-04  0.0000E+00 -0.1875E+12
   -2.268481    4.01114  0.0000E+00  0.1175E-07  0.1025E-11  0.4690E-04  0.0000E+00 -0.2091E+12
   -2.337222    4.01167  0.0000E+00  0.1176E-07  0.1109E-11  0.4218E-04  0.0000E+00 -0.2414E+12
   -2.405962    4.01227  0.0000E+00  0.1169E-07  0.1229E-11  0.3632E-04  0.0000E+00 -0.2936E+12
   -2.474701    4.01298  0.0000E+00  0.1153E-07  0.1414E-11  0.2920E-04  0.0000E+00 -0.3877E+12
   -2.543440    4.01389  0.0000E+00  0.1120E-07  0.1751E-11  0.2067E-04  0.0000E+00 -0.6004E+12
   -2.612178    4.01525  0.0000E+00  0.1045E-07  0.2593E-11  0.1071E-04  0.0000E+00 -0.1368E+13
   -2.680916    4.01812  0.0000E+00  0.7315E-08  0.7978E-11  0.1331E-05  0.0000E+00 -0.1993E+14
   -2.749653    4.04596  0.0000E+00  0.0000E+00  0.0000E+00  0.0000E+00  0.0000E+00  0.0000E+00
