 1 - depth, m
 2 - temperature, C
 3 - salinity, kg/kg
 4 - turbulent kinetic energy, m**2/s**2
 5 - dissipation rate, m**2/s**3
 6 - kinematic heat conductance, m**2/s
 7 - modulus of horizontal velocity, m/s
 8 - Richardson number, n/d
   -0.000000    0.00000  0.0000E+00  0.1438E-12  0.2160E-16  0.1000E-09  0.0000E+00  0.1578E+17
   -0.068753    0.24466  0.0000E+00  0.2815E-12  0.2672E-16  0.1000E-09  0.0000E+00  0.1454E+17
   -0.137507    0.48629  0.0000E+00  0.5933E-12  0.4708E-16  0.1000E-09  0.0000E+00  0.1334E+17
   -0.206261    0.72463  0.0000E+00  0.1214E-11  0.9020E-16  0.1000E-09  0.0000E+00  0.1217E+17
   -0.275016    0.95938  0.0000E+00  0.2423E-11  0.1741E-15  0.1000E-09  0.0000E+00  0.1106E+17
   -0.343772    1.19083  0.0000E+00  0.4761E-11  0.3338E-15  0.1000E-09  0.0000E+00  0.1000E+17
   -0.412528    1.41881  0.0000E+00  0.9267E-11  0.6351E-15  0.1000E-09  0.0000E+00  0.8973E+16
   -0.481285    1.64304  0.0000E+00  0.1790E-10  0.1200E-14  0.1000E-09  0.0000E+00  0.7983E+16
   -0.550042    1.86317  0.0000E+00  0.3438E-10  0.2257E-14  0.1000E-09  0.0000E+00  0.7024E+16
   -0.618799    2.07855  0.0000E+00  0.6567E-10  0.4221E-14  0.1000E-09  0.0000E+00  0.6113E+16
   -0.687557    2.28888  0.0000E+00  0.1247E-09  0.7847E-14  0.1000E-09  0.0000E+00  0.5300E+16
   -0.756315    2.49579  0.0000E+00  0.2353E-09  0.1451E-13  0.1000E-09  0.0000E+00  0.4546E+16
   -0.825073    2.70025  0.0000E+00  0.4414E-09  0.2666E-13  0.1000E-09  0.0000E+00  0.3820E+16
   -0.893832    2.90217  0.0000E+00  0.8233E-09  0.4872E-13  0.1000E-09  0.0000E+00  0.3122E+16
   -0.962591    3.10144  0.0000E+00  0.1527E-08  0.8855E-13  0.1839E-09  0.0000E+00  0.2451E+16
   -1.031350    3.29789  0.0000E+00  0.2812E-08  0.1599E-12  0.4497E-09  0.0000E+00  0.1809E+16
   -1.100110    3.49126  0.0000E+00  0.5140E-08  0.2866E-12  0.1219E-08  0.0000E+00  0.1196E+16
   -1.168869    3.68086  0.0000E+00  0.9325E-08  0.5100E-12  0.4218E-08  0.0000E+00  0.6155E+15
   -1.237629    3.86383  0.0000E+00  0.1653E-07  0.8884E-12  0.3975E-07  0.0000E+00  0.1138E+15
   -1.306388    4.00859  0.0000E+00  0.1692E-07  0.9110E-12  0.1147E-03  0.0000E+00 -0.6489E+11
   -1.375148    4.00878  0.0000E+00  0.1711E-07  0.9234E-12  0.1138E-03  0.0000E+00 -0.7800E+11
   -1.443908    4.00900  0.0000E+00  0.1727E-07  0.9367E-12  0.1173E-03  0.0000E+00 -0.7816E+11
   -1.512667    4.00922  0.0000E+00  0.1741E-07  0.9508E-12  0.1201E-03  0.0000E+00 -0.7780E+11
   -1.581427    4.00943  0.0000E+00  0.1753E-07  0.9659E-12  0.1216E-03  0.0000E+00 -0.7796E+11
   -1.650186    4.00965  0.0000E+00  0.1764E-07  0.9823E-12  0.1213E-03  0.0000E+00 -0.7909E+11
   -1.718946    4.00986  0.0000E+00  0.1773E-07  0.1000E-11  0.1204E-03  0.0000E+00 -0.8072E+11
   -1.787705    4.01008  0.0000E+00  0.1780E-07  0.1021E-11  0.1191E-03  0.0000E+00 -0.8267E+11
   -1.856464    4.01030  0.0000E+00  0.1786E-07  0.1043E-11  0.1173E-03  0.0000E+00 -0.8502E+11
   -1.925222    4.01052  0.0000E+00  0.1789E-07  0.1069E-11  0.1152E-03  0.0000E+00 -0.8783E+11
   -1.993981    4.01076  0.0000E+00  0.1792E-07  0.1098E-11  0.1126E-03  0.0000E+00 -0.9122E+11
   -2.062739    4.01099  0.0000E+00  0.1792E-07  0.1131E-11  0.1095E-03  0.0000E+00 -0.9487E+11
   -2.131497    4.01124  0.0000E+00  0.1789E-07  0.1173E-11  0.1057E-03  0.0000E+00 -0.9935E+11
   -2.200254    4.01149  0.0000E+00  0.1784E-07  0.1230E-11  0.9518E-04  0.0000E+00 -0.1116E+12
   -2.269011    4.01177  0.0000E+00  0.1774E-07  0.1305E-11  0.8041E-04  0.0000E+00 -0.1340E+12
   -2.337768    4.01210  0.0000E+00  0.1758E-07  0.1410E-11  0.6775E-04  0.0000E+00 -0.1620E+12
   -2.406524    4.01250  0.0000E+00  0.1735E-07  0.1561E-11  0.5621E-04  0.0000E+00 -0.1997E+12
   -2.475279    4.01298  0.0000E+00  0.1700E-07  0.1796E-11  0.4395E-04  0.0000E+00 -0.2631E+12
   -2.544034    4.01361  0.0000E+00  0.1644E-07  0.2225E-11  0.3023E-04  0.0000E+00 -0.3999E+12
   -2.612789    4.01453  0.0000E+00  0.1532E-07  0.3298E-11  0.1523E-04  0.0000E+00 -0.8611E+12
   -2.681543    4.01641  0.0000E+00  0.1018E-07  0.1111E-10  0.1482E-05  0.0000E+00 -0.1258E+14
   -2.750296    4.03644  0.0000E+00  0.0000E+00  0.0000E+00  0.0000E+00  0.0000E+00  0.0000E+00
