 1 - depth, m
 2 - temperature, C
 3 - salinity, kg/kg
 4 - turbulent kinetic energy, m**2/s**2
 5 - dissipation rate, m**2/s**3
 6 - kinematic heat conductance, m**2/s
 7 - modulus of horizontal velocity, m/s
 8 - Richardson number, n/d
   -0.000000    0.00000  0.0000E+00  0.5478E-13  0.1077E-16  0.1000E-09  0.0000E+00  0.1481E+17
   -0.068776    0.22913  0.0000E+00  0.8947E-13  0.1022E-16  0.1000E-09  0.0000E+00  0.1316E+17
   -0.137553    0.44607  0.0000E+00  0.1518E-12  0.1097E-16  0.1000E-09  0.0000E+00  0.1135E+17
   -0.206330    0.64527  0.0000E+00  0.2379E-12  0.1250E-16  0.1000E-09  0.0000E+00  0.9480E+16
   -0.275108    0.82174  0.0000E+00  0.3441E-12  0.1461E-16  0.1000E-09  0.0000E+00  0.7762E+16
   -0.343886    0.97435  0.0000E+00  0.4662E-12  0.1716E-16  0.1000E-09  0.0000E+00  0.6186E+16
   -0.412665    1.10205  0.0000E+00  0.6002E-12  0.2003E-16  0.1000E-09  0.0000E+00  0.4795E+16
   -0.481444    1.20527  0.0000E+00  0.7418E-12  0.2310E-16  0.1000E-09  0.0000E+00  0.3595E+16
   -0.550224    1.28537  0.0000E+00  0.8871E-12  0.2627E-16  0.1000E-09  0.0000E+00  0.2536E+16
   -0.619004    1.34339  0.0000E+00  0.1032E-11  0.2944E-16  0.1000E-09  0.0000E+00  0.1671E+16
   -0.687785    1.38236  0.0000E+00  0.1171E-11  0.3249E-16  0.1000E-09  0.0000E+00  0.1185E+16
   -0.756566    1.41038  0.0000E+00  0.1299E-11  0.3532E-16  0.1000E-09  0.0000E+00  0.9822E+15
   -0.825347    1.43385  0.0000E+00  0.1412E-11  0.3783E-16  0.1000E-09  0.0000E+00  0.9243E+15
   -0.894128    1.45614  0.0000E+00  0.1506E-11  0.3992E-16  0.1000E-09  0.0000E+00  0.9976E+15
   -0.962910    1.48043  0.0000E+00  0.1576E-11  0.4152E-16  0.1000E-09  0.0000E+00  0.1190E+16
   -1.031692    1.50973  0.0000E+00  0.1618E-11  0.4254E-16  0.1000E-09  0.0000E+00  0.1528E+16
   -1.100474    1.54790  0.0000E+00  0.1631E-11  0.4294E-16  0.1000E-09  0.0000E+00  0.1959E+16
   -1.169257    1.59776  0.0000E+00  0.1611E-11  0.4269E-16  0.1000E-09  0.0000E+00  0.2457E+16
   -1.238039    1.66185  0.0000E+00  0.1558E-11  0.4179E-16  0.1000E-09  0.0000E+00  0.2988E+16
   -1.306821    1.74234  0.0000E+00  0.1473E-11  0.4026E-16  0.1000E-09  0.0000E+00  0.3506E+16
   -1.375604    1.84078  0.0000E+00  0.1358E-11  0.3816E-16  0.1000E-09  0.0000E+00  0.4082E+16
   -1.444386    1.96164  0.0000E+00  0.1215E-11  0.3559E-16  0.1000E-09  0.0000E+00  0.4543E+16
   -1.513169    2.10556  0.0000E+00  0.1051E-11  0.3270E-16  0.1000E-09  0.0000E+00  0.4811E+16
   -1.581951    2.27153  0.0000E+00  0.8687E-12  0.2968E-16  0.1000E-09  0.0000E+00  0.4813E+16
   -1.650733    2.45603  0.0000E+00  0.6792E-12  0.2688E-16  0.1000E-09  0.0000E+00  0.4518E+16
   -1.719516    2.65293  0.0000E+00  0.4960E-12  0.2495E-16  0.1000E-09  0.0000E+00  0.3968E+16
   -1.788298    2.85447  0.0000E+00  0.3419E-12  0.2568E-16  0.1000E-09  0.0000E+00  0.3251E+16
   -1.857079    3.05220  0.0000E+00  0.2669E-12  0.3807E-16  0.1000E-09  0.0000E+00  0.2479E+16
   -1.925861    3.23795  0.0000E+00  0.3847E-12  0.8727E-16  0.1000E-09  0.0000E+00  0.1758E+16
   -1.994642    3.40504  0.0000E+00  0.1047E-11  0.2596E-15  0.1000E-09  0.0000E+00  0.1158E+16
   -2.063423    3.54910  0.0000E+00  0.3421E-11  0.8315E-15  0.1000E-09  0.0000E+00  0.7170E+15
   -2.132204    3.66968  0.0000E+00  0.1135E-10  0.2669E-14  0.1000E-09  0.0000E+00  0.4166E+15
   -2.200984    3.76848  0.0000E+00  0.3720E-10  0.8466E-14  0.1938E-09  0.0000E+00  0.2272E+15
   -2.269764    3.84961  0.0000E+00  0.1211E-09  0.2670E-13  0.1213E-08  0.0000E+00  0.1148E+15
   -2.338543    3.92165  0.0000E+00  0.3918E-09  0.8406E-13  0.1302E-07  0.0000E+00  0.3319E+14
   -2.407322    3.98901  0.0000E+00  0.1083E-08  0.2320E-12  0.1229E-05  0.0000E+00 -0.9714E+12
   -2.476100    3.99793  0.0000E+00  0.1778E-08  0.4770E-12  0.1894E-05  0.0000E+00 -0.1756E+13
   -2.544878    4.00527  0.0000E+00  0.2586E-08  0.9812E-12  0.1983E-05  0.0000E+00 -0.3559E+13
   -2.613655    4.01484  0.0000E+00  0.3692E-08  0.2388E-11  0.1653E-05  0.0000E+00 -0.1031E+14
   -2.682432    4.03247  0.0000E+00  0.5682E-08  0.8861E-11  0.1127E-05  0.0000E+00 -0.6259E+14
   -2.751208    4.08695  0.0000E+00  0.0000E+00  0.0000E+00  0.0000E+00  0.0000E+00  0.0000E+00
