 1 - depth, m
 2 - temperature, C
 3 - salinity, kg/kg
 4 - turbulent kinetic energy, m**2/s**2
 5 - dissipation rate, m**2/s**3
 6 - kinematic heat conductance, m**2/s
 7 - modulus of horizontal velocity, m/s
 8 - Richardson number, n/d
   -0.000000   12.47882  0.0000E+00  0.9283E-04  0.2799E-04  0.7877E-04  0.8054E-01 -0.1475E-01
   -0.068737   12.54711  0.0000E+00  0.5148E-04  0.6426E-05  0.1104E-03  0.3043E-01 -0.2972E-01
   -0.137474   12.56237  0.0000E+00  0.3769E-04  0.2493E-05  0.1311E-03  0.2243E-01 -0.5697E-01
   -0.206211   12.57319  0.0000E+00  0.2967E-04  0.1140E-05  0.1639E-03  0.1783E-01 -0.9549E-01
   -0.274950   12.58141  0.0000E+00  0.2485E-04  0.5968E-06  0.2054E-03  0.1466E-01 -0.1301E+00
   -0.343689   12.58789  0.0000E+00  0.2171E-04  0.3508E-06  0.2789E-03  0.1222E-01  0.1612E+02
   -0.412428   12.59290  0.0000E+00  0.1954E-04  0.2271E-06  0.4062E-03  0.1033E-01  0.4398E+02
   -0.481168   12.59675  0.0000E+00  0.1794E-04  0.1587E-06  0.5050E-03  0.8855E-02  0.4859E+01
   -0.549908   12.59984  0.0000E+00  0.1670E-04  0.1174E-06  0.6240E-03  0.7668E-02  0.6204E+02
   -0.618649   12.60227  0.0000E+00  0.1575E-04  0.9113E-07  0.7747E-03  0.6723E-02  0.6620E+02
   -0.687390   12.60415  0.0000E+00  0.1502E-04  0.7362E-07  0.9226E-03  0.5961E-02  0.1194E+04
   -0.756132   12.60561  0.0000E+00  0.1445E-04  0.6138E-07  0.1061E-02  0.5332E-02  0.2501E+02
   -0.824874   12.60678  0.0000E+00  0.1400E-04  0.5243E-07  0.1171E-02  0.4798E-02  0.1582E+03
   -0.893616   12.60778  0.0000E+00  0.1363E-04  0.4560E-07  0.1257E-02  0.4332E-02  0.3037E+02
   -0.962358   12.60865  0.0000E+00  0.1332E-04  0.4025E-07  0.1332E-02  0.3920E-02  0.9931E+01
   -1.031101   12.60945  0.0000E+00  0.1306E-04  0.3595E-07  0.1383E-02  0.3553E-02  0.3770E+01
   -1.099843   12.61020  0.0000E+00  0.1282E-04  0.3243E-07  0.1431E-02  0.3215E-02  0.3292E+01
   -1.168586   12.61092  0.0000E+00  0.1260E-04  0.2951E-07  0.1473E-02  0.2904E-02  0.3156E+01
   -1.237329   12.61161  0.0000E+00  0.1239E-04  0.2706E-07  0.1516E-02  0.2616E-02  0.3038E+01
   -1.306072   12.61227  0.0000E+00  0.1218E-04  0.2500E-07  0.1557E-02  0.2350E-02  0.2931E+01
   -1.374815   12.61290  0.0000E+00  0.1197E-04  0.2325E-07  0.1595E-02  0.2102E-02  0.2834E+01
   -1.443558   12.61351  0.0000E+00  0.1175E-04  0.2178E-07  0.1633E-02  0.1872E-02  0.2751E+01
   -1.512301   12.61409  0.0000E+00  0.1152E-04  0.2055E-07  0.1685E-02  0.1657E-02  0.2515E+01
   -1.581044   12.61466  0.0000E+00  0.1129E-04  0.1952E-07  0.1746E-02  0.1462E-02  0.2263E+01
   -1.649787   12.61519  0.0000E+00  0.1104E-04  0.1869E-07  0.1795E-02  0.1288E-02  0.2048E+01
   -1.718530   12.61571  0.0000E+00  0.1079E-04  0.1804E-07  0.1827E-02  0.1134E-02  0.1860E+01
   -1.787272   12.61621  0.0000E+00  0.1054E-04  0.1756E-07  0.1837E-02  0.9987E-03  0.1692E+01
   -1.856014   12.61670  0.0000E+00  0.1029E-04  0.1726E-07  0.1829E-02  0.8795E-03  0.1539E+01
   -1.924756   12.61718  0.0000E+00  0.1004E-04  0.1711E-07  0.1790E-02  0.7753E-03  0.1394E+01
   -1.993498   12.61767  0.0000E+00  0.9801E-05  0.1712E-07  0.1721E-02  0.6846E-03  0.1256E+01
   -2.062240   12.61817  0.0000E+00  0.9567E-05  0.1728E-07  0.1628E-02  0.6060E-03  0.1125E+01
   -2.130981   12.61869  0.0000E+00  0.9344E-05  0.1761E-07  0.1528E-02  0.5380E-03  0.1038E+01
   -2.199722   12.61924  0.0000E+00  0.9129E-05  0.1812E-07  0.1425E-02  0.4787E-03  0.1035E+01
   -2.268462   12.61982  0.0000E+00  0.8916E-05  0.1885E-07  0.1319E-02  0.4263E-03  0.1147E+01
   -2.337202   12.62044  0.0000E+00  0.8686E-05  0.1996E-07  0.1198E-02  0.3801E-03  0.1544E+01
   -2.405941   12.62112  0.0000E+00  0.8421E-05  0.2171E-07  0.1067E-02  0.3366E-03  0.2436E+01
   -2.474680   12.62188  0.0000E+00  0.8096E-05  0.2471E-07  0.8713E-03  0.2940E-03  0.4812E+01
   -2.543419   12.62280  0.0000E+00  0.7642E-05  0.3073E-07  0.7442E-03  0.2496E-03  0.3536E+03
   -2.612156   12.62394  0.0000E+00  0.6725E-05  0.5099E-07  0.3594E-03  0.2067E-03 -0.2028E+02
   -2.680894   12.62838  0.0000E+00  0.3957E-05  0.1727E-06  0.7884E-04  0.1320E-03 -0.1713E+04
   -2.749630   12.63870  0.0000E+00  0.0000E+00  0.0000E+00  0.0000E+00  0.1558E-03  0.0000E+00
