 1 - depth, m
 2 - temperature, C
 3 - salinity, kg/kg
 4 - turbulent kinetic energy, m**2/s**2
 5 - dissipation rate, m**2/s**3
 6 - kinematic heat conductance, m**2/s
 7 - modulus of horizontal velocity, m/s
 8 - Richardson number, n/d
   -0.000000    1.58057  0.0000E+00  0.1048E-03  0.3647E-04  0.8515E-04  0.8865E-01  0.1031E-02
   -0.068727    1.60092  0.0000E+00  0.5702E-04  0.8708E-05  0.1092E-03  0.3548E-01  0.3121E-02
   -0.137455    1.60566  0.0000E+00  0.4056E-04  0.3403E-05  0.1131E-03  0.2696E-01  0.5664E-02
   -0.206183    1.60935  0.0000E+00  0.3049E-04  0.1515E-05  0.1226E-03  0.2186E-01  0.9070E-02
   -0.274913    1.61236  0.0000E+00  0.2421E-04  0.7508E-06  0.1326E-03  0.1828E-01  0.1258E-01
   -0.343642    1.61496  0.0000E+00  0.1996E-04  0.4126E-06  0.1421E-03  0.1539E-01  0.1679E-01
   -0.412372    1.61726  0.0000E+00  0.1687E-04  0.2498E-06  0.1493E-03  0.1302E-01  0.2185E-01
   -0.481103    1.61935  0.0000E+00  0.1444E-04  0.1631E-06  0.1536E-03  0.1105E-01  0.2823E-01
   -0.549834    1.62128  0.0000E+00  0.1238E-04  0.1120E-06  0.1563E-03  0.9378E-02  0.3877E-01
   -0.618565    1.62309  0.0000E+00  0.1063E-04  0.7973E-07  0.1557E-03  0.7996E-02  0.5278E-01
   -0.687297    1.62482  0.0000E+00  0.9119E-05  0.5825E-07  0.1523E-03  0.6834E-02  0.7193E-01
   -0.756029    1.62651  0.0000E+00  0.7809E-05  0.4329E-07  0.1468E-03  0.5847E-02  0.9890E-01
   -0.824762    1.62818  0.0000E+00  0.6664E-05  0.3254E-07  0.1395E-03  0.5001E-02  0.1386E+00
   -0.893495    1.62986  0.0000E+00  0.5665E-05  0.2464E-07  0.1309E-03  0.4277E-02  0.2014E+00
   -0.962228    1.63157  0.0000E+00  0.4803E-05  0.1879E-07  0.1219E-03  0.3657E-02  0.3151E+00
   -1.030961    1.63335  0.0000E+00  0.4069E-05  0.1445E-07  0.1105E-03  0.3136E-02  0.4578E+00
   -1.099694    1.63533  0.0000E+00  0.3437E-05  0.1117E-07  0.9893E-04  0.2669E-02  0.7167E+00
   -1.168428    1.63773  0.0000E+00  0.2889E-05  0.8661E-08  0.8762E-04  0.2249E-02  0.1318E+01
   -1.237161    1.64147  0.0000E+00  0.2420E-05  0.6730E-08  0.7684E-04  0.1868E-02  0.4685E+01
   -1.305895    1.64737  0.0000E+00  0.2024E-05  0.5242E-08  0.6632E-04  0.1537E-02  0.5375E+02
   -1.374629    1.65312  0.0000E+00  0.1681E-05  0.4080E-08  0.5574E-04  0.1256E-02  0.1609E+04
   -1.443362    1.65967  0.0000E+00  0.1379E-05  0.3153E-08  0.4492E-04  0.1010E-02  0.8086E+05
   -1.512096    1.67007  0.0000E+00  0.1108E-05  0.2395E-08  0.3617E-04  0.7799E-03  0.4716E+07
   -1.580830    1.68238  0.0000E+00  0.8692E-06  0.1782E-08  0.2854E-04  0.5860E-03  0.3359E+09
   -1.649563    1.69633  0.0000E+00  0.6653E-06  0.1297E-08  0.2163E-04  0.4306E-03  0.2964E+11
   -1.718297    1.71444  0.0000E+00  0.4949E-06  0.9193E-09  0.1568E-04  0.3074E-03  0.2872E+13
   -1.787030    1.73772  0.0000E+00  0.3541E-06  0.6290E-09  0.1087E-04  0.2113E-03  0.1588E+15
   -1.855763    1.76800  0.0000E+00  0.2447E-06  0.4154E-09  0.7325E-05  0.1369E-03  0.2889E+15
   -1.924496    1.80313  0.0000E+00  0.1659E-06  0.2676E-09  0.4696E-05  0.8582E-04  0.3262E+15
   -1.993228    1.83113  0.0000E+00  0.1091E-06  0.1666E-09  0.3065E-05  0.5179E-04  0.2792E+15
   -2.061960    1.84567  0.0000E+00  0.6640E-07  0.9695E-10  0.1448E-05  0.2970E-04  0.9731E+15
   -2.130692    1.89343  0.0000E+00  0.3401E-07  0.4781E-10  0.4151E-06  0.1465E-04  0.2666E+16
   -2.199423    2.01657  0.0000E+00  0.1359E-07  0.1670E-10  0.3735E-07  0.5081E-05  0.5555E+16
   -2.268155    2.31432  0.0000E+00  0.2204E-07  0.1527E-10  0.1109E-07  0.4793E-06  0.7169E+16
   -2.336885    2.89997  0.0000E+00  0.4866E-07  0.3398E-10  0.1445E-04  0.2255E-07  0.5140E+16
   -2.405615    3.51521  0.0000E+00  0.7631E-07  0.5768E-10  0.3353E-04  0.8794E-09  0.1879E+16
   -2.474345    4.05201  0.0000E+00  0.1008E-06  0.8386E-10  0.4720E-04  0.2855E-10  0.3651E+14
   -2.543074    4.20525  0.0000E+00  0.1158E-06  0.1103E-09  0.4833E-04  0.6202E-12 -0.2519E+14
   -2.611802    4.21293  0.0000E+00  0.1169E-06  0.1454E-09  0.3238E-04  0.1352E-12 -0.4112E+14
   -2.680530    4.22491  0.0000E+00  0.8653E-07  0.3577E-09  0.4995E-05  0.1959E-13 -0.3456E+15
   -2.749257    4.30742  0.0000E+00  0.0000E+00  0.0000E+00  0.0000E+00  0.2132E-13  0.0000E+00
