 1 - depth, m
 2 - temperature, C
 3 - salinity, kg/kg
 4 - turbulent kinetic energy, m**2/s**2
 5 - dissipation rate, m**2/s**3
 6 - kinematic heat conductance, m**2/s
 7 - modulus of horizontal velocity, m/s
 8 - Richardson number, n/d
   -0.000000    0.00000  0.0000E+00  0.1178E-12  0.1756E-16  0.1000E-09  0.0000E+00  0.1539E+17
   -0.068760    0.23840  0.0000E+00  0.2292E-12  0.2258E-16  0.1000E-09  0.0000E+00  0.1398E+17
   -0.137520    0.46995  0.0000E+00  0.4866E-12  0.4089E-16  0.1000E-09  0.0000E+00  0.1270E+17
   -0.206281    0.69537  0.0000E+00  0.1010E-11  0.8002E-16  0.1000E-09  0.0000E+00  0.1154E+17
   -0.275043    0.91521  0.0000E+00  0.2051E-11  0.1575E-15  0.1000E-09  0.0000E+00  0.1050E+17
   -0.343805    1.13087  0.0000E+00  0.4105E-11  0.3078E-15  0.1000E-09  0.0000E+00  0.9550E+16
   -0.412567    1.34297  0.0000E+00  0.8144E-11  0.5973E-15  0.1000E-09  0.0000E+00  0.8657E+16
   -0.481330    1.55191  0.0000E+00  0.1604E-10  0.1151E-14  0.1000E-09  0.0000E+00  0.7812E+16
   -0.550094    1.75792  0.0000E+00  0.3142E-10  0.2208E-14  0.1000E-09  0.0000E+00  0.6994E+16
   -0.618858    1.96077  0.0000E+00  0.6121E-10  0.4213E-14  0.1000E-09  0.0000E+00  0.6221E+16
   -0.687622    2.16075  0.0000E+00  0.1185E-09  0.7992E-14  0.1000E-09  0.0000E+00  0.5568E+16
   -0.756387    2.36114  0.0000E+00  0.2282E-09  0.1508E-13  0.1000E-09  0.0000E+00  0.4963E+16
   -0.825152    2.56406  0.0000E+00  0.4369E-09  0.2828E-13  0.1000E-09  0.0000E+00  0.4341E+16
   -0.893917    2.76973  0.0000E+00  0.8316E-09  0.5276E-13  0.1000E-09  0.0000E+00  0.3698E+16
   -0.962683    2.97821  0.0000E+00  0.1574E-08  0.9791E-13  0.1646E-09  0.0000E+00  0.3028E+16
   -1.031448    3.18933  0.0000E+00  0.2960E-08  0.1805E-12  0.3944E-09  0.0000E+00  0.2330E+16
   -1.100214    3.40237  0.0000E+00  0.5525E-08  0.3305E-12  0.1045E-08  0.0000E+00  0.1611E+16
   -1.168980    3.61626  0.0000E+00  0.1024E-07  0.6010E-12  0.3480E-08  0.0000E+00  0.8795E+15
   -1.237746    3.82773  0.0000E+00  0.1863E-07  0.1075E-11  0.2833E-07  0.0000E+00  0.1935E+15
   -1.306513    4.00855  0.0000E+00  0.1908E-07  0.1102E-11  0.1203E-03  0.0000E+00 -0.7467E+11
   -1.375279    4.00876  0.0000E+00  0.1929E-07  0.1118E-11  0.1196E-03  0.0000E+00 -0.8759E+11
   -1.444045    4.00901  0.0000E+00  0.1949E-07  0.1135E-11  0.1233E-03  0.0000E+00 -0.8838E+11
   -1.512811    4.00926  0.0000E+00  0.1966E-07  0.1153E-11  0.1257E-03  0.0000E+00 -0.8881E+11
   -1.581577    4.00950  0.0000E+00  0.1980E-07  0.1172E-11  0.1269E-03  0.0000E+00 -0.8966E+11
   -1.650343    4.00975  0.0000E+00  0.1993E-07  0.1193E-11  0.1268E-03  0.0000E+00 -0.9131E+11
   -1.719109    4.01000  0.0000E+00  0.2004E-07  0.1216E-11  0.1258E-03  0.0000E+00 -0.9360E+11
   -1.787875    4.01025  0.0000E+00  0.2013E-07  0.1242E-11  0.1244E-03  0.0000E+00 -0.9630E+11
   -1.856640    4.01050  0.0000E+00  0.2020E-07  0.1271E-11  0.1227E-03  0.0000E+00 -0.9949E+11
   -1.925406    4.01076  0.0000E+00  0.2026E-07  0.1304E-11  0.1204E-03  0.0000E+00 -0.1033E+12
   -1.994171    4.01103  0.0000E+00  0.2030E-07  0.1342E-11  0.1177E-03  0.0000E+00 -0.1078E+12
   -2.062935    4.01131  0.0000E+00  0.2031E-07  0.1384E-11  0.1145E-03  0.0000E+00 -0.1126E+12
   -2.131700    4.01159  0.0000E+00  0.2030E-07  0.1434E-11  0.1106E-03  0.0000E+00 -0.1182E+12
   -2.200464    4.01189  0.0000E+00  0.2025E-07  0.1498E-11  0.1060E-03  0.0000E+00 -0.1253E+12
   -2.269227    4.01220  0.0000E+00  0.2016E-07  0.1588E-11  0.9139E-04  0.0000E+00 -0.1479E+12
   -2.337990    4.01256  0.0000E+00  0.2001E-07  0.1716E-11  0.7512E-04  0.0000E+00 -0.1837E+12
   -2.406753    4.01301  0.0000E+00  0.1976E-07  0.1900E-11  0.6138E-04  0.0000E+00 -0.2306E+12
   -2.475515    4.01355  0.0000E+00  0.1939E-07  0.2188E-11  0.4791E-04  0.0000E+00 -0.3052E+12
   -2.544277    4.01426  0.0000E+00  0.1877E-07  0.2711E-11  0.3302E-04  0.0000E+00 -0.4641E+12
   -2.613038    4.01530  0.0000E+00  0.1753E-07  0.4012E-11  0.1671E-04  0.0000E+00 -0.9969E+12
   -2.681798    4.01742  0.0000E+00  0.1163E-07  0.1366E-10  0.1595E-05  0.0000E+00 -0.1509E+14
   -2.750558    4.04012  0.0000E+00  0.0000E+00  0.0000E+00  0.0000E+00  0.0000E+00  0.0000E+00
