 1 - depth, m
 2 - temperature, C
 3 - salinity, kg/kg
 4 - turbulent kinetic energy, m**2/s**2
 5 - dissipation rate, m**2/s**3
 6 - kinematic heat conductance, m**2/s
 7 - modulus of horizontal velocity, m/s
 8 - Richardson number, n/d
   -0.000000    0.00000  0.0000E+00  0.1219E-13  0.7604E-17  0.1000E-09  0.0000E+00  0.1362E+17
   -0.068764    0.21020  0.0000E+00  0.1279E-13  0.7604E-17  0.1000E-09  0.0000E+00  0.1266E+17
   -0.137529    0.41751  0.0000E+00  0.6181E-13  0.7604E-17  0.1000E-09  0.0000E+00  0.1178E+17
   -0.206295    0.62256  0.0000E+00  0.1604E-12  0.1122E-16  0.1000E-09  0.0000E+00  0.1094E+17
   -0.275061    0.82552  0.0000E+00  0.3323E-12  0.1954E-16  0.1000E-09  0.0000E+00  0.1014E+17
   -0.343828    1.02671  0.0000E+00  0.6306E-12  0.3474E-16  0.1000E-09  0.0000E+00  0.9352E+16
   -0.412596    1.22601  0.0000E+00  0.1153E-11  0.6140E-16  0.1000E-09  0.0000E+00  0.8581E+16
   -0.481363    1.42314  0.0000E+00  0.2072E-11  0.1076E-15  0.1000E-09  0.0000E+00  0.7821E+16
   -0.550132    1.61772  0.0000E+00  0.3687E-11  0.1873E-15  0.1000E-09  0.0000E+00  0.7070E+16
   -0.618900    1.80916  0.0000E+00  0.6517E-11  0.3241E-15  0.1000E-09  0.0000E+00  0.6342E+16
   -0.687669    1.99711  0.0000E+00  0.1145E-10  0.5576E-15  0.1000E-09  0.0000E+00  0.5665E+16
   -0.756439    2.18207  0.0000E+00  0.1998E-10  0.9537E-15  0.1000E-09  0.0000E+00  0.5026E+16
   -0.825208    2.36428  0.0000E+00  0.3467E-10  0.1622E-14  0.1000E-09  0.0000E+00  0.4408E+16
   -0.893978    2.54344  0.0000E+00  0.5982E-10  0.2743E-14  0.1000E-09  0.0000E+00  0.3814E+16
   -0.962749    2.71929  0.0000E+00  0.1026E-09  0.4613E-14  0.1000E-09  0.0000E+00  0.3248E+16
   -1.031519    2.89159  0.0000E+00  0.1749E-09  0.7708E-14  0.1000E-09  0.0000E+00  0.2714E+16
   -1.100290    3.06037  0.0000E+00  0.2961E-09  0.1279E-13  0.1000E-09  0.0000E+00  0.2211E+16
   -1.169060    3.22546  0.0000E+00  0.4982E-09  0.2111E-13  0.1000E-09  0.0000E+00  0.1737E+16
   -1.237831    3.38673  0.0000E+00  0.8337E-09  0.3465E-13  0.1363E-09  0.0000E+00  0.1294E+16
   -1.306602    3.54398  0.0000E+00  0.1387E-08  0.5656E-13  0.3266E-09  0.0000E+00  0.8815E+15
   -1.375373    3.69689  0.0000E+00  0.2296E-08  0.9181E-13  0.9267E-09  0.0000E+00  0.5043E+15
   -1.444144    3.84632  0.0000E+00  0.3771E-08  0.1480E-12  0.4910E-08  0.0000E+00  0.1537E+15
   -1.512915    3.98890  0.0000E+00  0.4066E-08  0.1601E-12  0.2693E-04  0.0000E+00 -0.3198E+11
   -1.581686    3.98965  0.0000E+00  0.4222E-08  0.1677E-12  0.3041E-04  0.0000E+00 -0.3799E+11
   -1.650457    3.99032  0.0000E+00  0.4370E-08  0.1762E-12  0.3316E-04  0.0000E+00 -0.4128E+11
   -1.719227    3.99094  0.0000E+00  0.4510E-08  0.1855E-12  0.3518E-04  0.0000E+00 -0.4432E+11
   -1.787998    3.99152  0.0000E+00  0.4643E-08  0.1956E-12  0.3657E-04  0.0000E+00 -0.4753E+11
   -1.856768    3.99208  0.0000E+00  0.4766E-08  0.2068E-12  0.3738E-04  0.0000E+00 -0.5113E+11
   -1.925538    3.99262  0.0000E+00  0.4881E-08  0.2192E-12  0.3763E-04  0.0000E+00 -0.5531E+11
   -1.994307    3.99316  0.0000E+00  0.4984E-08  0.2330E-12  0.3734E-04  0.0000E+00 -0.6031E+11
   -2.063077    3.99370  0.0000E+00  0.5075E-08  0.2486E-12  0.3649E-04  0.0000E+00 -0.6641E+11
   -2.131846    3.99425  0.0000E+00  0.5152E-08  0.2665E-12  0.3509E-04  0.0000E+00 -0.7408E+11
   -2.200615    3.99483  0.0000E+00  0.5213E-08  0.2875E-12  0.3314E-04  0.0000E+00 -0.8403E+11
   -2.269383    3.99544  0.0000E+00  0.5254E-08  0.3130E-12  0.3062E-04  0.0000E+00 -0.9762E+11
   -2.338151    3.99610  0.0000E+00  0.5271E-08  0.3465E-12  0.2736E-04  0.0000E+00 -0.1177E+12
   -2.406918    3.99684  0.0000E+00  0.5256E-08  0.3931E-12  0.2328E-04  0.0000E+00 -0.1500E+12
   -2.475685    3.99771  0.0000E+00  0.5190E-08  0.4646E-12  0.1834E-04  0.0000E+00 -0.2093E+12
   -2.544451    3.99883  0.0000E+00  0.5031E-08  0.5951E-12  0.1248E-04  0.0000E+00 -0.3485E+12
   -2.613217    4.00049  0.0000E+00  0.4636E-08  0.9281E-12  0.5935E-05  0.0000E+00 -0.9002E+12
   -2.681982    4.00409  0.0000E+00  0.3129E-08  0.2881E-11  0.6968E-06  0.0000E+00 -0.1487E+14
   -2.750746    4.03337  0.0000E+00  0.0000E+00  0.0000E+00  0.0000E+00  0.0000E+00  0.0000E+00
