 1 - depth, m
 2 - temperature, C
 3 - salinity, kg/kg
 4 - turbulent kinetic energy, m**2/s**2
 5 - dissipation rate, m**2/s**3
 6 - kinematic heat conductance, m**2/s
 7 - modulus of horizontal velocity, m/s
 8 - Richardson number, n/d
   -0.000000    0.00000  0.0000E+00  0.1219E-13  0.7603E-17  0.1000E-09  0.0000E+00  0.1112E+17
   -0.068737    0.17071  0.0000E+00  0.1219E-13  0.7603E-17  0.1000E-09  0.0000E+00  0.1052E+17
   -0.137475    0.33999  0.0000E+00  0.1219E-13  0.7603E-17  0.1000E-09  0.0000E+00  0.9915E+16
   -0.206213    0.50763  0.0000E+00  0.1219E-13  0.7603E-17  0.1000E-09  0.0000E+00  0.9320E+16
   -0.274952    0.67340  0.0000E+00  0.1219E-13  0.7603E-17  0.1000E-09  0.0000E+00  0.8758E+16
   -0.343691    0.83759  0.0000E+00  0.1219E-13  0.7603E-17  0.1000E-09  0.0000E+00  0.8206E+16
   -0.412431    1.00008  0.0000E+00  0.1219E-13  0.7603E-17  0.1000E-09  0.0000E+00  0.7662E+16
   -0.481171    1.16066  0.0000E+00  0.1219E-13  0.7603E-17  0.1000E-09  0.0000E+00  0.7122E+16
   -0.549912    1.31901  0.0000E+00  0.1219E-13  0.7603E-17  0.1000E-09  0.0000E+00  0.6580E+16
   -0.618654    1.47459  0.0000E+00  0.1219E-13  0.7603E-17  0.1000E-09  0.0000E+00  0.6052E+16
   -0.687395    1.62711  0.0000E+00  0.1219E-13  0.7603E-17  0.1000E-09  0.0000E+00  0.5573E+16
   -0.756137    1.77723  0.0000E+00  0.1219E-13  0.7603E-17  0.1000E-09  0.0000E+00  0.5124E+16
   -0.824879    1.92527  0.0000E+00  0.1219E-13  0.7603E-17  0.1000E-09  0.0000E+00  0.4686E+16
   -0.893622    2.07100  0.0000E+00  0.1221E-13  0.7603E-17  0.1000E-09  0.0000E+00  0.4258E+16
   -0.962365    2.21414  0.0000E+00  0.2050E-13  0.7604E-17  0.1000E-09  0.0000E+00  0.3844E+16
   -1.031108    2.35444  0.0000E+00  0.7449E-13  0.8810E-17  0.1000E-09  0.0000E+00  0.3450E+16
   -1.099851    2.49187  0.0000E+00  0.1825E-12  0.1631E-16  0.1000E-09  0.0000E+00  0.3073E+16
   -1.168594    2.62620  0.0000E+00  0.3916E-12  0.3246E-16  0.1000E-09  0.0000E+00  0.2712E+16
   -1.237338    2.75720  0.0000E+00  0.8048E-12  0.6479E-16  0.1000E-09  0.0000E+00  0.2371E+16
   -1.306081    2.88467  0.0000E+00  0.1632E-11  0.1289E-15  0.1000E-09  0.0000E+00  0.2049E+16
   -1.374825    3.00841  0.0000E+00  0.3294E-11  0.2561E-15  0.1000E-09  0.0000E+00  0.1762E+16
   -1.443568    3.12927  0.0000E+00  0.6640E-11  0.5080E-15  0.1000E-09  0.0000E+00  0.1496E+16
   -1.512312    3.24745  0.0000E+00  0.1339E-10  0.1008E-14  0.1000E-09  0.0000E+00  0.1243E+16
   -1.581055    3.36270  0.0000E+00  0.2711E-10  0.2006E-14  0.1000E-09  0.0000E+00  0.1005E+16
   -1.649798    3.47468  0.0000E+00  0.5489E-10  0.3994E-14  0.1000E-09  0.0000E+00  0.7812E+15
   -1.718542    3.58289  0.0000E+00  0.1110E-09  0.7937E-14  0.1000E-09  0.0000E+00  0.5735E+15
   -1.787285    3.68642  0.0000E+00  0.2240E-09  0.1574E-13  0.2084E-09  0.0000E+00  0.3840E+15
   -1.856027    3.78359  0.0000E+00  0.4509E-09  0.3113E-13  0.7171E-09  0.0000E+00  0.2196E+15
   -1.924770    3.87180  0.0000E+00  0.9036E-09  0.6130E-13  0.3362E-08  0.0000E+00  0.9138E+14
   -1.993512    3.94782  0.0000E+00  0.1759E-08  0.1176E-12  0.5418E-07  0.0000E+00  0.1078E+14
   -2.062254    3.99718  0.0000E+00  0.2217E-08  0.1495E-12  0.1310E-04  0.0000E+00 -0.1268E+12
   -2.130996    3.99791  0.0000E+00  0.2432E-08  0.1685E-12  0.1367E-04  0.0000E+00 -0.1380E+12
   -2.199737    3.99865  0.0000E+00  0.2612E-08  0.1893E-12  0.1376E-04  0.0000E+00 -0.1506E+12
   -2.268478    3.99941  0.0000E+00  0.2761E-08  0.2137E-12  0.1337E-04  0.0000E+00 -0.1708E+12
   -2.337218    4.00022  0.0000E+00  0.2883E-08  0.2449E-12  0.1243E-04  0.0000E+00 -0.2040E+12
   -2.405958    4.00113  0.0000E+00  0.2976E-08  0.2881E-12  0.1091E-04  0.0000E+00 -0.2615E+12
   -2.474698    4.00223  0.0000E+00  0.3028E-08  0.3545E-12  0.8786E-05  0.0000E+00 -0.3749E+12
   -2.543436    4.00367  0.0000E+00  0.3018E-08  0.4779E-12  0.6078E-05  0.0000E+00 -0.6645E+12
   -2.612175    4.00597  0.0000E+00  0.2869E-08  0.7962E-12  0.2973E-05  0.0000E+00 -0.1914E+13
   -2.680912    4.01143  0.0000E+00  0.2339E-08  0.2349E-11  0.5979E-06  0.0000E+00 -0.2269E+14
   -2.749649    4.04571  0.0000E+00  0.0000E+00  0.0000E+00  0.0000E+00  0.0000E+00  0.0000E+00
