 1 - depth, m
 2 - temperature, C
 3 - salinity, kg/kg
 4 - turbulent kinetic energy, m**2/s**2
 5 - dissipation rate, m**2/s**3
 6 - kinematic heat conductance, m**2/s
 7 - modulus of horizontal velocity, m/s
 8 - Richardson number, n/d
   -0.000000    0.00000  0.0000E+00  0.1219E-13  0.7603E-17  0.1000E-09  0.0000E+00  0.1335E+17
   -0.068762    0.20588  0.0000E+00  0.1219E-13  0.7603E-17  0.1000E-09  0.0000E+00  0.1253E+17
   -0.137525    0.41070  0.0000E+00  0.1219E-13  0.7603E-17  0.1000E-09  0.0000E+00  0.1171E+17
   -0.206289    0.61397  0.0000E+00  0.2569E-13  0.7603E-17  0.1000E-09  0.0000E+00  0.1088E+17
   -0.275053    0.81526  0.0000E+00  0.8814E-13  0.9007E-17  0.1000E-09  0.0000E+00  0.1008E+17
   -0.343818    1.01459  0.0000E+00  0.2093E-12  0.1594E-16  0.1000E-09  0.0000E+00  0.9294E+16
   -0.412583    1.21168  0.0000E+00  0.4347E-12  0.3023E-16  0.1000E-09  0.0000E+00  0.8521E+16
   -0.481349    1.40624  0.0000E+00  0.8575E-12  0.5731E-16  0.1000E-09  0.0000E+00  0.7763E+16
   -0.550115    1.59789  0.0000E+00  0.1657E-11  0.1078E-15  0.1000E-09  0.0000E+00  0.7017E+16
   -0.618882    1.78605  0.0000E+00  0.3166E-11  0.2014E-15  0.1000E-09  0.0000E+00  0.6298E+16
   -0.687649    1.97040  0.0000E+00  0.6003E-11  0.3737E-15  0.1000E-09  0.0000E+00  0.5630E+16
   -0.756416    2.15140  0.0000E+00  0.1130E-10  0.6889E-15  0.1000E-09  0.0000E+00  0.5002E+16
   -0.825184    2.32922  0.0000E+00  0.2115E-10  0.1262E-14  0.1000E-09  0.0000E+00  0.4396E+16
   -0.893952    2.50356  0.0000E+00  0.3934E-10  0.2300E-14  0.1000E-09  0.0000E+00  0.3818E+16
   -0.962720    2.67411  0.0000E+00  0.7275E-10  0.4166E-14  0.1000E-09  0.0000E+00  0.3268E+16
   -1.031488    2.84054  0.0000E+00  0.1336E-09  0.7496E-14  0.1000E-09  0.0000E+00  0.2753E+16
   -1.100257    3.00286  0.0000E+00  0.2436E-09  0.1339E-13  0.1000E-09  0.0000E+00  0.2271E+16
   -1.169025    3.16083  0.0000E+00  0.4414E-09  0.2379E-13  0.1000E-09  0.0000E+00  0.1822E+16
   -1.237794    3.31430  0.0000E+00  0.7954E-09  0.4204E-13  0.1522E-09  0.0000E+00  0.1406E+16
   -1.306563    3.46308  0.0000E+00  0.1425E-08  0.7386E-13  0.3670E-09  0.0000E+00  0.1024E+16
   -1.375332    3.60695  0.0000E+00  0.2539E-08  0.1290E-12  0.9619E-09  0.0000E+00  0.6830E+15
   -1.444101    3.74727  0.0000E+00  0.4495E-08  0.2241E-12  0.3122E-08  0.0000E+00  0.3655E+15
   -1.512869    3.88332  0.0000E+00  0.7838E-08  0.3839E-12  0.2399E-07  0.0000E+00  0.8159E+14
   -1.581638    4.00055  0.0000E+00  0.8201E-08  0.4026E-12  0.6592E-04  0.0000E+00 -0.5618E+11
   -1.650407    4.00080  0.0000E+00  0.8364E-08  0.4126E-12  0.6444E-04  0.0000E+00 -0.6649E+11
   -1.719175    4.00109  0.0000E+00  0.8506E-08  0.4231E-12  0.6507E-04  0.0000E+00 -0.6825E+11
   -1.787944    4.00139  0.0000E+00  0.8631E-08  0.4346E-12  0.6513E-04  0.0000E+00 -0.6976E+11
   -1.856712    4.00168  0.0000E+00  0.8741E-08  0.4476E-12  0.6445E-04  0.0000E+00 -0.7183E+11
   -1.925480    4.00197  0.0000E+00  0.8833E-08  0.4622E-12  0.6299E-04  0.0000E+00 -0.7479E+11
   -1.994247    4.00228  0.0000E+00  0.8908E-08  0.4791E-12  0.6075E-04  0.0000E+00 -0.7892E+11
   -2.063015    4.00259  0.0000E+00  0.8963E-08  0.4987E-12  0.5770E-04  0.0000E+00 -0.8466E+11
   -2.131782    4.00292  0.0000E+00  0.8996E-08  0.5218E-12  0.5417E-04  0.0000E+00 -0.9200E+11
   -2.200548    4.00327  0.0000E+00  0.9004E-08  0.5497E-12  0.5029E-04  0.0000E+00 -0.1012E+12
   -2.269315    4.00364  0.0000E+00  0.8984E-08  0.5846E-12  0.4593E-04  0.0000E+00 -0.1136E+12
   -2.338080    4.00406  0.0000E+00  0.8928E-08  0.6314E-12  0.4071E-04  0.0000E+00 -0.1319E+12
   -2.406846    4.00453  0.0000E+00  0.8824E-08  0.6982E-12  0.3450E-04  0.0000E+00 -0.1611E+12
   -2.475610    4.00508  0.0000E+00  0.8646E-08  0.8023E-12  0.2721E-04  0.0000E+00 -0.2133E+12
   -2.544375    4.00579  0.0000E+00  0.8335E-08  0.9939E-12  0.1872E-04  0.0000E+00 -0.3304E+12
   -2.613138    4.00685  0.0000E+00  0.7685E-08  0.1481E-11  0.9213E-05  0.0000E+00 -0.7538E+12
   -2.681901    4.00907  0.0000E+00  0.4979E-08  0.4731E-11  0.9161E-06  0.0000E+00 -0.1207E+14
   -2.750663    4.03169  0.0000E+00  0.0000E+00  0.0000E+00  0.0000E+00  0.0000E+00  0.0000E+00
