 1 - depth, m
 2 - temperature, C
 3 - salinity, kg/kg
 4 - turbulent kinetic energy, m**2/s**2
 5 - dissipation rate, m**2/s**3
 6 - kinematic heat conductance, m**2/s
 7 - modulus of horizontal velocity, m/s
 8 - Richardson number, n/d
   -0.000000    0.00000  0.0000E+00  0.1219E-13  0.7603E-17  0.1000E-09  0.0000E+00  0.1146E+17
   -0.068737    0.17604  0.0000E+00  0.1219E-13  0.7603E-17  0.1000E-09  0.0000E+00  0.1101E+17
   -0.137475    0.35370  0.0000E+00  0.1219E-13  0.7603E-17  0.1000E-09  0.0000E+00  0.1045E+17
   -0.206214    0.53145  0.0000E+00  0.1219E-13  0.7603E-17  0.1000E-09  0.0000E+00  0.9834E+16
   -0.274953    0.70798  0.0000E+00  0.1219E-13  0.7603E-17  0.1000E-09  0.0000E+00  0.9211E+16
   -0.343692    0.88294  0.0000E+00  0.1219E-13  0.7603E-17  0.1000E-09  0.0000E+00  0.8578E+16
   -0.412432    1.05579  0.0000E+00  0.1219E-13  0.7603E-17  0.1000E-09  0.0000E+00  0.7947E+16
   -0.481173    1.22605  0.0000E+00  0.1219E-13  0.7603E-17  0.1000E-09  0.0000E+00  0.7320E+16
   -0.549914    1.39325  0.0000E+00  0.1219E-13  0.7603E-17  0.1000E-09  0.0000E+00  0.6695E+16
   -0.618656    1.55666  0.0000E+00  0.1219E-13  0.7603E-17  0.1000E-09  0.0000E+00  0.6091E+16
   -0.687398    1.71597  0.0000E+00  0.1219E-13  0.7603E-17  0.1000E-09  0.0000E+00  0.5555E+16
   -0.756140    1.87211  0.0000E+00  0.3943E-13  0.7603E-17  0.1000E-09  0.0000E+00  0.5063E+16
   -0.824882    2.02563  0.0000E+00  0.1164E-12  0.1180E-16  0.1000E-09  0.0000E+00  0.4588E+16
   -0.893625    2.17636  0.0000E+00  0.2717E-12  0.2330E-16  0.1000E-09  0.0000E+00  0.4131E+16
   -0.962368    2.32409  0.0000E+00  0.5818E-12  0.4717E-16  0.1000E-09  0.0000E+00  0.3692E+16
   -1.031111    2.46862  0.0000E+00  0.1204E-11  0.9466E-16  0.1000E-09  0.0000E+00  0.3280E+16
   -1.099855    2.61003  0.0000E+00  0.2450E-11  0.1881E-15  0.1000E-09  0.0000E+00  0.2888E+16
   -1.168598    2.74816  0.0000E+00  0.4938E-11  0.3706E-15  0.1000E-09  0.0000E+00  0.2515E+16
   -1.237342    2.88277  0.0000E+00  0.9875E-11  0.7251E-15  0.1000E-09  0.0000E+00  0.2163E+16
   -1.306086    3.01361  0.0000E+00  0.1961E-10  0.1409E-14  0.1000E-09  0.0000E+00  0.1831E+16
   -1.374829    3.14033  0.0000E+00  0.3869E-10  0.2721E-14  0.1000E-09  0.0000E+00  0.1538E+16
   -1.443573    3.26396  0.0000E+00  0.7582E-10  0.5220E-14  0.1000E-09  0.0000E+00  0.1264E+16
   -1.512317    3.38453  0.0000E+00  0.1479E-09  0.9966E-14  0.1000E-09  0.0000E+00  0.1004E+16
   -1.581061    3.50150  0.0000E+00  0.2879E-09  0.1900E-13  0.1268E-09  0.0000E+00  0.7623E+15
   -1.649804    3.61432  0.0000E+00  0.5579E-09  0.3607E-13  0.3388E-09  0.0000E+00  0.5419E+15
   -1.718548    3.72259  0.0000E+00  0.1075E-08  0.6811E-13  0.1004E-08  0.0000E+00  0.3452E+15
   -1.787291    3.82622  0.0000E+00  0.2059E-08  0.1278E-12  0.3800E-08  0.0000E+00  0.1713E+15
   -1.856034    3.92463  0.0000E+00  0.3844E-08  0.2344E-12  0.4231E-07  0.0000E+00  0.2826E+14
   -1.924777    4.00059  0.0000E+00  0.4321E-08  0.2649E-12  0.2859E-04  0.0000E+00 -0.9958E+11
   -1.993519    4.00103  0.0000E+00  0.4533E-08  0.2816E-12  0.2824E-04  0.0000E+00 -0.1105E+12
   -2.062261    4.00150  0.0000E+00  0.4712E-08  0.2996E-12  0.2813E-04  0.0000E+00 -0.1156E+12
   -2.131003    4.00198  0.0000E+00  0.4860E-08  0.3196E-12  0.2754E-04  0.0000E+00 -0.1229E+12
   -2.199745    4.00247  0.0000E+00  0.4976E-08  0.3426E-12  0.2639E-04  0.0000E+00 -0.1335E+12
   -2.268486    4.00299  0.0000E+00  0.5062E-08  0.3706E-12  0.2472E-04  0.0000E+00 -0.1495E+12
   -2.337226    4.00355  0.0000E+00  0.5115E-08  0.4074E-12  0.2239E-04  0.0000E+00 -0.1746E+12
   -2.405967    4.00419  0.0000E+00  0.5129E-08  0.4592E-12  0.1930E-04  0.0000E+00 -0.2167E+12
   -2.474706    4.00494  0.0000E+00  0.5087E-08  0.5398E-12  0.1541E-04  0.0000E+00 -0.2966E+12
   -2.543445    4.00593  0.0000E+00  0.4950E-08  0.6897E-12  0.1067E-04  0.0000E+00 -0.4902E+12
   -2.612184    4.00747  0.0000E+00  0.4587E-08  0.1077E-11  0.5220E-05  0.0000E+00 -0.1281E+13
   -2.680922    4.01103  0.0000E+00  0.3298E-08  0.3256E-11  0.7553E-06  0.0000E+00 -0.1931E+14
   -2.749659    4.04179  0.0000E+00  0.0000E+00  0.0000E+00  0.0000E+00  0.0000E+00  0.0000E+00
