 1 - depth, m
 2 - temperature, C
 3 - salinity, kg/kg
 4 - turbulent kinetic energy, m**2/s**2
 5 - dissipation rate, m**2/s**3
 6 - kinematic heat conductance, m**2/s
 7 - modulus of horizontal velocity, m/s
 8 - Richardson number, n/d
   -0.000000    9.41224  0.0000E+00  0.1689E-04  0.2110E-05  0.2084E-04  0.2237E-01 -0.2259E-01
   -0.034998    9.44255  0.0000E+00  0.1238E-04  0.6667E-06  0.3517E-04  0.1201E-01 -0.4426E-01
   -0.069996    9.45599  0.0000E+00  0.1026E-04  0.3266E-06  0.4964E-04  0.8659E-02 -0.8156E-01
   -0.104994    9.46507  0.0000E+00  0.8856E-05  0.1888E-06  0.6519E-04  0.6620E-02 -0.1324E+00
   -0.139993    9.47183  0.0000E+00  0.7852E-05  0.1212E-06  0.8562E-04  0.5210E-02 -0.1435E+00
   -0.174992    9.47691  0.0000E+00  0.7126E-05  0.8462E-07  0.1541E-03  0.4176E-02  0.2426E+03
   -0.209991    9.48016  0.0000E+00  0.6596E-05  0.6305E-07  0.1973E-03  0.3438E-02  0.1768E+03
   -0.244991    9.48271  0.0000E+00  0.6180E-05  0.4910E-07  0.2307E-03  0.2832E-02  0.1829E+02
   -0.279991    9.48483  0.0000E+00  0.5834E-05  0.3942E-07  0.2587E-03  0.2314E-02  0.7217E+01
   -0.314991    9.48664  0.0000E+00  0.5525E-05  0.3224E-07  0.2929E-03  0.1857E-02  0.3147E+02
   -0.349991    9.48817  0.0000E+00  0.5263E-05  0.2691E-07  0.3284E-03  0.1496E-02  0.6641E+01
   -0.384991    9.48947  0.0000E+00  0.5049E-05  0.2293E-07  0.3616E-03  0.1206E-02  0.1536E+03
   -0.419992    9.49061  0.0000E+00  0.4875E-05  0.1993E-07  0.3881E-03  0.9710E-03  0.5813E+01
   -0.454992    9.49162  0.0000E+00  0.4733E-05  0.1763E-07  0.4115E-03  0.7680E-03  0.8927E+01
   -0.489993    9.49255  0.0000E+00  0.4612E-05  0.1585E-07  0.4335E-03  0.5887E-03  0.1718E+01
   -0.524994    9.49342  0.0000E+00  0.4501E-05  0.1436E-07  0.4695E-03  0.4333E-03  0.1218E+01
   -0.559995    9.49422  0.0000E+00  0.4398E-05  0.1308E-07  0.4982E-03  0.3239E-03  0.9291E+00
   -0.594996    9.49496  0.0000E+00  0.4303E-05  0.1193E-07  0.5174E-03  0.2581E-03  0.7234E+00
   -0.629997    9.49566  0.0000E+00  0.4233E-05  0.1112E-07  0.5263E-03  0.2249E-03  0.8876E+00
   -0.664998    9.49635  0.0000E+00  0.4178E-05  0.1050E-07  0.5353E-03  0.1998E-03  0.9402E+00
   -0.699999    9.49702  0.0000E+00  0.4132E-05  0.9995E-08  0.5461E-03  0.1772E-03  0.1031E+01
   -0.735000    9.49767  0.0000E+00  0.4092E-05  0.9575E-08  0.5555E-03  0.1573E-03  0.1143E+01
   -0.770002    9.49831  0.0000E+00  0.4056E-05  0.9232E-08  0.5632E-03  0.1400E-03  0.1294E+01
   -0.805003    9.49893  0.0000E+00  0.4025E-05  0.8953E-08  0.5692E-03  0.1249E-03  0.1485E+01
   -0.840004    9.49954  0.0000E+00  0.3995E-05  0.8730E-08  0.5733E-03  0.1117E-03  0.1739E+01
   -0.875005    9.50014  0.0000E+00  0.3967E-05  0.8553E-08  0.5753E-03  0.1000E-03  0.2037E+01
   -0.910006    9.50074  0.0000E+00  0.3940E-05  0.8418E-08  0.5750E-03  0.8954E-04  0.2438E+01
   -0.945006    9.50133  0.0000E+00  0.3912E-05  0.8325E-08  0.5722E-03  0.7999E-04  0.2869E+01
   -0.980007    9.50192  0.0000E+00  0.3885E-05  0.8275E-08  0.5666E-03  0.7111E-04  0.3410E+01
   -1.015007    9.50252  0.0000E+00  0.3855E-05  0.8271E-08  0.5577E-03  0.6289E-04  0.4088E+01
   -1.050008    9.50312  0.0000E+00  0.3824E-05  0.8319E-08  0.5449E-03  0.5535E-04  0.5229E+01
   -1.085008    9.50374  0.0000E+00  0.3789E-05  0.8433E-08  0.5277E-03  0.4853E-04  0.6809E+01
   -1.120008    9.50437  0.0000E+00  0.3750E-05  0.8628E-08  0.5056E-03  0.4231E-04  0.9258E+01
   -1.155008    9.50503  0.0000E+00  0.3707E-05  0.8931E-08  0.4787E-03  0.3650E-04  0.1219E+02
   -1.190007    9.50573  0.0000E+00  0.3659E-05  0.9389E-08  0.4431E-03  0.3097E-04  0.1635E+02
   -1.225007    9.50647  0.0000E+00  0.3599E-05  0.1015E-07  0.4082E-03  0.2574E-04  0.2228E+02
   -1.260006    9.50728  0.0000E+00  0.3511E-05  0.1162E-07  0.3188E-03  0.2101E-04  0.4140E+02
   -1.295004    9.50833  0.0000E+00  0.3329E-05  0.1553E-07  0.3183E-03  0.1672E-04  0.7822E+02
   -1.330003    9.50940  0.0000E+00  0.2915E-05  0.2827E-07  0.1202E-03  0.1428E-04 -0.8343E+04
   -1.365001    9.51603  0.0000E+00  0.1843E-05  0.7957E-07  0.3949E-04  0.9317E-05 -0.2744E+05
   -1.399999    9.52446  0.0000E+00  0.0000E+00  0.0000E+00  0.0000E+00  0.1066E-04  0.0000E+00
