 1 - depth, m
 2 - temperature, C
 3 - salinity, kg/kg
 4 - turbulent kinetic energy, m**2/s**2
 5 - dissipation rate, m**2/s**3
 6 - kinematic heat conductance, m**2/s
 7 - modulus of horizontal velocity, m/s
 8 - Richardson number, n/d
   -0.000000    3.47090  0.0000E+00  0.1551E-04  0.1145E-05  0.1996E-04  0.2354E-01  0.6331E-03
   -0.034998    3.48253  0.0000E+00  0.1238E-04  0.4390E-06  0.3405E-04  0.1489E-01  0.1571E-02
   -0.069996    3.48881  0.0000E+00  0.1030E-04  0.2357E-06  0.4378E-04  0.1112E-01  0.2808E-02
   -0.104995    3.49359  0.0000E+00  0.8719E-05  0.1454E-06  0.5078E-04  0.8680E-02  0.4483E-02
   -0.139994    3.49761  0.0000E+00  0.7464E-05  0.9704E-07  0.5584E-04  0.6912E-02  0.6745E-02
   -0.174993    3.50115  0.0000E+00  0.6442E-05  0.6819E-07  0.5935E-04  0.5556E-02  0.9759E-02
   -0.209993    3.50437  0.0000E+00  0.5596E-05  0.4980E-07  0.6133E-04  0.4475E-02  0.1344E-01
   -0.244993    3.50739  0.0000E+00  0.4872E-05  0.3736E-07  0.6163E-04  0.3579E-02  0.1757E-01
   -0.279993    3.51029  0.0000E+00  0.4214E-05  0.2831E-07  0.5963E-04  0.2806E-02  0.2112E-01
   -0.314993    3.51319  0.0000E+00  0.3568E-05  0.2111E-07  0.5992E-04  0.2100E-02  0.3900E-01
   -0.349993    3.51601  0.0000E+00  0.3001E-05  0.1574E-07  0.5867E-04  0.1571E-02  0.7507E-01
   -0.384994    3.51883  0.0000E+00  0.2524E-05  0.1180E-07  0.5649E-04  0.1173E-02  0.1533E+00
   -0.419994    3.52172  0.0000E+00  0.2134E-05  0.8949E-08  0.5323E-04  0.8700E-03  0.2735E+00
   -0.454995    3.52478  0.0000E+00  0.1817E-05  0.6892E-08  0.4985E-04  0.6197E-03  0.4901E+00
   -0.489996    3.52813  0.0000E+00  0.1565E-05  0.5426E-08  0.4705E-04  0.4069E-03  0.1257E+01
   -0.524997    3.53195  0.0000E+00  0.1351E-05  0.4324E-08  0.4501E-04  0.2373E-03  0.1540E+02
   -0.559998    3.53658  0.0000E+00  0.1161E-05  0.3445E-08  0.4208E-04  0.1367E-03  0.7189E+03
   -0.595000    3.54181  0.0000E+00  0.9652E-06  0.2631E-08  0.3780E-04  0.8543E-04  0.5281E+05
   -0.630001    3.54612  0.0000E+00  0.7946E-06  0.1989E-08  0.3313E-04  0.6533E-04  0.1266E+07
   -0.665002    3.55230  0.0000E+00  0.6533E-06  0.1506E-08  0.2885E-04  0.4882E-04  0.3614E+08
   -0.700004    3.56060  0.0000E+00  0.5367E-06  0.1143E-08  0.2497E-04  0.3543E-04  0.1147E+10
   -0.735005    3.57040  0.0000E+00  0.4397E-06  0.8679E-09  0.2139E-04  0.2495E-04  0.4949E+11
   -0.770006    3.58183  0.0000E+00  0.3585E-06  0.6577E-09  0.1803E-04  0.1714E-04  0.3346E+13
   -0.805008    3.59849  0.0000E+00  0.2904E-06  0.4963E-09  0.1495E-04  0.1152E-04  0.2838E+14
   -0.840009    3.62331  0.0000E+00  0.2339E-06  0.3727E-09  0.1218E-04  0.7527E-05  0.5266E+14
   -0.875010    3.66193  0.0000E+00  0.1875E-06  0.2778E-09  0.9716E-05  0.4766E-05  0.3911E+14
   -0.910011    3.71747  0.0000E+00  0.1490E-06  0.2048E-09  0.1085E-04  0.2984E-05  0.8589E+13
   -0.945012    3.77091  0.0000E+00  0.1174E-06  0.1494E-09  0.1292E-04  0.1792E-05  0.1502E+12
   -0.980013    3.81879  0.0000E+00  0.9224E-07  0.1083E-09  0.1429E-04  0.1008E-05 -0.2845E+12
   -1.015014    3.86023  0.0000E+00  0.7304E-07  0.7861E-10  0.1510E-04  0.5051E-06 -0.3733E+12
   -1.050014    3.89316  0.0000E+00  0.5860E-07  0.5734E-10  0.1569E-04  0.2340E-06 -0.4622E+12
   -1.085015    3.91901  0.0000E+00  0.4744E-07  0.4179E-10  0.1626E-04  0.1004E-06 -0.5963E+12
   -1.120015    3.94362  0.0000E+00  0.3871E-07  0.3029E-10  0.1688E-04  0.4211E-07 -0.8493E+12
   -1.155015    3.96745  0.0000E+00  0.3235E-07  0.2228E-10  0.1733E-04  0.1489E-07 -0.1379E+13
   -1.190015    3.98876  0.0000E+00  0.2835E-07  0.1741E-10  0.1753E-04  0.3933E-08 -0.1845E+13
   -1.225014    4.00617  0.0000E+00  0.2625E-07  0.1513E-10  0.1738E-04  0.5905E-09 -0.2545E+13
   -1.260013    4.02003  0.0000E+00  0.2549E-07  0.1514E-10  0.1650E-04  0.5242E-10 -0.4031E+13
   -1.295012    4.03127  0.0000E+00  0.2534E-07  0.1844E-10  0.1367E-04  0.3564E-11 -0.7139E+13
   -1.330011    4.04261  0.0000E+00  0.2462E-07  0.2758E-10  0.7002E-05  0.4419E-12 -0.1702E+14
   -1.365009    4.05995  0.0000E+00  0.2078E-07  0.6337E-10  0.1667E-05  0.4596E-13 -0.1024E+15
   -1.400007    4.12234  0.0000E+00  0.0000E+00  0.0000E+00  0.0000E+00  0.5127E-13  0.0000E+00
