 1 - depth, m
 2 - temperature, C
 3 - salinity, kg/kg
 4 - turbulent kinetic energy, m**2/s**2
 5 - dissipation rate, m**2/s**3
 6 - kinematic heat conductance, m**2/s
 7 - modulus of horizontal velocity, m/s
 8 - Richardson number, n/d
   -0.000000   15.36914  0.0000E+00  0.3793E-04  0.6073E-05  0.2652E-04  0.4210E-01 -0.6159E-01
   -0.034998   15.40621  0.0000E+00  0.2676E-04  0.1862E-05  0.4725E-04  0.2097E-01 -0.2570E-01
   -0.069996   15.41815  0.0000E+00  0.2211E-04  0.9086E-06  0.6633E-04  0.1556E-01 -0.4563E-01
   -0.104994   15.42622  0.0000E+00  0.1917E-04  0.5335E-06  0.8490E-04  0.1229E-01 -0.6835E-01
   -0.139993   15.43241  0.0000E+00  0.1707E-04  0.3493E-06  0.1040E-03  0.9957E-02 -0.9514E-01
   -0.174992   15.43739  0.0000E+00  0.1549E-04  0.2466E-06  0.1259E-03  0.8193E-02 -0.9929E-01
   -0.209991   15.44146  0.0000E+00  0.1428E-04  0.1845E-06  0.1789E-03  0.6812E-02  0.3951E+03
   -0.244991   15.44451  0.0000E+00  0.1332E-04  0.1449E-06  0.2749E-03  0.5714E-02  0.1219E+03
   -0.279990   15.44665  0.0000E+00  0.1255E-04  0.1179E-06  0.3263E-03  0.4815E-02  0.2460E+03
   -0.314990   15.44834  0.0000E+00  0.1185E-04  0.9769E-07  0.3890E-03  0.4006E-02  0.7068E+03
   -0.349990   15.44966  0.0000E+00  0.1122E-04  0.8217E-07  0.4072E-03  0.3342E-02  0.5946E+01
   -0.384991   15.45085  0.0000E+00  0.1066E-04  0.6989E-07  0.4228E-03  0.2766E-02  0.1290E+02
   -0.419991   15.45198  0.0000E+00  0.1018E-04  0.6027E-07  0.4300E-03  0.2273E-02  0.3805E+01
   -0.454992   15.45306  0.0000E+00  0.9757E-05  0.5266E-07  0.4382E-03  0.1826E-02  0.3235E+01
   -0.489992   15.45412  0.0000E+00  0.9371E-05  0.4658E-07  0.4434E-03  0.1418E-02  0.2776E+01
   -0.524993   15.45515  0.0000E+00  0.8987E-05  0.4129E-07  0.4744E-03  0.1051E-02  0.1598E+01
   -0.559994   15.45609  0.0000E+00  0.8609E-05  0.3662E-07  0.5342E-03  0.7832E-03  0.1030E+01
   -0.594995   15.45689  0.0000E+00  0.8243E-05  0.3236E-07  0.6518E-03  0.6150E-03  0.7562E+00
   -0.629996   15.45753  0.0000E+00  0.7971E-05  0.2935E-07  0.6744E-03  0.5285E-03  0.8265E+00
   -0.664997   15.45814  0.0000E+00  0.7756E-05  0.2709E-07  0.6863E-03  0.4630E-03  0.8261E+00
   -0.699998   15.45874  0.0000E+00  0.7571E-05  0.2527E-07  0.6986E-03  0.4041E-03  0.8452E+00
   -0.734999   15.45932  0.0000E+00  0.7409E-05  0.2382E-07  0.7075E-03  0.3528E-03  0.8520E+00
   -0.770001   15.45989  0.0000E+00  0.7267E-05  0.2269E-07  0.7124E-03  0.3088E-03  0.8470E+00
   -0.805002   15.46046  0.0000E+00  0.7142E-05  0.2183E-07  0.7130E-03  0.2718E-03  0.8385E+00
   -0.840003   15.46102  0.0000E+00  0.7030E-05  0.2120E-07  0.7095E-03  0.2405E-03  0.8232E+00
   -0.875003   15.46159  0.0000E+00  0.6928E-05  0.2077E-07  0.7027E-03  0.2143E-03  0.8080E+00
   -0.910004   15.46216  0.0000E+00  0.6834E-05  0.2051E-07  0.6931E-03  0.1923E-03  0.8439E+00
   -0.945005   15.46274  0.0000E+00  0.6742E-05  0.2040E-07  0.6797E-03  0.1731E-03  0.9288E+00
   -0.980006   15.46333  0.0000E+00  0.6650E-05  0.2045E-07  0.6615E-03  0.1558E-03  0.1084E+01
   -1.015006   15.46394  0.0000E+00  0.6554E-05  0.2067E-07  0.6399E-03  0.1398E-03  0.1329E+01
   -1.050006   15.46458  0.0000E+00  0.6447E-05  0.2114E-07  0.6077E-03  0.1250E-03  0.1800E+01
   -1.085006   15.46525  0.0000E+00  0.6326E-05  0.2194E-07  0.5787E-03  0.1111E-03  0.2548E+01
   -1.120006   15.46596  0.0000E+00  0.6186E-05  0.2326E-07  0.5280E-03  0.9823E-04  0.4087E+01
   -1.155006   15.46677  0.0000E+00  0.6025E-05  0.2536E-07  0.5039E-03  0.8539E-04  0.6678E+01
   -1.190006   15.46764  0.0000E+00  0.5823E-05  0.2927E-07  0.4321E-03  0.7326E-04 -0.3448E+03
   -1.225005   15.46901  0.0000E+00  0.5543E-05  0.3625E-07  0.4142E-03  0.5935E-04  0.8820E+02
   -1.260004   15.47038  0.0000E+00  0.5110E-05  0.5201E-07  0.3120E-03  0.4692E-04 -0.7173E+05
   -1.295002   15.47466  0.0000E+00  0.4390E-05  0.9176E-07  0.2885E-03  0.3273E-04  0.1541E+06
   -1.330001   15.47400  0.0000E+00  0.3497E-05  0.2028E-06  0.1290E-03  0.2783E-04  0.2692E+05
   -1.364999   15.49127  0.0000E+00  0.2387E-05  0.4751E-06  0.9092E-04  0.1706E-04 -0.3936E+06
   -1.399997   15.49598  0.0000E+00  0.0000E+00  0.0000E+00  0.0000E+00  0.2636E-04  0.0000E+00
