 1 - depth, m
 2 - temperature, C
 3 - salinity, kg/kg
 4 - turbulent kinetic energy, m**2/s**2
 5 - dissipation rate, m**2/s**3
 6 - kinematic heat conductance, m**2/s
 7 - modulus of horizontal velocity, m/s
 8 - Richardson number, n/d
   -0.000000    0.00000  0.0000E+00  0.4702E-13  0.1132E-15  0.1000E-09  0.0000E+00  0.1011E+17
   -0.034998    0.15490  0.0000E+00  0.4702E-13  0.1132E-15  0.1000E-09  0.0000E+00  0.9752E+16
   -0.069996    0.31089  0.0000E+00  0.4702E-13  0.1132E-15  0.1000E-09  0.0000E+00  0.9384E+16
   -0.104994    0.46795  0.0000E+00  0.4702E-13  0.1132E-15  0.1000E-09  0.0000E+00  0.8911E+16
   -0.139993    0.62430  0.0000E+00  0.4702E-13  0.1132E-15  0.1000E-09  0.0000E+00  0.8390E+16
   -0.174992    0.77888  0.0000E+00  0.4702E-13  0.1132E-15  0.1000E-09  0.0000E+00  0.7881E+16
   -0.209991    0.93161  0.0000E+00  0.4702E-13  0.1132E-15  0.1000E-09  0.0000E+00  0.7385E+16
   -0.244991    1.08237  0.0000E+00  0.6133E-13  0.1132E-15  0.1000E-09  0.0000E+00  0.6901E+16
   -0.279990    1.23111  0.0000E+00  0.2635E-12  0.1132E-15  0.1000E-09  0.0000E+00  0.6433E+16
   -0.314990    1.37773  0.0000E+00  0.6631E-12  0.1642E-15  0.1000E-09  0.0000E+00  0.6007E+16
   -0.349990    1.52288  0.0000E+00  0.1363E-11  0.2824E-15  0.1000E-09  0.0000E+00  0.5593E+16
   -0.384991    1.66652  0.0000E+00  0.2586E-11  0.5003E-15  0.1000E-09  0.0000E+00  0.5186E+16
   -0.419991    1.80851  0.0000E+00  0.4720E-11  0.8828E-15  0.1000E-09  0.0000E+00  0.4801E+16
   -0.454992    1.94910  0.0000E+00  0.8457E-11  0.1545E-14  0.1000E-09  0.0000E+00  0.4448E+16
   -0.489993    2.08894  0.0000E+00  0.1502E-10  0.2691E-14  0.1000E-09  0.0000E+00  0.4137E+16
   -0.524993    2.22929  0.0000E+00  0.2773E-10  0.4874E-14  0.1000E-09  0.0000E+00  0.3993E+16
   -0.559994    2.37671  0.0000E+00  0.5360E-10  0.9244E-14  0.1000E-09  0.0000E+00  0.3932E+16
   -0.594995    2.53688  0.0000E+00  0.1097E-09  0.1858E-13  0.1000E-09  0.0000E+00  0.3803E+16
   -0.629996    2.71128  0.0000E+00  0.2033E-09  0.3389E-13  0.1000E-09  0.0000E+00  0.3263E+16
   -0.664997    2.88318  0.0000E+00  0.3586E-09  0.5882E-13  0.1000E-09  0.0000E+00  0.2744E+16
   -0.699998    3.05239  0.0000E+00  0.6211E-09  0.1002E-12  0.1154E-09  0.0000E+00  0.2250E+16
   -0.735000    3.21901  0.0000E+00  0.1070E-08  0.1699E-12  0.2459E-09  0.0000E+00  0.1789E+16
   -0.770001    3.38401  0.0000E+00  0.1839E-08  0.2871E-12  0.5478E-09  0.0000E+00  0.1358E+16
   -0.805002    3.54942  0.0000E+00  0.3152E-08  0.4839E-12  0.1361E-08  0.0000E+00  0.9209E+15
   -0.840003    3.71434  0.0000E+00  0.5372E-08  0.8114E-12  0.4323E-08  0.0000E+00  0.4861E+15
   -0.875004    3.87628  0.0000E+00  0.8996E-08  0.1340E-11  0.3798E-07  0.0000E+00  0.9112E+14
   -0.910004    4.00837  0.0000E+00  0.9775E-08  0.1462E-11  0.2686E-04  0.0000E+00 -0.3082E+12
   -0.945005    4.00924  0.0000E+00  0.1014E-07  0.1529E-11  0.2675E-04  0.0000E+00 -0.3212E+12
   -0.980006    4.01012  0.0000E+00  0.1047E-07  0.1600E-11  0.2708E-04  0.0000E+00 -0.3291E+12
   -1.015006    4.01099  0.0000E+00  0.1077E-07  0.1680E-11  0.2729E-04  0.0000E+00 -0.3438E+12
   -1.050006    4.01186  0.0000E+00  0.1105E-07  0.1770E-11  0.2727E-04  0.0000E+00 -0.3645E+12
   -1.085007    4.01275  0.0000E+00  0.1131E-07  0.1877E-11  0.2704E-04  0.0000E+00 -0.3925E+12
   -1.120006    4.01369  0.0000E+00  0.1155E-07  0.2002E-11  0.2639E-04  0.0000E+00 -0.4186E+12
   -1.155006    4.01464  0.0000E+00  0.1175E-07  0.2152E-11  0.2543E-04  0.0000E+00 -0.4526E+12
   -1.190006    4.01565  0.0000E+00  0.1192E-07  0.2338E-11  0.2412E-04  0.0000E+00 -0.5054E+12
   -1.225005    4.01673  0.0000E+00  0.1207E-07  0.2601E-11  0.2254E-04  0.0000E+00 -0.6249E+12
   -1.260004    4.01801  0.0000E+00  0.1219E-07  0.3032E-11  0.2023E-04  0.0000E+00 -0.8929E+12
   -1.295003    4.01976  0.0000E+00  0.1217E-07  0.4099E-11  0.1578E-04  0.0000E+00 -0.1623E+13
   -1.330001    4.02273  0.0000E+00  0.1149E-07  0.6775E-11  0.5962E-05  0.0000E+00 -0.4481E+13
   -1.364999    4.02988  0.0000E+00  0.8362E-08  0.1771E-10  0.7899E-06  0.0000E+00 -0.3843E+14
   -1.399997    4.06883  0.0000E+00  0.0000E+00  0.0000E+00  0.0000E+00  0.0000E+00  0.0000E+00
