 1 - depth, m
 2 - temperature, C
 3 - salinity, kg/kg
 4 - turbulent kinetic energy, m**2/s**2
 5 - dissipation rate, m**2/s**3
 6 - kinematic heat conductance, m**2/s
 7 - modulus of horizontal velocity, m/s
 8 - Richardson number, n/d
   -0.000000    0.00000  0.0000E+00  0.4702E-13  0.1132E-15  0.1000E-09  0.0000E+00  0.1067E+17
   -0.034998    0.16357  0.0000E+00  0.4702E-13  0.1132E-15  0.1000E-09  0.0000E+00  0.1035E+17
   -0.069996    0.32982  0.0000E+00  0.4702E-13  0.1132E-15  0.1000E-09  0.0000E+00  0.1002E+17
   -0.104995    0.49868  0.0000E+00  0.4702E-13  0.1132E-15  0.1000E-09  0.0000E+00  0.9477E+16
   -0.139994    0.66685  0.0000E+00  0.4702E-13  0.1132E-15  0.1000E-09  0.0000E+00  0.8837E+16
   -0.174993    0.83220  0.0000E+00  0.4702E-13  0.1132E-15  0.1000E-09  0.0000E+00  0.8206E+16
   -0.209992    0.99439  0.0000E+00  0.4702E-13  0.1132E-15  0.1000E-09  0.0000E+00  0.7591E+16
   -0.244992    1.15310  0.0000E+00  0.4702E-13  0.1132E-15  0.1000E-09  0.0000E+00  0.6995E+16
   -0.279992    1.30807  0.0000E+00  0.4702E-13  0.1132E-15  0.1000E-09  0.0000E+00  0.6421E+16
   -0.314992    1.45908  0.0000E+00  0.4702E-13  0.1132E-15  0.1000E-09  0.0000E+00  0.5777E+16
   -0.349992    1.60347  0.0000E+00  0.4702E-13  0.1132E-15  0.1000E-09  0.0000E+00  0.5151E+16
   -0.384992    1.74035  0.0000E+00  0.4702E-13  0.1132E-15  0.1000E-09  0.0000E+00  0.4553E+16
   -0.419993    1.86897  0.0000E+00  0.4702E-13  0.1132E-15  0.1000E-09  0.0000E+00  0.4114E+16
   -0.454994    1.99260  0.0000E+00  0.4702E-13  0.1132E-15  0.1000E-09  0.0000E+00  0.3788E+16
   -0.489994    2.11388  0.0000E+00  0.4702E-13  0.1132E-15  0.1000E-09  0.0000E+00  0.3470E+16
   -0.524995    2.23256  0.0000E+00  0.4702E-13  0.1132E-15  0.1000E-09  0.0000E+00  0.3110E+16
   -0.559996    2.34641  0.0000E+00  0.4702E-13  0.1132E-15  0.1000E-09  0.0000E+00  0.2695E+16
   -0.594998    2.45212  0.0000E+00  0.4702E-13  0.1132E-15  0.1000E-09  0.0000E+00  0.2255E+16
   -0.629999    2.54667  0.0000E+00  0.4702E-13  0.1132E-15  0.1000E-09  0.0000E+00  0.2003E+16
   -0.665000    2.63635  0.0000E+00  0.4702E-13  0.1132E-15  0.1000E-09  0.0000E+00  0.1771E+16
   -0.700001    2.72106  0.0000E+00  0.4702E-13  0.1132E-15  0.1000E-09  0.0000E+00  0.1553E+16
   -0.735002    2.80039  0.0000E+00  0.5637E-13  0.1132E-15  0.1000E-09  0.0000E+00  0.1388E+16
   -0.770004    2.87619  0.0000E+00  0.1562E-12  0.1295E-15  0.1000E-09  0.0000E+00  0.1326E+16
   -0.805005    2.95389  0.0000E+00  0.4806E-12  0.2395E-15  0.1000E-09  0.0000E+00  0.1261E+16
   -0.840006    3.03375  0.0000E+00  0.1246E-11  0.5586E-15  0.1000E-09  0.0000E+00  0.1194E+16
   -0.875007    3.11620  0.0000E+00  0.3048E-11  0.1316E-14  0.1000E-09  0.0000E+00  0.1125E+16
   -0.910008    3.20190  0.0000E+00  0.7288E-11  0.3068E-14  0.1000E-09  0.0000E+00  0.1039E+16
   -0.945009    3.29049  0.0000E+00  0.1716E-10  0.7059E-14  0.1000E-09  0.0000E+00  0.9440E+15
   -0.980010    3.38232  0.0000E+00  0.4008E-10  0.1612E-13  0.1000E-09  0.0000E+00  0.8414E+15
   -1.015010    3.47815  0.0000E+00  0.9364E-10  0.3683E-13  0.1311E-09  0.0000E+00  0.7387E+15
   -1.050011    3.58078  0.0000E+00  0.2194E-09  0.8438E-13  0.3581E-09  0.0000E+00  0.6129E+15
   -1.085011    3.69233  0.0000E+00  0.5141E-09  0.1935E-12  0.1134E-08  0.0000E+00  0.4497E+15
   -1.120011    3.81622  0.0000E+00  0.1187E-08  0.4376E-12  0.6087E-08  0.0000E+00  0.2130E+15
   -1.155011    3.94679  0.0000E+00  0.2462E-08  0.9045E-12  0.7956E-06  0.0000E+00  0.2029E+14
   -1.190010    4.00500  0.0000E+00  0.3909E-08  0.1518E-11  0.3426E-05  0.0000E+00 -0.2070E+13
   -1.225010    4.01125  0.0000E+00  0.4990E-08  0.2163E-11  0.4070E-05  0.0000E+00 -0.2639E+13
   -1.260009    4.01736  0.0000E+00  0.6112E-08  0.3152E-11  0.4537E-05  0.0000E+00 -0.3884E+13
   -1.295008    4.02459  0.0000E+00  0.7361E-08  0.5082E-11  0.4375E-05  0.0000E+00 -0.7173E+13
   -1.330006    4.03516  0.0000E+00  0.7799E-08  0.8132E-11  0.2565E-05  0.0000E+00 -0.1506E+14
   -1.365005    4.05199  0.0000E+00  0.6669E-08  0.1658E-10  0.6907E-06  0.0000E+00 -0.7053E+14
   -1.400002    4.10178  0.0000E+00  0.0000E+00  0.0000E+00  0.0000E+00  0.0000E+00  0.0000E+00
