 1 - depth, m
 2 - temperature, C
 3 - salinity, kg/kg
 4 - turbulent kinetic energy, m**2/s**2
 5 - dissipation rate, m**2/s**3
 6 - kinematic heat conductance, m**2/s
 7 - modulus of horizontal velocity, m/s
 8 - Richardson number, n/d
   -0.000000   11.27571  0.0000E+00  0.1977E-03  0.1886E-03  0.6402E-04  0.1479E+00  0.3116E-02
   -0.034998   11.32777  0.0000E+00  0.1120E-03  0.6152E-04  0.9102E-04  0.4756E-01 -0.7692E-01
   -0.069996   11.33878  0.0000E+00  0.7817E-04  0.2139E-04  0.1124E-03  0.3099E-01 -0.1845E+00
   -0.104994   11.34541  0.0000E+00  0.6222E-04  0.1139E-04  0.1187E-03  0.2474E-01 -0.2645E-01
   -0.139993   11.34957  0.0000E+00  0.5172E-04  0.6519E-05  0.1271E-03  0.2064E-01 -0.2667E-01
   -0.174992   11.35292  0.0000E+00  0.4415E-04  0.3852E-05  0.1364E-03  0.1741E-01 -0.4957E-01
   -0.209991   11.35584  0.0000E+00  0.3849E-04  0.2341E-05  0.1454E-03  0.1474E-01 -0.2627E-01
   -0.244991   11.35852  0.0000E+00  0.3407E-04  0.1471E-05  0.1532E-03  0.1246E-01 -0.2961E-01
   -0.279991   11.36108  0.0000E+00  0.3042E-04  0.9632E-06  0.1586E-03  0.1045E-01  0.3348E+00
   -0.314991   11.36371  0.0000E+00  0.2708E-04  0.6603E-06  0.1695E-03  0.8549E-02  0.6635E+02
   -0.349991   11.36606  0.0000E+00  0.2423E-04  0.4765E-06  0.1794E-03  0.7086E-02  0.9195E+02
   -0.384991   11.36824  0.0000E+00  0.2183E-04  0.3596E-06  0.1895E-03  0.5903E-02  0.7126E+01
   -0.419992   11.37028  0.0000E+00  0.1983E-04  0.2823E-06  0.2032E-03  0.4919E-02  0.7460E+02
   -0.454992   11.37220  0.0000E+00  0.1814E-04  0.2285E-06  0.2227E-03  0.4047E-02  0.1371E+02
   -0.489993   11.37405  0.0000E+00  0.1667E-04  0.1899E-06  0.2440E-03  0.3258E-02  0.2995E+02
   -0.524994   11.37576  0.0000E+00  0.1527E-04  0.1593E-06  0.2656E-03  0.2568E-02  0.5268E+02
   -0.559995   11.37723  0.0000E+00  0.1390E-04  0.1332E-06  0.2859E-03  0.2056E-02  0.1794E+04
   -0.594996   11.37841  0.0000E+00  0.1245E-04  0.1081E-06  0.3054E-03  0.1713E-02  0.1685E+04
   -0.629997   11.37927  0.0000E+00  0.1121E-04  0.8816E-07  0.3347E-03  0.1507E-02  0.7575E+04
   -0.664998   11.38014  0.0000E+00  0.1019E-04  0.7290E-07  0.3787E-03  0.1322E-02  0.7516E+03
   -0.699999   11.38095  0.0000E+00  0.9336E-05  0.6106E-07  0.4240E-03  0.1155E-02  0.2338E+03
   -0.735000   11.38168  0.0000E+00  0.8616E-05  0.5167E-07  0.4600E-03  0.1004E-02  0.1678E+04
   -0.770001   11.38234  0.0000E+00  0.8001E-05  0.4418E-07  0.4789E-03  0.8709E-03  0.6062E+02
   -0.805002   11.38296  0.0000E+00  0.7471E-05  0.3815E-07  0.4877E-03  0.7533E-03  0.3307E+02
   -0.840003   11.38358  0.0000E+00  0.7017E-05  0.3333E-07  0.4923E-03  0.6497E-03  0.4713E+02
   -0.875004   11.38419  0.0000E+00  0.6627E-05  0.2947E-07  0.4948E-03  0.5589E-03  0.4830E+02
   -0.910005   11.38481  0.0000E+00  0.6291E-05  0.2639E-07  0.4953E-03  0.4805E-03  0.5807E+02
   -0.945006   11.38544  0.0000E+00  0.6003E-05  0.2398E-07  0.4934E-03  0.4111E-03  0.7353E+02
   -0.980006   11.38609  0.0000E+00  0.5755E-05  0.2213E-07  0.4889E-03  0.3495E-03  0.9452E+02
   -1.015007   11.38676  0.0000E+00  0.5540E-05  0.2076E-07  0.4809E-03  0.2948E-03  0.1232E+03
   -1.050007   11.38745  0.0000E+00  0.5352E-05  0.1982E-07  0.4688E-03  0.2485E-03  0.1695E+03
   -1.085007   11.38817  0.0000E+00  0.5187E-05  0.1927E-07  0.4543E-03  0.2101E-03  0.2431E+03
   -1.120007   11.38893  0.0000E+00  0.5038E-05  0.1913E-07  0.4356E-03  0.1788E-03  0.3622E+03
   -1.155007   11.38975  0.0000E+00  0.4899E-05  0.1948E-07  0.4167E-03  0.1515E-03  0.5214E+03
   -1.190006   11.39064  0.0000E+00  0.4753E-05  0.2065E-07  0.3844E-03  0.1268E-03  0.7517E+03
   -1.225006   11.39170  0.0000E+00  0.4581E-05  0.2320E-07  0.3588E-03  0.1024E-03  0.1070E+04
   -1.260005   11.39290  0.0000E+00  0.4331E-05  0.2990E-07  0.2939E-03  0.8087E-04  0.2187E+03
   -1.295004   11.39501  0.0000E+00  0.3896E-05  0.4607E-07  0.2610E-03  0.5909E-04  0.6378E+04
   -1.330002   11.39599  0.0000E+00  0.3233E-05  0.9319E-07  0.1313E-03  0.4933E-04  0.2272E+06
   -1.365000   11.40512  0.0000E+00  0.2110E-05  0.2281E-06  0.5220E-04  0.3173E-04 -0.1882E+09
   -1.399998   11.41580  0.0000E+00  0.0000E+00  0.0000E+00  0.0000E+00  0.4503E-04  0.0000E+00
