 1 - depth, m
 2 - temperature, C
 3 - salinity, kg/kg
 4 - turbulent kinetic energy, m**2/s**2
 5 - dissipation rate, m**2/s**3
 6 - kinematic heat conductance, m**2/s
 7 - modulus of horizontal velocity, m/s
 8 - Richardson number, n/d
   -0.000000    0.00000  0.0000E+00  0.4702E-13  0.1132E-15  0.1000E-09  0.0000E+00  0.6604E+16
   -0.034998    0.10042  0.0000E+00  0.4702E-13  0.1132E-15  0.1000E-09  0.0000E+00  0.6476E+16
   -0.069996    0.20165  0.0000E+00  0.4702E-13  0.1132E-15  0.1000E-09  0.0000E+00  0.6342E+16
   -0.104995    0.30367  0.0000E+00  0.4702E-13  0.1132E-15  0.1000E-09  0.0000E+00  0.6148E+16
   -0.139993    0.40552  0.0000E+00  0.4702E-13  0.1132E-15  0.1000E-09  0.0000E+00  0.5922E+16
   -0.174992    0.50661  0.0000E+00  0.4702E-13  0.1132E-15  0.1000E-09  0.0000E+00  0.5695E+16
   -0.209992    0.60685  0.0000E+00  0.4702E-13  0.1132E-15  0.1000E-09  0.0000E+00  0.5468E+16
   -0.244991    0.70614  0.0000E+00  0.4702E-13  0.1132E-15  0.1000E-09  0.0000E+00  0.5241E+16
   -0.279991    0.80440  0.0000E+00  0.4702E-13  0.1132E-15  0.1000E-09  0.0000E+00  0.5016E+16
   -0.314991    0.90152  0.0000E+00  0.4702E-13  0.1132E-15  0.1000E-09  0.0000E+00  0.4842E+16
   -0.349991    0.99843  0.0000E+00  0.4702E-13  0.1132E-15  0.1000E-09  0.0000E+00  0.4672E+16
   -0.384992    1.09518  0.0000E+00  0.4702E-13  0.1132E-15  0.1000E-09  0.0000E+00  0.4501E+16
   -0.419992    1.19171  0.0000E+00  0.4702E-13  0.1132E-15  0.1000E-09  0.0000E+00  0.4319E+16
   -0.454993    1.28773  0.0000E+00  0.4702E-13  0.1132E-15  0.1000E-09  0.0000E+00  0.4148E+16
   -0.489994    1.38342  0.0000E+00  0.4702E-13  0.1132E-15  0.1000E-09  0.0000E+00  0.4027E+16
   -0.524995    1.47999  0.0000E+00  0.4702E-13  0.1132E-15  0.1000E-09  0.0000E+00  0.4149E+16
   -0.559996    1.58372  0.0000E+00  0.4702E-13  0.1132E-15  0.1000E-09  0.0000E+00  0.4442E+16
   -0.594997    1.70019  0.0000E+00  0.4702E-13  0.1132E-15  0.1000E-09  0.0000E+00  0.4712E+16
   -0.629998    1.83088  0.0000E+00  0.4702E-13  0.1132E-15  0.1000E-09  0.0000E+00  0.4356E+16
   -0.664999    1.95948  0.0000E+00  0.4702E-13  0.1132E-15  0.1000E-09  0.0000E+00  0.4010E+16
   -0.700000    2.08580  0.0000E+00  0.4702E-13  0.1132E-15  0.1000E-09  0.0000E+00  0.3681E+16
   -0.735001    2.20991  0.0000E+00  0.4702E-13  0.1132E-15  0.1000E-09  0.0000E+00  0.3389E+16
   -0.770003    2.33262  0.0000E+00  0.4702E-13  0.1132E-15  0.1000E-09  0.0000E+00  0.3143E+16
   -0.805004    2.45547  0.0000E+00  0.4702E-13  0.1132E-15  0.1000E-09  0.0000E+00  0.2889E+16
   -0.840005    2.57804  0.0000E+00  0.4702E-13  0.1132E-15  0.1000E-09  0.0000E+00  0.2632E+16
   -0.875006    2.70009  0.0000E+00  0.4702E-13  0.1132E-15  0.1000E-09  0.0000E+00  0.2379E+16
   -0.910007    2.82164  0.0000E+00  0.4702E-13  0.1132E-15  0.1000E-09  0.0000E+00  0.2105E+16
   -0.945007    2.94112  0.0000E+00  0.1307E-12  0.1310E-15  0.1000E-09  0.0000E+00  0.1833E+16
   -0.980008    3.05785  0.0000E+00  0.4433E-12  0.3630E-15  0.1000E-09  0.0000E+00  0.1573E+16
   -1.015009    3.17150  0.0000E+00  0.1410E-11  0.1097E-14  0.1000E-09  0.0000E+00  0.1351E+16
   -1.050009    3.28378  0.0000E+00  0.4399E-11  0.3311E-14  0.1000E-09  0.0000E+00  0.1145E+16
   -1.085009    3.39570  0.0000E+00  0.1361E-10  0.9945E-14  0.1000E-09  0.0000E+00  0.9857E+15
   -1.120009    3.51299  0.0000E+00  0.4128E-10  0.2930E-13  0.1004E-09  0.0000E+00  0.7712E+15
   -1.155009    3.63105  0.0000E+00  0.1236E-09  0.8531E-13  0.3912E-09  0.0000E+00  0.5542E+15
   -1.190009    3.75012  0.0000E+00  0.3682E-09  0.2475E-12  0.1847E-08  0.0000E+00  0.3370E+15
   -1.225008    3.87281  0.0000E+00  0.1135E-08  0.7455E-12  0.1787E-07  0.0000E+00  0.9858E+14
   -1.260007    4.00398  0.0000E+00  0.3105E-08  0.2056E-11  0.1683E-05  0.0000E+00 -0.6203E+13
   -1.295006    4.01955  0.0000E+00  0.4940E-08  0.4002E-11  0.2529E-05  0.0000E+00 -0.9908E+13
   -1.330004    4.03500  0.0000E+00  0.5779E-08  0.6459E-11  0.1848E-05  0.0000E+00 -0.1765E+14
   -1.365003    4.05432  0.0000E+00  0.5094E-08  0.1230E-10  0.5571E-06  0.0000E+00 -0.6781E+14
   -1.400000    4.10161  0.0000E+00  0.0000E+00  0.0000E+00  0.0000E+00  0.0000E+00  0.0000E+00
