 1 - depth, m
 2 - temperature, C
 3 - salinity, kg/kg
 4 - turbulent kinetic energy, m**2/s**2
 5 - dissipation rate, m**2/s**3
 6 - kinematic heat conductance, m**2/s
 7 - modulus of horizontal velocity, m/s
 8 - Richardson number, n/d
   -0.000000   -0.00053  0.0000E+00  0.2338E-03  0.3748E-03  0.7073E-04  0.1888E+00  0.3653E-02
   -0.034997    0.00836  0.0000E+00  0.1393E-03  0.1796E-03  0.1034E-03  0.6216E-01  0.2150E-02
   -0.069994    0.01378  0.0000E+00  0.9952E-04  0.8464E-04  0.1327E-03  0.3874E-01  0.1174E-01
   -0.104992    0.01684  0.0000E+00  0.8053E-04  0.5545E-04  0.1406E-03  0.3039E-01  0.6510E-01
   -0.139989    0.01901  0.0000E+00  0.6803E-04  0.3798E-04  0.1485E-03  0.2520E-01  0.6071E-02
   -0.174988    0.02077  0.0000E+00  0.5903E-04  0.2642E-04  0.1575E-03  0.2133E-01  0.6002E-02
   -0.209986    0.02229  0.0000E+00  0.5220E-04  0.1847E-04  0.1658E-03  0.1828E-01  0.7037E-02
   -0.244985    0.02369  0.0000E+00  0.4680E-04  0.1293E-04  0.1721E-03  0.1569E-01  0.8287E-02
   -0.279983    0.02505  0.0000E+00  0.4222E-04  0.9055E-05  0.1743E-03  0.1336E-01  0.1228E-01
   -0.314982    0.02652  0.0000E+00  0.3788E-04  0.6292E-05  0.1820E-03  0.1109E-01  0.2146E-01
   -0.349982    0.02784  0.0000E+00  0.3408E-04  0.4320E-05  0.1867E-03  0.9364E-02  0.7419E-01
   -0.384981    0.02913  0.0000E+00  0.3078E-04  0.2926E-05  0.1895E-03  0.7947E-02 -0.6863E+04
   -0.419981    0.03035  0.0000E+00  0.2793E-04  0.1970E-05  0.1880E-03  0.6755E-02  0.2959E+01
   -0.454980    0.03175  0.0000E+00  0.2541E-04  0.1336E-05  0.1842E-03  0.5649E-02  0.1915E+02
   -0.489980    0.03354  0.0000E+00  0.2312E-04  0.9389E-06  0.1809E-03  0.4598E-02  0.6429E+03
   -0.524980    0.03604  0.0000E+00  0.2088E-04  0.6701E-06  0.1856E-03  0.3659E-02 -0.2153E+06
   -0.559980    0.03747  0.0000E+00  0.1868E-04  0.4809E-06  0.1899E-03  0.2975E-02  0.3061E+08
   -0.594980    0.03842  0.0000E+00  0.1632E-04  0.3282E-06  0.1872E-03  0.2526E-02 -0.8750E+08
   -0.629980    0.03912  0.0000E+00  0.1421E-04  0.2275E-06  0.1745E-03  0.2267E-02  0.9623E+10
   -0.664981    0.04009  0.0000E+00  0.1240E-04  0.1616E-06  0.1619E-03  0.2008E-02  0.4324E+10
   -0.699981    0.04121  0.0000E+00  0.1083E-04  0.1180E-06  0.1494E-03  0.1761E-02  0.8516E+09
   -0.734981    0.04248  0.0000E+00  0.9459E-05  0.8846E-07  0.1370E-03  0.1531E-02  0.8079E+09
   -0.769981    0.04390  0.0000E+00  0.8249E-05  0.6780E-07  0.1248E-03  0.1321E-02  0.4269E+10
   -0.804981    0.04547  0.0000E+00  0.7178E-05  0.5289E-07  0.1125E-03  0.1133E-02  0.9229E+09
   -0.839982    0.04724  0.0000E+00  0.6230E-05  0.4184E-07  0.1003E-03  0.9640E-03  0.2677E+08
   -0.874982    0.04927  0.0000E+00  0.5386E-05  0.3341E-07  0.8844E-04  0.8132E-03  0.1880E+08
   -0.909982    0.05151  0.0000E+00  0.4634E-05  0.2681E-07  0.7628E-04  0.6816E-03  0.4246E+08
   -0.944981    0.05426  0.0000E+00  0.3967E-05  0.2162E-07  0.6455E-04  0.5625E-03  0.6722E+09
   -0.979981    0.05782  0.0000E+00  0.3374E-05  0.1746E-07  0.5318E-04  0.4538E-03  0.2771E+11
   -1.014981    0.06308  0.0000E+00  0.2845E-05  0.1408E-07  0.4284E-04  0.3537E-03  0.1755E+13
   -1.049980    0.06951  0.0000E+00  0.2373E-05  0.1129E-07  0.3322E-04  0.2688E-03  0.1316E+14
   -1.084979    0.07704  0.0000E+00  0.1947E-05  0.8981E-08  0.2421E-04  0.2001E-03  0.7036E+13
   -1.119978    0.08700  0.0000E+00  0.1546E-05  0.6993E-08  0.1577E-04  0.1477E-03  0.5286E+14
   -1.154977    0.12114  0.0000E+00  0.1158E-05  0.5213E-08  0.9197E-05  0.1014E-03  0.2598E+15
   -1.189976    0.23918  0.0000E+00  0.8064E-06  0.3648E-08  0.4581E-05  0.6211E-04  0.1139E+16
   -1.224974    0.51007  0.0000E+00  0.4854E-06  0.2208E-08  0.2625E-05  0.2724E-04  0.3671E+16
   -1.259972    1.02087  0.0000E+00  0.2745E-06  0.1245E-08  0.1540E-05  0.9613E-05  0.7009E+16
   -1.294970    1.69429  0.0000E+00  0.1647E-06  0.7396E-09  0.3538E-06  0.4138E-05  0.7412E+16
   -1.329968    2.33775  0.0000E+00  0.8312E-07  0.3879E-09  0.6011E-07  0.2127E-05  0.7527E+16
   -1.364965    3.09465  0.0000E+00  0.2291E-07  0.2219E-09  0.3282E-06  0.2115E-06  0.3320E+16
   -1.399962    3.65749  0.0000E+00  0.0000E+00  0.0000E+00  0.0000E+00  0.2330E-06  0.0000E+00
