 1 - depth, m
 2 - temperature, C
 3 - salinity, kg/kg
 4 - turbulent kinetic energy, m**2/s**2
 5 - dissipation rate, m**2/s**3
 6 - kinematic heat conductance, m**2/s
 7 - modulus of horizontal velocity, m/s
 8 - Richardson number, n/d
   -0.000000   17.57636  0.0000E+00  0.1255E-04  0.9983E-06  0.1932E-04  0.1667E-01 -0.8054E-01
   -0.034998   17.61192  0.0000E+00  0.1065E-04  0.3573E-06  0.5424E-04  0.9301E-02  0.2965E+03
   -0.069996   17.62396  0.0000E+00  0.9705E-05  0.1960E-06  0.1126E-03  0.6737E-02  0.6990E+02
   -0.104995   17.63026  0.0000E+00  0.9173E-05  0.1296E-06  0.1697E-03  0.5327E-02  0.2754E+02
   -0.139994   17.63431  0.0000E+00  0.8902E-05  0.9553E-07  0.2392E-03  0.4387E-02  0.5252E+01
   -0.174993   17.63705  0.0000E+00  0.8795E-05  0.7592E-07  0.3120E-03  0.3695E-02  0.8333E+03
   -0.209992   17.63895  0.0000E+00  0.8787E-05  0.6348E-07  0.3588E-03  0.3153E-02  0.2504E+02
   -0.244992   17.64050  0.0000E+00  0.8819E-05  0.5457E-07  0.3820E-03  0.2680E-02  0.5904E+01
   -0.279992   17.64194  0.0000E+00  0.8852E-05  0.4767E-07  0.4063E-03  0.2245E-02  0.6841E+01
   -0.314992   17.64328  0.0000E+00  0.8861E-05  0.4212E-07  0.4452E-03  0.1842E-02  0.3993E+01
   -0.349992   17.64450  0.0000E+00  0.8854E-05  0.3766E-07  0.4871E-03  0.1505E-02  0.2936E+01
   -0.384993   17.64560  0.0000E+00  0.8837E-05  0.3410E-07  0.5306E-03  0.1226E-02  0.2394E+01
   -0.419993   17.64660  0.0000E+00  0.8811E-05  0.3128E-07  0.5672E-03  0.9949E-03  0.2233E+01
   -0.454994   17.64754  0.0000E+00  0.8773E-05  0.2902E-07  0.6035E-03  0.7918E-03  0.2133E+01
   -0.489995   17.64842  0.0000E+00  0.8716E-05  0.2721E-07  0.6393E-03  0.6119E-03  0.1925E+01
   -0.524996   17.64926  0.0000E+00  0.8635E-05  0.2568E-07  0.7145E-03  0.4564E-03  0.1438E+01
   -0.559997   17.64997  0.0000E+00  0.8539E-05  0.2438E-07  0.8342E-03  0.3480E-03  0.1129E+01
   -0.594998   17.65054  0.0000E+00  0.8438E-05  0.2329E-07  0.9392E-03  0.2829E-03  0.9246E+00
   -0.629999   17.65099  0.0000E+00  0.8360E-05  0.2258E-07  0.9490E-03  0.2494E-03  0.9727E+00
   -0.665001   17.65144  0.0000E+00  0.8294E-05  0.2209E-07  0.9493E-03  0.2252E-03  0.9506E+00
   -0.700002   17.65189  0.0000E+00  0.8231E-05  0.2174E-07  0.9471E-03  0.2036E-03  0.9491E+00
   -0.735003   17.65234  0.0000E+00  0.8169E-05  0.2152E-07  0.9410E-03  0.1848E-03  0.9609E+00
   -0.770004   17.65279  0.0000E+00  0.8107E-05  0.2141E-07  0.9311E-03  0.1684E-03  0.1006E+01
   -0.805005   17.65325  0.0000E+00  0.8044E-05  0.2140E-07  0.9171E-03  0.1543E-03  0.1093E+01
   -0.840007   17.65371  0.0000E+00  0.7978E-05  0.2150E-07  0.8987E-03  0.1417E-03  0.1242E+01
   -0.875008   17.65418  0.0000E+00  0.7906E-05  0.2172E-07  0.8760E-03  0.1305E-03  0.1453E+01
   -0.910009   17.65467  0.0000E+00  0.7826E-05  0.2207E-07  0.8473E-03  0.1203E-03  0.1779E+01
   -0.945010   17.65518  0.0000E+00  0.7738E-05  0.2257E-07  0.8153E-03  0.1106E-03  0.2194E+01
   -0.980010   17.65572  0.0000E+00  0.7638E-05  0.2328E-07  0.7744E-03  0.1012E-03  0.2798E+01
   -1.015011   17.65630  0.0000E+00  0.7523E-05  0.2429E-07  0.7350E-03  0.9212E-04  0.3688E+01
   -1.050011   17.65692  0.0000E+00  0.7385E-05  0.2574E-07  0.6796E-03  0.8337E-04  0.5437E+01
   -1.085012   17.65760  0.0000E+00  0.7218E-05  0.2789E-07  0.6403E-03  0.7486E-04  0.8725E+01
   -1.120012   17.65836  0.0000E+00  0.7010E-05  0.3130E-07  0.5730E-03  0.6681E-04  0.1934E+02
   -1.155012   17.65931  0.0000E+00  0.6740E-05  0.3670E-07  0.5425E-03  0.5822E-04  0.1961E+04
   -1.190011   17.66050  0.0000E+00  0.6370E-05  0.4608E-07  0.4473E-03  0.4942E-04  0.1846E+04
   -1.225011   17.66253  0.0000E+00  0.5919E-05  0.6063E-07  0.4165E-03  0.3867E-04  0.1035E+06
   -1.260010   17.66426  0.0000E+00  0.5257E-05  0.9835E-07  0.3007E-03  0.2989E-04 -0.9455E+05
   -1.295009   17.67231  0.0000E+00  0.4443E-05  0.1843E-06  0.3011E-03  0.1956E-04  0.4893E+06
   -1.330007   17.66711  0.0000E+00  0.3533E-05  0.4142E-06  0.1372E-03  0.1759E-04 -0.4329E+06
   -1.365006   17.69098  0.0000E+00  0.2522E-05  0.9007E-06  0.1291E-03  0.1028E-04 -0.1376E+07
   -1.400004   17.69243  0.0000E+00  0.0000E+00  0.0000E+00  0.0000E+00  0.1864E-04  0.0000E+00
