 1 - depth, m
 2 - temperature, C
 3 - salinity, kg/kg
 4 - turbulent kinetic energy, m**2/s**2
 5 - dissipation rate, m**2/s**3
 6 - kinematic heat conductance, m**2/s
 7 - modulus of horizontal velocity, m/s
 8 - Richardson number, n/d
   -0.000000    0.00000  0.0000E+00  0.4702E-13  0.1132E-15  0.1000E-09  0.0000E+00  0.5236E+16
   -0.034998    0.07939  0.0000E+00  0.4702E-13  0.1132E-15  0.1000E-09  0.0000E+00  0.5183E+16
   -0.069996    0.15970  0.0000E+00  0.4702E-13  0.1132E-15  0.1000E-09  0.0000E+00  0.5124E+16
   -0.104995    0.24091  0.0000E+00  0.4702E-13  0.1132E-15  0.1000E-09  0.0000E+00  0.5017E+16
   -0.139994    0.32228  0.0000E+00  0.4702E-13  0.1132E-15  0.1000E-09  0.0000E+00  0.4883E+16
   -0.174993    0.40337  0.0000E+00  0.4702E-13  0.1132E-15  0.1000E-09  0.0000E+00  0.4746E+16
   -0.209992    0.48409  0.0000E+00  0.4702E-13  0.1132E-15  0.1000E-09  0.0000E+00  0.4606E+16
   -0.244992    0.56436  0.0000E+00  0.4702E-13  0.1132E-15  0.1000E-09  0.0000E+00  0.4463E+16
   -0.279992    0.64410  0.0000E+00  0.4702E-13  0.1132E-15  0.1000E-09  0.0000E+00  0.4320E+16
   -0.314992    0.72323  0.0000E+00  0.4702E-13  0.1132E-15  0.1000E-09  0.0000E+00  0.4229E+16
   -0.349993    0.80271  0.0000E+00  0.4702E-13  0.1132E-15  0.1000E-09  0.0000E+00  0.4142E+16
   -0.384993    0.88264  0.0000E+00  0.4702E-13  0.1132E-15  0.1000E-09  0.0000E+00  0.4054E+16
   -0.419994    0.96302  0.0000E+00  0.4702E-13  0.1132E-15  0.1000E-09  0.0000E+00  0.3948E+16
   -0.454995    1.04353  0.0000E+00  0.4702E-13  0.1132E-15  0.1000E-09  0.0000E+00  0.3849E+16
   -0.489996    1.12431  0.0000E+00  0.4702E-13  0.1132E-15  0.1000E-09  0.0000E+00  0.3807E+16
   -0.524997    1.20661  0.0000E+00  0.4702E-13  0.1132E-15  0.1000E-09  0.0000E+00  0.4042E+16
   -0.559998    1.29690  0.0000E+00  0.4702E-13  0.1132E-15  0.1000E-09  0.0000E+00  0.4496E+16
   -0.594999    1.40118  0.0000E+00  0.4702E-13  0.1132E-15  0.1000E-09  0.0000E+00  0.4952E+16
   -0.630000    1.52137  0.0000E+00  0.4702E-13  0.1132E-15  0.1000E-09  0.0000E+00  0.4670E+16
   -0.665001    1.64061  0.0000E+00  0.4702E-13  0.1132E-15  0.1000E-09  0.0000E+00  0.4391E+16
   -0.700003    1.75876  0.0000E+00  0.4702E-13  0.1132E-15  0.1000E-09  0.0000E+00  0.4124E+16
   -0.735004    1.87598  0.0000E+00  0.4702E-13  0.1132E-15  0.1000E-09  0.0000E+00  0.3886E+16
   -0.770005    1.99297  0.0000E+00  0.4702E-13  0.1132E-15  0.1000E-09  0.0000E+00  0.3685E+16
   -0.805007    2.11085  0.0000E+00  0.4702E-13  0.1132E-15  0.1000E-09  0.0000E+00  0.3468E+16
   -0.840008    2.22926  0.0000E+00  0.4702E-13  0.1132E-15  0.1000E-09  0.0000E+00  0.3244E+16
   -0.875009    2.34798  0.0000E+00  0.4702E-13  0.1132E-15  0.1000E-09  0.0000E+00  0.3022E+16
   -0.910010    2.46711  0.0000E+00  0.4702E-13  0.1132E-15  0.1000E-09  0.0000E+00  0.2763E+16
   -0.945011    2.58511  0.0000E+00  0.4702E-13  0.1132E-15  0.1000E-09  0.0000E+00  0.2498E+16
   -0.980012    2.70134  0.0000E+00  0.4702E-13  0.1132E-15  0.1000E-09  0.0000E+00  0.2240E+16
   -1.015012    2.81556  0.0000E+00  0.4702E-13  0.1132E-15  0.1000E-09  0.0000E+00  0.2027E+16
   -1.050013    2.92972  0.0000E+00  0.4702E-13  0.1132E-15  0.1000E-09  0.0000E+00  0.1830E+16
   -1.085013    3.04481  0.0000E+00  0.1676E-12  0.2572E-15  0.1000E-09  0.0000E+00  0.1686E+16
   -1.120013    3.16522  0.0000E+00  0.7460E-12  0.1067E-14  0.1000E-09  0.0000E+00  0.1461E+16
   -1.155013    3.28641  0.0000E+00  0.3246E-11  0.4497E-14  0.1000E-09  0.0000E+00  0.1237E+16
   -1.190013    3.40876  0.0000E+00  0.1398E-10  0.1883E-13  0.1000E-09  0.0000E+00  0.1030E+16
   -1.225012    3.53564  0.0000E+00  0.6296E-10  0.8252E-13  0.2318E-09  0.0000E+00  0.8827E+15
   -1.260012    3.68451  0.0000E+00  0.2989E-09  0.3822E-12  0.1482E-08  0.0000E+00  0.6308E+15
   -1.295011    3.88229  0.0000E+00  0.1602E-08  0.2012E-11  0.7589E-07  0.0000E+00  0.3463E+14
   -1.330009    4.06641  0.0000E+00  0.5269E-08  0.7579E-11  0.1517E-05  0.0000E+00 -0.3127E+14
   -1.365008    4.08836  0.0000E+00  0.5140E-08  0.1339E-10  0.5505E-06  0.0000E+00 -0.8249E+14
   -1.400005    4.13111  0.0000E+00  0.0000E+00  0.0000E+00  0.0000E+00  0.0000E+00  0.0000E+00
