 1 - depth, m
 2 - temperature, C
 3 - salinity, kg/kg
 4 - turbulent kinetic energy, m**2/s**2
 5 - dissipation rate, m**2/s**3
 6 - kinematic heat conductance, m**2/s
 7 - modulus of horizontal velocity, m/s
 8 - Richardson number, n/d
   -0.000000    0.00000  0.0000E+00  0.4343E-07  0.1832E-09  0.5371E-08  0.0000E+00  0.8631E+17
   -0.034999    1.66062  0.0000E+00  0.3012E-06  0.1266E-09  0.8619E-08  0.0000E+00  0.3925E+17
   -0.069998    3.34100  0.0000E+00  0.6298E-06  0.1617E-09  0.8627E-04  0.0000E+00  0.4007E+16
   -0.104997    4.20872  0.0000E+00  0.6326E-06  0.1620E-09  0.7805E-03  0.0000E+00 -0.1300E+13
   -0.139997    4.20907  0.0000E+00  0.6341E-06  0.1621E-09  0.7706E-03  0.0000E+00 -0.1120E+13
   -0.174997    4.20941  0.0000E+00  0.6354E-06  0.1623E-09  0.7720E-03  0.0000E+00 -0.1070E+13
   -0.209997    4.20974  0.0000E+00  0.6366E-06  0.1625E-09  0.7782E-03  0.0000E+00 -0.9461E+12
   -0.244998    4.21007  0.0000E+00  0.6376E-06  0.1627E-09  0.7855E-03  0.0000E+00 -0.1186E+13
   -0.279999    4.21039  0.0000E+00  0.6385E-06  0.1629E-09  0.7835E-03  0.0000E+00 -0.9293E+12
   -0.315000    4.21070  0.0000E+00  0.6392E-06  0.1632E-09  0.7837E-03  0.0000E+00 -0.1149E+13
   -0.350001    4.21101  0.0000E+00  0.6399E-06  0.1636E-09  0.7778E-03  0.0000E+00 -0.9974E+12
   -0.385002    4.21132  0.0000E+00  0.6405E-06  0.1640E-09  0.7789E-03  0.0000E+00 -0.1025E+13
   -0.420004    4.21161  0.0000E+00  0.6410E-06  0.1645E-09  0.7762E-03  0.0000E+00 -0.9930E+12
   -0.455005    4.21191  0.0000E+00  0.6414E-06  0.1650E-09  0.7739E-03  0.0000E+00 -0.9966E+12
   -0.490007    4.21220  0.0000E+00  0.6417E-06  0.1656E-09  0.7731E-03  0.0000E+00 -0.9736E+12
   -0.525009    4.21249  0.0000E+00  0.6419E-06  0.1664E-09  0.7704E-03  0.0000E+00 -0.1013E+13
   -0.560011    4.21278  0.0000E+00  0.6421E-06  0.1675E-09  0.7622E-03  0.0000E+00 -0.1044E+13
   -0.595013    4.21307  0.0000E+00  0.6423E-06  0.1692E-09  0.7528E-03  0.0000E+00 -0.1008E+13
   -0.630015    4.21337  0.0000E+00  0.6424E-06  0.1712E-09  0.7440E-03  0.0000E+00 -0.1022E+13
   -0.665017    4.21367  0.0000E+00  0.6424E-06  0.1734E-09  0.7337E-03  0.0000E+00 -0.1027E+13
   -0.700019    4.21397  0.0000E+00  0.6422E-06  0.1757E-09  0.7750E-03  0.0000E+00 -0.8091E+12
   -0.735021    4.21425  0.0000E+00  0.6420E-06  0.1782E-09  0.6800E-03  0.0000E+00 -0.1226E+13
   -0.770023    4.21456  0.0000E+00  0.6417E-06  0.1811E-09  0.7559E-03  0.0000E+00 -0.8203E+12
   -0.805025    4.21484  0.0000E+00  0.6412E-06  0.1843E-09  0.6491E-03  0.0000E+00 -0.1224E+13
   -0.840027    4.21515  0.0000E+00  0.6407E-06  0.1880E-09  0.6736E-03  0.0000E+00 -0.1036E+13
   -0.875029    4.21545  0.0000E+00  0.6400E-06  0.1922E-09  0.6563E-03  0.0000E+00 -0.1100E+13
   -0.910031    4.21576  0.0000E+00  0.6391E-06  0.1970E-09  0.6427E-03  0.0000E+00 -0.1068E+13
   -0.945033    4.21607  0.0000E+00  0.6382E-06  0.2023E-09  0.6890E-03  0.0000E+00 -0.9226E+12
   -0.980035    4.21636  0.0000E+00  0.6371E-06  0.2084E-09  0.5598E-03  0.0000E+00 -0.1318E+13
   -1.015036    4.21671  0.0000E+00  0.6359E-06  0.2154E-09  0.5747E-03  0.0000E+00 -0.1215E+13
   -1.050037    4.21705  0.0000E+00  0.6345E-06  0.2240E-09  0.5629E-03  0.0000E+00 -0.1195E+13
   -1.085039    4.21738  0.0000E+00  0.6328E-06  0.2345E-09  0.5288E-03  0.0000E+00 -0.1285E+13
   -1.120040    4.21774  0.0000E+00  0.6309E-06  0.2475E-09  0.5016E-03  0.0000E+00 -0.1357E+13
   -1.155040    4.21811  0.0000E+00  0.6287E-06  0.2636E-09  0.4700E-03  0.0000E+00 -0.1453E+13
   -1.190041    4.21852  0.0000E+00  0.6262E-06  0.2841E-09  0.4347E-03  0.0000E+00 -0.1586E+13
   -1.225041    4.21895  0.0000E+00  0.6230E-06  0.3136E-09  0.3931E-03  0.0000E+00 -0.1749E+13
   -1.260041    4.21944  0.0000E+00  0.6181E-06  0.3642E-09  0.3353E-03  0.0000E+00 -0.2096E+13
   -1.295041    4.22000  0.0000E+00  0.6075E-06  0.4885E-09  0.2567E-03  0.0000E+00 -0.2861E+13
   -1.330040    4.22081  0.0000E+00  0.5843E-06  0.7975E-09  0.1664E-03  0.0000E+00 -0.4534E+13
   -1.365039    4.22208  0.0000E+00  0.4077E-06  0.3847E-08  0.5672E-05  0.0000E+00 -0.1373E+15
   -1.400038    4.25719  0.0000E+00  0.0000E+00  0.0000E+00  0.0000E+00  0.0000E+00  0.0000E+00
