 1 - depth, m
 2 - temperature, C
 3 - salinity, kg/kg
 4 - turbulent kinetic energy, m**2/s**2
 5 - dissipation rate, m**2/s**3
 6 - kinematic heat conductance, m**2/s
 7 - modulus of horizontal velocity, m/s
 8 - Richardson number, n/d
   -0.000000    0.86873  0.0000E+00  0.4960E-04  0.1112E-04  0.2742E-04  0.5280E-01  0.7514E-02
   -0.034998    0.88782  0.0000E+00  0.3286E-04  0.3348E-05  0.4787E-04  0.2581E-01  0.3405E-02
   -0.069996    0.89356  0.0000E+00  0.2609E-04  0.1566E-05  0.6123E-04  0.1945E-01  0.6047E-02
   -0.104995    0.89768  0.0000E+00  0.2184E-04  0.8617E-06  0.7206E-04  0.1564E-01  0.1026E-01
   -0.139994    0.90109  0.0000E+00  0.1875E-04  0.5286E-06  0.8055E-04  0.1284E-01  0.1253E-01
   -0.174993    0.90408  0.0000E+00  0.1637E-04  0.3527E-06  0.8697E-04  0.1065E-01  0.1702E-01
   -0.209992    0.90681  0.0000E+00  0.1445E-04  0.2504E-06  0.9111E-04  0.8865E-02  0.2220E-01
   -0.244992    0.90939  0.0000E+00  0.1282E-04  0.1858E-06  0.9258E-04  0.7350E-02  0.2775E-01
   -0.279992    0.91190  0.0000E+00  0.1132E-04  0.1412E-06  0.9008E-04  0.6015E-02  0.3240E-01
   -0.314992    0.91446  0.0000E+00  0.9787E-05  0.1066E-06  0.9049E-04  0.4769E-02  0.5193E-01
   -0.349992    0.91697  0.0000E+00  0.8384E-05  0.8081E-07  0.8821E-04  0.3785E-02  0.8401E-01
   -0.384993    0.91952  0.0000E+00  0.7160E-05  0.6172E-07  0.8404E-04  0.2995E-02  0.1368E+00
   -0.419994    0.92217  0.0000E+00  0.6123E-05  0.4773E-07  0.7720E-04  0.2354E-02  0.1946E+00
   -0.454994    0.92507  0.0000E+00  0.5235E-05  0.3729E-07  0.6923E-04  0.1785E-02  0.2655E+00
   -0.489995    0.92834  0.0000E+00  0.4469E-05  0.2940E-07  0.6200E-04  0.1262E-02  0.4126E+00
   -0.524996    0.93207  0.0000E+00  0.3776E-05  0.2305E-07  0.5797E-04  0.8064E-03  0.1139E+01
   -0.559997    0.93582  0.0000E+00  0.3155E-05  0.1794E-07  0.5362E-04  0.5119E-03  0.4200E+01
   -0.594999    0.93915  0.0000E+00  0.2534E-05  0.1334E-07  0.4789E-04  0.3508E-03  0.4953E+02
   -0.630000    0.94171  0.0000E+00  0.1999E-05  0.9790E-08  0.3753E-04  0.2846E-03  0.2704E+03
   -0.665001    0.94491  0.0000E+00  0.1550E-05  0.7133E-08  0.2780E-04  0.2257E-03  0.3871E+04
   -0.700002    0.94940  0.0000E+00  0.1169E-05  0.5123E-08  0.1915E-04  0.1735E-03  0.4981E+03
   -0.735004    0.95855  0.0000E+00  0.8390E-06  0.3570E-08  0.1231E-04  0.1280E-03  0.3602E+04
   -0.770005    0.99283  0.0000E+00  0.5773E-06  0.2414E-08  0.7322E-05  0.9007E-04  0.1332E+06
   -0.805006    1.06028  0.0000E+00  0.3767E-06  0.1561E-08  0.3721E-05  0.6175E-04  0.6469E+07
   -0.840007    1.14946  0.0000E+00  0.2208E-06  0.9159E-09  0.1471E-05  0.3890E-04  0.3573E+09
   -0.875008    1.26195  0.0000E+00  0.1069E-06  0.4436E-09  0.3332E-06  0.2101E-04  0.2350E+11
   -0.910009    1.38897  0.0000E+00  0.3350E-07  0.1356E-09  0.3918E-07  0.8244E-05  0.1526E+13
   -0.945010    1.53574  0.0000E+00  0.6393E-08  0.2565E-10  0.6926E-08  0.1707E-05  0.1033E+15
   -0.980011    1.69480  0.0000E+00  0.9603E-09  0.4437E-11  0.1369E-08  0.2518E-06  0.1949E+16
   -1.015012    1.87431  0.0000E+00  0.1394E-09  0.1366E-11  0.3106E-09  0.2521E-07  0.3135E+16
   -1.050012    2.06057  0.0000E+00  0.1107E-09  0.1025E-11  0.2415E-09  0.2170E-08  0.3881E+16
   -1.085013    2.26435  0.0000E+00  0.8709E-09  0.1320E-11  0.4283E-09  0.1690E-09  0.5832E+16
   -1.120013    2.55942  0.0000E+00  0.3242E-08  0.2916E-11  0.1788E-08  0.1503E-10  0.7106E+16
   -1.155013    2.97550  0.0000E+00  0.9284E-08  0.7506E-11  0.6991E-06  0.1049E-11  0.6170E+16
   -1.190012    3.42022  0.0000E+00  0.1628E-07  0.1389E-10  0.6568E-05  0.1926E-12  0.4025E+16
   -1.225012    3.76766  0.0000E+00  0.2324E-07  0.2215E-10  0.9514E-05  0.3173E-13  0.1504E+16
   -1.260011    4.03267  0.0000E+00  0.3126E-07  0.3440E-10  0.1174E-04  0.4525E-14  0.2048E+14
   -1.295010    4.09286  0.0000E+00  0.3932E-07  0.5488E-10  0.1177E-04  0.5767E-15 -0.2923E+14
   -1.330009    4.10988  0.0000E+00  0.4277E-07  0.8493E-10  0.7437E-05  0.1031E-15 -0.5415E+14
   -1.365007    4.13588  0.0000E+00  0.3956E-07  0.1823E-09  0.2338E-05  0.1198E-16 -0.2464E+15
   -1.400005    4.21883  0.0000E+00  0.0000E+00  0.0000E+00  0.0000E+00  0.1128E-16  0.0000E+00
