 1 - depth, m
 2 - temperature, C
 3 - salinity, kg/kg
 4 - turbulent kinetic energy, m**2/s**2
 5 - dissipation rate, m**2/s**3
 6 - kinematic heat conductance, m**2/s
 7 - modulus of horizontal velocity, m/s
 8 - Richardson number, n/d
   -0.000000    3.08996  0.0000E+00  0.4499E-03  0.1089E-02  0.6962E-04  0.2689E+00  0.2006E-02
   -0.034998    3.20261  0.0000E+00  0.2440E-03  0.4361E-03  0.1347E-03  0.8361E-01  0.2673E-02
   -0.069996    3.24014  0.0000E+00  0.1640E-03  0.1657E-03  0.1814E-03  0.4922E-01  0.6182E-02
   -0.104994    3.25765  0.0000E+00  0.1294E-03  0.1011E-03  0.1864E-03  0.3773E-01  0.7983E-01
   -0.139993    3.26647  0.0000E+00  0.1069E-03  0.6141E-04  0.1914E-03  0.3117E-01  0.4079E-02
   -0.174992    3.27267  0.0000E+00  0.9117E-04  0.3856E-04  0.1966E-03  0.2626E-01  0.2651E-02
   -0.209991    3.27748  0.0000E+00  0.7930E-04  0.2419E-04  0.2037E-03  0.2247E-01  0.3168E-02
   -0.244991    3.28166  0.0000E+00  0.7023E-04  0.1506E-04  0.2087E-03  0.1942E-01  0.3234E-02
   -0.279991    3.28531  0.0000E+00  0.6280E-04  0.9343E-05  0.2090E-03  0.1670E-01  0.3940E-02
   -0.314991    3.28936  0.0000E+00  0.5604E-04  0.5885E-05  0.2171E-03  0.1388E-01  0.6074E-02
   -0.349991    3.29296  0.0000E+00  0.5031E-04  0.3780E-05  0.2219E-03  0.1183E-01  0.2080E-01
   -0.384991    3.29645  0.0000E+00  0.4548E-04  0.2505E-05  0.2251E-03  0.1017E-01  0.7596E+01
   -0.419992    3.29975  0.0000E+00  0.4141E-04  0.1711E-05  0.2240E-03  0.8779E-02  0.1446E+00
   -0.454992    3.30339  0.0000E+00  0.3785E-04  0.1211E-05  0.2204E-03  0.7459E-02  0.3125E+00
   -0.489993    3.30774  0.0000E+00  0.3464E-04  0.9043E-06  0.2182E-03  0.6186E-02  0.6364E+01
   -0.524994    3.31337  0.0000E+00  0.3155E-04  0.7039E-06  0.2252E-03  0.5050E-02  0.1496E+03
   -0.559995    3.31737  0.0000E+00  0.2857E-04  0.5585E-06  0.2312E-03  0.4237E-02 -0.1413E+07
   -0.594996    3.31992  0.0000E+00  0.2537E-04  0.4345E-06  0.2303E-03  0.3698E-02 -0.1399E+07
   -0.629997    3.32115  0.0000E+00  0.2249E-04  0.3401E-06  0.2207E-03  0.3383E-02 -0.3936E+07
   -0.664998    3.32355  0.0000E+00  0.2002E-04  0.2704E-06  0.2116E-03  0.3053E-02 -0.6996E+07
   -0.699999    3.32629  0.0000E+00  0.1788E-04  0.2177E-06  0.2032E-03  0.2730E-02 -0.6572E+07
   -0.735000    3.32925  0.0000E+00  0.1600E-04  0.1769E-06  0.1955E-03  0.2427E-02 -0.1701E+07
   -0.770001    3.33237  0.0000E+00  0.1436E-04  0.1451E-06  0.1881E-03  0.2148E-02 -0.3349E+06
   -0.805002    3.33564  0.0000E+00  0.1291E-04  0.1199E-06  0.1806E-03  0.1895E-02 -0.1328E+06
   -0.840003    3.33911  0.0000E+00  0.1164E-04  0.9978E-07  0.1735E-03  0.1663E-02  0.1642E+06
   -0.875004    3.34278  0.0000E+00  0.1051E-04  0.8361E-07  0.1665E-03  0.1455E-02  0.1727E+07
   -0.910005    3.34666  0.0000E+00  0.9523E-05  0.7053E-07  0.1593E-03  0.1268E-02  0.8491E+07
   -0.945006    3.35091  0.0000E+00  0.8656E-05  0.6002E-07  0.1523E-03  0.1097E-02  0.4711E+08
   -0.980007    3.35571  0.0000E+00  0.7897E-05  0.5153E-07  0.1454E-03  0.9400E-03  0.4529E+09
   -1.015007    3.36139  0.0000E+00  0.7231E-05  0.4467E-07  0.1392E-03  0.7962E-03  0.8445E+10
   -1.050007    3.36755  0.0000E+00  0.6639E-05  0.3906E-07  0.1332E-03  0.6701E-03  0.1369E+12
   -1.085008    3.37410  0.0000E+00  0.6107E-05  0.3447E-07  0.1268E-03  0.5615E-03  0.3396E+12
   -1.120008    3.38179  0.0000E+00  0.5633E-05  0.3078E-07  0.1197E-03  0.4695E-03  0.1664E+13
   -1.155007    3.39333  0.0000E+00  0.5215E-05  0.2797E-07  0.1125E-03  0.3872E-03  0.5308E+13
   -1.190007    3.41576  0.0000E+00  0.4852E-05  0.2602E-07  0.1052E-03  0.3136E-03  0.1861E+14
   -1.225006    3.47090  0.0000E+00  0.4524E-05  0.2496E-07  0.9744E-04  0.2483E-03  0.3486E+14
   -1.260005    3.57738  0.0000E+00  0.4213E-05  0.2522E-07  0.8788E-04  0.1948E-03  0.5345E+14
   -1.295004    3.64667  0.0000E+00  0.3788E-05  0.2893E-07  0.7034E-04  0.1536E-03  0.1638E+14
   -1.330002    3.67559  0.0000E+00  0.3201E-05  0.4101E-07  0.4353E-04  0.1258E-03  0.1642E+14
   -1.365000    3.72040  0.0000E+00  0.1861E-05  0.1031E-06  0.8019E-05  0.9865E-04 -0.3634E+14
   -1.399998    3.83090  0.0000E+00  0.0000E+00  0.0000E+00  0.0000E+00  0.1061E-03  0.0000E+00
