 1 - depth, m
 2 - temperature, C
 3 - salinity, kg/kg
 4 - turbulent kinetic energy, m**2/s**2
 5 - dissipation rate, m**2/s**3
 6 - kinematic heat conductance, m**2/s
 7 - modulus of horizontal velocity, m/s
 8 - Richardson number, n/d
   -0.000000    8.18333  0.0000E+00  0.1815E-04  0.2458E-05  0.1901E-04  0.2329E-01 -0.5502E-01
   -0.034998    8.21997  0.0000E+00  0.1310E-04  0.7719E-06  0.3890E-04  0.1220E-01 -0.1112E+00
   -0.069996    8.23379  0.0000E+00  0.1086E-04  0.3796E-06  0.6259E-04  0.8900E-02  0.7204E+01
   -0.104994    8.24267  0.0000E+00  0.9373E-05  0.2205E-06  0.8182E-04  0.6901E-02  0.5875E+01
   -0.139993    8.24931  0.0000E+00  0.8299E-05  0.1420E-06  0.1027E-03  0.5495E-02  0.9971E+01
   -0.174992    8.25453  0.0000E+00  0.7491E-05  0.9839E-07  0.1268E-03  0.4440E-02  0.1070E+02
   -0.209992    8.25872  0.0000E+00  0.6865E-05  0.7216E-07  0.1613E-03  0.3616E-02  0.1045E+03
   -0.244991    8.26205  0.0000E+00  0.6362E-05  0.5531E-07  0.1962E-03  0.2957E-02  0.6787E+03
   -0.279991    8.26478  0.0000E+00  0.5935E-05  0.4369E-07  0.2297E-03  0.2404E-02  0.2142E+02
   -0.314991    8.26707  0.0000E+00  0.5546E-05  0.3510E-07  0.2672E-03  0.1922E-02  0.2553E+02
   -0.349991    8.26897  0.0000E+00  0.5215E-05  0.2881E-07  0.3054E-03  0.1545E-02  0.1038E+02
   -0.384991    8.27056  0.0000E+00  0.4943E-05  0.2416E-07  0.3421E-03  0.1247E-02  0.9596E+01
   -0.419992    8.27190  0.0000E+00  0.4722E-05  0.2072E-07  0.3732E-03  0.1006E-02  0.8597E+02
   -0.454993    8.27304  0.0000E+00  0.4541E-05  0.1811E-07  0.3966E-03  0.7990E-03  0.4081E+01
   -0.489993    8.27408  0.0000E+00  0.4389E-05  0.1611E-07  0.4109E-03  0.6153E-03  0.3806E+01
   -0.524994    8.27504  0.0000E+00  0.4248E-05  0.1442E-07  0.4357E-03  0.4541E-03  0.1170E+01
   -0.559995    8.27595  0.0000E+00  0.4120E-05  0.1297E-07  0.4553E-03  0.3397E-03  0.9141E+00
   -0.594996    8.27682  0.0000E+00  0.4000E-05  0.1167E-07  0.4693E-03  0.2700E-03  0.8359E+00
   -0.629997    8.27769  0.0000E+00  0.3912E-05  0.1074E-07  0.4787E-03  0.2346E-03  0.1332E+01
   -0.664998    8.27852  0.0000E+00  0.3843E-05  0.1002E-07  0.4887E-03  0.2071E-03  0.1450E+01
   -0.700000    8.27932  0.0000E+00  0.3784E-05  0.9422E-08  0.4991E-03  0.1825E-03  0.1587E+01
   -0.735001    8.28010  0.0000E+00  0.3734E-05  0.8932E-08  0.5083E-03  0.1609E-03  0.1786E+01
   -0.770002    8.28086  0.0000E+00  0.3690E-05  0.8528E-08  0.5163E-03  0.1422E-03  0.2018E+01
   -0.805003    8.28159  0.0000E+00  0.3651E-05  0.8194E-08  0.5229E-03  0.1260E-03  0.2347E+01
   -0.840004    8.28231  0.0000E+00  0.3615E-05  0.7920E-08  0.5279E-03  0.1119E-03  0.2725E+01
   -0.875005    8.28301  0.0000E+00  0.3582E-05  0.7695E-08  0.5311E-03  0.9952E-04  0.3205E+01
   -0.910006    8.28370  0.0000E+00  0.3551E-05  0.7513E-08  0.5325E-03  0.8855E-04  0.3774E+01
   -0.945007    8.28438  0.0000E+00  0.3520E-05  0.7373E-08  0.5318E-03  0.7859E-04  0.4433E+01
   -0.980007    8.28505  0.0000E+00  0.3490E-05  0.7274E-08  0.5287E-03  0.6946E-04  0.5171E+01
   -1.015008    8.28572  0.0000E+00  0.3460E-05  0.7215E-08  0.5228E-03  0.6103E-04  0.6189E+01
   -1.050008    8.28638  0.0000E+00  0.3429E-05  0.7201E-08  0.5136E-03  0.5340E-04  0.7778E+01
   -1.085008    8.28705  0.0000E+00  0.3395E-05  0.7237E-08  0.5007E-03  0.4652E-04  0.1009E+02
   -1.120008    8.28774  0.0000E+00  0.3359E-05  0.7337E-08  0.4836E-03  0.4035E-04  0.1341E+02
   -1.155008    8.28843  0.0000E+00  0.3321E-05  0.7518E-08  0.4622E-03  0.3461E-04  0.1744E+02
   -1.190008    8.28915  0.0000E+00  0.3279E-05  0.7813E-08  0.4343E-03  0.2923E-04  0.2273E+02
   -1.225007    8.28991  0.0000E+00  0.3230E-05  0.8317E-08  0.4018E-03  0.2418E-04  0.3058E+02
   -1.260006    8.29072  0.0000E+00  0.3160E-05  0.9299E-08  0.3368E-03  0.1982E-04  0.5360E+02
   -1.295005    8.29170  0.0000E+00  0.3019E-05  0.1190E-07  0.2949E-03  0.1590E-04  0.1095E+03
   -1.330003    8.29283  0.0000E+00  0.2728E-05  0.1956E-07  0.1599E-03  0.1327E-04 -0.7491E+04
   -1.365001    8.29730  0.0000E+00  0.1777E-05  0.5707E-07  0.2669E-04  0.9709E-05 -0.6442E+05
   -1.399999    8.31187  0.0000E+00  0.0000E+00  0.0000E+00  0.0000E+00  0.1042E-04  0.0000E+00
