 1 - depth, m
 2 - temperature, C
 3 - salinity, kg/kg
 4 - turbulent kinetic energy, m**2/s**2
 5 - dissipation rate, m**2/s**3
 6 - kinematic heat conductance, m**2/s
 7 - modulus of horizontal velocity, m/s
 8 - Richardson number, n/d
   -0.000000    0.00000  0.0000E+00  0.4702E-13  0.1132E-15  0.1000E-09  0.0000E+00  0.6306E+16
   -0.034998    0.09584  0.0000E+00  0.4702E-13  0.1132E-15  0.1000E-09  0.0000E+00  0.6203E+16
   -0.069996    0.19262  0.0000E+00  0.4702E-13  0.1132E-15  0.1000E-09  0.0000E+00  0.6094E+16
   -0.104995    0.29034  0.0000E+00  0.4702E-13  0.1132E-15  0.1000E-09  0.0000E+00  0.5925E+16
   -0.139993    0.38805  0.0000E+00  0.4702E-13  0.1132E-15  0.1000E-09  0.0000E+00  0.5723E+16
   -0.174993    0.48518  0.0000E+00  0.4702E-13  0.1132E-15  0.1000E-09  0.0000E+00  0.5520E+16
   -0.209992    0.58165  0.0000E+00  0.4702E-13  0.1132E-15  0.1000E-09  0.0000E+00  0.5315E+16
   -0.244992    0.67735  0.0000E+00  0.4702E-13  0.1132E-15  0.1000E-09  0.0000E+00  0.5109E+16
   -0.279991    0.77219  0.0000E+00  0.4702E-13  0.1132E-15  0.1000E-09  0.0000E+00  0.4905E+16
   -0.314992    0.86609  0.0000E+00  0.4702E-13  0.1132E-15  0.1000E-09  0.0000E+00  0.4749E+16
   -0.349992    0.95994  0.0000E+00  0.4702E-13  0.1132E-15  0.1000E-09  0.0000E+00  0.4598E+16
   -0.384992    1.05381  0.0000E+00  0.4702E-13  0.1132E-15  0.1000E-09  0.0000E+00  0.4444E+16
   -0.419993    1.14764  0.0000E+00  0.4702E-13  0.1132E-15  0.1000E-09  0.0000E+00  0.4278E+16
   -0.454994    1.24115  0.0000E+00  0.4702E-13  0.1132E-15  0.1000E-09  0.0000E+00  0.4122E+16
   -0.489994    1.33450  0.0000E+00  0.4702E-13  0.1132E-15  0.1000E-09  0.0000E+00  0.4016E+16
   -0.524995    1.42887  0.0000E+00  0.4702E-13  0.1132E-15  0.1000E-09  0.0000E+00  0.4154E+16
   -0.559996    1.53048  0.0000E+00  0.4702E-13  0.1132E-15  0.1000E-09  0.0000E+00  0.4468E+16
   -0.594998    1.64489  0.0000E+00  0.4702E-13  0.1132E-15  0.1000E-09  0.0000E+00  0.4764E+16
   -0.629999    1.77364  0.0000E+00  0.4702E-13  0.1132E-15  0.1000E-09  0.0000E+00  0.4424E+16
   -0.665000    1.90057  0.0000E+00  0.4702E-13  0.1132E-15  0.1000E-09  0.0000E+00  0.4091E+16
   -0.700001    2.02551  0.0000E+00  0.4702E-13  0.1132E-15  0.1000E-09  0.0000E+00  0.3773E+16
   -0.735002    2.14854  0.0000E+00  0.4702E-13  0.1132E-15  0.1000E-09  0.0000E+00  0.3491E+16
   -0.770004    2.27043  0.0000E+00  0.4702E-13  0.1132E-15  0.1000E-09  0.0000E+00  0.3253E+16
   -0.805005    2.39263  0.0000E+00  0.4702E-13  0.1132E-15  0.1000E-09  0.0000E+00  0.3004E+16
   -0.840006    2.51475  0.0000E+00  0.4702E-13  0.1132E-15  0.1000E-09  0.0000E+00  0.2752E+16
   -0.875007    2.63653  0.0000E+00  0.4702E-13  0.1132E-15  0.1000E-09  0.0000E+00  0.2504E+16
   -0.910008    2.75803  0.0000E+00  0.4702E-13  0.1132E-15  0.1000E-09  0.0000E+00  0.2231E+16
   -0.945009    2.87766  0.0000E+00  0.4702E-13  0.1132E-15  0.1000E-09  0.0000E+00  0.1959E+16
   -0.980009    2.99477  0.0000E+00  0.1504E-12  0.1526E-15  0.1000E-09  0.0000E+00  0.1697E+16
   -1.015010    3.10903  0.0000E+00  0.5264E-12  0.4496E-15  0.1000E-09  0.0000E+00  0.1474E+16
   -1.050010    3.22216  0.0000E+00  0.1729E-11  0.1410E-14  0.1000E-09  0.0000E+00  0.1267E+16
   -1.085011    3.33517  0.0000E+00  0.5573E-11  0.4400E-14  0.1000E-09  0.0000E+00  0.1108E+16
   -1.120011    3.45356  0.0000E+00  0.1755E-10  0.1345E-13  0.1000E-09  0.0000E+00  0.8902E+15
   -1.155011    3.57276  0.0000E+00  0.5456E-10  0.4063E-13  0.1541E-09  0.0000E+00  0.6703E+15
   -1.190010    3.69319  0.0000E+00  0.1687E-09  0.1222E-12  0.6815E-09  0.0000E+00  0.4527E+15
   -1.225010    3.81800  0.0000E+00  0.5436E-09  0.3840E-12  0.4346E-08  0.0000E+00  0.2177E+15
   -1.260009    3.96222  0.0000E+00  0.1740E-08  0.1214E-11  0.3891E-06  0.0000E+00 -0.2315E+13
   -1.295008    4.01598  0.0000E+00  0.4197E-08  0.3664E-11  0.2029E-05  0.0000E+00 -0.1158E+14
   -1.330006    4.03488  0.0000E+00  0.5317E-08  0.6232E-11  0.1656E-05  0.0000E+00 -0.1961E+14
   -1.365004    4.05606  0.0000E+00  0.4842E-08  0.1178E-10  0.5358E-06  0.0000E+00 -0.7008E+14
   -1.400002    4.10389  0.0000E+00  0.0000E+00  0.0000E+00  0.0000E+00  0.0000E+00  0.0000E+00
