 1 - depth, m
 2 - temperature, C
 3 - salinity, kg/kg
 4 - turbulent kinetic energy, m**2/s**2
 5 - dissipation rate, m**2/s**3
 6 - kinematic heat conductance, m**2/s
 7 - modulus of horizontal velocity, m/s
 8 - Richardson number, n/d
   -0.000000    0.00000  0.0000E+00  0.4702E-13  0.1132E-15  0.1000E-09  0.0000E+00  0.1111E+17
   -0.034998    0.17048  0.0000E+00  0.4702E-13  0.1132E-15  0.1000E-09  0.0000E+00  0.1068E+17
   -0.069996    0.34249  0.0000E+00  0.4702E-13  0.1132E-15  0.1000E-09  0.0000E+00  0.1025E+17
   -0.104994    0.51610  0.0000E+00  0.4702E-13  0.1132E-15  0.1000E-09  0.0000E+00  0.9677E+16
   -0.139993    0.68887  0.0000E+00  0.4702E-13  0.1132E-15  0.1000E-09  0.0000E+00  0.9037E+16
   -0.174992    0.85933  0.0000E+00  0.4702E-13  0.1132E-15  0.1000E-09  0.0000E+00  0.8418E+16
   -0.209991    1.02741  0.0000E+00  0.1563E-12  0.1132E-15  0.1000E-09  0.0000E+00  0.7819E+16
   -0.244990    1.19306  0.0000E+00  0.4557E-12  0.1338E-15  0.1000E-09  0.0000E+00  0.7241E+16
   -0.279990    1.35621  0.0000E+00  0.9833E-12  0.2166E-15  0.1000E-09  0.0000E+00  0.6684E+16
   -0.314990    1.51679  0.0000E+00  0.1895E-11  0.3771E-15  0.1000E-09  0.0000E+00  0.6125E+16
   -0.349990    1.67415  0.0000E+00  0.3498E-11  0.6655E-15  0.1000E-09  0.0000E+00  0.5583E+16
   -0.384990    1.82796  0.0000E+00  0.6330E-11  0.1172E-14  0.1000E-09  0.0000E+00  0.5059E+16
   -0.419991    1.97786  0.0000E+00  0.1130E-10  0.2049E-14  0.1000E-09  0.0000E+00  0.4617E+16
   -0.454991    2.12554  0.0000E+00  0.1999E-10  0.3558E-14  0.1000E-09  0.0000E+00  0.4240E+16
   -0.489992    2.27270  0.0000E+00  0.3520E-10  0.6150E-14  0.1000E-09  0.0000E+00  0.3893E+16
   -0.524993    2.42034  0.0000E+00  0.6453E-10  0.1107E-13  0.1000E-09  0.0000E+00  0.3657E+16
   -0.559993    2.57338  0.0000E+00  0.1239E-09  0.2085E-13  0.1000E-09  0.0000E+00  0.3466E+16
   -0.594994    2.73605  0.0000E+00  0.2519E-09  0.4163E-13  0.1000E-09  0.0000E+00  0.3217E+16
   -0.629995    2.90932  0.0000E+00  0.4643E-09  0.7552E-13  0.1000E-09  0.0000E+00  0.2703E+16
   -0.664996    3.08063  0.0000E+00  0.8143E-09  0.1303E-12  0.1530E-09  0.0000E+00  0.2207E+16
   -0.699997    3.24999  0.0000E+00  0.1402E-08  0.2208E-12  0.3306E-09  0.0000E+00  0.1730E+16
   -0.734998    3.41750  0.0000E+00  0.2401E-08  0.3719E-12  0.7518E-09  0.0000E+00  0.1281E+16
   -0.770000    3.58480  0.0000E+00  0.4097E-08  0.6242E-12  0.1906E-08  0.0000E+00  0.8480E+15
   -0.805000    3.75504  0.0000E+00  0.6957E-08  0.1043E-11  0.6936E-08  0.0000E+00  0.3894E+15
   -0.840001    3.92412  0.0000E+00  0.1108E-07  0.1645E-11  0.1678E-06  0.0000E+00  0.2670E+14
   -0.875002    4.00917  0.0000E+00  0.1185E-07  0.1767E-11  0.3178E-04  0.0000E+00 -0.3004E+12
   -0.910003    4.00999  0.0000E+00  0.1224E-07  0.1838E-11  0.3155E-04  0.0000E+00 -0.3170E+12
   -0.945004    4.01083  0.0000E+00  0.1261E-07  0.1916E-11  0.3197E-04  0.0000E+00 -0.3270E+12
   -0.980004    4.01167  0.0000E+00  0.1295E-07  0.2001E-11  0.3223E-04  0.0000E+00 -0.3395E+12
   -1.015005    4.01251  0.0000E+00  0.1326E-07  0.2096E-11  0.3233E-04  0.0000E+00 -0.3614E+12
   -1.050005    4.01338  0.0000E+00  0.1356E-07  0.2205E-11  0.3219E-04  0.0000E+00 -0.3900E+12
   -1.085005    4.01429  0.0000E+00  0.1383E-07  0.2333E-11  0.3175E-04  0.0000E+00 -0.4194E+12
   -1.120005    4.01523  0.0000E+00  0.1407E-07  0.2484E-11  0.3091E-04  0.0000E+00 -0.4472E+12
   -1.155005    4.01620  0.0000E+00  0.1428E-07  0.2664E-11  0.2975E-04  0.0000E+00 -0.4831E+12
   -1.190004    4.01722  0.0000E+00  0.1445E-07  0.2887E-11  0.2817E-04  0.0000E+00 -0.5377E+12
   -1.225003    4.01831  0.0000E+00  0.1459E-07  0.3202E-11  0.2621E-04  0.0000E+00 -0.6572E+12
   -1.260002    4.01960  0.0000E+00  0.1468E-07  0.3720E-11  0.2332E-04  0.0000E+00 -0.9238E+12
   -1.295001    4.02132  0.0000E+00  0.1461E-07  0.4980E-11  0.1823E-04  0.0000E+00 -0.1635E+13
   -1.329999    4.02419  0.0000E+00  0.1383E-07  0.8176E-11  0.7047E-05  0.0000E+00 -0.4445E+13
   -1.364997    4.03107  0.0000E+00  0.1017E-07  0.2225E-10  0.9227E-06  0.0000E+00 -0.4062E+14
   -1.399995    4.07113  0.0000E+00  0.0000E+00  0.0000E+00  0.0000E+00  0.0000E+00  0.0000E+00
