 1 - depth, m
 2 - temperature, C
 3 - salinity, kg/kg
 4 - turbulent kinetic energy, m**2/s**2
 5 - dissipation rate, m**2/s**3
 6 - kinematic heat conductance, m**2/s
 7 - modulus of horizontal velocity, m/s
 8 - Richardson number, n/d
   -0.000000    0.00000  0.0000E+00  0.4702E-13  0.1132E-15  0.1000E-09  0.0000E+00  0.8115E+16
   -0.034998    0.12379  0.0000E+00  0.4702E-13  0.1132E-15  0.1000E-09  0.0000E+00  0.7950E+16
   -0.069996    0.24931  0.0000E+00  0.4702E-13  0.1132E-15  0.1000E-09  0.0000E+00  0.7781E+16
   -0.104995    0.37666  0.0000E+00  0.4702E-13  0.1132E-15  0.1000E-09  0.0000E+00  0.7522E+16
   -0.139993    0.50447  0.0000E+00  0.4702E-13  0.1132E-15  0.1000E-09  0.0000E+00  0.7215E+16
   -0.174992    0.63193  0.0000E+00  0.4702E-13  0.1132E-15  0.1000E-09  0.0000E+00  0.6909E+16
   -0.209992    0.75897  0.0000E+00  0.4702E-13  0.1132E-15  0.1000E-09  0.0000E+00  0.6604E+16
   -0.244991    0.88555  0.0000E+00  0.4702E-13  0.1132E-15  0.1000E-09  0.0000E+00  0.6301E+16
   -0.279991    1.01159  0.0000E+00  0.4702E-13  0.1132E-15  0.1000E-09  0.0000E+00  0.5998E+16
   -0.314991    1.13702  0.0000E+00  0.4702E-13  0.1132E-15  0.1000E-09  0.0000E+00  0.5730E+16
   -0.349992    1.26250  0.0000E+00  0.4702E-13  0.1132E-15  0.1000E-09  0.0000E+00  0.5463E+16
   -0.384992    1.38804  0.0000E+00  0.4702E-13  0.1132E-15  0.1000E-09  0.0000E+00  0.5194E+16
   -0.419993    1.51357  0.0000E+00  0.4702E-13  0.1132E-15  0.1000E-09  0.0000E+00  0.4922E+16
   -0.454993    1.63897  0.0000E+00  0.2237E-12  0.1132E-15  0.1000E-09  0.0000E+00  0.4661E+16
   -0.489994    1.76451  0.0000E+00  0.6014E-12  0.1733E-15  0.1000E-09  0.0000E+00  0.4436E+16
   -0.524995    1.89122  0.0000E+00  0.1367E-11  0.3304E-15  0.1000E-09  0.0000E+00  0.4381E+16
   -0.559996    2.02467  0.0000E+00  0.2996E-11  0.6772E-15  0.1000E-09  0.0000E+00  0.4430E+16
   -0.594997    2.16991  0.0000E+00  0.6721E-11  0.1467E-14  0.1000E-09  0.0000E+00  0.4432E+16
   -0.629998    2.32828  0.0000E+00  0.1333E-10  0.2849E-14  0.1000E-09  0.0000E+00  0.3981E+16
   -0.664999    2.48517  0.0000E+00  0.2507E-10  0.5256E-14  0.1000E-09  0.0000E+00  0.3542E+16
   -0.700001    2.64044  0.0000E+00  0.4627E-10  0.9522E-14  0.1000E-09  0.0000E+00  0.3119E+16
   -0.735002    2.79421  0.0000E+00  0.8501E-10  0.1717E-13  0.1000E-09  0.0000E+00  0.2724E+16
   -0.770003    2.94738  0.0000E+00  0.1556E-09  0.3085E-13  0.1000E-09  0.0000E+00  0.2360E+16
   -0.805004    3.10164  0.0000E+00  0.2841E-09  0.5526E-13  0.1000E-09  0.0000E+00  0.1986E+16
   -0.840005    3.25670  0.0000E+00  0.5159E-09  0.9854E-13  0.1589E-09  0.0000E+00  0.1606E+16
   -0.875006    3.41236  0.0000E+00  0.9344E-09  0.1752E-12  0.3710E-09  0.0000E+00  0.1223E+16
   -0.910007    3.56862  0.0000E+00  0.1684E-08  0.3103E-12  0.9675E-09  0.0000E+00  0.8304E+15
   -0.945008    3.72359  0.0000E+00  0.3011E-08  0.5449E-12  0.3169E-08  0.0000E+00  0.4450E+15
   -0.980009    3.87503  0.0000E+00  0.5302E-08  0.9443E-12  0.2576E-07  0.0000E+00  0.9442E+14
   -1.015009    4.00479  0.0000E+00  0.6345E-08  0.1137E-11  0.1372E-04  0.0000E+00 -0.4726E+12
   -1.050010    4.00636  0.0000E+00  0.6868E-08  0.1255E-11  0.1451E-04  0.0000E+00 -0.4878E+12
   -1.085010    4.00786  0.0000E+00  0.7347E-08  0.1386E-11  0.1512E-04  0.0000E+00 -0.5195E+12
   -1.120010    4.00935  0.0000E+00  0.7779E-08  0.1536E-11  0.1496E-04  0.0000E+00 -0.5637E+12
   -1.155010    4.01086  0.0000E+00  0.8167E-08  0.1714E-11  0.1435E-04  0.0000E+00 -0.6305E+12
   -1.190009    4.01245  0.0000E+00  0.8518E-08  0.1937E-11  0.1347E-04  0.0000E+00 -0.7339E+12
   -1.225009    4.01418  0.0000E+00  0.8854E-08  0.2255E-11  0.1278E-04  0.0000E+00 -0.9310E+12
   -1.260008    4.01624  0.0000E+00  0.9167E-08  0.2765E-11  0.1196E-04  0.0000E+00 -0.1344E+13
   -1.295007    4.01898  0.0000E+00  0.9361E-08  0.3876E-11  0.9327E-05  0.0000E+00 -0.2580E+13
   -1.330005    4.02368  0.0000E+00  0.8880E-08  0.6158E-11  0.4079E-05  0.0000E+00 -0.6370E+13
   -1.365003    4.03333  0.0000E+00  0.6577E-08  0.1405E-10  0.6643E-06  0.0000E+00 -0.4331E+14
   -1.400001    4.07431  0.0000E+00  0.0000E+00  0.0000E+00  0.0000E+00  0.0000E+00  0.0000E+00
