 1 - depth, m
 2 - temperature, C
 3 - salinity, kg/kg
 4 - turbulent kinetic energy, m**2/s**2
 5 - dissipation rate, m**2/s**3
 6 - kinematic heat conductance, m**2/s
 7 - modulus of horizontal velocity, m/s
 8 - Richardson number, n/d
   -0.000000   16.62055  0.0000E+00  0.1696E-04  0.1468E-05  0.2019E-04  0.2313E-01 -0.1434E-01
   -0.034998   16.63889  0.0000E+00  0.1358E-04  0.5267E-06  0.3821E-04  0.1356E-01 -0.3756E-01
   -0.069996   16.64715  0.0000E+00  0.1164E-04  0.2801E-06  0.5481E-04  0.9842E-02 -0.6668E-01
   -0.104994   16.65277  0.0000E+00  0.1030E-04  0.1754E-06  0.7197E-04  0.7544E-02 -0.1056E+00
   -0.139993   16.65700  0.0000E+00  0.9315E-05  0.1207E-06  0.9148E-04  0.5959E-02 -0.1508E+00
   -0.174992   16.66030  0.0000E+00  0.8578E-05  0.8879E-07  0.1268E-03  0.4807E-02  0.2306E+00
   -0.209991   16.66275  0.0000E+00  0.8038E-05  0.6921E-07  0.2262E-03  0.3949E-02  0.1358E+03
   -0.244991   16.66427  0.0000E+00  0.7659E-05  0.5693E-07  0.3293E-03  0.3318E-02  0.4970E+02
   -0.279990   16.66518  0.0000E+00  0.7365E-05  0.4814E-07  0.3284E-03  0.2802E-02  0.9985E+01
   -0.314990   16.66609  0.0000E+00  0.7078E-05  0.4090E-07  0.3498E-03  0.2294E-02  0.5435E+01
   -0.349991   16.66694  0.0000E+00  0.6823E-05  0.3515E-07  0.3668E-03  0.1875E-02  0.3475E+01
   -0.384991   16.66774  0.0000E+00  0.6600E-05  0.3058E-07  0.3879E-03  0.1524E-02  0.2652E+01
   -0.419991   16.66849  0.0000E+00  0.6411E-05  0.2697E-07  0.4021E-03  0.1232E-02  0.2473E+01
   -0.454992   16.66922  0.0000E+00  0.6246E-05  0.2409E-07  0.4177E-03  0.9738E-03  0.2396E+01
   -0.489993   16.66993  0.0000E+00  0.6095E-05  0.2177E-07  0.4345E-03  0.7429E-03  0.2124E+01
   -0.524993   16.67061  0.0000E+00  0.5942E-05  0.1979E-07  0.4887E-03  0.5415E-03  0.1420E+01
   -0.559994   16.67118  0.0000E+00  0.5795E-05  0.1807E-07  0.5648E-03  0.4014E-03  0.9901E+00
   -0.594995   16.67163  0.0000E+00  0.5658E-05  0.1655E-07  0.6164E-03  0.3179E-03  0.7347E+00
   -0.629996   16.67199  0.0000E+00  0.5563E-05  0.1551E-07  0.6290E-03  0.2759E-03  0.7707E+00
   -0.664997   16.67235  0.0000E+00  0.5490E-05  0.1475E-07  0.6384E-03  0.2452E-03  0.7678E+00
   -0.699999   16.67270  0.0000E+00  0.5429E-05  0.1413E-07  0.6494E-03  0.2179E-03  0.7842E+00
   -0.735000   16.67305  0.0000E+00  0.5377E-05  0.1364E-07  0.6578E-03  0.1942E-03  0.8131E+00
   -0.770001   16.67340  0.0000E+00  0.5332E-05  0.1326E-07  0.6637E-03  0.1737E-03  0.8570E+00
   -0.805002   16.67375  0.0000E+00  0.5292E-05  0.1298E-07  0.6669E-03  0.1561E-03  0.9282E+00
   -0.840003   16.67410  0.0000E+00  0.5257E-05  0.1277E-07  0.6678E-03  0.1409E-03  0.1031E+01
   -0.875004   16.67445  0.0000E+00  0.5224E-05  0.1264E-07  0.6662E-03  0.1276E-03  0.1193E+01
   -0.910004   16.67481  0.0000E+00  0.5191E-05  0.1257E-07  0.6615E-03  0.1156E-03  0.1433E+01
   -0.945005   16.67518  0.0000E+00  0.5158E-05  0.1257E-07  0.6534E-03  0.1045E-03  0.1722E+01
   -0.980006   16.67556  0.0000E+00  0.5123E-05  0.1264E-07  0.6415E-03  0.9413E-04  0.2078E+01
   -1.015006   16.67595  0.0000E+00  0.5084E-05  0.1279E-07  0.6257E-03  0.8427E-04  0.2550E+01
   -1.050007   16.67636  0.0000E+00  0.5041E-05  0.1306E-07  0.6040E-03  0.7510E-04  0.3324E+01
   -1.085007   16.67680  0.0000E+00  0.4989E-05  0.1347E-07  0.5794E-03  0.6657E-04  0.4477E+01
   -1.120007   16.67726  0.0000E+00  0.4929E-05  0.1409E-07  0.5430E-03  0.5870E-04  0.6403E+01
   -1.155006   16.67776  0.0000E+00  0.4859E-05  0.1501E-07  0.5141E-03  0.5103E-04  0.8967E+01
   -1.190006   16.67831  0.0000E+00  0.4772E-05  0.1654E-07  0.4585E-03  0.4378E-04  0.3028E+01
   -1.225005   16.67901  0.0000E+00  0.4650E-05  0.1918E-07  0.4310E-03  0.3675E-04  0.2584E+01
   -1.260004   16.67975  0.0000E+00  0.4454E-05  0.2490E-07  0.3254E-03  0.2977E-04 -0.5864E+04
   -1.295003   16.68138  0.0000E+00  0.4061E-05  0.3969E-07  0.3186E-03  0.2240E-04  0.5736E+04
   -1.330001   16.68188  0.0000E+00  0.3417E-05  0.8288E-07  0.1279E-03  0.1885E-04 -0.3646E+05
   -1.364999   16.68970  0.0000E+00  0.2237E-05  0.2078E-06  0.6018E-04  0.1208E-04 -0.3426E+06
   -1.399997   16.69508  0.0000E+00  0.0000E+00  0.0000E+00  0.0000E+00  0.1566E-04  0.0000E+00
