 1 - depth, m
 2 - temperature, C
 3 - salinity, kg/kg
 4 - turbulent kinetic energy, m**2/s**2
 5 - dissipation rate, m**2/s**3
 6 - kinematic heat conductance, m**2/s
 7 - modulus of horizontal velocity, m/s
 8 - Richardson number, n/d
   -0.000000    0.00000  0.0000E+00  0.4702E-13  0.1132E-15  0.1000E-09  0.0000E+00  0.1059E+17
   -0.034998    0.16241  0.0000E+00  0.4702E-13  0.1132E-15  0.1000E-09  0.0000E+00  0.1027E+17
   -0.069996    0.32725  0.0000E+00  0.4702E-13  0.1132E-15  0.1000E-09  0.0000E+00  0.9931E+16
   -0.104995    0.49452  0.0000E+00  0.4702E-13  0.1132E-15  0.1000E-09  0.0000E+00  0.9399E+16
   -0.139993    0.66105  0.0000E+00  0.4702E-13  0.1132E-15  0.1000E-09  0.0000E+00  0.8775E+16
   -0.174993    0.82489  0.0000E+00  0.4702E-13  0.1132E-15  0.1000E-09  0.0000E+00  0.8165E+16
   -0.209992    0.98581  0.0000E+00  0.4702E-13  0.1132E-15  0.1000E-09  0.0000E+00  0.7574E+16
   -0.244992    1.14365  0.0000E+00  0.4702E-13  0.1132E-15  0.1000E-09  0.0000E+00  0.7002E+16
   -0.279991    1.29821  0.0000E+00  0.4702E-13  0.1132E-15  0.1000E-09  0.0000E+00  0.6451E+16
   -0.314991    1.44933  0.0000E+00  0.4702E-13  0.1132E-15  0.1000E-09  0.0000E+00  0.5830E+16
   -0.349992    1.59448  0.0000E+00  0.4702E-13  0.1132E-15  0.1000E-09  0.0000E+00  0.5224E+16
   -0.384992    1.73277  0.0000E+00  0.4702E-13  0.1132E-15  0.1000E-09  0.0000E+00  0.4642E+16
   -0.419993    1.86352  0.0000E+00  0.4702E-13  0.1132E-15  0.1000E-09  0.0000E+00  0.4211E+16
   -0.454993    1.98980  0.0000E+00  0.4702E-13  0.1132E-15  0.1000E-09  0.0000E+00  0.3885E+16
   -0.489994    2.11410  0.0000E+00  0.4702E-13  0.1132E-15  0.1000E-09  0.0000E+00  0.3563E+16
   -0.524995    2.23610  0.0000E+00  0.4702E-13  0.1132E-15  0.1000E-09  0.0000E+00  0.3199E+16
   -0.559996    2.35362  0.0000E+00  0.4702E-13  0.1132E-15  0.1000E-09  0.0000E+00  0.2783E+16
   -0.594997    2.46343  0.0000E+00  0.4702E-13  0.1132E-15  0.1000E-09  0.0000E+00  0.2343E+16
   -0.629998    2.56258  0.0000E+00  0.4702E-13  0.1132E-15  0.1000E-09  0.0000E+00  0.2081E+16
   -0.665000    2.65699  0.0000E+00  0.5538E-13  0.1132E-15  0.1000E-09  0.0000E+00  0.1839E+16
   -0.700001    2.74651  0.0000E+00  0.1459E-12  0.1222E-15  0.1000E-09  0.0000E+00  0.1610E+16
   -0.735002    2.83073  0.0000E+00  0.4410E-12  0.1991E-15  0.1000E-09  0.0000E+00  0.1437E+16
   -0.770003    2.91155  0.0000E+00  0.1103E-11  0.4318E-15  0.1000E-09  0.0000E+00  0.1365E+16
   -0.805004    2.99451  0.0000E+00  0.2568E-11  0.9596E-15  0.1000E-09  0.0000E+00  0.1289E+16
   -0.840005    3.07991  0.0000E+00  0.5810E-11  0.2113E-14  0.1000E-09  0.0000E+00  0.1209E+16
   -0.875006    3.16824  0.0000E+00  0.1300E-10  0.4619E-14  0.1000E-09  0.0000E+00  0.1126E+16
   -0.910007    3.26027  0.0000E+00  0.2880E-10  0.1001E-13  0.1000E-09  0.0000E+00  0.1025E+16
   -0.945008    3.35575  0.0000E+00  0.6311E-10  0.2147E-13  0.1000E-09  0.0000E+00  0.9130E+15
   -0.980009    3.45527  0.0000E+00  0.1374E-09  0.4574E-13  0.1511E-09  0.0000E+00  0.7895E+15
   -1.015009    3.55990  0.0000E+00  0.2994E-09  0.9754E-13  0.3855E-09  0.0000E+00  0.6576E+15
   -1.050010    3.67305  0.0000E+00  0.6545E-09  0.2088E-12  0.1122E-08  0.0000E+00  0.4873E+15
   -1.085010    3.79720  0.0000E+00  0.1430E-08  0.4470E-12  0.5028E-08  0.0000E+00  0.2546E+15
   -1.120010    3.93302  0.0000E+00  0.2827E-08  0.8793E-12  0.7629E-06  0.0000E+00  0.3343E+14
   -1.155010    4.00387  0.0000E+00  0.4219E-08  0.1359E-11  0.4568E-05  0.0000E+00 -0.1433E+13
   -1.190010    4.00872  0.0000E+00  0.5109E-08  0.1773E-11  0.5109E-05  0.0000E+00 -0.1670E+13
   -1.225009    4.01319  0.0000E+00  0.5986E-08  0.2344E-11  0.5455E-05  0.0000E+00 -0.2166E+13
   -1.260008    4.01801  0.0000E+00  0.6911E-08  0.3245E-11  0.5665E-05  0.0000E+00 -0.3233E+13
   -1.295007    4.02404  0.0000E+00  0.7932E-08  0.5071E-11  0.5090E-05  0.0000E+00 -0.6163E+13
   -1.330005    4.03339  0.0000E+00  0.8196E-08  0.8135E-11  0.2801E-05  0.0000E+00 -0.1359E+14
   -1.365004    4.04921  0.0000E+00  0.6886E-08  0.1695E-10  0.7093E-06  0.0000E+00 -0.6814E+14
   -1.400002    4.09887  0.0000E+00  0.0000E+00  0.0000E+00  0.0000E+00  0.0000E+00  0.0000E+00
