 1 - depth, m
 2 - temperature, C
 3 - salinity, kg/kg
 4 - turbulent kinetic energy, m**2/s**2
 5 - dissipation rate, m**2/s**3
 6 - kinematic heat conductance, m**2/s
 7 - modulus of horizontal velocity, m/s
 8 - Richardson number, n/d
   -0.000000    0.00000  0.0000E+00  0.4701E-13  0.1132E-15  0.1000E-09  0.0000E+00  0.5595E+16
   -0.035000    0.08490  0.0000E+00  0.4701E-13  0.1132E-15  0.1000E-09  0.0000E+00  0.5805E+16
   -0.070000    0.17512  0.0000E+00  0.4701E-13  0.1132E-15  0.1000E-09  0.0000E+00  0.5973E+16
   -0.105000    0.27039  0.0000E+00  0.4701E-13  0.1132E-15  0.1000E-09  0.0000E+00  0.6007E+16
   -0.140000    0.36889  0.0000E+00  0.4701E-13  0.1132E-15  0.1000E-09  0.0000E+00  0.5957E+16
   -0.175001    0.46947  0.0000E+00  0.4701E-13  0.1132E-15  0.1000E-09  0.0000E+00  0.5884E+16
   -0.210002    0.57190  0.0000E+00  0.4701E-13  0.1132E-15  0.1000E-09  0.0000E+00  0.5793E+16
   -0.245004    0.67603  0.0000E+00  0.4701E-13  0.1132E-15  0.1000E-09  0.0000E+00  0.5687E+16
   -0.280005    0.78173  0.0000E+00  0.4701E-13  0.1132E-15  0.1000E-09  0.0000E+00  0.5570E+16
   -0.315007    0.88896  0.0000E+00  0.4701E-13  0.1132E-15  0.1000E-09  0.0000E+00  0.5435E+16
   -0.350009    0.99749  0.0000E+00  0.4701E-13  0.1132E-15  0.1000E-09  0.0000E+00  0.5292E+16
   -0.385011    1.10730  0.0000E+00  0.4701E-13  0.1132E-15  0.1000E-09  0.0000E+00  0.5144E+16
   -0.420014    1.21840  0.0000E+00  0.4701E-13  0.1132E-15  0.1000E-09  0.0000E+00  0.5000E+16
   -0.455016    1.33106  0.0000E+00  0.4701E-13  0.1132E-15  0.1000E-09  0.0000E+00  0.4863E+16
   -0.490019    1.44566  0.0000E+00  0.4701E-13  0.1132E-15  0.1000E-09  0.0000E+00  0.4741E+16
   -0.525022    1.56280  0.0000E+00  0.4701E-13  0.1132E-15  0.1000E-09  0.0000E+00  0.4682E+16
   -0.560024    1.68458  0.0000E+00  0.4701E-13  0.1132E-15  0.1000E-09  0.0000E+00  0.4682E+16
   -0.595027    1.81346  0.0000E+00  0.4701E-13  0.1132E-15  0.1000E-09  0.0000E+00  0.4657E+16
   -0.630030    1.95003  0.0000E+00  0.5369E-13  0.1132E-15  0.1000E-09  0.0000E+00  0.4388E+16
   -0.665033    2.08801  0.0000E+00  0.1730E-12  0.1193E-15  0.1000E-09  0.0000E+00  0.4102E+16
   -0.700036    2.22707  0.0000E+00  0.4867E-12  0.1884E-15  0.1000E-09  0.0000E+00  0.3807E+16
   -0.735039    2.36710  0.0000E+00  0.1137E-11  0.3800E-15  0.1000E-09  0.0000E+00  0.3511E+16
   -0.770042    2.50831  0.0000E+00  0.2471E-11  0.7864E-15  0.1000E-09  0.0000E+00  0.3222E+16
   -0.805045    2.65131  0.0000E+00  0.5229E-11  0.1620E-14  0.1000E-09  0.0000E+00  0.2917E+16
   -0.840048    2.79583  0.0000E+00  0.1092E-10  0.3310E-14  0.1000E-09  0.0000E+00  0.2600E+16
   -0.875051    2.94173  0.0000E+00  0.2267E-10  0.6735E-14  0.1000E-09  0.0000E+00  0.2274E+16
   -0.910053    3.08895  0.0000E+00  0.4677E-10  0.1363E-13  0.1000E-09  0.0000E+00  0.1929E+16
   -0.945056    3.23653  0.0000E+00  0.9562E-10  0.2734E-13  0.1000E-09  0.0000E+00  0.1578E+16
   -0.980058    3.38395  0.0000E+00  0.1947E-09  0.5463E-13  0.1192E-09  0.0000E+00  0.1227E+16
   -1.015061    3.53078  0.0000E+00  0.3975E-09  0.1095E-12  0.3224E-09  0.0000E+00  0.8832E+15
   -1.050063    3.67746  0.0000E+00  0.8164E-09  0.2210E-12  0.1061E-08  0.0000E+00  0.5423E+15
   -1.085065    3.82406  0.0000E+00  0.1680E-08  0.4470E-12  0.5910E-08  0.0000E+00  0.2044E+15
   -1.120067    3.97344  0.0000E+00  0.2894E-08  0.7741E-12  0.1943E-05  0.0000E+00  0.3101E+13
   -1.155068    4.00005  0.0000E+00  0.3885E-08  0.1096E-11  0.4819E-05  0.0000E+00 -0.1104E+13
   -1.190070    4.00466  0.0000E+00  0.4614E-08  0.1408E-11  0.5411E-05  0.0000E+00 -0.1312E+13
   -1.225071    4.00887  0.0000E+00  0.5319E-08  0.1826E-11  0.5767E-05  0.0000E+00 -0.1696E+13
   -1.260072    4.01331  0.0000E+00  0.6031E-08  0.2462E-11  0.5935E-05  0.0000E+00 -0.2483E+13
   -1.295072    4.01871  0.0000E+00  0.6746E-08  0.3711E-11  0.5209E-05  0.0000E+00 -0.4615E+13
   -1.330073    4.02685  0.0000E+00  0.6772E-08  0.5780E-11  0.2728E-05  0.0000E+00 -0.1010E+14
   -1.365073    4.04051  0.0000E+00  0.5308E-08  0.1170E-10  0.5718E-06  0.0000E+00 -0.5131E+14
   -1.400072    4.08377  0.0000E+00  0.0000E+00  0.0000E+00  0.0000E+00  0.0000E+00  0.0000E+00
