 1 - depth, m
 2 - temperature, C
 3 - salinity, kg/kg
 4 - turbulent kinetic energy, m**2/s**2
 5 - dissipation rate, m**2/s**3
 6 - kinematic heat conductance, m**2/s
 7 - modulus of horizontal velocity, m/s
 8 - Richardson number, n/d
   -0.000000    0.00000  0.0000E+00  0.4702E-13  0.1132E-15  0.1000E-09  0.0000E+00  0.1035E+17
   -0.034998    0.15856  0.0000E+00  0.4702E-13  0.1132E-15  0.1000E-09  0.0000E+00  0.1002E+17
   -0.069996    0.31904  0.0000E+00  0.4702E-13  0.1132E-15  0.1000E-09  0.0000E+00  0.9679E+16
   -0.104994    0.48155  0.0000E+00  0.4702E-13  0.1132E-15  0.1000E-09  0.0000E+00  0.9216E+16
   -0.139993    0.64407  0.0000E+00  0.4702E-13  0.1132E-15  0.1000E-09  0.0000E+00  0.8692E+16
   -0.174992    0.80541  0.0000E+00  0.4702E-13  0.1132E-15  0.1000E-09  0.0000E+00  0.8176E+16
   -0.209992    0.96547  0.0000E+00  0.1677E-12  0.1132E-15  0.1000E-09  0.0000E+00  0.7669E+16
   -0.244991    1.12416  0.0000E+00  0.4785E-12  0.1346E-15  0.1000E-09  0.0000E+00  0.7170E+16
   -0.279991    1.28136  0.0000E+00  0.1019E-11  0.2160E-15  0.1000E-09  0.0000E+00  0.6681E+16
   -0.314991    1.43696  0.0000E+00  0.1943E-11  0.3721E-15  0.1000E-09  0.0000E+00  0.6212E+16
   -0.349991    1.59108  0.0000E+00  0.3550E-11  0.6497E-15  0.1000E-09  0.0000E+00  0.5749E+16
   -0.384991    1.74355  0.0000E+00  0.6358E-11  0.1133E-14  0.1000E-09  0.0000E+00  0.5294E+16
   -0.419992    1.89413  0.0000E+00  0.1124E-10  0.1961E-14  0.1000E-09  0.0000E+00  0.4873E+16
   -0.454993    2.04339  0.0000E+00  0.1968E-10  0.3371E-14  0.1000E-09  0.0000E+00  0.4488E+16
   -0.489993    2.19219  0.0000E+00  0.3431E-10  0.5773E-14  0.1000E-09  0.0000E+00  0.4135E+16
   -0.524994    2.34155  0.0000E+00  0.6226E-10  0.1029E-13  0.1000E-09  0.0000E+00  0.3914E+16
   -0.559995    2.49704  0.0000E+00  0.1183E-09  0.1920E-13  0.1000E-09  0.0000E+00  0.3749E+16
   -0.594996    2.66347  0.0000E+00  0.2383E-09  0.3797E-13  0.1000E-09  0.0000E+00  0.3518E+16
   -0.629997    2.84199  0.0000E+00  0.4357E-09  0.6836E-13  0.1000E-09  0.0000E+00  0.2965E+16
   -0.664998    3.01822  0.0000E+00  0.7579E-09  0.1171E-12  0.1247E-09  0.0000E+00  0.2433E+16
   -0.700000    3.19198  0.0000E+00  0.1294E-08  0.1969E-12  0.2653E-09  0.0000E+00  0.1923E+16
   -0.735001    3.36323  0.0000E+00  0.2199E-08  0.3291E-12  0.5906E-09  0.0000E+00  0.1444E+16
   -0.770002    3.53299  0.0000E+00  0.3724E-08  0.5484E-12  0.1437E-08  0.0000E+00  0.9884E+15
   -0.805003    3.70337  0.0000E+00  0.6282E-08  0.9106E-12  0.4487E-08  0.0000E+00  0.5256E+15
   -0.840004    3.87155  0.0000E+00  0.1040E-07  0.1486E-11  0.3867E-07  0.0000E+00  0.9930E+14
   -0.875005    4.00881  0.0000E+00  0.1112E-07  0.1595E-11  0.3121E-04  0.0000E+00 -0.2853E+12
   -0.910006    4.00960  0.0000E+00  0.1147E-07  0.1657E-11  0.3091E-04  0.0000E+00 -0.2993E+12
   -0.945007    4.01041  0.0000E+00  0.1180E-07  0.1724E-11  0.3126E-04  0.0000E+00 -0.3065E+12
   -0.980007    4.01121  0.0000E+00  0.1210E-07  0.1798E-11  0.3146E-04  0.0000E+00 -0.3153E+12
   -1.015008    4.01200  0.0000E+00  0.1237E-07  0.1880E-11  0.3149E-04  0.0000E+00 -0.3313E+12
   -1.050008    4.01281  0.0000E+00  0.1263E-07  0.1975E-11  0.3128E-04  0.0000E+00 -0.3529E+12
   -1.085008    4.01365  0.0000E+00  0.1287E-07  0.2087E-11  0.3085E-04  0.0000E+00 -0.3801E+12
   -1.120008    4.01452  0.0000E+00  0.1309E-07  0.2220E-11  0.3000E-04  0.0000E+00 -0.4055E+12
   -1.155008    4.01543  0.0000E+00  0.1327E-07  0.2379E-11  0.2884E-04  0.0000E+00 -0.4383E+12
   -1.190008    4.01637  0.0000E+00  0.1342E-07  0.2578E-11  0.2729E-04  0.0000E+00 -0.4886E+12
   -1.225007    4.01739  0.0000E+00  0.1355E-07  0.2859E-11  0.2539E-04  0.0000E+00 -0.6011E+12
   -1.260006    4.01860  0.0000E+00  0.1363E-07  0.3323E-11  0.2262E-04  0.0000E+00 -0.8531E+12
   -1.295005    4.02025  0.0000E+00  0.1356E-07  0.4457E-11  0.1766E-04  0.0000E+00 -0.1528E+13
   -1.330003    4.02301  0.0000E+00  0.1281E-07  0.7338E-11  0.6725E-05  0.0000E+00 -0.4173E+13
   -1.365001    4.02967  0.0000E+00  0.9321E-08  0.1990E-10  0.8557E-06  0.0000E+00 -0.3790E+14
   -1.399999    4.06830  0.0000E+00  0.0000E+00  0.0000E+00  0.0000E+00  0.0000E+00  0.0000E+00
