 1 - depth, m
 2 - temperature, C
 3 - salinity, kg/kg
 4 - turbulent kinetic energy, m**2/s**2
 5 - dissipation rate, m**2/s**3
 6 - kinematic heat conductance, m**2/s
 7 - modulus of horizontal velocity, m/s
 8 - Richardson number, n/d
   -0.000000    0.00000  0.0000E+00  0.2031E-11  0.6885E-15  0.1000E-09  0.0000E+00  0.1728E+17
   -0.034998    0.26882  0.0000E+00  0.3164E-11  0.6650E-15  0.1000E-09  0.0000E+00  0.1587E+17
   -0.069995    0.53534  0.0000E+00  0.5415E-11  0.8560E-15  0.1000E-09  0.0000E+00  0.1446E+17
   -0.104994    0.79876  0.0000E+00  0.9123E-11  0.1259E-14  0.1000E-09  0.0000E+00  0.1298E+17
   -0.139992    1.05647  0.0000E+00  0.1498E-10  0.1937E-14  0.1000E-09  0.0000E+00  0.1151E+17
   -0.174991    1.30677  0.0000E+00  0.2416E-10  0.3014E-14  0.1000E-09  0.0000E+00  0.1012E+17
   -0.209990    1.54913  0.0000E+00  0.3850E-10  0.4693E-14  0.1000E-09  0.0000E+00  0.8825E+16
   -0.244989    1.78303  0.0000E+00  0.6088E-10  0.7285E-14  0.1000E-09  0.0000E+00  0.7622E+16
   -0.279988    2.00807  0.0000E+00  0.9575E-10  0.1127E-13  0.1000E-09  0.0000E+00  0.6515E+16
   -0.314988    2.22388  0.0000E+00  0.1508E-09  0.1747E-13  0.1000E-09  0.0000E+00  0.5553E+16
   -0.349988    2.43205  0.0000E+00  0.2384E-09  0.2720E-13  0.1000E-09  0.0000E+00  0.4668E+16
   -0.384988    2.63228  0.0000E+00  0.3773E-09  0.4242E-13  0.1000E-09  0.0000E+00  0.3855E+16
   -0.419988    2.82399  0.0000E+00  0.5951E-09  0.6594E-13  0.1000E-09  0.0000E+00  0.3121E+16
   -0.454989    3.00687  0.0000E+00  0.9351E-09  0.1021E-12  0.1079E-09  0.0000E+00  0.2475E+16
   -0.489989    3.18150  0.0000E+00  0.1465E-08  0.1577E-12  0.2139E-09  0.0000E+00  0.1915E+16
   -0.524990    3.34909  0.0000E+00  0.2381E-08  0.2524E-12  0.4476E-09  0.0000E+00  0.1466E+16
   -0.559990    3.51668  0.0000E+00  0.4050E-08  0.4227E-12  0.1061E-08  0.0000E+00  0.1038E+16
   -0.594991    3.68822  0.0000E+00  0.7299E-08  0.7503E-12  0.3399E-08  0.0000E+00  0.5780E+15
   -0.629992    3.86220  0.0000E+00  0.1201E-07  0.1220E-11  0.2761E-07  0.0000E+00  0.1189E+15
   -0.664993    4.00473  0.0000E+00  0.1249E-07  0.1272E-11  0.4652E-04  0.0000E+00 -0.1462E+12
   -0.699994    4.00523  0.0000E+00  0.1273E-07  0.1301E-11  0.4547E-04  0.0000E+00 -0.1506E+12
   -0.734994    4.00573  0.0000E+00  0.1296E-07  0.1333E-11  0.4580E-04  0.0000E+00 -0.1521E+12
   -0.769995    4.00623  0.0000E+00  0.1318E-07  0.1368E-11  0.4615E-04  0.0000E+00 -0.1569E+12
   -0.804996    4.00673  0.0000E+00  0.1339E-07  0.1406E-11  0.4634E-04  0.0000E+00 -0.1622E+12
   -0.839997    4.00723  0.0000E+00  0.1360E-07  0.1448E-11  0.4639E-04  0.0000E+00 -0.1680E+12
   -0.874998    4.00774  0.0000E+00  0.1380E-07  0.1494E-11  0.4628E-04  0.0000E+00 -0.1751E+12
   -0.909998    4.00825  0.0000E+00  0.1398E-07  0.1545E-11  0.4600E-04  0.0000E+00 -0.1813E+12
   -0.944999    4.00878  0.0000E+00  0.1415E-07  0.1602E-11  0.4555E-04  0.0000E+00 -0.1880E+12
   -0.979999    4.00931  0.0000E+00  0.1431E-07  0.1664E-11  0.4490E-04  0.0000E+00 -0.1959E+12
   -1.014999    4.00985  0.0000E+00  0.1446E-07  0.1736E-11  0.4408E-04  0.0000E+00 -0.2089E+12
   -1.049999    4.01041  0.0000E+00  0.1460E-07  0.1820E-11  0.4300E-04  0.0000E+00 -0.2259E+12
   -1.084999    4.01100  0.0000E+00  0.1472E-07  0.1921E-11  0.4168E-04  0.0000E+00 -0.2460E+12
   -1.119999    4.01163  0.0000E+00  0.1483E-07  0.2043E-11  0.3998E-04  0.0000E+00 -0.2645E+12
   -1.154998    4.01229  0.0000E+00  0.1492E-07  0.2191E-11  0.3795E-04  0.0000E+00 -0.2877E+12
   -1.189998    4.01299  0.0000E+00  0.1499E-07  0.2378E-11  0.3547E-04  0.0000E+00 -0.3232E+12
   -1.224997    4.01375  0.0000E+00  0.1504E-07  0.2647E-11  0.3248E-04  0.0000E+00 -0.4039E+12
   -1.259995    4.01468  0.0000E+00  0.1504E-07  0.3099E-11  0.2827E-04  0.0000E+00 -0.5888E+12
   -1.294994    4.01597  0.0000E+00  0.1488E-07  0.4178E-11  0.2186E-04  0.0000E+00 -0.1079E+13
   -1.329992    4.01822  0.0000E+00  0.1410E-07  0.7018E-11  0.8153E-05  0.0000E+00 -0.3032E+13
   -1.364990    4.02381  0.0000E+00  0.1022E-07  0.2140E-10  0.9110E-06  0.0000E+00 -0.3353E+14
   -1.399987    4.06175  0.0000E+00  0.0000E+00  0.0000E+00  0.0000E+00  0.0000E+00  0.0000E+00
