 1 - depth, m
 2 - temperature, C
 3 - salinity, kg/kg
 4 - turbulent kinetic energy, m**2/s**2
 5 - dissipation rate, m**2/s**3
 6 - kinematic heat conductance, m**2/s
 7 - modulus of horizontal velocity, m/s
 8 - Richardson number, n/d
   -0.000000    0.00000  0.0000E+00  0.4702E-13  0.1132E-15  0.1000E-09  0.0000E+00  0.7034E+16
   -0.034998    0.10706  0.0000E+00  0.4702E-13  0.1132E-15  0.1000E-09  0.0000E+00  0.6858E+16
   -0.069996    0.21455  0.0000E+00  0.4702E-13  0.1132E-15  0.1000E-09  0.0000E+00  0.6679E+16
   -0.104994    0.32247  0.0000E+00  0.4702E-13  0.1132E-15  0.1000E-09  0.0000E+00  0.6441E+16
   -0.139993    0.42985  0.0000E+00  0.4702E-13  0.1132E-15  0.1000E-09  0.0000E+00  0.6174E+16
   -0.174992    0.53611  0.0000E+00  0.4702E-13  0.1132E-15  0.1000E-09  0.0000E+00  0.5911E+16
   -0.209991    0.64120  0.0000E+00  0.4702E-13  0.1132E-15  0.1000E-09  0.0000E+00  0.5651E+16
   -0.244991    0.74503  0.0000E+00  0.4702E-13  0.1132E-15  0.1000E-09  0.0000E+00  0.5394E+16
   -0.279990    0.84752  0.0000E+00  0.4702E-13  0.1132E-15  0.1000E-09  0.0000E+00  0.5142E+16
   -0.314990    0.94862  0.0000E+00  0.4702E-13  0.1132E-15  0.1000E-09  0.0000E+00  0.4945E+16
   -0.349990    1.04929  0.0000E+00  0.4702E-13  0.1132E-15  0.1000E-09  0.0000E+00  0.4754E+16
   -0.384991    1.14961  0.0000E+00  0.4702E-13  0.1132E-15  0.1000E-09  0.0000E+00  0.4562E+16
   -0.419991    1.24950  0.0000E+00  0.4702E-13  0.1132E-15  0.1000E-09  0.0000E+00  0.4359E+16
   -0.454992    1.34865  0.0000E+00  0.4702E-13  0.1132E-15  0.1000E-09  0.0000E+00  0.4169E+16
   -0.489993    1.44728  0.0000E+00  0.4702E-13  0.1132E-15  0.1000E-09  0.0000E+00  0.4031E+16
   -0.524993    1.54658  0.0000E+00  0.4702E-13  0.1132E-15  0.1000E-09  0.0000E+00  0.4136E+16
   -0.559994    1.65304  0.0000E+00  0.4702E-13  0.1132E-15  0.1000E-09  0.0000E+00  0.4406E+16
   -0.594995    1.77229  0.0000E+00  0.4702E-13  0.1132E-15  0.1000E-09  0.0000E+00  0.4647E+16
   -0.629996    1.90577  0.0000E+00  0.4702E-13  0.1132E-15  0.1000E-09  0.0000E+00  0.4269E+16
   -0.664997    2.03670  0.0000E+00  0.4702E-13  0.1132E-15  0.1000E-09  0.0000E+00  0.3903E+16
   -0.699998    2.16492  0.0000E+00  0.4702E-13  0.1132E-15  0.1000E-09  0.0000E+00  0.3558E+16
   -0.735000    2.29050  0.0000E+00  0.4702E-13  0.1132E-15  0.1000E-09  0.0000E+00  0.3253E+16
   -0.770001    2.41430  0.0000E+00  0.4702E-13  0.1132E-15  0.1000E-09  0.0000E+00  0.2998E+16
   -0.805002    2.53800  0.0000E+00  0.4702E-13  0.1132E-15  0.1000E-09  0.0000E+00  0.2736E+16
   -0.840003    2.66117  0.0000E+00  0.4702E-13  0.1132E-15  0.1000E-09  0.0000E+00  0.2473E+16
   -0.875004    2.78356  0.0000E+00  0.4702E-13  0.1132E-15  0.1000E-09  0.0000E+00  0.2216E+16
   -0.910004    2.90520  0.0000E+00  0.7732E-13  0.1132E-15  0.1000E-09  0.0000E+00  0.1940E+16
   -0.945005    3.02448  0.0000E+00  0.3008E-12  0.2405E-15  0.1000E-09  0.0000E+00  0.1669E+16
   -0.980006    3.14071  0.0000E+00  0.9490E-12  0.6848E-15  0.1000E-09  0.0000E+00  0.1413E+16
   -1.015006    3.25355  0.0000E+00  0.2837E-11  0.1969E-14  0.1000E-09  0.0000E+00  0.1192E+16
   -1.050006    3.36471  0.0000E+00  0.8376E-11  0.5640E-14  0.1000E-09  0.0000E+00  0.9890E+15
   -1.085007    3.47519  0.0000E+00  0.2459E-10  0.1609E-13  0.1000E-09  0.0000E+00  0.8275E+15
   -1.120006    3.59089  0.0000E+00  0.7084E-10  0.4508E-13  0.1865E-09  0.0000E+00  0.6170E+15
   -1.155006    3.70702  0.0000E+00  0.2017E-09  0.1250E-12  0.7822E-09  0.0000E+00  0.4051E+15
   -1.190006    3.82364  0.0000E+00  0.5707E-09  0.3451E-12  0.4462E-08  0.0000E+00  0.1921E+15
   -1.225005    3.94176  0.0000E+00  0.1619E-08  0.9640E-12  0.1437E-06  0.0000E+00  0.9703E+13
   -1.260004    4.01369  0.0000E+00  0.3730E-08  0.2415E-11  0.2238E-05  0.0000E+00 -0.6167E+13
   -1.295003    4.02552  0.0000E+00  0.5543E-08  0.4411E-11  0.2938E-05  0.0000E+00 -0.9627E+13
   -1.330001    4.03891  0.0000E+00  0.6291E-08  0.6939E-11  0.2028E-05  0.0000E+00 -0.1715E+14
   -1.364999    4.05672  0.0000E+00  0.5438E-08  0.1318E-10  0.5843E-06  0.0000E+00 -0.6766E+14
   -1.399997    4.10297  0.0000E+00  0.0000E+00  0.0000E+00  0.0000E+00  0.0000E+00  0.0000E+00
