 1 - depth, m
 2 - temperature, C
 3 - salinity, kg/kg
 4 - turbulent kinetic energy, m**2/s**2
 5 - dissipation rate, m**2/s**3
 6 - kinematic heat conductance, m**2/s
 7 - modulus of horizontal velocity, m/s
 8 - Richardson number, n/d
   -0.000000    0.00000  0.0000E+00  0.5535E-12  0.1546E-15  0.1000E-09  0.0000E+00  0.1470E+17
   -0.034997    0.22739  0.0000E+00  0.8079E-12  0.1665E-15  0.1000E-09  0.0000E+00  0.1361E+17
   -0.069995    0.45194  0.0000E+00  0.1342E-11  0.2315E-15  0.1000E-09  0.0000E+00  0.1258E+17
   -0.104993    0.67374  0.0000E+00  0.2268E-11  0.3590E-15  0.1000E-09  0.0000E+00  0.1150E+17
   -0.139992    0.89121  0.0000E+00  0.3804E-11  0.5765E-15  0.1000E-09  0.0000E+00  0.1043E+17
   -0.174991    1.10350  0.0000E+00  0.6323E-11  0.9326E-15  0.1000E-09  0.0000E+00  0.9433E+16
   -0.209990    1.31066  0.0000E+00  0.1043E-10  0.1507E-14  0.1000E-09  0.0000E+00  0.8493E+16
   -0.244989    1.51267  0.0000E+00  0.1711E-10  0.2428E-14  0.1000E-09  0.0000E+00  0.7611E+16
   -0.279988    1.70953  0.0000E+00  0.2793E-10  0.3897E-14  0.1000E-09  0.0000E+00  0.6782E+16
   -0.314988    1.90121  0.0000E+00  0.4567E-10  0.6267E-14  0.1000E-09  0.0000E+00  0.6041E+16
   -0.349988    2.08878  0.0000E+00  0.7497E-10  0.1012E-13  0.1000E-09  0.0000E+00  0.5340E+16
   -0.384988    2.27216  0.0000E+00  0.1231E-09  0.1636E-13  0.1000E-09  0.0000E+00  0.4675E+16
   -0.419988    2.45114  0.0000E+00  0.2014E-09  0.2633E-13  0.1000E-09  0.0000E+00  0.4055E+16
   -0.454988    2.62587  0.0000E+00  0.3280E-09  0.4220E-13  0.1000E-09  0.0000E+00  0.3488E+16
   -0.489989    2.79701  0.0000E+00  0.5325E-09  0.6745E-13  0.1000E-09  0.0000E+00  0.2973E+16
   -0.524989    2.96580  0.0000E+00  0.8977E-09  0.1119E-12  0.1126E-09  0.0000E+00  0.2574E+16
   -0.559990    3.13919  0.0000E+00  0.1585E-08  0.1943E-12  0.2297E-09  0.0000E+00  0.2192E+16
   -0.594991    3.32220  0.0000E+00  0.2968E-08  0.3578E-12  0.5356E-09  0.0000E+00  0.1732E+16
   -0.629991    3.51525  0.0000E+00  0.5098E-08  0.6060E-12  0.1422E-08  0.0000E+00  0.1105E+16
   -0.664992    3.70053  0.0000E+00  0.8323E-08  0.9761E-12  0.4656E-08  0.0000E+00  0.5444E+15
   -0.699993    3.87499  0.0000E+00  0.1310E-07  0.1519E-11  0.4281E-07  0.0000E+00  0.9366E+14
   -0.734994    4.00820  0.0000E+00  0.1366E-07  0.1586E-11  0.4475E-04  0.0000E+00 -0.1863E+12
   -0.769995    4.00874  0.0000E+00  0.1393E-07  0.1625E-11  0.4387E-04  0.0000E+00 -0.1967E+12
   -0.804995    4.00929  0.0000E+00  0.1420E-07  0.1668E-11  0.4422E-04  0.0000E+00 -0.2020E+12
   -0.839996    4.00985  0.0000E+00  0.1445E-07  0.1715E-11  0.4450E-04  0.0000E+00 -0.2077E+12
   -0.874997    4.01041  0.0000E+00  0.1469E-07  0.1766E-11  0.4463E-04  0.0000E+00 -0.2148E+12
   -0.909997    4.01097  0.0000E+00  0.1491E-07  0.1823E-11  0.4456E-04  0.0000E+00 -0.2210E+12
   -0.944998    4.01154  0.0000E+00  0.1512E-07  0.1886E-11  0.4432E-04  0.0000E+00 -0.2277E+12
   -0.979998    4.01211  0.0000E+00  0.1531E-07  0.1956E-11  0.4387E-04  0.0000E+00 -0.2357E+12
   -1.014998    4.01268  0.0000E+00  0.1548E-07  0.2035E-11  0.4324E-04  0.0000E+00 -0.2496E+12
   -1.049998    4.01328  0.0000E+00  0.1565E-07  0.2128E-11  0.4233E-04  0.0000E+00 -0.2678E+12
   -1.084998    4.01391  0.0000E+00  0.1579E-07  0.2240E-11  0.4119E-04  0.0000E+00 -0.2897E+12
   -1.119998    4.01457  0.0000E+00  0.1592E-07  0.2375E-11  0.3966E-04  0.0000E+00 -0.3096E+12
   -1.154997    4.01526  0.0000E+00  0.1602E-07  0.2539E-11  0.3779E-04  0.0000E+00 -0.3347E+12
   -1.189996    4.01599  0.0000E+00  0.1610E-07  0.2746E-11  0.3546E-04  0.0000E+00 -0.3734E+12
   -1.224995    4.01678  0.0000E+00  0.1615E-07  0.3042E-11  0.3260E-04  0.0000E+00 -0.4615E+12
   -1.259994    4.01774  0.0000E+00  0.1616E-07  0.3539E-11  0.2852E-04  0.0000E+00 -0.6625E+12
   -1.294993    4.01906  0.0000E+00  0.1598E-07  0.4717E-11  0.2226E-04  0.0000E+00 -0.1186E+13
   -1.329991    4.02130  0.0000E+00  0.1515E-07  0.7777E-11  0.8483E-05  0.0000E+00 -0.3222E+13
   -1.364988    4.02676  0.0000E+00  0.1099E-07  0.2333E-10  0.9572E-06  0.0000E+00 -0.3404E+14
   -1.399986    4.06368  0.0000E+00  0.0000E+00  0.0000E+00  0.0000E+00  0.0000E+00  0.0000E+00
