 1 - depth, m
 2 - temperature, C
 3 - salinity, kg/kg
 4 - turbulent kinetic energy, m**2/s**2
 5 - dissipation rate, m**2/s**3
 6 - kinematic heat conductance, m**2/s
 7 - modulus of horizontal velocity, m/s
 8 - Richardson number, n/d
   -0.000000    0.00000  0.0000E+00  0.4702E-13  0.1132E-15  0.1000E-09  0.0000E+00  0.1367E+17
   -0.034997    0.21098  0.0000E+00  0.5813E-13  0.1132E-15  0.1000E-09  0.0000E+00  0.1267E+17
   -0.069995    0.41853  0.0000E+00  0.2572E-12  0.1132E-15  0.1000E-09  0.0000E+00  0.1174E+17
   -0.104993    0.62296  0.0000E+00  0.6470E-12  0.1378E-15  0.1000E-09  0.0000E+00  0.1079E+17
   -0.139992    0.82321  0.0000E+00  0.1272E-11  0.2086E-15  0.1000E-09  0.0000E+00  0.9867E+16
   -0.174990    1.01871  0.0000E+00  0.2255E-11  0.3336E-15  0.1000E-09  0.0000E+00  0.8998E+16
   -0.209989    1.20961  0.0000E+00  0.3811E-11  0.5374E-15  0.1000E-09  0.0000E+00  0.8183E+16
   -0.244989    1.39601  0.0000E+00  0.6287E-11  0.8625E-15  0.1000E-09  0.0000E+00  0.7418E+16
   -0.279988    1.57800  0.0000E+00  0.1024E-10  0.1377E-14  0.1000E-09  0.0000E+00  0.6701E+16
   -0.314988    1.75566  0.0000E+00  0.1666E-10  0.2202E-14  0.1000E-09  0.0000E+00  0.6055E+16
   -0.349988    1.92988  0.0000E+00  0.2718E-10  0.3534E-14  0.1000E-09  0.0000E+00  0.5444E+16
   -0.384988    2.10072  0.0000E+00  0.4434E-10  0.5678E-14  0.1000E-09  0.0000E+00  0.4863E+16
   -0.419988    2.26810  0.0000E+00  0.7206E-10  0.9090E-14  0.1000E-09  0.0000E+00  0.4322E+16
   -0.454988    2.43239  0.0000E+00  0.1166E-09  0.1450E-13  0.1000E-09  0.0000E+00  0.3826E+16
   -0.489988    2.59437  0.0000E+00  0.1883E-09  0.2306E-13  0.1000E-09  0.0000E+00  0.3378E+16
   -0.524989    2.75541  0.0000E+00  0.3157E-09  0.3807E-13  0.1000E-09  0.0000E+00  0.3055E+16
   -0.559990    2.92229  0.0000E+00  0.5547E-09  0.6587E-13  0.1000E-09  0.0000E+00  0.2765E+16
   -0.594990    3.10053  0.0000E+00  0.1034E-08  0.1209E-12  0.1310E-09  0.0000E+00  0.2392E+16
   -0.629991    3.29132  0.0000E+00  0.1772E-08  0.2045E-12  0.2988E-09  0.0000E+00  0.1773E+16
   -0.664992    3.47760  0.0000E+00  0.2890E-08  0.3294E-12  0.7139E-09  0.0000E+00  0.1195E+16
   -0.699993    3.65893  0.0000E+00  0.4621E-08  0.5199E-12  0.2037E-08  0.0000E+00  0.6612E+15
   -0.734993    3.83434  0.0000E+00  0.7314E-08  0.8124E-12  0.1166E-07  0.0000E+00  0.1805E+15
   -0.769994    3.99591  0.0000E+00  0.7934E-08  0.8849E-12  0.2475E-04  0.0000E+00 -0.1575E+12
   -0.804995    3.99691  0.0000E+00  0.8238E-08  0.9260E-12  0.2846E-04  0.0000E+00 -0.1512E+12
   -0.839996    3.99778  0.0000E+00  0.8500E-08  0.9665E-12  0.2888E-04  0.0000E+00 -0.1625E+12
   -0.874996    3.99865  0.0000E+00  0.8742E-08  0.1009E-11  0.2930E-04  0.0000E+00 -0.1743E+12
   -0.909997    3.99952  0.0000E+00  0.8980E-08  0.1057E-11  0.2956E-04  0.0000E+00 -0.1855E+12
   -0.944997    4.00039  0.0000E+00  0.9208E-08  0.1110E-11  0.2964E-04  0.0000E+00 -0.1974E+12
   -0.979997    4.00126  0.0000E+00  0.9427E-08  0.1169E-11  0.2954E-04  0.0000E+00 -0.2107E+12
   -1.014998    4.00213  0.0000E+00  0.9637E-08  0.1236E-11  0.2930E-04  0.0000E+00 -0.2294E+12
   -1.049998    4.00303  0.0000E+00  0.9840E-08  0.1314E-11  0.2887E-04  0.0000E+00 -0.2527E+12
   -1.084997    4.00397  0.0000E+00  0.1004E-07  0.1407E-11  0.2821E-04  0.0000E+00 -0.2808E+12
   -1.119997    4.00496  0.0000E+00  0.1022E-07  0.1517E-11  0.2719E-04  0.0000E+00 -0.3093E+12
   -1.154997    4.00599  0.0000E+00  0.1038E-07  0.1651E-11  0.2589E-04  0.0000E+00 -0.3452E+12
   -1.189996    4.00708  0.0000E+00  0.1053E-07  0.1817E-11  0.2426E-04  0.0000E+00 -0.3977E+12
   -1.224995    4.00827  0.0000E+00  0.1066E-07  0.2053E-11  0.2235E-04  0.0000E+00 -0.5058E+12
   -1.259993    4.00969  0.0000E+00  0.1077E-07  0.2445E-11  0.1971E-04  0.0000E+00 -0.7464E+12
   -1.294992    4.01165  0.0000E+00  0.1078E-07  0.3456E-11  0.1458E-04  0.0000E+00 -0.1469E+13
   -1.329990    4.01512  0.0000E+00  0.1022E-07  0.6098E-11  0.5271E-05  0.0000E+00 -0.4599E+13
   -1.364988    4.02396  0.0000E+00  0.7663E-08  0.1638E-10  0.7658E-06  0.0000E+00 -0.4282E+14
   -1.399985    4.06931  0.0000E+00  0.0000E+00  0.0000E+00  0.0000E+00  0.0000E+00  0.0000E+00
