 1 - depth, m
 2 - temperature, C
 3 - salinity, kg/kg
 4 - turbulent kinetic energy, m**2/s**2
 5 - dissipation rate, m**2/s**3
 6 - kinematic heat conductance, m**2/s
 7 - modulus of horizontal velocity, m/s
 8 - Richardson number, n/d
   -0.000000   -0.00029  0.0000E+00  0.2891E-03  0.3826E-03  0.7393E-04  0.2246E+00  0.9132E-02
   -0.034997    0.01030  0.0000E+00  0.1781E-03  0.1431E-03  0.1174E-03  0.7361E-01  0.5303E-02
   -0.069995    0.01790  0.0000E+00  0.1285E-03  0.5634E-04  0.1511E-03  0.4538E-01  0.9130E-02
   -0.104993    0.02173  0.0000E+00  0.1048E-03  0.3212E-04  0.1630E-03  0.3553E-01  0.2881E+01
   -0.139992    0.02433  0.0000E+00  0.8923E-04  0.1941E-04  0.1734E-03  0.2959E-01  0.7232E-02
   -0.174991    0.02634  0.0000E+00  0.7767E-04  0.1196E-04  0.1847E-03  0.2524E-01  0.5354E-02
   -0.209990    0.02806  0.0000E+00  0.6895E-04  0.7490E-05  0.1950E-03  0.2186E-01  0.1047E-01
   -0.244989    0.02967  0.0000E+00  0.6206E-04  0.4788E-05  0.2029E-03  0.1897E-01  0.7912E-02
   -0.279988    0.03126  0.0000E+00  0.5626E-04  0.3149E-05  0.2063E-03  0.1634E-01  0.1867E-01
   -0.314988    0.03304  0.0000E+00  0.5079E-04  0.2135E-05  0.2157E-03  0.1368E-01  0.2517E-01
   -0.349988    0.03466  0.0000E+00  0.4604E-04  0.1501E-05  0.2218E-03  0.1168E-01  0.1240E+00
   -0.384988    0.03625  0.0000E+00  0.4192E-04  0.1098E-05  0.2255E-03  0.1004E-01  0.8311E+00
   -0.419988    0.03775  0.0000E+00  0.3837E-04  0.8364E-06  0.2246E-03  0.8658E-02  0.3732E+01
   -0.454988    0.03947  0.0000E+00  0.3520E-04  0.6607E-06  0.2208E-03  0.7356E-02  0.1910E+02
   -0.489989    0.04165  0.0000E+00  0.3228E-04  0.5392E-06  0.2176E-03  0.6111E-02  0.5372E+03
   -0.524989    0.04475  0.0000E+00  0.2939E-04  0.4460E-06  0.2239E-03  0.4987E-02  0.7698E+04
   -0.559990    0.04658  0.0000E+00  0.2653E-04  0.3697E-06  0.2296E-03  0.4167E-02 -0.9151E+07
   -0.594991    0.04788  0.0000E+00  0.2342E-04  0.2978E-06  0.2274E-03  0.3620E-02 -0.4201E+07
   -0.629992    0.04901  0.0000E+00  0.2064E-04  0.2403E-06  0.2134E-03  0.3292E-02 -0.3768E+08
   -0.664992    0.05042  0.0000E+00  0.1822E-04  0.1954E-06  0.1996E-03  0.2963E-02  0.3306E+08
   -0.699993    0.05212  0.0000E+00  0.1610E-04  0.1599E-06  0.1859E-03  0.2644E-02  0.4334E+09
   -0.734994    0.05412  0.0000E+00  0.1423E-04  0.1314E-06  0.1722E-03  0.2342E-02  0.2035E+08
   -0.769995    0.05649  0.0000E+00  0.1256E-04  0.1084E-06  0.1586E-03  0.2063E-02  0.4153E+10
   -0.804996    0.05940  0.0000E+00  0.1107E-04  0.8946E-07  0.1450E-03  0.1808E-02  0.2869E+08
   -0.839996    0.06306  0.0000E+00  0.9736E-05  0.7396E-07  0.1312E-03  0.1574E-02  0.2876E+09
   -0.874997    0.06786  0.0000E+00  0.8536E-05  0.6116E-07  0.1175E-03  0.1360E-02  0.6231E+10
   -0.909997    0.07351  0.0000E+00  0.7453E-05  0.5054E-07  0.1032E-03  0.1170E-02  0.2893E+11
   -0.944998    0.08018  0.0000E+00  0.6482E-05  0.4179E-07  0.8900E-04  0.9943E-03  0.1103E+12
   -0.979998    0.08820  0.0000E+00  0.5606E-05  0.3453E-07  0.7476E-04  0.8301E-03  0.7951E+12
   -1.014998    0.10010  0.0000E+00  0.4810E-05  0.2845E-07  0.6065E-04  0.6750E-03  0.1166E+14
   -1.049998    0.11712  0.0000E+00  0.4069E-05  0.2323E-07  0.4633E-04  0.5382E-03  0.6257E+14
   -1.084998    0.15230  0.0000E+00  0.3359E-05  0.1860E-07  0.3301E-04  0.4192E-03  0.4988E+15
   -1.119998    0.25875  0.0000E+00  0.2633E-05  0.1418E-07  0.2117E-04  0.3162E-03  0.1682E+16
   -1.154997    0.57317  0.0000E+00  0.1928E-05  0.1010E-07  0.1161E-04  0.2123E-03  0.1699E+16
   -1.189997    1.14174  0.0000E+00  0.1305E-05  0.6626E-08  0.3934E-05  0.1234E-03  0.7849E+15
   -1.224996    1.83517  0.0000E+00  0.7116E-06  0.3480E-08  0.4316E-05  0.4908E-04  0.9510E+15
   -1.259994    2.41247  0.0000E+00  0.2457E-06  0.1164E-08  0.5147E-05  0.6121E-05  0.2534E+16
   -1.294993    3.14184  0.0000E+00  0.7723E-07  0.3185E-09  0.5665E-05  0.3519E-06  0.2414E+16
   -1.329991    3.78392  0.0000E+00  0.4082E-07  0.1367E-09  0.4152E-05  0.4194E-07  0.3158E+15
   -1.364989    4.16027  0.0000E+00  0.3054E-07  0.1581E-09  0.1557E-05  0.8691E-08 -0.7800E+14
   -1.399986    4.22563  0.0000E+00  0.0000E+00  0.0000E+00  0.0000E+00  0.1011E-07  0.0000E+00
