 1 - depth, m
 2 - temperature, C
 3 - salinity, kg/kg
 4 - turbulent kinetic energy, m**2/s**2
 5 - dissipation rate, m**2/s**3
 6 - kinematic heat conductance, m**2/s
 7 - modulus of horizontal velocity, m/s
 8 - Richardson number, n/d
   -0.000000    0.00000  0.0000E+00  0.2018E-11  0.6981E-15  0.1000E-09  0.0000E+00  0.1682E+17
   -0.034997    0.26143  0.0000E+00  0.3165E-11  0.6910E-15  0.1000E-09  0.0000E+00  0.1541E+17
   -0.069995    0.51933  0.0000E+00  0.5472E-11  0.9155E-15  0.1000E-09  0.0000E+00  0.1406E+17
   -0.104993    0.77386  0.0000E+00  0.9332E-11  0.1380E-14  0.1000E-09  0.0000E+00  0.1266E+17
   -0.139991    1.02275  0.0000E+00  0.1554E-10  0.2167E-14  0.1000E-09  0.0000E+00  0.1128E+17
   -0.174990    1.26466  0.0000E+00  0.2545E-10  0.3436E-14  0.1000E-09  0.0000E+00  0.9994E+16
   -0.209989    1.49955  0.0000E+00  0.4123E-10  0.5444E-14  0.1000E-09  0.0000E+00  0.8797E+16
   -0.244988    1.72733  0.0000E+00  0.6632E-10  0.8601E-14  0.1000E-09  0.0000E+00  0.7685E+16
   -0.279987    1.94790  0.0000E+00  0.1061E-09  0.1354E-13  0.1000E-09  0.0000E+00  0.6657E+16
   -0.314986    2.16117  0.0000E+00  0.1701E-09  0.2137E-13  0.1000E-09  0.0000E+00  0.5722E+16
   -0.349986    2.36752  0.0000E+00  0.2737E-09  0.3387E-13  0.1000E-09  0.0000E+00  0.4855E+16
   -0.384986    2.56662  0.0000E+00  0.4411E-09  0.5376E-13  0.1000E-09  0.0000E+00  0.4056E+16
   -0.419986    2.75809  0.0000E+00  0.7082E-09  0.8505E-13  0.1000E-09  0.0000E+00  0.3353E+16
   -0.454986    2.94316  0.0000E+00  0.1133E-08  0.1341E-12  0.1271E-09  0.0000E+00  0.2732E+16
   -0.489986    3.12342  0.0000E+00  0.1807E-08  0.2108E-12  0.2517E-09  0.0000E+00  0.2170E+16
   -0.524987    3.30007  0.0000E+00  0.2991E-08  0.3437E-12  0.5256E-09  0.0000E+00  0.1694E+16
   -0.559987    3.47968  0.0000E+00  0.5186E-08  0.5868E-12  0.1249E-08  0.0000E+00  0.1217E+16
   -0.594988    3.66640  0.0000E+00  0.9525E-08  0.1062E-11  0.4073E-08  0.0000E+00  0.6752E+15
   -0.629988    3.85804  0.0000E+00  0.1587E-07  0.1749E-11  0.3631E-07  0.0000E+00  0.1247E+15
   -0.664989    4.00992  0.0000E+00  0.1643E-07  0.1815E-11  0.5499E-04  0.0000E+00 -0.1790E+12
   -0.699990    4.01039  0.0000E+00  0.1671E-07  0.1852E-11  0.5366E-04  0.0000E+00 -0.1848E+12
   -0.734990    4.01088  0.0000E+00  0.1697E-07  0.1892E-11  0.5400E-04  0.0000E+00 -0.1868E+12
   -0.769991    4.01136  0.0000E+00  0.1723E-07  0.1937E-11  0.5433E-04  0.0000E+00 -0.1919E+12
   -0.804992    4.01184  0.0000E+00  0.1748E-07  0.1985E-11  0.5449E-04  0.0000E+00 -0.1975E+12
   -0.839992    4.01233  0.0000E+00  0.1771E-07  0.2039E-11  0.5449E-04  0.0000E+00 -0.2038E+12
   -0.874993    4.01283  0.0000E+00  0.1794E-07  0.2098E-11  0.5433E-04  0.0000E+00 -0.2114E+12
   -0.909993    4.01333  0.0000E+00  0.1815E-07  0.2164E-11  0.5398E-04  0.0000E+00 -0.2183E+12
   -0.944993    4.01384  0.0000E+00  0.1834E-07  0.2236E-11  0.5345E-04  0.0000E+00 -0.2257E+12
   -0.979994    4.01436  0.0000E+00  0.1852E-07  0.2317E-11  0.5270E-04  0.0000E+00 -0.2345E+12
   -1.014994    4.01489  0.0000E+00  0.1868E-07  0.2408E-11  0.5174E-04  0.0000E+00 -0.2490E+12
   -1.049993    4.01544  0.0000E+00  0.1883E-07  0.2516E-11  0.5048E-04  0.0000E+00 -0.2677E+12
   -1.084993    4.01602  0.0000E+00  0.1897E-07  0.2646E-11  0.4897E-04  0.0000E+00 -0.2892E+12
   -1.119993    4.01664  0.0000E+00  0.1908E-07  0.2802E-11  0.4706E-04  0.0000E+00 -0.3090E+12
   -1.154992    4.01728  0.0000E+00  0.1917E-07  0.2992E-11  0.4480E-04  0.0000E+00 -0.3338E+12
   -1.189991    4.01796  0.0000E+00  0.1923E-07  0.3232E-11  0.4201E-04  0.0000E+00 -0.3713E+12
   -1.224990    4.01870  0.0000E+00  0.1926E-07  0.3574E-11  0.3854E-04  0.0000E+00 -0.4548E+12
   -1.259988    4.01959  0.0000E+00  0.1923E-07  0.4151E-11  0.3356E-04  0.0000E+00 -0.6438E+12
   -1.294987    4.02080  0.0000E+00  0.1899E-07  0.5522E-11  0.2619E-04  0.0000E+00 -0.1130E+13
   -1.329985    4.02283  0.0000E+00  0.1803E-07  0.9133E-11  0.1001E-04  0.0000E+00 -0.3060E+13
   -1.364982    4.02784  0.0000E+00  0.1317E-07  0.2854E-10  0.1096E-05  0.0000E+00 -0.3386E+14
   -1.399980    4.06409  0.0000E+00  0.0000E+00  0.0000E+00  0.0000E+00  0.0000E+00  0.0000E+00
