 1 - depth, m
 2 - temperature, C
 3 - salinity, kg/kg
 4 - turbulent kinetic energy, m**2/s**2
 5 - dissipation rate, m**2/s**3
 6 - kinematic heat conductance, m**2/s
 7 - modulus of horizontal velocity, m/s
 8 - Richardson number, n/d
   -0.000000    0.00000  0.0000E+00  0.4702E-13  0.1132E-15  0.1000E-09  0.0000E+00  0.1052E+17
   -0.034998    0.16130  0.0000E+00  0.4702E-13  0.1132E-15  0.1000E-09  0.0000E+00  0.1024E+17
   -0.069996    0.32556  0.0000E+00  0.4702E-13  0.1132E-15  0.1000E-09  0.0000E+00  0.9927E+16
   -0.104995    0.49268  0.0000E+00  0.4702E-13  0.1132E-15  0.1000E-09  0.0000E+00  0.9429E+16
   -0.139994    0.65966  0.0000E+00  0.4702E-13  0.1132E-15  0.1000E-09  0.0000E+00  0.8842E+16
   -0.174993    0.82470  0.0000E+00  0.4702E-13  0.1132E-15  0.1000E-09  0.0000E+00  0.8266E+16
   -0.209993    0.98766  0.0000E+00  0.4702E-13  0.1132E-15  0.1000E-09  0.0000E+00  0.7706E+16
   -0.244992    1.14843  0.0000E+00  0.4702E-13  0.1132E-15  0.1000E-09  0.0000E+00  0.7162E+16
   -0.279992    1.30694  0.0000E+00  0.4702E-13  0.1132E-15  0.1000E-09  0.0000E+00  0.6637E+16
   -0.314992    1.46312  0.0000E+00  0.5804E-13  0.1132E-15  0.1000E-09  0.0000E+00  0.6064E+16
   -0.349993    1.61518  0.0000E+00  0.2520E-12  0.1132E-15  0.1000E-09  0.0000E+00  0.5503E+16
   -0.384993    1.76252  0.0000E+00  0.6515E-12  0.1707E-15  0.1000E-09  0.0000E+00  0.4961E+16
   -0.419994    1.90464  0.0000E+00  0.1364E-11  0.3025E-15  0.1000E-09  0.0000E+00  0.4536E+16
   -0.454995    2.04398  0.0000E+00  0.2632E-11  0.5483E-15  0.1000E-09  0.0000E+00  0.4193E+16
   -0.489996    2.18265  0.0000E+00  0.4907E-11  0.9906E-15  0.1000E-09  0.0000E+00  0.3863E+16
   -0.524997    2.32094  0.0000E+00  0.9446E-11  0.1863E-14  0.1000E-09  0.0000E+00  0.3559E+16
   -0.559998    2.45972  0.0000E+00  0.1896E-10  0.3665E-14  0.1000E-09  0.0000E+00  0.3259E+16
   -0.594999    2.59926  0.0000E+00  0.4024E-10  0.7634E-14  0.1000E-09  0.0000E+00  0.2937E+16
   -0.630000    2.73862  0.0000E+00  0.7692E-10  0.1436E-13  0.1000E-09  0.0000E+00  0.2579E+16
   -0.665001    2.87566  0.0000E+00  0.1400E-09  0.2572E-13  0.1000E-09  0.0000E+00  0.2239E+16
   -0.700003    3.01042  0.0000E+00  0.2503E-09  0.4526E-13  0.1000E-09  0.0000E+00  0.1915E+16
   -0.735004    3.14291  0.0000E+00  0.4458E-09  0.7929E-13  0.1259E-09  0.0000E+00  0.1634E+16
   -0.770005    3.27552  0.0000E+00  0.7920E-09  0.1385E-12  0.2554E-09  0.0000E+00  0.1406E+16
   -0.805007    3.41404  0.0000E+00  0.1404E-08  0.2415E-12  0.5487E-09  0.0000E+00  0.1142E+16
   -0.840008    3.55875  0.0000E+00  0.2477E-08  0.4194E-12  0.1301E-08  0.0000E+00  0.8378E+15
   -0.875009    3.70983  0.0000E+00  0.4357E-08  0.7260E-12  0.3887E-08  0.0000E+00  0.4877E+15
   -0.910010    3.86641  0.0000E+00  0.7537E-08  0.1238E-11  0.3041E-07  0.0000E+00  0.1107E+15
   -0.945011    4.00495  0.0000E+00  0.8571E-08  0.1416E-11  0.1953E-04  0.0000E+00 -0.3707E+12
   -0.980012    4.00621  0.0000E+00  0.9065E-08  0.1517E-11  0.2133E-04  0.0000E+00 -0.3703E+12
   -1.015012    4.00738  0.0000E+00  0.9493E-08  0.1622E-11  0.2231E-04  0.0000E+00 -0.3928E+12
   -1.050013    4.00855  0.0000E+00  0.9875E-08  0.1735E-11  0.2279E-04  0.0000E+00 -0.4284E+12
   -1.085013    4.00976  0.0000E+00  0.1022E-07  0.1862E-11  0.2281E-04  0.0000E+00 -0.4659E+12
   -1.120013    4.01100  0.0000E+00  0.1054E-07  0.2011E-11  0.2243E-04  0.0000E+00 -0.5036E+12
   -1.155013    4.01228  0.0000E+00  0.1084E-07  0.2191E-11  0.2172E-04  0.0000E+00 -0.5534E+12
   -1.190013    4.01361  0.0000E+00  0.1111E-07  0.2424E-11  0.2050E-04  0.0000E+00 -0.6340E+12
   -1.225013    4.01507  0.0000E+00  0.1136E-07  0.2763E-11  0.1899E-04  0.0000E+00 -0.8029E+12
   -1.260012    4.01681  0.0000E+00  0.1159E-07  0.3312E-11  0.1698E-04  0.0000E+00 -0.1168E+13
   -1.295011    4.01918  0.0000E+00  0.1172E-07  0.4624E-11  0.1263E-04  0.0000E+00 -0.2288E+13
   -1.330009    4.02338  0.0000E+00  0.1117E-07  0.7719E-11  0.5094E-05  0.0000E+00 -0.6302E+13
   -1.365008    4.03301  0.0000E+00  0.8497E-08  0.1916E-10  0.8281E-06  0.0000E+00 -0.4946E+14
   -1.400006    4.07851  0.0000E+00  0.0000E+00  0.0000E+00  0.0000E+00  0.0000E+00  0.0000E+00
