 1 - depth, m
 2 - temperature, C
 3 - salinity, kg/kg
 4 - turbulent kinetic energy, m**2/s**2
 5 - dissipation rate, m**2/s**3
 6 - kinematic heat conductance, m**2/s
 7 - modulus of horizontal velocity, m/s
 8 - Richardson number, n/d
   -0.000000    0.00000  0.0000E+00  0.2690E-09  0.3073E-12  0.1000E-09  0.0000E+00  0.3394E+17
   -0.034999    0.54961  0.0000E+00  0.7721E-09  0.2257E-12  0.1000E-09  0.0000E+00  0.2847E+17
   -0.069997    1.09605  0.0000E+00  0.1646E-08  0.2399E-12  0.1000E-09  0.0000E+00  0.2276E+17
   -0.104997    1.62752  0.0000E+00  0.2909E-08  0.3042E-12  0.1000E-09  0.0000E+00  0.1721E+17
   -0.139996    2.13298  0.0000E+00  0.4652E-08  0.4135E-12  0.1194E-09  0.0000E+00  0.1222E+17
   -0.174996    2.60398  0.0000E+00  0.7038E-08  0.5746E-12  0.2044E-09  0.0000E+00  0.7999E+16
   -0.209996    3.03467  0.0000E+00  0.1030E-07  0.8009E-12  0.5089E-09  0.0000E+00  0.4620E+16
   -0.244996    3.42028  0.0000E+00  0.1476E-07  0.1112E-11  0.2099E-08  0.0000E+00  0.2084E+16
   -0.279997    3.75430  0.0000E+00  0.1829E-07  0.1360E-11  0.2617E-04  0.0000E+00  0.5851E+15
   -0.314997    3.94704  0.0000E+00  0.1971E-07  0.1462E-11  0.6489E-04  0.0000E+00  0.6615E+14
   -0.349998    3.99714  0.0000E+00  0.1991E-07  0.1479E-11  0.8509E-04  0.0000E+00 -0.7036E+11
   -0.384999    3.99760  0.0000E+00  0.2007E-07  0.1494E-11  0.8619E-04  0.0000E+00 -0.7200E+11
   -0.420000    3.99804  0.0000E+00  0.2022E-07  0.1511E-11  0.8771E-04  0.0000E+00 -0.7333E+11
   -0.455002    3.99845  0.0000E+00  0.2037E-07  0.1529E-11  0.8919E-04  0.0000E+00 -0.7510E+11
   -0.490003    3.99886  0.0000E+00  0.2052E-07  0.1548E-11  0.9053E-04  0.0000E+00 -0.7775E+11
   -0.525005    3.99925  0.0000E+00  0.2068E-07  0.1572E-11  0.9124E-04  0.0000E+00 -0.8395E+11
   -0.560007    3.99966  0.0000E+00  0.2088E-07  0.1603E-11  0.9069E-04  0.0000E+00 -0.9574E+11
   -0.595008    4.00011  0.0000E+00  0.2115E-07  0.1650E-11  0.9015E-04  0.0000E+00 -0.1084E+12
   -0.630010    4.00061  0.0000E+00  0.2143E-07  0.1701E-11  0.8981E-04  0.0000E+00 -0.1133E+12
   -0.665012    4.00111  0.0000E+00  0.2170E-07  0.1755E-11  0.8925E-04  0.0000E+00 -0.1185E+12
   -0.700014    4.00161  0.0000E+00  0.2196E-07  0.1812E-11  0.8857E-04  0.0000E+00 -0.1244E+12
   -0.735016    4.00213  0.0000E+00  0.2222E-07  0.1873E-11  0.8772E-04  0.0000E+00 -0.1311E+12
   -0.770017    4.00265  0.0000E+00  0.2247E-07  0.1939E-11  0.8675E-04  0.0000E+00 -0.1380E+12
   -0.805019    4.00318  0.0000E+00  0.2272E-07  0.2010E-11  0.8561E-04  0.0000E+00 -0.1457E+12
   -0.840021    4.00373  0.0000E+00  0.2297E-07  0.2087E-11  0.8432E-04  0.0000E+00 -0.1539E+12
   -0.875023    4.00428  0.0000E+00  0.2320E-07  0.2172E-11  0.8283E-04  0.0000E+00 -0.1636E+12
   -0.910024    4.00486  0.0000E+00  0.2342E-07  0.2264E-11  0.8118E-04  0.0000E+00 -0.1732E+12
   -0.945026    4.00545  0.0000E+00  0.2364E-07  0.2365E-11  0.7934E-04  0.0000E+00 -0.1840E+12
   -0.980027    4.00605  0.0000E+00  0.2383E-07  0.2476E-11  0.7730E-04  0.0000E+00 -0.1962E+12
   -1.015028    4.00668  0.0000E+00  0.2401E-07  0.2601E-11  0.7498E-04  0.0000E+00 -0.2129E+12
   -1.050029    4.00734  0.0000E+00  0.2418E-07  0.2746E-11  0.7232E-04  0.0000E+00 -0.2333E+12
   -1.085030    4.00804  0.0000E+00  0.2433E-07  0.2919E-11  0.6934E-04  0.0000E+00 -0.2554E+12
   -1.120031    4.00878  0.0000E+00  0.2446E-07  0.3125E-11  0.6599E-04  0.0000E+00 -0.2787E+12
   -1.155032    4.00956  0.0000E+00  0.2456E-07  0.3373E-11  0.6227E-04  0.0000E+00 -0.3070E+12
   -1.190032    4.01039  0.0000E+00  0.2463E-07  0.3682E-11  0.5794E-04  0.0000E+00 -0.3467E+12
   -1.225032    4.01129  0.0000E+00  0.2466E-07  0.4119E-11  0.5263E-04  0.0000E+00 -0.4206E+12
   -1.260032    4.01234  0.0000E+00  0.2461E-07  0.4854E-11  0.4512E-04  0.0000E+00 -0.5796E+12
   -1.295031    4.01372  0.0000E+00  0.2433E-07  0.6636E-11  0.3451E-04  0.0000E+00 -0.9840E+12
   -1.330030    4.01593  0.0000E+00  0.2328E-07  0.1154E-10  0.1281E-04  0.0000E+00 -0.2874E+13
   -1.365029    4.02159  0.0000E+00  0.1752E-07  0.4048E-10  0.1389E-05  0.0000E+00 -0.3917E+14
   -1.400028    4.06536  0.0000E+00  0.0000E+00  0.0000E+00  0.0000E+00  0.0000E+00  0.0000E+00
