 1 - depth, m
 2 - temperature, C
 3 - salinity, kg/kg
 4 - turbulent kinetic energy, m**2/s**2
 5 - dissipation rate, m**2/s**3
 6 - kinematic heat conductance, m**2/s
 7 - modulus of horizontal velocity, m/s
 8 - Richardson number, n/d
   -0.000000    0.00000  0.0000E+00  0.1111E-03  0.3936E-04  0.5053E-04  0.1018E+00  0.7637E-02
   -0.034997    0.00398  0.0000E+00  0.7188E-04  0.1198E-04  0.7301E-04  0.3969E-01  0.9545E-02
   -0.069995    0.00596  0.0000E+00  0.5652E-04  0.5548E-05  0.9075E-04  0.2897E-01  0.1562E-02
   -0.104993    0.00740  0.0000E+00  0.4775E-04  0.3075E-05  0.1072E-03  0.2371E-01  0.3295E-02
   -0.139992    0.00857  0.0000E+00  0.4161E-04  0.1886E-05  0.1226E-03  0.1994E-01  0.3380E-02
   -0.174990    0.00957  0.0000E+00  0.3703E-04  0.1247E-05  0.1363E-03  0.1695E-01  0.4700E-02
   -0.209989    0.01047  0.0000E+00  0.3343E-04  0.8779E-06  0.1476E-03  0.1447E-01  0.5286E-02
   -0.244988    0.01129  0.0000E+00  0.3044E-04  0.6508E-06  0.1558E-03  0.1234E-01  0.6159E-02
   -0.279988    0.01207  0.0000E+00  0.2773E-04  0.4995E-06  0.1596E-03  0.1045E-01  0.6867E-02
   -0.314988    0.01283  0.0000E+00  0.2503E-04  0.3888E-06  0.1677E-03  0.8694E-02  0.1025E-01
   -0.349987    0.01356  0.0000E+00  0.2256E-04  0.3076E-06  0.1729E-03  0.7258E-02  0.1525E-01
   -0.384987    0.01426  0.0000E+00  0.2037E-04  0.2473E-06  0.1760E-03  0.6062E-02  0.2298E-01
   -0.419987    0.01496  0.0000E+00  0.1847E-04  0.2023E-06  0.1751E-03  0.5049E-02  0.3105E-01
   -0.454988    0.01566  0.0000E+00  0.1679E-04  0.1679E-06  0.1723E-03  0.4134E-02  0.4152E-01
   -0.489988    0.01638  0.0000E+00  0.1528E-04  0.1411E-06  0.1700E-03  0.3289E-02  0.6517E-01
   -0.524989    0.01711  0.0000E+00  0.1380E-04  0.1184E-06  0.1733E-03  0.2536E-02  0.1752E+00
   -0.559989    0.01782  0.0000E+00  0.1235E-04  0.9869E-07  0.1740E-03  0.1987E-02  0.5498E+00
   -0.594990    0.01849  0.0000E+00  0.1076E-04  0.7937E-07  0.1685E-03  0.1629E-02 -0.3872E+02
   -0.629991    0.01915  0.0000E+00  0.9352E-05  0.6367E-07  0.1568E-03  0.1424E-02 -0.1035E+03
   -0.664991    0.01985  0.0000E+00  0.8142E-05  0.5131E-07  0.1454E-03  0.1234E-02  0.3907E+02
   -0.699992    0.02061  0.0000E+00  0.7099E-05  0.4154E-07  0.1344E-03  0.1058E-02  0.3302E+02
   -0.734993    0.02144  0.0000E+00  0.6189E-05  0.3372E-07  0.1237E-03  0.8985E-03  0.5038E+02
   -0.769994    0.02233  0.0000E+00  0.5390E-05  0.2743E-07  0.1129E-03  0.7568E-03  0.9453E+02
   -0.804994    0.02331  0.0000E+00  0.4685E-05  0.2232E-07  0.1022E-03  0.6327E-03  0.1891E+03
   -0.839995    0.02439  0.0000E+00  0.4064E-05  0.1818E-07  0.9140E-04  0.5242E-03  0.4645E+03
   -0.874996    0.02562  0.0000E+00  0.3511E-05  0.1479E-07  0.8072E-04  0.4301E-03  0.1900E+04
   -0.909996    0.02699  0.0000E+00  0.3019E-05  0.1201E-07  0.6987E-04  0.3503E-03  0.1030E+05
   -0.944997    0.02863  0.0000E+00  0.2583E-05  0.9750E-08  0.5920E-04  0.2804E-03  0.1259E+06
   -0.979997    0.03067  0.0000E+00  0.2197E-05  0.7905E-08  0.4887E-04  0.2186E-03  0.3985E+07
   -1.014997    0.03362  0.0000E+00  0.1855E-05  0.6394E-08  0.3938E-04  0.1637E-03  0.2363E+09
   -1.049997    0.03751  0.0000E+00  0.1549E-05  0.5143E-08  0.3049E-04  0.1191E-03  0.2728E+11
   -1.084997    0.04216  0.0000E+00  0.1272E-05  0.4094E-08  0.2194E-04  0.8452E-04  0.1231E+14
   -1.119996    0.05247  0.0000E+00  0.1012E-05  0.3189E-08  0.1402E-04  0.5924E-04  0.1506E+15
   -1.154996    0.08212  0.0000E+00  0.7670E-06  0.2393E-08  0.7584E-05  0.3867E-04  0.3703E+15
   -1.189995    0.15826  0.0000E+00  0.5328E-06  0.1661E-08  0.2763E-05  0.2220E-04  0.7977E+15
   -1.224994    0.31789  0.0000E+00  0.2933E-06  0.9170E-09  0.8749E-06  0.7690E-05  0.2123E+16
   -1.259993    0.64005  0.0000E+00  0.1308E-06  0.4079E-09  0.3142E-06  0.1483E-05  0.5473E+16
   -1.294991    1.11105  0.0000E+00  0.5084E-07  0.1565E-09  0.2969E-07  0.2421E-06  0.9621E+16
   -1.329989    1.66726  0.0000E+00  0.1404E-07  0.4517E-10  0.2686E-08  0.4171E-07  0.1157E+17
   -1.364987    2.33300  0.0000E+00  0.2284E-08  0.1331E-10  0.9685E-09  0.2335E-08  0.9861E+16
   -1.399984    3.00774  0.0000E+00  0.0000E+00  0.0000E+00  0.0000E+00  0.4406E-08  0.0000E+00
