 1 - depth, m
 2 - temperature, C
 3 - salinity, kg/kg
 4 - turbulent kinetic energy, m**2/s**2
 5 - dissipation rate, m**2/s**3
 6 - kinematic heat conductance, m**2/s
 7 - modulus of horizontal velocity, m/s
 8 - Richardson number, n/d
   -0.000000    0.00000  0.0000E+00  0.4702E-13  0.1132E-15  0.1000E-09  0.0000E+00  0.1064E+17
   -0.034998    0.16314  0.0000E+00  0.4702E-13  0.1132E-15  0.1000E-09  0.0000E+00  0.1028E+17
   -0.069996    0.32819  0.0000E+00  0.4702E-13  0.1132E-15  0.1000E-09  0.0000E+00  0.9914E+16
   -0.104994    0.49520  0.0000E+00  0.4702E-13  0.1132E-15  0.1000E-09  0.0000E+00  0.9415E+16
   -0.139993    0.66205  0.0000E+00  0.4702E-13  0.1132E-15  0.1000E-09  0.0000E+00  0.8853E+16
   -0.174992    0.82745  0.0000E+00  0.4702E-13  0.1132E-15  0.1000E-09  0.0000E+00  0.8301E+16
   -0.209991    0.99128  0.0000E+00  0.1725E-12  0.1132E-15  0.1000E-09  0.0000E+00  0.7759E+16
   -0.244991    1.15342  0.0000E+00  0.4882E-12  0.1371E-15  0.1000E-09  0.0000E+00  0.7228E+16
   -0.279991    1.31375  0.0000E+00  0.1038E-11  0.2219E-15  0.1000E-09  0.0000E+00  0.6710E+16
   -0.314991    1.47215  0.0000E+00  0.1981E-11  0.3842E-15  0.1000E-09  0.0000E+00  0.6212E+16
   -0.349991    1.62869  0.0000E+00  0.3629E-11  0.6736E-15  0.1000E-09  0.0000E+00  0.5724E+16
   -0.384991    1.78315  0.0000E+00  0.6521E-11  0.1179E-14  0.1000E-09  0.0000E+00  0.5246E+16
   -0.419992    1.93528  0.0000E+00  0.1157E-10  0.2049E-14  0.1000E-09  0.0000E+00  0.4809E+16
   -0.454992    2.08581  0.0000E+00  0.2034E-10  0.3537E-14  0.1000E-09  0.0000E+00  0.4414E+16
   -0.489993    2.23569  0.0000E+00  0.3560E-10  0.6081E-14  0.1000E-09  0.0000E+00  0.4052E+16
   -0.524994    2.38600  0.0000E+00  0.6486E-10  0.1088E-13  0.1000E-09  0.0000E+00  0.3820E+16
   -0.559995    2.54236  0.0000E+00  0.1238E-09  0.2039E-13  0.1000E-09  0.0000E+00  0.3642E+16
   -0.594996    2.70960  0.0000E+00  0.2504E-09  0.4051E-13  0.1000E-09  0.0000E+00  0.3397E+16
   -0.629997    2.88884  0.0000E+00  0.4595E-09  0.7320E-13  0.1000E-09  0.0000E+00  0.2839E+16
   -0.664998    3.06558  0.0000E+00  0.8023E-09  0.1259E-12  0.1416E-09  0.0000E+00  0.2303E+16
   -0.699999    3.23962  0.0000E+00  0.1376E-08  0.2124E-12  0.3071E-09  0.0000E+00  0.1792E+16
   -0.735000    3.41085  0.0000E+00  0.2346E-08  0.3565E-12  0.7035E-09  0.0000E+00  0.1313E+16
   -0.770001    3.58029  0.0000E+00  0.3988E-08  0.5964E-12  0.1800E-08  0.0000E+00  0.8579E+15
   -0.805002    3.74992  0.0000E+00  0.6748E-08  0.9934E-12  0.6440E-08  0.0000E+00  0.3994E+15
   -0.840003    3.91548  0.0000E+00  0.1088E-07  0.1585E-11  0.1172E-06  0.0000E+00  0.3467E+14
   -0.875004    4.01071  0.0000E+00  0.1163E-07  0.1701E-11  0.3201E-04  0.0000E+00 -0.3007E+12
   -0.910005    4.01149  0.0000E+00  0.1200E-07  0.1767E-11  0.3166E-04  0.0000E+00 -0.3152E+12
   -0.945006    4.01227  0.0000E+00  0.1234E-07  0.1838E-11  0.3202E-04  0.0000E+00 -0.3223E+12
   -0.980006    4.01305  0.0000E+00  0.1266E-07  0.1917E-11  0.3221E-04  0.0000E+00 -0.3310E+12
   -1.015007    4.01383  0.0000E+00  0.1295E-07  0.2004E-11  0.3225E-04  0.0000E+00 -0.3474E+12
   -1.050007    4.01463  0.0000E+00  0.1322E-07  0.2105E-11  0.3203E-04  0.0000E+00 -0.3696E+12
   -1.085007    4.01545  0.0000E+00  0.1346E-07  0.2224E-11  0.3158E-04  0.0000E+00 -0.3974E+12
   -1.120007    4.01631  0.0000E+00  0.1369E-07  0.2364E-11  0.3072E-04  0.0000E+00 -0.4231E+12
   -1.155007    4.01719  0.0000E+00  0.1387E-07  0.2532E-11  0.2954E-04  0.0000E+00 -0.4564E+12
   -1.190007    4.01812  0.0000E+00  0.1403E-07  0.2742E-11  0.2795E-04  0.0000E+00 -0.5078E+12
   -1.225006    4.01913  0.0000E+00  0.1416E-07  0.3040E-11  0.2601E-04  0.0000E+00 -0.6234E+12
   -1.260005    4.02032  0.0000E+00  0.1424E-07  0.3530E-11  0.2316E-04  0.0000E+00 -0.8825E+12
   -1.295004    4.02193  0.0000E+00  0.1417E-07  0.4714E-11  0.1817E-04  0.0000E+00 -0.1567E+13
   -1.330002    4.02464  0.0000E+00  0.1340E-07  0.7700E-11  0.7024E-05  0.0000E+00 -0.4198E+13
   -1.365000    4.03109  0.0000E+00  0.9765E-08  0.2099E-10  0.8861E-06  0.0000E+00 -0.3816E+14
   -1.399998    4.06926  0.0000E+00  0.0000E+00  0.0000E+00  0.0000E+00  0.0000E+00  0.0000E+00
