 1 - depth, m
 2 - temperature, C
 3 - salinity, kg/kg
 4 - turbulent kinetic energy, m**2/s**2
 5 - dissipation rate, m**2/s**3
 6 - kinematic heat conductance, m**2/s
 7 - modulus of horizontal velocity, m/s
 8 - Richardson number, n/d
   -0.000000   15.75014  0.0000E+00  0.7671E-04  0.6233E-03  0.4067E-04  0.6041E-01 -0.7471E-02
   -0.034998   15.79897  0.0000E+00  0.4666E-04  0.4665E-03  0.6130E-04  0.2355E-01 -0.4608E-01
   -0.069997   15.80935  0.0000E+00  0.3656E-04  0.3969E-03  0.7179E-04  0.1738E-01 -0.4228E-01
   -0.104995   15.81658  0.0000E+00  0.2979E-04  0.3050E-03  0.8449E-04  0.1398E-01 -0.5920E-01
   -0.139994   15.82229  0.0000E+00  0.2455E-04  0.1865E-03  0.9870E-04  0.1149E-01 -0.8019E-01
   -0.174994   15.82709  0.0000E+00  0.2033E-04  0.8127E-04  0.1139E-03  0.9498E-02 -0.1037E+00
   -0.209993   15.83121  0.0000E+00  0.1726E-04  0.2509E-04  0.1318E-03  0.7869E-02 -0.1185E-01
   -0.244993   15.83473  0.0000E+00  0.1523E-04  0.6448E-05  0.1827E-03  0.6515E-02  0.4883E+02
   -0.279993   15.83751  0.0000E+00  0.1381E-04  0.1764E-05  0.2534E-03  0.5394E-02  0.2360E+03
   -0.314994   15.83970  0.0000E+00  0.1266E-04  0.6109E-06  0.2960E-03  0.4424E-02  0.6928E+02
   -0.349994   15.84144  0.0000E+00  0.1170E-04  0.2745E-06  0.3378E-03  0.3646E-02  0.3094E+02
   -0.384995   15.84287  0.0000E+00  0.1091E-04  0.1507E-06  0.3667E-03  0.3008E-02  0.7922E+02
   -0.419996   15.84411  0.0000E+00  0.1025E-04  0.1026E-06  0.3893E-03  0.2470E-02  0.1146E+03
   -0.454996   15.84518  0.0000E+00  0.9699E-05  0.7664E-07  0.4051E-03  0.1990E-02  0.3805E+02
   -0.489998   15.84622  0.0000E+00  0.9221E-05  0.6103E-07  0.4137E-03  0.1551E-02  0.5168E+01
   -0.524999   15.84717  0.0000E+00  0.8762E-05  0.5083E-07  0.4437E-03  0.1158E-02 -0.8207E+00
   -0.560000   15.84808  0.0000E+00  0.8322E-05  0.4335E-07  0.4969E-03  0.8687E-03  0.4275E+01
   -0.595001   15.84884  0.0000E+00  0.7892E-05  0.3693E-07  0.5658E-03  0.6851E-03  0.1563E+00
   -0.630003   15.84951  0.0000E+00  0.7569E-05  0.3253E-07  0.5818E-03  0.5902E-03  0.1259E+01
   -0.665004   15.85018  0.0000E+00  0.7314E-05  0.2926E-07  0.5925E-03  0.5159E-03  0.2136E+00
   -0.700006   15.85082  0.0000E+00  0.7096E-05  0.2666E-07  0.6054E-03  0.4486E-03  0.4586E+00
   -0.735007   15.85145  0.0000E+00  0.6910E-05  0.2459E-07  0.6158E-03  0.3897E-03  0.2857E+01
   -0.770009   15.85205  0.0000E+00  0.6748E-05  0.2296E-07  0.6243E-03  0.3392E-03  0.5977E+02
   -0.805010   15.85265  0.0000E+00  0.6606E-05  0.2169E-07  0.6290E-03  0.2964E-03  0.1027E+01
   -0.840011   15.85322  0.0000E+00  0.6480E-05  0.2071E-07  0.6307E-03  0.2604E-03  0.8868E+00
   -0.875013   15.85380  0.0000E+00  0.6367E-05  0.1997E-07  0.6288E-03  0.2300E-03  0.9090E+00
   -0.910014   15.85436  0.0000E+00  0.6262E-05  0.1944E-07  0.6238E-03  0.2044E-03  0.9549E+00
   -0.945015   15.85493  0.0000E+00  0.6163E-05  0.1908E-07  0.6149E-03  0.1821E-03  0.1096E+01
   -0.980016   15.85550  0.0000E+00  0.6067E-05  0.1889E-07  0.6020E-03  0.1621E-03  0.1256E+01
   -1.015017   15.85608  0.0000E+00  0.5970E-05  0.1888E-07  0.5851E-03  0.1438E-03  0.1545E+01
   -1.050017   15.85667  0.0000E+00  0.5867E-05  0.1907E-07  0.5608E-03  0.1273E-03  0.2014E+01
   -1.085018   15.85729  0.0000E+00  0.5753E-05  0.1953E-07  0.5364E-03  0.1123E-03  0.2811E+01
   -1.120018   15.85793  0.0000E+00  0.5626E-05  0.2037E-07  0.4948E-03  0.9861E-04  0.4229E+01
   -1.155018   15.85863  0.0000E+00  0.5483E-05  0.2179E-07  0.4731E-03  0.8522E-04  0.6526E+01
   -1.190018   15.85938  0.0000E+00  0.5310E-05  0.2452E-07  0.4099E-03  0.7268E-04 -0.1559E+02
   -1.225018   15.86044  0.0000E+00  0.5076E-05  0.2957E-07  0.3948E-03  0.5863E-04 -0.1159E+03
   -1.260017   15.86153  0.0000E+00  0.4709E-05  0.4112E-07  0.3010E-03  0.4639E-04 -0.4406E+05
   -1.295016   15.86463  0.0000E+00  0.4042E-05  0.7120E-07  0.2744E-03  0.3234E-04  0.2322E+06
   -1.330015   15.86460  0.0000E+00  0.3194E-05  0.1569E-06  0.1225E-03  0.2726E-04 -0.4076E+05
   -1.365013   15.87698  0.0000E+00  0.2133E-05  0.3722E-06  0.8154E-04  0.1652E-04 -0.1567E+06
   -1.400011   15.88028  0.0000E+00  0.0000E+00  0.0000E+00  0.0000E+00  0.2558E-04  0.0000E+00
