 1 - depth, m
 2 - temperature, C
 3 - salinity, kg/kg
 4 - turbulent kinetic energy, m**2/s**2
 5 - dissipation rate, m**2/s**3
 6 - kinematic heat conductance, m**2/s
 7 - modulus of horizontal velocity, m/s
 8 - Richardson number, n/d
   -0.000000    0.00000  0.0000E+00  0.4701E-13  0.1132E-15  0.1000E-09  0.0000E+00  0.6478E+16
   -0.034999    0.09847  0.0000E+00  0.4701E-13  0.1132E-15  0.1000E-09  0.0000E+00  0.6605E+16
   -0.069998    0.20169  0.0000E+00  0.4701E-13  0.1132E-15  0.1000E-09  0.0000E+00  0.6675E+16
   -0.104998    0.30916  0.0000E+00  0.4701E-13  0.1132E-15  0.1000E-09  0.0000E+00  0.6609E+16
   -0.139998    0.41894  0.0000E+00  0.4701E-13  0.1132E-15  0.1000E-09  0.0000E+00  0.6461E+16
   -0.174998    0.52986  0.0000E+00  0.4701E-13  0.1132E-15  0.1000E-09  0.0000E+00  0.6295E+16
   -0.209999    0.64167  0.0000E+00  0.4701E-13  0.1132E-15  0.1000E-09  0.0000E+00  0.6116E+16
   -0.245000    0.75422  0.0000E+00  0.4701E-13  0.1132E-15  0.1000E-09  0.0000E+00  0.5930E+16
   -0.280001    0.86743  0.0000E+00  0.4701E-13  0.1132E-15  0.1000E-09  0.0000E+00  0.5739E+16
   -0.315002    0.98128  0.0000E+00  0.4701E-13  0.1132E-15  0.1000E-09  0.0000E+00  0.5552E+16
   -0.350003    1.09590  0.0000E+00  0.4701E-13  0.1132E-15  0.1000E-09  0.0000E+00  0.5362E+16
   -0.385005    1.21133  0.0000E+00  0.4701E-13  0.1132E-15  0.1000E-09  0.0000E+00  0.5170E+16
   -0.420006    1.32760  0.0000E+00  0.4701E-13  0.1132E-15  0.1000E-09  0.0000E+00  0.4981E+16
   -0.455008    1.44485  0.0000E+00  0.4701E-13  0.1132E-15  0.1000E-09  0.0000E+00  0.4800E+16
   -0.490010    1.56346  0.0000E+00  0.4701E-13  0.1132E-15  0.1000E-09  0.0000E+00  0.4643E+16
   -0.525012    1.68424  0.0000E+00  0.4701E-13  0.1132E-15  0.1000E-09  0.0000E+00  0.4591E+16
   -0.560015    1.81050  0.0000E+00  0.1001E-12  0.1132E-15  0.1000E-09  0.0000E+00  0.4620E+16
   -0.595017    1.94574  0.0000E+00  0.4054E-12  0.1584E-15  0.1000E-09  0.0000E+00  0.4619E+16
   -0.630019    2.09091  0.0000E+00  0.1012E-11  0.3076E-15  0.1000E-09  0.0000E+00  0.4287E+16
   -0.665022    2.23676  0.0000E+00  0.2167E-11  0.6112E-15  0.1000E-09  0.0000E+00  0.3940E+16
   -0.700024    2.38281  0.0000E+00  0.4413E-11  0.1202E-14  0.1000E-09  0.0000E+00  0.3589E+16
   -0.735026    2.52889  0.0000E+00  0.8844E-11  0.2349E-14  0.1000E-09  0.0000E+00  0.3246E+16
   -0.770029    2.67534  0.0000E+00  0.1758E-10  0.4565E-14  0.1000E-09  0.0000E+00  0.2920E+16
   -0.805031    2.82307  0.0000E+00  0.3474E-10  0.8829E-14  0.1000E-09  0.0000E+00  0.2581E+16
   -0.840033    2.97178  0.0000E+00  0.6819E-10  0.1697E-13  0.1000E-09  0.0000E+00  0.2235E+16
   -0.875035    3.12132  0.0000E+00  0.1333E-09  0.3248E-13  0.1000E-09  0.0000E+00  0.1884E+16
   -0.910037    3.27172  0.0000E+00  0.2589E-09  0.6182E-13  0.1105E-09  0.0000E+00  0.1520E+16
   -0.945039    3.42190  0.0000E+00  0.4985E-09  0.1166E-12  0.2628E-09  0.0000E+00  0.1155E+16
   -0.980041    3.57130  0.0000E+00  0.9548E-09  0.2189E-12  0.7175E-09  0.0000E+00  0.7960E+15
   -1.015043    3.71952  0.0000E+00  0.1831E-08  0.4115E-12  0.2413E-08  0.0000E+00  0.4473E+15
   -1.050045    3.86679  0.0000E+00  0.3497E-08  0.7716E-12  0.1889E-07  0.0000E+00  0.1110E+15
   -1.085046    4.00112  0.0000E+00  0.4716E-08  0.1047E-11  0.7876E-05  0.0000E+00 -0.7063E+12
   -1.120047    4.00401  0.0000E+00  0.5355E-08  0.1229E-11  0.8668E-05  0.0000E+00 -0.7571E+12
   -1.155048    4.00662  0.0000E+00  0.5919E-08  0.1434E-11  0.8932E-05  0.0000E+00 -0.8398E+12
   -1.190049    4.00914  0.0000E+00  0.6425E-08  0.1684E-11  0.8814E-05  0.0000E+00 -0.9757E+12
   -1.225049    4.01175  0.0000E+00  0.6916E-08  0.2032E-11  0.8690E-05  0.0000E+00 -0.1243E+13
   -1.260050    4.01472  0.0000E+00  0.7400E-08  0.2581E-11  0.8427E-05  0.0000E+00 -0.1808E+13
   -1.295050    4.01855  0.0000E+00  0.7827E-08  0.3724E-11  0.6897E-05  0.0000E+00 -0.3437E+13
   -1.330049    4.02477  0.0000E+00  0.7593E-08  0.5843E-11  0.3270E-05  0.0000E+00 -0.8047E+13
   -1.365049    4.03640  0.0000E+00  0.5778E-08  0.1250E-10  0.6071E-06  0.0000E+00 -0.4718E+14
   -1.400048    4.07871  0.0000E+00  0.0000E+00  0.0000E+00  0.0000E+00  0.0000E+00  0.0000E+00
