 1 - depth, m
 2 - temperature, C
 3 - salinity, kg/kg
 4 - turbulent kinetic energy, m**2/s**2
 5 - dissipation rate, m**2/s**3
 6 - kinematic heat conductance, m**2/s
 7 - modulus of horizontal velocity, m/s
 8 - Richardson number, n/d
   -0.000000    0.00000  0.0000E+00  0.1641E-04  0.1320E-05  0.1907E-04  0.2619E-01  0.3638E-02
   -0.034998    0.01098  0.0000E+00  0.1302E-04  0.4991E-06  0.3246E-04  0.1683E-01  0.9447E-02
   -0.069997    0.01730  0.0000E+00  0.1067E-04  0.2659E-06  0.4042E-04  0.1273E-01  0.1817E-01
   -0.104995    0.02242  0.0000E+00  0.8821E-05  0.1622E-06  0.4459E-04  0.1006E-01  0.3142E-01
   -0.139995    0.02711  0.0000E+00  0.7314E-05  0.1064E-06  0.4582E-04  0.8108E-02  0.5255E-01
   -0.174994    0.03174  0.0000E+00  0.6060E-05  0.7308E-07  0.4466E-04  0.6586E-02  0.8941E-01
   -0.209994    0.03673  0.0000E+00  0.5009E-05  0.5189E-07  0.4132E-04  0.5350E-02  0.1617E+00
   -0.244994    0.04286  0.0000E+00  0.4099E-05  0.3768E-07  0.3604E-04  0.4294E-02  0.3761E+00
   -0.279994    0.05894  0.0000E+00  0.3268E-05  0.2733E-07  0.2906E-04  0.3303E-02  0.1874E+01
   -0.314994    0.13450  0.0000E+00  0.2426E-05  0.1841E-07  0.2384E-04  0.2252E-02  0.4363E+02
   -0.349995    0.26268  0.0000E+00  0.1713E-05  0.1183E-07  0.1749E-04  0.1538E-02  0.1316E+04
   -0.384995    0.42189  0.0000E+00  0.1132E-05  0.7166E-08  0.1094E-04  0.1046E-02  0.4889E+05
   -0.419996    0.60028  0.0000E+00  0.6743E-06  0.3974E-08  0.4676E-05  0.7061E-03  0.1662E+07
   -0.454997    0.81216  0.0000E+00  0.2652E-06  0.1511E-08  0.2153E-06  0.4226E-03  0.6415E+08
   -0.489998    1.17389  0.0000E+00  0.3568E-07  0.2047E-09  0.1153E-07  0.8366E-04  0.4559E+10
   -0.524999    1.73631  0.0000E+00  0.4246E-08  0.2247E-10  0.2025E-08  0.4671E-05  0.1321E+13
   -0.560001    2.23154  0.0000E+00  0.2968E-08  0.4896E-11  0.9863E-09  0.2012E-06  0.4682E+15
   -0.595002    2.61589  0.0000E+00  0.1082E-07  0.4467E-11  0.1874E-08  0.9243E-08  0.1325E+16
   -0.630004    2.91559  0.0000E+00  0.2731E-07  0.7190E-11  0.4728E-08  0.1596E-08  0.1969E+16
   -0.665005    3.27493  0.0000E+00  0.4849E-07  0.1157E-10  0.1043E-04  0.2367E-09  0.2365E+16
   -0.700007    3.62960  0.0000E+00  0.6750E-07  0.1596E-10  0.4179E-04  0.2507E-10  0.1668E+16
   -0.735008    3.91307  0.0000E+00  0.8063E-07  0.1920E-10  0.7899E-04  0.1408E-10  0.3621E+15
   -0.770009    4.05148  0.0000E+00  0.8202E-07  0.1959E-10  0.1145E-03  0.1104E-10 -0.7238E+12
   -0.805011    4.05229  0.0000E+00  0.8304E-07  0.1993E-10  0.1141E-03  0.8649E-11 -0.7468E+12
   -0.840012    4.05312  0.0000E+00  0.8402E-07  0.2032E-10  0.1144E-03  0.6764E-11 -0.7735E+12
   -0.875014    4.05397  0.0000E+00  0.8497E-07  0.2076E-10  0.1144E-03  0.5272E-11 -0.8240E+12
   -0.910015    4.05483  0.0000E+00  0.8587E-07  0.2125E-10  0.1140E-03  0.4116E-11 -0.8909E+12
   -0.945016    4.05572  0.0000E+00  0.8672E-07  0.2181E-10  0.1132E-03  0.3184E-11 -0.9620E+12
   -0.980017    4.05664  0.0000E+00  0.8749E-07  0.2243E-10  0.1120E-03  0.2427E-11 -0.1035E+13
   -1.015018    4.05759  0.0000E+00  0.8818E-07  0.2314E-10  0.1103E-03  0.1807E-11 -0.1130E+13
   -1.050019    4.05860  0.0000E+00  0.8880E-07  0.2397E-10  0.1080E-03  0.1328E-11 -0.1232E+13
   -1.085019    4.05969  0.0000E+00  0.8931E-07  0.2495E-10  0.1052E-03  0.9648E-12 -0.1290E+13
   -1.120019    4.06081  0.0000E+00  0.8970E-07  0.2612E-10  0.1017E-03  0.6995E-12 -0.1356E+13
   -1.155020    4.06197  0.0000E+00  0.8994E-07  0.2753E-10  0.9760E-04  0.4912E-12 -0.1437E+13
   -1.190019    4.06318  0.0000E+00  0.9001E-07  0.2929E-10  0.9246E-04  0.3282E-12 -0.1553E+13
   -1.225019    4.06446  0.0000E+00  0.8987E-07  0.3177E-10  0.8573E-04  0.2022E-12 -0.1747E+13
   -1.260018    4.06588  0.0000E+00  0.8938E-07  0.3593E-10  0.7555E-04  0.1159E-12 -0.2148E+13
   -1.295018    4.06759  0.0000E+00  0.8784E-07  0.4577E-10  0.6089E-04  0.6338E-13 -0.3049E+13
   -1.330016    4.06996  0.0000E+00  0.8359E-07  0.7114E-10  0.2789E-04  0.3925E-13 -0.6918E+13
   -1.365015    4.07514  0.0000E+00  0.5986E-07  0.2415E-09  0.2491E-05  0.1575E-13 -0.9861E+14
   -1.400013    4.12958  0.0000E+00  0.0000E+00  0.0000E+00  0.0000E+00  0.1566E-13  0.0000E+00
