 1 - depth, m
 2 - temperature, C
 3 - salinity, kg/kg
 4 - turbulent kinetic energy, m**2/s**2
 5 - dissipation rate, m**2/s**3
 6 - kinematic heat conductance, m**2/s
 7 - modulus of horizontal velocity, m/s
 8 - Richardson number, n/d
   -0.000000    0.00000  0.0000E+00  0.4702E-13  0.1132E-15  0.1000E-09  0.0000E+00  0.5422E+16
   -0.034998    0.08225  0.0000E+00  0.4702E-13  0.1132E-15  0.1000E-09  0.0000E+00  0.5353E+16
   -0.069996    0.16531  0.0000E+00  0.4702E-13  0.1132E-15  0.1000E-09  0.0000E+00  0.5278E+16
   -0.104995    0.24913  0.0000E+00  0.4702E-13  0.1132E-15  0.1000E-09  0.0000E+00  0.5155E+16
   -0.139994    0.33297  0.0000E+00  0.4702E-13  0.1132E-15  0.1000E-09  0.0000E+00  0.5006E+16
   -0.174993    0.41639  0.0000E+00  0.4702E-13  0.1132E-15  0.1000E-09  0.0000E+00  0.4854E+16
   -0.209992    0.49929  0.0000E+00  0.4702E-13  0.1132E-15  0.1000E-09  0.0000E+00  0.4700E+16
   -0.244992    0.58162  0.0000E+00  0.4702E-13  0.1132E-15  0.1000E-09  0.0000E+00  0.4546E+16
   -0.279992    0.66329  0.0000E+00  0.4702E-13  0.1132E-15  0.1000E-09  0.0000E+00  0.4391E+16
   -0.314992    0.74425  0.0000E+00  0.4702E-13  0.1132E-15  0.1000E-09  0.0000E+00  0.4291E+16
   -0.349992    0.82548  0.0000E+00  0.4702E-13  0.1132E-15  0.1000E-09  0.0000E+00  0.4196E+16
   -0.384993    0.90710  0.0000E+00  0.4702E-13  0.1132E-15  0.1000E-09  0.0000E+00  0.4100E+16
   -0.419993    0.98910  0.0000E+00  0.4702E-13  0.1132E-15  0.1000E-09  0.0000E+00  0.3986E+16
   -0.454994    1.07115  0.0000E+00  0.4702E-13  0.1132E-15  0.1000E-09  0.0000E+00  0.3879E+16
   -0.489995    1.15339  0.0000E+00  0.4702E-13  0.1132E-15  0.1000E-09  0.0000E+00  0.3829E+16
   -0.524996    1.23710  0.0000E+00  0.4702E-13  0.1132E-15  0.1000E-09  0.0000E+00  0.4058E+16
   -0.559997    1.32883  0.0000E+00  0.4702E-13  0.1132E-15  0.1000E-09  0.0000E+00  0.4503E+16
   -0.594998    1.43465  0.0000E+00  0.4702E-13  0.1132E-15  0.1000E-09  0.0000E+00  0.4947E+16
   -0.629999    1.55645  0.0000E+00  0.4702E-13  0.1132E-15  0.1000E-09  0.0000E+00  0.4653E+16
   -0.665001    1.67710  0.0000E+00  0.4702E-13  0.1132E-15  0.1000E-09  0.0000E+00  0.4361E+16
   -0.700002    1.79646  0.0000E+00  0.4702E-13  0.1132E-15  0.1000E-09  0.0000E+00  0.4083E+16
   -0.735003    1.91467  0.0000E+00  0.4702E-13  0.1132E-15  0.1000E-09  0.0000E+00  0.3836E+16
   -0.770004    2.03247  0.0000E+00  0.4702E-13  0.1132E-15  0.1000E-09  0.0000E+00  0.3628E+16
   -0.805005    2.15105  0.0000E+00  0.4702E-13  0.1132E-15  0.1000E-09  0.0000E+00  0.3405E+16
   -0.840007    2.27004  0.0000E+00  0.4702E-13  0.1132E-15  0.1000E-09  0.0000E+00  0.3176E+16
   -0.875008    2.38923  0.0000E+00  0.4702E-13  0.1132E-15  0.1000E-09  0.0000E+00  0.2950E+16
   -0.910009    2.50875  0.0000E+00  0.4702E-13  0.1132E-15  0.1000E-09  0.0000E+00  0.2688E+16
   -0.945010    2.62701  0.0000E+00  0.4702E-13  0.1132E-15  0.1000E-09  0.0000E+00  0.2422E+16
   -0.980010    2.74340  0.0000E+00  0.4702E-13  0.1132E-15  0.1000E-09  0.0000E+00  0.2163E+16
   -1.015011    2.85767  0.0000E+00  0.4702E-13  0.1132E-15  0.1000E-09  0.0000E+00  0.1948E+16
   -1.050011    2.97178  0.0000E+00  0.7639E-13  0.1147E-15  0.1000E-09  0.0000E+00  0.1750E+16
   -1.085012    3.08675  0.0000E+00  0.3105E-12  0.3937E-15  0.1000E-09  0.0000E+00  0.1603E+16
   -1.120012    3.20702  0.0000E+00  0.1254E-11  0.1524E-14  0.1000E-09  0.0000E+00  0.1378E+16
   -1.155012    3.32801  0.0000E+00  0.4964E-11  0.5845E-14  0.1000E-09  0.0000E+00  0.1153E+16
   -1.190011    3.45012  0.0000E+00  0.1949E-10  0.2228E-13  0.1000E-09  0.0000E+00  0.9450E+15
   -1.225011    3.57673  0.0000E+00  0.7993E-10  0.8885E-13  0.2829E-09  0.0000E+00  0.7851E+15
   -1.260010    3.72543  0.0000E+00  0.3458E-09  0.3745E-12  0.1832E-08  0.0000E+00  0.5031E+15
   -1.295009    3.92300  0.0000E+00  0.1664E-08  0.1772E-11  0.1791E-06  0.0000E+00  0.1425E+13
   -1.330007    4.04821  0.0000E+00  0.4578E-08  0.6292E-11  0.1357E-05  0.0000E+00 -0.2835E+14
   -1.365006    4.07265  0.0000E+00  0.4580E-08  0.1161E-10  0.5096E-06  0.0000E+00 -0.7882E+14
   -1.400004    4.11873  0.0000E+00  0.0000E+00  0.0000E+00  0.0000E+00  0.0000E+00  0.0000E+00
