 1 - depth, m
 2 - temperature, C
 3 - salinity, kg/kg
 4 - turbulent kinetic energy, m**2/s**2
 5 - dissipation rate, m**2/s**3
 6 - kinematic heat conductance, m**2/s
 7 - modulus of horizontal velocity, m/s
 8 - Richardson number, n/d
   -0.000000    0.00000  0.0000E+00  0.4702E-13  0.1132E-15  0.1000E-09  0.0000E+00  0.1026E+17
   -0.034998    0.15721  0.0000E+00  0.4702E-13  0.1132E-15  0.1000E-09  0.0000E+00  0.9952E+16
   -0.069996    0.31658  0.0000E+00  0.4702E-13  0.1132E-15  0.1000E-09  0.0000E+00  0.9629E+16
   -0.104995    0.47811  0.0000E+00  0.4702E-13  0.1132E-15  0.1000E-09  0.0000E+00  0.9175E+16
   -0.139993    0.63973  0.0000E+00  0.4702E-13  0.1132E-15  0.1000E-09  0.0000E+00  0.8657E+16
   -0.174993    0.80017  0.0000E+00  0.4702E-13  0.1132E-15  0.1000E-09  0.0000E+00  0.8146E+16
   -0.209992    0.95933  0.0000E+00  0.1646E-12  0.1132E-15  0.1000E-09  0.0000E+00  0.7643E+16
   -0.244992    1.11710  0.0000E+00  0.4724E-12  0.1321E-15  0.1000E-09  0.0000E+00  0.7148E+16
   -0.279991    1.27338  0.0000E+00  0.1006E-11  0.2095E-15  0.1000E-09  0.0000E+00  0.6664E+16
   -0.314991    1.42807  0.0000E+00  0.1911E-11  0.3582E-15  0.1000E-09  0.0000E+00  0.6201E+16
   -0.349992    1.58131  0.0000E+00  0.3475E-11  0.6214E-15  0.1000E-09  0.0000E+00  0.5744E+16
   -0.384992    1.73295  0.0000E+00  0.6190E-11  0.1077E-14  0.1000E-09  0.0000E+00  0.5295E+16
   -0.419993    1.88278  0.0000E+00  0.1088E-10  0.1853E-14  0.1000E-09  0.0000E+00  0.4880E+16
   -0.454993    2.03137  0.0000E+00  0.1894E-10  0.3167E-14  0.1000E-09  0.0000E+00  0.4500E+16
   -0.489994    2.17956  0.0000E+00  0.3281E-10  0.5391E-14  0.1000E-09  0.0000E+00  0.4153E+16
   -0.524995    2.32840  0.0000E+00  0.5917E-10  0.9545E-14  0.1000E-09  0.0000E+00  0.3936E+16
   -0.559996    2.48344  0.0000E+00  0.1117E-09  0.1770E-13  0.1000E-09  0.0000E+00  0.3778E+16
   -0.594997    2.64949  0.0000E+00  0.2237E-09  0.3480E-13  0.1000E-09  0.0000E+00  0.3554E+16
   -0.629998    2.82774  0.0000E+00  0.4067E-09  0.6233E-13  0.1000E-09  0.0000E+00  0.3004E+16
   -0.665000    3.00386  0.0000E+00  0.7037E-09  0.1062E-12  0.1113E-09  0.0000E+00  0.2473E+16
   -0.700001    3.17763  0.0000E+00  0.1195E-08  0.1776E-12  0.2344E-09  0.0000E+00  0.1963E+16
   -0.735002    3.34898  0.0000E+00  0.2019E-08  0.2952E-12  0.5156E-09  0.0000E+00  0.1484E+16
   -0.770003    3.51895  0.0000E+00  0.3401E-08  0.4893E-12  0.1233E-08  0.0000E+00  0.1028E+16
   -0.805004    3.68975  0.0000E+00  0.5707E-08  0.8083E-12  0.3713E-08  0.0000E+00  0.5640E+15
   -0.840005    3.85908  0.0000E+00  0.9439E-08  0.1318E-11  0.2752E-07  0.0000E+00  0.1240E+15
   -0.875006    4.00578  0.0000E+00  0.1013E-07  0.1420E-11  0.2924E-04  0.0000E+00 -0.2652E+12
   -0.910007    4.00663  0.0000E+00  0.1047E-07  0.1479E-11  0.2908E-04  0.0000E+00 -0.2790E+12
   -0.945008    4.00748  0.0000E+00  0.1079E-07  0.1542E-11  0.2946E-04  0.0000E+00 -0.2872E+12
   -0.980009    4.00833  0.0000E+00  0.1108E-07  0.1611E-11  0.2968E-04  0.0000E+00 -0.2968E+12
   -1.015009    4.00918  0.0000E+00  0.1135E-07  0.1688E-11  0.2974E-04  0.0000E+00 -0.3132E+12
   -1.050010    4.01004  0.0000E+00  0.1160E-07  0.1777E-11  0.2957E-04  0.0000E+00 -0.3350E+12
   -1.085010    4.01092  0.0000E+00  0.1184E-07  0.1883E-11  0.2917E-04  0.0000E+00 -0.3625E+12
   -1.120010    4.01184  0.0000E+00  0.1205E-07  0.2007E-11  0.2837E-04  0.0000E+00 -0.3887E+12
   -1.155010    4.01280  0.0000E+00  0.1223E-07  0.2157E-11  0.2726E-04  0.0000E+00 -0.4222E+12
   -1.190010    4.01380  0.0000E+00  0.1239E-07  0.2343E-11  0.2579E-04  0.0000E+00 -0.4732E+12
   -1.225009    4.01487  0.0000E+00  0.1252E-07  0.2606E-11  0.2400E-04  0.0000E+00 -0.5852E+12
   -1.260008    4.01615  0.0000E+00  0.1262E-07  0.3040E-11  0.2139E-04  0.0000E+00 -0.8353E+12
   -1.295007    4.01789  0.0000E+00  0.1257E-07  0.4120E-11  0.1656E-04  0.0000E+00 -0.1521E+13
   -1.330005    4.02083  0.0000E+00  0.1186E-07  0.6880E-11  0.6191E-05  0.0000E+00 -0.4296E+13
   -1.365004    4.02803  0.0000E+00  0.8664E-08  0.1842E-10  0.8150E-06  0.0000E+00 -0.3871E+14
   -1.400002    4.06808  0.0000E+00  0.0000E+00  0.0000E+00  0.0000E+00  0.0000E+00  0.0000E+00
