 1 - depth, m
 2 - temperature, C
 3 - salinity, kg/kg
 4 - turbulent kinetic energy, m**2/s**2
 5 - dissipation rate, m**2/s**3
 6 - kinematic heat conductance, m**2/s
 7 - modulus of horizontal velocity, m/s
 8 - Richardson number, n/d
   -0.000000    0.00000  0.0000E+00  0.3547E-11  0.1374E-14  0.1000E-09  0.0000E+00  0.1678E+17
   -0.034998    0.26087  0.0000E+00  0.5807E-11  0.1308E-14  0.1000E-09  0.0000E+00  0.1566E+17
   -0.069996    0.52319  0.0000E+00  0.1026E-10  0.1691E-14  0.1000E-09  0.0000E+00  0.1449E+17
   -0.104994    0.78615  0.0000E+00  0.1759E-10  0.2508E-14  0.1000E-09  0.0000E+00  0.1313E+17
   -0.139993    1.04596  0.0000E+00  0.2919E-10  0.3887E-14  0.1000E-09  0.0000E+00  0.1173E+17
   -0.174992    1.30024  0.0000E+00  0.4741E-10  0.6081E-14  0.1000E-09  0.0000E+00  0.1038E+17
   -0.209991    1.54844  0.0000E+00  0.7597E-10  0.9507E-14  0.1000E-09  0.0000E+00  0.9105E+16
   -0.244991    1.79010  0.0000E+00  0.1207E-09  0.1481E-13  0.1000E-09  0.0000E+00  0.7902E+16
   -0.279991    2.02480  0.0000E+00  0.1905E-09  0.2297E-13  0.1000E-09  0.0000E+00  0.6778E+16
   -0.314991    2.25213  0.0000E+00  0.3010E-09  0.3568E-13  0.1000E-09  0.0000E+00  0.5731E+16
   -0.349991    2.47159  0.0000E+00  0.4771E-09  0.5564E-13  0.1000E-09  0.0000E+00  0.4761E+16
   -0.384991    2.68244  0.0000E+00  0.7567E-09  0.8681E-13  0.1000E-09  0.0000E+00  0.3870E+16
   -0.419992    2.88388  0.0000E+00  0.1195E-08  0.1350E-12  0.1170E-09  0.0000E+00  0.3105E+16
   -0.454992    3.07789  0.0000E+00  0.1879E-08  0.2089E-12  0.2229E-09  0.0000E+00  0.2437E+16
   -0.489993    3.26655  0.0000E+00  0.2945E-08  0.3222E-12  0.4588E-09  0.0000E+00  0.1830E+16
   -0.524994    3.45086  0.0000E+00  0.4781E-08  0.5145E-12  0.1035E-08  0.0000E+00  0.1301E+16
   -0.559995    3.63726  0.0000E+00  0.8114E-08  0.8589E-12  0.2980E-08  0.0000E+00  0.7628E+15
   -0.594996    3.82856  0.0000E+00  0.1445E-07  0.1505E-11  0.2214E-07  0.0000E+00  0.1942E+15
   -0.629997    4.00523  0.0000E+00  0.1501E-07  0.1567E-11  0.5336E-04  0.0000E+00 -0.1554E+12
   -0.664998    4.00577  0.0000E+00  0.1528E-07  0.1601E-11  0.5220E-04  0.0000E+00 -0.1604E+12
   -0.699999    4.00630  0.0000E+00  0.1555E-07  0.1637E-11  0.5264E-04  0.0000E+00 -0.1609E+12
   -0.735000    4.00683  0.0000E+00  0.1580E-07  0.1676E-11  0.5302E-04  0.0000E+00 -0.1627E+12
   -0.770001    4.00734  0.0000E+00  0.1604E-07  0.1719E-11  0.5330E-04  0.0000E+00 -0.1678E+12
   -0.805002    4.00786  0.0000E+00  0.1628E-07  0.1765E-11  0.5340E-04  0.0000E+00 -0.1734E+12
   -0.840003    4.00838  0.0000E+00  0.1650E-07  0.1816E-11  0.5336E-04  0.0000E+00 -0.1796E+12
   -0.875004    4.00891  0.0000E+00  0.1672E-07  0.1871E-11  0.5315E-04  0.0000E+00 -0.1870E+12
   -0.910005    4.00944  0.0000E+00  0.1692E-07  0.1933E-11  0.5276E-04  0.0000E+00 -0.1936E+12
   -0.945006    4.00998  0.0000E+00  0.1710E-07  0.2000E-11  0.5219E-04  0.0000E+00 -0.2007E+12
   -0.980007    4.01053  0.0000E+00  0.1727E-07  0.2075E-11  0.5142E-04  0.0000E+00 -0.2090E+12
   -1.015007    4.01109  0.0000E+00  0.1743E-07  0.2159E-11  0.5044E-04  0.0000E+00 -0.2226E+12
   -1.050007    4.01167  0.0000E+00  0.1757E-07  0.2259E-11  0.4917E-04  0.0000E+00 -0.2401E+12
   -1.085008    4.01227  0.0000E+00  0.1770E-07  0.2378E-11  0.4765E-04  0.0000E+00 -0.2601E+12
   -1.120008    4.01292  0.0000E+00  0.1780E-07  0.2522E-11  0.4574E-04  0.0000E+00 -0.2785E+12
   -1.155007    4.01359  0.0000E+00  0.1789E-07  0.2696E-11  0.4349E-04  0.0000E+00 -0.3015E+12
   -1.190007    4.01430  0.0000E+00  0.1795E-07  0.2915E-11  0.4072E-04  0.0000E+00 -0.3362E+12
   -1.225006    4.01507  0.0000E+00  0.1797E-07  0.3228E-11  0.3730E-04  0.0000E+00 -0.4138E+12
   -1.260005    4.01599  0.0000E+00  0.1795E-07  0.3756E-11  0.3243E-04  0.0000E+00 -0.5900E+12
   -1.295004    4.01725  0.0000E+00  0.1773E-07  0.5025E-11  0.2511E-04  0.0000E+00 -0.1054E+13
   -1.330002    4.01939  0.0000E+00  0.1682E-07  0.8405E-11  0.9360E-05  0.0000E+00 -0.2981E+13
   -1.365000    4.02478  0.0000E+00  0.1226E-07  0.2634E-10  0.1036E-05  0.0000E+00 -0.3367E+14
   -1.399998    4.06241  0.0000E+00  0.0000E+00  0.0000E+00  0.0000E+00  0.0000E+00  0.0000E+00
