 1 - depth, m
 2 - temperature, C
 3 - salinity, kg/kg
 4 - turbulent kinetic energy, m**2/s**2
 5 - dissipation rate, m**2/s**3
 6 - kinematic heat conductance, m**2/s
 7 - modulus of horizontal velocity, m/s
 8 - Richardson number, n/d
   -0.000000    0.00000  0.0000E+00  0.2456E-11  0.8788E-15  0.1000E-09  0.0000E+00  0.1596E+17
   -0.034998    0.24763  0.0000E+00  0.3910E-11  0.8499E-15  0.1000E-09  0.0000E+00  0.1494E+17
   -0.069996    0.49641  0.0000E+00  0.6807E-11  0.1107E-14  0.1000E-09  0.0000E+00  0.1392E+17
   -0.104994    0.74636  0.0000E+00  0.1161E-10  0.1648E-14  0.1000E-09  0.0000E+00  0.1273E+17
   -0.139993    0.99428  0.0000E+00  0.1926E-10  0.2565E-14  0.1000E-09  0.0000E+00  0.1148E+17
   -0.174991    1.23809  0.0000E+00  0.3134E-10  0.4030E-14  0.1000E-09  0.0000E+00  0.1028E+17
   -0.209991    1.47736  0.0000E+00  0.5037E-10  0.6329E-14  0.1000E-09  0.0000E+00  0.9123E+16
   -0.244990    1.71165  0.0000E+00  0.8029E-10  0.9903E-14  0.1000E-09  0.0000E+00  0.8019E+16
   -0.279990    1.94053  0.0000E+00  0.1272E-09  0.1543E-13  0.1000E-09  0.0000E+00  0.6972E+16
   -0.314989    2.16358  0.0000E+00  0.2016E-09  0.2409E-13  0.1000E-09  0.0000E+00  0.5962E+16
   -0.349989    2.37953  0.0000E+00  0.3208E-09  0.3774E-13  0.1000E-09  0.0000E+00  0.5016E+16
   -0.384990    2.58756  0.0000E+00  0.5105E-09  0.5916E-13  0.1000E-09  0.0000E+00  0.4142E+16
   -0.419990    2.78691  0.0000E+00  0.8091E-09  0.9241E-13  0.1007E-09  0.0000E+00  0.3396E+16
   -0.454991    2.98006  0.0000E+00  0.1276E-08  0.1437E-12  0.1410E-09  0.0000E+00  0.2747E+16
   -0.489991    3.16967  0.0000E+00  0.2008E-08  0.2228E-12  0.2699E-09  0.0000E+00  0.2148E+16
   -0.524992    3.35715  0.0000E+00  0.3273E-08  0.3579E-12  0.5773E-09  0.0000E+00  0.1614E+16
   -0.559993    3.54864  0.0000E+00  0.5583E-08  0.6014E-12  0.1463E-08  0.0000E+00  0.1063E+16
   -0.594994    3.74923  0.0000E+00  0.1007E-07  0.1069E-11  0.6506E-08  0.0000E+00  0.4240E+15
   -0.629994    3.95495  0.0000E+00  0.1316E-07  0.1410E-11  0.1793E-04  0.0000E+00  0.1770E+14
   -0.664995    4.00168  0.0000E+00  0.1362E-07  0.1463E-11  0.4484E-04  0.0000E+00 -0.1453E+12
   -0.699996    4.00245  0.0000E+00  0.1392E-07  0.1502E-11  0.4528E-04  0.0000E+00 -0.1518E+12
   -0.734997    4.00315  0.0000E+00  0.1421E-07  0.1544E-11  0.4613E-04  0.0000E+00 -0.1557E+12
   -0.769998    4.00382  0.0000E+00  0.1448E-07  0.1589E-11  0.4713E-04  0.0000E+00 -0.1612E+12
   -0.804999    4.00447  0.0000E+00  0.1474E-07  0.1637E-11  0.4775E-04  0.0000E+00 -0.1675E+12
   -0.840000    4.00511  0.0000E+00  0.1499E-07  0.1689E-11  0.4801E-04  0.0000E+00 -0.1749E+12
   -0.875001    4.00575  0.0000E+00  0.1522E-07  0.1745E-11  0.4798E-04  0.0000E+00 -0.1840E+12
   -0.910002    4.00639  0.0000E+00  0.1545E-07  0.1807E-11  0.4774E-04  0.0000E+00 -0.1927E+12
   -0.945002    4.00704  0.0000E+00  0.1565E-07  0.1875E-11  0.4731E-04  0.0000E+00 -0.2021E+12
   -0.980003    4.00770  0.0000E+00  0.1585E-07  0.1950E-11  0.4671E-04  0.0000E+00 -0.2127E+12
   -1.015003    4.00838  0.0000E+00  0.1603E-07  0.2035E-11  0.4590E-04  0.0000E+00 -0.2286E+12
   -1.050003    4.00907  0.0000E+00  0.1620E-07  0.2135E-11  0.4484E-04  0.0000E+00 -0.2486E+12
   -1.085003    4.00981  0.0000E+00  0.1635E-07  0.2254E-11  0.4351E-04  0.0000E+00 -0.2718E+12
   -1.120003    4.01058  0.0000E+00  0.1649E-07  0.2396E-11  0.4183E-04  0.0000E+00 -0.2942E+12
   -1.155003    4.01138  0.0000E+00  0.1660E-07  0.2568E-11  0.3980E-04  0.0000E+00 -0.3224E+12
   -1.190002    4.01224  0.0000E+00  0.1669E-07  0.2785E-11  0.3732E-04  0.0000E+00 -0.3635E+12
   -1.225001    4.01316  0.0000E+00  0.1675E-07  0.3092E-11  0.3425E-04  0.0000E+00 -0.4505E+12
   -1.260000    4.01427  0.0000E+00  0.1676E-07  0.3607E-11  0.2988E-04  0.0000E+00 -0.6441E+12
   -1.294999    4.01576  0.0000E+00  0.1659E-07  0.4888E-11  0.2285E-04  0.0000E+00 -0.1180E+13
   -1.329997    4.01831  0.0000E+00  0.1573E-07  0.8324E-11  0.8387E-05  0.0000E+00 -0.3541E+13
   -1.364995    4.02493  0.0000E+00  0.1159E-07  0.2524E-10  0.1005E-05  0.0000E+00 -0.3767E+14
   -1.399993    4.06577  0.0000E+00  0.0000E+00  0.0000E+00  0.0000E+00  0.0000E+00  0.0000E+00
