 1 - depth, m
 2 - temperature, C
 3 - salinity, kg/kg
 4 - turbulent kinetic energy, m**2/s**2
 5 - dissipation rate, m**2/s**3
 6 - kinematic heat conductance, m**2/s
 7 - modulus of horizontal velocity, m/s
 8 - Richardson number, n/d
   -0.000000    0.00000  0.0000E+00  0.4702E-13  0.1132E-15  0.1000E-09  0.0000E+00  0.7837E+16
   -0.034998    0.11947  0.0000E+00  0.4702E-13  0.1132E-15  0.1000E-09  0.0000E+00  0.7622E+16
   -0.069996    0.23958  0.0000E+00  0.4702E-13  0.1132E-15  0.1000E-09  0.0000E+00  0.7402E+16
   -0.104994    0.36027  0.0000E+00  0.4702E-13  0.1132E-15  0.1000E-09  0.0000E+00  0.7110E+16
   -0.139993    0.48036  0.0000E+00  0.4702E-13  0.1132E-15  0.1000E-09  0.0000E+00  0.6783E+16
   -0.174992    0.59914  0.0000E+00  0.4702E-13  0.1132E-15  0.1000E-09  0.0000E+00  0.6461E+16
   -0.209991    0.71652  0.0000E+00  0.4702E-13  0.1132E-15  0.1000E-09  0.0000E+00  0.6143E+16
   -0.244991    0.83240  0.0000E+00  0.4702E-13  0.1132E-15  0.1000E-09  0.0000E+00  0.5830E+16
   -0.279991    0.94669  0.0000E+00  0.4702E-13  0.1132E-15  0.1000E-09  0.0000E+00  0.5523E+16
   -0.314991    1.05929  0.0000E+00  0.4702E-13  0.1132E-15  0.1000E-09  0.0000E+00  0.5267E+16
   -0.349991    1.17108  0.0000E+00  0.4702E-13  0.1132E-15  0.1000E-09  0.0000E+00  0.5017E+16
   -0.384991    1.28207  0.0000E+00  0.4702E-13  0.1132E-15  0.1000E-09  0.0000E+00  0.4767E+16
   -0.419992    1.39214  0.0000E+00  0.4702E-13  0.1132E-15  0.1000E-09  0.0000E+00  0.4514E+16
   -0.454992    1.50105  0.0000E+00  0.4702E-13  0.1132E-15  0.1000E-09  0.0000E+00  0.4278E+16
   -0.489993    1.60905  0.0000E+00  0.4702E-13  0.1132E-15  0.1000E-09  0.0000E+00  0.4088E+16
   -0.524994    1.71725  0.0000E+00  0.4702E-13  0.1132E-15  0.1000E-09  0.0000E+00  0.4110E+16
   -0.559995    1.83172  0.0000E+00  0.4702E-13  0.1132E-15  0.1000E-09  0.0000E+00  0.4263E+16
   -0.594996    1.95754  0.0000E+00  0.4702E-13  0.1132E-15  0.1000E-09  0.0000E+00  0.4380E+16
   -0.629997    2.09580  0.0000E+00  0.4702E-13  0.1132E-15  0.1000E-09  0.0000E+00  0.3972E+16
   -0.664998    2.23090  0.0000E+00  0.4702E-13  0.1132E-15  0.1000E-09  0.0000E+00  0.3581E+16
   -0.699999    2.36259  0.0000E+00  0.4702E-13  0.1132E-15  0.1000E-09  0.0000E+00  0.3213E+16
   -0.735000    2.49086  0.0000E+00  0.4702E-13  0.1132E-15  0.1000E-09  0.0000E+00  0.2888E+16
   -0.770001    2.61662  0.0000E+00  0.4702E-13  0.1132E-15  0.1000E-09  0.0000E+00  0.2618E+16
   -0.805003    2.74185  0.0000E+00  0.1575E-12  0.1148E-15  0.1000E-09  0.0000E+00  0.2345E+16
   -0.840004    2.86612  0.0000E+00  0.4710E-12  0.2441E-15  0.1000E-09  0.0000E+00  0.2075E+16
   -0.875005    2.98914  0.0000E+00  0.1224E-11  0.5847E-15  0.1000E-09  0.0000E+00  0.1813E+16
   -0.910005    3.11090  0.0000E+00  0.3029E-11  0.1395E-14  0.1000E-09  0.0000E+00  0.1540E+16
   -0.945006    3.22980  0.0000E+00  0.7324E-11  0.3280E-14  0.1000E-09  0.0000E+00  0.1277E+16
   -0.980007    3.34514  0.0000E+00  0.1752E-10  0.7644E-14  0.1000E-09  0.0000E+00  0.1031E+16
   -1.015007    3.45654  0.0000E+00  0.4185E-10  0.1780E-13  0.1000E-09  0.0000E+00  0.8174E+15
   -1.050008    3.56550  0.0000E+00  0.1001E-09  0.4153E-13  0.1721E-09  0.0000E+00  0.6216E+15
   -1.085008    3.67298  0.0000E+00  0.2396E-09  0.9696E-13  0.5485E-09  0.0000E+00  0.4546E+15
   -1.120008    3.78537  0.0000E+00  0.5651E-09  0.2234E-12  0.2247E-08  0.0000E+00  0.2544E+15
   -1.155008    3.89698  0.0000E+00  0.1308E-08  0.5065E-12  0.2029E-07  0.0000E+00  0.6167E+14
   -1.190007    3.99714  0.0000E+00  0.2542E-08  0.9854E-12  0.1935E-05  0.0000E+00 -0.1901E+13
   -1.225006    4.00531  0.0000E+00  0.3541E-08  0.1538E-11  0.2686E-05  0.0000E+00 -0.2556E+13
   -1.260005    4.01253  0.0000E+00  0.4635E-08  0.2412E-11  0.3311E-05  0.0000E+00 -0.3902E+13
   -1.295004    4.02075  0.0000E+00  0.5905E-08  0.4103E-11  0.3500E-05  0.0000E+00 -0.7266E+13
   -1.330003    4.03229  0.0000E+00  0.6404E-08  0.6612E-11  0.2153E-05  0.0000E+00 -0.1483E+14
   -1.365001    4.04962  0.0000E+00  0.5507E-08  0.1319E-10  0.5956E-06  0.0000E+00 -0.6574E+14
   -1.399998    4.09772  0.0000E+00  0.0000E+00  0.0000E+00  0.0000E+00  0.0000E+00  0.0000E+00
