 1 - depth, m
 2 - temperature, C
 3 - salinity, kg/kg
 4 - turbulent kinetic energy, m**2/s**2
 5 - dissipation rate, m**2/s**3
 6 - kinematic heat conductance, m**2/s
 7 - modulus of horizontal velocity, m/s
 8 - Richardson number, n/d
   -0.000000    0.00000  0.0000E+00  0.4702E-13  0.1132E-15  0.1000E-09  0.0000E+00  0.5703E+16
   -0.034998    0.08655  0.0000E+00  0.4702E-13  0.1132E-15  0.1000E-09  0.0000E+00  0.5599E+16
   -0.069996    0.17357  0.0000E+00  0.4702E-13  0.1132E-15  0.1000E-09  0.0000E+00  0.5493E+16
   -0.104995    0.26106  0.0000E+00  0.4702E-13  0.1132E-15  0.1000E-09  0.0000E+00  0.5343E+16
   -0.139993    0.34830  0.0000E+00  0.4702E-13  0.1132E-15  0.1000E-09  0.0000E+00  0.5169E+16
   -0.174992    0.43486  0.0000E+00  0.4702E-13  0.1132E-15  0.1000E-09  0.0000E+00  0.4996E+16
   -0.209992    0.52070  0.0000E+00  0.4702E-13  0.1132E-15  0.1000E-09  0.0000E+00  0.4823E+16
   -0.244991    0.60576  0.0000E+00  0.4702E-13  0.1132E-15  0.1000E-09  0.0000E+00  0.4650E+16
   -0.279991    0.68998  0.0000E+00  0.4702E-13  0.1132E-15  0.1000E-09  0.0000E+00  0.4480E+16
   -0.314991    0.77332  0.0000E+00  0.4702E-13  0.1132E-15  0.1000E-09  0.0000E+00  0.4367E+16
   -0.349991    0.85681  0.0000E+00  0.4702E-13  0.1132E-15  0.1000E-09  0.0000E+00  0.4259E+16
   -0.384992    0.94057  0.0000E+00  0.4702E-13  0.1132E-15  0.1000E-09  0.0000E+00  0.4151E+16
   -0.419992    1.02460  0.0000E+00  0.4702E-13  0.1132E-15  0.1000E-09  0.0000E+00  0.4025E+16
   -0.454993    1.10854  0.0000E+00  0.4702E-13  0.1132E-15  0.1000E-09  0.0000E+00  0.3907E+16
   -0.489994    1.19253  0.0000E+00  0.4702E-13  0.1132E-15  0.1000E-09  0.0000E+00  0.3846E+16
   -0.524995    1.27789  0.0000E+00  0.4702E-13  0.1132E-15  0.1000E-09  0.0000E+00  0.4070E+16
   -0.559996    1.37138  0.0000E+00  0.4702E-13  0.1132E-15  0.1000E-09  0.0000E+00  0.4508E+16
   -0.594997    1.47919  0.0000E+00  0.4702E-13  0.1132E-15  0.1000E-09  0.0000E+00  0.4940E+16
   -0.629998    1.60317  0.0000E+00  0.4702E-13  0.1132E-15  0.1000E-09  0.0000E+00  0.4625E+16
   -0.664999    1.72568  0.0000E+00  0.4702E-13  0.1132E-15  0.1000E-09  0.0000E+00  0.4317E+16
   -0.700000    1.84657  0.0000E+00  0.4702E-13  0.1132E-15  0.1000E-09  0.0000E+00  0.4025E+16
   -0.735001    1.96604  0.0000E+00  0.4702E-13  0.1132E-15  0.1000E-09  0.0000E+00  0.3766E+16
   -0.770003    2.08485  0.0000E+00  0.4702E-13  0.1132E-15  0.1000E-09  0.0000E+00  0.3550E+16
   -0.805004    2.20431  0.0000E+00  0.4702E-13  0.1132E-15  0.1000E-09  0.0000E+00  0.3320E+16
   -0.840005    2.32403  0.0000E+00  0.4702E-13  0.1132E-15  0.1000E-09  0.0000E+00  0.3085E+16
   -0.875006    2.44383  0.0000E+00  0.4702E-13  0.1132E-15  0.1000E-09  0.0000E+00  0.2853E+16
   -0.910007    2.56380  0.0000E+00  0.4702E-13  0.1132E-15  0.1000E-09  0.0000E+00  0.2587E+16
   -0.945008    2.68234  0.0000E+00  0.4702E-13  0.1132E-15  0.1000E-09  0.0000E+00  0.2319E+16
   -0.980008    2.79883  0.0000E+00  0.4702E-13  0.1132E-15  0.1000E-09  0.0000E+00  0.2059E+16
   -1.015009    2.91303  0.0000E+00  0.4702E-13  0.1132E-15  0.1000E-09  0.0000E+00  0.1843E+16
   -1.050009    3.02695  0.0000E+00  0.1469E-12  0.1877E-15  0.1000E-09  0.0000E+00  0.1644E+16
   -1.085009    3.14163  0.0000E+00  0.5888E-12  0.6719E-15  0.1000E-09  0.0000E+00  0.1493E+16
   -1.120009    3.26160  0.0000E+00  0.2248E-11  0.2470E-14  0.1000E-09  0.0000E+00  0.1269E+16
   -1.155009    3.38223  0.0000E+00  0.8413E-11  0.8959E-14  0.1000E-09  0.0000E+00  0.1044E+16
   -1.190009    3.50391  0.0000E+00  0.3124E-10  0.3230E-13  0.1001E-09  0.0000E+00  0.8344E+15
   -1.225008    3.63011  0.0000E+00  0.1211E-09  0.1218E-12  0.4627E-09  0.0000E+00  0.6585E+15
   -1.260007    3.77850  0.0000E+00  0.4952E-09  0.4854E-12  0.3498E-08  0.0000E+00  0.3378E+15
   -1.295006    3.97442  0.0000E+00  0.2151E-08  0.2089E-11  0.6349E-06  0.0000E+00 -0.1157E+14
   -1.330005    4.02656  0.0000E+00  0.3950E-08  0.5074E-11  0.1173E-05  0.0000E+00 -0.2405E+14
   -1.365003    4.05481  0.0000E+00  0.4037E-08  0.9897E-11  0.4687E-06  0.0000E+00 -0.7414E+14
   -1.400001    4.10535  0.0000E+00  0.0000E+00  0.0000E+00  0.0000E+00  0.0000E+00  0.0000E+00
