 1 - depth, m
 2 - temperature, C
 3 - salinity, kg/kg
 4 - turbulent kinetic energy, m**2/s**2
 5 - dissipation rate, m**2/s**3
 6 - kinematic heat conductance, m**2/s
 7 - modulus of horizontal velocity, m/s
 8 - Richardson number, n/d
   -0.000000    0.16555  0.0000E+00  0.3562E-04  0.6249E-05  0.2478E-04  0.4178E-01  0.1666E-01
   -0.034998    0.19427  0.0000E+00  0.2437E-04  0.1906E-05  0.4113E-04  0.2194E-01  0.1007E-01
   -0.069996    0.20494  0.0000E+00  0.1937E-04  0.9194E-06  0.5065E-04  0.1671E-01  0.1949E-01
   -0.104994    0.21255  0.0000E+00  0.1599E-04  0.5261E-06  0.5691E-04  0.1342E-01  0.3029E-01
   -0.139993    0.21912  0.0000E+00  0.1345E-04  0.3329E-06  0.6052E-04  0.1098E-01  0.4472E-01
   -0.174992    0.22517  0.0000E+00  0.1146E-04  0.2253E-06  0.6188E-04  0.9057E-02  0.6414E-01
   -0.209992    0.23097  0.0000E+00  0.9837E-05  0.1604E-06  0.6110E-04  0.7473E-02  0.8858E-01
   -0.244991    0.23679  0.0000E+00  0.8472E-05  0.1186E-06  0.5814E-04  0.6116E-02  0.1173E+00
   -0.279991    0.24289  0.0000E+00  0.7220E-05  0.8924E-07  0.5194E-04  0.4902E-02  0.1394E+00
   -0.314991    0.24995  0.0000E+00  0.5897E-05  0.6536E-07  0.4750E-04  0.3720E-02  0.3182E+00
   -0.349991    0.25831  0.0000E+00  0.4692E-05  0.4734E-07  0.4070E-04  0.2813E-02  0.1217E+01
   -0.384991    0.27765  0.0000E+00  0.3665E-05  0.3411E-07  0.3333E-04  0.2092E-02  0.1909E+02
   -0.419992    0.32964  0.0000E+00  0.2837E-05  0.2470E-07  0.2552E-04  0.1545E-02  0.5658E+03
   -0.454993    0.42422  0.0000E+00  0.2161E-05  0.1785E-07  0.1849E-04  0.1081E-02  0.2359E+05
   -0.489993    0.58422  0.0000E+00  0.1609E-05  0.1273E-07  0.1308E-04  0.6609E-03  0.1779E+07
   -0.524994    0.81674  0.0000E+00  0.1162E-05  0.8717E-08  0.9372E-05  0.3250E-03  0.4008E+09
   -0.559995    1.05009  0.0000E+00  0.8531E-06  0.5820E-08  0.6127E-05  0.1611E-03  0.2309E+11
   -0.594996    1.17964  0.0000E+00  0.5714E-06  0.3574E-08  0.8282E-04  0.8985E-04  0.1021E+12
   -0.629997    1.25488  0.0000E+00  0.3586E-06  0.2007E-08  0.7823E-04  0.6599E-04  0.2584E+12
   -0.664999    1.32910  0.0000E+00  0.1979E-06  0.8711E-09  0.7427E-04  0.4185E-04  0.8058E+10
   -0.700000    1.40556  0.0000E+00  0.1019E-06  0.2006E-09  0.7348E-04  0.1510E-04  0.7580E+12
   -0.735001    1.47399  0.0000E+00  0.7639E-07  0.4892E-10  0.5801E-04  0.2808E-05  0.6510E+14
   -0.770002    1.50893  0.0000E+00  0.6315E-07  0.2496E-10  0.1140E-04  0.4108E-06  0.6632E+15
   -0.805003    1.53899  0.0000E+00  0.4459E-07  0.1711E-10  0.1036E-05  0.5369E-07  0.9772E+15
   -0.840004    1.57649  0.0000E+00  0.2521E-07  0.9908E-11  0.1620E-07  0.7137E-08  0.1246E+16
   -0.875005    1.62836  0.0000E+00  0.1267E-07  0.5039E-11  0.5183E-08  0.8284E-09  0.1491E+16
   -0.910006    1.69048  0.0000E+00  0.6248E-08  0.2693E-11  0.2032E-08  0.1047E-09  0.2124E+16
   -0.945007    1.76941  0.0000E+00  0.2997E-08  0.1608E-11  0.8911E-09  0.1314E-10  0.3123E+16
   -0.980007    1.86665  0.0000E+00  0.1338E-08  0.1180E-11  0.4421E-09  0.1558E-11  0.3738E+16
   -1.015008    1.98124  0.0000E+00  0.5443E-09  0.1012E-11  0.2692E-09  0.1445E-12  0.3493E+16
   -1.050008    2.09483  0.0000E+00  0.1492E-09  0.9721E-12  0.2079E-09  0.1207E-13  0.3213E+16
   -1.085008    2.20732  0.0000E+00  0.1291E-10  0.9775E-12  0.1221E-09  0.9216E-15  0.4045E+16
   -1.120008    2.35851  0.0000E+00  0.2080E-10  0.1016E-11  0.1297E-09  0.8052E-16  0.5044E+16
   -1.155008    2.56639  0.0000E+00  0.1197E-09  0.1284E-11  0.3316E-09  0.6338E-17  0.5561E+16
   -1.190008    2.83568  0.0000E+00  0.7124E-09  0.2918E-11  0.2182E-08  0.4055E-18  0.5237E+16
   -1.225007    3.16595  0.0000E+00  0.2141E-08  0.7377E-11  0.1655E-06  0.1644E-19  0.3842E+16
   -1.260006    3.51915  0.0000E+00  0.3539E-08  0.1483E-10  0.2943E-06  0.1196E-20  0.1876E+16
   -1.295005    3.86685  0.0000E+00  0.4865E-08  0.2447E-10  0.3978E-06  0.1352E-21 -0.5803E+15
   -1.330003    4.25418  0.0000E+00  0.5471E-08  0.3433E-10  0.3234E-06  0.3000E-22 -0.2859E+16
   -1.365002    4.63926  0.0000E+00  0.4558E-08  0.5961E-10  0.1089E-06  0.5505E-23 -0.3843E+16
   -1.399999    4.94638  0.0000E+00  0.0000E+00  0.0000E+00  0.0000E+00  0.5600E-23  0.0000E+00
