 1 - depth, m
 2 - temperature, C
 3 - salinity, kg/kg
 4 - turbulent kinetic energy, m**2/s**2
 5 - dissipation rate, m**2/s**3
 6 - kinematic heat conductance, m**2/s
 7 - modulus of horizontal velocity, m/s
 8 - Richardson number, n/d
   -0.000000    0.00000  0.0000E+00  0.4702E-13  0.1132E-15  0.1000E-09  0.0000E+00  0.8986E+16
   -0.034998    0.13732  0.0000E+00  0.4702E-13  0.1132E-15  0.1000E-09  0.0000E+00  0.8766E+16
   -0.069996    0.27651  0.0000E+00  0.4702E-13  0.1132E-15  0.1000E-09  0.0000E+00  0.8537E+16
   -0.104995    0.41762  0.0000E+00  0.4702E-13  0.1132E-15  0.1000E-09  0.0000E+00  0.8203E+16
   -0.139993    0.55901  0.0000E+00  0.4702E-13  0.1132E-15  0.1000E-09  0.0000E+00  0.7815E+16
   -0.174993    0.69972  0.0000E+00  0.4702E-13  0.1132E-15  0.1000E-09  0.0000E+00  0.7430E+16
   -0.209992    0.83968  0.0000E+00  0.4702E-13  0.1132E-15  0.1000E-09  0.0000E+00  0.7049E+16
   -0.244992    0.97879  0.0000E+00  0.4702E-13  0.1132E-15  0.1000E-09  0.0000E+00  0.6671E+16
   -0.279991    1.11698  0.0000E+00  0.4702E-13  0.1132E-15  0.1000E-09  0.0000E+00  0.6298E+16
   -0.314991    1.25416  0.0000E+00  0.4702E-13  0.1132E-15  0.1000E-09  0.0000E+00  0.5956E+16
   -0.349992    1.39089  0.0000E+00  0.1795E-12  0.1132E-15  0.1000E-09  0.0000E+00  0.5618E+16
   -0.384992    1.52713  0.0000E+00  0.5111E-12  0.1382E-15  0.1000E-09  0.0000E+00  0.5281E+16
   -0.419993    1.66277  0.0000E+00  0.1093E-11  0.2239E-15  0.1000E-09  0.0000E+00  0.4951E+16
   -0.454993    1.79787  0.0000E+00  0.2080E-11  0.3859E-15  0.1000E-09  0.0000E+00  0.4640E+16
   -0.489994    1.93285  0.0000E+00  0.3771E-11  0.6690E-15  0.1000E-09  0.0000E+00  0.4365E+16
   -0.524995    2.06878  0.0000E+00  0.6994E-11  0.1206E-14  0.1000E-09  0.0000E+00  0.4246E+16
   -0.559996    2.21132  0.0000E+00  0.1348E-10  0.2274E-14  0.1000E-09  0.0000E+00  0.4214E+16
   -0.594997    2.36551  0.0000E+00  0.2743E-10  0.4538E-14  0.1000E-09  0.0000E+00  0.4126E+16
   -0.629998    2.53267  0.0000E+00  0.5052E-10  0.8225E-14  0.1000E-09  0.0000E+00  0.3630E+16
   -0.665000    2.69803  0.0000E+00  0.8848E-10  0.1418E-13  0.1000E-09  0.0000E+00  0.3148E+16
   -0.700001    2.86144  0.0000E+00  0.1521E-09  0.2399E-13  0.1000E-09  0.0000E+00  0.2686E+16
   -0.735002    3.02296  0.0000E+00  0.2603E-09  0.4037E-13  0.1000E-09  0.0000E+00  0.2254E+16
   -0.770003    3.18363  0.0000E+00  0.4440E-09  0.6774E-13  0.1012E-09  0.0000E+00  0.1852E+16
   -0.805004    3.34553  0.0000E+00  0.7557E-09  0.1134E-12  0.2042E-09  0.0000E+00  0.1439E+16
   -0.840005    3.50827  0.0000E+00  0.1281E-08  0.1892E-12  0.4805E-09  0.0000E+00  0.1020E+16
   -0.875006    3.67154  0.0000E+00  0.2168E-08  0.3149E-12  0.1363E-08  0.0000E+00  0.5987E+15
   -0.910007    3.83489  0.0000E+00  0.3644E-08  0.5212E-12  0.7523E-08  0.0000E+00  0.1797E+15
   -0.945008    3.99109  0.0000E+00  0.4431E-08  0.6372E-12  0.8623E-05  0.0000E+00 -0.2504E+12
   -0.980009    3.99377  0.0000E+00  0.4876E-08  0.7166E-12  0.1054E-04  0.0000E+00 -0.2865E+12
   -1.015009    3.99593  0.0000E+00  0.5295E-08  0.8048E-12  0.1187E-04  0.0000E+00 -0.3192E+12
   -1.050010    3.99786  0.0000E+00  0.5698E-08  0.9054E-12  0.1274E-04  0.0000E+00 -0.3565E+12
   -1.085010    3.99969  0.0000E+00  0.6090E-08  0.1023E-11  0.1328E-04  0.0000E+00 -0.4046E+12
   -1.120010    4.00150  0.0000E+00  0.6463E-08  0.1161E-11  0.1317E-04  0.0000E+00 -0.4625E+12
   -1.155010    4.00333  0.0000E+00  0.6814E-08  0.1327E-11  0.1266E-04  0.0000E+00 -0.5410E+12
   -1.190010    4.00526  0.0000E+00  0.7144E-08  0.1538E-11  0.1186E-04  0.0000E+00 -0.6566E+12
   -1.225009    4.00735  0.0000E+00  0.7473E-08  0.1838E-11  0.1116E-04  0.0000E+00 -0.8688E+12
   -1.260008    4.00984  0.0000E+00  0.7801E-08  0.2326E-11  0.1030E-04  0.0000E+00 -0.1315E+13
   -1.295007    4.01317  0.0000E+00  0.8067E-08  0.3410E-11  0.7853E-05  0.0000E+00 -0.2686E+13
   -1.330005    4.01894  0.0000E+00  0.7756E-08  0.5617E-11  0.3476E-05  0.0000E+00 -0.7023E+13
   -1.365004    4.03060  0.0000E+00  0.5931E-08  0.1277E-10  0.6267E-06  0.0000E+00 -0.4681E+14
   -1.400002    4.07544  0.0000E+00  0.0000E+00  0.0000E+00  0.0000E+00  0.0000E+00  0.0000E+00
