 1 - depth, m
 2 - temperature, C
 3 - salinity, kg/kg
 4 - turbulent kinetic energy, m**2/s**2
 5 - dissipation rate, m**2/s**3
 6 - kinematic heat conductance, m**2/s
 7 - modulus of horizontal velocity, m/s
 8 - Richardson number, n/d
   -0.000000    0.00000  0.0000E+00  0.4701E-13  0.1132E-15  0.1000E-09  0.0000E+00  0.5056E+16
   -0.034998    0.07664  0.0000E+00  0.4701E-13  0.1132E-15  0.1000E-09  0.0000E+00  0.4924E+16
   -0.069997    0.15284  0.0000E+00  0.4701E-13  0.1132E-15  0.1000E-09  0.0000E+00  0.4809E+16
   -0.104996    0.22886  0.0000E+00  0.4701E-13  0.1132E-15  0.1000E-09  0.0000E+00  0.4683E+16
   -0.139995    0.30450  0.0000E+00  0.4701E-13  0.1132E-15  0.1000E-09  0.0000E+00  0.4554E+16
   -0.174994    0.37967  0.0000E+00  0.4701E-13  0.1132E-15  0.1000E-09  0.0000E+00  0.4434E+16
   -0.209994    0.45450  0.0000E+00  0.4701E-13  0.1132E-15  0.1000E-09  0.0000E+00  0.4323E+16
   -0.244994    0.52909  0.0000E+00  0.4701E-13  0.1132E-15  0.1000E-09  0.0000E+00  0.4220E+16
   -0.279994    0.60359  0.0000E+00  0.4701E-13  0.1132E-15  0.1000E-09  0.0000E+00  0.4125E+16
   -0.314995    0.67814  0.0000E+00  0.4701E-13  0.1132E-15  0.1000E-09  0.0000E+00  0.4044E+16
   -0.349996    0.75298  0.0000E+00  0.4701E-13  0.1132E-15  0.1000E-09  0.0000E+00  0.3969E+16
   -0.384996    0.82826  0.0000E+00  0.4701E-13  0.1132E-15  0.1000E-09  0.0000E+00  0.3898E+16
   -0.419997    0.90407  0.0000E+00  0.4701E-13  0.1132E-15  0.1000E-09  0.0000E+00  0.3836E+16
   -0.454998    0.98065  0.0000E+00  0.4701E-13  0.1132E-15  0.1000E-09  0.0000E+00  0.3793E+16
   -0.490000    1.05843  0.0000E+00  0.4701E-13  0.1132E-15  0.1000E-09  0.0000E+00  0.3790E+16
   -0.525001    1.13839  0.0000E+00  0.4701E-13  0.1132E-15  0.1000E-09  0.0000E+00  0.3958E+16
   -0.560002    1.22449  0.0000E+00  0.4701E-13  0.1132E-15  0.1000E-09  0.0000E+00  0.4280E+16
   -0.595004    1.32086  0.0000E+00  0.4701E-13  0.1132E-15  0.1000E-09  0.0000E+00  0.4603E+16
   -0.630005    1.42873  0.0000E+00  0.4701E-13  0.1132E-15  0.1000E-09  0.0000E+00  0.4428E+16
   -0.665007    1.53716  0.0000E+00  0.4701E-13  0.1132E-15  0.1000E-09  0.0000E+00  0.4239E+16
   -0.700009    1.64588  0.0000E+00  0.4701E-13  0.1132E-15  0.1000E-09  0.0000E+00  0.4051E+16
   -0.735010    1.75492  0.0000E+00  0.4701E-13  0.1132E-15  0.1000E-09  0.0000E+00  0.3880E+16
   -0.770012    1.86480  0.0000E+00  0.4701E-13  0.1132E-15  0.1000E-09  0.0000E+00  0.3733E+16
   -0.805013    1.97640  0.0000E+00  0.4701E-13  0.1132E-15  0.1000E-09  0.0000E+00  0.3571E+16
   -0.840015    2.08950  0.0000E+00  0.4701E-13  0.1132E-15  0.1000E-09  0.0000E+00  0.3399E+16
   -0.875016    2.20402  0.0000E+00  0.4701E-13  0.1132E-15  0.1000E-09  0.0000E+00  0.3222E+16
   -0.910017    2.32005  0.0000E+00  0.4701E-13  0.1132E-15  0.1000E-09  0.0000E+00  0.3007E+16
   -0.945019    2.43639  0.0000E+00  0.4701E-13  0.1132E-15  0.1000E-09  0.0000E+00  0.2780E+16
   -0.980020    2.55255  0.0000E+00  0.4701E-13  0.1132E-15  0.1000E-09  0.0000E+00  0.2551E+16
   -1.015021    2.66834  0.0000E+00  0.4701E-13  0.1132E-15  0.1000E-09  0.0000E+00  0.2357E+16
   -1.050022    2.78542  0.0000E+00  0.4701E-13  0.1132E-15  0.1000E-09  0.0000E+00  0.2171E+16
   -1.085022    2.90469  0.0000E+00  0.8663E-13  0.1560E-15  0.1000E-09  0.0000E+00  0.2037E+16
   -1.120023    3.03027  0.0000E+00  0.4004E-12  0.6675E-15  0.1000E-09  0.0000E+00  0.1813E+16
   -1.155023    3.15815  0.0000E+00  0.1910E-11  0.3082E-14  0.1000E-09  0.0000E+00  0.1581E+16
   -1.190023    3.28883  0.0000E+00  0.9041E-11  0.1417E-13  0.1000E-09  0.0000E+00  0.1363E+16
   -1.225023    3.42575  0.0000E+00  0.4472E-10  0.6816E-13  0.1390E-09  0.0000E+00  0.1217E+16
   -1.260022    3.58624  0.0000E+00  0.2331E-09  0.3460E-12  0.8695E-09  0.0000E+00  0.9816E+15
   -1.295021    3.79840  0.0000E+00  0.1390E-08  0.2017E-11  0.1924E-07  0.0000E+00  0.2310E+15
   -1.330020    4.06336  0.0000E+00  0.5470E-08  0.8220E-11  0.1482E-05  0.0000E+00 -0.3386E+14
   -1.365019    4.08765  0.0000E+00  0.5522E-08  0.1484E-10  0.5822E-06  0.0000E+00 -0.8872E+14
   -1.400017    4.13335  0.0000E+00  0.0000E+00  0.0000E+00  0.0000E+00  0.0000E+00  0.0000E+00
