 1 - depth, m
 2 - temperature, C
 3 - salinity, kg/kg
 4 - turbulent kinetic energy, m**2/s**2
 5 - dissipation rate, m**2/s**3
 6 - kinematic heat conductance, m**2/s
 7 - modulus of horizontal velocity, m/s
 8 - Richardson number, n/d
   -0.000000    0.00000  0.0000E+00  0.4702E-13  0.1132E-15  0.1000E-09  0.0000E+00  0.6855E+16
   -0.034998    0.10429  0.0000E+00  0.4702E-13  0.1132E-15  0.1000E-09  0.0000E+00  0.6739E+16
   -0.069996    0.20981  0.0000E+00  0.4702E-13  0.1132E-15  0.1000E-09  0.0000E+00  0.6629E+16
   -0.104995    0.31677  0.0000E+00  0.4702E-13  0.1132E-15  0.1000E-09  0.0000E+00  0.6453E+16
   -0.139993    0.42417  0.0000E+00  0.4702E-13  0.1132E-15  0.1000E-09  0.0000E+00  0.6244E+16
   -0.174993    0.53147  0.0000E+00  0.4702E-13  0.1132E-15  0.1000E-09  0.0000E+00  0.6043E+16
   -0.209992    0.63877  0.0000E+00  0.4702E-13  0.1132E-15  0.1000E-09  0.0000E+00  0.5845E+16
   -0.244991    0.74615  0.0000E+00  0.4702E-13  0.1132E-15  0.1000E-09  0.0000E+00  0.5651E+16
   -0.279991    0.85365  0.0000E+00  0.4702E-13  0.1132E-15  0.1000E-09  0.0000E+00  0.5459E+16
   -0.314991    0.96134  0.0000E+00  0.4702E-13  0.1132E-15  0.1000E-09  0.0000E+00  0.5305E+16
   -0.349992    1.06997  0.0000E+00  0.4702E-13  0.1132E-15  0.1000E-09  0.0000E+00  0.5151E+16
   -0.384992    1.17969  0.0000E+00  0.4702E-13  0.1132E-15  0.1000E-09  0.0000E+00  0.4994E+16
   -0.419993    1.29052  0.0000E+00  0.4702E-13  0.1132E-15  0.1000E-09  0.0000E+00  0.4817E+16
   -0.454993    1.40215  0.0000E+00  0.4702E-13  0.1132E-15  0.1000E-09  0.0000E+00  0.4639E+16
   -0.489994    1.51461  0.0000E+00  0.4702E-13  0.1132E-15  0.1000E-09  0.0000E+00  0.4494E+16
   -0.524995    1.62889  0.0000E+00  0.4702E-13  0.1132E-15  0.1000E-09  0.0000E+00  0.4530E+16
   -0.559996    1.75022  0.0000E+00  0.4702E-13  0.1132E-15  0.1000E-09  0.0000E+00  0.4690E+16
   -0.594997    1.88350  0.0000E+00  0.4702E-13  0.1132E-15  0.1000E-09  0.0000E+00  0.4815E+16
   -0.629998    2.03009  0.0000E+00  0.2301E-12  0.1205E-15  0.1000E-09  0.0000E+00  0.4432E+16
   -0.664999    2.17583  0.0000E+00  0.6249E-12  0.2312E-15  0.1000E-09  0.0000E+00  0.4054E+16
   -0.700001    2.32064  0.0000E+00  0.1430E-11  0.4821E-15  0.1000E-09  0.0000E+00  0.3689E+16
   -0.735002    2.46469  0.0000E+00  0.3105E-11  0.1007E-14  0.1000E-09  0.0000E+00  0.3346E+16
   -0.770003    2.60867  0.0000E+00  0.6607E-11  0.2086E-14  0.1000E-09  0.0000E+00  0.3029E+16
   -0.805004    2.75378  0.0000E+00  0.1392E-10  0.4292E-14  0.1000E-09  0.0000E+00  0.2700E+16
   -0.840005    2.89971  0.0000E+00  0.2908E-10  0.8762E-14  0.1000E-09  0.0000E+00  0.2365E+16
   -0.875006    3.04632  0.0000E+00  0.6041E-10  0.1780E-13  0.1000E-09  0.0000E+00  0.2028E+16
   -0.910007    3.19370  0.0000E+00  0.1246E-09  0.3591E-13  0.1000E-09  0.0000E+00  0.1673E+16
   -0.945008    3.34047  0.0000E+00  0.2545E-09  0.7176E-13  0.1408E-09  0.0000E+00  0.1319E+16
   -0.980009    3.48604  0.0000E+00  0.5167E-09  0.1426E-12  0.3793E-09  0.0000E+00  0.9726E+15
   -1.015009    3.63002  0.0000E+00  0.1050E-08  0.2838E-12  0.1141E-08  0.0000E+00  0.6431E+15
   -1.050010    3.77368  0.0000E+00  0.2141E-08  0.5664E-12  0.4631E-08  0.0000E+00  0.3154E+15
   -1.085010    3.91537  0.0000E+00  0.4225E-08  0.1100E-11  0.8034E-07  0.0000E+00  0.3409E+14
   -1.120010    4.01251  0.0000E+00  0.5751E-08  0.1512E-11  0.8814E-05  0.0000E+00 -0.1035E+13
   -1.155010    4.01492  0.0000E+00  0.6504E-08  0.1772E-11  0.9182E-05  0.0000E+00 -0.1089E+13
   -1.190009    4.01726  0.0000E+00  0.7148E-08  0.2073E-11  0.9145E-05  0.0000E+00 -0.1213E+13
   -1.225009    4.01967  0.0000E+00  0.7748E-08  0.2480E-11  0.9122E-05  0.0000E+00 -0.1488E+13
   -1.260008    4.02241  0.0000E+00  0.8317E-08  0.3103E-11  0.8976E-05  0.0000E+00 -0.2080E+13
   -1.295007    4.02591  0.0000E+00  0.8788E-08  0.4361E-11  0.7516E-05  0.0000E+00 -0.3751E+13
   -1.330005    4.03156  0.0000E+00  0.8487E-08  0.6636E-11  0.3601E-05  0.0000E+00 -0.8299E+13
   -1.365003    4.04206  0.0000E+00  0.6365E-08  0.1395E-10  0.6464E-06  0.0000E+00 -0.4739E+14
   -1.400001    4.08204  0.0000E+00  0.0000E+00  0.0000E+00  0.0000E+00  0.0000E+00  0.0000E+00
