 1 - depth, m
 2 - temperature, C
 3 - salinity, kg/kg
 4 - turbulent kinetic energy, m**2/s**2
 5 - dissipation rate, m**2/s**3
 6 - kinematic heat conductance, m**2/s
 7 - modulus of horizontal velocity, m/s
 8 - Richardson number, n/d
   -0.000000    0.00000  0.0000E+00  0.4702E-13  0.1132E-15  0.1000E-09  0.0000E+00  0.8213E+16
   -0.034998    0.12531  0.0000E+00  0.4702E-13  0.1132E-15  0.1000E-09  0.0000E+00  0.7997E+16
   -0.069996    0.25164  0.0000E+00  0.4702E-13  0.1132E-15  0.1000E-09  0.0000E+00  0.7770E+16
   -0.104994    0.37888  0.0000E+00  0.4702E-13  0.1132E-15  0.1000E-09  0.0000E+00  0.7458E+16
   -0.139993    0.50567  0.0000E+00  0.4702E-13  0.1132E-15  0.1000E-09  0.0000E+00  0.7103E+16
   -0.174992    0.63115  0.0000E+00  0.4702E-13  0.1132E-15  0.1000E-09  0.0000E+00  0.6749E+16
   -0.209992    0.75516  0.0000E+00  0.4702E-13  0.1132E-15  0.1000E-09  0.0000E+00  0.6399E+16
   -0.244991    0.87755  0.0000E+00  0.4702E-13  0.1132E-15  0.1000E-09  0.0000E+00  0.6052E+16
   -0.279991    0.99818  0.0000E+00  0.4702E-13  0.1132E-15  0.1000E-09  0.0000E+00  0.5712E+16
   -0.314991    1.11692  0.0000E+00  0.4702E-13  0.1132E-15  0.1000E-09  0.0000E+00  0.5420E+16
   -0.349991    1.23454  0.0000E+00  0.4702E-13  0.1132E-15  0.1000E-09  0.0000E+00  0.5133E+16
   -0.384991    1.35101  0.0000E+00  0.4702E-13  0.1132E-15  0.1000E-09  0.0000E+00  0.4848E+16
   -0.419992    1.46617  0.0000E+00  0.4702E-13  0.1132E-15  0.1000E-09  0.0000E+00  0.4566E+16
   -0.454993    1.57990  0.0000E+00  0.4702E-13  0.1132E-15  0.1000E-09  0.0000E+00  0.4306E+16
   -0.489993    1.69251  0.0000E+00  0.4702E-13  0.1132E-15  0.1000E-09  0.0000E+00  0.4090E+16
   -0.524994    1.80506  0.0000E+00  0.4702E-13  0.1132E-15  0.1000E-09  0.0000E+00  0.4067E+16
   -0.559995    1.92331  0.0000E+00  0.4702E-13  0.1132E-15  0.1000E-09  0.0000E+00  0.4160E+16
   -0.594996    2.05199  0.0000E+00  0.4702E-13  0.1132E-15  0.1000E-09  0.0000E+00  0.4214E+16
   -0.629997    2.19203  0.0000E+00  0.4702E-13  0.1132E-15  0.1000E-09  0.0000E+00  0.3799E+16
   -0.664998    2.32870  0.0000E+00  0.4702E-13  0.1132E-15  0.1000E-09  0.0000E+00  0.3401E+16
   -0.700000    2.46172  0.0000E+00  0.4702E-13  0.1132E-15  0.1000E-09  0.0000E+00  0.3026E+16
   -0.735001    2.59101  0.0000E+00  0.6555E-13  0.1132E-15  0.1000E-09  0.0000E+00  0.2696E+16
   -0.770002    2.71748  0.0000E+00  0.2738E-12  0.1470E-15  0.1000E-09  0.0000E+00  0.2422E+16
   -0.805003    2.84326  0.0000E+00  0.7459E-12  0.3112E-15  0.1000E-09  0.0000E+00  0.2147E+16
   -0.840004    2.96791  0.0000E+00  0.1778E-11  0.6924E-15  0.1000E-09  0.0000E+00  0.1875E+16
   -0.875005    3.09112  0.0000E+00  0.4067E-11  0.1531E-14  0.1000E-09  0.0000E+00  0.1612E+16
   -0.910006    3.21286  0.0000E+00  0.9131E-11  0.3348E-14  0.1000E-09  0.0000E+00  0.1343E+16
   -0.945007    3.33156  0.0000E+00  0.2021E-10  0.7232E-14  0.1000E-09  0.0000E+00  0.1086E+16
   -0.980007    3.44648  0.0000E+00  0.4440E-10  0.1552E-13  0.1000E-09  0.0000E+00  0.8470E+15
   -1.015008    3.55723  0.0000E+00  0.9756E-10  0.3331E-13  0.1348E-09  0.0000E+00  0.6381E+15
   -1.050008    3.66518  0.0000E+00  0.2151E-09  0.7176E-13  0.4142E-09  0.0000E+00  0.4470E+15
   -1.085008    3.77114  0.0000E+00  0.4747E-09  0.1549E-12  0.1438E-08  0.0000E+00  0.2773E+15
   -1.120008    3.88150  0.0000E+00  0.1032E-08  0.3297E-12  0.9749E-08  0.0000E+00  0.8617E+14
   -1.155008    3.98633  0.0000E+00  0.1943E-08  0.6181E-12  0.1326E-05  0.0000E+00 -0.9390E+12
   -1.190008    3.99754  0.0000E+00  0.2771E-08  0.9762E-12  0.2320E-05  0.0000E+00 -0.1571E+13
   -1.225007    4.00440  0.0000E+00  0.3648E-08  0.1491E-11  0.2904E-05  0.0000E+00 -0.2249E+13
   -1.260006    4.01110  0.0000E+00  0.4654E-08  0.2331E-11  0.3422E-05  0.0000E+00 -0.3598E+13
   -1.295005    4.01908  0.0000E+00  0.5863E-08  0.4001E-11  0.3515E-05  0.0000E+00 -0.6988E+13
   -1.330003    4.03065  0.0000E+00  0.6359E-08  0.6545E-11  0.2137E-05  0.0000E+00 -0.1471E+14
   -1.365001    4.04832  0.0000E+00  0.5511E-08  0.1323E-10  0.5979E-06  0.0000E+00 -0.6634E+14
   -1.399999    4.09733  0.0000E+00  0.0000E+00  0.0000E+00  0.0000E+00  0.0000E+00  0.0000E+00
