 1 - depth, m
 2 - temperature, C
 3 - salinity, kg/kg
 4 - turbulent kinetic energy, m**2/s**2
 5 - dissipation rate, m**2/s**3
 6 - kinematic heat conductance, m**2/s
 7 - modulus of horizontal velocity, m/s
 8 - Richardson number, n/d
   -0.000000    0.00000  0.0000E+00  0.1957E-11  0.6589E-15  0.1000E-09  0.0000E+00  0.1691E+17
   -0.034997    0.26293  0.0000E+00  0.3038E-11  0.6379E-15  0.1000E-09  0.0000E+00  0.1542E+17
   -0.069995    0.52117  0.0000E+00  0.5187E-11  0.8217E-15  0.1000E-09  0.0000E+00  0.1402E+17
   -0.104992    0.77503  0.0000E+00  0.8725E-11  0.1208E-14  0.1000E-09  0.0000E+00  0.1259E+17
   -0.139991    1.02253  0.0000E+00  0.1431E-10  0.1857E-14  0.1000E-09  0.0000E+00  0.1119E+17
   -0.174989    1.26252  0.0000E+00  0.2305E-10  0.2886E-14  0.1000E-09  0.0000E+00  0.9907E+16
   -0.209988    1.49506  0.0000E+00  0.3670E-10  0.4487E-14  0.1000E-09  0.0000E+00  0.8715E+16
   -0.244987    1.72014  0.0000E+00  0.5797E-10  0.6956E-14  0.1000E-09  0.0000E+00  0.7612E+16
   -0.279986    1.93771  0.0000E+00  0.9107E-10  0.1075E-13  0.1000E-09  0.0000E+00  0.6597E+16
   -0.314985    2.14772  0.0000E+00  0.1432E-09  0.1663E-13  0.1000E-09  0.0000E+00  0.5687E+16
   -0.349984    2.35101  0.0000E+00  0.2261E-09  0.2585E-13  0.1000E-09  0.0000E+00  0.4846E+16
   -0.384984    2.54736  0.0000E+00  0.3573E-09  0.4023E-13  0.1000E-09  0.0000E+00  0.4067E+16
   -0.419984    2.73640  0.0000E+00  0.5626E-09  0.6241E-13  0.1000E-09  0.0000E+00  0.3376E+16
   -0.454984    2.91898  0.0000E+00  0.8825E-09  0.9645E-13  0.1001E-09  0.0000E+00  0.2764E+16
   -0.489984    3.09649  0.0000E+00  0.1381E-08  0.1487E-12  0.1740E-09  0.0000E+00  0.2214E+16
   -0.524984    3.27028  0.0000E+00  0.2239E-08  0.2374E-12  0.3489E-09  0.0000E+00  0.1764E+16
   -0.559985    3.44803  0.0000E+00  0.3801E-08  0.3968E-12  0.7849E-09  0.0000E+00  0.1311E+16
   -0.594985    3.63477  0.0000E+00  0.6839E-08  0.7028E-12  0.2343E-08  0.0000E+00  0.7785E+15
   -0.629986    3.82943  0.0000E+00  0.1129E-07  0.1146E-11  0.1560E-07  0.0000E+00  0.1916E+15
   -0.664986    4.00046  0.0000E+00  0.1177E-07  0.1197E-11  0.4397E-04  0.0000E+00 -0.1339E+12
   -0.699986    4.00106  0.0000E+00  0.1200E-07  0.1226E-11  0.4320E-04  0.0000E+00 -0.1402E+12
   -0.734987    4.00165  0.0000E+00  0.1224E-07  0.1258E-11  0.4358E-04  0.0000E+00 -0.1441E+12
   -0.769987    4.00224  0.0000E+00  0.1246E-07  0.1294E-11  0.4395E-04  0.0000E+00 -0.1502E+12
   -0.804988    4.00284  0.0000E+00  0.1269E-07  0.1333E-11  0.4417E-04  0.0000E+00 -0.1567E+12
   -0.839988    4.00343  0.0000E+00  0.1290E-07  0.1376E-11  0.4425E-04  0.0000E+00 -0.1640E+12
   -0.874989    4.00404  0.0000E+00  0.1311E-07  0.1424E-11  0.4418E-04  0.0000E+00 -0.1723E+12
   -0.909989    4.00465  0.0000E+00  0.1331E-07  0.1477E-11  0.4394E-04  0.0000E+00 -0.1802E+12
   -0.944989    4.00527  0.0000E+00  0.1350E-07  0.1535E-11  0.4353E-04  0.0000E+00 -0.1886E+12
   -0.979989    4.00589  0.0000E+00  0.1367E-07  0.1600E-11  0.4294E-04  0.0000E+00 -0.1983E+12
   -1.014989    4.00653  0.0000E+00  0.1384E-07  0.1673E-11  0.4218E-04  0.0000E+00 -0.2130E+12
   -1.049988    4.00719  0.0000E+00  0.1399E-07  0.1759E-11  0.4116E-04  0.0000E+00 -0.2318E+12
   -1.084988    4.00789  0.0000E+00  0.1414E-07  0.1862E-11  0.3992E-04  0.0000E+00 -0.2537E+12
   -1.119987    4.00863  0.0000E+00  0.1426E-07  0.1986E-11  0.3830E-04  0.0000E+00 -0.2749E+12
   -1.154986    4.00941  0.0000E+00  0.1437E-07  0.2136E-11  0.3637E-04  0.0000E+00 -0.3014E+12
   -1.189985    4.01023  0.0000E+00  0.1445E-07  0.2324E-11  0.3399E-04  0.0000E+00 -0.3408E+12
   -1.224984    4.01112  0.0000E+00  0.1451E-07  0.2593E-11  0.3112E-04  0.0000E+00 -0.4253E+12
   -1.259982    4.01219  0.0000E+00  0.1453E-07  0.3046E-11  0.2708E-04  0.0000E+00 -0.6163E+12
   -1.294981    4.01367  0.0000E+00  0.1439E-07  0.4144E-11  0.2072E-04  0.0000E+00 -0.1132E+13
   -1.329978    4.01620  0.0000E+00  0.1364E-07  0.7059E-11  0.7654E-05  0.0000E+00 -0.3312E+13
   -1.364976    4.02260  0.0000E+00  0.9994E-08  0.2121E-10  0.9115E-06  0.0000E+00 -0.3670E+14
   -1.399973    4.06381  0.0000E+00  0.0000E+00  0.0000E+00  0.0000E+00  0.0000E+00  0.0000E+00
