 1 - depth, m
 2 - temperature, C
 3 - salinity, kg/kg
 4 - turbulent kinetic energy, m**2/s**2
 5 - dissipation rate, m**2/s**3
 6 - kinematic heat conductance, m**2/s
 7 - modulus of horizontal velocity, m/s
 8 - Richardson number, n/d
   -0.000000   10.78021  0.0000E+00  0.4256E-03  0.5827E-03  0.7833E-04  0.2538E+00  0.2283E-01
   -0.034998   10.81288  0.0000E+00  0.2365E-03  0.1824E-03  0.1384E-03  0.7706E-01  0.4397E-02
   -0.069996   10.81960  0.0000E+00  0.1626E-03  0.6029E-04  0.1859E-03  0.4747E-01 -0.7511E-02
   -0.104995   10.82352  0.0000E+00  0.1303E-03  0.3228E-04  0.1942E-03  0.3770E-01 -0.8348E-02
   -0.139994   10.82604  0.0000E+00  0.1097E-03  0.1920E-04  0.2036E-03  0.3175E-01 -0.3643E-01
   -0.174993   10.82788  0.0000E+00  0.9468E-04  0.1203E-04  0.2129E-03  0.2724E-01 -0.6475E-02
   -0.209992   10.82936  0.0000E+00  0.8320E-04  0.7794E-05  0.2228E-03  0.2356E-01 -0.8441E-02
   -0.244992   10.83061  0.0000E+00  0.7423E-04  0.5207E-05  0.2307E-03  0.2043E-01 -0.7226E-02
   -0.279992   10.83174  0.0000E+00  0.6680E-04  0.3530E-05  0.2336E-03  0.1761E-01 -0.7983E-02
   -0.314992   10.83288  0.0000E+00  0.5992E-04  0.2400E-05  0.2450E-03  0.1482E-01 -0.1180E-01
   -0.349992   10.83391  0.0000E+00  0.5411E-04  0.1720E-05  0.2534E-03  0.1269E-01 -0.2712E-01
   -0.384993   10.83489  0.0000E+00  0.4918E-04  0.1288E-05  0.2602E-03  0.1093E-01 -0.7009E+00
   -0.419993   10.83581  0.0000E+00  0.4500E-04  0.9994E-06  0.2629E-03  0.9444E-02  0.6444E+02
   -0.454994   10.83674  0.0000E+00  0.4135E-04  0.8019E-06  0.2636E-03  0.8059E-02  0.1775E+01
   -0.489995   10.83769  0.0000E+00  0.3809E-04  0.6636E-06  0.2656E-03  0.6758E-02  0.2036E+01
   -0.524996   10.83863  0.0000E+00  0.3493E-04  0.5563E-06  0.2762E-03  0.5592E-02  0.1446E+01
   -0.559997   10.83944  0.0000E+00  0.3184E-04  0.4667E-06  0.2846E-03  0.4718E-02  0.6298E+03
   -0.594998   10.84013  0.0000E+00  0.2847E-04  0.3808E-06  0.2857E-03  0.4121E-02  0.2111E+04
   -0.630000   10.84065  0.0000E+00  0.2549E-04  0.3112E-06  0.2813E-03  0.3740E-02  0.1959E+04
   -0.665001   10.84125  0.0000E+00  0.2293E-04  0.2566E-06  0.2793E-03  0.3371E-02  0.2665E+05
   -0.700002   10.84188  0.0000E+00  0.2073E-04  0.2133E-06  0.2793E-03  0.3022E-02  0.1287E+04
   -0.735003   10.84253  0.0000E+00  0.1881E-04  0.1786E-06  0.2829E-03  0.2695E-02  0.2850E+04
   -0.770005   10.84317  0.0000E+00  0.1714E-04  0.1505E-06  0.2914E-03  0.2395E-02  0.2356E+04
   -0.805006   10.84380  0.0000E+00  0.1567E-04  0.1275E-06  0.3051E-03  0.2124E-02  0.8498E+03
   -0.840007   10.84441  0.0000E+00  0.1437E-04  0.1088E-06  0.3173E-03  0.1877E-02  0.6934E+03
   -0.875008   10.84501  0.0000E+00  0.1323E-04  0.9343E-07  0.3333E-03  0.1654E-02  0.3729E+04
   -0.910009   10.84558  0.0000E+00  0.1223E-04  0.8078E-07  0.3550E-03  0.1454E-02  0.1555E+04
   -0.945010   10.84612  0.0000E+00  0.1135E-04  0.7049E-07  0.3780E-03  0.1272E-02  0.2562E+04
   -0.980011   10.84664  0.0000E+00  0.1058E-04  0.6217E-07  0.3973E-03  0.1106E-02  0.2840E+04
   -1.015011   10.84713  0.0000E+00  0.9898E-05  0.5546E-07  0.4152E-03  0.9531E-03  0.3243E+04
   -1.050012   10.84760  0.0000E+00  0.9286E-05  0.5006E-07  0.4268E-03  0.8172E-03  0.7252E+04
   -1.085012   10.84805  0.0000E+00  0.8731E-05  0.4584E-07  0.4304E-03  0.6977E-03  0.2016E+05
   -1.120012   10.84851  0.0000E+00  0.8231E-05  0.4283E-07  0.4283E-03  0.5938E-03  0.1271E+05
   -1.155012   10.84896  0.0000E+00  0.7782E-05  0.4124E-07  0.4127E-03  0.5000E-03  0.2022E+05
   -1.190012   10.84945  0.0000E+00  0.7369E-05  0.4152E-07  0.3803E-03  0.4135E-03  0.4409E+05
   -1.225011   10.85001  0.0000E+00  0.6948E-05  0.4486E-07  0.3460E-03  0.3323E-03  0.6765E+05
   -1.260010   10.85065  0.0000E+00  0.6440E-05  0.5527E-07  0.2870E-03  0.2600E-03  0.9882E+05
   -1.295009   10.85155  0.0000E+00  0.5640E-05  0.8363E-07  0.2335E-03  0.1972E-03  0.1045E+07
   -1.330008   10.85245  0.0000E+00  0.4523E-05  0.1625E-06  0.1292E-03  0.1620E-03  0.1231E+08
   -1.365006   10.85579  0.0000E+00  0.2855E-05  0.3495E-06  0.4837E-04  0.1158E-03 -0.8158E+10
   -1.400004   10.86310  0.0000E+00  0.0000E+00  0.0000E+00  0.0000E+00  0.1560E-03  0.0000E+00
