 1 - depth, m
 2 - temperature, C
 3 - salinity, kg/kg
 4 - turbulent kinetic energy, m**2/s**2
 5 - dissipation rate, m**2/s**3
 6 - kinematic heat conductance, m**2/s
 7 - modulus of horizontal velocity, m/s
 8 - Richardson number, n/d
   -0.000000   15.75313  0.0000E+00  0.3811E-04  0.6803E-05  0.2813E-04  0.4263E-01 -0.2286E-01
   -0.034998   15.79035  0.0000E+00  0.2574E-04  0.2018E-05  0.4605E-04  0.2007E-01 -0.8620E-01
   -0.069996   15.80151  0.0000E+00  0.2086E-04  0.9549E-06  0.6263E-04  0.1480E-01 -0.4614E-01
   -0.104994   15.80887  0.0000E+00  0.1780E-04  0.5400E-06  0.7904E-04  0.1165E-01 -0.6905E-01
   -0.139993   15.81450  0.0000E+00  0.1565E-04  0.3407E-06  0.9613E-04  0.9400E-02 -0.9621E-01
   -0.174992   15.81908  0.0000E+00  0.1405E-04  0.2328E-06  0.1159E-03  0.7688E-02 -0.1050E+00
   -0.209991   15.82286  0.0000E+00  0.1284E-04  0.1695E-06  0.1645E-03  0.6343E-02  0.8297E+03
   -0.244991   15.82579  0.0000E+00  0.1190E-04  0.1302E-06  0.2241E-03  0.5277E-02  0.7041E+01
   -0.279990   15.82804  0.0000E+00  0.1114E-04  0.1040E-06  0.3158E-03  0.4392E-02  0.4101E+03
   -0.314990   15.82964  0.0000E+00  0.1048E-04  0.8526E-07  0.3639E-03  0.3641E-02  0.4348E+02
   -0.349991   15.83091  0.0000E+00  0.9898E-05  0.7107E-07  0.3828E-03  0.3013E-02  0.1203E+02
   -0.384991   15.83204  0.0000E+00  0.9388E-05  0.6011E-07  0.3984E-03  0.2479E-02  0.3832E+01
   -0.419991   15.83309  0.0000E+00  0.8950E-05  0.5161E-07  0.4050E-03  0.2026E-02  0.3264E+01
   -0.454992   15.83412  0.0000E+00  0.8564E-05  0.4490E-07  0.4125E-03  0.1616E-02  0.3124E+01
   -0.489993   15.83513  0.0000E+00  0.8212E-05  0.3954E-07  0.4183E-03  0.1244E-02  0.2697E+01
   -0.524993   15.83612  0.0000E+00  0.7857E-05  0.3489E-07  0.4543E-03  0.9114E-03  0.1543E+01
   -0.559994   15.83698  0.0000E+00  0.7512E-05  0.3083E-07  0.5239E-03  0.6739E-03  0.9501E+00
   -0.594995   15.83764  0.0000E+00  0.7187E-05  0.2722E-07  0.6022E-03  0.5293E-03  0.6608E+00
   -0.629996   15.83813  0.0000E+00  0.6957E-05  0.2471E-07  0.6174E-03  0.4561E-03  0.6980E+00
   -0.664997   15.83860  0.0000E+00  0.6781E-05  0.2284E-07  0.6288E-03  0.4012E-03  0.7081E+00
   -0.699999   15.83908  0.0000E+00  0.6635E-05  0.2133E-07  0.6419E-03  0.3517E-03  0.7353E+00
   -0.735000   15.83955  0.0000E+00  0.6513E-05  0.2013E-07  0.6532E-03  0.3084E-03  0.7528E+00
   -0.770001   15.84001  0.0000E+00  0.6411E-05  0.1919E-07  0.6618E-03  0.2711E-03  0.7593E+00
   -0.805002   15.84047  0.0000E+00  0.6326E-05  0.1847E-07  0.6674E-03  0.2394E-03  0.7648E+00
   -0.840003   15.84094  0.0000E+00  0.6254E-05  0.1795E-07  0.6697E-03  0.2126E-03  0.7651E+00
   -0.875004   15.84140  0.0000E+00  0.6191E-05  0.1758E-07  0.6690E-03  0.1899E-03  0.7819E+00
   -0.910004   15.84188  0.0000E+00  0.6136E-05  0.1735E-07  0.6652E-03  0.1706E-03  0.8555E+00
   -0.945005   15.84236  0.0000E+00  0.6084E-05  0.1723E-07  0.6582E-03  0.1536E-03  0.9780E+00
   -0.980006   15.84287  0.0000E+00  0.6033E-05  0.1723E-07  0.6473E-03  0.1381E-03  0.1158E+01
   -1.015006   15.84339  0.0000E+00  0.5980E-05  0.1736E-07  0.6325E-03  0.1236E-03  0.1412E+01
   -1.050007   15.84394  0.0000E+00  0.5923E-05  0.1765E-07  0.6114E-03  0.1102E-03  0.1849E+01
   -1.085007   15.84453  0.0000E+00  0.5858E-05  0.1815E-07  0.5872E-03  0.9783E-04  0.2508E+01
   -1.120007   15.84514  0.0000E+00  0.5784E-05  0.1893E-07  0.5510E-03  0.8639E-04  0.3660E+01
   -1.155006   15.84583  0.0000E+00  0.5698E-05  0.2013E-07  0.5218E-03  0.7530E-04  0.5306E+01
   -1.190006   15.84658  0.0000E+00  0.5595E-05  0.2212E-07  0.4664E-03  0.6473E-04 -0.2296E+02
   -1.225005   15.84754  0.0000E+00  0.5451E-05  0.2560E-07  0.4378E-03  0.5482E-04 -0.3548E+03
   -1.260004   15.84860  0.0000E+00  0.5221E-05  0.3319E-07  0.3349E-03  0.4459E-04 -0.4163E+04
   -1.295003   15.85084  0.0000E+00  0.4775E-05  0.5270E-07  0.3199E-03  0.3415E-04  0.1002E+06
   -1.330001   15.85178  0.0000E+00  0.4018E-05  0.1100E-06  0.1318E-03  0.2858E-04  0.5792E+05
   -1.364999   15.86433  0.0000E+00  0.2688E-05  0.2716E-06  0.6574E-04  0.1866E-04 -0.2124E+06
   -1.399997   15.87451  0.0000E+00  0.0000E+00  0.0000E+00  0.0000E+00  0.2360E-04  0.0000E+00
