 1 - depth, m
 2 - temperature, C
 3 - salinity, kg/kg
 4 - turbulent kinetic energy, m**2/s**2
 5 - dissipation rate, m**2/s**3
 6 - kinematic heat conductance, m**2/s
 7 - modulus of horizontal velocity, m/s
 8 - Richardson number, n/d
   -0.000000    0.00000  0.0000E+00  0.4702E-13  0.1132E-15  0.1000E-09  0.0000E+00  0.5296E+16
   -0.034998    0.08030  0.0000E+00  0.4702E-13  0.1132E-15  0.1000E-09  0.0000E+00  0.5236E+16
   -0.069996    0.16147  0.0000E+00  0.4702E-13  0.1132E-15  0.1000E-09  0.0000E+00  0.5169E+16
   -0.104995    0.24345  0.0000E+00  0.4702E-13  0.1132E-15  0.1000E-09  0.0000E+00  0.5055E+16
   -0.139994    0.32551  0.0000E+00  0.4702E-13  0.1132E-15  0.1000E-09  0.0000E+00  0.4914E+16
   -0.174993    0.40720  0.0000E+00  0.4702E-13  0.1132E-15  0.1000E-09  0.0000E+00  0.4770E+16
   -0.209993    0.48843  0.0000E+00  0.4702E-13  0.1132E-15  0.1000E-09  0.0000E+00  0.4623E+16
   -0.244992    0.56912  0.0000E+00  0.4702E-13  0.1132E-15  0.1000E-09  0.0000E+00  0.4475E+16
   -0.279992    0.64919  0.0000E+00  0.4702E-13  0.1132E-15  0.1000E-09  0.0000E+00  0.4327E+16
   -0.314992    0.72858  0.0000E+00  0.4702E-13  0.1132E-15  0.1000E-09  0.0000E+00  0.4232E+16
   -0.349993    0.80826  0.0000E+00  0.4702E-13  0.1132E-15  0.1000E-09  0.0000E+00  0.4143E+16
   -0.384993    0.88836  0.0000E+00  0.4702E-13  0.1132E-15  0.1000E-09  0.0000E+00  0.4053E+16
   -0.419994    0.96889  0.0000E+00  0.4702E-13  0.1132E-15  0.1000E-09  0.0000E+00  0.3945E+16
   -0.454995    1.04950  0.0000E+00  0.4702E-13  0.1132E-15  0.1000E-09  0.0000E+00  0.3845E+16
   -0.489996    1.13036  0.0000E+00  0.4702E-13  0.1132E-15  0.1000E-09  0.0000E+00  0.3801E+16
   -0.524997    1.21273  0.0000E+00  0.4702E-13  0.1132E-15  0.1000E-09  0.0000E+00  0.4040E+16
   -0.559998    1.30318  0.0000E+00  0.4702E-13  0.1132E-15  0.1000E-09  0.0000E+00  0.4498E+16
   -0.594999    1.40778  0.0000E+00  0.4702E-13  0.1132E-15  0.1000E-09  0.0000E+00  0.4958E+16
   -0.630000    1.52847  0.0000E+00  0.4702E-13  0.1132E-15  0.1000E-09  0.0000E+00  0.4673E+16
   -0.665002    1.64815  0.0000E+00  0.4702E-13  0.1132E-15  0.1000E-09  0.0000E+00  0.4389E+16
   -0.700003    1.76666  0.0000E+00  0.4702E-13  0.1132E-15  0.1000E-09  0.0000E+00  0.4118E+16
   -0.735004    1.88418  0.0000E+00  0.4702E-13  0.1132E-15  0.1000E-09  0.0000E+00  0.3877E+16
   -0.770006    2.00140  0.0000E+00  0.4702E-13  0.1132E-15  0.1000E-09  0.0000E+00  0.3673E+16
   -0.805007    2.11945  0.0000E+00  0.4702E-13  0.1132E-15  0.1000E-09  0.0000E+00  0.3455E+16
   -0.840008    2.23797  0.0000E+00  0.4702E-13  0.1132E-15  0.1000E-09  0.0000E+00  0.3229E+16
   -0.875009    2.35677  0.0000E+00  0.4702E-13  0.1132E-15  0.1000E-09  0.0000E+00  0.3005E+16
   -0.910010    2.47594  0.0000E+00  0.4702E-13  0.1132E-15  0.1000E-09  0.0000E+00  0.2745E+16
   -0.945011    2.59392  0.0000E+00  0.4702E-13  0.1132E-15  0.1000E-09  0.0000E+00  0.2481E+16
   -0.980012    2.71010  0.0000E+00  0.4702E-13  0.1132E-15  0.1000E-09  0.0000E+00  0.2222E+16
   -1.015013    2.82423  0.0000E+00  0.4702E-13  0.1132E-15  0.1000E-09  0.0000E+00  0.2009E+16
   -1.050013    2.93828  0.0000E+00  0.4702E-13  0.1132E-15  0.1000E-09  0.0000E+00  0.1812E+16
   -1.085014    3.05326  0.0000E+00  0.1815E-12  0.2725E-15  0.1000E-09  0.0000E+00  0.1667E+16
   -1.120014    3.17352  0.0000E+00  0.8022E-12  0.1123E-14  0.1000E-09  0.0000E+00  0.1443E+16
   -1.155014    3.29451  0.0000E+00  0.3448E-11  0.4675E-14  0.1000E-09  0.0000E+00  0.1219E+16
   -1.190013    3.41662  0.0000E+00  0.1467E-10  0.1933E-13  0.1000E-09  0.0000E+00  0.1012E+16
   -1.225013    3.54320  0.0000E+00  0.6521E-10  0.8363E-13  0.2403E-09  0.0000E+00  0.8635E+15
   -1.260012    3.69178  0.0000E+00  0.3057E-09  0.3825E-12  0.1540E-08  0.0000E+00  0.6077E+15
   -1.295011    3.88926  0.0000E+00  0.1615E-08  0.1985E-11  0.8722E-07  0.0000E+00  0.2639E+14
   -1.330010    4.06418  0.0000E+00  0.5182E-08  0.7414E-11  0.1497E-05  0.0000E+00 -0.3091E+14
   -1.365008    4.08639  0.0000E+00  0.5069E-08  0.1316E-10  0.5454E-06  0.0000E+00 -0.8203E+14
   -1.400006    4.12952  0.0000E+00  0.0000E+00  0.0000E+00  0.0000E+00  0.0000E+00  0.0000E+00
