 1 - depth, m
 2 - temperature, C
 3 - salinity, kg/kg
 4 - turbulent kinetic energy, m**2/s**2
 5 - dissipation rate, m**2/s**3
 6 - kinematic heat conductance, m**2/s
 7 - modulus of horizontal velocity, m/s
 8 - Richardson number, n/d
   -0.000000    0.00000  0.0000E+00  0.4702E-13  0.1132E-15  0.1000E-09  0.0000E+00  0.9762E+16
   -0.034998    0.14943  0.0000E+00  0.4702E-13  0.1132E-15  0.1000E-09  0.0000E+00  0.9476E+16
   -0.069996    0.30066  0.0000E+00  0.4702E-13  0.1132E-15  0.1000E-09  0.0000E+00  0.9168E+16
   -0.104995    0.45354  0.0000E+00  0.4702E-13  0.1132E-15  0.1000E-09  0.0000E+00  0.8743E+16
   -0.139993    0.60617  0.0000E+00  0.4702E-13  0.1132E-15  0.1000E-09  0.0000E+00  0.8258E+16
   -0.174992    0.75735  0.0000E+00  0.4702E-13  0.1132E-15  0.1000E-09  0.0000E+00  0.7773E+16
   -0.209992    0.90680  0.0000E+00  0.4702E-13  0.1132E-15  0.1000E-09  0.0000E+00  0.7289E+16
   -0.244991    1.05424  0.0000E+00  0.4702E-13  0.1132E-15  0.1000E-09  0.0000E+00  0.6810E+16
   -0.279991    1.19940  0.0000E+00  0.4702E-13  0.1132E-15  0.1000E-09  0.0000E+00  0.6339E+16
   -0.314991    1.34203  0.0000E+00  0.4702E-13  0.1132E-15  0.1000E-09  0.0000E+00  0.5906E+16
   -0.349992    1.48255  0.0000E+00  0.4702E-13  0.1132E-15  0.1000E-09  0.0000E+00  0.5481E+16
   -0.384992    1.62073  0.0000E+00  0.4702E-13  0.1132E-15  0.1000E-09  0.0000E+00  0.5061E+16
   -0.419992    1.75623  0.0000E+00  0.4702E-13  0.1132E-15  0.1000E-09  0.0000E+00  0.4664E+16
   -0.454993    1.88913  0.0000E+00  0.4702E-13  0.1132E-15  0.1000E-09  0.0000E+00  0.4299E+16
   -0.489994    2.01988  0.0000E+00  0.4702E-13  0.1132E-15  0.1000E-09  0.0000E+00  0.3975E+16
   -0.524995    2.14929  0.0000E+00  0.7322E-13  0.1132E-15  0.1000E-09  0.0000E+00  0.3792E+16
   -0.559996    2.28220  0.0000E+00  0.3214E-12  0.1325E-15  0.1000E-09  0.0000E+00  0.3675E+16
   -0.594997    2.42207  0.0000E+00  0.9468E-12  0.2663E-15  0.1000E-09  0.0000E+00  0.3514E+16
   -0.629998    2.56901  0.0000E+00  0.2089E-11  0.5322E-15  0.1000E-09  0.0000E+00  0.3058E+16
   -0.664999    2.71091  0.0000E+00  0.4179E-11  0.1023E-14  0.1000E-09  0.0000E+00  0.2630E+16
   -0.700001    2.84735  0.0000E+00  0.8097E-11  0.1933E-14  0.1000E-09  0.0000E+00  0.2235E+16
   -0.735002    2.97800  0.0000E+00  0.1553E-10  0.3628E-14  0.1000E-09  0.0000E+00  0.1895E+16
   -0.770003    3.10404  0.0000E+00  0.2963E-10  0.6781E-14  0.1000E-09  0.0000E+00  0.1621E+16
   -0.805004    3.22862  0.0000E+00  0.5627E-10  0.1263E-13  0.1000E-09  0.0000E+00  0.1353E+16
   -0.840005    3.35129  0.0000E+00  0.1063E-09  0.2338E-13  0.1000E-09  0.0000E+00  0.1095E+16
   -0.875006    3.47174  0.0000E+00  0.2000E-09  0.4314E-13  0.1316E-09  0.0000E+00  0.8495E+15
   -0.910007    3.58994  0.0000E+00  0.3743E-09  0.7923E-13  0.3364E-09  0.0000E+00  0.6106E+15
   -0.945008    3.70421  0.0000E+00  0.6948E-09  0.1443E-12  0.9568E-09  0.0000E+00  0.3912E+15
   -0.980009    3.81360  0.0000E+00  0.1282E-08  0.2615E-12  0.3466E-08  0.0000E+00  0.1959E+15
   -1.015009    3.91650  0.0000E+00  0.2338E-08  0.4691E-12  0.3325E-07  0.0000E+00  0.3707E+14
   -1.050010    3.99938  0.0000E+00  0.3250E-08  0.6559E-12  0.5523E-05  0.0000E+00 -0.5641E+12
   -1.085010    4.00191  0.0000E+00  0.3784E-08  0.7935E-12  0.6316E-05  0.0000E+00 -0.6163E+12
   -1.120010    4.00426  0.0000E+00  0.4278E-08  0.9546E-12  0.6554E-05  0.0000E+00 -0.6892E+12
   -1.155010    4.00657  0.0000E+00  0.4751E-08  0.1155E-11  0.6460E-05  0.0000E+00 -0.8037E+12
   -1.190009    4.00896  0.0000E+00  0.5226E-08  0.1424E-11  0.6169E-05  0.0000E+00 -0.9939E+12
   -1.225009    4.01161  0.0000E+00  0.5762E-08  0.1836E-11  0.6056E-05  0.0000E+00 -0.1390E+13
   -1.260008    4.01491  0.0000E+00  0.6393E-08  0.2534E-11  0.6009E-05  0.0000E+00 -0.2266E+13
   -1.295007    4.01959  0.0000E+00  0.7141E-08  0.4039E-11  0.5162E-05  0.0000E+00 -0.4802E+13
   -1.330005    4.02779  0.0000E+00  0.7277E-08  0.6707E-11  0.2643E-05  0.0000E+00 -0.1159E+14
   -1.365003    4.04289  0.0000E+00  0.6095E-08  0.1443E-10  0.6508E-06  0.0000E+00 -0.6284E+14
   -1.400001    4.09230  0.0000E+00  0.0000E+00  0.0000E+00  0.0000E+00  0.0000E+00  0.0000E+00
