 1 - depth, m
 2 - temperature, C
 3 - salinity, kg/kg
 4 - turbulent kinetic energy, m**2/s**2
 5 - dissipation rate, m**2/s**3
 6 - kinematic heat conductance, m**2/s
 7 - modulus of horizontal velocity, m/s
 8 - Richardson number, n/d
   -0.000000    0.00000  0.0000E+00  0.4702E-13  0.1132E-15  0.1000E-09  0.0000E+00  0.1177E+17
   -0.034998    0.18097  0.0000E+00  0.4702E-13  0.1132E-15  0.1000E-09  0.0000E+00  0.1130E+17
   -0.069996    0.36375  0.0000E+00  0.4702E-13  0.1132E-15  0.1000E-09  0.0000E+00  0.1076E+17
   -0.104995    0.54742  0.0000E+00  0.4702E-13  0.1132E-15  0.1000E-09  0.0000E+00  0.1002E+17
   -0.139993    0.72828  0.0000E+00  0.4702E-13  0.1132E-15  0.1000E-09  0.0000E+00  0.9182E+16
   -0.174993    0.90390  0.0000E+00  0.4702E-13  0.1132E-15  0.1000E-09  0.0000E+00  0.8364E+16
   -0.209992    1.07357  0.0000E+00  0.4702E-13  0.1132E-15  0.1000E-09  0.0000E+00  0.7577E+16
   -0.244992    1.23677  0.0000E+00  0.4702E-13  0.1132E-15  0.1000E-09  0.0000E+00  0.6832E+16
   -0.279991    1.39312  0.0000E+00  0.4702E-13  0.1132E-15  0.1000E-09  0.0000E+00  0.6134E+16
   -0.314992    1.54240  0.0000E+00  0.4702E-13  0.1132E-15  0.1000E-09  0.0000E+00  0.5403E+16
   -0.349992    1.68224  0.0000E+00  0.4702E-13  0.1132E-15  0.1000E-09  0.0000E+00  0.4710E+16
   -0.384992    1.81175  0.0000E+00  0.4702E-13  0.1132E-15  0.1000E-09  0.0000E+00  0.4061E+16
   -0.419993    1.93022  0.0000E+00  0.4702E-13  0.1132E-15  0.1000E-09  0.0000E+00  0.3590E+16
   -0.454994    2.04113  0.0000E+00  0.4702E-13  0.1132E-15  0.1000E-09  0.0000E+00  0.3251E+16
   -0.489994    2.14752  0.0000E+00  0.4702E-13  0.1132E-15  0.1000E-09  0.0000E+00  0.2939E+16
   -0.524995    2.24950  0.0000E+00  0.4702E-13  0.1132E-15  0.1000E-09  0.0000E+00  0.2612E+16
   -0.559996    2.34560  0.0000E+00  0.4702E-13  0.1132E-15  0.1000E-09  0.0000E+00  0.2241E+16
   -0.594997    2.43292  0.0000E+00  0.4702E-13  0.1132E-15  0.1000E-09  0.0000E+00  0.1842E+16
   -0.629999    2.50865  0.0000E+00  0.4702E-13  0.1132E-15  0.1000E-09  0.0000E+00  0.1623E+16
   -0.665000    2.57884  0.0000E+00  0.4702E-13  0.1132E-15  0.1000E-09  0.0000E+00  0.1427E+16
   -0.700001    2.64367  0.0000E+00  0.4702E-13  0.1132E-15  0.1000E-09  0.0000E+00  0.1248E+16
   -0.735002    2.70311  0.0000E+00  0.4702E-13  0.1132E-15  0.1000E-09  0.0000E+00  0.1130E+16
   -0.770003    2.75946  0.0000E+00  0.4702E-13  0.1132E-15  0.1000E-09  0.0000E+00  0.1130E+16
   -0.805005    2.81859  0.0000E+00  0.4702E-13  0.1132E-15  0.1000E-09  0.0000E+00  0.1134E+16
   -0.840006    2.88115  0.0000E+00  0.4702E-13  0.1132E-15  0.1000E-09  0.0000E+00  0.1139E+16
   -0.875007    2.94785  0.0000E+00  0.4702E-13  0.1132E-15  0.1000E-09  0.0000E+00  0.1143E+16
   -0.910008    3.01948  0.0000E+00  0.7590E-13  0.1167E-15  0.1000E-09  0.0000E+00  0.1123E+16
   -0.945009    3.09553  0.0000E+00  0.2912E-12  0.2405E-15  0.1000E-09  0.0000E+00  0.1087E+16
   -0.980009    3.17601  0.0000E+00  0.9348E-12  0.6993E-15  0.1000E-09  0.0000E+00  0.1037E+16
   -1.015010    3.26114  0.0000E+00  0.2855E-11  0.2060E-14  0.1000E-09  0.0000E+00  0.9906E+15
   -1.050010    3.35323  0.0000E+00  0.8622E-11  0.6046E-14  0.1000E-09  0.0000E+00  0.9232E+15
   -1.085011    3.45336  0.0000E+00  0.2590E-10  0.1767E-13  0.1000E-09  0.0000E+00  0.8285E+15
   -1.120011    3.56311  0.0000E+00  0.7634E-10  0.5072E-13  0.1956E-09  0.0000E+00  0.6656E+15
   -1.155010    3.67873  0.0000E+00  0.2223E-09  0.1440E-12  0.7782E-09  0.0000E+00  0.4729E+15
   -1.190010    3.80077  0.0000E+00  0.6437E-09  0.4069E-12  0.4242E-08  0.0000E+00  0.2456E+15
   -1.225009    3.93120  0.0000E+00  0.1863E-08  0.1161E-11  0.1722E-06  0.0000E+00  0.1995E+14
   -1.260009    4.01646  0.0000E+00  0.4303E-08  0.2910E-11  0.2487E-05  0.0000E+00 -0.6730E+13
   -1.295007    4.02844  0.0000E+00  0.6310E-08  0.5238E-11  0.3169E-05  0.0000E+00 -0.1043E+14
   -1.330006    4.04209  0.0000E+00  0.7173E-08  0.8277E-11  0.2192E-05  0.0000E+00 -0.1869E+14
   -1.365004    4.06050  0.0000E+00  0.6314E-08  0.1600E-10  0.6564E-06  0.0000E+00 -0.7470E+14
   -1.400002    4.10902  0.0000E+00  0.0000E+00  0.0000E+00  0.0000E+00  0.0000E+00  0.0000E+00
