 1 - depth, m
 2 - temperature, C
 3 - salinity, kg/kg
 4 - turbulent kinetic energy, m**2/s**2
 5 - dissipation rate, m**2/s**3
 6 - kinematic heat conductance, m**2/s
 7 - modulus of horizontal velocity, m/s
 8 - Richardson number, n/d
   -0.000000    0.00000  0.0000E+00  0.4702E-13  0.1132E-15  0.1000E-09  0.0000E+00  0.1068E+17
   -0.034998    0.16386  0.0000E+00  0.4702E-13  0.1132E-15  0.1000E-09  0.0000E+00  0.1035E+17
   -0.069996    0.33009  0.0000E+00  0.4702E-13  0.1132E-15  0.1000E-09  0.0000E+00  0.1000E+17
   -0.104995    0.49869  0.0000E+00  0.4702E-13  0.1132E-15  0.1000E-09  0.0000E+00  0.9468E+16
   -0.139993    0.66668  0.0000E+00  0.4702E-13  0.1132E-15  0.1000E-09  0.0000E+00  0.8851E+16
   -0.174993    0.83230  0.0000E+00  0.4702E-13  0.1132E-15  0.1000E-09  0.0000E+00  0.8251E+16
   -0.209992    0.99538  0.0000E+00  0.4702E-13  0.1132E-15  0.1000E-09  0.0000E+00  0.7670E+16
   -0.244992    1.15585  0.0000E+00  0.4702E-13  0.1132E-15  0.1000E-09  0.0000E+00  0.7110E+16
   -0.279991    1.31361  0.0000E+00  0.4702E-13  0.1132E-15  0.1000E-09  0.0000E+00  0.6571E+16
   -0.314991    1.46861  0.0000E+00  0.4702E-13  0.1132E-15  0.1000E-09  0.0000E+00  0.5985E+16
   -0.349992    1.61901  0.0000E+00  0.4706E-13  0.1132E-15  0.1000E-09  0.0000E+00  0.5415E+16
   -0.384992    1.76417  0.0000E+00  0.1400E-12  0.1132E-15  0.1000E-09  0.0000E+00  0.4867E+16
   -0.419993    1.90361  0.0000E+00  0.4308E-12  0.1437E-15  0.1000E-09  0.0000E+00  0.4441E+16
   -0.454993    2.03985  0.0000E+00  0.9834E-12  0.2531E-15  0.1000E-09  0.0000E+00  0.4101E+16
   -0.489994    2.17505  0.0000E+00  0.2003E-11  0.4731E-15  0.1000E-09  0.0000E+00  0.3773E+16
   -0.524995    2.30935  0.0000E+00  0.4098E-11  0.9288E-15  0.1000E-09  0.0000E+00  0.3459E+16
   -0.559996    2.44302  0.0000E+00  0.8634E-11  0.1905E-14  0.1000E-09  0.0000E+00  0.3140E+16
   -0.594997    2.57558  0.0000E+00  0.1913E-10  0.4125E-14  0.1000E-09  0.0000E+00  0.2802E+16
   -0.629998    2.70566  0.0000E+00  0.3788E-10  0.8017E-14  0.1000E-09  0.0000E+00  0.2472E+16
   -0.665000    2.83283  0.0000E+00  0.7134E-10  0.1482E-13  0.1000E-09  0.0000E+00  0.2163E+16
   -0.700001    2.95716  0.0000E+00  0.1320E-09  0.2690E-13  0.1000E-09  0.0000E+00  0.1871E+16
   -0.735002    3.07866  0.0000E+00  0.2431E-09  0.4857E-13  0.1001E-09  0.0000E+00  0.1630E+16
   -0.770003    3.19987  0.0000E+00  0.4459E-09  0.8738E-13  0.1554E-09  0.0000E+00  0.1457E+16
   -0.805004    3.32712  0.0000E+00  0.8147E-09  0.1566E-12  0.3238E-09  0.0000E+00  0.1254E+16
   -0.840005    3.46101  0.0000E+00  0.1480E-08  0.2791E-12  0.7131E-09  0.0000E+00  0.1015E+16
   -0.875006    3.60266  0.0000E+00  0.2677E-08  0.4953E-12  0.1760E-08  0.0000E+00  0.7313E+15
   -0.910007    3.75386  0.0000E+00  0.4804E-08  0.8729E-12  0.6186E-08  0.0000E+00  0.3760E+15
   -0.945008    3.91204  0.0000E+00  0.7911E-08  0.1428E-11  0.1202E-05  0.0000E+00  0.4875E+14
   -0.980009    4.00754  0.0000E+00  0.9022E-08  0.1641E-11  0.1891E-04  0.0000E+00 -0.4482E+12
   -1.015010    4.00894  0.0000E+00  0.9572E-08  0.1767E-11  0.2066E-04  0.0000E+00 -0.4601E+12
   -1.050010    4.01027  0.0000E+00  0.1004E-07  0.1895E-11  0.2131E-04  0.0000E+00 -0.4994E+12
   -1.085010    4.01162  0.0000E+00  0.1045E-07  0.2037E-11  0.2158E-04  0.0000E+00 -0.5367E+12
   -1.120010    4.01298  0.0000E+00  0.1083E-07  0.2199E-11  0.2139E-04  0.0000E+00 -0.5743E+12
   -1.155010    4.01436  0.0000E+00  0.1116E-07  0.2393E-11  0.2083E-04  0.0000E+00 -0.6254E+12
   -1.190010    4.01577  0.0000E+00  0.1147E-07  0.2644E-11  0.1984E-04  0.0000E+00 -0.7067E+12
   -1.225009    4.01730  0.0000E+00  0.1176E-07  0.3013E-11  0.1850E-04  0.0000E+00 -0.8847E+12
   -1.260008    4.01910  0.0000E+00  0.1201E-07  0.3600E-11  0.1667E-04  0.0000E+00 -0.1272E+13
   -1.295007    4.02152  0.0000E+00  0.1216E-07  0.4974E-11  0.1252E-04  0.0000E+00 -0.2452E+13
   -1.330005    4.02575  0.0000E+00  0.1158E-07  0.8165E-11  0.5161E-05  0.0000E+00 -0.6538E+13
   -1.365004    4.03524  0.0000E+00  0.8783E-08  0.1996E-10  0.8447E-06  0.0000E+00 -0.4989E+14
   -1.400002    4.07997  0.0000E+00  0.0000E+00  0.0000E+00  0.0000E+00  0.0000E+00  0.0000E+00
