 1 - depth, m
 2 - temperature, C
 3 - salinity, kg/kg
 4 - turbulent kinetic energy, m**2/s**2
 5 - dissipation rate, m**2/s**3
 6 - kinematic heat conductance, m**2/s
 7 - modulus of horizontal velocity, m/s
 8 - Richardson number, n/d
   -0.000000    0.00000  0.0000E+00  0.4702E-13  0.1132E-15  0.1000E-09  0.0000E+00  0.9899E+16
   -0.034998    0.15157  0.0000E+00  0.4702E-13  0.1132E-15  0.1000E-09  0.0000E+00  0.9592E+16
   -0.069996    0.30479  0.0000E+00  0.4702E-13  0.1132E-15  0.1000E-09  0.0000E+00  0.9270E+16
   -0.104995    0.45960  0.0000E+00  0.4702E-13  0.1132E-15  0.1000E-09  0.0000E+00  0.8833E+16
   -0.139993    0.61414  0.0000E+00  0.4702E-13  0.1132E-15  0.1000E-09  0.0000E+00  0.8341E+16
   -0.174992    0.76726  0.0000E+00  0.4702E-13  0.1132E-15  0.1000E-09  0.0000E+00  0.7855E+16
   -0.209992    0.91885  0.0000E+00  0.4702E-13  0.1132E-15  0.1000E-09  0.0000E+00  0.7377E+16
   -0.244991    1.06876  0.0000E+00  0.5242E-13  0.1132E-15  0.1000E-09  0.0000E+00  0.6909E+16
   -0.279991    1.21689  0.0000E+00  0.2453E-12  0.1132E-15  0.1000E-09  0.0000E+00  0.6452E+16
   -0.314991    1.36313  0.0000E+00  0.6352E-12  0.1581E-15  0.1000E-09  0.0000E+00  0.6033E+16
   -0.349991    1.50803  0.0000E+00  0.1315E-11  0.2679E-15  0.1000E-09  0.0000E+00  0.5623E+16
   -0.384992    1.65152  0.0000E+00  0.2491E-11  0.4707E-15  0.1000E-09  0.0000E+00  0.5220E+16
   -0.419992    1.79347  0.0000E+00  0.4528E-11  0.8248E-15  0.1000E-09  0.0000E+00  0.4839E+16
   -0.454993    1.93413  0.0000E+00  0.8064E-11  0.1434E-14  0.1000E-09  0.0000E+00  0.4489E+16
   -0.489994    2.07419  0.0000E+00  0.1422E-10  0.2480E-14  0.1000E-09  0.0000E+00  0.4179E+16
   -0.524995    2.21483  0.0000E+00  0.2608E-10  0.4460E-14  0.1000E-09  0.0000E+00  0.4029E+16
   -0.559996    2.36228  0.0000E+00  0.5004E-10  0.8399E-14  0.1000E-09  0.0000E+00  0.3959E+16
   -0.594997    2.52196  0.0000E+00  0.1017E-09  0.1676E-13  0.1000E-09  0.0000E+00  0.3824E+16
   -0.629998    2.69532  0.0000E+00  0.1873E-09  0.3038E-13  0.1000E-09  0.0000E+00  0.3294E+16
   -0.664999    2.86642  0.0000E+00  0.3283E-09  0.5242E-13  0.1000E-09  0.0000E+00  0.2782E+16
   -0.700000    3.03510  0.0000E+00  0.5649E-09  0.8874E-13  0.1014E-09  0.0000E+00  0.2293E+16
   -0.735001    3.20141  0.0000E+00  0.9672E-09  0.1494E-12  0.2110E-09  0.0000E+00  0.1835E+16
   -0.770002    3.36634  0.0000E+00  0.1651E-08  0.2509E-12  0.4624E-09  0.0000E+00  0.1406E+16
   -0.805003    3.53200  0.0000E+00  0.2811E-08  0.4202E-12  0.1123E-08  0.0000E+00  0.9697E+15
   -0.840005    3.69765  0.0000E+00  0.4762E-08  0.7005E-12  0.3410E-08  0.0000E+00  0.5323E+15
   -0.875006    3.86139  0.0000E+00  0.7969E-08  0.1155E-11  0.2499E-07  0.0000E+00  0.1197E+15
   -0.910006    4.00480  0.0000E+00  0.8794E-08  0.1281E-11  0.2480E-04  0.0000E+00 -0.2833E+12
   -0.945007    4.00575  0.0000E+00  0.9160E-08  0.1346E-11  0.2492E-04  0.0000E+00 -0.2956E+12
   -0.980008    4.00670  0.0000E+00  0.9469E-08  0.1412E-11  0.2527E-04  0.0000E+00 -0.3048E+12
   -1.015008    4.00763  0.0000E+00  0.9757E-08  0.1485E-11  0.2551E-04  0.0000E+00 -0.3203E+12
   -1.050009    4.00857  0.0000E+00  0.1003E-07  0.1569E-11  0.2552E-04  0.0000E+00 -0.3414E+12
   -1.085009    4.00953  0.0000E+00  0.1028E-07  0.1668E-11  0.2532E-04  0.0000E+00 -0.3700E+12
   -1.120009    4.01052  0.0000E+00  0.1051E-07  0.1785E-11  0.2472E-04  0.0000E+00 -0.3971E+12
   -1.155009    4.01155  0.0000E+00  0.1071E-07  0.1925E-11  0.2382E-04  0.0000E+00 -0.4323E+12
   -1.190008    4.01262  0.0000E+00  0.1089E-07  0.2103E-11  0.2255E-04  0.0000E+00 -0.4868E+12
   -1.225008    4.01378  0.0000E+00  0.1105E-07  0.2362E-11  0.2097E-04  0.0000E+00 -0.6090E+12
   -1.260007    4.01516  0.0000E+00  0.1119E-07  0.2778E-11  0.1878E-04  0.0000E+00 -0.8796E+12
   -1.295006    4.01704  0.0000E+00  0.1120E-07  0.3796E-11  0.1433E-04  0.0000E+00 -0.1654E+13
   -1.330004    4.02031  0.0000E+00  0.1057E-07  0.6341E-11  0.5418E-05  0.0000E+00 -0.4655E+13
   -1.365002    4.02815  0.0000E+00  0.7734E-08  0.1632E-10  0.7498E-06  0.0000E+00 -0.3937E+14
   -1.400000    4.06866  0.0000E+00  0.0000E+00  0.0000E+00  0.0000E+00  0.0000E+00  0.0000E+00
