 1 - depth, m
 2 - temperature, C
 3 - salinity, kg/kg
 4 - turbulent kinetic energy, m**2/s**2
 5 - dissipation rate, m**2/s**3
 6 - kinematic heat conductance, m**2/s
 7 - modulus of horizontal velocity, m/s
 8 - Richardson number, n/d
   -0.000000    0.00000  0.0000E+00  0.4701E-13  0.1132E-15  0.1000E-09  0.0000E+00  0.5007E+16
   -0.034998    0.07588  0.0000E+00  0.4701E-13  0.1132E-15  0.1000E-09  0.0000E+00  0.4869E+16
   -0.069997    0.15121  0.0000E+00  0.4701E-13  0.1132E-15  0.1000E-09  0.0000E+00  0.4748E+16
   -0.104995    0.22622  0.0000E+00  0.4701E-13  0.1132E-15  0.1000E-09  0.0000E+00  0.4620E+16
   -0.139995    0.30077  0.0000E+00  0.4701E-13  0.1132E-15  0.1000E-09  0.0000E+00  0.4495E+16
   -0.174994    0.37487  0.0000E+00  0.4701E-13  0.1132E-15  0.1000E-09  0.0000E+00  0.4383E+16
   -0.209994    0.44870  0.0000E+00  0.4701E-13  0.1132E-15  0.1000E-09  0.0000E+00  0.4282E+16
   -0.244994    0.52245  0.0000E+00  0.4701E-13  0.1132E-15  0.1000E-09  0.0000E+00  0.4189E+16
   -0.279994    0.59626  0.0000E+00  0.4701E-13  0.1132E-15  0.1000E-09  0.0000E+00  0.4103E+16
   -0.314994    0.67022  0.0000E+00  0.4701E-13  0.1132E-15  0.1000E-09  0.0000E+00  0.4038E+16
   -0.349995    0.74476  0.0000E+00  0.4701E-13  0.1132E-15  0.1000E-09  0.0000E+00  0.3977E+16
   -0.384995    0.81998  0.0000E+00  0.4701E-13  0.1132E-15  0.1000E-09  0.0000E+00  0.3918E+16
   -0.419996    0.89598  0.0000E+00  0.4701E-13  0.1132E-15  0.1000E-09  0.0000E+00  0.3860E+16
   -0.454997    0.97281  0.0000E+00  0.4701E-13  0.1132E-15  0.1000E-09  0.0000E+00  0.3810E+16
   -0.489998    1.05072  0.0000E+00  0.4701E-13  0.1132E-15  0.1000E-09  0.0000E+00  0.3793E+16
   -0.524999    1.13050  0.0000E+00  0.4701E-13  0.1132E-15  0.1000E-09  0.0000E+00  0.3963E+16
   -0.560001    1.21643  0.0000E+00  0.4701E-13  0.1132E-15  0.1000E-09  0.0000E+00  0.4291E+16
   -0.595002    1.31274  0.0000E+00  0.4701E-13  0.1132E-15  0.1000E-09  0.0000E+00  0.4624E+16
   -0.630004    1.42077  0.0000E+00  0.4701E-13  0.1132E-15  0.1000E-09  0.0000E+00  0.4422E+16
   -0.665005    1.52870  0.0000E+00  0.4701E-13  0.1132E-15  0.1000E-09  0.0000E+00  0.4229E+16
   -0.700007    1.63675  0.0000E+00  0.4701E-13  0.1132E-15  0.1000E-09  0.0000E+00  0.4048E+16
   -0.735008    1.74524  0.0000E+00  0.4701E-13  0.1132E-15  0.1000E-09  0.0000E+00  0.3887E+16
   -0.770009    1.85481  0.0000E+00  0.4701E-13  0.1132E-15  0.1000E-09  0.0000E+00  0.3750E+16
   -0.805011    1.96634  0.0000E+00  0.4701E-13  0.1132E-15  0.1000E-09  0.0000E+00  0.3594E+16
   -0.840012    2.07957  0.0000E+00  0.4701E-13  0.1132E-15  0.1000E-09  0.0000E+00  0.3425E+16
   -0.875014    2.19433  0.0000E+00  0.4701E-13  0.1132E-15  0.1000E-09  0.0000E+00  0.3250E+16
   -0.910015    2.31071  0.0000E+00  0.4701E-13  0.1132E-15  0.1000E-09  0.0000E+00  0.3034E+16
   -0.945016    2.42740  0.0000E+00  0.4701E-13  0.1132E-15  0.1000E-09  0.0000E+00  0.2804E+16
   -0.980017    2.54386  0.0000E+00  0.4701E-13  0.1132E-15  0.1000E-09  0.0000E+00  0.2572E+16
   -1.015018    2.65987  0.0000E+00  0.4701E-13  0.1132E-15  0.1000E-09  0.0000E+00  0.2377E+16
   -1.050019    2.77718  0.0000E+00  0.4701E-13  0.1132E-15  0.1000E-09  0.0000E+00  0.2193E+16
   -1.085019    2.89678  0.0000E+00  0.8503E-13  0.1534E-15  0.1000E-09  0.0000E+00  0.2062E+16
   -1.120019    3.02291  0.0000E+00  0.3921E-12  0.6541E-15  0.1000E-09  0.0000E+00  0.1837E+16
   -1.155020    3.15146  0.0000E+00  0.1870E-11  0.3017E-14  0.1000E-09  0.0000E+00  0.1603E+16
   -1.190019    3.28289  0.0000E+00  0.8842E-11  0.1386E-13  0.1000E-09  0.0000E+00  0.1382E+16
   -1.225019    3.42049  0.0000E+00  0.4369E-10  0.6658E-13  0.1338E-09  0.0000E+00  0.1235E+16
   -1.260018    3.58169  0.0000E+00  0.2275E-09  0.3375E-12  0.8332E-09  0.0000E+00  0.9988E+15
   -1.295018    3.79442  0.0000E+00  0.1355E-08  0.1965E-11  0.1753E-07  0.0000E+00  0.2443E+15
   -1.330016    4.06186  0.0000E+00  0.5361E-08  0.8018E-11  0.1459E-05  0.0000E+00 -0.3355E+14
   -1.365015    4.08630  0.0000E+00  0.5410E-08  0.1446E-10  0.5729E-06  0.0000E+00 -0.8780E+14
   -1.400013    4.13201  0.0000E+00  0.0000E+00  0.0000E+00  0.0000E+00  0.0000E+00  0.0000E+00
