 1 - depth, m
 2 - temperature, C
 3 - salinity, kg/kg
 4 - turbulent kinetic energy, m**2/s**2
 5 - dissipation rate, m**2/s**3
 6 - kinematic heat conductance, m**2/s
 7 - modulus of horizontal velocity, m/s
 8 - Richardson number, n/d
   -0.000000    0.00000  0.0000E+00  0.1820E-09  0.1796E-12  0.1000E-09  0.1785E-46  0.9255E+16
   -0.034997    0.14160  0.0000E+00  0.4750E-09  0.1263E-12  0.1000E-09  0.8243E-47  0.7383E+16
   -0.069994    0.25880  0.0000E+00  0.9779E-09  0.1231E-12  0.1000E-09  0.3727E-47  0.6180E+16
   -0.104991    0.36009  0.0000E+00  0.1687E-08  0.1432E-12  0.1000E-09  0.1651E-47  0.5426E+16
   -0.139989    0.45161  0.0000E+00  0.2635E-08  0.1816E-12  0.1060E-09  0.7161E-48  0.5027E+16
   -0.174987    0.53873  0.0000E+00  0.3886E-08  0.2391E-12  0.1293E-09  0.3049E-48  0.4917E+16
   -0.209985    0.62623  0.0000E+00  0.5534E-08  0.3192E-12  0.1657E-09  0.1293E-48  0.5024E+16
   -0.244983    0.71815  0.0000E+00  0.7708E-08  0.4273E-12  0.2109E-09  0.5339E-49  0.5262E+16
   -0.279982    0.81738  0.0000E+00  0.1058E-07  0.5717E-12  0.2661E-09  0.2018E-49  0.5566E+16
   -0.314981    0.92595  0.0000E+00  0.1445E-07  0.7660E-12  0.3788E-09  0.3906E-50  0.5233E+16
   -0.349980    1.03185  0.0000E+00  0.1974E-07  0.1030E-11  0.5463E-09  0.6942E-51  0.4879E+16
   -0.384979    1.13428  0.0000E+00  0.2696E-07  0.1389E-11  0.7887E-09  0.1191E-51  0.4554E+16
   -0.419979    1.23349  0.0000E+00  0.3672E-07  0.1871E-11  0.1035E-08  0.2382E-52  0.4667E+16
   -0.454978    1.33918  0.0000E+00  0.4987E-07  0.2514E-11  0.1318E-08  0.4496E-53  0.4921E+16
   -0.489978    1.45558  0.0000E+00  0.6760E-07  0.3374E-11  0.1800E-08  0.5668E-54  0.4834E+16
   -0.524978    1.57559  0.0000E+00  0.9414E-07  0.4650E-11  0.3588E-08  0.3163E-55  0.3342E+16
   -0.559978    1.66236  0.0000E+00  0.1358E-06  0.6642E-11  0.1918E-07  0.1408E-56  0.9116E+15
   -0.594978    1.68675  0.0000E+00  0.1361E-06  0.6658E-11  0.8527E-03  0.4542E-58 -0.2960E+12
   -0.629978    1.68675  0.0000E+00  0.1362E-06  0.6660E-11  0.8484E-03  0.4418E-58 -0.2026E+12
   -0.664978    1.68674  0.0000E+00  0.1361E-06  0.6657E-11  0.8508E-03  0.4373E-58 -0.1192E+12
   -0.699978    1.68674  0.0000E+00  0.1361E-06  0.6653E-11  0.8576E-03  0.4283E-58 -0.4990E+11
   -0.734978    1.68674  0.0000E+00  0.1359E-06  0.6647E-11  0.5211E-03  0.4255E-58  0.5248E+14
   -0.769978    1.68824  0.0000E+00  0.1277E-06  0.6247E-11  0.4492E-07  0.4216E-58  0.4045E+15
   -0.804978    1.69929  0.0000E+00  0.1025E-06  0.5052E-11  0.1619E-07  0.7652E-59  0.8327E+15
   -0.839978    1.72201  0.0000E+00  0.8147E-07  0.4052E-11  0.8399E-08  0.1184E-59  0.1263E+16
   -0.874977    1.75685  0.0000E+00  0.6450E-07  0.3240E-11  0.5096E-08  0.1668E-60  0.1653E+16
   -0.909977    1.80323  0.0000E+00  0.5092E-07  0.2587E-11  0.3133E-08  0.2568E-61  0.2133E+16
   -0.944977    1.86458  0.0000E+00  0.4026E-07  0.2070E-11  0.2054E-08  0.3877E-62  0.2596E+16
   -0.979977    1.94171  0.0000E+00  0.3192E-07  0.1665E-11  0.1437E-08  0.5432E-63  0.2980E+16
   -1.014976    2.03403  0.0000E+00  0.2537E-07  0.1347E-11  0.1111E-08  0.5725E-64  0.3116E+16
   -1.049975    2.13560  0.0000E+00  0.2012E-07  0.1095E-11  0.8811E-09  0.5345E-65  0.3194E+16
   -1.084974    2.24599  0.0000E+00  0.1584E-07  0.8945E-12  0.6418E-09  0.4504E-66  0.3585E+16
   -1.119973    2.37915  0.0000E+00  0.1238E-07  0.7416E-12  0.4964E-09  0.4406E-67  0.3848E+16
   -1.154972    2.53594  0.0000E+00  0.9632E-08  0.6356E-12  0.4182E-09  0.3836E-68  0.3930E+16
   -1.189970    2.71638  0.0000E+00  0.7461E-08  0.5796E-12  0.3950E-09  0.2648E-69  0.3829E+16
   -1.224968    2.92198  0.0000E+00  0.5673E-08  0.5912E-12  0.4395E-09  0.1136E-70  0.3584E+16
   -1.259966    3.16118  0.0000E+00  0.4145E-08  0.7574E-12  0.6946E-09  0.3554E-72  0.3099E+16
   -1.294964    3.45271  0.0000E+00  0.2933E-08  0.1657E-11  0.4239E-08  0.9505E-74  0.1907E+16
   -1.329961    3.80677  0.0000E+00  0.3727E-08  0.5284E-11  0.5560E-06  0.4629E-75  0.4774E+15
   -1.364959    4.00339  0.0000E+00  0.4644E-08  0.1343E-10  0.4655E-06  0.1798E-76 -0.3676E+14
   -1.399955    4.10229  0.0000E+00  0.0000E+00  0.0000E+00  0.0000E+00  0.3047E-76  0.0000E+00
