 1 - depth, m
 2 - temperature, C
 3 - salinity, kg/kg
 4 - turbulent kinetic energy, m**2/s**2
 5 - dissipation rate, m**2/s**3
 6 - kinematic heat conductance, m**2/s
 7 - modulus of horizontal velocity, m/s
 8 - Richardson number, n/d
   -0.000000    2.26116  0.0000E+00  0.5341E-04  0.1429E-04  0.3136E-04  0.5322E-01  0.3878E-02
   -0.034998    2.30813  0.0000E+00  0.3377E-04  0.4028E-05  0.5192E-04  0.2295E-01  0.6939E-02
   -0.069996    2.32013  0.0000E+00  0.2605E-04  0.1925E-05  0.5950E-04  0.1716E-01  0.1273E-01
   -0.104994    2.32935  0.0000E+00  0.2128E-04  0.1087E-05  0.6539E-04  0.1387E-01  0.1811E-01
   -0.139993    2.33717  0.0000E+00  0.1781E-04  0.6650E-06  0.6997E-04  0.1143E-01  0.2653E-01
   -0.174992    2.34420  0.0000E+00  0.1516E-04  0.4304E-06  0.7314E-04  0.9493E-02  0.3772E-01
   -0.209992    2.35075  0.0000E+00  0.1308E-04  0.2932E-06  0.7461E-04  0.7888E-02  0.5118E-01
   -0.244991    2.35708  0.0000E+00  0.1139E-04  0.2090E-06  0.7411E-04  0.6510E-02  0.6660E-01
   -0.279991    2.36340  0.0000E+00  0.9904E-05  0.1536E-06  0.7050E-04  0.5282E-02  0.7836E-01
   -0.314991    2.37018  0.0000E+00  0.8432E-05  0.1132E-06  0.6946E-04  0.4117E-02  0.1568E+00
   -0.349991    2.37713  0.0000E+00  0.7128E-05  0.8417E-07  0.6631E-04  0.3212E-02  0.3675E+00
   -0.384991    2.38498  0.0000E+00  0.6015E-05  0.6330E-07  0.6204E-04  0.2499E-02  0.1520E+01
   -0.419992    2.39620  0.0000E+00  0.5096E-05  0.4835E-07  0.5626E-04  0.1936E-02  0.2407E+02
   -0.454993    2.42159  0.0000E+00  0.4328E-05  0.3744E-07  0.5026E-04  0.1450E-02  0.8932E+03
   -0.489993    2.48076  0.0000E+00  0.3683E-05  0.2937E-07  0.4539E-04  0.1014E-02  0.5500E+05
   -0.524994    2.59290  0.0000E+00  0.3120E-05  0.2303E-07  0.4324E-04  0.6505E-03  0.8894E+07
   -0.559995    2.72420  0.0000E+00  0.2639E-05  0.1800E-07  0.4469E-04  0.4302E-03  0.4339E+09
   -0.594996    2.78552  0.0000E+00  0.2173E-05  0.1351E-07  0.5535E-04  0.3114E-03  0.2849E+11
   -0.629997    2.79488  0.0000E+00  0.1772E-05  0.1006E-07  0.4905E-04  0.2580E-03  0.1774E+12
   -0.664999    2.81600  0.0000E+00  0.1442E-05  0.7487E-08  0.4728E-04  0.2100E-03  0.3016E+12
   -0.700000    2.85396  0.0000E+00  0.1173E-05  0.5570E-08  0.4916E-04  0.1670E-03  0.6986E+12
   -0.735001    2.91587  0.0000E+00  0.9559E-06  0.4132E-08  0.5341E-04  0.1297E-03  0.1080E+13
   -0.770002    2.99312  0.0000E+00  0.7784E-06  0.3048E-08  0.5930E-04  0.9874E-04  0.2292E+13
   -0.805003    3.08556  0.0000E+00  0.6328E-06  0.2229E-08  0.6688E-04  0.7363E-04  0.1820E+14
   -0.840004    3.18631  0.0000E+00  0.5163E-06  0.1617E-08  0.7423E-04  0.5349E-04  0.7624E+14
   -0.875005    3.29290  0.0000E+00  0.4255E-06  0.1164E-08  0.8142E-04  0.3787E-04  0.1605E+14
   -0.910006    3.39668  0.0000E+00  0.3553E-06  0.8325E-09  0.8771E-04  0.2647E-04 -0.1149E+13
   -0.945007    3.49947  0.0000E+00  0.3036E-06  0.5978E-09  0.9316E-04  0.1789E-04 -0.1577E+13
   -0.980007    3.59620  0.0000E+00  0.2648E-06  0.4309E-09  0.9706E-04  0.1148E-04 -0.1357E+13
   -1.015008    3.68462  0.0000E+00  0.2358E-06  0.3129E-09  0.9986E-04  0.6524E-05  0.1357E+13
   -1.050008    3.75729  0.0000E+00  0.2158E-06  0.2337E-09  0.1010E-03  0.3377E-05  0.1061E+14
   -1.085009    3.82049  0.0000E+00  0.2026E-06  0.1819E-09  0.1010E-03  0.1626E-05  0.1284E+13
   -1.120009    3.89719  0.0000E+00  0.1939E-06  0.1484E-09  0.1005E-03  0.7462E-06  0.2063E+14
   -1.155008    3.98404  0.0000E+00  0.1891E-06  0.1293E-09  0.9940E-04  0.2344E-06  0.7185E+13
   -1.190008    4.07119  0.0000E+00  0.1890E-06  0.1271E-09  0.9674E-04  0.2464E-07 -0.6131E+13
   -1.225007    4.13131  0.0000E+00  0.1916E-06  0.1382E-09  0.9191E-04  0.1035E-08 -0.7527E+13
   -1.260006    4.13764  0.0000E+00  0.1923E-06  0.1562E-09  0.8212E-04  0.1542E-09 -0.9937E+13
   -1.295005    4.14309  0.0000E+00  0.1902E-06  0.1974E-09  0.6615E-04  0.2556E-10 -0.1529E+14
   -1.330003    4.15005  0.0000E+00  0.1820E-06  0.2917E-09  0.4092E-04  0.6655E-11 -0.2877E+14
   -1.365002    4.16144  0.0000E+00  0.1334E-06  0.8786E-09  0.3821E-05  0.1357E-11 -0.3105E+15
   -1.399999    4.25183  0.0000E+00  0.0000E+00  0.0000E+00  0.0000E+00  0.1372E-11  0.0000E+00
