 1 - depth, m
 2 - temperature, C
 3 - salinity, kg/kg
 4 - turbulent kinetic energy, m**2/s**2
 5 - dissipation rate, m**2/s**3
 6 - kinematic heat conductance, m**2/s
 7 - modulus of horizontal velocity, m/s
 8 - Richardson number, n/d
   -0.000000    0.00000  0.0000E+00  0.4702E-13  0.1132E-15  0.1000E-09  0.0000E+00  0.7034E+16
   -0.034998    0.10706  0.0000E+00  0.4702E-13  0.1132E-15  0.1000E-09  0.0000E+00  0.6872E+16
   -0.069996    0.21479  0.0000E+00  0.4702E-13  0.1132E-15  0.1000E-09  0.0000E+00  0.6709E+16
   -0.104994    0.32321  0.0000E+00  0.4702E-13  0.1132E-15  0.1000E-09  0.0000E+00  0.6483E+16
   -0.139993    0.43132  0.0000E+00  0.4702E-13  0.1132E-15  0.1000E-09  0.0000E+00  0.6224E+16
   -0.174992    0.53850  0.0000E+00  0.4702E-13  0.1132E-15  0.1000E-09  0.0000E+00  0.5968E+16
   -0.209991    0.64469  0.0000E+00  0.4702E-13  0.1132E-15  0.1000E-09  0.0000E+00  0.5712E+16
   -0.244991    0.74979  0.0000E+00  0.4702E-13  0.1132E-15  0.1000E-09  0.0000E+00  0.5459E+16
   -0.279990    0.85370  0.0000E+00  0.4702E-13  0.1132E-15  0.1000E-09  0.0000E+00  0.5208E+16
   -0.314990    0.95632  0.0000E+00  0.4702E-13  0.1132E-15  0.1000E-09  0.0000E+00  0.5007E+16
   -0.349990    1.05857  0.0000E+00  0.4702E-13  0.1132E-15  0.1000E-09  0.0000E+00  0.4811E+16
   -0.384991    1.16047  0.0000E+00  0.4702E-13  0.1132E-15  0.1000E-09  0.0000E+00  0.4614E+16
   -0.419991    1.26194  0.0000E+00  0.4702E-13  0.1132E-15  0.1000E-09  0.0000E+00  0.4407E+16
   -0.454992    1.36270  0.0000E+00  0.4702E-13  0.1132E-15  0.1000E-09  0.0000E+00  0.4212E+16
   -0.489993    1.46294  0.0000E+00  0.4702E-13  0.1132E-15  0.1000E-09  0.0000E+00  0.4067E+16
   -0.524993    1.56382  0.0000E+00  0.4702E-13  0.1132E-15  0.1000E-09  0.0000E+00  0.4153E+16
   -0.559994    1.67155  0.0000E+00  0.4702E-13  0.1132E-15  0.1000E-09  0.0000E+00  0.4394E+16
   -0.594995    1.79151  0.0000E+00  0.4702E-13  0.1132E-15  0.1000E-09  0.0000E+00  0.4607E+16
   -0.629996    1.92506  0.0000E+00  0.4702E-13  0.1132E-15  0.1000E-09  0.0000E+00  0.4230E+16
   -0.664997    2.05610  0.0000E+00  0.4702E-13  0.1132E-15  0.1000E-09  0.0000E+00  0.3866E+16
   -0.699998    2.18447  0.0000E+00  0.4702E-13  0.1132E-15  0.1000E-09  0.0000E+00  0.3522E+16
   -0.735000    2.31021  0.0000E+00  0.4702E-13  0.1132E-15  0.1000E-09  0.0000E+00  0.3217E+16
   -0.770001    2.43419  0.0000E+00  0.4702E-13  0.1132E-15  0.1000E-09  0.0000E+00  0.2962E+16
   -0.805002    2.55809  0.0000E+00  0.4702E-13  0.1132E-15  0.1000E-09  0.0000E+00  0.2700E+16
   -0.840003    2.68149  0.0000E+00  0.4702E-13  0.1132E-15  0.1000E-09  0.0000E+00  0.2437E+16
   -0.875004    2.80413  0.0000E+00  0.4702E-13  0.1132E-15  0.1000E-09  0.0000E+00  0.2179E+16
   -0.910004    2.92602  0.0000E+00  0.1620E-12  0.1355E-15  0.1000E-09  0.0000E+00  0.1904E+16
   -0.945005    3.04556  0.0000E+00  0.5146E-12  0.3428E-15  0.1000E-09  0.0000E+00  0.1633E+16
   -0.980006    3.16206  0.0000E+00  0.1475E-11  0.9288E-15  0.1000E-09  0.0000E+00  0.1377E+16
   -1.015006    3.27517  0.0000E+00  0.4125E-11  0.2514E-14  0.1000E-09  0.0000E+00  0.1155E+16
   -1.050006    3.38649  0.0000E+00  0.1147E-10  0.6791E-14  0.1000E-09  0.0000E+00  0.9512E+15
   -1.085007    3.49703  0.0000E+00  0.3177E-10  0.1830E-13  0.1000E-09  0.0000E+00  0.7882E+15
   -1.120006    3.61288  0.0000E+00  0.8650E-10  0.4852E-13  0.2150E-09  0.0000E+00  0.5776E+15
   -1.155006    3.72926  0.0000E+00  0.2330E-09  0.1274E-12  0.8879E-09  0.0000E+00  0.3649E+15
   -1.190006    3.84618  0.0000E+00  0.6241E-09  0.3332E-12  0.5518E-08  0.0000E+00  0.1501E+15
   -1.225005    3.96393  0.0000E+00  0.1639E-08  0.8646E-12  0.3399E-06  0.0000E+00  0.6553E+12
   -1.260004    4.00685  0.0000E+00  0.3368E-08  0.2089E-11  0.2021E-05  0.0000E+00 -0.5545E+13
   -1.295003    4.01993  0.0000E+00  0.5100E-08  0.4012E-11  0.2696E-05  0.0000E+00 -0.9351E+13
   -1.330001    4.03452  0.0000E+00  0.5893E-08  0.6517E-11  0.1896E-05  0.0000E+00 -0.1723E+14
   -1.364999    4.05359  0.0000E+00  0.5196E-08  0.1257E-10  0.5669E-06  0.0000E+00 -0.6808E+14
   -1.399997    4.10134  0.0000E+00  0.0000E+00  0.0000E+00  0.0000E+00  0.0000E+00  0.0000E+00
