 1 - depth, m
 2 - temperature, C
 3 - salinity, kg/kg
 4 - turbulent kinetic energy, m**2/s**2
 5 - dissipation rate, m**2/s**3
 6 - kinematic heat conductance, m**2/s
 7 - modulus of horizontal velocity, m/s
 8 - Richardson number, n/d
   -0.000000   17.27182  0.0000E+00  0.5811E-04  0.1275E-04  0.3231E-04  0.5737E-01 -0.8888E-01
   -0.034998   17.33927  0.0000E+00  0.3754E-04  0.3706E-05  0.5487E-04  0.2431E-01 -0.4282E-01
   -0.069996   17.35590  0.0000E+00  0.2996E-04  0.1744E-05  0.7443E-04  0.1796E-01 -0.6181E-01
   -0.104994   17.36667  0.0000E+00  0.2548E-04  0.9866E-06  0.9446E-04  0.1435E-01 -0.8527E-01
   -0.139993   17.37479  0.0000E+00  0.2242E-04  0.6226E-06  0.1154E-03  0.1176E-01 -0.1134E+00
   -0.174992   17.38130  0.0000E+00  0.2020E-04  0.4250E-06  0.1409E-03  0.9785E-02  0.1707E+01
   -0.209992   17.38658  0.0000E+00  0.1855E-04  0.3095E-06  0.2153E-03  0.8220E-02  0.1848E+03
   -0.244991   17.39043  0.0000E+00  0.1732E-04  0.2382E-06  0.3375E-03  0.6974E-02  0.1413E+04
   -0.279991   17.39295  0.0000E+00  0.1634E-04  0.1910E-06  0.3824E-03  0.5948E-02  0.4461E+04
   -0.314991   17.39490  0.0000E+00  0.1544E-04  0.1563E-06  0.4124E-03  0.4992E-02  0.3779E+03
   -0.349991   17.39657  0.0000E+00  0.1463E-04  0.1300E-06  0.4303E-03  0.4178E-02  0.2014E+03
   -0.384991   17.39810  0.0000E+00  0.1392E-04  0.1096E-06  0.4466E-03  0.3476E-02  0.6541E+01
   -0.419992   17.39952  0.0000E+00  0.1331E-04  0.9380E-07  0.4561E-03  0.2870E-02  0.6873E+01
   -0.454993   17.40087  0.0000E+00  0.1276E-04  0.8149E-07  0.4674E-03  0.2319E-02  0.4393E+01
   -0.489993   17.40216  0.0000E+00  0.1228E-04  0.7181E-07  0.4746E-03  0.1816E-02  0.3246E+01
   -0.524994   17.40339  0.0000E+00  0.1179E-04  0.6347E-07  0.5024E-03  0.1360E-02  0.1807E+01
   -0.559995   17.40457  0.0000E+00  0.1130E-04  0.5602E-07  0.5542E-03  0.1021E-02  0.1174E+01
   -0.594996   17.40565  0.0000E+00  0.1081E-04  0.4915E-07  0.6763E-03  0.8017E-03  0.8690E+00
   -0.629997   17.40657  0.0000E+00  0.1044E-04  0.4422E-07  0.7502E-03  0.6874E-03  0.9700E+00
   -0.664998   17.40739  0.0000E+00  0.1013E-04  0.4052E-07  0.7648E-03  0.5995E-03  0.9618E+00
   -0.700000   17.40817  0.0000E+00  0.9860E-05  0.3756E-07  0.7827E-03  0.5207E-03  0.9747E+00
   -0.735001   17.40892  0.0000E+00  0.9615E-05  0.3523E-07  0.7949E-03  0.4522E-03  0.9747E+00
   -0.770002   17.40965  0.0000E+00  0.9390E-05  0.3342E-07  0.7994E-03  0.3939E-03  0.9583E+00
   -0.805003   17.41036  0.0000E+00  0.9183E-05  0.3206E-07  0.7963E-03  0.3449E-03  0.9391E+00
   -0.840004   17.41106  0.0000E+00  0.8992E-05  0.3109E-07  0.7855E-03  0.3039E-03  0.9080E+00
   -0.875005   17.41176  0.0000E+00  0.8813E-05  0.3044E-07  0.7691E-03  0.2696E-03  0.8690E+00
   -0.910006   17.41246  0.0000E+00  0.8645E-05  0.3008E-07  0.7502E-03  0.2412E-03  0.8550E+00
   -0.945007   17.41317  0.0000E+00  0.8483E-05  0.2999E-07  0.7289E-03  0.2169E-03  0.8868E+00
   -0.980007   17.41389  0.0000E+00  0.8321E-05  0.3017E-07  0.7021E-03  0.1955E-03  0.9852E+00
   -1.015008   17.41462  0.0000E+00  0.8150E-05  0.3069E-07  0.6735E-03  0.1760E-03  0.1191E+01
   -1.050008   17.41538  0.0000E+00  0.7961E-05  0.3168E-07  0.6308E-03  0.1581E-03  0.1626E+01
   -1.085008   17.41619  0.0000E+00  0.7743E-05  0.3338E-07  0.5970E-03  0.1411E-03  0.2393E+01
   -1.120008   17.41705  0.0000E+00  0.7487E-05  0.3633E-07  0.5420E-03  0.1254E-03  0.4538E+01
   -1.155008   17.41807  0.0000E+00  0.7177E-05  0.4131E-07  0.5086E-03  0.1090E-03  0.3108E+02
   -1.190008   17.41927  0.0000E+00  0.6773E-05  0.5029E-07  0.4410E-03  0.9224E-04 -0.1135E+04
   -1.225007   17.42121  0.0000E+00  0.6267E-05  0.6564E-07  0.4017E-03  0.7188E-04  0.6653E+04
   -1.260006   17.42304  0.0000E+00  0.5516E-05  0.1069E-06  0.2927E-03  0.5492E-04 -0.4717E+04
   -1.295005   17.43024  0.0000E+00  0.4587E-05  0.1985E-06  0.2843E-03  0.3541E-04  0.4255E+06
   -1.330003   17.42606  0.0000E+00  0.3557E-05  0.4499E-06  0.1332E-03  0.3210E-04 -0.5677E+05
   -1.365001   17.44836  0.0000E+00  0.2530E-05  0.9766E-06  0.1298E-03  0.1832E-04 -0.5161E+05
   -1.399999   17.44761  0.0000E+00  0.0000E+00  0.0000E+00  0.0000E+00  0.3514E-04  0.0000E+00
