 1 - depth, m
 2 - temperature, C
 3 - salinity, kg/kg
 4 - turbulent kinetic energy, m**2/s**2
 5 - dissipation rate, m**2/s**3
 6 - kinematic heat conductance, m**2/s
 7 - modulus of horizontal velocity, m/s
 8 - Richardson number, n/d
   -0.000000    0.00000  0.0000E+00  0.4702E-13  0.1132E-15  0.1000E-09  0.0000E+00  0.5554E+16
   -0.034998    0.08427  0.0000E+00  0.4702E-13  0.1132E-15  0.1000E-09  0.0000E+00  0.5472E+16
   -0.069996    0.16924  0.0000E+00  0.4702E-13  0.1132E-15  0.1000E-09  0.0000E+00  0.5383E+16
   -0.104995    0.25485  0.0000E+00  0.4702E-13  0.1132E-15  0.1000E-09  0.0000E+00  0.5248E+16
   -0.139994    0.34036  0.0000E+00  0.4702E-13  0.1132E-15  0.1000E-09  0.0000E+00  0.5087E+16
   -0.174993    0.42532  0.0000E+00  0.4702E-13  0.1132E-15  0.1000E-09  0.0000E+00  0.4924E+16
   -0.209992    0.50968  0.0000E+00  0.4702E-13  0.1132E-15  0.1000E-09  0.0000E+00  0.4761E+16
   -0.244992    0.59335  0.0000E+00  0.4702E-13  0.1132E-15  0.1000E-09  0.0000E+00  0.4598E+16
   -0.279992    0.67628  0.0000E+00  0.4702E-13  0.1132E-15  0.1000E-09  0.0000E+00  0.4435E+16
   -0.314992    0.75840  0.0000E+00  0.4702E-13  0.1132E-15  0.1000E-09  0.0000E+00  0.4328E+16
   -0.349993    0.84073  0.0000E+00  0.4702E-13  0.1132E-15  0.1000E-09  0.0000E+00  0.4226E+16
   -0.384993    0.92337  0.0000E+00  0.4702E-13  0.1132E-15  0.1000E-09  0.0000E+00  0.4124E+16
   -0.419994    1.00633  0.0000E+00  0.4702E-13  0.1132E-15  0.1000E-09  0.0000E+00  0.4003E+16
   -0.454995    1.08924  0.0000E+00  0.4702E-13  0.1132E-15  0.1000E-09  0.0000E+00  0.3890E+16
   -0.489995    1.17228  0.0000E+00  0.4702E-13  0.1132E-15  0.1000E-09  0.0000E+00  0.3835E+16
   -0.524996    1.25673  0.0000E+00  0.4702E-13  0.1132E-15  0.1000E-09  0.0000E+00  0.4061E+16
   -0.559998    1.34925  0.0000E+00  0.4702E-13  0.1132E-15  0.1000E-09  0.0000E+00  0.4504E+16
   -0.594999    1.45598  0.0000E+00  0.4702E-13  0.1132E-15  0.1000E-09  0.0000E+00  0.4943E+16
   -0.630000    1.57880  0.0000E+00  0.4702E-13  0.1132E-15  0.1000E-09  0.0000E+00  0.4640E+16
   -0.665001    1.70032  0.0000E+00  0.4702E-13  0.1132E-15  0.1000E-09  0.0000E+00  0.4340E+16
   -0.700003    1.82041  0.0000E+00  0.4702E-13  0.1132E-15  0.1000E-09  0.0000E+00  0.4055E+16
   -0.735004    1.93922  0.0000E+00  0.4702E-13  0.1132E-15  0.1000E-09  0.0000E+00  0.3803E+16
   -0.770005    2.05750  0.0000E+00  0.4702E-13  0.1132E-15  0.1000E-09  0.0000E+00  0.3590E+16
   -0.805006    2.17650  0.0000E+00  0.4702E-13  0.1132E-15  0.1000E-09  0.0000E+00  0.3365E+16
   -0.840008    2.29584  0.0000E+00  0.4702E-13  0.1132E-15  0.1000E-09  0.0000E+00  0.3133E+16
   -0.875009    2.41532  0.0000E+00  0.4702E-13  0.1132E-15  0.1000E-09  0.0000E+00  0.2903E+16
   -0.910010    2.53504  0.0000E+00  0.4702E-13  0.1132E-15  0.1000E-09  0.0000E+00  0.2640E+16
   -0.945011    2.65343  0.0000E+00  0.4702E-13  0.1132E-15  0.1000E-09  0.0000E+00  0.2372E+16
   -0.980011    2.76985  0.0000E+00  0.4702E-13  0.1132E-15  0.1000E-09  0.0000E+00  0.2113E+16
   -1.015012    2.88407  0.0000E+00  0.4702E-13  0.1132E-15  0.1000E-09  0.0000E+00  0.1898E+16
   -1.050013    2.99806  0.0000E+00  0.9632E-13  0.1337E-15  0.1000E-09  0.0000E+00  0.1699E+16
   -1.085013    3.11286  0.0000E+00  0.3866E-12  0.4672E-15  0.1000E-09  0.0000E+00  0.1550E+16
   -1.120013    3.23295  0.0000E+00  0.1521E-11  0.1766E-14  0.1000E-09  0.0000E+00  0.1326E+16
   -1.155013    3.35373  0.0000E+00  0.5869E-11  0.6603E-14  0.1000E-09  0.0000E+00  0.1101E+16
   -1.190013    3.47559  0.0000E+00  0.2247E-10  0.2454E-13  0.1000E-09  0.0000E+00  0.8923E+15
   -1.225012    3.60196  0.0000E+00  0.8981E-10  0.9538E-13  0.3290E-09  0.0000E+00  0.7252E+15
   -1.260011    3.75050  0.0000E+00  0.3788E-09  0.3920E-12  0.2261E-08  0.0000E+00  0.4249E+15
   -1.295010    3.94776  0.0000E+00  0.1751E-08  0.1787E-11  0.3162E-06  0.0000E+00 -0.7527E+13
   -1.330009    4.03581  0.0000E+00  0.4130E-08  0.5530E-11  0.1225E-05  0.0000E+00 -0.2659E+14
   -1.365007    4.06278  0.0000E+00  0.4227E-08  0.1054E-10  0.4827E-06  0.0000E+00 -0.7676E+14
   -1.400005    4.11146  0.0000E+00  0.0000E+00  0.0000E+00  0.0000E+00  0.0000E+00  0.0000E+00
