 1 - depth, m
 2 - temperature, C
 3 - salinity, kg/kg
 4 - turbulent kinetic energy, m**2/s**2
 5 - dissipation rate, m**2/s**3
 6 - kinematic heat conductance, m**2/s
 7 - modulus of horizontal velocity, m/s
 8 - Richardson number, n/d
   -0.000000   14.28438  0.0000E+00  0.6608E-04  0.1908E-04  0.3548E-04  0.6247E-01 -0.3760E-01
   -0.034998   14.34325  0.0000E+00  0.4108E-04  0.5502E-05  0.5890E-04  0.2492E-01 -0.3253E-01
   -0.069996   14.35648  0.0000E+00  0.3194E-04  0.2470E-05  0.7421E-04  0.1802E-01 -0.4762E-01
   -0.104994   14.36551  0.0000E+00  0.2666E-04  0.1364E-05  0.8960E-04  0.1442E-01 -0.6297E-01
   -0.139993   14.37255  0.0000E+00  0.2301E-04  0.8268E-06  0.1063E-03  0.1183E-01  0.1734E+01
   -0.174992   14.37830  0.0000E+00  0.2034E-04  0.5379E-06  0.1247E-03  0.9826E-02  0.1783E+00
   -0.209991   14.38315  0.0000E+00  0.1832E-04  0.3723E-06  0.1603E-03  0.8214E-02  0.2764E+02
   -0.244990   14.38709  0.0000E+00  0.1675E-04  0.2721E-06  0.2203E-03  0.6889E-02  0.2784E+02
   -0.279990   14.39025  0.0000E+00  0.1547E-04  0.2079E-06  0.2672E-03  0.5774E-02  0.3800E+03
   -0.314990   14.39283  0.0000E+00  0.1433E-04  0.1633E-06  0.3258E-03  0.4787E-02  0.6449E+02
   -0.349990   14.39491  0.0000E+00  0.1336E-04  0.1316E-06  0.3704E-03  0.3989E-02  0.3118E+02
   -0.384990   14.39662  0.0000E+00  0.1254E-04  0.1083E-06  0.4093E-03  0.3319E-02  0.4034E+02
   -0.419991   14.39808  0.0000E+00  0.1185E-04  0.9104E-07  0.4255E-03  0.2748E-02  0.2240E+02
   -0.454991   14.39942  0.0000E+00  0.1126E-04  0.7793E-07  0.4364E-03  0.2228E-02  0.6158E+01
   -0.489992   14.40069  0.0000E+00  0.1073E-04  0.6777E-07  0.4425E-03  0.1751E-02  0.7922E+01
   -0.524993   14.40192  0.0000E+00  0.1021E-04  0.5912E-07  0.4715E-03  0.1319E-02  0.2089E+01
   -0.559994   14.40304  0.0000E+00  0.9690E-05  0.5145E-07  0.5239E-03  0.9984E-03  0.1043E+01
   -0.594995   14.40404  0.0000E+00  0.9174E-05  0.4431E-07  0.6164E-03  0.7910E-03  0.7295E+00
   -0.629996   14.40487  0.0000E+00  0.8782E-05  0.3911E-07  0.6431E-03  0.6817E-03  0.8155E+00
   -0.664997   14.40566  0.0000E+00  0.8471E-05  0.3518E-07  0.6532E-03  0.5958E-03  0.8263E+00
   -0.699998   14.40644  0.0000E+00  0.8206E-05  0.3204E-07  0.6665E-03  0.5176E-03  0.8604E+00
   -0.734999   14.40720  0.0000E+00  0.7978E-05  0.2954E-07  0.6785E-03  0.4489E-03  0.8831E+00
   -0.770000   14.40794  0.0000E+00  0.7782E-05  0.2758E-07  0.6875E-03  0.3897E-03  0.8987E+00
   -0.805001   14.40866  0.0000E+00  0.7611E-05  0.2606E-07  0.6925E-03  0.3395E-03  0.9120E+00
   -0.840002   14.40938  0.0000E+00  0.7460E-05  0.2491E-07  0.6927E-03  0.2970E-03  0.9302E+00
   -0.875003   14.41009  0.0000E+00  0.7324E-05  0.2408E-07  0.6886E-03  0.2614E-03  0.9497E+00
   -0.910003   14.41081  0.0000E+00  0.7200E-05  0.2351E-07  0.6798E-03  0.2314E-03  0.1031E+01
   -0.945004   14.41153  0.0000E+00  0.7085E-05  0.2317E-07  0.6672E-03  0.2056E-03  0.1129E+01
   -0.980005   14.41227  0.0000E+00  0.6975E-05  0.2307E-07  0.6501E-03  0.1828E-03  0.1324E+01
   -1.015005   14.41303  0.0000E+00  0.6865E-05  0.2319E-07  0.6298E-03  0.1624E-03  0.1556E+01
   -1.050005   14.41382  0.0000E+00  0.6748E-05  0.2359E-07  0.6008E-03  0.1441E-03  0.2098E+01
   -1.085005   14.41464  0.0000E+00  0.6618E-05  0.2437E-07  0.5740E-03  0.1277E-03  0.2830E+01
   -1.120005   14.41552  0.0000E+00  0.6470E-05  0.2573E-07  0.5288E-03  0.1127E-03  0.4464E+01
   -1.155005   14.41650  0.0000E+00  0.6299E-05  0.2797E-07  0.5015E-03  0.9785E-04  0.6931E+01
   -1.190004   14.41758  0.0000E+00  0.6084E-05  0.3207E-07  0.4378E-03  0.8352E-04 -0.8564E+02
   -1.225004   14.41914  0.0000E+00  0.5799E-05  0.3936E-07  0.4156E-03  0.6778E-04  0.2341E+04
   -1.260002   14.42076  0.0000E+00  0.5353E-05  0.5713E-07  0.3155E-03  0.5346E-04 -0.1699E+05
   -1.295001   14.42552  0.0000E+00  0.4627E-05  0.1005E-06  0.2911E-03  0.3732E-04  0.4196E+05
   -1.330000   14.42492  0.0000E+00  0.3683E-05  0.2224E-06  0.1328E-03  0.3187E-04 -0.1105E+06
   -1.364998   14.44328  0.0000E+00  0.2507E-05  0.5152E-06  0.9100E-04  0.1948E-04 -0.1076E+07
   -1.399995   14.44810  0.0000E+00  0.0000E+00  0.0000E+00  0.0000E+00  0.3052E-04  0.0000E+00
