 1 - depth, m
 2 - temperature, C
 3 - salinity, kg/kg
 4 - turbulent kinetic energy, m**2/s**2
 5 - dissipation rate, m**2/s**3
 6 - kinematic heat conductance, m**2/s
 7 - modulus of horizontal velocity, m/s
 8 - Richardson number, n/d
   -0.000000    0.00000  0.0000E+00  0.4702E-13  0.1132E-15  0.1000E-09  0.0000E+00  0.4731E+16
   -0.034998    0.07167  0.0000E+00  0.4702E-13  0.1132E-15  0.1000E-09  0.0000E+00  0.4699E+16
   -0.069996    0.14426  0.0000E+00  0.4702E-13  0.1132E-15  0.1000E-09  0.0000E+00  0.4664E+16
   -0.104995    0.21778  0.0000E+00  0.4702E-13  0.1132E-15  0.1000E-09  0.0000E+00  0.4588E+16
   -0.139994    0.29163  0.0000E+00  0.4702E-13  0.1132E-15  0.1000E-09  0.0000E+00  0.4489E+16
   -0.174994    0.36542  0.0000E+00  0.4702E-13  0.1132E-15  0.1000E-09  0.0000E+00  0.4389E+16
   -0.209993    0.43916  0.0000E+00  0.4702E-13  0.1132E-15  0.1000E-09  0.0000E+00  0.4287E+16
   -0.244993    0.51278  0.0000E+00  0.4702E-13  0.1132E-15  0.1000E-09  0.0000E+00  0.4184E+16
   -0.279993    0.58627  0.0000E+00  0.4702E-13  0.1132E-15  0.1000E-09  0.0000E+00  0.4081E+16
   -0.314993    0.65960  0.0000E+00  0.4702E-13  0.1132E-15  0.1000E-09  0.0000E+00  0.4027E+16
   -0.349994    0.73367  0.0000E+00  0.4702E-13  0.1132E-15  0.1000E-09  0.0000E+00  0.3977E+16
   -0.384994    0.80861  0.0000E+00  0.4702E-13  0.1132E-15  0.1000E-09  0.0000E+00  0.3926E+16
   -0.419995    0.88446  0.0000E+00  0.4702E-13  0.1132E-15  0.1000E-09  0.0000E+00  0.3852E+16
   -0.454996    0.96084  0.0000E+00  0.4702E-13  0.1132E-15  0.1000E-09  0.0000E+00  0.3781E+16
   -0.489997    1.03782  0.0000E+00  0.4702E-13  0.1132E-15  0.1000E-09  0.0000E+00  0.3762E+16
   -0.524998    1.11658  0.0000E+00  0.4702E-13  0.1132E-15  0.1000E-09  0.0000E+00  0.4016E+16
   -0.559999    1.20322  0.0000E+00  0.4702E-13  0.1132E-15  0.1000E-09  0.0000E+00  0.4488E+16
   -0.595001    1.30351  0.0000E+00  0.4702E-13  0.1132E-15  0.1000E-09  0.0000E+00  0.4968E+16
   -0.630002    1.41933  0.0000E+00  0.4702E-13  0.1132E-15  0.1000E-09  0.0000E+00  0.4716E+16
   -0.665003    1.53455  0.0000E+00  0.4702E-13  0.1132E-15  0.1000E-09  0.0000E+00  0.4464E+16
   -0.700005    1.64906  0.0000E+00  0.4702E-13  0.1132E-15  0.1000E-09  0.0000E+00  0.4224E+16
   -0.735006    1.76306  0.0000E+00  0.4702E-13  0.1132E-15  0.1000E-09  0.0000E+00  0.4011E+16
   -0.770007    1.87722  0.0000E+00  0.4702E-13  0.1132E-15  0.1000E-09  0.0000E+00  0.3832E+16
   -0.805009    1.99262  0.0000E+00  0.4702E-13  0.1132E-15  0.1000E-09  0.0000E+00  0.3637E+16
   -0.840010    2.10892  0.0000E+00  0.4702E-13  0.1132E-15  0.1000E-09  0.0000E+00  0.3433E+16
   -0.875011    2.22596  0.0000E+00  0.4702E-13  0.1132E-15  0.1000E-09  0.0000E+00  0.3229E+16
   -0.910012    2.34387  0.0000E+00  0.4702E-13  0.1132E-15  0.1000E-09  0.0000E+00  0.2984E+16
   -0.945013    2.46114  0.0000E+00  0.4702E-13  0.1132E-15  0.1000E-09  0.0000E+00  0.2730E+16
   -0.980014    2.57718  0.0000E+00  0.4702E-13  0.1132E-15  0.1000E-09  0.0000E+00  0.2479E+16
   -1.015015    2.69176  0.0000E+00  0.4702E-13  0.1132E-15  0.1000E-09  0.0000E+00  0.2275E+16
   -1.050016    2.80686  0.0000E+00  0.4702E-13  0.1132E-15  0.1000E-09  0.0000E+00  0.2085E+16
   -1.085016    2.92347  0.0000E+00  0.7247E-13  0.1290E-15  0.1000E-09  0.0000E+00  0.1948E+16
   -1.120016    3.04565  0.0000E+00  0.3235E-12  0.5257E-15  0.1000E-09  0.0000E+00  0.1721E+16
   -1.155016    3.16893  0.0000E+00  0.1515E-11  0.2381E-14  0.1000E-09  0.0000E+00  0.1493E+16
   -1.190016    3.29364  0.0000E+00  0.7045E-11  0.1075E-13  0.1000E-09  0.0000E+00  0.1286E+16
   -1.225016    3.42312  0.0000E+00  0.3423E-10  0.5082E-13  0.1081E-09  0.0000E+00  0.1167E+16
   -1.260015    3.57484  0.0000E+00  0.1754E-09  0.2536E-12  0.6351E-09  0.0000E+00  0.9864E+15
   -1.295014    3.77654  0.0000E+00  0.1032E-08  0.1458E-11  0.1037E-07  0.0000E+00  0.3200E+15
   -1.330013    4.04325  0.0000E+00  0.4199E-08  0.6023E-11  0.1184E-05  0.0000E+00 -0.3076E+14
   -1.365011    4.07101  0.0000E+00  0.4349E-08  0.1108E-10  0.4884E-06  0.0000E+00 -0.8031E+14
   -1.400009    4.11838  0.0000E+00  0.0000E+00  0.0000E+00  0.0000E+00  0.0000E+00  0.0000E+00
