 1 - depth, m
 2 - temperature, C
 3 - salinity, kg/kg
 4 - turbulent kinetic energy, m**2/s**2
 5 - dissipation rate, m**2/s**3
 6 - kinematic heat conductance, m**2/s
 7 - modulus of horizontal velocity, m/s
 8 - Richardson number, n/d
   -0.000000    0.00000  0.0000E+00  0.1616E-09  0.1615E-12  0.1000E-09  0.0000E+00  0.2436E+17
   -0.034998    0.38528  0.0000E+00  0.4289E-09  0.1351E-12  0.1000E-09  0.0000E+00  0.2064E+17
   -0.069996    0.74977  0.0000E+00  0.9285E-09  0.1749E-12  0.1000E-09  0.0000E+00  0.1753E+17
   -0.104995    1.09737  0.0000E+00  0.1736E-08  0.2680E-12  0.1000E-09  0.0000E+00  0.1506E+17
   -0.139994    1.43568  0.0000E+00  0.3020E-08  0.4298E-12  0.1039E-09  0.0000E+00  0.1299E+17
   -0.174993    1.77066  0.0000E+00  0.5072E-08  0.6941E-12  0.1616E-09  0.0000E+00  0.1112E+17
   -0.209992    2.10616  0.0000E+00  0.8367E-08  0.1119E-11  0.3100E-09  0.0000E+00  0.9353E+16
   -0.244992    2.44620  0.0000E+00  0.1367E-07  0.1796E-11  0.6127E-09  0.0000E+00  0.7614E+16
   -0.279992    2.79516  0.0000E+00  0.2219E-07  0.2874E-11  0.1295E-08  0.0000E+00  0.5801E+16
   -0.314992    3.15765  0.0000E+00  0.3604E-07  0.4606E-11  0.3256E-08  0.0000E+00  0.3814E+16
   -0.349992    3.53978  0.0000E+00  0.5832E-07  0.7365E-11  0.1872E-07  0.0000E+00  0.1517E+16
   -0.384992    3.91734  0.0000E+00  0.6998E-07  0.8841E-11  0.1020E-03  0.0000E+00  0.1472E+15
   -0.419993    4.03578  0.0000E+00  0.7055E-07  0.8922E-11  0.1830E-03  0.0000E+00 -0.2682E+12
   -0.454994    4.03613  0.0000E+00  0.7092E-07  0.8982E-11  0.1829E-03  0.0000E+00 -0.2760E+12
   -0.489994    4.03648  0.0000E+00  0.7127E-07  0.9049E-11  0.1789E-03  0.0000E+00 -0.2807E+12
   -0.524995    4.03684  0.0000E+00  0.7165E-07  0.9131E-11  0.1788E-03  0.0000E+00 -0.2922E+12
   -0.559996    4.03722  0.0000E+00  0.7209E-07  0.9242E-11  0.1783E-03  0.0000E+00 -0.3174E+12
   -0.594998    4.03762  0.0000E+00  0.7268E-07  0.9402E-11  0.1778E-03  0.0000E+00 -0.3418E+12
   -0.629999    4.03805  0.0000E+00  0.7327E-07  0.9580E-11  0.1776E-03  0.0000E+00 -0.3483E+12
   -0.665000    4.03849  0.0000E+00  0.7382E-07  0.9767E-11  0.1768E-03  0.0000E+00 -0.3556E+12
   -0.700001    4.03893  0.0000E+00  0.7435E-07  0.9963E-11  0.1759E-03  0.0000E+00 -0.3648E+12
   -0.735002    4.03938  0.0000E+00  0.7484E-07  0.1017E-10  0.1746E-03  0.0000E+00 -0.3745E+12
   -0.770004    4.03983  0.0000E+00  0.7529E-07  0.1040E-10  0.1730E-03  0.0000E+00 -0.3806E+12
   -0.805005    4.04029  0.0000E+00  0.7572E-07  0.1064E-10  0.1711E-03  0.0000E+00 -0.3885E+12
   -0.840006    4.04076  0.0000E+00  0.7611E-07  0.1090E-10  0.1689E-03  0.0000E+00 -0.3968E+12
   -0.875007    4.04123  0.0000E+00  0.7647E-07  0.1119E-10  0.1663E-03  0.0000E+00 -0.4077E+12
   -0.910008    4.04171  0.0000E+00  0.7679E-07  0.1151E-10  0.1633E-03  0.0000E+00 -0.4182E+12
   -0.945009    4.04220  0.0000E+00  0.7706E-07  0.1186E-10  0.1599E-03  0.0000E+00 -0.4310E+12
   -0.980010    4.04269  0.0000E+00  0.7730E-07  0.1225E-10  0.1561E-03  0.0000E+00 -0.4450E+12
   -1.015010    4.04320  0.0000E+00  0.7748E-07  0.1269E-10  0.1517E-03  0.0000E+00 -0.4646E+12
   -1.050011    4.04373  0.0000E+00  0.7763E-07  0.1321E-10  0.1467E-03  0.0000E+00 -0.4883E+12
   -1.085011    4.04427  0.0000E+00  0.7772E-07  0.1383E-10  0.1410E-03  0.0000E+00 -0.5171E+12
   -1.120011    4.04485  0.0000E+00  0.7776E-07  0.1458E-10  0.1345E-03  0.0000E+00 -0.5483E+12
   -1.155011    4.04545  0.0000E+00  0.7772E-07  0.1548E-10  0.1273E-03  0.0000E+00 -0.5861E+12
   -1.190010    4.04608  0.0000E+00  0.7761E-07  0.1662E-10  0.1191E-03  0.0000E+00 -0.6374E+12
   -1.225010    4.04677  0.0000E+00  0.7738E-07  0.1824E-10  0.1089E-03  0.0000E+00 -0.7258E+12
   -1.260009    4.04753  0.0000E+00  0.7691E-07  0.2096E-10  0.9433E-04  0.0000E+00 -0.9049E+12
   -1.295008    4.04847  0.0000E+00  0.7570E-07  0.2749E-10  0.7504E-04  0.0000E+00 -0.1312E+13
   -1.330006    4.04982  0.0000E+00  0.7242E-07  0.4515E-10  0.3013E-04  0.0000E+00 -0.3313E+13
   -1.365005    4.05312  0.0000E+00  0.5145E-07  0.1817E-09  0.2196E-05  0.0000E+00 -0.5418E+14
   -1.400002    4.09314  0.0000E+00  0.0000E+00  0.0000E+00  0.0000E+00  0.0000E+00  0.0000E+00
