 1 - depth, m
 2 - temperature, C
 3 - salinity, kg/kg
 4 - turbulent kinetic energy, m**2/s**2
 5 - dissipation rate, m**2/s**3
 6 - kinematic heat conductance, m**2/s
 7 - modulus of horizontal velocity, m/s
 8 - Richardson number, n/d
   -0.000000   -0.00095  0.0000E+00  0.4861E-03  0.9124E-03  0.1073E-03  0.3255E+00  0.3045E-02
   -0.034997    0.00727  0.0000E+00  0.3128E-03  0.4017E-03  0.1643E-03  0.1058E+00  0.2313E-02
   -0.069995    0.01262  0.0000E+00  0.2275E-03  0.1618E-03  0.2197E-03  0.6241E-01  0.5523E-02
   -0.104993    0.01538  0.0000E+00  0.1840E-03  0.9040E-04  0.2405E-03  0.4673E-01  0.1936E-01
   -0.139991    0.01715  0.0000E+00  0.1565E-03  0.5538E-04  0.2503E-03  0.3869E-01  0.4472E-02
   -0.174990    0.01848  0.0000E+00  0.1369E-03  0.3493E-04  0.2604E-03  0.3316E-01  0.3219E-02
   -0.209988    0.01957  0.0000E+00  0.1218E-03  0.2215E-04  0.2692E-03  0.2895E-01  0.3658E-02
   -0.244987    0.02054  0.0000E+00  0.1100E-03  0.1415E-04  0.2785E-03  0.2537E-01  0.3875E-02
   -0.279987    0.02148  0.0000E+00  0.1000E-03  0.9269E-05  0.2817E-03  0.2222E-01  0.5934E-02
   -0.314986    0.02264  0.0000E+00  0.9101E-04  0.6310E-05  0.2939E-03  0.1900E-01  0.1525E-01
   -0.349986    0.02361  0.0000E+00  0.8341E-04  0.4481E-05  0.3024E-03  0.1660E-01  0.1131E+00
   -0.384986    0.02453  0.0000E+00  0.7691E-04  0.3313E-05  0.3083E-03  0.1463E-01 -0.1499E+02
   -0.419986    0.02536  0.0000E+00  0.7128E-04  0.2545E-05  0.3090E-03  0.1297E-01  0.1001E+02
   -0.454986    0.02637  0.0000E+00  0.6627E-04  0.2029E-05  0.3063E-03  0.1137E-01  0.8868E+02
   -0.489986    0.02780  0.0000E+00  0.6162E-04  0.1673E-05  0.3040E-03  0.9805E-02  0.1417E+04
   -0.524986    0.02992  0.0000E+00  0.5701E-04  0.1403E-05  0.3167E-03  0.8369E-02  0.2899E+07
   -0.559987    0.03103  0.0000E+00  0.5250E-04  0.1185E-05  0.3288E-03  0.7318E-02  0.4260E+07
   -0.594987    0.03166  0.0000E+00  0.4755E-04  0.9787E-06  0.3316E-03  0.6595E-02 -0.4855E+07
   -0.629988    0.03194  0.0000E+00  0.4308E-04  0.8107E-06  0.3212E-03  0.6152E-02  0.1981E+09
   -0.664989    0.03254  0.0000E+00  0.3916E-04  0.6783E-06  0.3108E-03  0.5676E-02  0.1762E+09
   -0.699989    0.03326  0.0000E+00  0.3570E-04  0.5725E-06  0.3009E-03  0.5208E-02  0.3654E+09
   -0.734990    0.03406  0.0000E+00  0.3264E-04  0.4870E-06  0.2912E-03  0.4758E-02  0.2445E+09
   -0.769990    0.03494  0.0000E+00  0.2989E-04  0.4169E-06  0.2816E-03  0.4332E-02  0.1033E+09
   -0.804991    0.03589  0.0000E+00  0.2741E-04  0.3587E-06  0.2716E-03  0.3938E-02  0.1031E+09
   -0.839992    0.03693  0.0000E+00  0.2520E-04  0.3105E-06  0.2618E-03  0.3570E-02  0.3782E+09
   -0.874992    0.03806  0.0000E+00  0.2319E-04  0.2702E-06  0.2517E-03  0.3226E-02  0.8993E+08
   -0.909992    0.03928  0.0000E+00  0.2137E-04  0.2365E-06  0.2407E-03  0.2910E-02  0.9008E+08
   -0.944993    0.04068  0.0000E+00  0.1974E-04  0.2086E-06  0.2292E-03  0.2612E-02  0.1952E+07
   -0.979993    0.04233  0.0000E+00  0.1827E-04  0.1856E-06  0.2175E-03  0.2329E-02  0.9277E+07
   -1.014993    0.04448  0.0000E+00  0.1693E-04  0.1668E-06  0.2062E-03  0.2059E-02  0.8062E+08
   -1.049993    0.04699  0.0000E+00  0.1569E-04  0.1516E-06  0.1941E-03  0.1812E-02  0.1815E+10
   -1.084992    0.05005  0.0000E+00  0.1455E-04  0.1398E-06  0.1825E-03  0.1588E-02  0.2363E+11
   -1.119992    0.05281  0.0000E+00  0.1349E-04  0.1320E-06  0.1686E-03  0.1387E-02  0.6904E+12
   -1.154991    0.05669  0.0000E+00  0.1252E-04  0.1290E-06  0.1540E-03  0.1198E-02  0.7357E+13
   -1.189990    0.06260  0.0000E+00  0.1163E-04  0.1327E-06  0.1385E-03  0.1017E-02  0.4612E+14
   -1.224989    0.07532  0.0000E+00  0.1075E-04  0.1481E-06  0.1214E-03  0.8395E-03  0.2127E+15
   -1.259987    0.11432  0.0000E+00  0.9788E-05  0.1902E-06  0.1010E-03  0.6810E-03  0.6677E+15
   -1.294986    0.21566  0.0000E+00  0.8412E-05  0.3274E-06  0.7566E-04  0.5503E-03  0.5926E+15
   -1.329983    0.43388  0.0000E+00  0.6576E-05  0.6522E-06  0.4226E-04  0.4630E-03  0.1582E+15
   -1.364981    0.62688  0.0000E+00  0.3781E-05  0.1391E-05  0.8395E-05  0.3587E-03  0.2326E+13
   -1.399978    0.90105  0.0000E+00  0.0000E+00  0.0000E+00  0.0000E+00  0.4607E-03  0.0000E+00
