 1 - depth, m
 2 - temperature, C
 3 - salinity, kg/kg
 4 - turbulent kinetic energy, m**2/s**2
 5 - dissipation rate, m**2/s**3
 6 - kinematic heat conductance, m**2/s
 7 - modulus of horizontal velocity, m/s
 8 - Richardson number, n/d
   -0.000000    0.00000  0.0000E+00  0.4702E-13  0.1132E-15  0.1000E-09  0.0000E+00  0.1160E+17
   -0.034998    0.17819  0.0000E+00  0.4702E-13  0.1132E-15  0.1000E-09  0.0000E+00  0.1107E+17
   -0.069996    0.35706  0.0000E+00  0.4702E-13  0.1132E-15  0.1000E-09  0.0000E+00  0.1053E+17
   -0.104994    0.53640  0.0000E+00  0.4702E-13  0.1132E-15  0.1000E-09  0.0000E+00  0.9884E+16
   -0.139993    0.71414  0.0000E+00  0.4702E-13  0.1132E-15  0.1000E-09  0.0000E+00  0.9183E+16
   -0.174992    0.88893  0.0000E+00  0.4702E-13  0.1132E-15  0.1000E-09  0.0000E+00  0.8496E+16
   -0.209991    1.06043  0.0000E+00  0.4702E-13  0.1132E-15  0.1000E-09  0.0000E+00  0.7824E+16
   -0.244990    1.22828  0.0000E+00  0.4702E-13  0.1132E-15  0.1000E-09  0.0000E+00  0.7172E+16
   -0.279990    1.39213  0.0000E+00  0.4702E-13  0.1132E-15  0.1000E-09  0.0000E+00  0.6543E+16
   -0.314990    1.55165  0.0000E+00  0.4702E-13  0.1132E-15  0.1000E-09  0.0000E+00  0.5972E+16
   -0.349990    1.70739  0.0000E+00  0.4702E-13  0.1132E-15  0.1000E-09  0.0000E+00  0.5421E+16
   -0.384990    1.85901  0.0000E+00  0.5853E-13  0.1132E-15  0.1000E-09  0.0000E+00  0.4889E+16
   -0.419990    2.00605  0.0000E+00  0.2039E-12  0.1138E-15  0.1000E-09  0.0000E+00  0.4397E+16
   -0.454991    2.14867  0.0000E+00  0.5460E-12  0.1472E-15  0.1000E-09  0.0000E+00  0.3956E+16
   -0.489991    2.28750  0.0000E+00  0.1151E-11  0.2467E-15  0.1000E-09  0.0000E+00  0.3566E+16
   -0.524992    2.42349  0.0000E+00  0.2314E-11  0.4547E-15  0.1000E-09  0.0000E+00  0.3323E+16
   -0.559993    2.56220  0.0000E+00  0.4683E-11  0.8842E-15  0.1000E-09  0.0000E+00  0.3139E+16
   -0.594994    2.70730  0.0000E+00  0.9875E-11  0.1819E-14  0.1000E-09  0.0000E+00  0.2909E+16
   -0.629995    2.85871  0.0000E+00  0.1867E-10  0.3385E-14  0.1000E-09  0.0000E+00  0.2427E+16
   -0.664996    3.00309  0.0000E+00  0.3356E-10  0.5992E-14  0.1000E-09  0.0000E+00  0.1991E+16
   -0.699997    3.14005  0.0000E+00  0.5925E-10  0.1042E-13  0.1000E-09  0.0000E+00  0.1602E+16
   -0.734998    3.26925  0.0000E+00  0.1042E-09  0.1806E-13  0.1000E-09  0.0000E+00  0.1276E+16
   -0.769999    3.39216  0.0000E+00  0.1829E-09  0.3123E-13  0.1000E-09  0.0000E+00  0.1017E+16
   -0.805000    3.51273  0.0000E+00  0.3207E-09  0.5394E-13  0.1812E-09  0.0000E+00  0.7688E+15
   -0.840001    3.63029  0.0000E+00  0.5605E-09  0.9286E-13  0.4469E-09  0.0000E+00  0.5360E+15
   -0.875001    3.74417  0.0000E+00  0.9779E-09  0.1597E-12  0.1274E-08  0.0000E+00  0.3222E+15
   -0.910002    3.85361  0.0000E+00  0.1698E-08  0.2733E-12  0.5413E-08  0.0000E+00  0.1300E+15
   -0.945003    3.95419  0.0000E+00  0.2769E-08  0.4426E-12  0.3201E-06  0.0000E+00  0.7990E+13
   -0.980003    3.99882  0.0000E+00  0.3468E-08  0.5608E-12  0.7595E-05  0.0000E+00 -0.3627E+12
   -1.015004    4.00067  0.0000E+00  0.3883E-08  0.6463E-12  0.8223E-05  0.0000E+00 -0.3863E+12
   -1.050004    4.00236  0.0000E+00  0.4281E-08  0.7457E-12  0.8550E-05  0.0000E+00 -0.4222E+12
   -1.085004    4.00401  0.0000E+00  0.4673E-08  0.8662E-12  0.8863E-05  0.0000E+00 -0.4824E+12
   -1.120004    4.00570  0.0000E+00  0.5055E-08  0.1014E-11  0.8618E-05  0.0000E+00 -0.5582E+12
   -1.155003    4.00749  0.0000E+00  0.5436E-08  0.1203E-11  0.8113E-05  0.0000E+00 -0.6687E+12
   -1.190003    4.00944  0.0000E+00  0.5831E-08  0.1461E-11  0.7487E-05  0.0000E+00 -0.8452E+12
   -1.225002    4.01169  0.0000E+00  0.6289E-08  0.1859E-11  0.7140E-05  0.0000E+00 -0.1205E+13
   -1.260001    4.01457  0.0000E+00  0.6841E-08  0.2538E-11  0.6883E-05  0.0000E+00 -0.2002E+13
   -1.294999    4.01879  0.0000E+00  0.7495E-08  0.4038E-11  0.5683E-05  0.0000E+00 -0.4379E+13
   -1.329998    4.02649  0.0000E+00  0.7568E-08  0.6812E-11  0.2792E-05  0.0000E+00 -0.1104E+14
   -1.364996    4.04130  0.0000E+00  0.6328E-08  0.1501E-10  0.6723E-06  0.0000E+00 -0.6298E+14
   -1.399993    4.09154  0.0000E+00  0.0000E+00  0.0000E+00  0.0000E+00  0.0000E+00  0.0000E+00
