 1 - depth, m
 2 - temperature, C
 3 - salinity, kg/kg
 4 - turbulent kinetic energy, m**2/s**2
 5 - dissipation rate, m**2/s**3
 6 - kinematic heat conductance, m**2/s
 7 - modulus of horizontal velocity, m/s
 8 - Richardson number, n/d
   -0.000000    9.71258  0.0000E+00  0.3375E-03  0.8727E-03  0.5128E-04  0.1879E+00 -0.6020E-03
   -0.034998    9.74485  0.0000E+00  0.1763E-03  0.3171E-03  0.1008E-03  0.6096E-01 -0.1272E-01
   -0.069996    9.75826  0.0000E+00  0.1156E-03  0.1040E-03  0.1381E-03  0.3656E-01 -0.1321E+00
   -0.104994    9.76482  0.0000E+00  0.9107E-04  0.6069E-04  0.1441E-03  0.2803E-01 -0.1952E-01
   -0.139993    9.76848  0.0000E+00  0.7508E-04  0.3744E-04  0.1512E-03  0.2285E-01 -0.2105E-01
   -0.174992    9.77107  0.0000E+00  0.6377E-04  0.2358E-04  0.1576E-03  0.1917E-01 -0.3269E-01
   -0.209991    9.77323  0.0000E+00  0.5504E-04  0.1482E-04  0.1663E-03  0.1626E-01 -0.3483E-01
   -0.244991    9.77513  0.0000E+00  0.4851E-04  0.9494E-05  0.1793E-03  0.1391E-01  0.1010E+02
   -0.279991    9.77694  0.0000E+00  0.4312E-04  0.6132E-05  0.1895E-03  0.1183E-01  0.3447E+01
   -0.314991    9.77899  0.0000E+00  0.3828E-04  0.4014E-05  0.2042E-03  0.9680E-02  0.1268E+02
   -0.349991    9.78074  0.0000E+00  0.3428E-04  0.2660E-05  0.2181E-03  0.8161E-02  0.3890E+02
   -0.384991    9.78233  0.0000E+00  0.3091E-04  0.1766E-05  0.2317E-03  0.6960E-02  0.4963E+01
   -0.419992    9.78380  0.0000E+00  0.2810E-04  0.1176E-05  0.2444E-03  0.5977E-02  0.2049E+03
   -0.454992    9.78535  0.0000E+00  0.2570E-04  0.8087E-06  0.2531E-03  0.5046E-02  0.1651E+05
   -0.489993    9.78710  0.0000E+00  0.2360E-04  0.5848E-06  0.2631E-03  0.4152E-02  0.2146E+03
   -0.524994    9.78903  0.0000E+00  0.2162E-04  0.4419E-06  0.2757E-03  0.3362E-02  0.5049E+03
   -0.559995    9.79055  0.0000E+00  0.1972E-04  0.3478E-06  0.2836E-03  0.2804E-02  0.3558E+03
   -0.594996    9.79153  0.0000E+00  0.1769E-04  0.2707E-06  0.2851E-03  0.2438E-02  0.1654E+05
   -0.629997    9.79153  0.0000E+00  0.1590E-04  0.2136E-06  0.2903E-03  0.2229E-02  0.5386E+05
   -0.664998    9.79231  0.0000E+00  0.1439E-04  0.1719E-06  0.3018E-03  0.2007E-02  0.1574E+07
   -0.699999    9.79314  0.0000E+00  0.1310E-04  0.1408E-06  0.3186E-03  0.1795E-02  0.8173E+03
   -0.735000    9.79398  0.0000E+00  0.1199E-04  0.1166E-06  0.3336E-03  0.1598E-02  0.1992E+04
   -0.770002    9.79484  0.0000E+00  0.1103E-04  0.9784E-07  0.3532E-03  0.1419E-02  0.6409E+03
   -0.805003    9.79565  0.0000E+00  0.1020E-04  0.8285E-07  0.3753E-03  0.1259E-02  0.1578E+04
   -0.840004    9.79643  0.0000E+00  0.9470E-05  0.7078E-07  0.3998E-03  0.1114E-02  0.2503E+04
   -0.875005    9.79717  0.0000E+00  0.8826E-05  0.6098E-07  0.4181E-03  0.9844E-03  0.2323E+04
   -0.910005    9.79789  0.0000E+00  0.8255E-05  0.5299E-07  0.4409E-03  0.8678E-03  0.3432E+04
   -0.945006    9.79858  0.0000E+00  0.7751E-05  0.4655E-07  0.4617E-03  0.7614E-03  0.2549E+04
   -0.980007    9.79925  0.0000E+00  0.7303E-05  0.4137E-07  0.4674E-03  0.6627E-03  0.6008E+04
   -1.015007    9.79993  0.0000E+00  0.6897E-05  0.3724E-07  0.4649E-03  0.5704E-03  0.1173E+04
   -1.050008    9.80061  0.0000E+00  0.6527E-05  0.3404E-07  0.4586E-03  0.4873E-03  0.1734E+04
   -1.085008    9.80132  0.0000E+00  0.6186E-05  0.3174E-07  0.4459E-03  0.4148E-03  0.2249E+04
   -1.120008    9.80206  0.0000E+00  0.5869E-05  0.3046E-07  0.4261E-03  0.3522E-03  0.3205E+04
   -1.155008    9.80288  0.0000E+00  0.5571E-05  0.3062E-07  0.3997E-03  0.2956E-03  0.4532E+04
   -1.190007    9.80382  0.0000E+00  0.5277E-05  0.3295E-07  0.3674E-03  0.2427E-03  0.6650E+04
   -1.225006    9.80495  0.0000E+00  0.4959E-05  0.3875E-07  0.3343E-03  0.1914E-03  0.9160E+04
   -1.260005    9.80625  0.0000E+00  0.4565E-05  0.5425E-07  0.2810E-03  0.1458E-03  0.1593E+05
   -1.295004    9.80831  0.0000E+00  0.4035E-05  0.9164E-07  0.2385E-03  0.1058E-03  0.4030E+05
   -1.330003    9.80926  0.0000E+00  0.3335E-05  0.1997E-06  0.1348E-03  0.9081E-04  0.8568E+08
   -1.365001    9.81657  0.0000E+00  0.2227E-05  0.4179E-06  0.4966E-04  0.6236E-04 -0.2586E+10
   -1.399999    9.83071  0.0000E+00  0.0000E+00  0.0000E+00  0.0000E+00  0.9679E-04  0.0000E+00
