 1 - depth, m
 2 - temperature, C
 3 - salinity, kg/kg
 4 - turbulent kinetic energy, m**2/s**2
 5 - dissipation rate, m**2/s**3
 6 - kinematic heat conductance, m**2/s
 7 - modulus of horizontal velocity, m/s
 8 - Richardson number, n/d
   -0.000000   21.96631  0.0000E+00  0.1901E-04  0.1641E-05  0.2249E-04  0.2361E-01 -0.3133E-01
   -0.034998   21.99825  0.0000E+00  0.1567E-04  0.6019E-06  0.4699E-04  0.1364E-01 -0.8529E-01
   -0.069996   22.01125  0.0000E+00  0.1389E-04  0.3269E-06  0.7616E-04  0.9956E-02 -0.1272E+00
   -0.104994   22.01907  0.0000E+00  0.1279E-04  0.2116E-06  0.1375E-03  0.7803E-02  0.3271E+03
   -0.139993   22.02383  0.0000E+00  0.1215E-04  0.1546E-06  0.2395E-03  0.6435E-02  0.4373E+03
   -0.174992   22.02648  0.0000E+00  0.1183E-04  0.1232E-06  0.3477E-03  0.5495E-02  0.9328E+01
   -0.209991   22.02811  0.0000E+00  0.1168E-04  0.1026E-06  0.3539E-03  0.4752E-02  0.8025E+01
   -0.244990   22.02969  0.0000E+00  0.1158E-04  0.8720E-07  0.3795E-03  0.4048E-02  0.8668E+01
   -0.279990   22.03116  0.0000E+00  0.1151E-04  0.7546E-07  0.3958E-03  0.3416E-02  0.9240E+01
   -0.314990   22.03257  0.0000E+00  0.1140E-04  0.6586E-07  0.4272E-03  0.2819E-02  0.5552E+01
   -0.349990   22.03386  0.0000E+00  0.1127E-04  0.5807E-07  0.4581E-03  0.2315E-02  0.3861E+01
   -0.384990   22.03505  0.0000E+00  0.1115E-04  0.5176E-07  0.4915E-03  0.1890E-02  0.3015E+01
   -0.419991   22.03615  0.0000E+00  0.1103E-04  0.4668E-07  0.5191E-03  0.1531E-02  0.2784E+01
   -0.454991   22.03720  0.0000E+00  0.1089E-04  0.4255E-07  0.5467E-03  0.1212E-02  0.2660E+01
   -0.489992   22.03819  0.0000E+00  0.1073E-04  0.3917E-07  0.5733E-03  0.9258E-03  0.2351E+01
   -0.524993   22.03914  0.0000E+00  0.1052E-04  0.3624E-07  0.6276E-03  0.6765E-03  0.1610E+01
   -0.559994   22.03995  0.0000E+00  0.1029E-04  0.3373E-07  0.7292E-03  0.5044E-03  0.1137E+01
   -0.594995   22.04057  0.0000E+00  0.1006E-04  0.3160E-07  0.9341E-03  0.4028E-03  0.8774E+00
   -0.629996   22.04098  0.0000E+00  0.9891E-05  0.3023E-07  0.9843E-03  0.3516E-03  0.9114E+00
   -0.664997   22.04137  0.0000E+00  0.9752E-05  0.2929E-07  0.9840E-03  0.3146E-03  0.8971E+00
   -0.699998   22.04177  0.0000E+00  0.9626E-05  0.2861E-07  0.9790E-03  0.2817E-03  0.8957E+00
   -0.734999   22.04217  0.0000E+00  0.9510E-05  0.2816E-07  0.9679E-03  0.2530E-03  0.8831E+00
   -0.770000   22.04258  0.0000E+00  0.9402E-05  0.2791E-07  0.9520E-03  0.2283E-03  0.8617E+00
   -0.805001   22.04300  0.0000E+00  0.9301E-05  0.2784E-07  0.9333E-03  0.2074E-03  0.8460E+00
   -0.840002   22.04344  0.0000E+00  0.9204E-05  0.2794E-07  0.9130E-03  0.1896E-03  0.8610E+00
   -0.875003   22.04388  0.0000E+00  0.9106E-05  0.2821E-07  0.8903E-03  0.1743E-03  0.9356E+00
   -0.910004   22.04435  0.0000E+00  0.9002E-05  0.2866E-07  0.8605E-03  0.1606E-03  0.1109E+01
   -0.945004   22.04485  0.0000E+00  0.8890E-05  0.2934E-07  0.8284E-03  0.1479E-03  0.1364E+01
   -0.980005   22.04537  0.0000E+00  0.8764E-05  0.3032E-07  0.7838E-03  0.1356E-03  0.1760E+01
   -1.015005   22.04595  0.0000E+00  0.8620E-05  0.3172E-07  0.7446E-03  0.1236E-03  0.2346E+01
   -1.050006   22.04658  0.0000E+00  0.8448E-05  0.3379E-07  0.6854E-03  0.1121E-03  0.3541E+01
   -1.085006   22.04728  0.0000E+00  0.8239E-05  0.3689E-07  0.6477E-03  0.1008E-03  0.5840E+01
   -1.120006   22.04807  0.0000E+00  0.7974E-05  0.4195E-07  0.5804E-03  0.9010E-04 -0.6816E+02
   -1.155005   22.04915  0.0000E+00  0.7628E-05  0.4992E-07  0.5388E-03  0.7820E-04 -0.1572E+04
   -1.190005   22.05049  0.0000E+00  0.7158E-05  0.6370E-07  0.4564E-03  0.6598E-04  0.2726E+05
   -1.225004   22.05285  0.0000E+00  0.6612E-05  0.8548E-07  0.4202E-03  0.5087E-04  0.6322E+05
   -1.260003   22.05484  0.0000E+00  0.5828E-05  0.1456E-06  0.2973E-03  0.3894E-04 -0.9241E+05
   -1.295002   22.06459  0.0000E+00  0.4935E-05  0.2757E-06  0.3064E-03  0.2497E-04  0.9457E+06
   -1.330000   22.05720  0.0000E+00  0.3950E-05  0.6205E-06  0.1389E-03  0.2286E-04 -0.2662E+06
   -1.364998   22.08495  0.0000E+00  0.2884E-05  0.1300E-05  0.1473E-03  0.1321E-04 -0.4516E+06
   -1.399996   22.08514  0.0000E+00  0.0000E+00  0.0000E+00  0.0000E+00  0.2514E-04  0.0000E+00
