 1 - depth, m
 2 - temperature, C
 3 - salinity, kg/kg
 4 - turbulent kinetic energy, m**2/s**2
 5 - dissipation rate, m**2/s**3
 6 - kinematic heat conductance, m**2/s
 7 - modulus of horizontal velocity, m/s
 8 - Richardson number, n/d
   -0.000000    0.00000  0.0000E+00  0.4702E-13  0.1132E-15  0.1000E-09  0.0000E+00  0.7952E+16
   -0.034998    0.12126  0.0000E+00  0.4702E-13  0.1132E-15  0.1000E-09  0.0000E+00  0.7759E+16
   -0.069996    0.24362  0.0000E+00  0.4702E-13  0.1132E-15  0.1000E-09  0.0000E+00  0.7558E+16
   -0.104994    0.36704  0.0000E+00  0.4702E-13  0.1132E-15  0.1000E-09  0.0000E+00  0.7275E+16
   -0.139993    0.49023  0.0000E+00  0.4702E-13  0.1132E-15  0.1000E-09  0.0000E+00  0.6949E+16
   -0.174992    0.61235  0.0000E+00  0.4702E-13  0.1132E-15  0.1000E-09  0.0000E+00  0.6624E+16
   -0.209991    0.73327  0.0000E+00  0.4702E-13  0.1132E-15  0.1000E-09  0.0000E+00  0.6300E+16
   -0.244991    0.85284  0.0000E+00  0.4702E-13  0.1132E-15  0.1000E-09  0.0000E+00  0.5978E+16
   -0.279991    0.97092  0.0000E+00  0.4702E-13  0.1132E-15  0.1000E-09  0.0000E+00  0.5659E+16
   -0.314991    1.08737  0.0000E+00  0.4702E-13  0.1132E-15  0.1000E-09  0.0000E+00  0.5385E+16
   -0.349991    1.20293  0.0000E+00  0.4702E-13  0.1132E-15  0.1000E-09  0.0000E+00  0.5115E+16
   -0.384991    1.31755  0.0000E+00  0.4702E-13  0.1132E-15  0.1000E-09  0.0000E+00  0.4845E+16
   -0.419992    1.43108  0.0000E+00  0.4702E-13  0.1132E-15  0.1000E-09  0.0000E+00  0.4577E+16
   -0.454992    1.54337  0.0000E+00  0.4702E-13  0.1132E-15  0.1000E-09  0.0000E+00  0.4326E+16
   -0.489993    1.65469  0.0000E+00  0.4702E-13  0.1132E-15  0.1000E-09  0.0000E+00  0.4120E+16
   -0.524994    1.76609  0.0000E+00  0.4702E-13  0.1132E-15  0.1000E-09  0.0000E+00  0.4106E+16
   -0.559995    1.88321  0.0000E+00  0.4702E-13  0.1132E-15  0.1000E-09  0.0000E+00  0.4210E+16
   -0.594996    2.01076  0.0000E+00  0.4702E-13  0.1132E-15  0.1000E-09  0.0000E+00  0.4276E+16
   -0.629997    2.14967  0.0000E+00  0.4702E-13  0.1132E-15  0.1000E-09  0.0000E+00  0.3869E+16
   -0.664998    2.28540  0.0000E+00  0.4702E-13  0.1132E-15  0.1000E-09  0.0000E+00  0.3478E+16
   -0.699999    2.41770  0.0000E+00  0.4702E-13  0.1132E-15  0.1000E-09  0.0000E+00  0.3109E+16
   -0.735000    2.54649  0.0000E+00  0.4702E-13  0.1132E-15  0.1000E-09  0.0000E+00  0.2782E+16
   -0.770002    2.67267  0.0000E+00  0.6293E-13  0.1132E-15  0.1000E-09  0.0000E+00  0.2510E+16
   -0.805003    2.79826  0.0000E+00  0.2711E-12  0.1620E-15  0.1000E-09  0.0000E+00  0.2236E+16
   -0.840004    2.92281  0.0000E+00  0.7692E-12  0.3706E-15  0.1000E-09  0.0000E+00  0.1965E+16
   -0.875005    3.04601  0.0000E+00  0.1938E-11  0.8798E-15  0.1000E-09  0.0000E+00  0.1701E+16
   -0.910005    3.16779  0.0000E+00  0.4695E-11  0.2065E-14  0.1000E-09  0.0000E+00  0.1429E+16
   -0.945006    3.28655  0.0000E+00  0.1115E-10  0.4775E-14  0.1000E-09  0.0000E+00  0.1169E+16
   -0.980007    3.40155  0.0000E+00  0.2623E-10  0.1095E-13  0.1000E-09  0.0000E+00  0.9264E+15
   -1.015007    3.51232  0.0000E+00  0.6165E-10  0.2510E-13  0.1000E-09  0.0000E+00  0.7145E+15
   -1.050008    3.62019  0.0000E+00  0.1452E-09  0.5769E-13  0.2847E-09  0.0000E+00  0.5216E+15
   -1.085008    3.72595  0.0000E+00  0.3420E-09  0.1327E-12  0.9571E-09  0.0000E+00  0.3559E+15
   -1.120008    3.83630  0.0000E+00  0.7937E-09  0.3012E-12  0.4708E-08  0.0000E+00  0.1627E+15
   -1.155008    3.94429  0.0000E+00  0.1755E-08  0.6555E-12  0.1217E-06  0.0000E+00  0.1119E+14
   -1.190007    4.00500  0.0000E+00  0.3106E-08  0.1193E-11  0.2681E-05  0.0000E+00 -0.2011E+13
   -1.225006    4.01093  0.0000E+00  0.4118E-08  0.1761E-11  0.3309E-05  0.0000E+00 -0.2540E+13
   -1.260005    4.01681  0.0000E+00  0.5194E-08  0.2645E-11  0.3864E-05  0.0000E+00 -0.3770E+13
   -1.295004    4.02389  0.0000E+00  0.6406E-08  0.4347E-11  0.3918E-05  0.0000E+00 -0.6954E+13
   -1.330003    4.03427  0.0000E+00  0.6818E-08  0.6916E-11  0.2322E-05  0.0000E+00 -0.1428E+14
   -1.365001    4.05054  0.0000E+00  0.5778E-08  0.1385E-10  0.6173E-06  0.0000E+00 -0.6519E+14
   -1.399999    4.09793  0.0000E+00  0.0000E+00  0.0000E+00  0.0000E+00  0.0000E+00  0.0000E+00
