 1 - depth, m
 2 - temperature, C
 3 - salinity, kg/kg
 4 - turbulent kinetic energy, m**2/s**2
 5 - dissipation rate, m**2/s**3
 6 - kinematic heat conductance, m**2/s
 7 - modulus of horizontal velocity, m/s
 8 - Richardson number, n/d
   -0.000000    0.00000  0.0000E+00  0.1688E-07  0.5545E-10  0.1885E-08  0.0000E+00  0.7564E+17
   -0.034998    1.38934  0.0000E+00  0.1046E-06  0.3962E-10  0.2422E-08  0.0000E+00  0.4250E+17
   -0.069997    2.76672  0.0000E+00  0.2619E-06  0.4630E-10  0.1072E-07  0.0000E+00  0.1176E+17
   -0.104996    4.07208  0.0000E+00  0.2636E-06  0.4645E-10  0.4754E-03  0.0000E+00 -0.5842E+12
   -0.139995    4.07252  0.0000E+00  0.2643E-06  0.4653E-10  0.4689E-03  0.0000E+00 -0.5288E+12
   -0.174994    4.07295  0.0000E+00  0.2650E-06  0.4661E-10  0.4743E-03  0.0000E+00 -0.4505E+12
   -0.209994    4.07338  0.0000E+00  0.2656E-06  0.4670E-10  0.4832E-03  0.0000E+00 -0.5670E+12
   -0.244994    4.07379  0.0000E+00  0.2662E-06  0.4680E-10  0.4787E-03  0.0000E+00 -0.4443E+12
   -0.279994    4.07419  0.0000E+00  0.2667E-06  0.4690E-10  0.4834E-03  0.0000E+00 -0.5594E+12
   -0.314995    4.07459  0.0000E+00  0.2671E-06  0.4702E-10  0.4746E-03  0.0000E+00 -0.5034E+12
   -0.349995    4.07499  0.0000E+00  0.2676E-06  0.4716E-10  0.4747E-03  0.0000E+00 -0.5006E+12
   -0.384996    4.07539  0.0000E+00  0.2679E-06  0.4731E-10  0.4828E-03  0.0000E+00 -0.4320E+12
   -0.419997    4.07578  0.0000E+00  0.2683E-06  0.4748E-10  0.4809E-03  0.0000E+00 -0.5496E+12
   -0.454998    4.07616  0.0000E+00  0.2686E-06  0.4767E-10  0.4735E-03  0.0000E+00 -0.4984E+12
   -0.490000    4.07655  0.0000E+00  0.2688E-06  0.4788E-10  0.4724E-03  0.0000E+00 -0.5001E+12
   -0.525001    4.07694  0.0000E+00  0.2691E-06  0.4815E-10  0.4706E-03  0.0000E+00 -0.4970E+12
   -0.560002    4.07733  0.0000E+00  0.2693E-06  0.4851E-10  0.4678E-03  0.0000E+00 -0.5129E+12
   -0.595004    4.07771  0.0000E+00  0.2696E-06  0.4906E-10  0.4638E-03  0.0000E+00 -0.4981E+12
   -0.630005    4.07810  0.0000E+00  0.2699E-06  0.4967E-10  0.4795E-03  0.0000E+00 -0.4390E+12
   -0.665007    4.07848  0.0000E+00  0.2701E-06  0.5033E-10  0.4498E-03  0.0000E+00 -0.5788E+12
   -0.700008    4.07888  0.0000E+00  0.2702E-06  0.5106E-10  0.4482E-03  0.0000E+00 -0.5299E+12
   -0.735010    4.07927  0.0000E+00  0.2704E-06  0.5186E-10  0.4660E-03  0.0000E+00 -0.4572E+12
   -0.770012    4.07966  0.0000E+00  0.2705E-06  0.5274E-10  0.4279E-03  0.0000E+00 -0.6072E+12
   -0.805013    4.08007  0.0000E+00  0.2705E-06  0.5373E-10  0.4271E-03  0.0000E+00 -0.5596E+12
   -0.840015    4.08048  0.0000E+00  0.2705E-06  0.5483E-10  0.4472E-03  0.0000E+00 -0.4834E+12
   -0.875016    4.08088  0.0000E+00  0.2704E-06  0.5607E-10  0.3999E-03  0.0000E+00 -0.6479E+12
   -0.910017    4.08132  0.0000E+00  0.2703E-06  0.5744E-10  0.4301E-03  0.0000E+00 -0.5128E+12
   -0.945019    4.08173  0.0000E+00  0.2702E-06  0.5900E-10  0.3776E-03  0.0000E+00 -0.6896E+12
   -0.980020    4.08219  0.0000E+00  0.2700E-06  0.6079E-10  0.3774E-03  0.0000E+00 -0.6451E+12
   -1.015021    4.08265  0.0000E+00  0.2697E-06  0.6290E-10  0.3658E-03  0.0000E+00 -0.6688E+12
   -1.050021    4.08313  0.0000E+00  0.2693E-06  0.6542E-10  0.3509E-03  0.0000E+00 -0.6996E+12
   -1.085022    4.08363  0.0000E+00  0.2688E-06  0.6843E-10  0.3723E-03  0.0000E+00 -0.6179E+12
   -1.120022    4.08411  0.0000E+00  0.2683E-06  0.7208E-10  0.3010E-03  0.0000E+00 -0.8725E+12
   -1.155023    4.08468  0.0000E+00  0.2676E-06  0.7645E-10  0.3345E-03  0.0000E+00 -0.7097E+12
   -1.190023    4.08521  0.0000E+00  0.2668E-06  0.8213E-10  0.2620E-03  0.0000E+00 -0.1008E+13
   -1.225022    4.08588  0.0000E+00  0.2656E-06  0.9024E-10  0.2502E-03  0.0000E+00 -0.1030E+13
   -1.260022    4.08658  0.0000E+00  0.2638E-06  0.1044E-09  0.2167E-03  0.0000E+00 -0.1228E+13
   -1.295021    4.08741  0.0000E+00  0.2598E-06  0.1386E-09  0.1736E-03  0.0000E+00 -0.1619E+13
   -1.330020    4.08852  0.0000E+00  0.2500E-06  0.2296E-09  0.8641E-04  0.0000E+00 -0.3371E+13
   -1.365019    4.09083  0.0000E+00  0.1741E-06  0.1120E-08  0.3746E-05  0.0000E+00 -0.9203E+14
   -1.400017    4.13817  0.0000E+00  0.0000E+00  0.0000E+00  0.0000E+00  0.0000E+00  0.0000E+00
