 1 - depth, m
 2 - temperature, C
 3 - salinity, kg/kg
 4 - turbulent kinetic energy, m**2/s**2
 5 - dissipation rate, m**2/s**3
 6 - kinematic heat conductance, m**2/s
 7 - modulus of horizontal velocity, m/s
 8 - Richardson number, n/d
   -0.000000    0.00000  0.0000E+00  0.4702E-13  0.1132E-15  0.1000E-09  0.0000E+00  0.8024E+16
   -0.034998    0.12237  0.0000E+00  0.4702E-13  0.1132E-15  0.1000E-09  0.0000E+00  0.7829E+16
   -0.069996    0.24588  0.0000E+00  0.4702E-13  0.1132E-15  0.1000E-09  0.0000E+00  0.7623E+16
   -0.104994    0.37048  0.0000E+00  0.4702E-13  0.1132E-15  0.1000E-09  0.0000E+00  0.7334E+16
   -0.139993    0.49479  0.0000E+00  0.4702E-13  0.1132E-15  0.1000E-09  0.0000E+00  0.7000E+16
   -0.174992    0.61800  0.0000E+00  0.4702E-13  0.1132E-15  0.1000E-09  0.0000E+00  0.6667E+16
   -0.209992    0.73994  0.0000E+00  0.4702E-13  0.1132E-15  0.1000E-09  0.0000E+00  0.6335E+16
   -0.244991    0.86046  0.0000E+00  0.4702E-13  0.1132E-15  0.1000E-09  0.0000E+00  0.6006E+16
   -0.279991    0.97942  0.0000E+00  0.4702E-13  0.1132E-15  0.1000E-09  0.0000E+00  0.5680E+16
   -0.314991    1.09668  0.0000E+00  0.4702E-13  0.1132E-15  0.1000E-09  0.0000E+00  0.5400E+16
   -0.349991    1.21297  0.0000E+00  0.4702E-13  0.1132E-15  0.1000E-09  0.0000E+00  0.5124E+16
   -0.384992    1.32825  0.0000E+00  0.4702E-13  0.1132E-15  0.1000E-09  0.0000E+00  0.4849E+16
   -0.419992    1.44236  0.0000E+00  0.4702E-13  0.1132E-15  0.1000E-09  0.0000E+00  0.4576E+16
   -0.454993    1.55517  0.0000E+00  0.4702E-13  0.1132E-15  0.1000E-09  0.0000E+00  0.4322E+16
   -0.489994    1.66698  0.0000E+00  0.4702E-13  0.1132E-15  0.1000E-09  0.0000E+00  0.4112E+16
   -0.524995    1.77881  0.0000E+00  0.4702E-13  0.1132E-15  0.1000E-09  0.0000E+00  0.4095E+16
   -0.559996    1.89634  0.0000E+00  0.4702E-13  0.1132E-15  0.1000E-09  0.0000E+00  0.4193E+16
   -0.594997    2.02424  0.0000E+00  0.4702E-13  0.1132E-15  0.1000E-09  0.0000E+00  0.4254E+16
   -0.629998    2.16344  0.0000E+00  0.4702E-13  0.1132E-15  0.1000E-09  0.0000E+00  0.3845E+16
   -0.664999    2.29944  0.0000E+00  0.4702E-13  0.1132E-15  0.1000E-09  0.0000E+00  0.3452E+16
   -0.700000    2.43195  0.0000E+00  0.4702E-13  0.1132E-15  0.1000E-09  0.0000E+00  0.3082E+16
   -0.735001    2.56091  0.0000E+00  0.4702E-13  0.1132E-15  0.1000E-09  0.0000E+00  0.2754E+16
   -0.770002    2.68720  0.0000E+00  0.8827E-13  0.1132E-15  0.1000E-09  0.0000E+00  0.2483E+16
   -0.805003    2.81290  0.0000E+00  0.3243E-12  0.1770E-15  0.1000E-09  0.0000E+00  0.2208E+16
   -0.840004    2.93755  0.0000E+00  0.8770E-12  0.4002E-15  0.1000E-09  0.0000E+00  0.1937E+16
   -0.875005    3.06083  0.0000E+00  0.2154E-11  0.9318E-15  0.1000E-09  0.0000E+00  0.1673E+16
   -0.910006    3.18270  0.0000E+00  0.5114E-11  0.2146E-14  0.1000E-09  0.0000E+00  0.1402E+16
   -0.945007    3.30154  0.0000E+00  0.1192E-10  0.4876E-14  0.1000E-09  0.0000E+00  0.1142E+16
   -0.980008    3.41660  0.0000E+00  0.2754E-10  0.1099E-13  0.1000E-09  0.0000E+00  0.9001E+15
   -1.015008    3.52742  0.0000E+00  0.6361E-10  0.2478E-13  0.1000E-09  0.0000E+00  0.6887E+15
   -1.050009    3.63529  0.0000E+00  0.1473E-09  0.5606E-13  0.2909E-09  0.0000E+00  0.4960E+15
   -1.085009    3.74099  0.0000E+00  0.3414E-09  0.1270E-12  0.9896E-09  0.0000E+00  0.3293E+15
   -1.120009    3.85116  0.0000E+00  0.7799E-09  0.2838E-12  0.5256E-08  0.0000E+00  0.1372E+15
   -1.155009    3.95842  0.0000E+00  0.1672E-08  0.6005E-12  0.2287E-06  0.0000E+00  0.4332E+13
   -1.190008    4.00186  0.0000E+00  0.2874E-08  0.1088E-11  0.2430E-05  0.0000E+00 -0.1910E+13
   -1.225008    4.00836  0.0000E+00  0.3862E-08  0.1646E-11  0.3063E-05  0.0000E+00 -0.2499E+13
   -1.260007    4.01469  0.0000E+00  0.4935E-08  0.2525E-11  0.3622E-05  0.0000E+00 -0.3789E+13
   -1.295005    4.02222  0.0000E+00  0.6170E-08  0.4228E-11  0.3720E-05  0.0000E+00 -0.7079E+13
   -1.330004    4.03315  0.0000E+00  0.6629E-08  0.6793E-11  0.2238E-05  0.0000E+00 -0.1459E+14
   -1.365002    4.05001  0.0000E+00  0.5672E-08  0.1362E-10  0.6095E-06  0.0000E+00 -0.6587E+14
   -1.400000    4.09801  0.0000E+00  0.0000E+00  0.0000E+00  0.0000E+00  0.0000E+00  0.0000E+00
