 1 - depth, m
 2 - temperature, C
 3 - salinity, kg/kg
 4 - turbulent kinetic energy, m**2/s**2
 5 - dissipation rate, m**2/s**3
 6 - kinematic heat conductance, m**2/s
 7 - modulus of horizontal velocity, m/s
 8 - Richardson number, n/d
   -0.000000    0.89770  0.0000E+00  0.5540E-04  0.1971E-04  0.3404E-04  0.5283E-01 -0.1800E-02
   -0.034998    0.91054  0.0000E+00  0.3459E-04  0.5957E-05  0.4948E-04  0.2257E-01  0.6375E-02
   -0.069996    0.91474  0.0000E+00  0.2619E-04  0.2590E-05  0.5882E-04  0.1650E-01  0.8862E-02
   -0.104994    0.91802  0.0000E+00  0.2130E-04  0.1396E-05  0.6441E-04  0.1327E-01  0.1405E-01
   -0.139993    0.92082  0.0000E+00  0.1780E-04  0.8339E-06  0.6868E-04  0.1091E-01  0.2110E-01
   -0.174992    0.92337  0.0000E+00  0.1516E-04  0.5349E-06  0.7165E-04  0.9037E-02  0.3104E-01
   -0.209992    0.92578  0.0000E+00  0.1310E-04  0.3617E-06  0.7300E-04  0.7495E-02  0.4368E-01
   -0.244991    0.92814  0.0000E+00  0.1141E-04  0.2549E-06  0.7242E-04  0.6180E-02  0.5884E-01
   -0.279991    0.93054  0.0000E+00  0.9919E-05  0.1846E-06  0.6885E-04  0.5019E-02  0.7193E-01
   -0.314991    0.93312  0.0000E+00  0.8462E-05  0.1346E-06  0.6759E-04  0.3924E-02  0.1492E+00
   -0.349991    0.93586  0.0000E+00  0.7173E-05  0.9928E-07  0.6408E-04  0.3077E-02  0.3493E+00
   -0.384992    0.93899  0.0000E+00  0.6070E-05  0.7423E-07  0.5916E-04  0.2411E-02  0.1082E+01
   -0.419992    0.94306  0.0000E+00  0.5142E-05  0.5643E-07  0.5255E-04  0.1885E-02  0.4655E+01
   -0.454993    0.95313  0.0000E+00  0.4355E-05  0.4354E-07  0.4636E-04  0.1419E-02  0.7759E+02
   -0.489994    0.99985  0.0000E+00  0.3699E-05  0.3412E-07  0.4156E-04  0.9952E-03  0.4513E+04
   -0.524994    1.08240  0.0000E+00  0.3124E-05  0.2676E-07  0.3859E-04  0.6491E-03  0.9289E+06
   -0.559995    1.16923  0.0000E+00  0.2625E-05  0.2089E-07  0.3471E-04  0.4378E-03  0.3468E+08
   -0.594996    1.22236  0.0000E+00  0.2116E-05  0.1559E-07  0.5665E-04  0.3217E-03 -0.4519E+10
   -0.629998    1.25309  0.0000E+00  0.1676E-05  0.1149E-07  0.4588E-04  0.2697E-03  0.2935E+11
   -0.664999    1.28470  0.0000E+00  0.1310E-05  0.8418E-08  0.3729E-04  0.2211E-03  0.7954E+11
   -0.700000    1.31650  0.0000E+00  0.1004E-05  0.6104E-08  0.3131E-04  0.1758E-03  0.7127E+11
   -0.735001    1.35194  0.0000E+00  0.7518E-06  0.4360E-08  0.1646E-04  0.1349E-03  0.6643E+10
   -0.770002    1.39474  0.0000E+00  0.5488E-06  0.3063E-08  0.6777E-05  0.1013E-03  0.4059E+12
   -0.805003    1.43724  0.0000E+00  0.3773E-06  0.2068E-08  0.3332E-05  0.7392E-04  0.2907E+14
   -0.840004    1.48368  0.0000E+00  0.2363E-06  0.1298E-08  0.1605E-05  0.5052E-04  0.2677E+15
   -0.875005    1.54347  0.0000E+00  0.1326E-06  0.7310E-09  0.5744E-06  0.3109E-04  0.5689E+15
   -0.910006    1.61318  0.0000E+00  0.5926E-07  0.3270E-09  0.6879E-07  0.1779E-04  0.8561E+15
   -0.945007    1.69005  0.0000E+00  0.1464E-07  0.8112E-10  0.1129E-07  0.6510E-05  0.1224E+16
   -0.980008    1.77053  0.0000E+00  0.2114E-08  0.1251E-10  0.3179E-08  0.1203E-05  0.1697E+16
   -1.015008    1.84888  0.0000E+00  0.2419E-09  0.2211E-11  0.8649E-09  0.1305E-06  0.1866E+16
   -1.050009    1.91977  0.0000E+00  0.2826E-10  0.1084E-11  0.2618E-09  0.1110E-07  0.1951E+16
   -1.085009    1.98647  0.0000E+00  0.4795E-11  0.1000E-11  0.1013E-09  0.8276E-09  0.2699E+16
   -1.120009    2.08088  0.0000E+00  0.4419E-11  0.1000E-11  0.1000E-09  0.6940E-10  0.3662E+16
   -1.155009    2.21171  0.0000E+00  0.4419E-11  0.1000E-11  0.1000E-09  0.5287E-11  0.4459E+16
   -1.190008    2.38104  0.0000E+00  0.4419E-11  0.1000E-11  0.1000E-09  0.3298E-12  0.5009E+16
   -1.225007    2.58942  0.0000E+00  0.4419E-11  0.1000E-11  0.1000E-09  0.1339E-13  0.4906E+16
   -1.260006    2.82994  0.0000E+00  0.4419E-11  0.1000E-11  0.1000E-09  0.4040E-15  0.4345E+16
   -1.295005    3.09711  0.0000E+00  0.4419E-11  0.1000E-11  0.1000E-09  0.1055E-16  0.3163E+16
   -1.330004    3.36378  0.0000E+00  0.4419E-11  0.1000E-11  0.1000E-09  0.4824E-18  0.1879E+16
   -1.365002    3.59790  0.0000E+00  0.4419E-11  0.1000E-11  0.1000E-09  0.1750E-19  0.7543E+15
   -1.400000    3.75857  0.0000E+00  0.0000E+00  0.0000E+00  0.0000E+00  0.1453E-19  0.0000E+00
