 1 - depth, m
 2 - temperature, C
 3 - salinity, kg/kg
 4 - turbulent kinetic energy, m**2/s**2
 5 - dissipation rate, m**2/s**3
 6 - kinematic heat conductance, m**2/s
 7 - modulus of horizontal velocity, m/s
 8 - Richardson number, n/d
   -0.000000    0.00000  0.0000E+00  0.4701E-13  0.1132E-15  0.1000E-09  0.0000E+00  0.7304E+16
   -0.034998    0.11122  0.0000E+00  0.4701E-13  0.1132E-15  0.1000E-09  0.0000E+00  0.7241E+16
   -0.069997    0.22495  0.0000E+00  0.4701E-13  0.1132E-15  0.1000E-09  0.0000E+00  0.7154E+16
   -0.104996    0.34104  0.0000E+00  0.4701E-13  0.1132E-15  0.1000E-09  0.0000E+00  0.6970E+16
   -0.139996    0.45804  0.0000E+00  0.4701E-13  0.1132E-15  0.1000E-09  0.0000E+00  0.6735E+16
   -0.174996    0.57514  0.0000E+00  0.4701E-13  0.1132E-15  0.1000E-09  0.0000E+00  0.6497E+16
   -0.209996    0.69228  0.0000E+00  0.4701E-13  0.1132E-15  0.1000E-09  0.0000E+00  0.6258E+16
   -0.244996    0.80942  0.0000E+00  0.4701E-13  0.1132E-15  0.1000E-09  0.0000E+00  0.6018E+16
   -0.279996    0.92652  0.0000E+00  0.4701E-13  0.1132E-15  0.1000E-09  0.0000E+00  0.5777E+16
   -0.314997    1.04356  0.0000E+00  0.4701E-13  0.1132E-15  0.1000E-09  0.0000E+00  0.5564E+16
   -0.349998    1.16111  0.0000E+00  0.4701E-13  0.1132E-15  0.1000E-09  0.0000E+00  0.5351E+16
   -0.384999    1.27921  0.0000E+00  0.4701E-13  0.1132E-15  0.1000E-09  0.0000E+00  0.5135E+16
   -0.420000    1.39782  0.0000E+00  0.4701E-13  0.1132E-15  0.1000E-09  0.0000E+00  0.4910E+16
   -0.455001    1.51681  0.0000E+00  0.4701E-13  0.1132E-15  0.1000E-09  0.0000E+00  0.4692E+16
   -0.490003    1.63638  0.0000E+00  0.4701E-13  0.1132E-15  0.1000E-09  0.0000E+00  0.4508E+16
   -0.525004    1.75753  0.0000E+00  0.4701E-13  0.1132E-15  0.1000E-09  0.0000E+00  0.4486E+16
   -0.560006    1.88529  0.0000E+00  0.1791E-12  0.1132E-15  0.1000E-09  0.0000E+00  0.4574E+16
   -0.595007    2.02442  0.0000E+00  0.5974E-12  0.1860E-15  0.1000E-09  0.0000E+00  0.4624E+16
   -0.630009    2.17626  0.0000E+00  0.1373E-11  0.3591E-15  0.1000E-09  0.0000E+00  0.4221E+16
   -0.665011    2.32737  0.0000E+00  0.2786E-11  0.6884E-15  0.1000E-09  0.0000E+00  0.3821E+16
   -0.700013    2.47750  0.0000E+00  0.5426E-11  0.1303E-14  0.1000E-09  0.0000E+00  0.3431E+16
   -0.735015    2.62675  0.0000E+00  0.1043E-10  0.2452E-14  0.1000E-09  0.0000E+00  0.3063E+16
   -0.770016    2.77580  0.0000E+00  0.1995E-10  0.4602E-14  0.1000E-09  0.0000E+00  0.2720E+16
   -0.805018    2.92597  0.0000E+00  0.3800E-10  0.8611E-14  0.1000E-09  0.0000E+00  0.2366E+16
   -0.840020    3.07697  0.0000E+00  0.7203E-10  0.1604E-13  0.1000E-09  0.0000E+00  0.2007E+16
   -0.875021    3.22865  0.0000E+00  0.1363E-09  0.2984E-13  0.1000E-09  0.0000E+00  0.1644E+16
   -0.910023    3.38103  0.0000E+00  0.2567E-09  0.5530E-13  0.1129E-09  0.0000E+00  0.1268E+16
   -0.945024    3.53258  0.0000E+00  0.4805E-09  0.1018E-12  0.2948E-09  0.0000E+00  0.8936E+15
   -0.980026    3.68225  0.0000E+00  0.8965E-09  0.1869E-12  0.9090E-09  0.0000E+00  0.5314E+15
   -1.015027    3.82877  0.0000E+00  0.1676E-08  0.3440E-12  0.4628E-08  0.0000E+00  0.1915E+15
   -1.050028    3.96978  0.0000E+00  0.2766E-08  0.5683E-12  0.1088E-05  0.0000E+00  0.3003E+13
   -1.085029    3.99604  0.0000E+00  0.3635E-08  0.7773E-12  0.5750E-05  0.0000E+00 -0.6175E+12
   -1.120029    3.99977  0.0000E+00  0.4262E-08  0.9626E-12  0.6722E-05  0.0000E+00 -0.7146E+12
   -1.155030    4.00295  0.0000E+00  0.4836E-08  0.1175E-11  0.7126E-05  0.0000E+00 -0.8340E+12
   -1.190030    4.00597  0.0000E+00  0.5372E-08  0.1437E-11  0.7151E-05  0.0000E+00 -0.1010E+13
   -1.225030    4.00907  0.0000E+00  0.5913E-08  0.1803E-11  0.7138E-05  0.0000E+00 -0.1336E+13
   -1.260030    4.01260  0.0000E+00  0.6475E-08  0.2381E-11  0.7009E-05  0.0000E+00 -0.2012E+13
   -1.295029    4.01714  0.0000E+00  0.7037E-08  0.3573E-11  0.5850E-05  0.0000E+00 -0.3928E+13
   -1.330028    4.02446  0.0000E+00  0.6965E-08  0.5683E-11  0.2891E-05  0.0000E+00 -0.9160E+13
   -1.365027    4.03757  0.0000E+00  0.5436E-08  0.1191E-10  0.5848E-06  0.0000E+00 -0.5037E+14
   -1.400026    4.08153  0.0000E+00  0.0000E+00  0.0000E+00  0.0000E+00  0.0000E+00  0.0000E+00
