 1 - depth, m
 2 - temperature, C
 3 - salinity, kg/kg
 4 - turbulent kinetic energy, m**2/s**2
 5 - dissipation rate, m**2/s**3
 6 - kinematic heat conductance, m**2/s
 7 - modulus of horizontal velocity, m/s
 8 - Richardson number, n/d
   -0.000000    0.00000  0.0000E+00  0.4701E-13  0.1132E-15  0.1000E-09  0.0000E+00  0.6926E+16
   -0.034998    0.10538  0.0000E+00  0.4701E-13  0.1132E-15  0.1000E-09  0.0000E+00  0.6925E+16
   -0.069997    0.21390  0.0000E+00  0.4701E-13  0.1132E-15  0.1000E-09  0.0000E+00  0.6907E+16
   -0.104996    0.32555  0.0000E+00  0.4701E-13  0.1132E-15  0.1000E-09  0.0000E+00  0.6786E+16
   -0.139996    0.43888  0.0000E+00  0.4701E-13  0.1132E-15  0.1000E-09  0.0000E+00  0.6605E+16
   -0.174995    0.55300  0.0000E+00  0.4701E-13  0.1132E-15  0.1000E-09  0.0000E+00  0.6415E+16
   -0.209995    0.66781  0.0000E+00  0.4701E-13  0.1132E-15  0.1000E-09  0.0000E+00  0.6216E+16
   -0.244995    0.78322  0.0000E+00  0.4701E-13  0.1132E-15  0.1000E-09  0.0000E+00  0.6010E+16
   -0.279996    0.89913  0.0000E+00  0.4701E-13  0.1132E-15  0.1000E-09  0.0000E+00  0.5798E+16
   -0.314996    1.01546  0.0000E+00  0.4701E-13  0.1132E-15  0.1000E-09  0.0000E+00  0.5599E+16
   -0.349997    1.13254  0.0000E+00  0.4701E-13  0.1132E-15  0.1000E-09  0.0000E+00  0.5397E+16
   -0.384998    1.25037  0.0000E+00  0.4701E-13  0.1132E-15  0.1000E-09  0.0000E+00  0.5190E+16
   -0.419999    1.36890  0.0000E+00  0.4701E-13  0.1132E-15  0.1000E-09  0.0000E+00  0.4977E+16
   -0.455001    1.48808  0.0000E+00  0.4701E-13  0.1132E-15  0.1000E-09  0.0000E+00  0.4770E+16
   -0.490002    1.60815  0.0000E+00  0.4701E-13  0.1132E-15  0.1000E-09  0.0000E+00  0.4589E+16
   -0.525003    1.72993  0.0000E+00  0.4701E-13  0.1132E-15  0.1000E-09  0.0000E+00  0.4546E+16
   -0.560005    1.85771  0.0000E+00  0.1504E-12  0.1132E-15  0.1000E-09  0.0000E+00  0.4598E+16
   -0.595007    1.99557  0.0000E+00  0.5294E-12  0.1906E-15  0.1000E-09  0.0000E+00  0.4615E+16
   -0.630008    2.14467  0.0000E+00  0.1273E-11  0.3853E-15  0.1000E-09  0.0000E+00  0.4237E+16
   -0.665010    2.29344  0.0000E+00  0.2704E-11  0.7736E-15  0.1000E-09  0.0000E+00  0.3858E+16
   -0.700012    2.44168  0.0000E+00  0.5518E-11  0.1532E-14  0.1000E-09  0.0000E+00  0.3485E+16
   -0.735014    2.58942  0.0000E+00  0.1112E-10  0.3015E-14  0.1000E-09  0.0000E+00  0.3128E+16
   -0.770015    2.73719  0.0000E+00  0.2227E-10  0.5906E-14  0.1000E-09  0.0000E+00  0.2790E+16
   -0.805017    2.88602  0.0000E+00  0.4435E-10  0.1151E-13  0.1000E-09  0.0000E+00  0.2442E+16
   -0.840019    3.03555  0.0000E+00  0.8773E-10  0.2231E-13  0.1000E-09  0.0000E+00  0.2087E+16
   -0.875020    3.18554  0.0000E+00  0.1729E-09  0.4305E-13  0.1000E-09  0.0000E+00  0.1730E+16
   -0.910022    3.33597  0.0000E+00  0.3386E-09  0.8262E-13  0.1572E-09  0.0000E+00  0.1360E+16
   -0.945023    3.48548  0.0000E+00  0.6572E-09  0.1572E-12  0.4088E-09  0.0000E+00  0.9952E+15
   -0.980025    3.63327  0.0000E+00  0.1269E-08  0.2976E-12  0.1201E-08  0.0000E+00  0.6409E+15
   -1.015026    3.77850  0.0000E+00  0.2451E-08  0.5636E-12  0.4787E-08  0.0000E+00  0.3043E+15
   -1.050027    3.91975  0.0000E+00  0.4587E-08  0.1039E-11  0.8701E-07  0.0000E+00  0.3036E+14
   -1.085027    4.01026  0.0000E+00  0.5937E-08  0.1357E-11  0.1054E-04  0.0000E+00 -0.7849E+12
   -1.120028    4.01227  0.0000E+00  0.6612E-08  0.1554E-11  0.1101E-04  0.0000E+00 -0.8171E+12
   -1.155028    4.01420  0.0000E+00  0.7196E-08  0.1774E-11  0.1101E-04  0.0000E+00 -0.8843E+12
   -1.190029    4.01616  0.0000E+00  0.7710E-08  0.2040E-11  0.1066E-04  0.0000E+00 -0.1004E+13
   -1.225029    4.01824  0.0000E+00  0.8198E-08  0.2410E-11  0.1041E-04  0.0000E+00 -0.1249E+13
   -1.260028    4.02064  0.0000E+00  0.8661E-08  0.2986E-11  0.1004E-04  0.0000E+00 -0.1770E+13
   -1.295028    4.02379  0.0000E+00  0.9020E-08  0.4185E-11  0.8187E-05  0.0000E+00 -0.3270E+13
   -1.330027    4.02900  0.0000E+00  0.8646E-08  0.6463E-11  0.3784E-05  0.0000E+00 -0.7524E+13
   -1.365025    4.03907  0.0000E+00  0.6452E-08  0.1400E-10  0.6539E-06  0.0000E+00 -0.4578E+14
   -1.400024    4.07923  0.0000E+00  0.0000E+00  0.0000E+00  0.0000E+00  0.0000E+00  0.0000E+00
