 1 - depth, m
 2 - temperature, C
 3 - salinity, kg/kg
 4 - turbulent kinetic energy, m**2/s**2
 5 - dissipation rate, m**2/s**3
 6 - kinematic heat conductance, m**2/s
 7 - modulus of horizontal velocity, m/s
 8 - Richardson number, n/d
   -0.000000    0.00000  0.0000E+00  0.4702E-13  0.1132E-15  0.1000E-09  0.0000E+00  0.8445E+16
   -0.034998    0.12890  0.0000E+00  0.4702E-13  0.1132E-15  0.1000E-09  0.0000E+00  0.8259E+16
   -0.069996    0.25958  0.0000E+00  0.4702E-13  0.1132E-15  0.1000E-09  0.0000E+00  0.8065E+16
   -0.104995    0.39208  0.0000E+00  0.4702E-13  0.1132E-15  0.1000E-09  0.0000E+00  0.7775E+16
   -0.139994    0.52491  0.0000E+00  0.4702E-13  0.1132E-15  0.1000E-09  0.0000E+00  0.7435E+16
   -0.174993    0.65717  0.0000E+00  0.4702E-13  0.1132E-15  0.1000E-09  0.0000E+00  0.7096E+16
   -0.209992    0.78882  0.0000E+00  0.4702E-13  0.1132E-15  0.1000E-09  0.0000E+00  0.6759E+16
   -0.244992    0.91976  0.0000E+00  0.4702E-13  0.1132E-15  0.1000E-09  0.0000E+00  0.6425E+16
   -0.279992    1.04993  0.0000E+00  0.4702E-13  0.1132E-15  0.1000E-09  0.0000E+00  0.6095E+16
   -0.314992    1.17925  0.0000E+00  0.4702E-13  0.1132E-15  0.1000E-09  0.0000E+00  0.5799E+16
   -0.349992    1.30839  0.0000E+00  0.4702E-13  0.1132E-15  0.1000E-09  0.0000E+00  0.5507E+16
   -0.384992    1.43734  0.0000E+00  0.4702E-13  0.1132E-15  0.1000E-09  0.0000E+00  0.5214E+16
   -0.419993    1.56604  0.0000E+00  0.1182E-12  0.1132E-15  0.1000E-09  0.0000E+00  0.4922E+16
   -0.454994    1.69443  0.0000E+00  0.3619E-12  0.1305E-15  0.1000E-09  0.0000E+00  0.4644E+16
   -0.489994    1.82284  0.0000E+00  0.8426E-12  0.2073E-15  0.1000E-09  0.0000E+00  0.4404E+16
   -0.524995    1.95236  0.0000E+00  0.1798E-11  0.3886E-15  0.1000E-09  0.0000E+00  0.4334E+16
   -0.559996    2.08872  0.0000E+00  0.3793E-11  0.7765E-15  0.1000E-09  0.0000E+00  0.4363E+16
   -0.594998    2.23707  0.0000E+00  0.8261E-11  0.1641E-14  0.1000E-09  0.0000E+00  0.4341E+16
   -0.629999    2.39881  0.0000E+00  0.1600E-10  0.3117E-14  0.1000E-09  0.0000E+00  0.3873E+16
   -0.665000    2.55894  0.0000E+00  0.2939E-10  0.5624E-14  0.1000E-09  0.0000E+00  0.3417E+16
   -0.700001    2.71727  0.0000E+00  0.5295E-10  0.9957E-14  0.1000E-09  0.0000E+00  0.2977E+16
   -0.735002    2.87385  0.0000E+00  0.9488E-10  0.1753E-13  0.1000E-09  0.0000E+00  0.2565E+16
   -0.770004    3.02954  0.0000E+00  0.1694E-09  0.3076E-13  0.1000E-09  0.0000E+00  0.2184E+16
   -0.805005    3.18607  0.0000E+00  0.3014E-09  0.5379E-13  0.1025E-09  0.0000E+00  0.1796E+16
   -0.840006    3.34314  0.0000E+00  0.5337E-09  0.9362E-13  0.1729E-09  0.0000E+00  0.1405E+16
   -0.875007    3.50065  0.0000E+00  0.9420E-09  0.1625E-12  0.4153E-09  0.0000E+00  0.1015E+16
   -0.910008    3.65898  0.0000E+00  0.1654E-08  0.2806E-12  0.1174E-08  0.0000E+00  0.6155E+15
   -0.945009    3.81659  0.0000E+00  0.2877E-08  0.4799E-12  0.5567E-08  0.0000E+00  0.2208E+15
   -0.980010    3.96901  0.0000E+00  0.4087E-08  0.6858E-12  0.2972E-05  0.0000E+00  0.4719E+13
   -1.015010    3.99669  0.0000E+00  0.4804E-08  0.8230E-12  0.9343E-05  0.0000E+00 -0.3856E+12
   -1.050011    3.99913  0.0000E+00  0.5311E-08  0.9391E-12  0.1058E-04  0.0000E+00 -0.4282E+12
   -1.085011    4.00126  0.0000E+00  0.5788E-08  0.1070E-11  0.1145E-04  0.0000E+00 -0.4808E+12
   -1.120011    4.00329  0.0000E+00  0.6232E-08  0.1221E-11  0.1166E-04  0.0000E+00 -0.5422E+12
   -1.155011    4.00530  0.0000E+00  0.6645E-08  0.1401E-11  0.1142E-04  0.0000E+00 -0.6268E+12
   -1.190010    4.00736  0.0000E+00  0.7031E-08  0.1626E-11  0.1086E-04  0.0000E+00 -0.7540E+12
   -1.225010    4.00958  0.0000E+00  0.7414E-08  0.1947E-11  0.1036E-04  0.0000E+00 -0.9903E+12
   -1.260009    4.01219  0.0000E+00  0.7796E-08  0.2462E-11  0.9729E-05  0.0000E+00 -0.1485E+13
   -1.295008    4.01567  0.0000E+00  0.8118E-08  0.3581E-11  0.7621E-05  0.0000E+00 -0.2962E+13
   -1.330006    4.02156  0.0000E+00  0.7827E-08  0.5784E-11  0.3452E-05  0.0000E+00 -0.7413E+13
   -1.365005    4.03313  0.0000E+00  0.5963E-08  0.1288E-10  0.6245E-06  0.0000E+00 -0.4692E+14
   -1.400002    4.07681  0.0000E+00  0.0000E+00  0.0000E+00  0.0000E+00  0.0000E+00  0.0000E+00
