 1 - depth, m
 2 - temperature, C
 3 - salinity, kg/kg
 4 - turbulent kinetic energy, m**2/s**2
 5 - dissipation rate, m**2/s**3
 6 - kinematic heat conductance, m**2/s
 7 - modulus of horizontal velocity, m/s
 8 - Richardson number, n/d
   -0.000000    0.00000  0.0000E+00  0.4702E-13  0.1132E-15  0.1000E-09  0.0000E+00  0.1089E+17
   -0.034998    0.16713  0.0000E+00  0.4702E-13  0.1132E-15  0.1000E-09  0.0000E+00  0.1047E+17
   -0.069996    0.33549  0.0000E+00  0.4702E-13  0.1132E-15  0.1000E-09  0.0000E+00  0.1005E+17
   -0.104994    0.50521  0.0000E+00  0.4702E-13  0.1132E-15  0.1000E-09  0.0000E+00  0.9465E+16
   -0.139993    0.67350  0.0000E+00  0.4702E-13  0.1132E-15  0.1000E-09  0.0000E+00  0.8813E+16
   -0.174992    0.83877  0.0000E+00  0.4702E-13  0.1132E-15  0.1000E-09  0.0000E+00  0.8190E+16
   -0.209991    1.00100  0.0000E+00  0.4702E-13  0.1132E-15  0.1000E-09  0.0000E+00  0.7596E+16
   -0.244991    1.16021  0.0000E+00  0.4702E-13  0.1132E-15  0.1000E-09  0.0000E+00  0.7028E+16
   -0.279990    1.31638  0.0000E+00  0.4702E-13  0.1132E-15  0.1000E-09  0.0000E+00  0.6486E+16
   -0.314990    1.46948  0.0000E+00  0.4702E-13  0.1132E-15  0.1000E-09  0.0000E+00  0.5899E+16
   -0.349991    1.61770  0.0000E+00  0.4702E-13  0.1132E-15  0.1000E-09  0.0000E+00  0.5329E+16
   -0.384991    1.76042  0.0000E+00  0.4702E-13  0.1132E-15  0.1000E-09  0.0000E+00  0.4782E+16
   -0.419991    1.89710  0.0000E+00  0.6085E-13  0.1132E-15  0.1000E-09  0.0000E+00  0.4358E+16
   -0.454992    2.03024  0.0000E+00  0.2135E-12  0.1179E-15  0.1000E-09  0.0000E+00  0.4019E+16
   -0.489993    2.16192  0.0000E+00  0.5787E-12  0.1791E-15  0.1000E-09  0.0000E+00  0.3691E+16
   -0.524993    2.29212  0.0000E+00  0.1350E-11  0.3503E-15  0.1000E-09  0.0000E+00  0.3366E+16
   -0.559994    2.42054  0.0000E+00  0.3041E-11  0.7389E-15  0.1000E-09  0.0000E+00  0.3026E+16
   -0.594995    2.54600  0.0000E+00  0.7017E-11  0.1647E-14  0.1000E-09  0.0000E+00  0.2667E+16
   -0.629996    2.66671  0.0000E+00  0.1427E-10  0.3276E-14  0.1000E-09  0.0000E+00  0.2358E+16
   -0.664997    2.78368  0.0000E+00  0.2750E-10  0.6189E-14  0.1000E-09  0.0000E+00  0.2072E+16
   -0.699999    2.89704  0.0000E+00  0.5205E-10  0.1148E-13  0.1000E-09  0.0000E+00  0.1807E+16
   -0.735000    3.00677  0.0000E+00  0.9796E-10  0.2118E-13  0.1000E-09  0.0000E+00  0.1600E+16
   -0.770001    3.11558  0.0000E+00  0.1836E-09  0.3892E-13  0.1000E-09  0.0000E+00  0.1478E+16
   -0.805002    3.23012  0.0000E+00  0.3426E-09  0.7124E-13  0.1386E-09  0.0000E+00  0.1333E+16
   -0.840003    3.35112  0.0000E+00  0.6356E-09  0.1297E-12  0.2902E-09  0.0000E+00  0.1159E+16
   -0.875004    3.47963  0.0000E+00  0.1174E-08  0.2351E-12  0.6426E-09  0.0000E+00  0.9503E+15
   -0.910005    3.61747  0.0000E+00  0.2158E-08  0.4240E-12  0.1623E-08  0.0000E+00  0.6797E+15
   -0.945005    3.76433  0.0000E+00  0.3921E-08  0.7570E-12  0.5950E-08  0.0000E+00  0.3449E+15
   -0.980006    3.91856  0.0000E+00  0.6450E-08  0.1241E-11  0.1514E-05  0.0000E+00  0.4658E+14
   -1.015006    4.00518  0.0000E+00  0.7579E-08  0.1475E-11  0.1452E-04  0.0000E+00 -0.5214E+12
   -1.050007    4.00707  0.0000E+00  0.8196E-08  0.1628E-11  0.1626E-04  0.0000E+00 -0.5470E+12
   -1.085007    4.00882  0.0000E+00  0.8739E-08  0.1793E-11  0.1691E-04  0.0000E+00 -0.5902E+12
   -1.120007    4.01053  0.0000E+00  0.9228E-08  0.1979E-11  0.1698E-04  0.0000E+00 -0.6392E+12
   -1.155006    4.01224  0.0000E+00  0.9678E-08  0.2204E-11  0.1653E-04  0.0000E+00 -0.7121E+12
   -1.190006    4.01400  0.0000E+00  0.1009E-07  0.2491E-11  0.1546E-04  0.0000E+00 -0.8362E+12
   -1.225005    4.01592  0.0000E+00  0.1049E-07  0.2901E-11  0.1441E-04  0.0000E+00 -0.1071E+13
   -1.260004    4.01820  0.0000E+00  0.1086E-07  0.3563E-11  0.1319E-04  0.0000E+00 -0.1561E+13
   -1.295003    4.02124  0.0000E+00  0.1113E-07  0.5045E-11  0.9967E-05  0.0000E+00 -0.3073E+13
   -1.330001    4.02652  0.0000E+00  0.1067E-07  0.8170E-11  0.4431E-05  0.0000E+00 -0.7815E+13
   -1.364999    4.03749  0.0000E+00  0.8228E-08  0.1903E-10  0.8067E-06  0.0000E+00 -0.5398E+14
   -1.399997    4.08388  0.0000E+00  0.0000E+00  0.0000E+00  0.0000E+00  0.0000E+00  0.0000E+00
