 1 - depth, m
 2 - temperature, C
 3 - salinity, kg/kg
 4 - turbulent kinetic energy, m**2/s**2
 5 - dissipation rate, m**2/s**3
 6 - kinematic heat conductance, m**2/s
 7 - modulus of horizontal velocity, m/s
 8 - Richardson number, n/d
   -0.000000   11.24300  0.0000E+00  0.4864E-03  0.1148E-02  0.7410E-04  0.2499E+00  0.6060E-02
   -0.035000   11.29560  0.0000E+00  0.2602E-03  0.4417E-03  0.1464E-03  0.7546E-01 -0.1151E-02
   -0.070000   11.30867  0.0000E+00  0.1752E-03  0.1853E-03  0.1941E-03  0.4648E-01 -0.1305E+00
   -0.105001   11.31589  0.0000E+00  0.1386E-03  0.1068E-03  0.1978E-03  0.3660E-01 -0.2568E-01
   -0.140002   11.32008  0.0000E+00  0.1160E-03  0.6664E-04  0.2031E-03  0.3074E-01 -0.1381E-01
   -0.175003   11.32307  0.0000E+00  0.9851E-04  0.4256E-04  0.2104E-03  0.2598E-01 -0.1271E-01
   -0.210004   11.32538  0.0000E+00  0.8563E-04  0.2767E-04  0.2191E-03  0.2227E-01  0.1278E+02
   -0.245006   11.32733  0.0000E+00  0.7559E-04  0.1794E-04  0.2250E-03  0.1926E-01 -0.1255E-01
   -0.280008   11.32914  0.0000E+00  0.6735E-04  0.1152E-04  0.2261E-03  0.1659E-01 -0.7351E-01
   -0.315010   11.33106  0.0000E+00  0.5990E-04  0.7378E-05  0.2374E-03  0.1389E-01 -0.2137E-01
   -0.350012   11.33275  0.0000E+00  0.5376E-04  0.4751E-05  0.2450E-03  0.1189E-01 -0.2136E+00
   -0.385015   11.33433  0.0000E+00  0.4861E-04  0.3110E-05  0.2512E-03  0.1024E-01 -0.1040E+00
   -0.420018   11.33582  0.0000E+00  0.4430E-04  0.2099E-05  0.2542E-03  0.8853E-02  0.3756E+01
   -0.455020   11.33735  0.0000E+00  0.4061E-04  0.1481E-05  0.2559E-03  0.7550E-02  0.8815E+03
   -0.490023   11.33894  0.0000E+00  0.3737E-04  0.1104E-05  0.2587E-03  0.6318E-02  0.3174E+02
   -0.525026   11.34059  0.0000E+00  0.3431E-04  0.8578E-06  0.2702E-03  0.5215E-02 -0.5509E+01
   -0.560029   11.34199  0.0000E+00  0.3135E-04  0.6812E-06  0.2773E-03  0.4405E-02 -0.7185E+02
   -0.595032   11.34310  0.0000E+00  0.2813E-04  0.5305E-06  0.2802E-03  0.3862E-02  0.1970E+04
   -0.630036   11.34373  0.0000E+00  0.2528E-04  0.4174E-06  0.2939E-03  0.3532E-02  0.2817E+04
   -0.665039   11.34466  0.0000E+00  0.2286E-04  0.3355E-06  0.3241E-03  0.3194E-02  0.7630E+03
   -0.700042   11.34557  0.0000E+00  0.2079E-04  0.2746E-06  0.3703E-03  0.2874E-02  0.3598E+03
   -0.735046   11.34642  0.0000E+00  0.1899E-04  0.2278E-06  0.4090E-03  0.2575E-02  0.1131E+04
   -0.770049   11.34719  0.0000E+00  0.1741E-04  0.1912E-06  0.4330E-03  0.2303E-02  0.3182E+03
   -0.805052   11.34790  0.0000E+00  0.1601E-04  0.1621E-06  0.4464E-03  0.2055E-02  0.2554E+03
   -0.840055   11.34858  0.0000E+00  0.1478E-04  0.1387E-06  0.4556E-03  0.1831E-02  0.2495E+04
   -0.875058   11.34924  0.0000E+00  0.1369E-04  0.1197E-06  0.4632E-03  0.1627E-02  0.1352E+04
   -0.910061   11.34986  0.0000E+00  0.1272E-04  0.1042E-06  0.4691E-03  0.1445E-02  0.1808E+04
   -0.945064   11.35048  0.0000E+00  0.1187E-04  0.9171E-07  0.4726E-03  0.1277E-02  0.5142E+03
   -0.980067   11.35109  0.0000E+00  0.1111E-04  0.8174E-07  0.4696E-03  0.1123E-02  0.1482E+03
   -1.015070   11.35171  0.0000E+00  0.1044E-04  0.7389E-07  0.4643E-03  0.9808E-03  0.2786E+03
   -1.050072   11.35233  0.0000E+00  0.9831E-05  0.6780E-07  0.4551E-03  0.8539E-03  0.1137E+04
   -1.085074   11.35296  0.0000E+00  0.9269E-05  0.6337E-07  0.4409E-03  0.7421E-03  0.4897E+03
   -1.120077   11.35362  0.0000E+00  0.8748E-05  0.6082E-07  0.4205E-03  0.6442E-03  0.8316E+03
   -1.155078   11.35432  0.0000E+00  0.8256E-05  0.6074E-07  0.3997E-03  0.5539E-03  0.5876E+03
   -1.190080   11.35508  0.0000E+00  0.7772E-05  0.6444E-07  0.3643E-03  0.4678E-03  0.9747E+03
   -1.225082   11.35601  0.0000E+00  0.7244E-05  0.7492E-07  0.3340E-03  0.3820E-03  0.4810E+04
   -1.260083   11.35707  0.0000E+00  0.6586E-05  0.1026E-06  0.2802E-03  0.3020E-03  0.1877E+04
   -1.295084   11.35894  0.0000E+00  0.5633E-05  0.1777E-06  0.2366E-03  0.2285E-03  0.7077E+05
   -1.330084   11.35969  0.0000E+00  0.4459E-05  0.3704E-06  0.1383E-03  0.1942E-03  0.2797E+06
   -1.365085   11.36662  0.0000E+00  0.2979E-05  0.7595E-06  0.6725E-04  0.1389E-03 -0.1774E+09
   -1.400084   11.37531  0.0000E+00  0.0000E+00  0.0000E+00  0.0000E+00  0.2168E-03  0.0000E+00
