 1 - depth, m
 2 - temperature, C
 3 - salinity, kg/kg
 4 - turbulent kinetic energy, m**2/s**2
 5 - dissipation rate, m**2/s**3
 6 - kinematic heat conductance, m**2/s
 7 - modulus of horizontal velocity, m/s
 8 - Richardson number, n/d
   -0.000000    8.96627  0.0000E+00  0.7451E-05  0.3369E-06  0.1614E-04  0.1320E-01 -0.2231E-01
   -0.034998    8.98989  0.0000E+00  0.6345E-05  0.1426E-06  0.2953E-04  0.7998E-02 -0.5415E-01
   -0.069996    9.00258  0.0000E+00  0.5506E-05  0.7994E-07  0.4299E-04  0.5545E-02 -0.1011E+00
   -0.104995    9.01116  0.0000E+00  0.4899E-05  0.5115E-07  0.5832E-04  0.4068E-02 -0.1680E+00
   -0.139994    9.01741  0.0000E+00  0.4464E-05  0.3560E-07  0.7934E-04  0.3090E-02 -0.2101E+00
   -0.174993    9.02197  0.0000E+00  0.4170E-05  0.2683E-07  0.1494E-03  0.2411E-02  0.8776E+02
   -0.209992    9.02456  0.0000E+00  0.3995E-05  0.2190E-07  0.2394E-03  0.1967E-02  0.2669E+02
   -0.244992    9.02606  0.0000E+00  0.3882E-05  0.1857E-07  0.2634E-03  0.1654E-02  0.4003E+01
   -0.279992    9.02742  0.0000E+00  0.3792E-05  0.1594E-07  0.2854E-03  0.1354E-02  0.4571E+01
   -0.314992    9.02867  0.0000E+00  0.3716E-05  0.1388E-07  0.3098E-03  0.1082E-02  0.3080E+01
   -0.349992    9.02981  0.0000E+00  0.3655E-05  0.1227E-07  0.3370E-03  0.8630E-03  0.2331E+01
   -0.384993    9.03085  0.0000E+00  0.3609E-05  0.1102E-07  0.3657E-03  0.6886E-03  0.1924E+01
   -0.419993    9.03181  0.0000E+00  0.3575E-05  0.1005E-07  0.3906E-03  0.5493E-03  0.1807E+01
   -0.454994    9.03271  0.0000E+00  0.3549E-05  0.9294E-08  0.4156E-03  0.4310E-03  0.1736E+01
   -0.489995    9.03356  0.0000E+00  0.3527E-05  0.8701E-08  0.4416E-03  0.3289E-03  0.1590E+01
   -0.524996    9.03435  0.0000E+00  0.3506E-05  0.8210E-08  0.4663E-03  0.2433E-03  0.1206E+01
   -0.559997    9.03507  0.0000E+00  0.3488E-05  0.7800E-08  0.4896E-03  0.1856E-03  0.9334E+00
   -0.594998    9.03573  0.0000E+00  0.3472E-05  0.7452E-08  0.5070E-03  0.1525E-03  0.7164E+00
   -0.629999    9.03631  0.0000E+00  0.3462E-05  0.7198E-08  0.5143E-03  0.1365E-03  0.1105E+01
   -0.665000    9.03689  0.0000E+00  0.3455E-05  0.6992E-08  0.5253E-03  0.1229E-03  0.1243E+01
   -0.700002    9.03746  0.0000E+00  0.3449E-05  0.6820E-08  0.5363E-03  0.1106E-03  0.1407E+01
   -0.735003    9.03802  0.0000E+00  0.3444E-05  0.6676E-08  0.5458E-03  0.9940E-04  0.1621E+01
   -0.770004    9.03857  0.0000E+00  0.3440E-05  0.6557E-08  0.5539E-03  0.8934E-04  0.1891E+01
   -0.805005    9.03912  0.0000E+00  0.3436E-05  0.6463E-08  0.5604E-03  0.8030E-04  0.2239E+01
   -0.840007    9.03966  0.0000E+00  0.3432E-05  0.6392E-08  0.5649E-03  0.7213E-04  0.2667E+01
   -0.875008    9.04021  0.0000E+00  0.3428E-05  0.6345E-08  0.5675E-03  0.6474E-04  0.3180E+01
   -0.910009    9.04075  0.0000E+00  0.3423E-05  0.6320E-08  0.5677E-03  0.5805E-04  0.3839E+01
   -0.945009    9.04130  0.0000E+00  0.3416E-05  0.6321E-08  0.5654E-03  0.5189E-04  0.4579E+01
   -0.980010    9.04186  0.0000E+00  0.3408E-05  0.6348E-08  0.5604E-03  0.4618E-04  0.5478E+01
   -1.015011    9.04243  0.0000E+00  0.3398E-05  0.6405E-08  0.5524E-03  0.4086E-04  0.6637E+01
   -1.050011    9.04301  0.0000E+00  0.3386E-05  0.6499E-08  0.5407E-03  0.3599E-04  0.8517E+01
   -1.085012    9.04361  0.0000E+00  0.3370E-05  0.6641E-08  0.5248E-03  0.3156E-04  0.1118E+02
   -1.120012    9.04424  0.0000E+00  0.3350E-05  0.6843E-08  0.5043E-03  0.2754E-04  0.1521E+02
   -1.155012    9.04490  0.0000E+00  0.3326E-05  0.7124E-08  0.4790E-03  0.2376E-04  0.2011E+02
   -1.190011    9.04561  0.0000E+00  0.3297E-05  0.7517E-08  0.4466E-03  0.2018E-04  0.2679E+02
   -1.225011    9.04637  0.0000E+00  0.3257E-05  0.8134E-08  0.4110E-03  0.1694E-04  0.3629E+02
   -1.260010    9.04721  0.0000E+00  0.3194E-05  0.9280E-08  0.3359E-03  0.1394E-04  0.6374E+02
   -1.295009    9.04826  0.0000E+00  0.3058E-05  0.1225E-07  0.3027E-03  0.1121E-04  0.1343E+03
   -1.330007    9.04943  0.0000E+00  0.2757E-05  0.2118E-07  0.1496E-03  0.9292E-05 -0.9674E+04
   -1.365005    9.05475  0.0000E+00  0.1797E-05  0.6211E-07  0.2980E-04  0.6569E-05 -0.1104E+06
   -1.400003    9.06950  0.0000E+00  0.0000E+00  0.0000E+00  0.0000E+00  0.7148E-05  0.0000E+00
