 1 - depth, m
 2 - temperature, C
 3 - salinity, kg/kg
 4 - turbulent kinetic energy, m**2/s**2
 5 - dissipation rate, m**2/s**3
 6 - kinematic heat conductance, m**2/s
 7 - modulus of horizontal velocity, m/s
 8 - Richardson number, n/d
   -0.000000    0.00000  0.0000E+00  0.4702E-13  0.1132E-15  0.1000E-09  0.0000E+00  0.5735E+16
   -0.034998    0.08705  0.0000E+00  0.4702E-13  0.1132E-15  0.1000E-09  0.0000E+00  0.5624E+16
   -0.069996    0.17448  0.0000E+00  0.4702E-13  0.1132E-15  0.1000E-09  0.0000E+00  0.5514E+16
   -0.104994    0.26231  0.0000E+00  0.4702E-13  0.1132E-15  0.1000E-09  0.0000E+00  0.5361E+16
   -0.139993    0.34989  0.0000E+00  0.4702E-13  0.1132E-15  0.1000E-09  0.0000E+00  0.5187E+16
   -0.174992    0.43681  0.0000E+00  0.4702E-13  0.1132E-15  0.1000E-09  0.0000E+00  0.5016E+16
   -0.209991    0.52305  0.0000E+00  0.4702E-13  0.1132E-15  0.1000E-09  0.0000E+00  0.4845E+16
   -0.244991    0.60856  0.0000E+00  0.4702E-13  0.1132E-15  0.1000E-09  0.0000E+00  0.4675E+16
   -0.279991    0.69332  0.0000E+00  0.4702E-13  0.1132E-15  0.1000E-09  0.0000E+00  0.4507E+16
   -0.314991    0.77726  0.0000E+00  0.4702E-13  0.1132E-15  0.1000E-09  0.0000E+00  0.4396E+16
   -0.349991    0.86143  0.0000E+00  0.4702E-13  0.1132E-15  0.1000E-09  0.0000E+00  0.4291E+16
   -0.384991    0.94595  0.0000E+00  0.4702E-13  0.1132E-15  0.1000E-09  0.0000E+00  0.4183E+16
   -0.419992    1.03081  0.0000E+00  0.4702E-13  0.1132E-15  0.1000E-09  0.0000E+00  0.4056E+16
   -0.454992    1.11560  0.0000E+00  0.4702E-13  0.1132E-15  0.1000E-09  0.0000E+00  0.3936E+16
   -0.489993    1.20046  0.0000E+00  0.4702E-13  0.1132E-15  0.1000E-09  0.0000E+00  0.3872E+16
   -0.524994    1.28666  0.0000E+00  0.4702E-13  0.1132E-15  0.1000E-09  0.0000E+00  0.4088E+16
   -0.559995    1.38093  0.0000E+00  0.4702E-13  0.1132E-15  0.1000E-09  0.0000E+00  0.4515E+16
   -0.594996    1.48935  0.0000E+00  0.4702E-13  0.1132E-15  0.1000E-09  0.0000E+00  0.4934E+16
   -0.629997    1.61374  0.0000E+00  0.4702E-13  0.1132E-15  0.1000E-09  0.0000E+00  0.4615E+16
   -0.664998    1.73655  0.0000E+00  0.4702E-13  0.1132E-15  0.1000E-09  0.0000E+00  0.4302E+16
   -0.699999    1.85766  0.0000E+00  0.4702E-13  0.1132E-15  0.1000E-09  0.0000E+00  0.4007E+16
   -0.735000    1.97727  0.0000E+00  0.4702E-13  0.1132E-15  0.1000E-09  0.0000E+00  0.3747E+16
   -0.770002    2.09619  0.0000E+00  0.4702E-13  0.1132E-15  0.1000E-09  0.0000E+00  0.3530E+16
   -0.805003    2.21574  0.0000E+00  0.4702E-13  0.1132E-15  0.1000E-09  0.0000E+00  0.3300E+16
   -0.840004    2.33558  0.0000E+00  0.4702E-13  0.1132E-15  0.1000E-09  0.0000E+00  0.3065E+16
   -0.875005    2.45549  0.0000E+00  0.4702E-13  0.1132E-15  0.1000E-09  0.0000E+00  0.2833E+16
   -0.910006    2.57560  0.0000E+00  0.4702E-13  0.1132E-15  0.1000E-09  0.0000E+00  0.2567E+16
   -0.945006    2.69429  0.0000E+00  0.4702E-13  0.1132E-15  0.1000E-09  0.0000E+00  0.2299E+16
   -0.980007    2.81095  0.0000E+00  0.4702E-13  0.1132E-15  0.1000E-09  0.0000E+00  0.2039E+16
   -1.015007    2.92532  0.0000E+00  0.4702E-13  0.1132E-15  0.1000E-09  0.0000E+00  0.1823E+16
   -1.050008    3.03942  0.0000E+00  0.1973E-12  0.2408E-15  0.1000E-09  0.0000E+00  0.1623E+16
   -1.085008    3.15428  0.0000E+00  0.7891E-12  0.8736E-15  0.1000E-09  0.0000E+00  0.1472E+16
   -1.120008    3.27449  0.0000E+00  0.2966E-11  0.3166E-14  0.1000E-09  0.0000E+00  0.1246E+16
   -1.155008    3.39538  0.0000E+00  0.1093E-10  0.1131E-13  0.1000E-09  0.0000E+00  0.1021E+16
   -1.190007    3.51734  0.0000E+00  0.3995E-10  0.4013E-13  0.1249E-09  0.0000E+00  0.8090E+15
   -1.225007    3.64381  0.0000E+00  0.1525E-09  0.1490E-12  0.5945E-09  0.0000E+00  0.6271E+15
   -1.260006    3.79244  0.0000E+00  0.6133E-09  0.5842E-12  0.4799E-08  0.0000E+00  0.2950E+15
   -1.295004    3.98709  0.0000E+00  0.2554E-08  0.2420E-11  0.9063E-06  0.0000E+00 -0.1222E+14
   -1.330003    4.02583  0.0000E+00  0.4107E-08  0.5141E-11  0.1230E-05  0.0000E+00 -0.2263E+14
   -1.365001    4.05304  0.0000E+00  0.4099E-08  0.9983E-11  0.4744E-06  0.0000E+00 -0.7263E+14
   -1.399999    4.10352  0.0000E+00  0.0000E+00  0.0000E+00  0.0000E+00  0.0000E+00  0.0000E+00
