 1 - depth, m
 2 - temperature, C
 3 - salinity, kg/kg
 4 - turbulent kinetic energy, m**2/s**2
 5 - dissipation rate, m**2/s**3
 6 - kinematic heat conductance, m**2/s
 7 - modulus of horizontal velocity, m/s
 8 - Richardson number, n/d
   -0.000000    0.00000  0.0000E+00  0.8857E-12  0.3400E-15  0.1000E-09  0.0000E+00  0.1448E+17
   -0.034998    0.22397  0.0000E+00  0.1468E-11  0.4022E-15  0.1000E-09  0.0000E+00  0.1280E+17
   -0.069996    0.43441  0.0000E+00  0.2765E-11  0.6436E-15  0.1000E-09  0.0000E+00  0.1147E+17
   -0.104995    0.63499  0.0000E+00  0.5224E-11  0.1137E-14  0.1000E-09  0.0000E+00  0.1040E+17
   -0.139994    0.82860  0.0000E+00  0.9745E-11  0.2050E-14  0.1000E-09  0.0000E+00  0.9535E+16
   -0.174993    1.01774  0.0000E+00  0.1799E-10  0.3696E-14  0.1000E-09  0.0000E+00  0.8816E+16
   -0.209993    1.20462  0.0000E+00  0.3297E-10  0.6635E-14  0.1000E-09  0.0000E+00  0.8208E+16
   -0.244993    1.39128  0.0000E+00  0.6003E-10  0.1185E-13  0.1000E-09  0.0000E+00  0.7673E+16
   -0.279993    1.57942  0.0000E+00  0.1087E-09  0.2105E-13  0.1000E-09  0.0000E+00  0.7181E+16
   -0.314993    1.77056  0.0000E+00  0.1970E-09  0.3744E-13  0.1000E-09  0.0000E+00  0.6465E+16
   -0.349993    1.95862  0.0000E+00  0.3581E-09  0.6681E-13  0.1000E-09  0.0000E+00  0.5781E+16
   -0.384994    2.14356  0.0000E+00  0.6504E-09  0.1191E-12  0.1045E-09  0.0000E+00  0.5148E+16
   -0.419995    2.32610  0.0000E+00  0.1173E-08  0.2110E-12  0.1359E-09  0.0000E+00  0.4729E+16
   -0.454996    2.51425  0.0000E+00  0.2104E-08  0.3715E-12  0.2241E-09  0.0000E+00  0.4390E+16
   -0.489997    2.71443  0.0000E+00  0.3756E-08  0.6515E-12  0.4262E-09  0.0000E+00  0.3977E+16
   -0.524998    2.92923  0.0000E+00  0.6985E-08  0.1189E-11  0.8957E-09  0.0000E+00  0.3426E+16
   -0.559999    3.16058  0.0000E+00  0.1359E-07  0.2271E-11  0.2126E-08  0.0000E+00  0.2782E+16
   -0.595000    3.42220  0.0000E+00  0.2781E-07  0.4569E-11  0.8934E-08  0.0000E+00  0.1786E+16
   -0.630001    3.72329  0.0000E+00  0.4076E-07  0.6674E-11  0.2676E-04  0.0000E+00  0.7321E+15
   -0.665003    3.93239  0.0000E+00  0.4748E-07  0.7775E-11  0.6804E-04  0.0000E+00  0.1594E+15
   -0.700004    4.02505  0.0000E+00  0.4882E-07  0.8018E-11  0.9627E-04  0.0000E+00  0.2171E+13
   -0.735006    4.03156  0.0000E+00  0.4940E-07  0.8148E-11  0.9922E-04  0.0000E+00 -0.4582E+12
   -0.770007    4.03221  0.0000E+00  0.4992E-07  0.8285E-11  0.9938E-04  0.0000E+00 -0.4656E+12
   -0.805008    4.03286  0.0000E+00  0.5041E-07  0.8435E-11  0.9951E-04  0.0000E+00 -0.4716E+12
   -0.840009    4.03351  0.0000E+00  0.5087E-07  0.8600E-11  0.9940E-04  0.0000E+00 -0.4791E+12
   -0.875011    4.03416  0.0000E+00  0.5128E-07  0.8781E-11  0.9899E-04  0.0000E+00 -0.4889E+12
   -0.910012    4.03482  0.0000E+00  0.5166E-07  0.8983E-11  0.9830E-04  0.0000E+00 -0.4983E+12
   -0.945013    4.03547  0.0000E+00  0.5200E-07  0.9206E-11  0.9731E-04  0.0000E+00 -0.5093E+12
   -0.980014    4.03613  0.0000E+00  0.5229E-07  0.9455E-11  0.9598E-04  0.0000E+00 -0.5224E+12
   -1.015014    4.03680  0.0000E+00  0.5254E-07  0.9739E-11  0.9426E-04  0.0000E+00 -0.5425E+12
   -1.050015    4.03749  0.0000E+00  0.5275E-07  0.1007E-10  0.9205E-04  0.0000E+00 -0.5682E+12
   -1.085015    4.03819  0.0000E+00  0.5291E-07  0.1048E-10  0.8938E-04  0.0000E+00 -0.5983E+12
   -1.120016    4.03893  0.0000E+00  0.5301E-07  0.1097E-10  0.8618E-04  0.0000E+00 -0.6293E+12
   -1.155016    4.03969  0.0000E+00  0.5305E-07  0.1157E-10  0.8242E-04  0.0000E+00 -0.6672E+12
   -1.190015    4.04048  0.0000E+00  0.5302E-07  0.1232E-10  0.7784E-04  0.0000E+00 -0.7212E+12
   -1.225015    4.04133  0.0000E+00  0.5289E-07  0.1339E-10  0.7193E-04  0.0000E+00 -0.8239E+12
   -1.260014    4.04228  0.0000E+00  0.5257E-07  0.1519E-10  0.6311E-04  0.0000E+00 -0.1039E+13
   -1.295013    4.04345  0.0000E+00  0.5168E-07  0.1948E-10  0.5060E-04  0.0000E+00 -0.1546E+13
   -1.330012    4.04516  0.0000E+00  0.4916E-07  0.3088E-10  0.2001E-04  0.0000E+00 -0.3956E+13
   -1.365010    4.04933  0.0000E+00  0.3532E-07  0.1067E-09  0.1880E-05  0.0000E+00 -0.4930E+14
   -1.400008    4.08772  0.0000E+00  0.0000E+00  0.0000E+00  0.0000E+00  0.0000E+00  0.0000E+00
