 1 - depth, m
 2 - temperature, C
 3 - salinity, kg/kg
 4 - turbulent kinetic energy, m**2/s**2
 5 - dissipation rate, m**2/s**3
 6 - kinematic heat conductance, m**2/s
 7 - modulus of horizontal velocity, m/s
 8 - Richardson number, n/d
   -0.000000    0.00000  0.0000E+00  0.4702E-13  0.1132E-15  0.1000E-09  0.0000E+00  0.1347E+17
   -0.034998    0.20792  0.0000E+00  0.1325E-12  0.1132E-15  0.1000E-09  0.0000E+00  0.1275E+17
   -0.069996    0.41662  0.0000E+00  0.4073E-12  0.1134E-15  0.1000E-09  0.0000E+00  0.1201E+17
   -0.104994    0.62572  0.0000E+00  0.8749E-12  0.1629E-15  0.1000E-09  0.0000E+00  0.1115E+17
   -0.139993    0.83297  0.0000E+00  0.1621E-11  0.2600E-15  0.1000E-09  0.0000E+00  0.1024E+17
   -0.174992    1.03692  0.0000E+00  0.2813E-11  0.4234E-15  0.1000E-09  0.0000E+00  0.9363E+16
   -0.209992    1.23724  0.0000E+00  0.4731E-11  0.6883E-15  0.1000E-09  0.0000E+00  0.8511E+16
   -0.244991    1.43360  0.0000E+00  0.7826E-11  0.1113E-14  0.1000E-09  0.0000E+00  0.7693E+16
   -0.279991    1.62573  0.0000E+00  0.1283E-10  0.1791E-14  0.1000E-09  0.0000E+00  0.6911E+16
   -0.314991    1.81340  0.0000E+00  0.2102E-10  0.2884E-14  0.1000E-09  0.0000E+00  0.6199E+16
   -0.349991    1.99732  0.0000E+00  0.3455E-10  0.4662E-14  0.1000E-09  0.0000E+00  0.5519E+16
   -0.384991    2.17729  0.0000E+00  0.5681E-10  0.7542E-14  0.1000E-09  0.0000E+00  0.4870E+16
   -0.419992    2.35300  0.0000E+00  0.9301E-10  0.1215E-13  0.1000E-09  0.0000E+00  0.4262E+16
   -0.454992    2.52450  0.0000E+00  0.1516E-09  0.1949E-13  0.1000E-09  0.0000E+00  0.3703E+16
   -0.489993    2.69234  0.0000E+00  0.2463E-09  0.3118E-13  0.1000E-09  0.0000E+00  0.3194E+16
   -0.524994    2.85745  0.0000E+00  0.4156E-09  0.5176E-13  0.1000E-09  0.0000E+00  0.2790E+16
   -0.559995    3.02506  0.0000E+00  0.7347E-09  0.9000E-13  0.1012E-09  0.0000E+00  0.2412E+16
   -0.594996    3.19870  0.0000E+00  0.1378E-08  0.1660E-12  0.2168E-09  0.0000E+00  0.1986E+16
   -0.629997    3.37834  0.0000E+00  0.2370E-08  0.2816E-12  0.5123E-09  0.0000E+00  0.1426E+16
   -0.664998    3.55153  0.0000E+00  0.3879E-08  0.4547E-12  0.1283E-08  0.0000E+00  0.9202E+15
   -0.699999    3.71756  0.0000E+00  0.6217E-08  0.7187E-12  0.3988E-08  0.0000E+00  0.4692E+15
   -0.735001    3.87438  0.0000E+00  0.9786E-08  0.1117E-11  0.3072E-07  0.0000E+00  0.9626E+14
   -0.770002    4.00340  0.0000E+00  0.1030E-07  0.1179E-11  0.3529E-04  0.0000E+00 -0.1717E+12
   -0.805003    4.00403  0.0000E+00  0.1056E-07  0.1215E-11  0.3489E-04  0.0000E+00 -0.1820E+12
   -0.840004    4.00467  0.0000E+00  0.1082E-07  0.1255E-11  0.3530E-04  0.0000E+00 -0.1884E+12
   -0.875005    4.00532  0.0000E+00  0.1105E-07  0.1299E-11  0.3562E-04  0.0000E+00 -0.1960E+12
   -0.910006    4.00597  0.0000E+00  0.1128E-07  0.1347E-11  0.3574E-04  0.0000E+00 -0.2027E+12
   -0.945006    4.00662  0.0000E+00  0.1150E-07  0.1400E-11  0.3569E-04  0.0000E+00 -0.2100E+12
   -0.980007    4.00727  0.0000E+00  0.1169E-07  0.1459E-11  0.3545E-04  0.0000E+00 -0.2187E+12
   -1.015008    4.00793  0.0000E+00  0.1188E-07  0.1526E-11  0.3506E-04  0.0000E+00 -0.2330E+12
   -1.050008    4.00860  0.0000E+00  0.1205E-07  0.1604E-11  0.3444E-04  0.0000E+00 -0.2517E+12
   -1.085008    4.00931  0.0000E+00  0.1221E-07  0.1698E-11  0.3360E-04  0.0000E+00 -0.2746E+12
   -1.120008    4.01007  0.0000E+00  0.1236E-07  0.1810E-11  0.3236E-04  0.0000E+00 -0.2959E+12
   -1.155008    4.01085  0.0000E+00  0.1249E-07  0.1946E-11  0.3083E-04  0.0000E+00 -0.3230E+12
   -1.190007    4.01168  0.0000E+00  0.1259E-07  0.2117E-11  0.2892E-04  0.0000E+00 -0.3644E+12
   -1.225007    4.01258  0.0000E+00  0.1268E-07  0.2361E-11  0.2664E-04  0.0000E+00 -0.4575E+12
   -1.260006    4.01367  0.0000E+00  0.1273E-07  0.2768E-11  0.2346E-04  0.0000E+00 -0.6695E+12
   -1.295004    4.01519  0.0000E+00  0.1264E-07  0.3781E-11  0.1800E-04  0.0000E+00 -0.1254E+13
   -1.330003    4.01785  0.0000E+00  0.1194E-07  0.6433E-11  0.6577E-05  0.0000E+00 -0.3659E+13
   -1.365001    4.02455  0.0000E+00  0.8698E-08  0.1820E-10  0.8169E-06  0.0000E+00 -0.3653E+14
   -1.399999    4.06460  0.0000E+00  0.0000E+00  0.0000E+00  0.0000E+00  0.0000E+00  0.0000E+00
