 1 - depth, m
 2 - temperature, C
 3 - salinity, kg/kg
 4 - turbulent kinetic energy, m**2/s**2
 5 - dissipation rate, m**2/s**3
 6 - kinematic heat conductance, m**2/s
 7 - modulus of horizontal velocity, m/s
 8 - Richardson number, n/d
   -0.000000   12.84635  0.0000E+00  0.6808E-04  0.2673E-04  0.3869E-04  0.5934E-01 -0.1221E-01
   -0.034998   12.90174  0.0000E+00  0.4168E-04  0.8021E-05  0.6249E-04  0.2271E-01 -0.5094E-01
   -0.069997   12.91564  0.0000E+00  0.3200E-04  0.3600E-05  0.7842E-04  0.1626E-01 -0.6560E-01
   -0.104995   12.92452  0.0000E+00  0.2631E-04  0.1761E-05  0.9579E-04  0.1304E-01  0.9224E-01
   -0.139994   12.93098  0.0000E+00  0.2243E-04  0.1016E-05  0.1229E-03  0.1073E-01  0.9696E+01
   -0.174994   12.93600  0.0000E+00  0.1961E-04  0.6378E-06  0.1486E-03  0.8943E-02  0.1260E+02
   -0.209993   12.94011  0.0000E+00  0.1747E-04  0.4272E-06  0.1757E-03  0.7492E-02  0.5435E+01
   -0.244993   12.94355  0.0000E+00  0.1580E-04  0.3030E-06  0.2177E-03  0.6274E-02  0.1818E+03
   -0.279993   12.94636  0.0000E+00  0.1443E-04  0.2247E-06  0.2559E-03  0.5233E-02  0.1948E+03
   -0.314993   12.94873  0.0000E+00  0.1321E-04  0.1714E-06  0.2901E-03  0.4302E-02  0.6925E+01
   -0.349994   12.95075  0.0000E+00  0.1217E-04  0.1340E-06  0.3253E-03  0.3552E-02  0.9889E+01
   -0.384994   12.95246  0.0000E+00  0.1130E-04  0.1073E-06  0.3594E-03  0.2936E-02  0.3098E+02
   -0.419995   12.95395  0.0000E+00  0.1058E-04  0.8803E-07  0.3848E-03  0.2421E-02  0.3822E+02
   -0.454996   12.95526  0.0000E+00  0.9973E-05  0.7379E-07  0.4059E-03  0.1962E-02  0.1656E+02
   -0.489997   12.95645  0.0000E+00  0.9450E-05  0.6315E-07  0.4247E-03  0.1546E-02  0.8044E+02
   -0.524998   12.95754  0.0000E+00  0.8954E-05  0.5442E-07  0.4644E-03  0.1175E-02  0.7942E+01
   -0.560000   12.95853  0.0000E+00  0.8470E-05  0.4684E-07  0.5268E-03  0.8979E-03  0.1698E+01
   -0.595001   12.95941  0.0000E+00  0.7982E-05  0.3980E-07  0.5861E-03  0.7175E-03  0.1417E+01
   -0.630002   12.96022  0.0000E+00  0.7599E-05  0.3457E-07  0.6002E-03  0.6205E-03  0.8604E+00
   -0.665004   12.96098  0.0000E+00  0.7288E-05  0.3060E-07  0.6088E-03  0.5431E-03  0.8509E+00
   -0.700005   12.96172  0.0000E+00  0.7023E-05  0.2744E-07  0.6179E-03  0.4729E-03  0.8676E+00
   -0.735006   12.96244  0.0000E+00  0.6795E-05  0.2492E-07  0.6253E-03  0.4108E-03  0.8919E+00
   -0.770008   12.96314  0.0000E+00  0.6597E-05  0.2292E-07  0.6304E-03  0.3572E-03  0.9144E+00
   -0.805009   12.96382  0.0000E+00  0.6423E-05  0.2132E-07  0.6330E-03  0.3112E-03  0.9633E+00
   -0.840011   12.96449  0.0000E+00  0.6269E-05  0.2008E-07  0.6327E-03  0.2721E-03  0.1017E+01
   -0.875012   12.96515  0.0000E+00  0.6132E-05  0.1912E-07  0.6297E-03  0.2387E-03  0.1106E+01
   -0.910013   12.96579  0.0000E+00  0.6006E-05  0.1839E-07  0.6235E-03  0.2104E-03  0.1242E+01
   -0.945014   12.96644  0.0000E+00  0.5889E-05  0.1788E-07  0.6137E-03  0.1856E-03  0.1434E+01
   -0.980015   12.96708  0.0000E+00  0.5779E-05  0.1756E-07  0.5999E-03  0.1637E-03  0.1674E+01
   -1.015016   12.96773  0.0000E+00  0.5671E-05  0.1743E-07  0.5823E-03  0.1439E-03  0.2046E+01
   -1.050016   12.96838  0.0000E+00  0.5561E-05  0.1750E-07  0.5577E-03  0.1264E-03  0.2681E+01
   -1.085017   12.96906  0.0000E+00  0.5443E-05  0.1782E-07  0.5337E-03  0.1108E-03  0.3719E+01
   -1.120017   12.96976  0.0000E+00  0.5315E-05  0.1851E-07  0.4925E-03  0.9702E-04  0.5606E+01
   -1.155017   12.97053  0.0000E+00  0.5174E-05  0.1973E-07  0.4711E-03  0.8359E-04  0.1034E+02
   -1.190017   12.97132  0.0000E+00  0.5007E-05  0.2211E-07  0.4080E-03  0.7105E-04 -0.7506E+02
   -1.225017   12.97244  0.0000E+00  0.4787E-05  0.2648E-07  0.3932E-03  0.5703E-04 -0.1913E+04
   -1.260016   12.97354  0.0000E+00  0.4449E-05  0.3673E-07  0.2964E-03  0.4532E-04 -0.3102E+05
   -1.295015   12.97679  0.0000E+00  0.3834E-05  0.6333E-07  0.2760E-03  0.3172E-04  0.6746E+05
   -1.330014   12.97667  0.0000E+00  0.3033E-05  0.1359E-06  0.1243E-03  0.2690E-04 -0.4051E+05
   -1.365012   12.98960  0.0000E+00  0.1998E-05  0.3242E-06  0.7844E-04  0.1623E-04 -0.2175E+06
   -1.400010   12.99255  0.0000E+00  0.0000E+00  0.0000E+00  0.0000E+00  0.2499E-04  0.0000E+00
