 1 - depth, m
 2 - temperature, C
 3 - salinity, kg/kg
 4 - turbulent kinetic energy, m**2/s**2
 5 - dissipation rate, m**2/s**3
 6 - kinematic heat conductance, m**2/s
 7 - modulus of horizontal velocity, m/s
 8 - Richardson number, n/d
   -0.000000    0.00000  0.0000E+00  0.4702E-13  0.1132E-15  0.1000E-09  0.0000E+00  0.4661E+16
   -0.034998    0.07059  0.0000E+00  0.4702E-13  0.1132E-15  0.1000E-09  0.0000E+00  0.4640E+16
   -0.069996    0.14224  0.0000E+00  0.4702E-13  0.1132E-15  0.1000E-09  0.0000E+00  0.4623E+16
   -0.104995    0.21507  0.0000E+00  0.4702E-13  0.1132E-15  0.1000E-09  0.0000E+00  0.4566E+16
   -0.139994    0.28850  0.0000E+00  0.4702E-13  0.1132E-15  0.1000E-09  0.0000E+00  0.4485E+16
   -0.174993    0.36216  0.0000E+00  0.4702E-13  0.1132E-15  0.1000E-09  0.0000E+00  0.4400E+16
   -0.209992    0.43601  0.0000E+00  0.4702E-13  0.1132E-15  0.1000E-09  0.0000E+00  0.4311E+16
   -0.244992    0.50998  0.0000E+00  0.4702E-13  0.1132E-15  0.1000E-09  0.0000E+00  0.4218E+16
   -0.279992    0.58401  0.0000E+00  0.4702E-13  0.1132E-15  0.1000E-09  0.0000E+00  0.4122E+16
   -0.314992    0.65803  0.0000E+00  0.4702E-13  0.1132E-15  0.1000E-09  0.0000E+00  0.4070E+16
   -0.349992    0.73286  0.0000E+00  0.4702E-13  0.1132E-15  0.1000E-09  0.0000E+00  0.4020E+16
   -0.384993    0.80860  0.0000E+00  0.4702E-13  0.1132E-15  0.1000E-09  0.0000E+00  0.3968E+16
   -0.419994    0.88528  0.0000E+00  0.4702E-13  0.1132E-15  0.1000E-09  0.0000E+00  0.3895E+16
   -0.454994    0.96254  0.0000E+00  0.4702E-13  0.1132E-15  0.1000E-09  0.0000E+00  0.3823E+16
   -0.489995    1.04045  0.0000E+00  0.4702E-13  0.1132E-15  0.1000E-09  0.0000E+00  0.3801E+16
   -0.524996    1.12012  0.0000E+00  0.4702E-13  0.1132E-15  0.1000E-09  0.0000E+00  0.4038E+16
   -0.559997    1.20737  0.0000E+00  0.4702E-13  0.1132E-15  0.1000E-09  0.0000E+00  0.4482E+16
   -0.594999    1.30770  0.0000E+00  0.4702E-13  0.1132E-15  0.1000E-09  0.0000E+00  0.4934E+16
   -0.630000    1.42289  0.0000E+00  0.4702E-13  0.1132E-15  0.1000E-09  0.0000E+00  0.4689E+16
   -0.665001    1.53759  0.0000E+00  0.4702E-13  0.1132E-15  0.1000E-09  0.0000E+00  0.4446E+16
   -0.700002    1.65177  0.0000E+00  0.4702E-13  0.1132E-15  0.1000E-09  0.0000E+00  0.4214E+16
   -0.735004    1.76563  0.0000E+00  0.4702E-13  0.1132E-15  0.1000E-09  0.0000E+00  0.4008E+16
   -0.770005    1.87983  0.0000E+00  0.4702E-13  0.1132E-15  0.1000E-09  0.0000E+00  0.3832E+16
   -0.805006    1.99537  0.0000E+00  0.4702E-13  0.1132E-15  0.1000E-09  0.0000E+00  0.3639E+16
   -0.840007    2.11188  0.0000E+00  0.4702E-13  0.1132E-15  0.1000E-09  0.0000E+00  0.3435E+16
   -0.875009    2.22919  0.0000E+00  0.4702E-13  0.1132E-15  0.1000E-09  0.0000E+00  0.3230E+16
   -0.910010    2.34739  0.0000E+00  0.4702E-13  0.1132E-15  0.1000E-09  0.0000E+00  0.2985E+16
   -0.945010    2.46499  0.0000E+00  0.4702E-13  0.1132E-15  0.1000E-09  0.0000E+00  0.2731E+16
   -0.980011    2.58139  0.0000E+00  0.4702E-13  0.1132E-15  0.1000E-09  0.0000E+00  0.2479E+16
   -1.015012    2.69633  0.0000E+00  0.4702E-13  0.1132E-15  0.1000E-09  0.0000E+00  0.2271E+16
   -1.050012    2.81170  0.0000E+00  0.4702E-13  0.1132E-15  0.1000E-09  0.0000E+00  0.2078E+16
   -1.085013    2.92846  0.0000E+00  0.7761E-13  0.1375E-15  0.1000E-09  0.0000E+00  0.1942E+16
   -1.120013    3.05087  0.0000E+00  0.3490E-12  0.5666E-15  0.1000E-09  0.0000E+00  0.1716E+16
   -1.155013    3.17453  0.0000E+00  0.1635E-11  0.2566E-14  0.1000E-09  0.0000E+00  0.1488E+16
   -1.190012    3.29983  0.0000E+00  0.7596E-11  0.1158E-13  0.1000E-09  0.0000E+00  0.1280E+16
   -1.225012    3.43005  0.0000E+00  0.3689E-10  0.5474E-13  0.1175E-09  0.0000E+00  0.1156E+16
   -1.260011    3.58260  0.0000E+00  0.1889E-09  0.2730E-12  0.6990E-09  0.0000E+00  0.9639E+15
   -1.295010    3.78502  0.0000E+00  0.1110E-08  0.1568E-11  0.1225E-07  0.0000E+00  0.2873E+15
   -1.330009    4.04893  0.0000E+00  0.4462E-08  0.6429E-11  0.1261E-05  0.0000E+00 -0.3114E+14
   -1.365007    4.07520  0.0000E+00  0.4546E-08  0.1165E-10  0.5038E-06  0.0000E+00 -0.8102E+14
   -1.400005    4.12145  0.0000E+00  0.0000E+00  0.0000E+00  0.0000E+00  0.0000E+00  0.0000E+00
