 1 - depth, m
 2 - temperature, C
 3 - salinity, kg/kg
 4 - turbulent kinetic energy, m**2/s**2
 5 - dissipation rate, m**2/s**3
 6 - kinematic heat conductance, m**2/s
 7 - modulus of horizontal velocity, m/s
 8 - Richardson number, n/d
   -0.000000    0.00000  0.0000E+00  0.1171E-09  0.1050E-12  0.1000E-09  0.0000E+00  0.2770E+17
   -0.034998    0.44147  0.0000E+00  0.2903E-09  0.7963E-13  0.1000E-09  0.0000E+00  0.2448E+17
   -0.069996    0.88720  0.0000E+00  0.5986E-09  0.8717E-13  0.1000E-09  0.0000E+00  0.2098E+17
   -0.104995    1.33184  0.0000E+00  0.1057E-08  0.1144E-12  0.1000E-09  0.0000E+00  0.1724E+17
   -0.139994    1.76643  0.0000E+00  0.1714E-08  0.1614E-12  0.1000E-09  0.0000E+00  0.1354E+17
   -0.174993    2.18311  0.0000E+00  0.2652E-08  0.2331E-12  0.1000E-09  0.0000E+00  0.1014E+17
   -0.209992    2.57614  0.0000E+00  0.3995E-08  0.3385E-12  0.1290E-09  0.0000E+00  0.7145E+16
   -0.244992    2.94087  0.0000E+00  0.5928E-08  0.4913E-12  0.2792E-09  0.0000E+00  0.4651E+16
   -0.279992    3.27425  0.0000E+00  0.8717E-08  0.7121E-12  0.7210E-09  0.0000E+00  0.2674E+16
   -0.314992    3.57523  0.0000E+00  0.1280E-07  0.1034E-11  0.2837E-08  0.0000E+00  0.1169E+16
   -0.349993    3.84046  0.0000E+00  0.1721E-07  0.1393E-11  0.1606E-04  0.0000E+00  0.2393E+15
   -0.384993    3.99968  0.0000E+00  0.1753E-07  0.1421E-11  0.7282E-04  0.0000E+00 -0.9169E+11
   -0.419994    4.00016  0.0000E+00  0.1771E-07  0.1439E-11  0.7226E-04  0.0000E+00 -0.9438E+11
   -0.454995    4.00061  0.0000E+00  0.1789E-07  0.1459E-11  0.7321E-04  0.0000E+00 -0.9698E+11
   -0.489995    4.00106  0.0000E+00  0.1807E-07  0.1481E-11  0.7398E-04  0.0000E+00 -0.1008E+12
   -0.524997    4.00150  0.0000E+00  0.1827E-07  0.1507E-11  0.7473E-04  0.0000E+00 -0.1082E+12
   -0.559998    4.00196  0.0000E+00  0.1851E-07  0.1543E-11  0.7508E-04  0.0000E+00 -0.1217E+12
   -0.594999    4.00245  0.0000E+00  0.1884E-07  0.1594E-11  0.7503E-04  0.0000E+00 -0.1370E+12
   -0.630000    4.00299  0.0000E+00  0.1917E-07  0.1651E-11  0.7510E-04  0.0000E+00 -0.1427E+12
   -0.665001    4.00354  0.0000E+00  0.1950E-07  0.1711E-11  0.7498E-04  0.0000E+00 -0.1486E+12
   -0.700003    4.00409  0.0000E+00  0.1982E-07  0.1773E-11  0.7471E-04  0.0000E+00 -0.1557E+12
   -0.735004    4.00465  0.0000E+00  0.2014E-07  0.1840E-11  0.7431E-04  0.0000E+00 -0.1634E+12
   -0.770005    4.00522  0.0000E+00  0.2044E-07  0.1911E-11  0.7376E-04  0.0000E+00 -0.1716E+12
   -0.805006    4.00580  0.0000E+00  0.2074E-07  0.1988E-11  0.7308E-04  0.0000E+00 -0.1804E+12
   -0.840008    4.00639  0.0000E+00  0.2104E-07  0.2071E-11  0.7224E-04  0.0000E+00 -0.1902E+12
   -0.875009    4.00699  0.0000E+00  0.2132E-07  0.2161E-11  0.7123E-04  0.0000E+00 -0.2014E+12
   -0.910010    4.00761  0.0000E+00  0.2159E-07  0.2259E-11  0.7004E-04  0.0000E+00 -0.2128E+12
   -0.945011    4.00824  0.0000E+00  0.2185E-07  0.2365E-11  0.6870E-04  0.0000E+00 -0.2252E+12
   -0.980012    4.00890  0.0000E+00  0.2209E-07  0.2482E-11  0.6713E-04  0.0000E+00 -0.2396E+12
   -1.015012    4.00957  0.0000E+00  0.2231E-07  0.2612E-11  0.6533E-04  0.0000E+00 -0.2591E+12
   -1.050013    4.01028  0.0000E+00  0.2252E-07  0.2763E-11  0.6320E-04  0.0000E+00 -0.2833E+12
   -1.085013    4.01103  0.0000E+00  0.2271E-07  0.2941E-11  0.6080E-04  0.0000E+00 -0.3091E+12
   -1.120013    4.01182  0.0000E+00  0.2288E-07  0.3152E-11  0.5802E-04  0.0000E+00 -0.3364E+12
   -1.155013    4.01265  0.0000E+00  0.2301E-07  0.3406E-11  0.5490E-04  0.0000E+00 -0.3695E+12
   -1.190013    4.01354  0.0000E+00  0.2311E-07  0.3720E-11  0.5120E-04  0.0000E+00 -0.4163E+12
   -1.225012    4.01451  0.0000E+00  0.2317E-07  0.4163E-11  0.4665E-04  0.0000E+00 -0.5040E+12
   -1.260011    4.01563  0.0000E+00  0.2315E-07  0.4905E-11  0.4015E-04  0.0000E+00 -0.6930E+12
   -1.295010    4.01711  0.0000E+00  0.2291E-07  0.6692E-11  0.3079E-04  0.0000E+00 -0.1175E+13
   -1.330009    4.01948  0.0000E+00  0.2191E-07  0.1149E-10  0.1201E-04  0.0000E+00 -0.3288E+13
   -1.365007    4.02536  0.0000E+00  0.1656E-07  0.3831E-10  0.1351E-05  0.0000E+00 -0.4148E+14
   -1.400005    4.06895  0.0000E+00  0.0000E+00  0.0000E+00  0.0000E+00  0.0000E+00  0.0000E+00
