 1 - depth, m
 2 - temperature, C
 3 - salinity, kg/kg
 4 - turbulent kinetic energy, m**2/s**2
 5 - dissipation rate, m**2/s**3
 6 - kinematic heat conductance, m**2/s
 7 - modulus of horizontal velocity, m/s
 8 - Richardson number, n/d
   -0.000000    0.00000  0.0000E+00  0.4702E-13  0.1132E-15  0.1000E-09  0.0000E+00  0.1128E+17
   -0.034998    0.17318  0.0000E+00  0.4702E-13  0.1132E-15  0.1000E-09  0.0000E+00  0.1080E+17
   -0.069996    0.34726  0.0000E+00  0.4702E-13  0.1132E-15  0.1000E-09  0.0000E+00  0.1033E+17
   -0.104994    0.52242  0.0000E+00  0.4702E-13  0.1132E-15  0.1000E-09  0.0000E+00  0.9722E+16
   -0.139992    0.69638  0.0000E+00  0.4702E-13  0.1132E-15  0.1000E-09  0.0000E+00  0.9066E+16
   -0.174991    0.86783  0.0000E+00  0.7319E-13  0.1132E-15  0.1000E-09  0.0000E+00  0.8433E+16
   -0.209990    1.03675  0.0000E+00  0.2883E-12  0.1132E-15  0.1000E-09  0.0000E+00  0.7825E+16
   -0.244990    1.20311  0.0000E+00  0.6963E-12  0.1482E-15  0.1000E-09  0.0000E+00  0.7240E+16
   -0.279989    1.36688  0.0000E+00  0.1360E-11  0.2333E-15  0.1000E-09  0.0000E+00  0.6677E+16
   -0.314989    1.52803  0.0000E+00  0.2444E-11  0.3845E-15  0.1000E-09  0.0000E+00  0.6125E+16
   -0.349989    1.68620  0.0000E+00  0.4245E-11  0.6408E-15  0.1000E-09  0.0000E+00  0.5590E+16
   -0.384989    1.84112  0.0000E+00  0.7253E-11  0.1067E-14  0.1000E-09  0.0000E+00  0.5073E+16
   -0.419990    1.99250  0.0000E+00  0.1224E-10  0.1767E-14  0.1000E-09  0.0000E+00  0.4628E+16
   -0.454990    2.14177  0.0000E+00  0.2051E-10  0.2909E-14  0.1000E-09  0.0000E+00  0.4243E+16
   -0.489991    2.29050  0.0000E+00  0.3419E-10  0.4773E-14  0.1000E-09  0.0000E+00  0.3892E+16
   -0.524992    2.43985  0.0000E+00  0.5926E-10  0.8136E-14  0.1000E-09  0.0000E+00  0.3671E+16
   -0.559992    2.59573  0.0000E+00  0.1076E-09  0.1453E-13  0.1000E-09  0.0000E+00  0.3501E+16
   -0.594993    2.76323  0.0000E+00  0.2072E-09  0.2753E-13  0.1000E-09  0.0000E+00  0.3260E+16
   -0.629994    2.94363  0.0000E+00  0.3648E-09  0.4779E-13  0.1000E-09  0.0000E+00  0.2702E+16
   -0.664995    3.12179  0.0000E+00  0.6114E-09  0.7899E-13  0.1005E-09  0.0000E+00  0.2166E+16
   -0.699996    3.29763  0.0000E+00  0.1005E-08  0.1281E-12  0.2009E-09  0.0000E+00  0.1652E+16
   -0.734997    3.47115  0.0000E+00  0.1644E-08  0.2064E-12  0.4583E-09  0.0000E+00  0.1167E+16
   -0.769998    3.64368  0.0000E+00  0.2680E-08  0.3317E-12  0.1229E-08  0.0000E+00  0.6998E+15
   -0.804999    3.81772  0.0000E+00  0.4353E-08  0.5310E-12  0.6177E-08  0.0000E+00  0.2230E+15
   -0.840000    3.98805  0.0000E+00  0.5126E-08  0.6288E-12  0.8885E-05  0.0000E+00 -0.1377E+12
   -0.875001    3.99093  0.0000E+00  0.5585E-08  0.6978E-12  0.1222E-04  0.0000E+00 -0.1867E+12
   -0.910001    3.99304  0.0000E+00  0.6023E-08  0.7728E-12  0.1452E-04  0.0000E+00 -0.2148E+12
   -0.945002    3.99484  0.0000E+00  0.6442E-08  0.8540E-12  0.1625E-04  0.0000E+00 -0.2380E+12
   -0.980002    3.99647  0.0000E+00  0.6841E-08  0.9421E-12  0.1779E-04  0.0000E+00 -0.2573E+12
   -1.015003    3.99798  0.0000E+00  0.7218E-08  0.1038E-11  0.1952E-04  0.0000E+00 -0.2750E+12
   -1.050003    3.99939  0.0000E+00  0.7571E-08  0.1144E-11  0.2047E-04  0.0000E+00 -0.3031E+12
   -1.085003    4.00080  0.0000E+00  0.7897E-08  0.1261E-11  0.2028E-04  0.0000E+00 -0.3470E+12
   -1.120003    4.00225  0.0000E+00  0.8202E-08  0.1395E-11  0.1980E-04  0.0000E+00 -0.3922E+12
   -1.155002    4.00375  0.0000E+00  0.8501E-08  0.1565E-11  0.1890E-04  0.0000E+00 -0.4519E+12
   -1.190002    4.00533  0.0000E+00  0.8792E-08  0.1788E-11  0.1703E-04  0.0000E+00 -0.5595E+12
   -1.225001    4.00713  0.0000E+00  0.9079E-08  0.2110E-11  0.1526E-04  0.0000E+00 -0.7545E+12
   -1.260000    4.00932  0.0000E+00  0.9354E-08  0.2639E-11  0.1338E-04  0.0000E+00 -0.1155E+13
   -1.294998    4.01233  0.0000E+00  0.9543E-08  0.3871E-11  0.9538E-05  0.0000E+00 -0.2444E+13
   -1.329996    4.01776  0.0000E+00  0.9148E-08  0.6582E-11  0.4042E-05  0.0000E+00 -0.6845E+13
   -1.364994    4.02948  0.0000E+00  0.7085E-08  0.1583E-10  0.7272E-06  0.0000E+00 -0.5083E+14
   -1.399992    4.07774  0.0000E+00  0.0000E+00  0.0000E+00  0.0000E+00  0.0000E+00  0.0000E+00
