 1 - depth, m
 2 - temperature, C
 3 - salinity, kg/kg
 4 - turbulent kinetic energy, m**2/s**2
 5 - dissipation rate, m**2/s**3
 6 - kinematic heat conductance, m**2/s
 7 - modulus of horizontal velocity, m/s
 8 - Richardson number, n/d
   -0.000000    0.00000  0.0000E+00  0.2001E-07  0.6799E-10  0.2314E-08  0.0000E+00  0.7586E+17
   -0.034999    1.39444  0.0000E+00  0.1269E-06  0.4932E-10  0.2997E-08  0.0000E+00  0.4270E+17
   -0.069997    2.78798  0.0000E+00  0.3188E-06  0.5850E-10  0.1357E-07  0.0000E+00  0.1131E+17
   -0.104997    4.09018  0.0000E+00  0.3206E-06  0.5867E-10  0.5506E-03  0.0000E+00 -0.6435E+12
   -0.139996    4.09054  0.0000E+00  0.3214E-06  0.5876E-10  0.5432E-03  0.0000E+00 -0.5802E+12
   -0.174996    4.09090  0.0000E+00  0.3222E-06  0.5886E-10  0.5449E-03  0.0000E+00 -0.5672E+12
   -0.209996    4.09125  0.0000E+00  0.3228E-06  0.5896E-10  0.5507E-03  0.0000E+00 -0.4876E+12
   -0.244996    4.09160  0.0000E+00  0.3234E-06  0.5908E-10  0.5586E-03  0.0000E+00 -0.6004E+12
   -0.279996    4.09192  0.0000E+00  0.3239E-06  0.5920E-10  0.5545E-03  0.0000E+00 -0.4743E+12
   -0.314997    4.09225  0.0000E+00  0.3244E-06  0.5933E-10  0.5581E-03  0.0000E+00 -0.5852E+12
   -0.349998    4.09257  0.0000E+00  0.3248E-06  0.5949E-10  0.5487E-03  0.0000E+00 -0.5295E+12
   -0.384999    4.09289  0.0000E+00  0.3252E-06  0.5966E-10  0.5483E-03  0.0000E+00 -0.5245E+12
   -0.420000    4.09321  0.0000E+00  0.3255E-06  0.5986E-10  0.5477E-03  0.0000E+00 -0.5192E+12
   -0.455002    4.09352  0.0000E+00  0.3258E-06  0.6009E-10  0.5468E-03  0.0000E+00 -0.5131E+12
   -0.490003    4.09383  0.0000E+00  0.3260E-06  0.6034E-10  0.5454E-03  0.0000E+00 -0.5150E+12
   -0.525005    4.09414  0.0000E+00  0.3262E-06  0.6065E-10  0.5433E-03  0.0000E+00 -0.5165E+12
   -0.560006    4.09445  0.0000E+00  0.3264E-06  0.6108E-10  0.5398E-03  0.0000E+00 -0.5403E+12
   -0.595008    4.09476  0.0000E+00  0.3267E-06  0.6173E-10  0.5350E-03  0.0000E+00 -0.5373E+12
   -0.630010    4.09508  0.0000E+00  0.3269E-06  0.6248E-10  0.5298E-03  0.0000E+00 -0.5474E+12
   -0.665012    4.09541  0.0000E+00  0.3270E-06  0.6328E-10  0.5238E-03  0.0000E+00 -0.5490E+12
   -0.700014    4.09573  0.0000E+00  0.3271E-06  0.6414E-10  0.5438E-03  0.0000E+00 -0.4753E+12
   -0.735015    4.09604  0.0000E+00  0.3271E-06  0.6508E-10  0.5008E-03  0.0000E+00 -0.6227E+12
   -0.770017    4.09638  0.0000E+00  0.3271E-06  0.6611E-10  0.5316E-03  0.0000E+00 -0.4871E+12
   -0.805019    4.09669  0.0000E+00  0.3270E-06  0.6727E-10  0.4815E-03  0.0000E+00 -0.6411E+12
   -0.840021    4.09704  0.0000E+00  0.3269E-06  0.6859E-10  0.4833E-03  0.0000E+00 -0.5886E+12
   -0.875022    4.09738  0.0000E+00  0.3267E-06  0.7010E-10  0.4738E-03  0.0000E+00 -0.5965E+12
   -0.910024    4.09772  0.0000E+00  0.3264E-06  0.7180E-10  0.4621E-03  0.0000E+00 -0.6077E+12
   -0.945025    4.09808  0.0000E+00  0.3261E-06  0.7368E-10  0.4878E-03  0.0000E+00 -0.5276E+12
   -0.980027    4.09841  0.0000E+00  0.3257E-06  0.7579E-10  0.4194E-03  0.0000E+00 -0.7121E+12
   -1.015028    4.09879  0.0000E+00  0.3252E-06  0.7825E-10  0.4210E-03  0.0000E+00 -0.6664E+12
   -1.050029    4.09917  0.0000E+00  0.3247E-06  0.8125E-10  0.4067E-03  0.0000E+00 -0.6881E+12
   -1.085030    4.09956  0.0000E+00  0.3240E-06  0.8493E-10  0.3886E-03  0.0000E+00 -0.7191E+12
   -1.120031    4.09997  0.0000E+00  0.3232E-06  0.8941E-10  0.3685E-03  0.0000E+00 -0.7596E+12
   -1.155031    4.10040  0.0000E+00  0.3223E-06  0.9493E-10  0.3467E-03  0.0000E+00 -0.8022E+12
   -1.190031    4.10085  0.0000E+00  0.3212E-06  0.1019E-09  0.3224E-03  0.0000E+00 -0.8654E+12
   -1.225031    4.10134  0.0000E+00  0.3197E-06  0.1119E-09  0.2935E-03  0.0000E+00 -0.9518E+12
   -1.260031    4.10187  0.0000E+00  0.3176E-06  0.1289E-09  0.2514E-03  0.0000E+00 -0.1143E+13
   -1.295031    4.10250  0.0000E+00  0.3128E-06  0.1697E-09  0.2056E-03  0.0000E+00 -0.1481E+13
   -1.330030    4.10333  0.0000E+00  0.3014E-06  0.2798E-09  0.9454E-04  0.0000E+00 -0.3257E+13
   -1.365029    4.10512  0.0000E+00  0.2079E-06  0.1403E-08  0.4047E-05  0.0000E+00 -0.8516E+14
   -1.400027    4.14462  0.0000E+00  0.0000E+00  0.0000E+00  0.0000E+00  0.0000E+00  0.0000E+00
