 1 - depth, m
 2 - temperature, C
 3 - salinity, kg/kg
 4 - turbulent kinetic energy, m**2/s**2
 5 - dissipation rate, m**2/s**3
 6 - kinematic heat conductance, m**2/s
 7 - modulus of horizontal velocity, m/s
 8 - Richardson number, n/d
   -0.000000    7.43210  0.0000E+00  0.2224E-04  0.2185E-05  0.2172E-04  0.2906E-01 -0.5191E-02
   -0.034998    7.46428  0.0000E+00  0.1735E-04  0.7648E-06  0.4012E-04  0.1709E-01 -0.1451E-01
   -0.069996    7.47861  0.0000E+00  0.1465E-04  0.4015E-06  0.5532E-04  0.1268E-01 -0.2564E-01
   -0.104994    7.48883  0.0000E+00  0.1276E-04  0.2489E-06  0.6878E-04  0.9896E-02 -0.3939E-01
   -0.139993    7.49690  0.0000E+00  0.1132E-04  0.1696E-06  0.8139E-04  0.7908E-02 -0.5654E-01
   -0.174992    7.50357  0.0000E+00  0.1018E-04  0.1228E-06  0.9356E-04  0.6402E-02 -0.7754E-01
   -0.209992    7.50924  0.0000E+00  0.9246E-05  0.9305E-07  0.1053E-03  0.5217E-02 -0.1014E+00
   -0.244991    7.51417  0.0000E+00  0.8456E-05  0.7276E-07  0.1165E-03  0.4250E-02 -0.1254E+00
   -0.279991    7.51851  0.0000E+00  0.7755E-05  0.5805E-07  0.1297E-03  0.3436E-02 -0.1092E+00
   -0.314991    7.52233  0.0000E+00  0.7113E-05  0.4688E-07  0.1772E-03  0.2732E-02  0.4233E+03
   -0.349991    7.52526  0.0000E+00  0.6576E-05  0.3868E-07  0.2665E-03  0.2197E-02  0.1924E+03
   -0.384991    7.52727  0.0000E+00  0.6143E-05  0.3268E-07  0.3491E-03  0.1792E-02  0.1728E+04
   -0.419992    7.52864  0.0000E+00  0.5783E-05  0.2809E-07  0.3772E-03  0.1465E-02  0.1847E+01
   -0.454993    7.52987  0.0000E+00  0.5473E-05  0.2441E-07  0.3793E-03  0.1168E-02  0.1849E+01
   -0.489993    7.53106  0.0000E+00  0.5205E-05  0.2150E-07  0.3837E-03  0.8981E-03  0.1651E+01
   -0.524994    7.53222  0.0000E+00  0.4959E-05  0.1904E-07  0.4105E-03  0.6599E-03  0.1045E+01
   -0.559995    7.53331  0.0000E+00  0.4730E-05  0.1689E-07  0.4263E-03  0.4889E-03  0.7358E+00
   -0.594996    7.53438  0.0000E+00  0.4513E-05  0.1493E-07  0.4371E-03  0.3837E-03  0.5525E+00
   -0.629997    7.53545  0.0000E+00  0.4353E-05  0.1353E-07  0.4455E-03  0.3304E-03  0.6262E+00
   -0.664999    7.53649  0.0000E+00  0.4227E-05  0.1246E-07  0.4528E-03  0.2903E-03  0.6271E+00
   -0.700000    7.53750  0.0000E+00  0.4120E-05  0.1158E-07  0.4614E-03  0.2547E-03  0.6513E+00
   -0.735001    7.53848  0.0000E+00  0.4028E-05  0.1085E-07  0.4691E-03  0.2237E-03  0.6839E+00
   -0.770002    7.53943  0.0000E+00  0.3949E-05  0.1025E-07  0.4760E-03  0.1972E-03  0.7344E+00
   -0.805003    7.54035  0.0000E+00  0.3879E-05  0.9754E-08  0.4817E-03  0.1745E-03  0.8236E+00
   -0.840004    7.54125  0.0000E+00  0.3817E-05  0.9338E-08  0.4863E-03  0.1548E-03  0.9477E+00
   -0.875005    7.54214  0.0000E+00  0.3759E-05  0.8989E-08  0.4895E-03  0.1375E-03  0.1111E+01
   -0.910006    7.54301  0.0000E+00  0.3706E-05  0.8697E-08  0.4912E-03  0.1222E-03  0.1323E+01
   -0.945007    7.54386  0.0000E+00  0.3655E-05  0.8460E-08  0.4910E-03  0.1081E-03  0.1559E+01
   -0.980007    7.54470  0.0000E+00  0.3607E-05  0.8278E-08  0.4886E-03  0.9531E-04  0.1837E+01
   -1.015008    7.54554  0.0000E+00  0.3560E-05  0.8148E-08  0.4835E-03  0.8346E-04  0.2207E+01
   -1.050008    7.54637  0.0000E+00  0.3512E-05  0.8074E-08  0.4754E-03  0.7277E-04  0.2810E+01
   -1.085008    7.54721  0.0000E+00  0.3464E-05  0.8061E-08  0.4635E-03  0.6315E-04  0.3668E+01
   -1.120008    7.54807  0.0000E+00  0.3414E-05  0.8123E-08  0.4476E-03  0.5455E-04  0.4943E+01
   -1.155008    7.54894  0.0000E+00  0.3362E-05  0.8283E-08  0.4273E-03  0.4656E-04  0.6468E+01
   -1.190008    7.54984  0.0000E+00  0.3308E-05  0.8578E-08  0.4004E-03  0.3908E-04  0.8530E+01
   -1.225007    7.55079  0.0000E+00  0.3245E-05  0.9118E-08  0.3700E-03  0.3206E-04  0.1159E+02
   -1.260006    7.55180  0.0000E+00  0.3159E-05  0.1021E-07  0.2996E-03  0.2584E-04  0.2056E+02
   -1.295005    7.55306  0.0000E+00  0.2989E-05  0.1320E-07  0.2905E-03  0.2032E-04  0.3957E+02
   -1.330003    7.55438  0.0000E+00  0.2617E-05  0.2306E-07  0.1140E-03  0.1723E-04 -0.3127E+04
   -1.365001    7.56187  0.0000E+00  0.1637E-05  0.6459E-07  0.3548E-04  0.1117E-04 -0.1329E+05
   -1.399999    7.57214  0.0000E+00  0.0000E+00  0.0000E+00  0.0000E+00  0.1275E-04  0.0000E+00
