 1 - depth, m
 2 - temperature, C
 3 - salinity, kg/kg
 4 - turbulent kinetic energy, m**2/s**2
 5 - dissipation rate, m**2/s**3
 6 - kinematic heat conductance, m**2/s
 7 - modulus of horizontal velocity, m/s
 8 - Richardson number, n/d
   -0.000000    0.00000  0.0000E+00  0.4702E-13  0.1132E-15  0.1000E-09  0.0000E+00  0.1284E+17
   -0.034998    0.19779  0.0000E+00  0.4702E-13  0.1132E-15  0.1000E-09  0.0000E+00  0.1214E+17
   -0.069996    0.39550  0.0000E+00  0.4702E-13  0.1132E-15  0.1000E-09  0.0000E+00  0.1145E+17
   -0.104994    0.59329  0.0000E+00  0.2167E-12  0.1132E-15  0.1000E-09  0.0000E+00  0.1068E+17
   -0.139993    0.78937  0.0000E+00  0.5768E-12  0.1390E-15  0.1000E-09  0.0000E+00  0.9874E+16
   -0.174991    0.98270  0.0000E+00  0.1174E-11  0.2177E-15  0.1000E-09  0.0000E+00  0.9097E+16
   -0.209991    1.17317  0.0000E+00  0.2144E-11  0.3602E-15  0.1000E-09  0.0000E+00  0.8346E+16
   -0.244990    1.36066  0.0000E+00  0.3730E-11  0.5991E-15  0.1000E-09  0.0000E+00  0.7622E+16
   -0.279990    1.54501  0.0000E+00  0.6341E-11  0.9917E-15  0.1000E-09  0.0000E+00  0.6925E+16
   -0.314989    1.72607  0.0000E+00  0.1071E-10  0.1642E-14  0.1000E-09  0.0000E+00  0.6279E+16
   -0.349990    1.90437  0.0000E+00  0.1811E-10  0.2727E-14  0.1000E-09  0.0000E+00  0.5656E+16
   -0.384990    2.07973  0.0000E+00  0.3060E-10  0.4528E-14  0.1000E-09  0.0000E+00  0.5054E+16
   -0.419990    2.25185  0.0000E+00  0.5141E-10  0.7486E-14  0.1000E-09  0.0000E+00  0.4483E+16
   -0.454991    2.42078  0.0000E+00  0.8597E-10  0.1232E-13  0.1000E-09  0.0000E+00  0.3951E+16
   -0.489991    2.58694  0.0000E+00  0.1433E-09  0.2021E-13  0.1000E-09  0.0000E+00  0.3459E+16
   -0.524992    2.75108  0.0000E+00  0.2484E-09  0.3445E-13  0.1000E-09  0.0000E+00  0.3062E+16
   -0.559993    2.91771  0.0000E+00  0.4512E-09  0.6153E-13  0.1000E-09  0.0000E+00  0.2692E+16
   -0.594994    3.08991  0.0000E+00  0.8691E-09  0.1166E-12  0.1326E-09  0.0000E+00  0.2277E+16
   -0.629995    3.26763  0.0000E+00  0.1530E-08  0.2024E-12  0.3042E-09  0.0000E+00  0.1724E+16
   -0.664996    3.43982  0.0000E+00  0.2564E-08  0.3344E-12  0.7127E-09  0.0000E+00  0.1216E+16
   -0.699997    3.60604  0.0000E+00  0.4212E-08  0.5416E-12  0.1861E-08  0.0000E+00  0.7540E+15
   -0.734998    3.76539  0.0000E+00  0.6865E-08  0.8704E-12  0.6549E-08  0.0000E+00  0.3442E+15
   -0.769998    3.91585  0.0000E+00  0.1075E-07  0.1350E-11  0.9936E-07  0.0000E+00  0.3515E+14
   -0.804999    4.00840  0.0000E+00  0.1136E-07  0.1431E-11  0.3562E-04  0.0000E+00 -0.2200E+12
   -0.840000    4.00902  0.0000E+00  0.1166E-07  0.1477E-11  0.3512E-04  0.0000E+00 -0.2321E+12
   -0.875001    4.00967  0.0000E+00  0.1195E-07  0.1528E-11  0.3551E-04  0.0000E+00 -0.2394E+12
   -0.910002    4.01031  0.0000E+00  0.1222E-07  0.1583E-11  0.3577E-04  0.0000E+00 -0.2454E+12
   -0.945002    4.01095  0.0000E+00  0.1247E-07  0.1644E-11  0.3584E-04  0.0000E+00 -0.2520E+12
   -0.980003    4.01160  0.0000E+00  0.1270E-07  0.1711E-11  0.3570E-04  0.0000E+00 -0.2603E+12
   -1.015003    4.01225  0.0000E+00  0.1292E-07  0.1787E-11  0.3541E-04  0.0000E+00 -0.2750E+12
   -1.050004    4.01292  0.0000E+00  0.1312E-07  0.1875E-11  0.3487E-04  0.0000E+00 -0.2946E+12
   -1.085004    4.01361  0.0000E+00  0.1330E-07  0.1981E-11  0.3411E-04  0.0000E+00 -0.3192E+12
   -1.120003    4.01435  0.0000E+00  0.1347E-07  0.2108E-11  0.3294E-04  0.0000E+00 -0.3418E+12
   -1.155003    4.01512  0.0000E+00  0.1361E-07  0.2261E-11  0.3147E-04  0.0000E+00 -0.3707E+12
   -1.190002    4.01593  0.0000E+00  0.1373E-07  0.2454E-11  0.2959E-04  0.0000E+00 -0.4154E+12
   -1.225002    4.01681  0.0000E+00  0.1382E-07  0.2729E-11  0.2733E-04  0.0000E+00 -0.5176E+12
   -1.260000    4.01787  0.0000E+00  0.1388E-07  0.3188E-11  0.2413E-04  0.0000E+00 -0.7501E+12
   -1.294999    4.01936  0.0000E+00  0.1379E-07  0.4292E-11  0.1881E-04  0.0000E+00 -0.1369E+13
   -1.329997    4.02190  0.0000E+00  0.1305E-07  0.7117E-11  0.7152E-05  0.0000E+00 -0.3755E+13
   -1.364995    4.02810  0.0000E+00  0.9501E-08  0.2012E-10  0.8692E-06  0.0000E+00 -0.3660E+14
   -1.399993    4.06645  0.0000E+00  0.0000E+00  0.0000E+00  0.0000E+00  0.0000E+00  0.0000E+00
