 1 - depth, m
 2 - temperature, C
 3 - salinity, kg/kg
 4 - turbulent kinetic energy, m**2/s**2
 5 - dissipation rate, m**2/s**3
 6 - kinematic heat conductance, m**2/s
 7 - modulus of horizontal velocity, m/s
 8 - Richardson number, n/d
   -0.000000    0.00000  0.0000E+00  0.7395E-04  0.1798E-04  0.3781E-04  0.7292E-01  0.1492E+00
   -0.034997    0.00453  0.0000E+00  0.5097E-04  0.5449E-05  0.5969E-04  0.3340E-01  0.1257E-02
   -0.069994    0.00671  0.0000E+00  0.4166E-04  0.2559E-05  0.8006E-04  0.2522E-01  0.2071E-02
   -0.104992    0.00828  0.0000E+00  0.3584E-04  0.1463E-05  0.9806E-04  0.2056E-01  0.3139E-02
   -0.139990    0.00956  0.0000E+00  0.3164E-04  0.9426E-06  0.1136E-03  0.1717E-01  0.4294E-02
   -0.174988    0.01068  0.0000E+00  0.2842E-04  0.6597E-06  0.1266E-03  0.1450E-01  0.5583E-02
   -0.209987    0.01168  0.0000E+00  0.2581E-04  0.4899E-06  0.1369E-03  0.1230E-01  0.6930E-02
   -0.244986    0.01261  0.0000E+00  0.2358E-04  0.3793E-06  0.1441E-03  0.1042E-01  0.8284E-02
   -0.279985    0.01348  0.0000E+00  0.2151E-04  0.3006E-06  0.1469E-03  0.8760E-02  0.9414E-02
   -0.314984    0.01435  0.0000E+00  0.1940E-04  0.2389E-06  0.1537E-03  0.7229E-02  0.1403E-01
   -0.349983    0.01517  0.0000E+00  0.1745E-04  0.1917E-06  0.1577E-03  0.5981E-02  0.2110E-01
   -0.384983    0.01597  0.0000E+00  0.1571E-04  0.1555E-06  0.1597E-03  0.4948E-02  0.3221E-01
   -0.419983    0.01676  0.0000E+00  0.1421E-04  0.1280E-06  0.1581E-03  0.4080E-02  0.4498E-01
   -0.454983    0.01756  0.0000E+00  0.1287E-04  0.1066E-06  0.1547E-03  0.3301E-02  0.6390E-01
   -0.489983    0.01839  0.0000E+00  0.1168E-04  0.8976E-07  0.1519E-03  0.2585E-02  0.1163E+00
   -0.524983    0.01925  0.0000E+00  0.1053E-04  0.7550E-07  0.1539E-03  0.1952E-02  0.4674E+00
   -0.559983    0.02008  0.0000E+00  0.9398E-05  0.6304E-07  0.1531E-03  0.1494E-02  0.1505E+01
   -0.594983    0.02087  0.0000E+00  0.8164E-05  0.5076E-07  0.1466E-03  0.1201E-02 -0.3961E+03
   -0.629984    0.02162  0.0000E+00  0.7060E-05  0.4069E-07  0.1346E-03  0.1039E-02 -0.1230E+03
   -0.664984    0.02245  0.0000E+00  0.6107E-05  0.3273E-07  0.1229E-03  0.8894E-03 -0.7075E+01
   -0.699984    0.02334  0.0000E+00  0.5282E-05  0.2641E-07  0.1114E-03  0.7522E-03  0.1419E+03
   -0.734985    0.02433  0.0000E+00  0.4559E-05  0.2133E-07  0.1000E-03  0.6288E-03  0.6236E+03
   -0.769985    0.02543  0.0000E+00  0.3923E-05  0.1722E-07  0.8869E-04  0.5203E-03  0.2907E+04
   -0.804985    0.02666  0.0000E+00  0.3360E-05  0.1389E-07  0.7733E-04  0.4264E-03  0.1677E+05
   -0.839986    0.02807  0.0000E+00  0.2860E-05  0.1117E-07  0.6607E-04  0.3454E-03  0.1333E+06
   -0.874986    0.02974  0.0000E+00  0.2415E-05  0.8950E-08  0.5502E-04  0.2761E-03  0.1480E+07
   -0.909986    0.03172  0.0000E+00  0.2017E-05  0.7123E-08  0.4404E-04  0.2188E-03  0.1768E+08
   -0.944986    0.03438  0.0000E+00  0.1662E-05  0.5629E-08  0.3356E-04  0.1694E-03  0.2477E+09
   -0.979986    0.03868  0.0000E+00  0.1341E-05  0.4392E-08  0.2390E-04  0.1265E-03  0.6711E+10
   -1.014986    0.04893  0.0000E+00  0.1049E-05  0.3349E-08  0.1581E-04  0.8805E-04  0.6626E+12
   -1.049985    0.07227  0.0000E+00  0.7847E-06  0.2465E-08  0.9066E-05  0.5759E-04  0.2298E+14
   -1.084985    0.11413  0.0000E+00  0.5373E-06  0.1681E-08  0.3399E-05  0.3548E-04  0.1703E+15
   -1.119984    0.21078  0.0000E+00  0.2944E-06  0.9274E-09  0.3981E-06  0.1932E-04  0.4190E+15
   -1.154983    0.41777  0.0000E+00  0.9274E-07  0.2946E-09  0.2599E-07  0.5412E-05  0.1316E+16
   -1.189982    0.78479  0.0000E+00  0.1724E-07  0.5650E-10  0.5062E-08  0.4869E-06  0.3307E+16
   -1.224980    1.23044  0.0000E+00  0.2912E-08  0.9935E-11  0.1198E-08  0.2184E-07  0.6607E+16
   -1.259978    1.71167  0.0000E+00  0.5067E-09  0.1800E-11  0.3399E-09  0.6803E-09  0.1090E+17
   -1.294976    2.22852  0.0000E+00  0.8013E-10  0.2952E-12  0.1430E-09  0.1799E-10  0.1162E+17
   -1.329974    2.77384  0.0000E+00  0.1182E-10  0.4467E-13  0.1039E-09  0.8416E-12  0.7925E+16
   -1.364972    3.29037  0.0000E+00  0.2093E-11  0.7870E-14  0.1004E-09  0.3113E-13  0.3496E+16
   -1.399969    3.72502  0.0000E+00  0.0000E+00  0.0000E+00  0.0000E+00  0.3108E-13  0.0000E+00
