 1 - depth, m
 2 - temperature, C
 3 - salinity, kg/kg
 4 - turbulent kinetic energy, m**2/s**2
 5 - dissipation rate, m**2/s**3
 6 - kinematic heat conductance, m**2/s
 7 - modulus of horizontal velocity, m/s
 8 - Richardson number, n/d
   -0.000000    0.00000  0.0000E+00  0.4702E-13  0.1132E-15  0.1000E-09  0.0000E+00  0.1125E+17
   -0.034998    0.17278  0.0000E+00  0.4702E-13  0.1132E-15  0.1000E-09  0.0000E+00  0.1082E+17
   -0.069996    0.34715  0.0000E+00  0.4702E-13  0.1132E-15  0.1000E-09  0.0000E+00  0.1037E+17
   -0.104994    0.52304  0.0000E+00  0.4702E-13  0.1132E-15  0.1000E-09  0.0000E+00  0.9775E+16
   -0.139993    0.69800  0.0000E+00  0.4702E-13  0.1132E-15  0.1000E-09  0.0000E+00  0.9119E+16
   -0.174992    0.87059  0.0000E+00  0.2108E-12  0.1132E-15  0.1000E-09  0.0000E+00  0.8482E+16
   -0.209991    1.04068  0.0000E+00  0.5654E-12  0.1380E-15  0.1000E-09  0.0000E+00  0.7865E+16
   -0.244991    1.20818  0.0000E+00  0.1156E-11  0.2160E-15  0.1000E-09  0.0000E+00  0.7271E+16
   -0.279991    1.37302  0.0000E+00  0.2117E-11  0.3581E-15  0.1000E-09  0.0000E+00  0.6699E+16
   -0.314991    1.53512  0.0000E+00  0.3716E-11  0.6004E-15  0.1000E-09  0.0000E+00  0.6142E+16
   -0.349991    1.69426  0.0000E+00  0.6425E-11  0.1010E-14  0.1000E-09  0.0000E+00  0.5604E+16
   -0.384991    1.85017  0.0000E+00  0.1102E-10  0.1697E-14  0.1000E-09  0.0000E+00  0.5084E+16
   -0.419992    2.00258  0.0000E+00  0.1873E-10  0.2834E-14  0.1000E-09  0.0000E+00  0.4632E+16
   -0.454992    2.15284  0.0000E+00  0.3164E-10  0.4708E-14  0.1000E-09  0.0000E+00  0.4239E+16
   -0.489993    2.30245  0.0000E+00  0.5325E-10  0.7794E-14  0.1000E-09  0.0000E+00  0.3883E+16
   -0.524994    2.45261  0.0000E+00  0.9321E-10  0.1341E-13  0.1000E-09  0.0000E+00  0.3655E+16
   -0.559995    2.60925  0.0000E+00  0.1709E-09  0.2418E-13  0.1000E-09  0.0000E+00  0.3479E+16
   -0.594996    2.77751  0.0000E+00  0.3324E-09  0.4623E-13  0.1000E-09  0.0000E+00  0.3231E+16
   -0.629997    2.95872  0.0000E+00  0.5899E-09  0.8087E-13  0.1000E-09  0.0000E+00  0.2670E+16
   -0.664998    3.13774  0.0000E+00  0.9965E-09  0.1347E-12  0.1639E-09  0.0000E+00  0.2129E+16
   -0.699999    3.31435  0.0000E+00  0.1652E-08  0.2200E-12  0.3538E-09  0.0000E+00  0.1610E+16
   -0.735000    3.48849  0.0000E+00  0.2722E-08  0.3571E-12  0.8253E-09  0.0000E+00  0.1121E+16
   -0.770001    3.66128  0.0000E+00  0.4470E-08  0.5777E-12  0.2304E-08  0.0000E+00  0.6496E+15
   -0.805003    3.83456  0.0000E+00  0.7290E-08  0.9288E-12  0.1338E-07  0.0000E+00  0.1797E+15
   -0.840004    3.99745  0.0000E+00  0.8042E-08  0.1029E-11  0.2172E-04  0.0000E+00 -0.2141E+12
   -0.875004    3.99861  0.0000E+00  0.8422E-08  0.1089E-11  0.2557E-04  0.0000E+00 -0.2028E+12
   -0.910005    3.99962  0.0000E+00  0.8745E-08  0.1147E-11  0.2608E-04  0.0000E+00 -0.2165E+12
   -0.945006    4.00062  0.0000E+00  0.9026E-08  0.1206E-11  0.2645E-04  0.0000E+00 -0.2308E+12
   -0.980007    4.00161  0.0000E+00  0.9293E-08  0.1272E-11  0.2664E-04  0.0000E+00 -0.2470E+12
   -1.015007    4.00261  0.0000E+00  0.9550E-08  0.1346E-11  0.2670E-04  0.0000E+00 -0.2699E+12
   -1.050008    4.00364  0.0000E+00  0.9800E-08  0.1433E-11  0.2656E-04  0.0000E+00 -0.2985E+12
   -1.085008    4.00470  0.0000E+00  0.1004E-07  0.1535E-11  0.2615E-04  0.0000E+00 -0.3305E+12
   -1.120008    4.00582  0.0000E+00  0.1026E-07  0.1656E-11  0.2537E-04  0.0000E+00 -0.3630E+12
   -1.155007    4.00697  0.0000E+00  0.1046E-07  0.1801E-11  0.2431E-04  0.0000E+00 -0.4039E+12
   -1.190007    4.00818  0.0000E+00  0.1064E-07  0.1981E-11  0.2291E-04  0.0000E+00 -0.4633E+12
   -1.225006    4.00949  0.0000E+00  0.1080E-07  0.2235E-11  0.2123E-04  0.0000E+00 -0.5843E+12
   -1.260005    4.01105  0.0000E+00  0.1093E-07  0.2652E-11  0.1887E-04  0.0000E+00 -0.8494E+12
   -1.295004    4.01315  0.0000E+00  0.1098E-07  0.3723E-11  0.1395E-04  0.0000E+00 -0.1655E+13
   -1.330002    4.01684  0.0000E+00  0.1042E-07  0.6455E-11  0.5206E-05  0.0000E+00 -0.4984E+13
   -1.365001    4.02591  0.0000E+00  0.7824E-08  0.1692E-10  0.7766E-06  0.0000E+00 -0.4410E+14
   -1.399998    4.07118  0.0000E+00  0.0000E+00  0.0000E+00  0.0000E+00  0.0000E+00  0.0000E+00
