 1 - depth, m
 2 - temperature, C
 3 - salinity, kg/kg
 4 - turbulent kinetic energy, m**2/s**2
 5 - dissipation rate, m**2/s**3
 6 - kinematic heat conductance, m**2/s
 7 - modulus of horizontal velocity, m/s
 8 - Richardson number, n/d
   -0.000000    0.00000  0.0000E+00  0.4702E-13  0.1132E-15  0.1000E-09  0.0000E+00  0.1291E+17
   -0.034998    0.19889  0.0000E+00  0.4702E-13  0.1132E-15  0.1000E-09  0.0000E+00  0.1215E+17
   -0.069996    0.39693  0.0000E+00  0.4702E-13  0.1132E-15  0.1000E-09  0.0000E+00  0.1142E+17
   -0.104994    0.59429  0.0000E+00  0.2120E-12  0.1132E-15  0.1000E-09  0.0000E+00  0.1062E+17
   -0.139993    0.78940  0.0000E+00  0.5674E-12  0.1392E-15  0.1000E-09  0.0000E+00  0.9804E+16
   -0.174991    0.98131  0.0000E+00  0.1160E-11  0.2191E-15  0.1000E-09  0.0000E+00  0.9020E+16
   -0.209991    1.17003  0.0000E+00  0.2128E-11  0.3645E-15  0.1000E-09  0.0000E+00  0.8269E+16
   -0.244990    1.35550  0.0000E+00  0.3718E-11  0.6094E-15  0.1000E-09  0.0000E+00  0.7551E+16
   -0.279990    1.53768  0.0000E+00  0.6352E-11  0.1014E-14  0.1000E-09  0.0000E+00  0.6865E+16
   -0.314989    1.71651  0.0000E+00  0.1078E-10  0.1687E-14  0.1000E-09  0.0000E+00  0.6230E+16
   -0.349989    1.89252  0.0000E+00  0.1833E-10  0.2816E-14  0.1000E-09  0.0000E+00  0.5621E+16
   -0.384990    2.06561  0.0000E+00  0.3111E-10  0.4699E-14  0.1000E-09  0.0000E+00  0.5034E+16
   -0.419990    2.23558  0.0000E+00  0.5254E-10  0.7807E-14  0.1000E-09  0.0000E+00  0.4481E+16
   -0.454990    2.40264  0.0000E+00  0.8829E-10  0.1291E-13  0.1000E-09  0.0000E+00  0.3967E+16
   -0.489991    2.56732  0.0000E+00  0.1479E-09  0.2128E-13  0.1000E-09  0.0000E+00  0.3492E+16
   -0.524992    2.73048  0.0000E+00  0.2577E-09  0.3647E-13  0.1000E-09  0.0000E+00  0.3112E+16
   -0.559993    2.89673  0.0000E+00  0.4706E-09  0.6549E-13  0.1000E-09  0.0000E+00  0.2758E+16
   -0.594993    3.06942  0.0000E+00  0.9112E-09  0.1247E-12  0.1372E-09  0.0000E+00  0.2354E+16
   -0.629994    3.24872  0.0000E+00  0.1611E-08  0.2174E-12  0.3136E-09  0.0000E+00  0.1796E+16
   -0.664995    3.42323  0.0000E+00  0.2712E-08  0.3609E-12  0.7309E-09  0.0000E+00  0.1279E+16
   -0.699996    3.59261  0.0000E+00  0.4475E-08  0.5871E-12  0.1893E-08  0.0000E+00  0.8032E+15
   -0.734997    3.75617  0.0000E+00  0.7327E-08  0.9476E-12  0.6587E-08  0.0000E+00  0.3726E+15
   -0.769998    3.91206  0.0000E+00  0.1153E-07  0.1477E-11  0.9786E-07  0.0000E+00  0.3904E+14
   -0.804999    4.00951  0.0000E+00  0.1217E-07  0.1562E-11  0.3720E-04  0.0000E+00 -0.2313E+12
   -0.840000    4.01014  0.0000E+00  0.1248E-07  0.1611E-11  0.3661E-04  0.0000E+00 -0.2439E+12
   -0.875001    4.01079  0.0000E+00  0.1278E-07  0.1665E-11  0.3699E-04  0.0000E+00 -0.2512E+12
   -0.910002    4.01143  0.0000E+00  0.1306E-07  0.1724E-11  0.3725E-04  0.0000E+00 -0.2573E+12
   -0.945002    4.01208  0.0000E+00  0.1332E-07  0.1788E-11  0.3731E-04  0.0000E+00 -0.2639E+12
   -0.980003    4.01272  0.0000E+00  0.1355E-07  0.1859E-11  0.3716E-04  0.0000E+00 -0.2723E+12
   -1.015003    4.01337  0.0000E+00  0.1377E-07  0.1939E-11  0.3685E-04  0.0000E+00 -0.2873E+12
   -1.050003    4.01404  0.0000E+00  0.1398E-07  0.2033E-11  0.3628E-04  0.0000E+00 -0.3073E+12
   -1.085003    4.01474  0.0000E+00  0.1417E-07  0.2145E-11  0.3549E-04  0.0000E+00 -0.3321E+12
   -1.120003    4.01548  0.0000E+00  0.1433E-07  0.2279E-11  0.3429E-04  0.0000E+00 -0.3548E+12
   -1.155003    4.01624  0.0000E+00  0.1447E-07  0.2441E-11  0.3277E-04  0.0000E+00 -0.3839E+12
   -1.190002    4.01705  0.0000E+00  0.1459E-07  0.2646E-11  0.3083E-04  0.0000E+00 -0.4289E+12
   -1.225001    4.01793  0.0000E+00  0.1468E-07  0.2937E-11  0.2847E-04  0.0000E+00 -0.5315E+12
   -1.260000    4.01899  0.0000E+00  0.1473E-07  0.3424E-11  0.2510E-04  0.0000E+00 -0.7647E+12
   -1.294999    4.02045  0.0000E+00  0.1461E-07  0.4576E-11  0.1965E-04  0.0000E+00 -0.1376E+13
   -1.329997    4.02293  0.0000E+00  0.1385E-07  0.7514E-11  0.7586E-05  0.0000E+00 -0.3699E+13
   -1.364995    4.02890  0.0000E+00  0.1008E-07  0.2148E-10  0.9067E-06  0.0000E+00 -0.3639E+14
   -1.399993    4.06670  0.0000E+00  0.0000E+00  0.0000E+00  0.0000E+00  0.0000E+00  0.0000E+00
