 1 - depth, m
 2 - temperature, C
 3 - salinity, kg/kg
 4 - turbulent kinetic energy, m**2/s**2
 5 - dissipation rate, m**2/s**3
 6 - kinematic heat conductance, m**2/s
 7 - modulus of horizontal velocity, m/s
 8 - Richardson number, n/d
   -0.000000    0.00000  0.0000E+00  0.4702E-13  0.1132E-15  0.1000E-09  0.0000E+00  0.5652E+16
   -0.034998    0.08577  0.0000E+00  0.4702E-13  0.1132E-15  0.1000E-09  0.0000E+00  0.5564E+16
   -0.069996    0.17223  0.0000E+00  0.4702E-13  0.1132E-15  0.1000E-09  0.0000E+00  0.5479E+16
   -0.104994    0.25945  0.0000E+00  0.4702E-13  0.1132E-15  0.1000E-09  0.0000E+00  0.5348E+16
   -0.139993    0.34673  0.0000E+00  0.4702E-13  0.1132E-15  0.1000E-09  0.0000E+00  0.5192E+16
   -0.174992    0.43364  0.0000E+00  0.4702E-13  0.1132E-15  0.1000E-09  0.0000E+00  0.5034E+16
   -0.209991    0.52013  0.0000E+00  0.4702E-13  0.1132E-15  0.1000E-09  0.0000E+00  0.4875E+16
   -0.244991    0.60611  0.0000E+00  0.4702E-13  0.1132E-15  0.1000E-09  0.0000E+00  0.4714E+16
   -0.279991    0.69151  0.0000E+00  0.4702E-13  0.1132E-15  0.1000E-09  0.0000E+00  0.4552E+16
   -0.314991    0.77625  0.0000E+00  0.4702E-13  0.1132E-15  0.1000E-09  0.0000E+00  0.4442E+16
   -0.349991    0.86128  0.0000E+00  0.4702E-13  0.1132E-15  0.1000E-09  0.0000E+00  0.4334E+16
   -0.384991    0.94667  0.0000E+00  0.4702E-13  0.1132E-15  0.1000E-09  0.0000E+00  0.4225E+16
   -0.419992    1.03240  0.0000E+00  0.4702E-13  0.1132E-15  0.1000E-09  0.0000E+00  0.4097E+16
   -0.454992    1.11811  0.0000E+00  0.4702E-13  0.1132E-15  0.1000E-09  0.0000E+00  0.3976E+16
   -0.489993    1.20394  0.0000E+00  0.4702E-13  0.1132E-15  0.1000E-09  0.0000E+00  0.3908E+16
   -0.524994    1.29109  0.0000E+00  0.4702E-13  0.1132E-15  0.1000E-09  0.0000E+00  0.4107E+16
   -0.559995    1.38597  0.0000E+00  0.4702E-13  0.1132E-15  0.1000E-09  0.0000E+00  0.4506E+16
   -0.594996    1.49439  0.0000E+00  0.4702E-13  0.1132E-15  0.1000E-09  0.0000E+00  0.4897E+16
   -0.629997    1.61811  0.0000E+00  0.4702E-13  0.1132E-15  0.1000E-09  0.0000E+00  0.4587E+16
   -0.664998    1.74041  0.0000E+00  0.4702E-13  0.1132E-15  0.1000E-09  0.0000E+00  0.4284E+16
   -0.699999    1.86121  0.0000E+00  0.4702E-13  0.1132E-15  0.1000E-09  0.0000E+00  0.3996E+16
   -0.735000    1.98069  0.0000E+00  0.4702E-13  0.1132E-15  0.1000E-09  0.0000E+00  0.3741E+16
   -0.770002    2.09962  0.0000E+00  0.4702E-13  0.1132E-15  0.1000E-09  0.0000E+00  0.3526E+16
   -0.805003    2.21927  0.0000E+00  0.4702E-13  0.1132E-15  0.1000E-09  0.0000E+00  0.3298E+16
   -0.840004    2.33927  0.0000E+00  0.4702E-13  0.1132E-15  0.1000E-09  0.0000E+00  0.3063E+16
   -0.875005    2.45939  0.0000E+00  0.4702E-13  0.1132E-15  0.1000E-09  0.0000E+00  0.2830E+16
   -0.910005    2.57972  0.0000E+00  0.4702E-13  0.1132E-15  0.1000E-09  0.0000E+00  0.2565E+16
   -0.945006    2.69868  0.0000E+00  0.4702E-13  0.1132E-15  0.1000E-09  0.0000E+00  0.2296E+16
   -0.980007    2.81563  0.0000E+00  0.4702E-13  0.1132E-15  0.1000E-09  0.0000E+00  0.2036E+16
   -1.015007    2.93031  0.0000E+00  0.4855E-13  0.1132E-15  0.1000E-09  0.0000E+00  0.1817E+16
   -1.050008    3.04461  0.0000E+00  0.2401E-12  0.2851E-15  0.1000E-09  0.0000E+00  0.1615E+16
   -1.085008    3.15955  0.0000E+00  0.9562E-12  0.1042E-14  0.1000E-09  0.0000E+00  0.1463E+16
   -1.120008    3.27995  0.0000E+00  0.3565E-11  0.3748E-14  0.1000E-09  0.0000E+00  0.1239E+16
   -1.155008    3.40120  0.0000E+00  0.1303E-10  0.1328E-13  0.1000E-09  0.0000E+00  0.1014E+16
   -1.190007    3.52375  0.0000E+00  0.4725E-10  0.4676E-13  0.1472E-09  0.0000E+00  0.8003E+15
   -1.225006    3.65101  0.0000E+00  0.1789E-09  0.1721E-12  0.7034E-09  0.0000E+00  0.6127E+15
   -1.260005    3.80050  0.0000E+00  0.7133E-09  0.6694E-12  0.5977E-08  0.0000E+00  0.2704E+15
   -1.295004    3.99475  0.0000E+00  0.2886E-08  0.2702E-11  0.1120E-05  0.0000E+00 -0.1243E+14
   -1.330003    4.02705  0.0000E+00  0.4315E-08  0.5315E-11  0.1302E-05  0.0000E+00 -0.2183E+14
   -1.365001    4.05301  0.0000E+00  0.4209E-08  0.1022E-10  0.4834E-06  0.0000E+00 -0.7169E+14
   -1.399999    4.10299  0.0000E+00  0.0000E+00  0.0000E+00  0.0000E+00  0.0000E+00  0.0000E+00
