 1 - depth, m
 2 - temperature, C
 3 - salinity, kg/kg
 4 - turbulent kinetic energy, m**2/s**2
 5 - dissipation rate, m**2/s**3
 6 - kinematic heat conductance, m**2/s
 7 - modulus of horizontal velocity, m/s
 8 - Richardson number, n/d
   -0.000000    0.00000  0.0000E+00  0.4348E-04  0.6053E-05  0.2872E-04  0.4597E-01  0.1870E-02
   -0.034999    0.01010  0.0000E+00  0.3370E-04  0.2069E-05  0.5360E-04  0.2745E-01  0.3420E-02
   -0.069998    0.01503  0.0000E+00  0.2871E-04  0.1096E-05  0.7336E-04  0.2123E-01  0.6136E-02
   -0.104997    0.01874  0.0000E+00  0.2519E-04  0.6905E-06  0.8875E-04  0.1728E-01  0.9421E-02
   -0.139996    0.02186  0.0000E+00  0.2244E-04  0.4778E-06  0.1007E-03  0.1438E-01  0.1347E-01
   -0.174996    0.02465  0.0000E+00  0.2018E-04  0.3513E-06  0.1098E-03  0.1210E-01  0.1845E-01
   -0.209996    0.02724  0.0000E+00  0.1827E-04  0.2696E-06  0.1157E-03  0.1023E-01  0.2415E-01
   -0.244997    0.02974  0.0000E+00  0.1656E-04  0.2131E-06  0.1181E-03  0.8629E-02  0.3023E-01
   -0.279997    0.03222  0.0000E+00  0.1491E-04  0.1706E-06  0.1156E-03  0.7205E-02  0.3540E-01
   -0.314998    0.03480  0.0000E+00  0.1316E-04  0.1351E-06  0.1163E-03  0.5866E-02  0.5658E-01
   -0.349999    0.03747  0.0000E+00  0.1152E-04  0.1069E-06  0.1135E-03  0.4780E-02  0.9211E-01
   -0.385000    0.04035  0.0000E+00  0.1003E-04  0.8500E-07  0.1079E-03  0.3887E-02  0.1527E+00
   -0.420002    0.04360  0.0000E+00  0.8735E-05  0.6818E-07  0.9874E-04  0.3139E-02  0.2208E+00
   -0.455003    0.04744  0.0000E+00  0.7583E-05  0.5505E-07  0.8779E-04  0.2457E-02  0.3084E+00
   -0.490005    0.05231  0.0000E+00  0.6546E-05  0.4465E-07  0.7700E-04  0.1809E-02  0.5357E+00
   -0.525007    0.05943  0.0000E+00  0.5511E-05  0.3559E-07  0.6721E-04  0.1217E-02  0.4972E+01
   -0.560008    0.10559  0.0000E+00  0.4470E-05  0.2755E-07  0.5443E-04  0.7896E-03  0.8674E+03
   -0.595010    0.38374  0.0000E+00  0.3404E-05  0.2003E-07  0.3790E-04  0.5453E-03  0.2028E+06
   -0.630012    0.89879  0.0000E+00  0.2477E-05  0.1396E-07  0.2465E-04  0.4448E-03  0.1116E+07
   -0.665014    1.52920  0.0000E+00  0.1723E-05  0.9340E-08  0.1688E-04  0.3419E-03 -0.2718E+06
   -0.700016    2.04605  0.0000E+00  0.1120E-05  0.5864E-08  0.1222E-04  0.2428E-03 -0.1106E+07
   -0.735018    2.51171  0.0000E+00  0.6325E-06  0.3200E-08  0.1041E-04  0.1537E-03 -0.3673E+07
   -0.770020    2.96950  0.0000E+00  0.2480E-06  0.1177E-08  0.1280E-04  0.7407E-04 -0.8083E+07
   -0.805022    3.47241  0.0000E+00  0.6053E-07  0.1945E-09  0.1725E-04  0.1618E-04  0.4296E+07
   -0.840024    3.85938  0.0000E+00  0.3635E-07  0.3956E-10  0.2248E-04  0.2203E-05  0.1913E+09
   -0.875025    4.02696  0.0000E+00  0.3930E-07  0.2336E-10  0.2845E-04  0.2658E-06  0.3203E+10
   -0.910027    4.03875  0.0000E+00  0.4223E-07  0.2099E-10  0.3378E-04  0.6912E-07  0.2806E+11
   -0.945029    4.04295  0.0000E+00  0.4434E-07  0.2022E-10  0.3790E-04  0.2854E-07  0.4669E+11
   -0.980030    4.04603  0.0000E+00  0.4593E-07  0.1990E-10  0.4063E-04  0.1350E-07  0.6088E+11
   -1.015032    4.04865  0.0000E+00  0.4721E-07  0.1981E-10  0.4239E-04  0.6680E-08  0.7761E+11
   -1.050033    4.05100  0.0000E+00  0.4832E-07  0.1989E-10  0.4351E-04  0.3418E-08  0.8604E+11
   -1.085034    4.05314  0.0000E+00  0.4930E-07  0.2017E-10  0.4454E-04  0.1744E-08  0.9262E+11
   -1.120035    4.05524  0.0000E+00  0.5013E-07  0.2063E-10  0.4495E-04  0.9485E-09  0.7120E+11
   -1.155035    4.05730  0.0000E+00  0.5078E-07  0.2129E-10  0.4472E-04  0.5041E-09  0.8328E+10
   -1.190036    4.05937  0.0000E+00  0.5123E-07  0.2220E-10  0.4366E-04  0.2496E-09 -0.1623E+12
   -1.225036    4.06150  0.0000E+00  0.5149E-07  0.2358E-10  0.4168E-04  0.1068E-09 -0.6538E+12
   -1.260036    4.06381  0.0000E+00  0.5147E-07  0.2597E-10  0.3792E-04  0.4025E-10 -0.1870E+13
   -1.295035    4.06652  0.0000E+00  0.5073E-07  0.3163E-10  0.3145E-04  0.1407E-10 -0.4087E+13
   -1.330034    4.07022  0.0000E+00  0.4801E-07  0.4571E-10  0.1454E-04  0.5842E-11 -0.1055E+14
   -1.365033    4.07805  0.0000E+00  0.3551E-07  0.1202E-09  0.2034E-05  0.1405E-11 -0.9200E+14
   -1.400032    4.12850  0.0000E+00  0.0000E+00  0.0000E+00  0.0000E+00  0.1402E-11  0.0000E+00
