 1 - depth, m
 2 - temperature, C
 3 - salinity, kg/kg
 4 - turbulent kinetic energy, m**2/s**2
 5 - dissipation rate, m**2/s**3
 6 - kinematic heat conductance, m**2/s
 7 - modulus of horizontal velocity, m/s
 8 - Richardson number, n/d
   -0.000000    6.33497  0.0000E+00  0.3191E-03  0.6004E-03  0.7514E-04  0.2009E+00  0.3754E-03
   -0.034998    6.43989  0.0000E+00  0.1710E-03  0.2147E-03  0.1153E-03  0.6288E-01 -0.1513E-01
   -0.069997    6.46556  0.0000E+00  0.1143E-03  0.6485E-04  0.1544E-03  0.3820E-01 -0.1445E-01
   -0.104996    6.47872  0.0000E+00  0.8965E-04  0.3573E-04  0.1506E-03  0.2961E-01 -0.7637E-02
   -0.139995    6.48647  0.0000E+00  0.7416E-04  0.2179E-04  0.1561E-03  0.2446E-01 -0.1219E-01
   -0.174994    6.49222  0.0000E+00  0.6277E-04  0.1356E-04  0.1626E-03  0.2065E-01 -0.1057E-01
   -0.209994    6.49689  0.0000E+00  0.5420E-04  0.8502E-05  0.1688E-03  0.1759E-01 -0.3579E-01
   -0.244994    6.50103  0.0000E+00  0.4760E-04  0.5363E-05  0.1738E-03  0.1502E-01 -0.1866E-01
   -0.279994    6.50488  0.0000E+00  0.4221E-04  0.3404E-05  0.1752E-03  0.1272E-01 -0.1760E-01
   -0.314994    6.50895  0.0000E+00  0.3734E-04  0.2183E-05  0.1834E-03  0.1041E-01  0.6903E+00
   -0.349995    6.51250  0.0000E+00  0.3326E-04  0.1426E-05  0.1894E-03  0.8710E-02  0.4123E+01
   -0.384996    6.51584  0.0000E+00  0.2983E-04  0.9570E-06  0.1947E-03  0.7350E-02  0.5541E+00
   -0.419997    6.51895  0.0000E+00  0.2697E-04  0.6678E-06  0.1970E-03  0.6227E-02  0.8073E+00
   -0.454998    6.52213  0.0000E+00  0.2453E-04  0.4886E-06  0.1984E-03  0.5185E-02  0.2597E+01
   -0.489999    6.52543  0.0000E+00  0.2240E-04  0.3774E-06  0.2011E-03  0.4208E-02  0.3380E+01
   -0.525000    6.52885  0.0000E+00  0.2040E-04  0.3023E-06  0.2131E-03  0.3350E-02  0.3188E+03
   -0.560001    6.53176  0.0000E+00  0.1849E-04  0.2465E-06  0.2325E-03  0.2736E-02 -0.5080E+04
   -0.595003    6.53410  0.0000E+00  0.1648E-04  0.1970E-06  0.2498E-03  0.2332E-02  0.1130E+06
   -0.630004    6.53554  0.0000E+00  0.1472E-04  0.1586E-06  0.2654E-03  0.2095E-02  0.3406E+04
   -0.665006    6.53750  0.0000E+00  0.1324E-04  0.1295E-06  0.2814E-03  0.1862E-02  0.3206E+06
   -0.700007    6.53939  0.0000E+00  0.1199E-04  0.1069E-06  0.2978E-03  0.1645E-02  0.3643E+04
   -0.735009    6.54118  0.0000E+00  0.1090E-04  0.8890E-07  0.3127E-03  0.1447E-02 -0.3702E+03
   -0.770010    6.54287  0.0000E+00  0.9967E-05  0.7450E-07  0.3301E-03  0.1269E-02  0.2932E+04
   -0.805012    6.54447  0.0000E+00  0.9151E-05  0.6285E-07  0.3464E-03  0.1110E-02  0.1863E+04
   -0.840013    6.54597  0.0000E+00  0.8440E-05  0.5341E-07  0.3628E-03  0.9685E-03  0.1730E+04
   -0.875015    6.54739  0.0000E+00  0.7818E-05  0.4574E-07  0.3809E-03  0.8424E-03  0.1177E+04
   -0.910016    6.54872  0.0000E+00  0.7275E-05  0.3951E-07  0.3969E-03  0.7312E-03  0.5290E+03
   -0.945017    6.54999  0.0000E+00  0.6802E-05  0.3447E-07  0.4069E-03  0.6313E-03  0.6975E+03
   -0.980018    6.55120  0.0000E+00  0.6392E-05  0.3044E-07  0.4138E-03  0.5406E-03  0.9655E+03
   -1.015019    6.55239  0.0000E+00  0.6034E-05  0.2724E-07  0.4171E-03  0.4588E-03  0.1228E+04
   -1.050020    6.55355  0.0000E+00  0.5719E-05  0.2471E-07  0.4188E-03  0.3876E-03  0.1894E+04
   -1.085020    6.55469  0.0000E+00  0.5440E-05  0.2277E-07  0.4168E-03  0.3268E-03  0.2356E+04
   -1.120021    6.55583  0.0000E+00  0.5195E-05  0.2139E-07  0.4117E-03  0.2753E-03  0.3963E+04
   -1.155021    6.55698  0.0000E+00  0.4979E-05  0.2063E-07  0.3990E-03  0.2302E-03  0.6943E+04
   -1.190021    6.55818  0.0000E+00  0.4786E-05  0.2060E-07  0.3760E-03  0.1896E-03  0.9200E+04
   -1.225020    6.55949  0.0000E+00  0.4592E-05  0.2166E-07  0.3489E-03  0.1529E-03  0.1395E+05
   -1.260020    6.56096  0.0000E+00  0.4361E-05  0.2498E-07  0.3002E-03  0.1207E-03  0.2665E+05
   -1.295019    6.56292  0.0000E+00  0.3990E-05  0.3350E-07  0.2464E-03  0.9335E-04  0.8560E+05
   -1.330018    6.56474  0.0000E+00  0.3432E-05  0.5949E-07  0.1464E-03  0.7731E-04  0.3901E+07
   -1.365016    6.57121  0.0000E+00  0.2168E-05  0.1453E-06  0.2901E-04  0.5741E-04 -0.1392E+10
   -1.400015    6.59448  0.0000E+00  0.0000E+00  0.0000E+00  0.0000E+00  0.6824E-04  0.0000E+00
