 1 - depth, m
 2 - temperature, C
 3 - salinity, kg/kg
 4 - turbulent kinetic energy, m**2/s**2
 5 - dissipation rate, m**2/s**3
 6 - kinematic heat conductance, m**2/s
 7 - modulus of horizontal velocity, m/s
 8 - Richardson number, n/d
   -0.000000    6.79045  0.0000E+00  0.3420E-03  0.5332E-03  0.7464E-04  0.2158E+00  0.2386E-02
   -0.034998    6.85226  0.0000E+00  0.1845E-03  0.1792E-03  0.1225E-03  0.6670E-01 -0.4240E-02
   -0.069996    6.87012  0.0000E+00  0.1244E-03  0.5541E-04  0.1588E-03  0.4045E-01 -0.2884E-01
   -0.104995    6.87936  0.0000E+00  0.9784E-04  0.2982E-04  0.1625E-03  0.3154E-01 -0.1258E-01
   -0.139993    6.88448  0.0000E+00  0.8117E-04  0.1791E-04  0.1675E-03  0.2616E-01 -0.4648E-02
   -0.174992    6.88823  0.0000E+00  0.6910E-04  0.1104E-04  0.1737E-03  0.2210E-01 -0.6088E-02
   -0.209992    6.89114  0.0000E+00  0.5997E-04  0.6776E-05  0.1803E-03  0.1889E-01 -0.7203E-02
   -0.244991    6.89366  0.0000E+00  0.5288E-04  0.4241E-05  0.1859E-03  0.1621E-01 -0.1416E-01
   -0.279991    6.89606  0.0000E+00  0.4706E-04  0.2731E-05  0.1880E-03  0.1380E-01  0.1702E-01
   -0.314991    6.89870  0.0000E+00  0.4183E-04  0.1809E-05  0.1970E-03  0.1141E-01  0.3002E+01
   -0.349991    6.90100  0.0000E+00  0.3741E-04  0.1237E-05  0.2039E-03  0.9630E-02  0.3629E+01
   -0.384992    6.90310  0.0000E+00  0.3368E-04  0.8771E-06  0.2095E-03  0.8186E-02  0.5553E+02
   -0.419992    6.90502  0.0000E+00  0.3053E-04  0.6478E-06  0.2116E-03  0.6973E-02  0.7266E+03
   -0.454993    6.90702  0.0000E+00  0.2781E-04  0.4985E-06  0.2121E-03  0.5848E-02  0.2751E+02
   -0.489994    6.90911  0.0000E+00  0.2542E-04  0.3993E-06  0.2136E-03  0.4789E-02  0.1250E+02
   -0.524995    6.91125  0.0000E+00  0.2313E-04  0.3265E-06  0.2221E-03  0.3848E-02  0.3013E+03
   -0.559996    6.91308  0.0000E+00  0.2091E-04  0.2686E-06  0.2279E-03  0.3160E-02 -0.5681E+03
   -0.594997    6.91455  0.0000E+00  0.1852E-04  0.2146E-06  0.2273E-03  0.2700E-02  0.3093E+05
   -0.629998    6.91553  0.0000E+00  0.1641E-04  0.1717E-06  0.2247E-03  0.2420E-02  0.4706E+05
   -0.664999    6.91688  0.0000E+00  0.1462E-04  0.1387E-06  0.2243E-03  0.2147E-02  0.1508E+06
   -0.700000    6.91829  0.0000E+00  0.1309E-04  0.1130E-06  0.2259E-03  0.1890E-02  0.2062E+06
   -0.735002    6.91971  0.0000E+00  0.1178E-04  0.9277E-07  0.2321E-03  0.1653E-02  0.1230E+04
   -0.770003    6.92112  0.0000E+00  0.1064E-04  0.7670E-07  0.2389E-03  0.1439E-02  0.3207E+04
   -0.805004    6.92250  0.0000E+00  0.9654E-05  0.6386E-07  0.2499E-03  0.1248E-02  0.5796E+03
   -0.840005    6.92384  0.0000E+00  0.8802E-05  0.5360E-07  0.2673E-03  0.1077E-02  0.5714E+04
   -0.875006    6.92512  0.0000E+00  0.8065E-05  0.4536E-07  0.2947E-03  0.9261E-03  0.2177E+04
   -0.910007    6.92631  0.0000E+00  0.7431E-05  0.3878E-07  0.3412E-03  0.7941E-03  0.2023E+04
   -0.945008    6.92737  0.0000E+00  0.6895E-05  0.3361E-07  0.3917E-03  0.6780E-03  0.1525E+04
   -0.980008    6.92830  0.0000E+00  0.6437E-05  0.2953E-07  0.4186E-03  0.5753E-03  0.1743E+04
   -1.015009    6.92917  0.0000E+00  0.6043E-05  0.2633E-07  0.4326E-03  0.4835E-03  0.2165E+04
   -1.050009    6.92999  0.0000E+00  0.5702E-05  0.2384E-07  0.4393E-03  0.4045E-03  0.3611E+04
   -1.085010    6.93078  0.0000E+00  0.5406E-05  0.2197E-07  0.4356E-03  0.3383E-03  0.4586E+04
   -1.120010    6.93157  0.0000E+00  0.5151E-05  0.2068E-07  0.4233E-03  0.2835E-03  0.6831E+04
   -1.155009    6.93239  0.0000E+00  0.4931E-05  0.1999E-07  0.4068E-03  0.2361E-03  0.1013E+05
   -1.190009    6.93326  0.0000E+00  0.4733E-05  0.2001E-07  0.3779E-03  0.1943E-03  0.1509E+05
   -1.225008    6.93426  0.0000E+00  0.4535E-05  0.2101E-07  0.3515E-03  0.1560E-03  0.2505E+05
   -1.260007    6.93535  0.0000E+00  0.4290E-05  0.2432E-07  0.3003E-03  0.1234E-03  0.4534E+05
   -1.295006    6.93688  0.0000E+00  0.3890E-05  0.3296E-07  0.2562E-03  0.9421E-04  0.1402E+06
   -1.330005    6.93834  0.0000E+00  0.3296E-05  0.5683E-07  0.1371E-03  0.7782E-04  0.4179E+07
   -1.365003    6.94349  0.0000E+00  0.2063E-05  0.1393E-06  0.3069E-04  0.5582E-04 -0.2105E+11
   -1.400001    6.96125  0.0000E+00  0.0000E+00  0.0000E+00  0.0000E+00  0.6898E-04  0.0000E+00
