 1 - depth, m
 2 - temperature, C
 3 - salinity, kg/kg
 4 - turbulent kinetic energy, m**2/s**2
 5 - dissipation rate, m**2/s**3
 6 - kinematic heat conductance, m**2/s
 7 - modulus of horizontal velocity, m/s
 8 - Richardson number, n/d
   -0.000000    7.35495  0.0000E+00  0.4791E-03  0.1736E-02  0.7244E-04  0.2468E+00  0.1748E-01
   -0.034998    7.42474  0.0000E+00  0.2487E-03  0.7552E-03  0.1055E-03  0.7871E-01 -0.8489E-02
   -0.069996    7.45548  0.0000E+00  0.1591E-03  0.2104E-03  0.1583E-03  0.4547E-01 -0.2455E-01
   -0.104994    7.46896  0.0000E+00  0.1235E-03  0.1176E-03  0.1747E-03  0.3418E-01  0.8607E+01
   -0.139993    7.47595  0.0000E+00  0.1022E-03  0.7593E-04  0.1878E-03  0.2769E-01  0.1184E+01
   -0.174992    7.48088  0.0000E+00  0.8701E-04  0.5067E-04  0.1969E-03  0.2331E-01  0.1206E+03
   -0.209991    7.48464  0.0000E+00  0.7557E-04  0.3379E-04  0.2092E-03  0.2000E-01  0.4030E+01
   -0.244991    7.48781  0.0000E+00  0.6670E-04  0.2231E-04  0.2203E-03  0.1730E-01  0.1015E+01
   -0.279991    7.49072  0.0000E+00  0.5931E-04  0.1458E-04  0.2285E-03  0.1485E-01  0.2381E+01
   -0.314991    7.49400  0.0000E+00  0.5266E-04  0.9492E-05  0.2442E-03  0.1225E-01  0.8109E+02
   -0.349991    7.49663  0.0000E+00  0.4719E-04  0.6201E-05  0.2578E-03  0.1044E-01  0.9335E+00
   -0.384991    7.49902  0.0000E+00  0.4265E-04  0.4096E-05  0.2711E-03  0.8985E-02  0.1082E+04
   -0.419992    7.50111  0.0000E+00  0.3887E-04  0.2762E-05  0.2798E-03  0.7798E-02  0.4527E+04
   -0.454992    7.50341  0.0000E+00  0.3565E-04  0.1924E-05  0.2869E-03  0.6654E-02  0.2658E+04
   -0.489993    7.50611  0.0000E+00  0.3282E-04  0.1405E-05  0.2942E-03  0.5539E-02 -0.6541E+01
   -0.524994    7.50960  0.0000E+00  0.3013E-04  0.1064E-05  0.3103E-03  0.4540E-02 -0.3826E+03
   -0.559995    7.51218  0.0000E+00  0.2755E-04  0.8200E-06  0.3226E-03  0.3846E-02  0.3357E+05
   -0.594996    7.51362  0.0000E+00  0.2478E-04  0.6149E-06  0.3294E-03  0.3390E-02  0.2845E+04
   -0.629997    7.51239  0.0000E+00  0.2229E-04  0.4635E-06  0.3337E-03  0.3167E-02  0.3506E+04
   -0.664998    7.51365  0.0000E+00  0.2017E-04  0.3557E-06  0.3400E-03  0.2882E-02  0.4306E+03
   -0.699999    7.51501  0.0000E+00  0.1834E-04  0.2786E-06  0.3472E-03  0.2595E-02  0.2428E+02
   -0.735000    7.51639  0.0000E+00  0.1675E-04  0.2222E-06  0.3532E-03  0.2326E-02  0.1020E+03
   -0.770001    7.51777  0.0000E+00  0.1536E-04  0.1802E-06  0.3624E-03  0.2080E-02  0.3492E+03
   -0.805002    7.51912  0.0000E+00  0.1414E-04  0.1484E-06  0.3696E-03  0.1859E-02  0.1911E+03
   -0.840004    7.52044  0.0000E+00  0.1307E-04  0.1242E-06  0.3805E-03  0.1657E-02  0.1414E+04
   -0.875004    7.52174  0.0000E+00  0.1212E-04  0.1051E-06  0.3943E-03  0.1474E-02  0.1485E+04
   -0.910005    7.52301  0.0000E+00  0.1127E-04  0.9017E-07  0.4039E-03  0.1310E-02  0.1224E+03
   -0.945006    7.52425  0.0000E+00  0.1053E-04  0.7827E-07  0.4107E-03  0.1158E-02  0.4991E+03
   -0.980007    7.52549  0.0000E+00  0.9866E-05  0.6894E-07  0.4167E-03  0.1017E-02  0.3972E+03
   -1.015007    7.52670  0.0000E+00  0.9275E-05  0.6165E-07  0.4237E-03  0.8871E-03  0.2270E+03
   -1.050008    7.52790  0.0000E+00  0.8731E-05  0.5597E-07  0.4259E-03  0.7701E-03  0.3987E+03
   -1.085008    7.52908  0.0000E+00  0.8222E-05  0.5180E-07  0.4190E-03  0.6658E-03  0.2504E+04
   -1.120008    7.53029  0.0000E+00  0.7745E-05  0.4933E-07  0.4054E-03  0.5735E-03  0.1011E+04
   -1.155007    7.53155  0.0000E+00  0.7297E-05  0.4909E-07  0.3846E-03  0.4881E-03  0.4690E+04
   -1.190007    7.53292  0.0000E+00  0.6865E-05  0.5215E-07  0.3550E-03  0.4069E-03  0.1097E+04
   -1.225006    7.53446  0.0000E+00  0.6410E-05  0.6146E-07  0.3246E-03  0.3275E-03  0.2279E+04
   -1.260005    7.53624  0.0000E+00  0.5867E-05  0.8560E-07  0.2704E-03  0.2545E-03  0.2407E+05
   -1.295004    7.53865  0.0000E+00  0.5103E-05  0.1499E-06  0.2387E-03  0.1916E-03  0.7314E+04
   -1.330002    7.54046  0.0000E+00  0.4115E-05  0.3168E-06  0.1258E-03  0.1641E-03  0.1839E+06
   -1.365001    7.54957  0.0000E+00  0.2707E-05  0.6187E-06  0.5422E-04  0.1183E-03 -0.2522E+09
   -1.399998    7.56716  0.0000E+00  0.0000E+00  0.0000E+00  0.0000E+00  0.1811E-03  0.0000E+00
