 1 - depth, m
 2 - temperature, C
 3 - salinity, kg/kg
 4 - turbulent kinetic energy, m**2/s**2
 5 - dissipation rate, m**2/s**3
 6 - kinematic heat conductance, m**2/s
 7 - modulus of horizontal velocity, m/s
 8 - Richardson number, n/d
   -0.000000    0.00000  0.0000E+00  0.2260E-11  0.7749E-15  0.1000E-09  0.0000E+00  0.1796E+17
   -0.034997    0.27992  0.0000E+00  0.3521E-11  0.7209E-15  0.1000E-09  0.0000E+00  0.1633E+17
   -0.069995    0.55560  0.0000E+00  0.5973E-11  0.8884E-15  0.1000E-09  0.0000E+00  0.1475E+17
   -0.104993    0.82633  0.0000E+00  0.9899E-11  0.1258E-14  0.1000E-09  0.0000E+00  0.1313E+17
   -0.139992    1.08990  0.0000E+00  0.1592E-10  0.1875E-14  0.1000E-09  0.0000E+00  0.1157E+17
   -0.174990    1.34501  0.0000E+00  0.2506E-10  0.2836E-14  0.1000E-09  0.0000E+00  0.1012E+17
   -0.209989    1.59136  0.0000E+00  0.3893E-10  0.4302E-14  0.1000E-09  0.0000E+00  0.8779E+16
   -0.244988    1.82872  0.0000E+00  0.5998E-10  0.6518E-14  0.1000E-09  0.0000E+00  0.7547E+16
   -0.279988    2.05688  0.0000E+00  0.9194E-10  0.9854E-14  0.1000E-09  0.0000E+00  0.6422E+16
   -0.314987    2.27567  0.0000E+00  0.1411E-09  0.1494E-13  0.1000E-09  0.0000E+00  0.5460E+16
   -0.349987    2.48737  0.0000E+00  0.2178E-09  0.2279E-13  0.1000E-09  0.0000E+00  0.4573E+16
   -0.384987    2.69177  0.0000E+00  0.3369E-09  0.3486E-13  0.1000E-09  0.0000E+00  0.3751E+16
   -0.419987    2.88818  0.0000E+00  0.5203E-09  0.5324E-13  0.1000E-09  0.0000E+00  0.2994E+16
   -0.454987    3.07545  0.0000E+00  0.8014E-09  0.8115E-13  0.1047E-09  0.0000E+00  0.2320E+16
   -0.489988    3.25336  0.0000E+00  0.1233E-08  0.1236E-12  0.1844E-09  0.0000E+00  0.1736E+16
   -0.524988    3.42265  0.0000E+00  0.1969E-08  0.1952E-12  0.3979E-09  0.0000E+00  0.1268E+16
   -0.559989    3.59030  0.0000E+00  0.3294E-08  0.3230E-12  0.1011E-08  0.0000E+00  0.8227E+15
   -0.594989    3.75862  0.0000E+00  0.5849E-08  0.5675E-12  0.4115E-08  0.0000E+00  0.3679E+15
   -0.629990    3.92224  0.0000E+00  0.8637E-08  0.8431E-12  0.5511E-05  0.0000E+00  0.4717E+14
   -0.664991    3.99995  0.0000E+00  0.9068E-08  0.8886E-12  0.3337E-04  0.0000E+00 -0.1253E+12
   -0.699992    4.00067  0.0000E+00  0.9322E-08  0.9186E-12  0.3388E-04  0.0000E+00 -0.1305E+12
   -0.734992    4.00134  0.0000E+00  0.9567E-08  0.9510E-12  0.3490E-04  0.0000E+00 -0.1336E+12
   -0.769993    4.00197  0.0000E+00  0.9805E-08  0.9861E-12  0.3586E-04  0.0000E+00 -0.1395E+12
   -0.804994    4.00259  0.0000E+00  0.1003E-07  0.1024E-11  0.3653E-04  0.0000E+00 -0.1459E+12
   -0.839994    4.00319  0.0000E+00  0.1026E-07  0.1065E-11  0.3691E-04  0.0000E+00 -0.1535E+12
   -0.874995    4.00380  0.0000E+00  0.1047E-07  0.1110E-11  0.3706E-04  0.0000E+00 -0.1625E+12
   -0.909996    4.00442  0.0000E+00  0.1067E-07  0.1160E-11  0.3696E-04  0.0000E+00 -0.1713E+12
   -0.944996    4.00505  0.0000E+00  0.1087E-07  0.1214E-11  0.3667E-04  0.0000E+00 -0.1810E+12
   -0.979996    4.00569  0.0000E+00  0.1106E-07  0.1274E-11  0.3620E-04  0.0000E+00 -0.1921E+12
   -1.014996    4.00634  0.0000E+00  0.1123E-07  0.1342E-11  0.3561E-04  0.0000E+00 -0.2085E+12
   -1.049996    4.00703  0.0000E+00  0.1140E-07  0.1422E-11  0.3480E-04  0.0000E+00 -0.2295E+12
   -1.084996    4.00775  0.0000E+00  0.1157E-07  0.1517E-11  0.3377E-04  0.0000E+00 -0.2542E+12
   -1.119996    4.00852  0.0000E+00  0.1171E-07  0.1630E-11  0.3236E-04  0.0000E+00 -0.2787E+12
   -1.154995    4.00934  0.0000E+00  0.1185E-07  0.1768E-11  0.3067E-04  0.0000E+00 -0.3095E+12
   -1.189994    4.01021  0.0000E+00  0.1196E-07  0.1942E-11  0.2861E-04  0.0000E+00 -0.3555E+12
   -1.224993    4.01117  0.0000E+00  0.1206E-07  0.2190E-11  0.2619E-04  0.0000E+00 -0.4539E+12
   -1.259992    4.01234  0.0000E+00  0.1214E-07  0.2604E-11  0.2290E-04  0.0000E+00 -0.6755E+12
   -1.294990    4.01398  0.0000E+00  0.1210E-07  0.3620E-11  0.1730E-04  0.0000E+00 -0.1311E+13
   -1.329988    4.01692  0.0000E+00  0.1149E-07  0.6262E-11  0.6412E-05  0.0000E+00 -0.3925E+13
   -1.364986    4.02433  0.0000E+00  0.8496E-08  0.1791E-10  0.8133E-06  0.0000E+00 -0.3894E+14
   -1.399983    4.06643  0.0000E+00  0.0000E+00  0.0000E+00  0.0000E+00  0.0000E+00  0.0000E+00
