 1 - depth, m
 2 - temperature, C
 3 - salinity, kg/kg
 4 - turbulent kinetic energy, m**2/s**2
 5 - dissipation rate, m**2/s**3
 6 - kinematic heat conductance, m**2/s
 7 - modulus of horizontal velocity, m/s
 8 - Richardson number, n/d
   -0.000000    0.00000  0.0000E+00  0.4702E-13  0.1132E-15  0.1000E-09  0.0000E+00  0.1325E+17
   -0.034998    0.20430  0.0000E+00  0.4702E-13  0.1132E-15  0.1000E-09  0.0000E+00  0.1236E+17
   -0.069995    0.40620  0.0000E+00  0.8030E-13  0.1132E-15  0.1000E-09  0.0000E+00  0.1153E+17
   -0.104993    0.60601  0.0000E+00  0.2761E-12  0.1132E-15  0.1000E-09  0.0000E+00  0.1066E+17
   -0.139992    0.80251  0.0000E+00  0.6608E-12  0.1351E-15  0.1000E-09  0.0000E+00  0.9790E+16
   -0.174991    0.99503  0.0000E+00  0.1273E-11  0.2013E-15  0.1000E-09  0.0000E+00  0.8974E+16
   -0.209990    1.18371  0.0000E+00  0.2225E-11  0.3179E-15  0.1000E-09  0.0000E+00  0.8203E+16
   -0.244989    1.36865  0.0000E+00  0.3715E-11  0.5069E-15  0.1000E-09  0.0000E+00  0.7473E+16
   -0.279988    1.54990  0.0000E+00  0.6063E-11  0.8067E-15  0.1000E-09  0.0000E+00  0.6782E+16
   -0.314988    1.72748  0.0000E+00  0.9836E-11  0.1286E-14  0.1000E-09  0.0000E+00  0.6154E+16
   -0.349988    1.90219  0.0000E+00  0.1598E-10  0.2061E-14  0.1000E-09  0.0000E+00  0.5554E+16
   -0.384988    2.07402  0.0000E+00  0.2599E-10  0.3310E-14  0.1000E-09  0.0000E+00  0.4978E+16
   -0.419988    2.24285  0.0000E+00  0.4212E-10  0.5303E-14  0.1000E-09  0.0000E+00  0.4436E+16
   -0.454988    2.40893  0.0000E+00  0.6806E-10  0.8477E-14  0.1000E-09  0.0000E+00  0.3934E+16
   -0.489989    2.57292  0.0000E+00  0.1099E-09  0.1354E-13  0.1000E-09  0.0000E+00  0.3475E+16
   -0.524990    2.73599  0.0000E+00  0.1845E-09  0.2250E-13  0.1000E-09  0.0000E+00  0.3133E+16
   -0.559990    2.90435  0.0000E+00  0.3253E-09  0.3925E-13  0.1000E-09  0.0000E+00  0.2821E+16
   -0.594991    3.08289  0.0000E+00  0.6099E-09  0.7284E-13  0.1031E-09  0.0000E+00  0.2431E+16
   -0.629992    3.27230  0.0000E+00  0.1052E-08  0.1245E-12  0.1787E-09  0.0000E+00  0.1810E+16
   -0.664992    3.45630  0.0000E+00  0.1730E-08  0.2032E-12  0.4277E-09  0.0000E+00  0.1234E+16
   -0.699993    3.63364  0.0000E+00  0.2795E-08  0.3256E-12  0.1183E-08  0.0000E+00  0.7108E+15
   -0.734994    3.80250  0.0000E+00  0.4491E-08  0.5189E-12  0.5148E-08  0.0000E+00  0.2550E+15
   -0.769995    3.95917  0.0000E+00  0.6213E-08  0.7266E-12  0.3559E-05  0.0000E+00  0.1146E+14
   -0.804996    3.99625  0.0000E+00  0.6730E-08  0.7937E-12  0.1860E-04  0.0000E+00 -0.1664E+12
   -0.839996    3.99775  0.0000E+00  0.7089E-08  0.8464E-12  0.2032E-04  0.0000E+00 -0.1866E+12
   -0.874997    3.99903  0.0000E+00  0.7433E-08  0.9035E-12  0.2186E-04  0.0000E+00 -0.2013E+12
   -0.909998    4.00019  0.0000E+00  0.7763E-08  0.9652E-12  0.2314E-04  0.0000E+00 -0.2127E+12
   -0.944998    4.00128  0.0000E+00  0.8074E-08  0.1031E-11  0.2432E-04  0.0000E+00 -0.2218E+12
   -0.979998    4.00230  0.0000E+00  0.8365E-08  0.1103E-11  0.2503E-04  0.0000E+00 -0.2335E+12
   -1.014999    4.00328  0.0000E+00  0.8637E-08  0.1182E-11  0.2508E-04  0.0000E+00 -0.2553E+12
   -1.049999    4.00429  0.0000E+00  0.8891E-08  0.1269E-11  0.2485E-04  0.0000E+00 -0.2834E+12
   -1.084999    4.00533  0.0000E+00  0.9132E-08  0.1370E-11  0.2443E-04  0.0000E+00 -0.3175E+12
   -1.119998    4.00643  0.0000E+00  0.9361E-08  0.1490E-11  0.2364E-04  0.0000E+00 -0.3527E+12
   -1.154998    4.00757  0.0000E+00  0.9582E-08  0.1641E-11  0.2250E-04  0.0000E+00 -0.3987E+12
   -1.189997    4.00879  0.0000E+00  0.9797E-08  0.1840E-11  0.2067E-04  0.0000E+00 -0.4765E+12
   -1.224996    4.01017  0.0000E+00  0.1001E-07  0.2130E-11  0.1867E-04  0.0000E+00 -0.6333E+12
   -1.259995    4.01187  0.0000E+00  0.1021E-07  0.2609E-11  0.1637E-04  0.0000E+00 -0.9673E+12
   -1.294993    4.01426  0.0000E+00  0.1032E-07  0.3745E-11  0.1205E-04  0.0000E+00 -0.2009E+13
   -1.329991    4.01865  0.0000E+00  0.9848E-08  0.6391E-11  0.4815E-05  0.0000E+00 -0.5744E+13
   -1.364989    4.02860  0.0000E+00  0.7474E-08  0.1628E-10  0.7500E-06  0.0000E+00 -0.4621E+14
   -1.399987    4.07401  0.0000E+00  0.0000E+00  0.0000E+00  0.0000E+00  0.0000E+00  0.0000E+00
