 1 - depth, m
 2 - temperature, C
 3 - salinity, kg/kg
 4 - turbulent kinetic energy, m**2/s**2
 5 - dissipation rate, m**2/s**3
 6 - kinematic heat conductance, m**2/s
 7 - modulus of horizontal velocity, m/s
 8 - Richardson number, n/d
   -0.000000    0.00000  0.0000E+00  0.4702E-13  0.1132E-15  0.1000E-09  0.0000E+00  0.1269E+17
   -0.034998    0.19546  0.0000E+00  0.4702E-13  0.1132E-15  0.1000E-09  0.0000E+00  0.1208E+17
   -0.069996    0.39204  0.0000E+00  0.4702E-13  0.1132E-15  0.1000E-09  0.0000E+00  0.1143E+17
   -0.104994    0.58916  0.0000E+00  0.4702E-13  0.1132E-15  0.1000E-09  0.0000E+00  0.1064E+17
   -0.139993    0.78431  0.0000E+00  0.4702E-13  0.1132E-15  0.1000E-09  0.0000E+00  0.9797E+16
   -0.174992    0.97575  0.0000E+00  0.4702E-13  0.1132E-15  0.1000E-09  0.0000E+00  0.8965E+16
   -0.209991    1.16289  0.0000E+00  0.4702E-13  0.1132E-15  0.1000E-09  0.0000E+00  0.8151E+16
   -0.244991    1.34511  0.0000E+00  0.4702E-13  0.1132E-15  0.1000E-09  0.0000E+00  0.7366E+16
   -0.279990    1.52188  0.0000E+00  0.7363E-13  0.1132E-15  0.1000E-09  0.0000E+00  0.6616E+16
   -0.314990    1.69274  0.0000E+00  0.2755E-12  0.1132E-15  0.1000E-09  0.0000E+00  0.5937E+16
   -0.349990    1.85818  0.0000E+00  0.6779E-12  0.1524E-15  0.1000E-09  0.0000E+00  0.5291E+16
   -0.384991    2.01775  0.0000E+00  0.1359E-11  0.2482E-15  0.1000E-09  0.0000E+00  0.4679E+16
   -0.419991    2.17090  0.0000E+00  0.2490E-11  0.4196E-15  0.1000E-09  0.0000E+00  0.4128E+16
   -0.454992    2.31801  0.0000E+00  0.4376E-11  0.7094E-15  0.1000E-09  0.0000E+00  0.3645E+16
   -0.489992    2.46003  0.0000E+00  0.7547E-11  0.1193E-14  0.1000E-09  0.0000E+00  0.3224E+16
   -0.524993    2.59802  0.0000E+00  0.1345E-10  0.2083E-14  0.1000E-09  0.0000E+00  0.2954E+16
   -0.559994    2.73808  0.0000E+00  0.2505E-10  0.3806E-14  0.1000E-09  0.0000E+00  0.2738E+16
   -0.594995    2.88402  0.0000E+00  0.4938E-10  0.7364E-14  0.1000E-09  0.0000E+00  0.2479E+16
   -0.629996    3.03571  0.0000E+00  0.8854E-10  0.1300E-13  0.1000E-09  0.0000E+00  0.2004E+16
   -0.664997    3.17924  0.0000E+00  0.1510E-09  0.2185E-13  0.1000E-09  0.0000E+00  0.1582E+16
   -0.699998    3.31420  0.0000E+00  0.2528E-09  0.3599E-13  0.1000E-09  0.0000E+00  0.1214E+16
   -0.734999    3.44024  0.0000E+00  0.4206E-09  0.5893E-13  0.1684E-09  0.0000E+00  0.9133E+15
   -0.770000    3.55911  0.0000E+00  0.6975E-09  0.9619E-13  0.3722E-09  0.0000E+00  0.6760E+15
   -0.805001    3.67529  0.0000E+00  0.1154E-08  0.1566E-12  0.9079E-09  0.0000E+00  0.4529E+15
   -0.840002    3.78840  0.0000E+00  0.1900E-08  0.2539E-12  0.2735E-08  0.0000E+00  0.2460E+15
   -0.875003    3.89762  0.0000E+00  0.3099E-08  0.4079E-12  0.1858E-07  0.0000E+00  0.6165E+14
   -0.910004    3.99463  0.0000E+00  0.3727E-08  0.4929E-12  0.9150E-05  0.0000E+00 -0.2291E+12
   -0.945005    3.99643  0.0000E+00  0.4069E-08  0.5487E-12  0.1012E-04  0.0000E+00 -0.2466E+12
   -0.980005    3.99797  0.0000E+00  0.4388E-08  0.6104E-12  0.1064E-04  0.0000E+00 -0.2647E+12
   -1.015006    3.99939  0.0000E+00  0.4694E-08  0.6815E-12  0.1097E-04  0.0000E+00 -0.2901E+12
   -1.050006    4.00077  0.0000E+00  0.4995E-08  0.7665E-12  0.1105E-04  0.0000E+00 -0.3249E+12
   -1.085006    4.00216  0.0000E+00  0.5296E-08  0.8713E-12  0.1107E-04  0.0000E+00 -0.3765E+12
   -1.120006    4.00363  0.0000E+00  0.5593E-08  0.1002E-11  0.1049E-04  0.0000E+00 -0.4411E+12
   -1.155006    4.00521  0.0000E+00  0.5892E-08  0.1171E-11  0.9661E-05  0.0000E+00 -0.5340E+12
   -1.190005    4.00694  0.0000E+00  0.6205E-08  0.1401E-11  0.8743E-05  0.0000E+00 -0.6810E+12
   -1.225004    4.00897  0.0000E+00  0.6570E-08  0.1758E-11  0.8154E-05  0.0000E+00 -0.9792E+12
   -1.260003    4.01158  0.0000E+00  0.7011E-08  0.2372E-11  0.7650E-05  0.0000E+00 -0.1652E+13
   -1.295002    4.01547  0.0000E+00  0.7530E-08  0.3771E-11  0.6064E-05  0.0000E+00 -0.3757E+13
   -1.330001    4.02278  0.0000E+00  0.7524E-08  0.6496E-11  0.2856E-05  0.0000E+00 -0.1007E+14
   -1.364999    4.03745  0.0000E+00  0.6269E-08  0.1471E-10  0.6703E-06  0.0000E+00 -0.6131E+14
   -1.399996    4.08853  0.0000E+00  0.0000E+00  0.0000E+00  0.0000E+00  0.0000E+00  0.0000E+00
