 1 - depth, m
 2 - temperature, C
 3 - salinity, kg/kg
 4 - turbulent kinetic energy, m**2/s**2
 5 - dissipation rate, m**2/s**3
 6 - kinematic heat conductance, m**2/s
 7 - modulus of horizontal velocity, m/s
 8 - Richardson number, n/d
   -0.000000    2.26659  0.0000E+00  0.3559E-03  0.1162E-01  0.5105E-04  0.1585E+00 -0.3912E-03
   -0.034998    2.34309  0.0000E+00  0.2147E-03  0.5038E-02  0.1025E-03  0.5049E-01  0.7264E-02
   -0.069996    2.36136  0.0000E+00  0.1512E-03  0.2201E-02  0.1288E-03  0.3255E-01  0.1706E-01
   -0.104994    2.37285  0.0000E+00  0.1178E-03  0.9093E-03  0.1314E-03  0.2589E-01  0.8333E-02
   -0.139993    2.38065  0.0000E+00  0.9324E-04  0.3645E-03  0.1329E-03  0.2155E-01  0.1266E-01
   -0.174992    2.38680  0.0000E+00  0.7397E-04  0.1429E-03  0.1367E-03  0.1813E-01  0.2619E+00
   -0.209991    2.39208  0.0000E+00  0.5928E-04  0.5613E-04  0.1395E-03  0.1544E-01  0.3567E-01
   -0.244991    2.39689  0.0000E+00  0.4822E-04  0.2307E-04  0.1406E-03  0.1314E-01  0.2214E-01
   -0.279991    2.40147  0.0000E+00  0.3989E-04  0.1038E-04  0.1380E-03  0.1108E-01  0.2808E-01
   -0.314991    2.40619  0.0000E+00  0.3334E-04  0.5182E-05  0.1408E-03  0.9007E-02  0.1362E+00
   -0.349991    2.41078  0.0000E+00  0.2838E-04  0.2788E-05  0.1404E-03  0.7482E-02  0.8390E-01
   -0.384991    2.41551  0.0000E+00  0.2457E-04  0.1595E-05  0.1383E-03  0.6256E-02  0.6178E+00
   -0.419992    2.42053  0.0000E+00  0.2161E-04  0.9704E-06  0.1329E-03  0.5252E-02  0.2996E+00
   -0.454992    2.42634  0.0000E+00  0.1920E-04  0.6301E-06  0.1258E-03  0.4312E-02  0.5866E+00
   -0.489993    2.43398  0.0000E+00  0.1713E-04  0.4393E-06  0.1195E-03  0.3407E-02  0.2752E+01
   -0.524994    2.45060  0.0000E+00  0.1521E-04  0.3233E-06  0.1180E-03  0.2603E-02  0.2688E+03
   -0.559995    2.50037  0.0000E+00  0.1343E-04  0.2456E-06  0.1150E-03  0.2069E-02  0.1758E+05
   -0.594996    2.55067  0.0000E+00  0.1157E-04  0.1834E-06  0.1075E-03  0.1743E-02 -0.3734E+06
   -0.629997    2.58796  0.0000E+00  0.9923E-05  0.1386E-06  0.9641E-04  0.1583E-02 -0.2301E+06
   -0.664998    2.68024  0.0000E+00  0.8524E-05  0.1068E-06  0.8616E-04  0.1404E-02  0.1140E+09
   -0.699999    2.81791  0.0000E+00  0.7346E-05  0.8369E-07  0.8202E-04  0.1228E-02  0.1191E+11
   -0.735000    2.92341  0.0000E+00  0.6333E-05  0.6619E-07  0.8279E-04  0.1062E-02  0.5210E+12
   -0.770001    3.02087  0.0000E+00  0.5455E-05  0.5277E-07  0.8579E-04  0.9121E-03  0.5429E+13
   -0.805002    3.12392  0.0000E+00  0.4688E-05  0.4223E-07  0.9115E-04  0.7789E-03  0.4055E+13
   -0.840003    3.18213  0.0000E+00  0.4024E-05  0.3386E-07  0.8951E-04  0.6607E-03 -0.3135E+12
   -0.875004    3.22283  0.0000E+00  0.3445E-05  0.2715E-07  0.8766E-04  0.5561E-03 -0.2807E+12
   -0.910005    3.26432  0.0000E+00  0.2938E-05  0.2176E-07  0.8475E-04  0.4657E-03 -0.2924E+12
   -0.945006    3.30735  0.0000E+00  0.2496E-05  0.1741E-07  0.7935E-04  0.3844E-03 -0.3458E+12
   -0.980006    3.34898  0.0000E+00  0.2114E-05  0.1391E-07  0.7618E-04  0.3102E-03 -0.3512E+12
   -1.015007    3.38931  0.0000E+00  0.1785E-05  0.1110E-07  0.7281E-04  0.2426E-03 -0.3737E+12
   -1.050007    3.42578  0.0000E+00  0.1494E-05  0.8817E-08  0.6970E-04  0.1867E-03 -0.3860E+12
   -1.085007    3.46537  0.0000E+00  0.1229E-05  0.6895E-08  0.6688E-04  0.1402E-03 -0.3792E+12
   -1.120007    3.53350  0.0000E+00  0.1005E-05  0.5338E-08  0.6436E-04  0.1032E-03 -0.1473E+12
   -1.155007    3.60369  0.0000E+00  0.8213E-06  0.4107E-08  0.6200E-04  0.7297E-04  0.3672E+13
   -1.190007    3.68417  0.0000E+00  0.6803E-06  0.3192E-08  0.5940E-04  0.4768E-04  0.1011E+14
   -1.225006    3.74912  0.0000E+00  0.5717E-06  0.2526E-08  0.5622E-04  0.2860E-04  0.1979E+14
   -1.260005    3.79569  0.0000E+00  0.4854E-06  0.2048E-08  0.5088E-04  0.1627E-04  0.4090E+14
   -1.295004    3.83136  0.0000E+00  0.3963E-06  0.1682E-08  0.4267E-04  0.9315E-05  0.6186E+13
   -1.330002    3.86492  0.0000E+00  0.3035E-06  0.1548E-08  0.2409E-04  0.5541E-05  0.1977E+14
   -1.365000    3.90536  0.0000E+00  0.1699E-06  0.2699E-08  0.3015E-05  0.3299E-05 -0.1030E+15
   -1.399998    4.04353  0.0000E+00  0.0000E+00  0.0000E+00  0.0000E+00  0.3366E-05  0.0000E+00
