 1 - depth, m
 2 - temperature, C
 3 - salinity, kg/kg
 4 - turbulent kinetic energy, m**2/s**2
 5 - dissipation rate, m**2/s**3
 6 - kinematic heat conductance, m**2/s
 7 - modulus of horizontal velocity, m/s
 8 - Richardson number, n/d
   -0.000000    0.00000  0.0000E+00  0.4702E-13  0.1132E-15  0.1000E-09  0.0000E+00  0.7667E+16
   -0.034998    0.11684  0.0000E+00  0.4702E-13  0.1132E-15  0.1000E-09  0.0000E+00  0.7480E+16
   -0.069996    0.23457  0.0000E+00  0.4702E-13  0.1132E-15  0.1000E-09  0.0000E+00  0.7286E+16
   -0.104994    0.35317  0.0000E+00  0.4702E-13  0.1132E-15  0.1000E-09  0.0000E+00  0.7018E+16
   -0.139993    0.47142  0.0000E+00  0.4702E-13  0.1132E-15  0.1000E-09  0.0000E+00  0.6710E+16
   -0.174992    0.58857  0.0000E+00  0.4702E-13  0.1132E-15  0.1000E-09  0.0000E+00  0.6404E+16
   -0.209991    0.70451  0.0000E+00  0.4702E-13  0.1132E-15  0.1000E-09  0.0000E+00  0.6099E+16
   -0.244991    0.81909  0.0000E+00  0.4702E-13  0.1132E-15  0.1000E-09  0.0000E+00  0.5797E+16
   -0.279991    0.93220  0.0000E+00  0.4702E-13  0.1132E-15  0.1000E-09  0.0000E+00  0.5499E+16
   -0.314991    1.04373  0.0000E+00  0.4702E-13  0.1132E-15  0.1000E-09  0.0000E+00  0.5249E+16
   -0.349991    1.15449  0.0000E+00  0.4702E-13  0.1132E-15  0.1000E-09  0.0000E+00  0.5004E+16
   -0.384991    1.26448  0.0000E+00  0.4702E-13  0.1132E-15  0.1000E-09  0.0000E+00  0.4759E+16
   -0.419992    1.37359  0.0000E+00  0.4702E-13  0.1132E-15  0.1000E-09  0.0000E+00  0.4512E+16
   -0.454992    1.48160  0.0000E+00  0.4702E-13  0.1132E-15  0.1000E-09  0.0000E+00  0.4282E+16
   -0.489993    1.58880  0.0000E+00  0.4702E-13  0.1132E-15  0.1000E-09  0.0000E+00  0.4097E+16
   -0.524994    1.69626  0.0000E+00  0.4702E-13  0.1132E-15  0.1000E-09  0.0000E+00  0.4122E+16
   -0.559995    1.80994  0.0000E+00  0.4702E-13  0.1132E-15  0.1000E-09  0.0000E+00  0.4279E+16
   -0.594996    1.93483  0.0000E+00  0.4702E-13  0.1132E-15  0.1000E-09  0.0000E+00  0.4400E+16
   -0.629997    2.07207  0.0000E+00  0.4702E-13  0.1132E-15  0.1000E-09  0.0000E+00  0.4002E+16
   -0.664998    2.20635  0.0000E+00  0.4702E-13  0.1132E-15  0.1000E-09  0.0000E+00  0.3619E+16
   -0.699999    2.33746  0.0000E+00  0.4702E-13  0.1132E-15  0.1000E-09  0.0000E+00  0.3257E+16
   -0.735000    2.46537  0.0000E+00  0.4702E-13  0.1132E-15  0.1000E-09  0.0000E+00  0.2936E+16
   -0.770001    2.59096  0.0000E+00  0.4702E-13  0.1132E-15  0.1000E-09  0.0000E+00  0.2669E+16
   -0.805002    2.71613  0.0000E+00  0.5968E-13  0.1132E-15  0.1000E-09  0.0000E+00  0.2398E+16
   -0.840003    2.84044  0.0000E+00  0.2620E-12  0.1628E-15  0.1000E-09  0.0000E+00  0.2128E+16
   -0.875004    2.96361  0.0000E+00  0.7567E-12  0.3802E-15  0.1000E-09  0.0000E+00  0.1866E+16
   -0.910005    3.08561  0.0000E+00  0.1935E-11  0.9178E-15  0.1000E-09  0.0000E+00  0.1592E+16
   -0.945006    3.20486  0.0000E+00  0.4750E-11  0.2182E-14  0.1000E-09  0.0000E+00  0.1328E+16
   -0.980007    3.32064  0.0000E+00  0.1148E-10  0.5133E-14  0.1000E-09  0.0000E+00  0.1079E+16
   -1.015007    3.43258  0.0000E+00  0.2769E-10  0.1206E-13  0.1000E-09  0.0000E+00  0.8631E+15
   -1.050008    3.54214  0.0000E+00  0.6686E-10  0.2840E-13  0.1101E-09  0.0000E+00  0.6652E+15
   -1.085008    3.65033  0.0000E+00  0.1614E-09  0.6688E-13  0.3455E-09  0.0000E+00  0.4980E+15
   -1.120008    3.76362  0.0000E+00  0.3843E-09  0.1555E-12  0.1349E-08  0.0000E+00  0.2952E+15
   -1.155007    3.87676  0.0000E+00  0.9026E-09  0.3572E-12  0.9528E-08  0.0000E+00  0.9411E+14
   -1.190007    3.98489  0.0000E+00  0.1888E-08  0.7424E-12  0.1007E-05  0.0000E+00 -0.1392E+13
   -1.225006    3.99989  0.0000E+00  0.2954E-08  0.1326E-11  0.2063E-05  0.0000E+00 -0.2653E+13
   -1.260005    4.00918  0.0000E+00  0.4125E-08  0.2235E-11  0.2792E-05  0.0000E+00 -0.4202E+13
   -1.295004    4.01886  0.0000E+00  0.5509E-08  0.3973E-11  0.3134E-05  0.0000E+00 -0.7813E+13
   -1.330002    4.03167  0.0000E+00  0.6118E-08  0.6481E-11  0.2019E-05  0.0000E+00 -0.1567E+14
   -1.365001    4.05002  0.0000E+00  0.5345E-08  0.1286E-10  0.5823E-06  0.0000E+00 -0.6695E+14
   -1.399998    4.09864  0.0000E+00  0.0000E+00  0.0000E+00  0.0000E+00  0.0000E+00  0.0000E+00
