 1 - depth, m
 2 - temperature, C
 3 - salinity, kg/kg
 4 - turbulent kinetic energy, m**2/s**2
 5 - dissipation rate, m**2/s**3
 6 - kinematic heat conductance, m**2/s
 7 - modulus of horizontal velocity, m/s
 8 - Richardson number, n/d
   -0.000000    0.00000  0.0000E+00  0.5686E-10  0.4309E-13  0.1000E-09  0.0000E+00  0.2283E+17
   -0.034998    0.35970  0.0000E+00  0.1281E-09  0.3654E-13  0.1000E-09  0.0000E+00  0.1994E+17
   -0.069995    0.70825  0.0000E+00  0.2616E-09  0.4611E-13  0.1000E-09  0.0000E+00  0.1737E+17
   -0.104994    1.04737  0.0000E+00  0.4754E-09  0.6868E-13  0.1000E-09  0.0000E+00  0.1501E+17
   -0.139992    1.37754  0.0000E+00  0.8098E-09  0.1075E-12  0.1000E-09  0.0000E+00  0.1283E+17
   -0.174991    1.69927  0.0000E+00  0.1334E-08  0.1701E-12  0.1000E-09  0.0000E+00  0.1085E+17
   -0.209990    2.01346  0.0000E+00  0.2158E-08  0.2688E-12  0.1013E-09  0.0000E+00  0.9027E+16
   -0.244989    2.32116  0.0000E+00  0.3459E-08  0.4236E-12  0.1509E-09  0.0000E+00  0.7348E+16
   -0.279989    2.62361  0.0000E+00  0.5511E-08  0.6657E-12  0.2985E-09  0.0000E+00  0.5787E+16
   -0.314988    2.92230  0.0000E+00  0.8795E-08  0.1049E-11  0.6368E-09  0.0000E+00  0.4285E+16
   -0.349988    3.21641  0.0000E+00  0.1410E-07  0.1661E-11  0.1518E-08  0.0000E+00  0.2868E+16
   -0.384988    3.50693  0.0000E+00  0.2261E-07  0.2633E-11  0.4718E-08  0.0000E+00  0.1508E+16
   -0.419989    3.79183  0.0000E+00  0.3532E-07  0.4073E-11  0.5311E-07  0.0000E+00  0.3024E+15
   -0.454989    4.01907  0.0000E+00  0.3594E-07  0.4149E-11  0.1059E-03  0.0000E+00 -0.2040E+12
   -0.489989    4.01948  0.0000E+00  0.3625E-07  0.4192E-11  0.1036E-03  0.0000E+00 -0.2115E+12
   -0.524990    4.01991  0.0000E+00  0.3659E-07  0.4246E-11  0.1039E-03  0.0000E+00 -0.2235E+12
   -0.559991    4.02035  0.0000E+00  0.3700E-07  0.4318E-11  0.1038E-03  0.0000E+00 -0.2471E+12
   -0.594991    4.02083  0.0000E+00  0.3755E-07  0.4424E-11  0.1041E-03  0.0000E+00 -0.2727E+12
   -0.629992    4.02136  0.0000E+00  0.3812E-07  0.4539E-11  0.1045E-03  0.0000E+00 -0.2785E+12
   -0.664993    4.02188  0.0000E+00  0.3865E-07  0.4660E-11  0.1047E-03  0.0000E+00 -0.2848E+12
   -0.699994    4.02241  0.0000E+00  0.3917E-07  0.4786E-11  0.1046E-03  0.0000E+00 -0.2933E+12
   -0.734995    4.02295  0.0000E+00  0.3966E-07  0.4920E-11  0.1044E-03  0.0000E+00 -0.3025E+12
   -0.769996    4.02350  0.0000E+00  0.4014E-07  0.5063E-11  0.1039E-03  0.0000E+00 -0.3117E+12
   -0.804997    4.02406  0.0000E+00  0.4060E-07  0.5216E-11  0.1032E-03  0.0000E+00 -0.3218E+12
   -0.839997    4.02462  0.0000E+00  0.4104E-07  0.5381E-11  0.1023E-03  0.0000E+00 -0.3336E+12
   -0.874998    4.02519  0.0000E+00  0.4145E-07  0.5561E-11  0.1011E-03  0.0000E+00 -0.3474E+12
   -0.909999    4.02578  0.0000E+00  0.4185E-07  0.5757E-11  0.9968E-04  0.0000E+00 -0.3618E+12
   -0.944999    4.02639  0.0000E+00  0.4221E-07  0.5970E-11  0.9798E-04  0.0000E+00 -0.3777E+12
   -0.979999    4.02701  0.0000E+00  0.4254E-07  0.6204E-11  0.9595E-04  0.0000E+00 -0.3969E+12
   -1.015000    4.02765  0.0000E+00  0.4283E-07  0.6467E-11  0.9357E-04  0.0000E+00 -0.4239E+12
   -1.050000    4.02833  0.0000E+00  0.4310E-07  0.6771E-11  0.9071E-04  0.0000E+00 -0.4575E+12
   -1.085000    4.02904  0.0000E+00  0.4333E-07  0.7132E-11  0.8746E-04  0.0000E+00 -0.4890E+12
   -1.119999    4.02979  0.0000E+00  0.4351E-07  0.7561E-11  0.8370E-04  0.0000E+00 -0.5230E+12
   -1.154999    4.03058  0.0000E+00  0.4364E-07  0.8076E-11  0.7947E-04  0.0000E+00 -0.5638E+12
   -1.189998    4.03141  0.0000E+00  0.4370E-07  0.8717E-11  0.7445E-04  0.0000E+00 -0.6213E+12
   -1.224997    4.03231  0.0000E+00  0.4368E-07  0.9620E-11  0.6818E-04  0.0000E+00 -0.7262E+12
   -1.259996    4.03334  0.0000E+00  0.4352E-07  0.1113E-10  0.5908E-04  0.0000E+00 -0.9481E+12
   -1.294994    4.03465  0.0000E+00  0.4292E-07  0.1476E-10  0.4636E-04  0.0000E+00 -0.1485E+13
   -1.329993    4.03663  0.0000E+00  0.4102E-07  0.2441E-10  0.1906E-04  0.0000E+00 -0.3802E+13
   -1.364990    4.04136  0.0000E+00  0.3020E-07  0.8657E-10  0.1818E-05  0.0000E+00 -0.5165E+14
   -1.399988    4.08458  0.0000E+00  0.0000E+00  0.0000E+00  0.0000E+00  0.0000E+00  0.0000E+00
