 1 - depth, m
 2 - temperature, C
 3 - salinity, kg/kg
 4 - turbulent kinetic energy, m**2/s**2
 5 - dissipation rate, m**2/s**3
 6 - kinematic heat conductance, m**2/s
 7 - modulus of horizontal velocity, m/s
 8 - Richardson number, n/d
   -0.000000   12.72717  0.0000E+00  0.3625E-04  0.1740E-04  0.2490E-04  0.3466E-01  0.2328E+00
   -0.034998   12.76100  0.0000E+00  0.2230E-04  0.4817E-05  0.4660E-04  0.1508E-01 -0.1100E+00
   -0.069996   12.77230  0.0000E+00  0.1711E-04  0.1791E-05  0.6557E-04  0.1046E-01 -0.9980E-01
   -0.104994   12.77949  0.0000E+00  0.1427E-04  0.9128E-06  0.1043E-03  0.8138E-02  0.5432E+02
   -0.139993   12.78442  0.0000E+00  0.1239E-04  0.5089E-06  0.1398E-03  0.6582E-02  0.1521E+02
   -0.174992   12.78819  0.0000E+00  0.1108E-04  0.3043E-06  0.1803E-03  0.5424E-02  0.5269E+03
   -0.209991   12.79117  0.0000E+00  0.1014E-04  0.1967E-06  0.2486E-03  0.4507E-02  0.4578E+03
   -0.244991   12.79340  0.0000E+00  0.9452E-05  0.1370E-06  0.2869E-03  0.3773E-02  0.8293E+01
   -0.279990   12.79530  0.0000E+00  0.8902E-05  0.1012E-06  0.3101E-03  0.3133E-02  0.7907E+01
   -0.314990   12.79702  0.0000E+00  0.8415E-05  0.7799E-07  0.3430E-03  0.2555E-02  0.9115E+01
   -0.349991   12.79853  0.0000E+00  0.8003E-05  0.6217E-07  0.3745E-03  0.2089E-02  0.7764E+01
   -0.384991   12.79988  0.0000E+00  0.7661E-05  0.5092E-07  0.4120E-03  0.1708E-02  0.1293E+02
   -0.419991   12.80108  0.0000E+00  0.7381E-05  0.4279E-07  0.4423E-03  0.1393E-02  0.2963E+02
   -0.454992   12.80217  0.0000E+00  0.7142E-05  0.3680E-07  0.4694E-03  0.1116E-02  0.1023E+02
   -0.489993   12.80320  0.0000E+00  0.6926E-05  0.3229E-07  0.4960E-03  0.8669E-03  0.4343E+01
   -0.524993   12.80416  0.0000E+00  0.6708E-05  0.2854E-07  0.5516E-03  0.6475E-03  0.2068E+01
   -0.559994   12.80498  0.0000E+00  0.6491E-05  0.2529E-07  0.6198E-03  0.4897E-03  0.1290E+01
   -0.594995   12.80562  0.0000E+00  0.6279E-05  0.2233E-07  0.6623E-03  0.3918E-03  0.1682E+01
   -0.629996   12.80614  0.0000E+00  0.6122E-05  0.2021E-07  0.6734E-03  0.3409E-03  0.1892E+02
   -0.664997   12.80665  0.0000E+00  0.6002E-05  0.1862E-07  0.6808E-03  0.3015E-03  0.8732E+00
   -0.699999   12.80716  0.0000E+00  0.5903E-05  0.1737E-07  0.6904E-03  0.2659E-03  0.9246E+00
   -0.735000   12.80767  0.0000E+00  0.5821E-05  0.1639E-07  0.6982E-03  0.2344E-03  0.9609E+00
   -0.770001   12.80818  0.0000E+00  0.5753E-05  0.1563E-07  0.7037E-03  0.2070E-03  0.1042E+01
   -0.805002   12.80869  0.0000E+00  0.5696E-05  0.1505E-07  0.7066E-03  0.1835E-03  0.1163E+01
   -0.840003   12.80920  0.0000E+00  0.5647E-05  0.1463E-07  0.7069E-03  0.1633E-03  0.1331E+01
   -0.875004   12.80972  0.0000E+00  0.5605E-05  0.1434E-07  0.7043E-03  0.1457E-03  0.1562E+01
   -0.910004   12.81025  0.0000E+00  0.5566E-05  0.1416E-07  0.6983E-03  0.1304E-03  0.1872E+01
   -0.945005   12.81080  0.0000E+00  0.5529E-05  0.1410E-07  0.6888E-03  0.1167E-03  0.2244E+01
   -0.980006   12.81137  0.0000E+00  0.5494E-05  0.1414E-07  0.6755E-03  0.1042E-03  0.2700E+01
   -1.015006   12.81197  0.0000E+00  0.5456E-05  0.1429E-07  0.6581E-03  0.9278E-04  0.3302E+01
   -1.050007   12.81260  0.0000E+00  0.5415E-05  0.1457E-07  0.6354E-03  0.8241E-04  0.4278E+01
   -1.085007   12.81326  0.0000E+00  0.5366E-05  0.1502E-07  0.6085E-03  0.7295E-04  0.5726E+01
   -1.120007   12.81396  0.0000E+00  0.5309E-05  0.1572E-07  0.5712E-03  0.6430E-04  0.8076E+01
   -1.155006   12.81474  0.0000E+00  0.5240E-05  0.1674E-07  0.5384E-03  0.5591E-04  0.1124E+02
   -1.190006   12.81560  0.0000E+00  0.5154E-05  0.1841E-07  0.4805E-03  0.4792E-04  0.2751E+01
   -1.225005   12.81667  0.0000E+00  0.5033E-05  0.2125E-07  0.4509E-03  0.4054E-04 -0.4957E+03
   -1.260004   12.81782  0.0000E+00  0.4835E-05  0.2748E-07  0.3374E-03  0.3270E-04 -0.8808E+04
   -1.295003   12.82024  0.0000E+00  0.4438E-05  0.4360E-07  0.3352E-03  0.2441E-04  0.3019E+06
   -1.330001   12.82115  0.0000E+00  0.3753E-05  0.9095E-07  0.1336E-03  0.2047E-04  0.4069E+06
   -1.364999   12.83294  0.0000E+00  0.2470E-05  0.2292E-06  0.6113E-04  0.1312E-04 -0.3395E+07
   -1.399997   12.84217  0.0000E+00  0.0000E+00  0.0000E+00  0.0000E+00  0.1739E-04  0.0000E+00
