 1 - depth, m
 2 - temperature, C
 3 - salinity, kg/kg
 4 - turbulent kinetic energy, m**2/s**2
 5 - dissipation rate, m**2/s**3
 6 - kinematic heat conductance, m**2/s
 7 - modulus of horizontal velocity, m/s
 8 - Richardson number, n/d
   -0.000000    0.00000  0.0000E+00  0.4702E-13  0.1132E-15  0.1000E-09  0.0000E+00  0.6151E+16
   -0.034998    0.09344  0.0000E+00  0.4702E-13  0.1132E-15  0.1000E-09  0.0000E+00  0.6048E+16
   -0.069996    0.18772  0.0000E+00  0.4702E-13  0.1132E-15  0.1000E-09  0.0000E+00  0.5943E+16
   -0.104995    0.28284  0.0000E+00  0.4702E-13  0.1132E-15  0.1000E-09  0.0000E+00  0.5782E+16
   -0.139993    0.37796  0.0000E+00  0.4702E-13  0.1132E-15  0.1000E-09  0.0000E+00  0.5591E+16
   -0.174993    0.47253  0.0000E+00  0.4702E-13  0.1132E-15  0.1000E-09  0.0000E+00  0.5399E+16
   -0.209992    0.56649  0.0000E+00  0.4702E-13  0.1132E-15  0.1000E-09  0.0000E+00  0.5206E+16
   -0.244992    0.65976  0.0000E+00  0.4702E-13  0.1132E-15  0.1000E-09  0.0000E+00  0.5013E+16
   -0.279991    0.75224  0.0000E+00  0.4702E-13  0.1132E-15  0.1000E-09  0.0000E+00  0.4820E+16
   -0.314991    0.84388  0.0000E+00  0.4702E-13  0.1132E-15  0.1000E-09  0.0000E+00  0.4677E+16
   -0.349992    0.93558  0.0000E+00  0.4702E-13  0.1132E-15  0.1000E-09  0.0000E+00  0.4538E+16
   -0.384992    1.02740  0.0000E+00  0.4702E-13  0.1132E-15  0.1000E-09  0.0000E+00  0.4397E+16
   -0.419993    1.11931  0.0000E+00  0.4702E-13  0.1132E-15  0.1000E-09  0.0000E+00  0.4241E+16
   -0.454993    1.21099  0.0000E+00  0.4702E-13  0.1132E-15  0.1000E-09  0.0000E+00  0.4093E+16
   -0.489994    1.30259  0.0000E+00  0.4702E-13  0.1132E-15  0.1000E-09  0.0000E+00  0.3997E+16
   -0.524995    1.39530  0.0000E+00  0.4702E-13  0.1132E-15  0.1000E-09  0.0000E+00  0.4150E+16
   -0.559996    1.49537  0.0000E+00  0.4702E-13  0.1132E-15  0.1000E-09  0.0000E+00  0.4485E+16
   -0.594997    1.60844  0.0000E+00  0.4702E-13  0.1132E-15  0.1000E-09  0.0000E+00  0.4803E+16
   -0.629998    1.73611  0.0000E+00  0.4702E-13  0.1132E-15  0.1000E-09  0.0000E+00  0.4469E+16
   -0.665000    1.86204  0.0000E+00  0.4702E-13  0.1132E-15  0.1000E-09  0.0000E+00  0.4142E+16
   -0.700001    1.98607  0.0000E+00  0.4702E-13  0.1132E-15  0.1000E-09  0.0000E+00  0.3831E+16
   -0.735002    2.10831  0.0000E+00  0.4702E-13  0.1132E-15  0.1000E-09  0.0000E+00  0.3553E+16
   -0.770003    2.22955  0.0000E+00  0.4702E-13  0.1132E-15  0.1000E-09  0.0000E+00  0.3320E+16
   -0.805004    2.35119  0.0000E+00  0.4702E-13  0.1132E-15  0.1000E-09  0.0000E+00  0.3076E+16
   -0.840005    2.47283  0.0000E+00  0.4702E-13  0.1132E-15  0.1000E-09  0.0000E+00  0.2828E+16
   -0.875006    2.59425  0.0000E+00  0.4702E-13  0.1132E-15  0.1000E-09  0.0000E+00  0.2583E+16
   -0.910007    2.71548  0.0000E+00  0.4702E-13  0.1132E-15  0.1000E-09  0.0000E+00  0.2311E+16
   -0.945008    2.83495  0.0000E+00  0.4702E-13  0.1132E-15  0.1000E-09  0.0000E+00  0.2039E+16
   -0.980009    2.95201  0.0000E+00  0.6008E-13  0.1132E-15  0.1000E-09  0.0000E+00  0.1777E+16
   -1.015009    3.06633  0.0000E+00  0.2674E-12  0.2817E-15  0.1000E-09  0.0000E+00  0.1554E+16
   -1.050010    3.17967  0.0000E+00  0.9880E-12  0.9572E-15  0.1000E-09  0.0000E+00  0.1348E+16
   -1.085010    3.29303  0.0000E+00  0.3484E-11  0.3257E-14  0.1000E-09  0.0000E+00  0.1191E+16
   -1.120010    3.41176  0.0000E+00  0.1194E-10  0.1083E-13  0.1000E-09  0.0000E+00  0.9716E+15
   -1.155010    3.53127  0.0000E+00  0.4034E-10  0.3552E-13  0.1197E-09  0.0000E+00  0.7510E+15
   -1.190010    3.65197  0.0000E+00  0.1355E-09  0.1160E-12  0.5446E-09  0.0000E+00  0.5348E+15
   -1.225009    3.77703  0.0000E+00  0.4741E-09  0.3958E-12  0.3130E-08  0.0000E+00  0.3117E+15
   -1.260008    3.92236  0.0000E+00  0.1696E-08  0.1393E-11  0.1183E-06  0.0000E+00  0.1592E+14
   -1.295007    4.03174  0.0000E+00  0.5074E-08  0.4669E-11  0.2448E-05  0.0000E+00 -0.1314E+14
   -1.330005    4.04748  0.0000E+00  0.6204E-08  0.7366E-11  0.1918E-05  0.0000E+00 -0.2019E+14
   -1.365004    4.06582  0.0000E+00  0.5423E-08  0.1338E-10  0.5778E-06  0.0000E+00 -0.7057E+14
   -1.400001    4.11019  0.0000E+00  0.0000E+00  0.0000E+00  0.0000E+00  0.0000E+00  0.0000E+00
