 1 - depth, m
 2 - temperature, C
 3 - salinity, kg/kg
 4 - turbulent kinetic energy, m**2/s**2
 5 - dissipation rate, m**2/s**3
 6 - kinematic heat conductance, m**2/s
 7 - modulus of horizontal velocity, m/s
 8 - Richardson number, n/d
   -0.000000   13.07722  0.0000E+00  0.5324E-03  0.1710E-02  0.9212E-04  0.2710E+00  0.2687E+00
   -0.034998   13.16704  0.0000E+00  0.2670E-03  0.7769E-03  0.1273E-03  0.8372E-01 -0.2210E-02
   -0.069996   13.19903  0.0000E+00  0.1733E-03  0.2675E-03  0.1826E-03  0.4810E-01 -0.8044E-01
   -0.104994   13.21264  0.0000E+00  0.1356E-03  0.1640E-03  0.1955E-03  0.3698E-01 -0.6976E-01
   -0.139993   13.21988  0.0000E+00  0.1124E-03  0.1064E-03  0.2021E-03  0.3029E-01 -0.2765E-01
   -0.174992   13.22498  0.0000E+00  0.9596E-04  0.6997E-04  0.2082E-03  0.2552E-01 -0.5207E-01
   -0.209991   13.22904  0.0000E+00  0.8317E-04  0.4579E-04  0.2167E-03  0.2180E-01 -0.3007E+00
   -0.244991   13.23239  0.0000E+00  0.7313E-04  0.2989E-04  0.2257E-03  0.1877E-01  0.1653E+01
   -0.279991   13.23542  0.0000E+00  0.6517E-04  0.1955E-04  0.2277E-03  0.1610E-01  0.1449E+00
   -0.314991   13.23875  0.0000E+00  0.5808E-04  0.1285E-04  0.2412E-03  0.1339E-01  0.1558E+02
   -0.349991   13.24141  0.0000E+00  0.5220E-04  0.8501E-05  0.2588E-03  0.1144E-01  0.1772E+02
   -0.384991   13.24386  0.0000E+00  0.4726E-04  0.5672E-05  0.2746E-03  0.9863E-02  0.1709E+03
   -0.419992   13.24598  0.0000E+00  0.4315E-04  0.3840E-05  0.2870E-03  0.8569E-02  0.2419E+01
   -0.454992   13.24813  0.0000E+00  0.3965E-04  0.2664E-05  0.2985E-03  0.7331E-02  0.1735E+03
   -0.489993   13.25037  0.0000E+00  0.3661E-04  0.1931E-05  0.3124E-03  0.6140E-02  0.4225E+02
   -0.524994   13.25282  0.0000E+00  0.3372E-04  0.1444E-05  0.3361E-03  0.5071E-02 -0.1977E+02
   -0.559995   13.25486  0.0000E+00  0.3093E-04  0.1097E-05  0.3765E-03  0.4304E-02 -0.4540E+02
   -0.594996   13.25616  0.0000E+00  0.2793E-04  0.8024E-06  0.4027E-03  0.3795E-02  0.1197E+04
   -0.629997   13.25641  0.0000E+00  0.2531E-04  0.5972E-06  0.4352E-03  0.3518E-02  0.1766E+04
   -0.664998   13.25744  0.0000E+00  0.2309E-04  0.4549E-06  0.4647E-03  0.3212E-02  0.1561E+04
   -0.699999   13.25863  0.0000E+00  0.2117E-04  0.3539E-06  0.4936E-03  0.2904E-02  0.2073E+03
   -0.735000   13.25963  0.0000E+00  0.1949E-04  0.2786E-06  0.5289E-03  0.2611E-02  0.2737E+03
   -0.770001   13.26073  0.0000E+00  0.1801E-04  0.2215E-06  0.5504E-03  0.2339E-02  0.1747E+03
   -0.805002   13.26158  0.0000E+00  0.1668E-04  0.1795E-06  0.5674E-03  0.2092E-02  0.3297E+03
   -0.840003   13.26253  0.0000E+00  0.1549E-04  0.1494E-06  0.5721E-03  0.1858E-02  0.1695E+03
   -0.875004   13.26333  0.0000E+00  0.1441E-04  0.1264E-06  0.5753E-03  0.1645E-02  0.7259E+02
   -0.910005   13.26420  0.0000E+00  0.1343E-04  0.1082E-06  0.5740E-03  0.1451E-02  0.5954E+02
   -0.945006   13.26500  0.0000E+00  0.1256E-04  0.9407E-07  0.5703E-03  0.1272E-02  0.4448E+03
   -0.980006   13.26584  0.0000E+00  0.1175E-04  0.8293E-07  0.5607E-03  0.1105E-02  0.1480E+03
   -1.015007   13.26668  0.0000E+00  0.1101E-04  0.7431E-07  0.5487E-03  0.9482E-03  0.3797E+04
   -1.050007   13.26753  0.0000E+00  0.1033E-04  0.6800E-07  0.5343E-03  0.8090E-03  0.3921E+03
   -1.085007   13.26839  0.0000E+00  0.9694E-05  0.6376E-07  0.5124E-03  0.6896E-03  0.4536E+03
   -1.120007   13.26930  0.0000E+00  0.9095E-05  0.6211E-07  0.4816E-03  0.5883E-03  0.6211E+03
   -1.155007   13.27030  0.0000E+00  0.8513E-05  0.6451E-07  0.4516E-03  0.4954E-03  0.8687E+03
   -1.190007   13.27148  0.0000E+00  0.7913E-05  0.7373E-07  0.4050E-03  0.4084E-03  0.1289E+04
   -1.225006   13.27300  0.0000E+00  0.7251E-05  0.9514E-07  0.3701E-03  0.3215E-03  0.2594E+05
   -1.260005   13.27484  0.0000E+00  0.6448E-05  0.1467E-06  0.2945E-03  0.2415E-03  0.1773E+04
   -1.295004   13.27881  0.0000E+00  0.5476E-05  0.2787E-06  0.2667E-03  0.1697E-03  0.5598E+05
   -1.330002   13.27809  0.0000E+00  0.4299E-05  0.6728E-06  0.1392E-03  0.1503E-03  0.4750E+06
   -1.365000   13.29273  0.0000E+00  0.2964E-05  0.1314E-05  0.9674E-04  0.9616E-04 -0.6928E+09
   -1.399998   13.29846  0.0000E+00  0.0000E+00  0.0000E+00  0.0000E+00  0.1749E-03  0.0000E+00
