 1 - depth, m
 2 - temperature, C
 3 - salinity, kg/kg
 4 - turbulent kinetic energy, m**2/s**2
 5 - dissipation rate, m**2/s**3
 6 - kinematic heat conductance, m**2/s
 7 - modulus of horizontal velocity, m/s
 8 - Richardson number, n/d
   -0.000000   15.29371  0.0000E+00  0.3167E-03  0.4849E-03  0.6486E-04  0.1948E+00  0.1016E-01
   -0.034998   15.37873  0.0000E+00  0.1674E-03  0.1574E-03  0.1128E-03  0.6062E-01 -0.4920E-01
   -0.069996   15.40022  0.0000E+00  0.1129E-03  0.4732E-04  0.1470E-03  0.3746E-01 -0.7698E-01
   -0.104994   15.41233  0.0000E+00  0.8934E-04  0.2555E-04  0.1544E-03  0.2932E-01 -0.4531E-01
   -0.139993   15.41952  0.0000E+00  0.7404E-04  0.1525E-04  0.1622E-03  0.2431E-01 -0.4073E-01
   -0.174992   15.42497  0.0000E+00  0.6293E-04  0.9396E-05  0.1703E-03  0.2058E-01 -0.5164E-01
   -0.209992   15.42916  0.0000E+00  0.5444E-04  0.5761E-05  0.1796E-03  0.1758E-01 -0.2947E-01
   -0.244991   15.43270  0.0000E+00  0.4790E-04  0.3551E-05  0.1880E-03  0.1502E-01  0.3087E-01
   -0.279991   15.43588  0.0000E+00  0.4264E-04  0.2276E-05  0.1940E-03  0.1273E-01  0.2611E+01
   -0.314991   15.43915  0.0000E+00  0.3797E-04  0.1513E-05  0.2074E-03  0.1049E-01  0.3028E+03
   -0.349991   15.44185  0.0000E+00  0.3407E-04  0.1050E-05  0.2201E-03  0.8829E-02  0.4842E+01
   -0.384991   15.44430  0.0000E+00  0.3082E-04  0.7580E-06  0.2363E-03  0.7486E-02  0.2453E+02
   -0.419992   15.44659  0.0000E+00  0.2813E-04  0.5710E-06  0.2579E-03  0.6365E-02  0.9355E+02
   -0.454993   15.44867  0.0000E+00  0.2587E-04  0.4472E-06  0.2878E-03  0.5344E-02  0.2583E+02
   -0.489993   15.45069  0.0000E+00  0.2392E-04  0.3635E-06  0.3199E-03  0.4400E-02  0.9412E+02
   -0.524994   15.45252  0.0000E+00  0.2205E-04  0.3006E-06  0.3727E-03  0.3559E-02  0.7749E+02
   -0.559995   15.45404  0.0000E+00  0.2021E-04  0.2490E-06  0.4220E-03  0.2927E-02  0.8903E+04
   -0.594996   15.45524  0.0000E+00  0.1823E-04  0.2008E-06  0.4699E-03  0.2489E-02  0.3530E+04
   -0.629997   15.45608  0.0000E+00  0.1659E-04  0.1641E-06  0.5104E-03  0.2227E-02  0.3831E+05
   -0.664999   15.45698  0.0000E+00  0.1521E-04  0.1362E-06  0.5204E-03  0.1996E-02  0.5135E+04
   -0.700000   15.45786  0.0000E+00  0.1398E-04  0.1137E-06  0.5269E-03  0.1768E-02  0.1116E+05
   -0.735001   15.45871  0.0000E+00  0.1290E-04  0.9561E-07  0.5369E-03  0.1547E-02  0.4699E+03
   -0.770002   15.45953  0.0000E+00  0.1196E-04  0.8135E-07  0.5527E-03  0.1349E-02  0.5124E+03
   -0.805003   15.46030  0.0000E+00  0.1113E-04  0.6987E-07  0.5542E-03  0.1175E-02  0.3295E+03
   -0.840004   15.46106  0.0000E+00  0.1041E-04  0.6068E-07  0.5590E-03  0.1016E-02  0.1533E+03
   -0.875005   15.46181  0.0000E+00  0.9775E-05  0.5335E-07  0.5625E-03  0.8768E-03  0.3174E+03
   -0.910006   15.46255  0.0000E+00  0.9208E-05  0.4746E-07  0.5562E-03  0.7572E-03  0.3849E+03
   -0.945007   15.46328  0.0000E+00  0.8694E-05  0.4275E-07  0.5502E-03  0.6467E-03  0.4440E+03
   -0.980007   15.46402  0.0000E+00  0.8237E-05  0.3920E-07  0.5388E-03  0.5485E-03  0.5614E+03
   -1.015008   15.46476  0.0000E+00  0.7829E-05  0.3665E-07  0.5240E-03  0.4612E-03  0.7114E+03
   -1.050008   15.46552  0.0000E+00  0.7464E-05  0.3502E-07  0.5045E-03  0.3876E-03  0.9344E+03
   -1.085008   15.46630  0.0000E+00  0.7132E-05  0.3432E-07  0.4842E-03  0.3273E-03  0.1280E+04
   -1.120008   15.46712  0.0000E+00  0.6820E-05  0.3480E-07  0.4550E-03  0.2785E-03  0.1825E+04
   -1.155008   15.46802  0.0000E+00  0.6507E-05  0.3707E-07  0.4355E-03  0.2354E-03  0.2534E+04
   -1.190008   15.46902  0.0000E+00  0.6152E-05  0.4285E-07  0.3857E-03  0.1956E-03  0.3547E+04
   -1.225007   15.47045  0.0000E+00  0.5736E-05  0.5405E-07  0.3591E-03  0.1516E-03  0.1397E+05
   -1.260006   15.47190  0.0000E+00  0.5164E-05  0.8415E-07  0.2798E-03  0.1155E-03  0.8034E+04
   -1.295005   15.47606  0.0000E+00  0.4385E-05  0.1512E-06  0.2579E-03  0.7686E-04  0.3032E+05
   -1.330003   15.47482  0.0000E+00  0.3471E-05  0.3486E-06  0.1281E-03  0.6788E-04  0.1669E+07
   -1.365002   15.48913  0.0000E+00  0.2361E-05  0.7587E-06  0.9136E-04  0.3966E-04 -0.6169E+09
   -1.399999   15.49328  0.0000E+00  0.0000E+00  0.0000E+00  0.0000E+00  0.7427E-04  0.0000E+00
