 1 - depth, m
 2 - temperature, C
 3 - salinity, kg/kg
 4 - turbulent kinetic energy, m**2/s**2
 5 - dissipation rate, m**2/s**3
 6 - kinematic heat conductance, m**2/s
 7 - modulus of horizontal velocity, m/s
 8 - Richardson number, n/d
   -0.000000   12.03023  0.0000E+00  0.1701E-03  0.1017E-03  0.5707E-04  0.1284E+00 -0.9717E-02
   -0.034998   12.08161  0.0000E+00  0.9646E-04  0.2625E-04  0.9381E-04  0.4186E-01 -0.1347E-01
   -0.069996   12.09032  0.0000E+00  0.7056E-04  0.1115E-04  0.1090E-03  0.2862E-01 -0.8478E-01
   -0.104994   12.09667  0.0000E+00  0.5694E-04  0.6025E-05  0.1175E-03  0.2324E-01 -0.3087E-01
   -0.139993   12.10133  0.0000E+00  0.4768E-04  0.3499E-05  0.1274E-03  0.1947E-01 -0.2247E-01
   -0.174992   12.10511  0.0000E+00  0.4090E-04  0.2145E-05  0.1378E-03  0.1649E-01 -0.6515E-01
   -0.209991   12.10840  0.0000E+00  0.3584E-04  0.1392E-05  0.1478E-03  0.1400E-01 -0.3148E-01
   -0.244991   12.11137  0.0000E+00  0.3187E-04  0.9485E-06  0.1564E-03  0.1185E-01 -0.3600E-01
   -0.279991   12.11408  0.0000E+00  0.2856E-04  0.6760E-06  0.1626E-03  0.9959E-02 -0.2997E-01
   -0.314990   12.11669  0.0000E+00  0.2552E-04  0.4972E-06  0.1740E-03  0.8213E-02  0.9775E+01
   -0.349991   12.11905  0.0000E+00  0.2290E-04  0.3771E-06  0.1843E-03  0.6819E-02  0.2908E+00
   -0.384991   12.12123  0.0000E+00  0.2068E-04  0.2939E-06  0.1939E-03  0.5679E-02  0.8447E+00
   -0.419991   12.12326  0.0000E+00  0.1883E-04  0.2351E-06  0.2016E-03  0.4726E-02  0.1938E+01
   -0.454992   12.12520  0.0000E+00  0.1725E-04  0.1926E-06  0.2115E-03  0.3882E-02  0.1365E+02
   -0.489993   12.12705  0.0000E+00  0.1589E-04  0.1614E-06  0.2337E-03  0.3119E-02  0.2747E+03
   -0.524994   12.12876  0.0000E+00  0.1461E-04  0.1362E-06  0.2919E-03  0.2452E-02  0.1803E+03
   -0.559995   12.13017  0.0000E+00  0.1336E-04  0.1146E-06  0.3583E-03  0.1959E-02  0.1690E+03
   -0.594996   12.13128  0.0000E+00  0.1203E-04  0.9373E-07  0.4107E-03  0.1624E-02  0.9405E+03
   -0.629997   12.13213  0.0000E+00  0.1091E-04  0.7727E-07  0.4486E-03  0.1423E-02  0.4480E+03
   -0.664998   12.13291  0.0000E+00  0.9976E-05  0.6458E-07  0.4748E-03  0.1247E-02  0.3630E+03
   -0.699999   12.13363  0.0000E+00  0.9192E-05  0.5460E-07  0.4939E-03  0.1085E-02  0.1854E+02
   -0.735000   12.13431  0.0000E+00  0.8526E-05  0.4669E-07  0.5046E-03  0.9402E-03  0.1276E+02
   -0.770001   12.13496  0.0000E+00  0.7955E-05  0.4034E-07  0.5094E-03  0.8119E-03  0.7882E+01
   -0.805002   12.13560  0.0000E+00  0.7464E-05  0.3523E-07  0.5126E-03  0.6993E-03  0.5931E+03
   -0.840003   12.13624  0.0000E+00  0.7044E-05  0.3114E-07  0.5156E-03  0.6009E-03  0.5262E+01
   -0.875004   12.13687  0.0000E+00  0.6684E-05  0.2787E-07  0.5178E-03  0.5156E-03  0.5620E+01
   -0.910005   12.13750  0.0000E+00  0.6373E-05  0.2529E-07  0.5170E-03  0.4427E-03  0.7072E+01
   -0.945005   12.13813  0.0000E+00  0.6107E-05  0.2329E-07  0.5132E-03  0.3791E-03  0.8931E+01
   -0.980006   12.13877  0.0000E+00  0.5877E-05  0.2178E-07  0.5061E-03  0.3231E-03  0.1142E+02
   -1.015007   12.13942  0.0000E+00  0.5678E-05  0.2069E-07  0.4953E-03  0.2740E-03  0.1481E+02
   -1.050007   12.14010  0.0000E+00  0.5503E-05  0.1998E-07  0.4811E-03  0.2327E-03  0.2057E+02
   -1.085007   12.14079  0.0000E+00  0.5345E-05  0.1960E-07  0.4652E-03  0.1987E-03  0.2924E+02
   -1.120007   12.14151  0.0000E+00  0.5198E-05  0.1959E-07  0.4444E-03  0.1706E-03  0.4328E+02
   -1.155007   12.14228  0.0000E+00  0.5055E-05  0.2003E-07  0.4260E-03  0.1455E-03  0.6148E+02
   -1.190006   12.14309  0.0000E+00  0.4905E-05  0.2128E-07  0.3899E-03  0.1226E-03 -0.8416E+02
   -1.225005   12.14408  0.0000E+00  0.4723E-05  0.2396E-07  0.3665E-03  0.9940E-04  0.4108E+01
   -1.260004   12.14519  0.0000E+00  0.4453E-05  0.3052E-07  0.2951E-03  0.7879E-04  0.1323E+04
   -1.295003   12.14727  0.0000E+00  0.3967E-05  0.4757E-07  0.2656E-03  0.5736E-04  0.9703E+05
   -1.330002   12.14812  0.0000E+00  0.3234E-05  0.9783E-07  0.1282E-03  0.4803E-04  0.2155E+05
   -1.365000   12.15764  0.0000E+00  0.2105E-05  0.2381E-06  0.5881E-04  0.3029E-04 -0.1139E+09
   -1.399997   12.16529  0.0000E+00  0.0000E+00  0.0000E+00  0.0000E+00  0.4307E-04  0.0000E+00
