 1 - depth, m
 2 - temperature, C
 3 - salinity, kg/kg
 4 - turbulent kinetic energy, m**2/s**2
 5 - dissipation rate, m**2/s**3
 6 - kinematic heat conductance, m**2/s
 7 - modulus of horizontal velocity, m/s
 8 - Richardson number, n/d
   -0.000000    0.00000  0.0000E+00  0.4702E-13  0.1132E-15  0.1000E-09  0.0000E+00  0.5725E+16
   -0.034998    0.08689  0.0000E+00  0.4702E-13  0.1132E-15  0.1000E-09  0.0000E+00  0.5616E+16
   -0.069996    0.17418  0.0000E+00  0.4702E-13  0.1132E-15  0.1000E-09  0.0000E+00  0.5506E+16
   -0.104994    0.26189  0.0000E+00  0.4702E-13  0.1132E-15  0.1000E-09  0.0000E+00  0.5354E+16
   -0.139993    0.34932  0.0000E+00  0.4702E-13  0.1132E-15  0.1000E-09  0.0000E+00  0.5178E+16
   -0.174992    0.43607  0.0000E+00  0.4702E-13  0.1132E-15  0.1000E-09  0.0000E+00  0.5004E+16
   -0.209992    0.52210  0.0000E+00  0.4702E-13  0.1132E-15  0.1000E-09  0.0000E+00  0.4831E+16
   -0.244991    0.60734  0.0000E+00  0.4702E-13  0.1132E-15  0.1000E-09  0.0000E+00  0.4658E+16
   -0.279991    0.69174  0.0000E+00  0.4702E-13  0.1132E-15  0.1000E-09  0.0000E+00  0.4487E+16
   -0.314991    0.77527  0.0000E+00  0.4702E-13  0.1132E-15  0.1000E-09  0.0000E+00  0.4375E+16
   -0.349991    0.85896  0.0000E+00  0.4702E-13  0.1132E-15  0.1000E-09  0.0000E+00  0.4267E+16
   -0.384991    0.94295  0.0000E+00  0.4702E-13  0.1132E-15  0.1000E-09  0.0000E+00  0.4159E+16
   -0.419992    1.02722  0.0000E+00  0.4702E-13  0.1132E-15  0.1000E-09  0.0000E+00  0.4033E+16
   -0.454993    1.11139  0.0000E+00  0.4702E-13  0.1132E-15  0.1000E-09  0.0000E+00  0.3913E+16
   -0.489993    1.19562  0.0000E+00  0.4702E-13  0.1132E-15  0.1000E-09  0.0000E+00  0.3851E+16
   -0.524994    1.28120  0.0000E+00  0.4702E-13  0.1132E-15  0.1000E-09  0.0000E+00  0.4074E+16
   -0.559995    1.37493  0.0000E+00  0.4702E-13  0.1132E-15  0.1000E-09  0.0000E+00  0.4510E+16
   -0.594996    1.48296  0.0000E+00  0.4702E-13  0.1132E-15  0.1000E-09  0.0000E+00  0.4940E+16
   -0.629997    1.60715  0.0000E+00  0.4702E-13  0.1132E-15  0.1000E-09  0.0000E+00  0.4623E+16
   -0.664998    1.72980  0.0000E+00  0.4702E-13  0.1132E-15  0.1000E-09  0.0000E+00  0.4312E+16
   -0.700000    1.85081  0.0000E+00  0.4702E-13  0.1132E-15  0.1000E-09  0.0000E+00  0.4019E+16
   -0.735001    1.97036  0.0000E+00  0.4702E-13  0.1132E-15  0.1000E-09  0.0000E+00  0.3760E+16
   -0.770002    2.08924  0.0000E+00  0.4702E-13  0.1132E-15  0.1000E-09  0.0000E+00  0.3542E+16
   -0.805003    2.20875  0.0000E+00  0.4702E-13  0.1132E-15  0.1000E-09  0.0000E+00  0.3313E+16
   -0.840004    2.32853  0.0000E+00  0.4702E-13  0.1132E-15  0.1000E-09  0.0000E+00  0.3077E+16
   -0.875005    2.44837  0.0000E+00  0.4702E-13  0.1132E-15  0.1000E-09  0.0000E+00  0.2845E+16
   -0.910006    2.56838  0.0000E+00  0.4702E-13  0.1132E-15  0.1000E-09  0.0000E+00  0.2579E+16
   -0.945007    2.68697  0.0000E+00  0.4702E-13  0.1132E-15  0.1000E-09  0.0000E+00  0.2311E+16
   -0.980007    2.80349  0.0000E+00  0.4702E-13  0.1132E-15  0.1000E-09  0.0000E+00  0.2051E+16
   -1.015008    2.91772  0.0000E+00  0.4702E-13  0.1132E-15  0.1000E-09  0.0000E+00  0.1835E+16
   -1.050008    3.03167  0.0000E+00  0.1622E-12  0.2039E-15  0.1000E-09  0.0000E+00  0.1636E+16
   -1.085008    3.14638  0.0000E+00  0.6497E-12  0.7334E-15  0.1000E-09  0.0000E+00  0.1485E+16
   -1.120008    3.26640  0.0000E+00  0.2467E-11  0.2682E-14  0.1000E-09  0.0000E+00  0.1260E+16
   -1.155008    3.38707  0.0000E+00  0.9179E-11  0.9673E-14  0.1000E-09  0.0000E+00  0.1035E+16
   -1.190008    3.50879  0.0000E+00  0.3389E-10  0.3468E-13  0.1058E-09  0.0000E+00  0.8249E+15
   -1.225007    3.63502  0.0000E+00  0.1306E-09  0.1300E-12  0.5028E-09  0.0000E+00  0.6471E+15
   -1.260006    3.78343  0.0000E+00  0.5310E-09  0.5151E-12  0.3882E-08  0.0000E+00  0.3226E+15
   -1.295005    3.97892  0.0000E+00  0.2275E-08  0.2189E-11  0.7201E-06  0.0000E+00 -0.1186E+14
   -1.330003    4.02593  0.0000E+00  0.3982E-08  0.5070E-11  0.1185E-05  0.0000E+00 -0.2355E+14
   -1.365001    4.05397  0.0000E+00  0.4044E-08  0.9889E-11  0.4695E-06  0.0000E+00 -0.7362E+14
   -1.399999    4.10459  0.0000E+00  0.0000E+00  0.0000E+00  0.0000E+00  0.0000E+00  0.0000E+00
