 1 - depth, m
 2 - temperature, C
 3 - salinity, kg/kg
 4 - turbulent kinetic energy, m**2/s**2
 5 - dissipation rate, m**2/s**3
 6 - kinematic heat conductance, m**2/s
 7 - modulus of horizontal velocity, m/s
 8 - Richardson number, n/d
   -0.000000    0.00000  0.0000E+00  0.3192E-12  0.1951E-15  0.1000E-09  0.0000E+00  0.1454E+17
   -0.034999    0.22518  0.0000E+00  0.5354E-12  0.2362E-15  0.1000E-09  0.0000E+00  0.1056E+17
   -0.069999    0.39869  0.0000E+00  0.1069E-11  0.3716E-15  0.1000E-09  0.0000E+00  0.7826E+16
   -0.104998    0.53358  0.0000E+00  0.2195E-11  0.6810E-15  0.1000E-09  0.0000E+00  0.6208E+16
   -0.139998    0.64482  0.0000E+00  0.4486E-11  0.1329E-14  0.1000E-09  0.0000E+00  0.5335E+16
   -0.174999    0.74366  0.0000E+00  0.9114E-11  0.2648E-14  0.1000E-09  0.0000E+00  0.4912E+16
   -0.209999    0.83754  0.0000E+00  0.1843E-10  0.5312E-14  0.1000E-09  0.0000E+00  0.4883E+16
   -0.245000    0.93388  0.0000E+00  0.3718E-10  0.1069E-13  0.1000E-09  0.0000E+00  0.5182E+16
   -0.280001    1.03976  0.0000E+00  0.7487E-10  0.2160E-13  0.1000E-09  0.0000E+00  0.5781E+16
   -0.315003    1.16272  0.0000E+00  0.1518E-09  0.4412E-13  0.1000E-09  0.0000E+00  0.5150E+16
   -0.350004    1.27753  0.0000E+00  0.3107E-09  0.9129E-13  0.1000E-09  0.0000E+00  0.4619E+16
   -0.385006    1.38541  0.0000E+00  0.6394E-09  0.1908E-12  0.1314E-09  0.0000E+00  0.4306E+16
   -0.420008    1.49083  0.0000E+00  0.1318E-08  0.4011E-12  0.2133E-09  0.0000E+00  0.5040E+16
   -0.455010    1.62032  0.0000E+00  0.2726E-08  0.8513E-12  0.3535E-09  0.0000E+00  0.6240E+16
   -0.490012    1.79086  0.0000E+00  0.5682E-08  0.1833E-11  0.6851E-09  0.0000E+00  0.6930E+16
   -0.525014    1.99667  0.0000E+00  0.1260E-07  0.4235E-11  0.2208E-08  0.0000E+00  0.4941E+16
   -0.560016    2.15786  0.0000E+00  0.2938E-07  0.1040E-10  0.1942E-07  0.0000E+00  0.1542E+16
   -0.595019    2.21130  0.0000E+00  0.3284E-07  0.1269E-10  0.6541E-04  0.0000E+00 -0.4243E+13
   -0.630021    2.21115  0.0000E+00  0.3145E-07  0.1130E-10  0.6057E-04  0.0000E+00  0.1981E+15
   -0.665023    2.21643  0.0000E+00  0.2841E-07  0.9344E-11  0.6986E-05  0.0000E+00  0.7114E+15
   -0.700026    2.23712  0.0000E+00  0.2025E-07  0.6016E-11  0.1562E-07  0.0000E+00  0.1656E+16
   -0.735028    2.29224  0.0000E+00  0.1092E-07  0.3203E-11  0.4833E-08  0.0000E+00  0.2258E+16
   -0.770031    2.37353  0.0000E+00  0.6056E-08  0.1812E-11  0.2260E-08  0.0000E+00  0.2492E+16
   -0.805033    2.47083  0.0000E+00  0.3857E-08  0.1255E-11  0.1406E-08  0.0000E+00  0.2641E+16
   -0.840035    2.58367  0.0000E+00  0.3670E-08  0.1354E-11  0.1306E-08  0.0000E+00  0.2748E+16
   -0.875038    2.71560  0.0000E+00  0.5899E-08  0.2311E-11  0.1872E-08  0.0000E+00  0.2797E+16
   -0.910040    2.87697  0.0000E+00  0.1242E-07  0.4858E-11  0.4900E-08  0.0000E+00  0.2749E+16
   -0.945042    3.09645  0.0000E+00  0.2176E-07  0.8649E-11  0.5202E-05  0.0000E+00  0.2286E+16
   -0.980044    3.32280  0.0000E+00  0.2970E-07  0.1218E-10  0.1640E-04  0.0000E+00  0.1797E+16
   -1.015046    3.51235  0.0000E+00  0.3605E-07  0.1528E-10  0.2425E-04  0.0000E+00  0.1268E+16
   -1.050047    3.66269  0.0000E+00  0.4123E-07  0.1807E-10  0.2974E-04  0.0000E+00  0.8628E+15
   -1.085049    3.78146  0.0000E+00  0.4582E-07  0.2089E-10  0.3355E-04  0.0000E+00  0.6254E+15
   -1.120050    3.88074  0.0000E+00  0.4991E-07  0.2384E-10  0.3632E-04  0.0000E+00  0.4488E+15
   -1.155051    3.96597  0.0000E+00  0.5352E-07  0.2700E-10  0.3812E-04  0.0000E+00  0.2558E+15
   -1.190052    4.03208  0.0000E+00  0.5662E-07  0.3051E-10  0.3881E-04  0.0000E+00  0.8763E+14
   -1.225053    4.07362  0.0000E+00  0.5923E-07  0.3477E-10  0.3814E-04  0.0000E+00 -0.1161E+13
   -1.260053    4.08603  0.0000E+00  0.6105E-07  0.4062E-10  0.3517E-04  0.0000E+00 -0.8175E+13
   -1.295053    4.09126  0.0000E+00  0.6200E-07  0.5260E-10  0.2912E-04  0.0000E+00 -0.1213E+14
   -1.330053    4.09843  0.0000E+00  0.6044E-07  0.7903E-10  0.1528E-04  0.0000E+00 -0.2494E+14
   -1.365053    4.11171  0.0000E+00  0.4754E-07  0.2029E-09  0.2471E-05  0.0000E+00 -0.1787E+15
   -1.400052    4.18274  0.0000E+00  0.0000E+00  0.0000E+00  0.0000E+00  0.0000E+00  0.0000E+00
