 1 - depth, m
 2 - temperature, C
 3 - salinity, kg/kg
 4 - turbulent kinetic energy, m**2/s**2
 5 - dissipation rate, m**2/s**3
 6 - kinematic heat conductance, m**2/s
 7 - modulus of horizontal velocity, m/s
 8 - Richardson number, n/d
   -0.000000    0.00000  0.0000E+00  0.4702E-13  0.1132E-15  0.1000E-09  0.0000E+00  0.1006E+17
   -0.034998    0.15414  0.0000E+00  0.4702E-13  0.1132E-15  0.1000E-09  0.0000E+00  0.9698E+16
   -0.069996    0.30921  0.0000E+00  0.4702E-13  0.1132E-15  0.1000E-09  0.0000E+00  0.9336E+16
   -0.104994    0.46535  0.0000E+00  0.4702E-13  0.1132E-15  0.1000E-09  0.0000E+00  0.8873E+16
   -0.139993    0.62089  0.0000E+00  0.4702E-13  0.1132E-15  0.1000E-09  0.0000E+00  0.8367E+16
   -0.174992    0.77486  0.0000E+00  0.4702E-13  0.1132E-15  0.1000E-09  0.0000E+00  0.7876E+16
   -0.209991    0.92727  0.0000E+00  0.4702E-13  0.1132E-15  0.1000E-09  0.0000E+00  0.7399E+16
   -0.244990    1.07811  0.0000E+00  0.6561E-13  0.1132E-15  0.1000E-09  0.0000E+00  0.6936E+16
   -0.279990    1.22736  0.0000E+00  0.2723E-12  0.1132E-15  0.1000E-09  0.0000E+00  0.6485E+16
   -0.314990    1.37497  0.0000E+00  0.6765E-12  0.1688E-15  0.1000E-09  0.0000E+00  0.6069E+16
   -0.349990    1.52150  0.0000E+00  0.1389E-11  0.2942E-15  0.1000E-09  0.0000E+00  0.5661E+16
   -0.384990    1.66687  0.0000E+00  0.2645E-11  0.5258E-15  0.1000E-09  0.0000E+00  0.5259E+16
   -0.419990    1.81094  0.0000E+00  0.4857E-11  0.9347E-15  0.1000E-09  0.0000E+00  0.4875E+16
   -0.454991    1.95394  0.0000E+00  0.8763E-11  0.1648E-14  0.1000E-09  0.0000E+00  0.4518E+16
   -0.489992    2.09646  0.0000E+00  0.1567E-10  0.2891E-14  0.1000E-09  0.0000E+00  0.4199E+16
   -0.524992    2.23965  0.0000E+00  0.2917E-10  0.5279E-14  0.1000E-09  0.0000E+00  0.4033E+16
   -0.559993    2.38961  0.0000E+00  0.5683E-10  0.1009E-13  0.1000E-09  0.0000E+00  0.3941E+16
   -0.594994    2.55161  0.0000E+00  0.1172E-09  0.2043E-13  0.1000E-09  0.0000E+00  0.3780E+16
   -0.629995    2.72696  0.0000E+00  0.2188E-09  0.3752E-13  0.1000E-09  0.0000E+00  0.3236E+16
   -0.664996    2.89981  0.0000E+00  0.3885E-09  0.6556E-13  0.1000E-09  0.0000E+00  0.2713E+16
   -0.699997    3.07003  0.0000E+00  0.6776E-09  0.1125E-12  0.1315E-09  0.0000E+00  0.2216E+16
   -0.734998    3.23770  0.0000E+00  0.1176E-08  0.1920E-12  0.2841E-09  0.0000E+00  0.1751E+16
   -0.769999    3.40384  0.0000E+00  0.2035E-08  0.3266E-12  0.6438E-09  0.0000E+00  0.1314E+16
   -0.805000    3.57062  0.0000E+00  0.3511E-08  0.5543E-12  0.1648E-08  0.0000E+00  0.8712E+15
   -0.840001    3.73698  0.0000E+00  0.6021E-08  0.9354E-12  0.5643E-08  0.0000E+00  0.4290E+15
   -0.875002    3.89946  0.0000E+00  0.1001E-07  0.1535E-11  0.7282E-07  0.0000E+00  0.5413E+14
   -0.910003    4.01156  0.0000E+00  0.1080E-07  0.1663E-11  0.2870E-04  0.0000E+00 -0.3340E+12
   -0.945003    4.01239  0.0000E+00  0.1118E-07  0.1735E-11  0.2846E-04  0.0000E+00 -0.3477E+12
   -0.980004    4.01323  0.0000E+00  0.1152E-07  0.1813E-11  0.2878E-04  0.0000E+00 -0.3550E+12
   -1.015004    4.01406  0.0000E+00  0.1184E-07  0.1899E-11  0.2898E-04  0.0000E+00 -0.3697E+12
   -1.050004    4.01490  0.0000E+00  0.1214E-07  0.1998E-11  0.2894E-04  0.0000E+00 -0.3905E+12
   -1.085005    4.01575  0.0000E+00  0.1241E-07  0.2114E-11  0.2867E-04  0.0000E+00 -0.4187E+12
   -1.120004    4.01665  0.0000E+00  0.1265E-07  0.2250E-11  0.2799E-04  0.0000E+00 -0.4445E+12
   -1.155004    4.01757  0.0000E+00  0.1286E-07  0.2412E-11  0.2699E-04  0.0000E+00 -0.4785E+12
   -1.190003    4.01853  0.0000E+00  0.1304E-07  0.2615E-11  0.2561E-04  0.0000E+00 -0.5316E+12
   -1.225003    4.01957  0.0000E+00  0.1319E-07  0.2900E-11  0.2393E-04  0.0000E+00 -0.6533E+12
   -1.260002    4.02080  0.0000E+00  0.1330E-07  0.3369E-11  0.2145E-04  0.0000E+00 -0.9264E+12
   -1.295000    4.02247  0.0000E+00  0.1326E-07  0.4509E-11  0.1687E-04  0.0000E+00 -0.1654E+13
   -1.329999    4.02529  0.0000E+00  0.1252E-07  0.7354E-11  0.6499E-05  0.0000E+00 -0.4424E+13
   -1.364997    4.03196  0.0000E+00  0.9104E-08  0.1945E-10  0.8386E-06  0.0000E+00 -0.3822E+14
   -1.399994    4.06979  0.0000E+00  0.0000E+00  0.0000E+00  0.0000E+00  0.0000E+00  0.0000E+00
