 1 - depth, m
 2 - temperature, C
 3 - salinity, kg/kg
 4 - turbulent kinetic energy, m**2/s**2
 5 - dissipation rate, m**2/s**3
 6 - kinematic heat conductance, m**2/s
 7 - modulus of horizontal velocity, m/s
 8 - Richardson number, n/d
   -0.000000    0.00000  0.0000E+00  0.4702E-13  0.1132E-15  0.1000E-09  0.0000E+00  0.1740E+17
   -0.034997    0.27079  0.0000E+00  0.4702E-13  0.1132E-15  0.1000E-09  0.0000E+00  0.1537E+17
   -0.069994    0.52883  0.0000E+00  0.4702E-13  0.1132E-15  0.1000E-09  0.0000E+00  0.1356E+17
   -0.104991    0.77468  0.0000E+00  0.6141E-13  0.1132E-15  0.1000E-09  0.0000E+00  0.1188E+17
   -0.139989    1.00779  0.0000E+00  0.2193E-12  0.1132E-15  0.1000E-09  0.0000E+00  0.1037E+17
   -0.174987    1.22810  0.0000E+00  0.5521E-12  0.1327E-15  0.1000E-09  0.0000E+00  0.9031E+16
   -0.209985    1.43618  0.0000E+00  0.1103E-11  0.1909E-15  0.1000E-09  0.0000E+00  0.7844E+16
   -0.244983    1.63250  0.0000E+00  0.1966E-11  0.2993E-15  0.1000E-09  0.0000E+00  0.6795E+16
   -0.279982    1.81747  0.0000E+00  0.3320E-11  0.4774E-15  0.1000E-09  0.0000E+00  0.5867E+16
   -0.314981    1.99146  0.0000E+00  0.5487E-11  0.7644E-15  0.1000E-09  0.0000E+00  0.5091E+16
   -0.349980    2.15625  0.0000E+00  0.9009E-11  0.1228E-14  0.1000E-09  0.0000E+00  0.4396E+16
   -0.384979    2.31197  0.0000E+00  0.1473E-10  0.1970E-14  0.1000E-09  0.0000E+00  0.3772E+16
   -0.419978    2.45856  0.0000E+00  0.2392E-10  0.3146E-14  0.1000E-09  0.0000E+00  0.3240E+16
   -0.454978    2.59713  0.0000E+00  0.3863E-10  0.5001E-14  0.1000E-09  0.0000E+00  0.2801E+16
   -0.489977    2.72946  0.0000E+00  0.6217E-10  0.7923E-14  0.1000E-09  0.0000E+00  0.2441E+16
   -0.524977    2.85767  0.0000E+00  0.1038E-09  0.1302E-13  0.1000E-09  0.0000E+00  0.2277E+16
   -0.559977    2.99233  0.0000E+00  0.1816E-09  0.2239E-13  0.1000E-09  0.0000E+00  0.2174E+16
   -0.594977    3.14107  0.0000E+00  0.3366E-09  0.4086E-13  0.1000E-09  0.0000E+00  0.1986E+16
   -0.629977    3.30519  0.0000E+00  0.5737E-09  0.6869E-13  0.1314E-09  0.0000E+00  0.1478E+16
   -0.664977    3.45993  0.0000E+00  0.9312E-09  0.1100E-12  0.2736E-09  0.0000E+00  0.1041E+16
   -0.699977    3.60538  0.0000E+00  0.1482E-08  0.1727E-12  0.6666E-09  0.0000E+00  0.6691E+15
   -0.734977    3.74122  0.0000E+00  0.2342E-08  0.2693E-12  0.1941E-08  0.0000E+00  0.3592E+15
   -0.769977    3.86716  0.0000E+00  0.3673E-08  0.4171E-12  0.1078E-07  0.0000E+00  0.1087E+15
   -0.804977    3.97860  0.0000E+00  0.4452E-08  0.5084E-12  0.8404E-05  0.0000E+00  0.3591E+13
   -0.839977    3.99468  0.0000E+00  0.4860E-08  0.5623E-12  0.1299E-04  0.0000E+00 -0.1695E+12
   -0.874976    3.99601  0.0000E+00  0.5184E-08  0.6122E-12  0.1447E-04  0.0000E+00 -0.1827E+12
   -0.909976    3.99722  0.0000E+00  0.5497E-08  0.6676E-12  0.1549E-04  0.0000E+00 -0.1956E+12
   -0.944976    3.99836  0.0000E+00  0.5796E-08  0.7291E-12  0.1605E-04  0.0000E+00 -0.2115E+12
   -0.979975    3.99947  0.0000E+00  0.6086E-08  0.7984E-12  0.1630E-04  0.0000E+00 -0.2311E+12
   -1.014975    4.00057  0.0000E+00  0.6371E-08  0.8784E-12  0.1651E-04  0.0000E+00 -0.2589E+12
   -1.049974    4.00171  0.0000E+00  0.6652E-08  0.9730E-12  0.1651E-04  0.0000E+00 -0.2956E+12
   -1.084973    4.00291  0.0000E+00  0.6934E-08  0.1088E-11  0.1615E-04  0.0000E+00 -0.3431E+12
   -1.119972    4.00419  0.0000E+00  0.7215E-08  0.1233E-11  0.1506E-04  0.0000E+00 -0.4041E+12
   -1.154970    4.00559  0.0000E+00  0.7499E-08  0.1420E-11  0.1354E-04  0.0000E+00 -0.4945E+12
   -1.189969    4.00717  0.0000E+00  0.7790E-08  0.1672E-11  0.1204E-04  0.0000E+00 -0.6322E+12
   -1.224967    4.00903  0.0000E+00  0.8117E-08  0.2055E-11  0.1095E-04  0.0000E+00 -0.8976E+12
   -1.259965    4.01143  0.0000E+00  0.8497E-08  0.2713E-11  0.9906E-05  0.0000E+00 -0.1490E+13
   -1.294962    4.01496  0.0000E+00  0.8916E-08  0.4257E-11  0.7428E-05  0.0000E+00 -0.3421E+13
   -1.329960    4.02176  0.0000E+00  0.8805E-08  0.7474E-11  0.3339E-05  0.0000E+00 -0.9685E+13
   -1.364957    4.03622  0.0000E+00  0.7329E-08  0.1765E-10  0.7596E-06  0.0000E+00 -0.6442E+14
   -1.399953    4.08987  0.0000E+00  0.0000E+00  0.0000E+00  0.0000E+00  0.0000E+00  0.0000E+00
