 1 - depth, m
 2 - temperature, C
 3 - salinity, kg/kg
 4 - turbulent kinetic energy, m**2/s**2
 5 - dissipation rate, m**2/s**3
 6 - kinematic heat conductance, m**2/s
 7 - modulus of horizontal velocity, m/s
 8 - Richardson number, n/d
   -0.000000    0.00000  0.0000E+00  0.6030E-10  0.4633E-13  0.1000E-09  0.0000E+00  0.2733E+17
   -0.034998    0.43529  0.0000E+00  0.1356E-09  0.3611E-13  0.1000E-09  0.0000E+00  0.2339E+17
   -0.069996    0.85874  0.0000E+00  0.2695E-09  0.3990E-13  0.1000E-09  0.0000E+00  0.1965E+17
   -0.104994    1.26804  0.0000E+00  0.4674E-09  0.5219E-13  0.1000E-09  0.0000E+00  0.1613E+17
   -0.139992    1.66012  0.0000E+00  0.7474E-09  0.7284E-13  0.1000E-09  0.0000E+00  0.1295E+17
   -0.174991    2.03339  0.0000E+00  0.1141E-08  0.1037E-12  0.1000E-09  0.0000E+00  0.1013E+17
   -0.209990    2.38751  0.0000E+00  0.1695E-08  0.1480E-12  0.1000E-09  0.0000E+00  0.7663E+16
   -0.244990    2.72158  0.0000E+00  0.2477E-08  0.2109E-12  0.1202E-09  0.0000E+00  0.5513E+16
   -0.279989    3.03385  0.0000E+00  0.3583E-08  0.2996E-12  0.2202E-09  0.0000E+00  0.3677E+16
   -0.314989    3.32126  0.0000E+00  0.5174E-08  0.4263E-12  0.5252E-09  0.0000E+00  0.2180E+16
   -0.349989    3.58109  0.0000E+00  0.7488E-08  0.6092E-12  0.1786E-08  0.0000E+00  0.1015E+16
   -0.384989    3.80524  0.0000E+00  0.1046E-07  0.8457E-12  0.1735E-05  0.0000E+00  0.2858E+15
   -0.419989    3.95328  0.0000E+00  0.1136E-07  0.9127E-12  0.3313E-04  0.0000E+00  0.3847E+14
   -0.454990    3.99547  0.0000E+00  0.1163E-07  0.9356E-12  0.4241E-04  0.0000E+00 -0.7039E+11
   -0.489990    3.99617  0.0000E+00  0.1183E-07  0.9556E-12  0.4561E-04  0.0000E+00 -0.7500E+11
   -0.524991    3.99678  0.0000E+00  0.1204E-07  0.9792E-12  0.4857E-04  0.0000E+00 -0.8178E+11
   -0.559992    3.99736  0.0000E+00  0.1228E-07  0.1009E-11  0.5064E-04  0.0000E+00 -0.9382E+11
   -0.594993    3.99795  0.0000E+00  0.1259E-07  0.1051E-11  0.5232E-04  0.0000E+00 -0.1085E+12
   -0.629994    3.99858  0.0000E+00  0.1291E-07  0.1097E-11  0.5322E-04  0.0000E+00 -0.1139E+12
   -0.664994    3.99920  0.0000E+00  0.1322E-07  0.1143E-11  0.5385E-04  0.0000E+00 -0.1196E+12
   -0.699995    3.99981  0.0000E+00  0.1352E-07  0.1192E-11  0.5424E-04  0.0000E+00 -0.1262E+12
   -0.734996    4.00043  0.0000E+00  0.1381E-07  0.1244E-11  0.5426E-04  0.0000E+00 -0.1339E+12
   -0.769997    4.00105  0.0000E+00  0.1410E-07  0.1299E-11  0.5417E-04  0.0000E+00 -0.1419E+12
   -0.804998    4.00167  0.0000E+00  0.1438E-07  0.1357E-11  0.5393E-04  0.0000E+00 -0.1506E+12
   -0.839999    4.00231  0.0000E+00  0.1465E-07  0.1421E-11  0.5358E-04  0.0000E+00 -0.1599E+12
   -0.875000    4.00295  0.0000E+00  0.1492E-07  0.1489E-11  0.5308E-04  0.0000E+00 -0.1705E+12
   -0.910000    4.00362  0.0000E+00  0.1517E-07  0.1563E-11  0.5243E-04  0.0000E+00 -0.1810E+12
   -0.945001    4.00429  0.0000E+00  0.1541E-07  0.1643E-11  0.5163E-04  0.0000E+00 -0.1924E+12
   -0.980001    4.00498  0.0000E+00  0.1564E-07  0.1731E-11  0.5065E-04  0.0000E+00 -0.2053E+12
   -1.015002    4.00568  0.0000E+00  0.1586E-07  0.1828E-11  0.4949E-04  0.0000E+00 -0.2231E+12
   -1.050002    4.00642  0.0000E+00  0.1606E-07  0.1941E-11  0.4807E-04  0.0000E+00 -0.2452E+12
   -1.085002    4.00720  0.0000E+00  0.1625E-07  0.2073E-11  0.4640E-04  0.0000E+00 -0.2701E+12
   -1.120002    4.00802  0.0000E+00  0.1642E-07  0.2230E-11  0.4438E-04  0.0000E+00 -0.2958E+12
   -1.155001    4.00889  0.0000E+00  0.1656E-07  0.2417E-11  0.4204E-04  0.0000E+00 -0.3275E+12
   -1.190001    4.00981  0.0000E+00  0.1668E-07  0.2650E-11  0.3922E-04  0.0000E+00 -0.3729E+12
   -1.225000    4.01081  0.0000E+00  0.1676E-07  0.2977E-11  0.3579E-04  0.0000E+00 -0.4624E+12
   -1.259998    4.01200  0.0000E+00  0.1680E-07  0.3522E-11  0.3094E-04  0.0000E+00 -0.6590E+12
   -1.294997    4.01361  0.0000E+00  0.1667E-07  0.4856E-11  0.2345E-04  0.0000E+00 -0.1195E+13
   -1.329995    4.01630  0.0000E+00  0.1589E-07  0.8434E-11  0.8668E-05  0.0000E+00 -0.3582E+13
   -1.364993    4.02322  0.0000E+00  0.1191E-07  0.2632E-10  0.1051E-05  0.0000E+00 -0.4060E+14
   -1.399991    4.06719  0.0000E+00  0.0000E+00  0.0000E+00  0.0000E+00  0.0000E+00  0.0000E+00
