 1 - depth, m
 2 - temperature, C
 3 - salinity, kg/kg
 4 - turbulent kinetic energy, m**2/s**2
 5 - dissipation rate, m**2/s**3
 6 - kinematic heat conductance, m**2/s
 7 - modulus of horizontal velocity, m/s
 8 - Richardson number, n/d
   -0.000000    0.00000  0.0000E+00  0.1353E-08  0.2332E-11  0.1822E-09  0.0000E+00  0.3282E+17
   -0.034998    0.52987  0.0000E+00  0.5191E-08  0.1876E-11  0.1804E-09  0.0000E+00  0.2675E+17
   -0.069996    1.03659  0.0000E+00  0.1223E-07  0.2461E-11  0.2895E-09  0.0000E+00  0.2192E+17
   -0.104994    1.53361  0.0000E+00  0.2353E-07  0.3829E-11  0.5493E-09  0.0000E+00  0.1802E+17
   -0.139993    2.04095  0.0000E+00  0.4146E-07  0.6194E-11  0.1122E-08  0.0000E+00  0.1435E+17
   -0.174992    2.57683  0.0000E+00  0.7003E-07  0.1003E-10  0.2625E-08  0.0000E+00  0.1019E+17
   -0.209991    3.15367  0.0000E+00  0.1152E-06  0.1608E-10  0.1110E-07  0.0000E+00  0.5026E+16
   -0.244990    3.75464  0.0000E+00  0.1517E-06  0.2111E-10  0.1307E-03  0.0000E+00  0.8435E+15
   -0.279990    4.05587  0.0000E+00  0.1524E-06  0.2122E-10  0.3456E-03  0.0000E+00 -0.3193E+12
   -0.314990    4.05615  0.0000E+00  0.1528E-06  0.2130E-10  0.3434E-03  0.0000E+00 -0.3112E+12
   -0.349990    4.05644  0.0000E+00  0.1532E-06  0.2138E-10  0.3437E-03  0.0000E+00 -0.3155E+12
   -0.384990    4.05673  0.0000E+00  0.1536E-06  0.2147E-10  0.3438E-03  0.0000E+00 -0.3203E+12
   -0.419991    4.05702  0.0000E+00  0.1540E-06  0.2157E-10  0.3437E-03  0.0000E+00 -0.3218E+12
   -0.454991    4.05731  0.0000E+00  0.1543E-06  0.2168E-10  0.3435E-03  0.0000E+00 -0.3188E+12
   -0.489992    4.05760  0.0000E+00  0.1546E-06  0.2180E-10  0.3429E-03  0.0000E+00 -0.3223E+12
   -0.524993    4.05789  0.0000E+00  0.1549E-06  0.2194E-10  0.3420E-03  0.0000E+00 -0.3290E+12
   -0.559994    4.05818  0.0000E+00  0.1552E-06  0.2213E-10  0.3400E-03  0.0000E+00 -0.3521E+12
   -0.594995    4.05849  0.0000E+00  0.1556E-06  0.2242E-10  0.3374E-03  0.0000E+00 -0.3619E+12
   -0.629995    4.05882  0.0000E+00  0.1560E-06  0.2274E-10  0.3346E-03  0.0000E+00 -0.3686E+12
   -0.664997    4.05914  0.0000E+00  0.1564E-06  0.2309E-10  0.3314E-03  0.0000E+00 -0.3730E+12
   -0.699998    4.05947  0.0000E+00  0.1567E-06  0.2346E-10  0.3277E-03  0.0000E+00 -0.3804E+12
   -0.734999    4.05981  0.0000E+00  0.1570E-06  0.2386E-10  0.3236E-03  0.0000E+00 -0.3870E+12
   -0.770000    4.06014  0.0000E+00  0.1573E-06  0.2430E-10  0.3190E-03  0.0000E+00 -0.3930E+12
   -0.805001    4.06049  0.0000E+00  0.1575E-06  0.2478E-10  0.3139E-03  0.0000E+00 -0.3996E+12
   -0.840002    4.06083  0.0000E+00  0.1577E-06  0.2532E-10  0.3082E-03  0.0000E+00 -0.4077E+12
   -0.875002    4.06118  0.0000E+00  0.1578E-06  0.2592E-10  0.3020E-03  0.0000E+00 -0.4172E+12
   -0.910003    4.06154  0.0000E+00  0.1579E-06  0.2659E-10  0.2951E-03  0.0000E+00 -0.4271E+12
   -0.945004    4.06191  0.0000E+00  0.1580E-06  0.2733E-10  0.2877E-03  0.0000E+00 -0.4385E+12
   -0.980004    4.06228  0.0000E+00  0.1580E-06  0.2817E-10  0.2796E-03  0.0000E+00 -0.4517E+12
   -1.015005    4.06266  0.0000E+00  0.1580E-06  0.2913E-10  0.2707E-03  0.0000E+00 -0.4692E+12
   -1.050005    4.06305  0.0000E+00  0.1578E-06  0.3027E-10  0.2608E-03  0.0000E+00 -0.4912E+12
   -1.085005    4.06346  0.0000E+00  0.1577E-06  0.3165E-10  0.2495E-03  0.0000E+00 -0.5165E+12
   -1.120005    4.06389  0.0000E+00  0.1574E-06  0.3334E-10  0.2368E-03  0.0000E+00 -0.5466E+12
   -1.155005    4.06434  0.0000E+00  0.1571E-06  0.3540E-10  0.2231E-03  0.0000E+00 -0.5805E+12
   -1.190004    4.06482  0.0000E+00  0.1567E-06  0.3800E-10  0.2078E-03  0.0000E+00 -0.6284E+12
   -1.225003    4.06533  0.0000E+00  0.1560E-06  0.4171E-10  0.1894E-03  0.0000E+00 -0.7027E+12
   -1.260002    4.06590  0.0000E+00  0.1550E-06  0.4799E-10  0.1631E-03  0.0000E+00 -0.8570E+12
   -1.295001    4.06658  0.0000E+00  0.1527E-06  0.6309E-10  0.1323E-03  0.0000E+00 -0.1172E+13
   -1.329999    4.06752  0.0000E+00  0.1468E-06  0.1045E-09  0.5261E-04  0.0000E+00 -0.2971E+13
   -1.364997    4.06986  0.0000E+00  0.1020E-06  0.4902E-09  0.2911E-05  0.0000E+00 -0.6195E+14
   -1.399995    4.10851  0.0000E+00  0.0000E+00  0.0000E+00  0.0000E+00  0.0000E+00  0.0000E+00
