 1 - depth, m
 2 - temperature, C
 3 - salinity, kg/kg
 4 - turbulent kinetic energy, m**2/s**2
 5 - dissipation rate, m**2/s**3
 6 - kinematic heat conductance, m**2/s
 7 - modulus of horizontal velocity, m/s
 8 - Richardson number, n/d
   -0.000000    0.00000  0.0000E+00  0.4702E-13  0.1132E-15  0.1000E-09  0.0000E+00  0.7558E+16
   -0.034998    0.11516  0.0000E+00  0.4702E-13  0.1132E-15  0.1000E-09  0.0000E+00  0.7380E+16
   -0.069996    0.23123  0.0000E+00  0.4702E-13  0.1132E-15  0.1000E-09  0.0000E+00  0.7194E+16
   -0.104994    0.34818  0.0000E+00  0.4702E-13  0.1132E-15  0.1000E-09  0.0000E+00  0.6934E+16
   -0.139993    0.46481  0.0000E+00  0.4702E-13  0.1132E-15  0.1000E-09  0.0000E+00  0.6635E+16
   -0.174992    0.58039  0.0000E+00  0.4702E-13  0.1132E-15  0.1000E-09  0.0000E+00  0.6338E+16
   -0.209992    0.69480  0.0000E+00  0.4702E-13  0.1132E-15  0.1000E-09  0.0000E+00  0.6042E+16
   -0.244991    0.80793  0.0000E+00  0.4702E-13  0.1132E-15  0.1000E-09  0.0000E+00  0.5749E+16
   -0.279991    0.91966  0.0000E+00  0.4702E-13  0.1132E-15  0.1000E-09  0.0000E+00  0.5460E+16
   -0.314991    1.02988  0.0000E+00  0.4702E-13  0.1132E-15  0.1000E-09  0.0000E+00  0.5218E+16
   -0.349991    1.13941  0.0000E+00  0.4702E-13  0.1132E-15  0.1000E-09  0.0000E+00  0.4981E+16
   -0.384991    1.24826  0.0000E+00  0.4702E-13  0.1132E-15  0.1000E-09  0.0000E+00  0.4744E+16
   -0.419992    1.35630  0.0000E+00  0.4702E-13  0.1132E-15  0.1000E-09  0.0000E+00  0.4503E+16
   -0.454993    1.46333  0.0000E+00  0.4702E-13  0.1132E-15  0.1000E-09  0.0000E+00  0.4278E+16
   -0.489993    1.56960  0.0000E+00  0.4702E-13  0.1132E-15  0.1000E-09  0.0000E+00  0.4100E+16
   -0.524994    1.67620  0.0000E+00  0.4702E-13  0.1132E-15  0.1000E-09  0.0000E+00  0.4132E+16
   -0.559995    1.78908  0.0000E+00  0.4702E-13  0.1132E-15  0.1000E-09  0.0000E+00  0.4299E+16
   -0.594996    1.91330  0.0000E+00  0.4702E-13  0.1132E-15  0.1000E-09  0.0000E+00  0.4433E+16
   -0.629997    2.04998  0.0000E+00  0.4702E-13  0.1132E-15  0.1000E-09  0.0000E+00  0.4038E+16
   -0.664999    2.18381  0.0000E+00  0.4702E-13  0.1132E-15  0.1000E-09  0.0000E+00  0.3658E+16
   -0.700000    2.31454  0.0000E+00  0.4702E-13  0.1132E-15  0.1000E-09  0.0000E+00  0.3298E+16
   -0.735001    2.44217  0.0000E+00  0.4702E-13  0.1132E-15  0.1000E-09  0.0000E+00  0.2980E+16
   -0.770002    2.56756  0.0000E+00  0.4702E-13  0.1132E-15  0.1000E-09  0.0000E+00  0.2714E+16
   -0.805003    2.69259  0.0000E+00  0.4702E-13  0.1132E-15  0.1000E-09  0.0000E+00  0.2444E+16
   -0.840004    2.81682  0.0000E+00  0.1391E-12  0.1152E-15  0.1000E-09  0.0000E+00  0.2175E+16
   -0.875005    2.93995  0.0000E+00  0.4342E-12  0.2452E-15  0.1000E-09  0.0000E+00  0.1913E+16
   -0.910006    3.06198  0.0000E+00  0.1168E-11  0.6056E-15  0.1000E-09  0.0000E+00  0.1639E+16
   -0.945007    3.18130  0.0000E+00  0.2976E-11  0.1489E-14  0.1000E-09  0.0000E+00  0.1372E+16
   -0.980007    3.29719  0.0000E+00  0.7447E-11  0.3623E-14  0.1000E-09  0.0000E+00  0.1123E+16
   -1.015008    3.40924  0.0000E+00  0.1858E-10  0.8804E-14  0.1000E-09  0.0000E+00  0.9047E+15
   -1.050008    3.51892  0.0000E+00  0.4639E-10  0.2143E-13  0.1000E-09  0.0000E+00  0.7054E+15
   -1.085009    3.62717  0.0000E+00  0.1158E-09  0.5218E-13  0.2485E-09  0.0000E+00  0.5396E+15
   -1.120009    3.74051  0.0000E+00  0.2848E-09  0.1254E-12  0.9526E-09  0.0000E+00  0.3367E+15
   -1.155008    3.85379  0.0000E+00  0.6927E-09  0.2981E-12  0.5599E-08  0.0000E+00  0.1340E+15
   -1.190008    3.96442  0.0000E+00  0.1583E-08  0.6730E-12  0.3117E-06  0.0000E+00  0.1857E+13
   -1.225007    4.00220  0.0000E+00  0.2935E-08  0.1387E-11  0.2036E-05  0.0000E+00 -0.3014E+13
   -1.260006    4.01156  0.0000E+00  0.4206E-08  0.2349E-11  0.2813E-05  0.0000E+00 -0.4505E+13
   -1.295005    4.02114  0.0000E+00  0.5651E-08  0.4132E-11  0.3195E-05  0.0000E+00 -0.8062E+13
   -1.330004    4.03367  0.0000E+00  0.6261E-08  0.6654E-11  0.2063E-05  0.0000E+00 -0.1579E+14
   -1.365002    4.05159  0.0000E+00  0.5433E-08  0.1309E-10  0.5883E-06  0.0000E+00 -0.6693E+14
   -1.399999    4.09953  0.0000E+00  0.0000E+00  0.0000E+00  0.0000E+00  0.0000E+00  0.0000E+00
