 1 - depth, m
 2 - temperature, C
 3 - salinity, kg/kg
 4 - turbulent kinetic energy, m**2/s**2
 5 - dissipation rate, m**2/s**3
 6 - kinematic heat conductance, m**2/s
 7 - modulus of horizontal velocity, m/s
 8 - Richardson number, n/d
   -0.000000    9.90781  0.0000E+00  0.1447E-03  0.7201E-04  0.5883E-04  0.1116E+00 -0.1693E-01
   -0.034998    9.94467  0.0000E+00  0.8454E-04  0.2069E-04  0.9470E-04  0.3699E-01 -0.5782E-01
   -0.069996    9.95044  0.0000E+00  0.6249E-04  0.8962E-05  0.1037E-03  0.2625E-01 -0.9376E-02
   -0.104995    9.95440  0.0000E+00  0.5041E-04  0.4932E-05  0.1095E-03  0.2141E-01 -0.1316E-01
   -0.139994    9.95738  0.0000E+00  0.4207E-04  0.2916E-05  0.1180E-03  0.1797E-01 -0.1367E-01
   -0.174993    9.95990  0.0000E+00  0.3598E-04  0.1793E-05  0.1269E-03  0.1523E-01 -0.1768E-01
   -0.209993    9.96214  0.0000E+00  0.3138E-04  0.1150E-05  0.1350E-03  0.1293E-01 -0.1955E-01
   -0.244993    9.96422  0.0000E+00  0.2777E-04  0.7770E-06  0.1415E-03  0.1093E-01 -0.2628E-01
   -0.279993    9.96618  0.0000E+00  0.2474E-04  0.5521E-06  0.1451E-03  0.9147E-02 -0.2473E-01
   -0.314993    9.96810  0.0000E+00  0.2194E-04  0.4056E-06  0.1535E-03  0.7493E-02  0.1259E+00
   -0.349993    9.96987  0.0000E+00  0.1951E-04  0.3066E-06  0.1603E-03  0.6174E-02  0.3440E-02
   -0.384994    9.97154  0.0000E+00  0.1745E-04  0.2374E-06  0.1662E-03  0.5095E-02  0.2177E+01
   -0.419994    9.97312  0.0000E+00  0.1571E-04  0.1881E-06  0.1699E-03  0.4194E-02  0.2370E+00
   -0.454995    9.97466  0.0000E+00  0.1424E-04  0.1521E-06  0.1731E-03  0.3396E-02  0.4194E+02
   -0.489996    9.97616  0.0000E+00  0.1297E-04  0.1257E-06  0.1773E-03  0.2674E-02  0.8736E+01
   -0.524997    9.97761  0.0000E+00  0.1178E-04  0.1044E-06  0.1873E-03  0.2044E-02  0.1337E+02
   -0.559999    9.97895  0.0000E+00  0.1064E-04  0.8649E-07  0.2148E-03  0.1584E-02  0.2726E+03
   -0.595000    9.98011  0.0000E+00  0.9439E-05  0.6942E-07  0.2590E-03  0.1282E-02  0.2886E+03
   -0.630001    9.98108  0.0000E+00  0.8427E-05  0.5602E-07  0.2976E-03  0.1107E-02  0.5891E+03
   -0.665003    9.98195  0.0000E+00  0.7610E-05  0.4593E-07  0.3367E-03  0.9529E-03  0.1257E+03
   -0.700004    9.98271  0.0000E+00  0.6948E-05  0.3827E-07  0.3711E-03  0.8187E-03  0.6638E+02
   -0.735005    9.98339  0.0000E+00  0.6403E-05  0.3237E-07  0.3960E-03  0.7031E-03  0.5360E+04
   -0.770007    9.98400  0.0000E+00  0.5948E-05  0.2776E-07  0.4140E-03  0.6039E-03  0.4727E+03
   -0.805008    9.98458  0.0000E+00  0.5566E-05  0.2411E-07  0.4244E-03  0.5192E-03  0.1664E+02
   -0.840009    9.98514  0.0000E+00  0.5243E-05  0.2122E-07  0.4303E-03  0.4462E-03  0.1922E+02
   -0.875010    9.98569  0.0000E+00  0.4970E-05  0.1891E-07  0.4336E-03  0.3835E-03  0.1269E+02
   -0.910011    9.98622  0.0000E+00  0.4738E-05  0.1708E-07  0.4348E-03  0.3301E-03  0.9827E+01
   -0.945012    9.98676  0.0000E+00  0.4542E-05  0.1563E-07  0.4346E-03  0.2837E-03  0.1269E+02
   -0.980013    9.98729  0.0000E+00  0.4375E-05  0.1450E-07  0.4323E-03  0.2427E-03  0.1691E+02
   -1.015014    9.98783  0.0000E+00  0.4231E-05  0.1363E-07  0.4283E-03  0.2066E-03  0.6094E+02
   -1.050015    9.98837  0.0000E+00  0.4106E-05  0.1298E-07  0.4224E-03  0.1757E-03  0.3088E+02
   -1.085015    9.98892  0.0000E+00  0.3994E-05  0.1251E-07  0.4144E-03  0.1497E-03  0.4468E+02
   -1.120015    9.98948  0.0000E+00  0.3892E-05  0.1223E-07  0.4036E-03  0.1278E-03  0.6713E+02
   -1.155015    9.99006  0.0000E+00  0.3798E-05  0.1214E-07  0.3910E-03  0.1082E-03  0.9686E+02
   -1.190015    9.99067  0.0000E+00  0.3708E-05  0.1234E-07  0.3694E-03  0.9031E-04  0.1404E+03
   -1.225014    9.99133  0.0000E+00  0.3609E-05  0.1297E-07  0.3477E-03  0.7332E-04  0.1597E+03
   -1.260014    9.99205  0.0000E+00  0.3478E-05  0.1466E-07  0.3018E-03  0.5850E-04  0.2423E+03
   -1.295013    9.99302  0.0000E+00  0.3229E-05  0.1950E-07  0.2486E-03  0.4480E-04  0.1852E+04
   -1.330011    9.99400  0.0000E+00  0.2836E-05  0.3291E-07  0.1624E-03  0.3663E-04  0.6651E+05
   -1.365010    9.99741  0.0000E+00  0.1853E-05  0.8676E-07  0.2744E-04  0.2657E-04 -0.1045E+08
   -1.400008   10.01025  0.0000E+00  0.0000E+00  0.0000E+00  0.0000E+00  0.3122E-04  0.0000E+00
