 1 - depth, m
 2 - temperature, C
 3 - salinity, kg/kg
 4 - turbulent kinetic energy, m**2/s**2
 5 - dissipation rate, m**2/s**3
 6 - kinematic heat conductance, m**2/s
 7 - modulus of horizontal velocity, m/s
 8 - Richardson number, n/d
   -0.000000    0.00000  0.0000E+00  0.4702E-13  0.1132E-15  0.1000E-09  0.0000E+00  0.5646E+16
   -0.034998    0.08568  0.0000E+00  0.4702E-13  0.1132E-15  0.1000E-09  0.0000E+00  0.5579E+16
   -0.069996    0.17236  0.0000E+00  0.4702E-13  0.1132E-15  0.1000E-09  0.0000E+00  0.5506E+16
   -0.104995    0.26002  0.0000E+00  0.4702E-13  0.1132E-15  0.1000E-09  0.0000E+00  0.5379E+16
   -0.139994    0.34782  0.0000E+00  0.4702E-13  0.1132E-15  0.1000E-09  0.0000E+00  0.5222E+16
   -0.174993    0.43527  0.0000E+00  0.4702E-13  0.1132E-15  0.1000E-09  0.0000E+00  0.5062E+16
   -0.209992    0.52229  0.0000E+00  0.4702E-13  0.1132E-15  0.1000E-09  0.0000E+00  0.4899E+16
   -0.244992    0.60876  0.0000E+00  0.4702E-13  0.1132E-15  0.1000E-09  0.0000E+00  0.4735E+16
   -0.279992    0.69462  0.0000E+00  0.4702E-13  0.1132E-15  0.1000E-09  0.0000E+00  0.4570E+16
   -0.314992    0.77979  0.0000E+00  0.4702E-13  0.1132E-15  0.1000E-09  0.0000E+00  0.4455E+16
   -0.349992    0.86519  0.0000E+00  0.4702E-13  0.1132E-15  0.1000E-09  0.0000E+00  0.4344E+16
   -0.384993    0.95089  0.0000E+00  0.4702E-13  0.1132E-15  0.1000E-09  0.0000E+00  0.4232E+16
   -0.419994    1.03689  0.0000E+00  0.4702E-13  0.1132E-15  0.1000E-09  0.0000E+00  0.4103E+16
   -0.454994    1.12287  0.0000E+00  0.4702E-13  0.1132E-15  0.1000E-09  0.0000E+00  0.3982E+16
   -0.489995    1.20899  0.0000E+00  0.4702E-13  0.1132E-15  0.1000E-09  0.0000E+00  0.3914E+16
   -0.524996    1.29646  0.0000E+00  0.4702E-13  0.1132E-15  0.1000E-09  0.0000E+00  0.4108E+16
   -0.559997    1.39155  0.0000E+00  0.4702E-13  0.1132E-15  0.1000E-09  0.0000E+00  0.4498E+16
   -0.594999    1.50005  0.0000E+00  0.4702E-13  0.1132E-15  0.1000E-09  0.0000E+00  0.4883E+16
   -0.630000    1.62370  0.0000E+00  0.4702E-13  0.1132E-15  0.1000E-09  0.0000E+00  0.4579E+16
   -0.665001    1.74609  0.0000E+00  0.4702E-13  0.1132E-15  0.1000E-09  0.0000E+00  0.4278E+16
   -0.700002    1.86708  0.0000E+00  0.4702E-13  0.1132E-15  0.1000E-09  0.0000E+00  0.3991E+16
   -0.735004    1.98678  0.0000E+00  0.4702E-13  0.1132E-15  0.1000E-09  0.0000E+00  0.3735E+16
   -0.770005    2.10593  0.0000E+00  0.4702E-13  0.1132E-15  0.1000E-09  0.0000E+00  0.3518E+16
   -0.805006    2.22575  0.0000E+00  0.4702E-13  0.1132E-15  0.1000E-09  0.0000E+00  0.3288E+16
   -0.840007    2.34588  0.0000E+00  0.4702E-13  0.1132E-15  0.1000E-09  0.0000E+00  0.3052E+16
   -0.875009    2.46611  0.0000E+00  0.4702E-13  0.1132E-15  0.1000E-09  0.0000E+00  0.2818E+16
   -0.910010    2.58649  0.0000E+00  0.4702E-13  0.1132E-15  0.1000E-09  0.0000E+00  0.2552E+16
   -0.945010    2.70549  0.0000E+00  0.4702E-13  0.1132E-15  0.1000E-09  0.0000E+00  0.2284E+16
   -0.980011    2.82246  0.0000E+00  0.4702E-13  0.1132E-15  0.1000E-09  0.0000E+00  0.2023E+16
   -1.015012    2.93712  0.0000E+00  0.6472E-13  0.1132E-15  0.1000E-09  0.0000E+00  0.1803E+16
   -1.050012    3.05133  0.0000E+00  0.2799E-12  0.3221E-15  0.1000E-09  0.0000E+00  0.1600E+16
   -1.085013    3.16609  0.0000E+00  0.1088E-11  0.1173E-14  0.1000E-09  0.0000E+00  0.1449E+16
   -1.120013    3.28628  0.0000E+00  0.4028E-11  0.4196E-14  0.1000E-09  0.0000E+00  0.1225E+16
   -1.155013    3.40738  0.0000E+00  0.1465E-10  0.1480E-13  0.1000E-09  0.0000E+00  0.1001E+16
   -1.190012    3.52982  0.0000E+00  0.5289E-10  0.5189E-13  0.1660E-09  0.0000E+00  0.7879E+15
   -1.225012    3.65705  0.0000E+00  0.1994E-09  0.1902E-12  0.7957E-09  0.0000E+00  0.5985E+15
   -1.260011    3.80653  0.0000E+00  0.7910E-09  0.7360E-12  0.7027E-08  0.0000E+00  0.2522E+15
   -1.295010    3.99981  0.0000E+00  0.3138E-08  0.2919E-11  0.1279E-05  0.0000E+00 -0.1255E+14
   -1.330009    4.02858  0.0000E+00  0.4495E-08  0.5483E-11  0.1364E-05  0.0000E+00 -0.2137E+14
   -1.365007    4.05352  0.0000E+00  0.4310E-08  0.1046E-10  0.4916E-06  0.0000E+00 -0.7111E+14
   -1.400005    4.10296  0.0000E+00  0.0000E+00  0.0000E+00  0.0000E+00  0.0000E+00  0.0000E+00
