 1 - depth, m
 2 - temperature, C
 3 - salinity, kg/kg
 4 - turbulent kinetic energy, m**2/s**2
 5 - dissipation rate, m**2/s**3
 6 - kinematic heat conductance, m**2/s
 7 - modulus of horizontal velocity, m/s
 8 - Richardson number, n/d
   -0.000000    0.00000  0.0000E+00  0.8342E-12  0.2540E-15  0.1000E-09  0.0000E+00  0.1933E+17
   -0.034997    0.30216  0.0000E+00  0.1251E-11  0.2722E-15  0.1000E-09  0.0000E+00  0.1685E+17
   -0.069994    0.58887  0.0000E+00  0.2124E-11  0.3817E-15  0.1000E-09  0.0000E+00  0.1466E+17
   -0.104991    0.86109  0.0000E+00  0.3641E-11  0.5982E-15  0.1000E-09  0.0000E+00  0.1270E+17
   -0.139989    1.11884  0.0000E+00  0.6169E-11  0.9687E-15  0.1000E-09  0.0000E+00  0.1095E+17
   -0.174987    1.36246  0.0000E+00  0.1034E-10  0.1578E-14  0.1000E-09  0.0000E+00  0.9421E+16
   -0.209985    1.59267  0.0000E+00  0.1717E-10  0.2566E-14  0.1000E-09  0.0000E+00  0.8075E+16
   -0.244984    1.81011  0.0000E+00  0.2834E-10  0.4156E-14  0.1000E-09  0.0000E+00  0.6893E+16
   -0.279982    2.01536  0.0000E+00  0.4652E-10  0.6702E-14  0.1000E-09  0.0000E+00  0.5855E+16
   -0.314981    2.20887  0.0000E+00  0.7642E-10  0.1082E-13  0.1000E-09  0.0000E+00  0.4942E+16
   -0.349981    2.39095  0.0000E+00  0.1260E-09  0.1753E-13  0.1000E-09  0.0000E+00  0.4135E+16
   -0.384980    2.56160  0.0000E+00  0.2077E-09  0.2840E-13  0.1000E-09  0.0000E+00  0.3429E+16
   -0.419979    2.72089  0.0000E+00  0.3408E-09  0.4581E-13  0.1000E-09  0.0000E+00  0.2876E+16
   -0.454979    2.87229  0.0000E+00  0.5561E-09  0.7352E-13  0.1000E-09  0.0000E+00  0.2437E+16
   -0.489979    3.01937  0.0000E+00  0.9042E-09  0.1175E-12  0.1473E-09  0.0000E+00  0.2063E+16
   -0.524978    3.16453  0.0000E+00  0.1525E-08  0.1949E-12  0.2746E-09  0.0000E+00  0.1834E+16
   -0.559978    3.32001  0.0000E+00  0.2693E-08  0.3379E-12  0.5451E-09  0.0000E+00  0.1604E+16
   -0.594978    3.49540  0.0000E+00  0.5035E-08  0.6207E-12  0.1323E-08  0.0000E+00  0.1216E+16
   -0.629978    3.69194  0.0000E+00  0.8616E-08  0.1047E-11  0.4687E-08  0.0000E+00  0.5819E+15
   -0.664978    3.87440  0.0000E+00  0.1374E-07  0.1649E-11  0.4967E-07  0.0000E+00  0.9588E+14
   -0.699979    4.00711  0.0000E+00  0.1433E-07  0.1723E-11  0.4474E-04  0.0000E+00 -0.1799E+12
   -0.734979    4.00766  0.0000E+00  0.1463E-07  0.1766E-11  0.4438E-04  0.0000E+00 -0.1870E+12
   -0.769979    4.00822  0.0000E+00  0.1491E-07  0.1813E-11  0.4481E-04  0.0000E+00 -0.1931E+12
   -0.804979    4.00879  0.0000E+00  0.1519E-07  0.1865E-11  0.4512E-04  0.0000E+00 -0.1999E+12
   -0.839979    4.00935  0.0000E+00  0.1545E-07  0.1923E-11  0.4529E-04  0.0000E+00 -0.2076E+12
   -0.874979    4.00993  0.0000E+00  0.1571E-07  0.1988E-11  0.4529E-04  0.0000E+00 -0.2175E+12
   -0.909979    4.01051  0.0000E+00  0.1596E-07  0.2060E-11  0.4511E-04  0.0000E+00 -0.2265E+12
   -0.944978    4.01111  0.0000E+00  0.1619E-07  0.2140E-11  0.4489E-04  0.0000E+00 -0.2357E+12
   -0.979978    4.01171  0.0000E+00  0.1641E-07  0.2229E-11  0.4675E-04  0.0000E+00 -0.2346E+12
   -1.014977    4.01230  0.0000E+00  0.1661E-07  0.2331E-11  0.4626E-04  0.0000E+00 -0.2537E+12
   -1.049977    4.01293  0.0000E+00  0.1681E-07  0.2452E-11  0.4260E-04  0.0000E+00 -0.2955E+12
   -1.084976    4.01363  0.0000E+00  0.1699E-07  0.2599E-11  0.4110E-04  0.0000E+00 -0.3235E+12
   -1.119975    4.01438  0.0000E+00  0.1715E-07  0.2775E-11  0.3937E-04  0.0000E+00 -0.3496E+12
   -1.154973    4.01517  0.0000E+00  0.1729E-07  0.2991E-11  0.3735E-04  0.0000E+00 -0.3829E+12
   -1.189972    4.01601  0.0000E+00  0.1741E-07  0.3266E-11  0.3484E-04  0.0000E+00 -0.4349E+12
   -1.224970    4.01694  0.0000E+00  0.1751E-07  0.3664E-11  0.3181E-04  0.0000E+00 -0.5521E+12
   -1.259968    4.01808  0.0000E+00  0.1758E-07  0.4338E-11  0.2762E-04  0.0000E+00 -0.8279E+12
   -1.294966    4.01972  0.0000E+00  0.1750E-07  0.5991E-11  0.2108E-04  0.0000E+00 -0.1612E+13
   -1.329963    4.02271  0.0000E+00  0.1675E-07  0.1034E-10  0.8136E-05  0.0000E+00 -0.4853E+13
   -1.364960    4.03049  0.0000E+00  0.1296E-07  0.3052E-10  0.1167E-05  0.0000E+00 -0.5169E+14
   -1.399957    4.07885  0.0000E+00  0.0000E+00  0.0000E+00  0.0000E+00  0.0000E+00  0.0000E+00
