 1 - depth, m
 2 - temperature, C
 3 - salinity, kg/kg
 4 - turbulent kinetic energy, m**2/s**2
 5 - dissipation rate, m**2/s**3
 6 - kinematic heat conductance, m**2/s
 7 - modulus of horizontal velocity, m/s
 8 - Richardson number, n/d
   -0.000000    0.00000  0.0000E+00  0.4702E-13  0.1132E-15  0.1000E-09  0.0000E+00  0.5213E+16
   -0.034998    0.07903  0.0000E+00  0.4702E-13  0.1132E-15  0.1000E-09  0.0000E+00  0.5153E+16
   -0.069996    0.15888  0.0000E+00  0.4702E-13  0.1132E-15  0.1000E-09  0.0000E+00  0.5091E+16
   -0.104995    0.23954  0.0000E+00  0.4702E-13  0.1132E-15  0.1000E-09  0.0000E+00  0.4985E+16
   -0.139994    0.32036  0.0000E+00  0.4702E-13  0.1132E-15  0.1000E-09  0.0000E+00  0.4854E+16
   -0.174993    0.40091  0.0000E+00  0.4702E-13  0.1132E-15  0.1000E-09  0.0000E+00  0.4721E+16
   -0.209992    0.48114  0.0000E+00  0.4702E-13  0.1132E-15  0.1000E-09  0.0000E+00  0.4584E+16
   -0.244992    0.56095  0.0000E+00  0.4702E-13  0.1132E-15  0.1000E-09  0.0000E+00  0.4446E+16
   -0.279992    0.64028  0.0000E+00  0.4702E-13  0.1132E-15  0.1000E-09  0.0000E+00  0.4306E+16
   -0.314992    0.71906  0.0000E+00  0.4702E-13  0.1132E-15  0.1000E-09  0.0000E+00  0.4219E+16
   -0.349993    0.79824  0.0000E+00  0.4702E-13  0.1132E-15  0.1000E-09  0.0000E+00  0.4136E+16
   -0.384993    0.87792  0.0000E+00  0.4702E-13  0.1132E-15  0.1000E-09  0.0000E+00  0.4051E+16
   -0.419994    0.95810  0.0000E+00  0.4702E-13  0.1132E-15  0.1000E-09  0.0000E+00  0.3946E+16
   -0.454995    1.03843  0.0000E+00  0.4702E-13  0.1132E-15  0.1000E-09  0.0000E+00  0.3848E+16
   -0.489995    1.11903  0.0000E+00  0.4702E-13  0.1132E-15  0.1000E-09  0.0000E+00  0.3806E+16
   -0.524996    1.20115  0.0000E+00  0.4702E-13  0.1132E-15  0.1000E-09  0.0000E+00  0.4044E+16
   -0.559998    1.29128  0.0000E+00  0.4702E-13  0.1132E-15  0.1000E-09  0.0000E+00  0.4499E+16
   -0.594999    1.39540  0.0000E+00  0.4702E-13  0.1132E-15  0.1000E-09  0.0000E+00  0.4957E+16
   -0.630000    1.51543  0.0000E+00  0.4702E-13  0.1132E-15  0.1000E-09  0.0000E+00  0.4674E+16
   -0.665001    1.63445  0.0000E+00  0.4702E-13  0.1132E-15  0.1000E-09  0.0000E+00  0.4394E+16
   -0.700003    1.75236  0.0000E+00  0.4702E-13  0.1132E-15  0.1000E-09  0.0000E+00  0.4128E+16
   -0.735004    1.86934  0.0000E+00  0.4702E-13  0.1132E-15  0.1000E-09  0.0000E+00  0.3892E+16
   -0.770005    1.98611  0.0000E+00  0.4702E-13  0.1132E-15  0.1000E-09  0.0000E+00  0.3692E+16
   -0.805006    2.10380  0.0000E+00  0.4702E-13  0.1132E-15  0.1000E-09  0.0000E+00  0.3478E+16
   -0.840008    2.22205  0.0000E+00  0.4702E-13  0.1132E-15  0.1000E-09  0.0000E+00  0.3255E+16
   -0.875009    2.34066  0.0000E+00  0.4702E-13  0.1132E-15  0.1000E-09  0.0000E+00  0.3034E+16
   -0.910010    2.45972  0.0000E+00  0.4702E-13  0.1132E-15  0.1000E-09  0.0000E+00  0.2776E+16
   -0.945011    2.57768  0.0000E+00  0.4702E-13  0.1132E-15  0.1000E-09  0.0000E+00  0.2512E+16
   -0.980011    2.69390  0.0000E+00  0.4702E-13  0.1132E-15  0.1000E-09  0.0000E+00  0.2255E+16
   -1.015012    2.80815  0.0000E+00  0.4702E-13  0.1132E-15  0.1000E-09  0.0000E+00  0.2042E+16
   -1.050013    2.92239  0.0000E+00  0.4702E-13  0.1132E-15  0.1000E-09  0.0000E+00  0.1846E+16
   -1.085013    3.03761  0.0000E+00  0.1569E-12  0.2452E-15  0.1000E-09  0.0000E+00  0.1702E+16
   -1.120013    3.15818  0.0000E+00  0.7027E-12  0.1023E-14  0.1000E-09  0.0000E+00  0.1477E+16
   -1.155013    3.27953  0.0000E+00  0.3088E-11  0.4352E-14  0.1000E-09  0.0000E+00  0.1252E+16
   -1.190013    3.40205  0.0000E+00  0.1344E-10  0.1841E-13  0.1000E-09  0.0000E+00  0.1045E+16
   -1.225012    3.52909  0.0000E+00  0.6110E-10  0.8150E-13  0.2246E-09  0.0000E+00  0.8990E+15
   -1.260011    3.67815  0.0000E+00  0.2931E-09  0.3813E-12  0.1432E-08  0.0000E+00  0.6510E+15
   -1.295010    3.87614  0.0000E+00  0.1589E-08  0.2031E-11  0.6722E-07  0.0000E+00  0.4290E+14
   -1.330009    4.06803  0.0000E+00  0.5331E-08  0.7703E-11  0.1529E-05  0.0000E+00 -0.3156E+14
   -1.365007    4.08981  0.0000E+00  0.5193E-08  0.1356E-10  0.5543E-06  0.0000E+00 -0.8290E+14
   -1.400005    4.13231  0.0000E+00  0.0000E+00  0.0000E+00  0.0000E+00  0.0000E+00  0.0000E+00
