 1 - depth, m
 2 - temperature, C
 3 - salinity, kg/kg
 4 - turbulent kinetic energy, m**2/s**2
 5 - dissipation rate, m**2/s**3
 6 - kinematic heat conductance, m**2/s
 7 - modulus of horizontal velocity, m/s
 8 - Richardson number, n/d
   -0.000000    0.00000  0.0000E+00  0.4702E-13  0.1132E-15  0.1000E-09  0.0000E+00  0.6991E+16
   -0.034998    0.10638  0.0000E+00  0.4702E-13  0.1132E-15  0.1000E-09  0.0000E+00  0.6823E+16
   -0.069996    0.21331  0.0000E+00  0.4702E-13  0.1132E-15  0.1000E-09  0.0000E+00  0.6651E+16
   -0.104994    0.32074  0.0000E+00  0.4702E-13  0.1132E-15  0.1000E-09  0.0000E+00  0.6419E+16
   -0.139993    0.42769  0.0000E+00  0.4702E-13  0.1132E-15  0.1000E-09  0.0000E+00  0.6156E+16
   -0.174992    0.53355  0.0000E+00  0.4702E-13  0.1132E-15  0.1000E-09  0.0000E+00  0.5895E+16
   -0.209991    0.63826  0.0000E+00  0.4702E-13  0.1132E-15  0.1000E-09  0.0000E+00  0.5636E+16
   -0.244991    0.74171  0.0000E+00  0.4702E-13  0.1132E-15  0.1000E-09  0.0000E+00  0.5381E+16
   -0.279991    0.84384  0.0000E+00  0.4702E-13  0.1132E-15  0.1000E-09  0.0000E+00  0.5130E+16
   -0.314991    0.94456  0.0000E+00  0.4702E-13  0.1132E-15  0.1000E-09  0.0000E+00  0.4933E+16
   -0.349991    1.04485  0.0000E+00  0.4702E-13  0.1132E-15  0.1000E-09  0.0000E+00  0.4743E+16
   -0.384991    1.14477  0.0000E+00  0.4702E-13  0.1132E-15  0.1000E-09  0.0000E+00  0.4552E+16
   -0.419992    1.24425  0.0000E+00  0.4702E-13  0.1132E-15  0.1000E-09  0.0000E+00  0.4351E+16
   -0.454992    1.34300  0.0000E+00  0.4702E-13  0.1132E-15  0.1000E-09  0.0000E+00  0.4163E+16
   -0.489993    1.44124  0.0000E+00  0.4702E-13  0.1132E-15  0.1000E-09  0.0000E+00  0.4027E+16
   -0.524994    1.54019  0.0000E+00  0.4702E-13  0.1132E-15  0.1000E-09  0.0000E+00  0.4134E+16
   -0.559995    1.64629  0.0000E+00  0.4702E-13  0.1132E-15  0.1000E-09  0.0000E+00  0.4406E+16
   -0.594996    1.76519  0.0000E+00  0.4702E-13  0.1132E-15  0.1000E-09  0.0000E+00  0.4652E+16
   -0.629997    1.89834  0.0000E+00  0.4702E-13  0.1132E-15  0.1000E-09  0.0000E+00  0.4277E+16
   -0.664998    2.02903  0.0000E+00  0.4702E-13  0.1132E-15  0.1000E-09  0.0000E+00  0.3914E+16
   -0.699999    2.15707  0.0000E+00  0.4702E-13  0.1132E-15  0.1000E-09  0.0000E+00  0.3571E+16
   -0.735000    2.28253  0.0000E+00  0.4702E-13  0.1132E-15  0.1000E-09  0.0000E+00  0.3267E+16
   -0.770001    2.40625  0.0000E+00  0.4702E-13  0.1132E-15  0.1000E-09  0.0000E+00  0.3013E+16
   -0.805002    2.52989  0.0000E+00  0.4702E-13  0.1132E-15  0.1000E-09  0.0000E+00  0.2751E+16
   -0.840003    2.65301  0.0000E+00  0.4702E-13  0.1132E-15  0.1000E-09  0.0000E+00  0.2488E+16
   -0.875004    2.77536  0.0000E+00  0.4702E-13  0.1132E-15  0.1000E-09  0.0000E+00  0.2232E+16
   -0.910005    2.89697  0.0000E+00  0.6076E-13  0.1132E-15  0.1000E-09  0.0000E+00  0.1955E+16
   -0.945006    3.01624  0.0000E+00  0.2655E-12  0.2231E-15  0.1000E-09  0.0000E+00  0.1685E+16
   -0.980007    3.13246  0.0000E+00  0.8639E-12  0.6419E-15  0.1000E-09  0.0000E+00  0.1428E+16
   -1.015007    3.24532  0.0000E+00  0.2623E-11  0.1871E-14  0.1000E-09  0.0000E+00  0.1207E+16
   -1.050007    3.35648  0.0000E+00  0.7848E-11  0.5425E-14  0.1000E-09  0.0000E+00  0.1004E+16
   -1.085008    3.46699  0.0000E+00  0.2332E-10  0.1566E-13  0.1000E-09  0.0000E+00  0.8428E+15
   -1.120007    3.58272  0.0000E+00  0.6801E-10  0.4442E-13  0.1792E-09  0.0000E+00  0.6324E+15
   -1.155007    3.69893  0.0000E+00  0.1959E-09  0.1246E-12  0.7511E-09  0.0000E+00  0.4204E+15
   -1.190007    3.81569  0.0000E+00  0.5609E-09  0.3480E-12  0.4176E-08  0.0000E+00  0.2071E+15
   -1.225006    3.93421  0.0000E+00  0.1618E-08  0.9876E-12  0.1121E-06  0.0000E+00  0.1475E+14
   -1.260005    4.01523  0.0000E+00  0.3820E-08  0.2494E-11  0.2292E-05  0.0000E+00 -0.6288E+13
   -1.295004    4.02680  0.0000E+00  0.5650E-08  0.4505E-11  0.2997E-05  0.0000E+00 -0.9677E+13
   -1.330002    4.03993  0.0000E+00  0.6386E-08  0.7037E-11  0.2061E-05  0.0000E+00 -0.1712E+14
   -1.365000    4.05746  0.0000E+00  0.5495E-08  0.1333E-10  0.5883E-06  0.0000E+00 -0.6753E+14
   -1.399998    4.10334  0.0000E+00  0.0000E+00  0.0000E+00  0.0000E+00  0.0000E+00  0.0000E+00
