 1 - depth, m
 2 - temperature, C
 3 - salinity, kg/kg
 4 - turbulent kinetic energy, m**2/s**2
 5 - dissipation rate, m**2/s**3
 6 - kinematic heat conductance, m**2/s
 7 - modulus of horizontal velocity, m/s
 8 - Richardson number, n/d
   -0.000000    0.00000  0.0000E+00  0.4702E-13  0.1132E-15  0.1000E-09  0.0000E+00  0.1107E+17
   -0.034998    0.16991  0.0000E+00  0.4702E-13  0.1132E-15  0.1000E-09  0.0000E+00  0.1064E+17
   -0.069996    0.34122  0.0000E+00  0.4702E-13  0.1132E-15  0.1000E-09  0.0000E+00  0.1020E+17
   -0.104994    0.51390  0.0000E+00  0.4702E-13  0.1132E-15  0.1000E-09  0.0000E+00  0.9634E+16
   -0.139993    0.68575  0.0000E+00  0.4702E-13  0.1132E-15  0.1000E-09  0.0000E+00  0.9008E+16
   -0.174992    0.85547  0.0000E+00  0.1440E-12  0.1132E-15  0.1000E-09  0.0000E+00  0.8399E+16
   -0.209991    1.02294  0.0000E+00  0.4302E-12  0.1167E-15  0.1000E-09  0.0000E+00  0.7808E+16
   -0.244991    1.18807  0.0000E+00  0.9148E-12  0.1700E-15  0.1000E-09  0.0000E+00  0.7236E+16
   -0.279990    1.35078  0.0000E+00  0.1690E-11  0.2730E-15  0.1000E-09  0.0000E+00  0.6684E+16
   -0.314990    1.51100  0.0000E+00  0.2950E-11  0.4485E-15  0.1000E-09  0.0000E+00  0.6158E+16
   -0.349990    1.66884  0.0000E+00  0.5039E-11  0.7413E-15  0.1000E-09  0.0000E+00  0.5648E+16
   -0.384991    1.82412  0.0000E+00  0.8508E-11  0.1224E-14  0.1000E-09  0.0000E+00  0.5152E+16
   -0.419991    1.97660  0.0000E+00  0.1423E-10  0.2009E-14  0.1000E-09  0.0000E+00  0.4707E+16
   -0.454992    2.12720  0.0000E+00  0.2362E-10  0.3280E-14  0.1000E-09  0.0000E+00  0.4310E+16
   -0.489992    2.27708  0.0000E+00  0.3907E-10  0.5338E-14  0.1000E-09  0.0000E+00  0.3951E+16
   -0.524993    2.42746  0.0000E+00  0.6713E-10  0.9020E-14  0.1000E-09  0.0000E+00  0.3732E+16
   -0.559994    2.58465  0.0000E+00  0.1208E-09  0.1597E-13  0.1000E-09  0.0000E+00  0.3570E+16
   -0.594995    2.75409  0.0000E+00  0.2307E-09  0.2998E-13  0.1000E-09  0.0000E+00  0.3332E+16
   -0.629996    2.93720  0.0000E+00  0.4030E-09  0.5164E-13  0.1000E-09  0.0000E+00  0.2756E+16
   -0.664997    3.11789  0.0000E+00  0.6703E-09  0.8469E-13  0.1020E-09  0.0000E+00  0.2202E+16
   -0.699998    3.29599  0.0000E+00  0.1093E-08  0.1362E-12  0.2110E-09  0.0000E+00  0.1672E+16
   -0.734999    3.47148  0.0000E+00  0.1773E-08  0.2176E-12  0.4804E-09  0.0000E+00  0.1174E+16
   -0.770000    3.64545  0.0000E+00  0.2866E-08  0.3467E-12  0.1291E-08  0.0000E+00  0.6960E+15
   -0.805001    3.81992  0.0000E+00  0.4613E-08  0.5500E-12  0.6565E-08  0.0000E+00  0.2171E+15
   -0.840002    3.98941  0.0000E+00  0.5334E-08  0.6393E-12  0.1076E-04  0.0000E+00 -0.1538E+12
   -0.875003    3.99174  0.0000E+00  0.5749E-08  0.7001E-12  0.1365E-04  0.0000E+00 -0.1851E+12
   -0.910004    3.99361  0.0000E+00  0.6147E-08  0.7667E-12  0.1574E-04  0.0000E+00 -0.2064E+12
   -0.945005    3.99523  0.0000E+00  0.6524E-08  0.8386E-12  0.1742E-04  0.0000E+00 -0.2236E+12
   -0.980005    3.99671  0.0000E+00  0.6880E-08  0.9164E-12  0.1903E-04  0.0000E+00 -0.2365E+12
   -1.015006    3.99807  0.0000E+00  0.7215E-08  0.1001E-11  0.2059E-04  0.0000E+00 -0.2506E+12
   -1.050006    3.99936  0.0000E+00  0.7526E-08  0.1095E-11  0.2099E-04  0.0000E+00 -0.2795E+12
   -1.085006    4.00066  0.0000E+00  0.7813E-08  0.1199E-11  0.2077E-04  0.0000E+00 -0.3184E+12
   -1.120006    4.00202  0.0000E+00  0.8085E-08  0.1320E-11  0.2023E-04  0.0000E+00 -0.3587E+12
   -1.155006    4.00341  0.0000E+00  0.8353E-08  0.1475E-11  0.1925E-04  0.0000E+00 -0.4126E+12
   -1.190005    4.00489  0.0000E+00  0.8614E-08  0.1680E-11  0.1727E-04  0.0000E+00 -0.5114E+12
   -1.225005    4.00657  0.0000E+00  0.8871E-08  0.1977E-11  0.1545E-04  0.0000E+00 -0.6906E+12
   -1.260004    4.00864  0.0000E+00  0.9116E-08  0.2467E-11  0.1356E-04  0.0000E+00 -0.1059E+13
   -1.295002    4.01149  0.0000E+00  0.9270E-08  0.3610E-11  0.9652E-05  0.0000E+00 -0.2251E+13
   -1.330001    4.01666  0.0000E+00  0.8851E-08  0.6148E-11  0.4030E-05  0.0000E+00 -0.6358E+13
   -1.364999    4.02794  0.0000E+00  0.6789E-08  0.1488E-10  0.7012E-06  0.0000E+00 -0.4817E+14
   -1.399996    4.07513  0.0000E+00  0.0000E+00  0.0000E+00  0.0000E+00  0.0000E+00  0.0000E+00
