 1 - depth, m
 2 - temperature, C
 3 - salinity, kg/kg
 4 - turbulent kinetic energy, m**2/s**2
 5 - dissipation rate, m**2/s**3
 6 - kinematic heat conductance, m**2/s
 7 - modulus of horizontal velocity, m/s
 8 - Richardson number, n/d
   -0.000000    0.00000  0.0000E+00  0.4702E-13  0.1132E-15  0.1000E-09  0.0000E+00  0.1118E+17
   -0.034998    0.17158  0.0000E+00  0.4702E-13  0.1132E-15  0.1000E-09  0.0000E+00  0.1072E+17
   -0.069996    0.34435  0.0000E+00  0.4702E-13  0.1132E-15  0.1000E-09  0.0000E+00  0.1027E+17
   -0.104994    0.51847  0.0000E+00  0.4702E-13  0.1132E-15  0.1000E-09  0.0000E+00  0.9689E+16
   -0.139993    0.69158  0.0000E+00  0.4702E-13  0.1132E-15  0.1000E-09  0.0000E+00  0.9044E+16
   -0.174992    0.86233  0.0000E+00  0.1090E-12  0.1132E-15  0.1000E-09  0.0000E+00  0.8422E+16
   -0.209991    1.03068  0.0000E+00  0.3240E-12  0.1185E-15  0.1000E-09  0.0000E+00  0.7821E+16
   -0.244990    1.19658  0.0000E+00  0.7399E-12  0.1596E-15  0.1000E-09  0.0000E+00  0.7242E+16
   -0.279990    1.35999  0.0000E+00  0.1429E-11  0.2570E-15  0.1000E-09  0.0000E+00  0.6684E+16
   -0.314990    1.52085  0.0000E+00  0.2573E-11  0.4308E-15  0.1000E-09  0.0000E+00  0.6131E+16
   -0.349990    1.67867  0.0000E+00  0.4510E-11  0.7284E-15  0.1000E-09  0.0000E+00  0.5594E+16
   -0.384990    1.83312  0.0000E+00  0.7792E-11  0.1230E-14  0.1000E-09  0.0000E+00  0.5074E+16
   -0.419990    1.98389  0.0000E+00  0.1331E-10  0.2063E-14  0.1000E-09  0.0000E+00  0.4631E+16
   -0.454991    2.13253  0.0000E+00  0.2257E-10  0.3440E-14  0.1000E-09  0.0000E+00  0.4250E+16
   -0.489991    2.28068  0.0000E+00  0.3809E-10  0.5715E-14  0.1000E-09  0.0000E+00  0.3901E+16
   -0.524992    2.42941  0.0000E+00  0.6685E-10  0.9871E-14  0.1000E-09  0.0000E+00  0.3673E+16
   -0.559993    2.58419  0.0000E+00  0.1229E-09  0.1787E-13  0.1000E-09  0.0000E+00  0.3494E+16
   -0.594994    2.74975  0.0000E+00  0.2397E-09  0.3430E-13  0.1000E-09  0.0000E+00  0.3251E+16
   -0.629995    2.92728  0.0000E+00  0.4263E-09  0.6025E-13  0.1000E-09  0.0000E+00  0.2713E+16
   -0.664996    3.10286  0.0000E+00  0.7222E-09  0.1008E-12  0.1255E-09  0.0000E+00  0.2196E+16
   -0.699997    3.27659  0.0000E+00  0.1201E-08  0.1655E-12  0.2533E-09  0.0000E+00  0.1698E+16
   -0.734998    3.44867  0.0000E+00  0.1987E-08  0.2703E-12  0.5728E-09  0.0000E+00  0.1225E+16
   -0.769999    3.62054  0.0000E+00  0.3280E-08  0.4405E-12  0.1486E-08  0.0000E+00  0.7621E+15
   -0.805000    3.79465  0.0000E+00  0.5393E-08  0.7152E-12  0.6540E-08  0.0000E+00  0.2797E+15
   -0.840001    3.96509  0.0000E+00  0.7076E-08  0.9494E-12  0.6557E-05  0.0000E+00  0.9274E+13
   -0.875001    3.99711  0.0000E+00  0.7667E-08  0.1039E-11  0.1829E-04  0.0000E+00 -0.2241E+12
   -0.910002    3.99871  0.0000E+00  0.8086E-08  0.1111E-11  0.2002E-04  0.0000E+00 -0.2450E+12
   -0.945003    4.00012  0.0000E+00  0.8478E-08  0.1189E-11  0.2155E-04  0.0000E+00 -0.2608E+12
   -0.980003    4.00142  0.0000E+00  0.8845E-08  0.1273E-11  0.2284E-04  0.0000E+00 -0.2760E+12
   -1.015004    4.00264  0.0000E+00  0.9188E-08  0.1366E-11  0.2398E-04  0.0000E+00 -0.2961E+12
   -1.050004    4.00383  0.0000E+00  0.9506E-08  0.1468E-11  0.2455E-04  0.0000E+00 -0.3237E+12
   -1.085004    4.00502  0.0000E+00  0.9801E-08  0.1583E-11  0.2435E-04  0.0000E+00 -0.3600E+12
   -1.120004    4.00626  0.0000E+00  0.1007E-07  0.1718E-11  0.2371E-04  0.0000E+00 -0.3984E+12
   -1.155003    4.00754  0.0000E+00  0.1032E-07  0.1882E-11  0.2270E-04  0.0000E+00 -0.4488E+12
   -1.190003    4.00890  0.0000E+00  0.1056E-07  0.2093E-11  0.2112E-04  0.0000E+00 -0.5291E+12
   -1.225002    4.01039  0.0000E+00  0.1078E-07  0.2398E-11  0.1935E-04  0.0000E+00 -0.6849E+12
   -1.260001    4.01219  0.0000E+00  0.1097E-07  0.2900E-11  0.1707E-04  0.0000E+00 -0.1017E+13
   -1.294999    4.01465  0.0000E+00  0.1106E-07  0.4102E-11  0.1241E-04  0.0000E+00 -0.2063E+13
   -1.329998    4.01906  0.0000E+00  0.1053E-07  0.6931E-11  0.4985E-05  0.0000E+00 -0.5820E+13
   -1.364996    4.02900  0.0000E+00  0.7967E-08  0.1757E-10  0.7836E-06  0.0000E+00 -0.4679E+14
   -1.399994    4.07464  0.0000E+00  0.0000E+00  0.0000E+00  0.0000E+00  0.0000E+00  0.0000E+00
