 1 - depth, m
 2 - temperature, C
 3 - salinity, kg/kg
 4 - turbulent kinetic energy, m**2/s**2
 5 - dissipation rate, m**2/s**3
 6 - kinematic heat conductance, m**2/s
 7 - modulus of horizontal velocity, m/s
 8 - Richardson number, n/d
   -0.000000    0.00000  0.0000E+00  0.3039E-07  0.1152E-09  0.3642E-08  0.0000E+00  0.8169E+17
   -0.034998    1.53625  0.0000E+00  0.2052E-06  0.8888E-10  0.5635E-08  0.0000E+00  0.4094E+17
   -0.069996    3.02432  0.0000E+00  0.5285E-06  0.1179E-09  0.4377E-07  0.0000E+00  0.7013E+16
   -0.104995    4.18540  0.0000E+00  0.5310E-06  0.1182E-09  0.7451E-03  0.0000E+00 -0.9409E+12
   -0.139994    4.18568  0.0000E+00  0.5321E-06  0.1184E-09  0.7345E-03  0.0000E+00 -0.8671E+12
   -0.174993    4.18596  0.0000E+00  0.5331E-06  0.1186E-09  0.7386E-03  0.0000E+00 -0.7706E+12
   -0.209993    4.18623  0.0000E+00  0.5339E-06  0.1188E-09  0.7504E-03  0.0000E+00 -0.8969E+12
   -0.244993    4.18649  0.0000E+00  0.5347E-06  0.1191E-09  0.7443E-03  0.0000E+00 -0.7435E+12
   -0.279993    4.18675  0.0000E+00  0.5354E-06  0.1193E-09  0.7487E-03  0.0000E+00 -0.8681E+12
   -0.314993    4.18701  0.0000E+00  0.5360E-06  0.1196E-09  0.7479E-03  0.0000E+00 -0.7234E+12
   -0.349993    4.18726  0.0000E+00  0.5365E-06  0.1199E-09  0.7454E-03  0.0000E+00 -0.8523E+12
   -0.384994    4.18751  0.0000E+00  0.5369E-06  0.1203E-09  0.7501E-03  0.0000E+00 -0.7096E+12
   -0.419995    4.18776  0.0000E+00  0.5373E-06  0.1207E-09  0.7395E-03  0.0000E+00 -0.8429E+12
   -0.454996    4.18801  0.0000E+00  0.5376E-06  0.1212E-09  0.7342E-03  0.0000E+00 -0.7735E+12
   -0.489997    4.18825  0.0000E+00  0.5379E-06  0.1217E-09  0.7319E-03  0.0000E+00 -0.7738E+12
   -0.524998    4.18850  0.0000E+00  0.5381E-06  0.1224E-09  0.7285E-03  0.0000E+00 -0.7708E+12
   -0.559999    4.18874  0.0000E+00  0.5383E-06  0.1233E-09  0.7234E-03  0.0000E+00 -0.7981E+12
   -0.595000    4.18899  0.0000E+00  0.5384E-06  0.1246E-09  0.7160E-03  0.0000E+00 -0.7932E+12
   -0.630002    4.18924  0.0000E+00  0.5385E-06  0.1262E-09  0.7077E-03  0.0000E+00 -0.8078E+12
   -0.665003    4.18950  0.0000E+00  0.5385E-06  0.1279E-09  0.7423E-03  0.0000E+00 -0.7047E+12
   -0.700004    4.18974  0.0000E+00  0.5385E-06  0.1297E-09  0.6634E-03  0.0000E+00 -0.9136E+12
   -0.735006    4.19001  0.0000E+00  0.5383E-06  0.1317E-09  0.7257E-03  0.0000E+00 -0.7193E+12
   -0.770007    4.19025  0.0000E+00  0.5381E-06  0.1339E-09  0.6364E-03  0.0000E+00 -0.9407E+12
   -0.805009    4.19053  0.0000E+00  0.5378E-06  0.1364E-09  0.7070E-03  0.0000E+00 -0.7344E+12
   -0.840010    4.19078  0.0000E+00  0.5374E-06  0.1392E-09  0.6058E-03  0.0000E+00 -0.9777E+12
   -0.875011    4.19107  0.0000E+00  0.5369E-06  0.1424E-09  0.6231E-03  0.0000E+00 -0.8934E+12
   -0.910012    4.19135  0.0000E+00  0.5363E-06  0.1461E-09  0.6095E-03  0.0000E+00 -0.9080E+12
   -0.945013    4.19163  0.0000E+00  0.5356E-06  0.1502E-09  0.5903E-03  0.0000E+00 -0.9320E+12
   -0.980014    4.19192  0.0000E+00  0.5348E-06  0.1548E-09  0.6398E-03  0.0000E+00 -0.8035E+12
   -1.015015    4.19219  0.0000E+00  0.5339E-06  0.1601E-09  0.5085E-03  0.0000E+00 -0.1132E+13
   -1.050015    4.19252  0.0000E+00  0.5328E-06  0.1665E-09  0.5254E-03  0.0000E+00 -0.1046E+13
   -1.085016    4.19285  0.0000E+00  0.5316E-06  0.1745E-09  0.5052E-03  0.0000E+00 -0.1086E+13
   -1.120016    4.19319  0.0000E+00  0.5301E-06  0.1843E-09  0.4733E-03  0.0000E+00 -0.1156E+13
   -1.155016    4.19354  0.0000E+00  0.5285E-06  0.1961E-09  0.5246E-03  0.0000E+00 -0.9898E+12
   -1.190016    4.19386  0.0000E+00  0.5266E-06  0.2112E-09  0.3652E-03  0.0000E+00 -0.1538E+13
   -1.225015    4.19432  0.0000E+00  0.5241E-06  0.2327E-09  0.3654E-03  0.0000E+00 -0.1500E+13
   -1.260015    4.19478  0.0000E+00  0.5203E-06  0.2703E-09  0.3185E-03  0.0000E+00 -0.1725E+13
   -1.295014    4.19531  0.0000E+00  0.5120E-06  0.3622E-09  0.2491E-03  0.0000E+00 -0.2367E+13
   -1.330012    4.19604  0.0000E+00  0.4933E-06  0.5960E-09  0.1543E-03  0.0000E+00 -0.3793E+13
   -1.365011    4.19720  0.0000E+00  0.3440E-06  0.2953E-08  0.5211E-05  0.0000E+00 -0.1190E+15
   -1.400009    4.23069  0.0000E+00  0.0000E+00  0.0000E+00  0.0000E+00  0.0000E+00  0.0000E+00
