 1 - depth, m
 2 - temperature, C
 3 - salinity, kg/kg
 4 - turbulent kinetic energy, m**2/s**2
 5 - dissipation rate, m**2/s**3
 6 - kinematic heat conductance, m**2/s
 7 - modulus of horizontal velocity, m/s
 8 - Richardson number, n/d
   -0.000000    0.00000  0.0000E+00  0.2018E-11  0.6965E-15  0.1000E-09  0.0000E+00  0.1686E+17
   -0.034997    0.26204  0.0000E+00  0.3163E-11  0.6875E-15  0.1000E-09  0.0000E+00  0.1546E+17
   -0.069995    0.52097  0.0000E+00  0.5463E-11  0.9080E-15  0.1000E-09  0.0000E+00  0.1412E+17
   -0.104993    0.77678  0.0000E+00  0.9303E-11  0.1365E-14  0.1000E-09  0.0000E+00  0.1271E+17
   -0.139991    1.02707  0.0000E+00  0.1547E-10  0.2139E-14  0.1000E-09  0.0000E+00  0.1133E+17
   -0.174990    1.27044  0.0000E+00  0.2529E-10  0.3384E-14  0.1000E-09  0.0000E+00  0.1003E+17
   -0.209989    1.50679  0.0000E+00  0.4090E-10  0.5353E-14  0.1000E-09  0.0000E+00  0.8823E+16
   -0.244988    1.73604  0.0000E+00  0.6566E-10  0.8442E-14  0.1000E-09  0.0000E+00  0.7701E+16
   -0.279987    1.95807  0.0000E+00  0.1049E-09  0.1327E-13  0.1000E-09  0.0000E+00  0.6662E+16
   -0.314987    2.17277  0.0000E+00  0.1678E-09  0.2090E-13  0.1000E-09  0.0000E+00  0.5721E+16
   -0.349987    2.38063  0.0000E+00  0.2696E-09  0.3307E-13  0.1000E-09  0.0000E+00  0.4847E+16
   -0.384987    2.58129  0.0000E+00  0.4336E-09  0.5241E-13  0.1000E-09  0.0000E+00  0.4037E+16
   -0.419987    2.77418  0.0000E+00  0.6951E-09  0.8278E-13  0.1000E-09  0.0000E+00  0.3319E+16
   -0.454987    2.96018  0.0000E+00  0.1110E-08  0.1303E-12  0.1257E-09  0.0000E+00  0.2685E+16
   -0.489987    3.14058  0.0000E+00  0.1768E-08  0.2045E-12  0.2508E-09  0.0000E+00  0.2113E+16
   -0.524988    3.31645  0.0000E+00  0.2922E-08  0.3330E-12  0.5284E-09  0.0000E+00  0.1633E+16
   -0.559988    3.49420  0.0000E+00  0.5057E-08  0.5677E-12  0.1270E-08  0.0000E+00  0.1158E+16
   -0.594989    3.67763  0.0000E+00  0.9273E-08  0.1025E-11  0.4205E-08  0.0000E+00  0.6322E+15
   -0.629989    3.86436  0.0000E+00  0.1541E-07  0.1686E-11  0.3891E-07  0.0000E+00  0.1124E+15
   -0.664990    4.00986  0.0000E+00  0.1597E-07  0.1751E-11  0.5401E-04  0.0000E+00 -0.1765E+12
   -0.699991    4.01033  0.0000E+00  0.1624E-07  0.1787E-11  0.5270E-04  0.0000E+00 -0.1819E+12
   -0.734992    4.01081  0.0000E+00  0.1650E-07  0.1826E-11  0.5303E-04  0.0000E+00 -0.1836E+12
   -0.769992    4.01128  0.0000E+00  0.1676E-07  0.1870E-11  0.5337E-04  0.0000E+00 -0.1886E+12
   -0.804993    4.01176  0.0000E+00  0.1700E-07  0.1918E-11  0.5353E-04  0.0000E+00 -0.1942E+12
   -0.839994    4.01224  0.0000E+00  0.1723E-07  0.1970E-11  0.5354E-04  0.0000E+00 -0.2005E+12
   -0.874994    4.01273  0.0000E+00  0.1746E-07  0.2028E-11  0.5338E-04  0.0000E+00 -0.2082E+12
   -0.909995    4.01323  0.0000E+00  0.1767E-07  0.2092E-11  0.5304E-04  0.0000E+00 -0.2150E+12
   -0.944995    4.01373  0.0000E+00  0.1786E-07  0.2163E-11  0.5252E-04  0.0000E+00 -0.2224E+12
   -0.979995    4.01425  0.0000E+00  0.1804E-07  0.2242E-11  0.5178E-04  0.0000E+00 -0.2312E+12
   -1.014995    4.01477  0.0000E+00  0.1820E-07  0.2332E-11  0.5084E-04  0.0000E+00 -0.2458E+12
   -1.049995    4.01532  0.0000E+00  0.1835E-07  0.2438E-11  0.4960E-04  0.0000E+00 -0.2646E+12
   -1.084995    4.01589  0.0000E+00  0.1848E-07  0.2565E-11  0.4811E-04  0.0000E+00 -0.2861E+12
   -1.119994    4.01650  0.0000E+00  0.1860E-07  0.2718E-11  0.4622E-04  0.0000E+00 -0.3059E+12
   -1.154994    4.01714  0.0000E+00  0.1869E-07  0.2904E-11  0.4399E-04  0.0000E+00 -0.3307E+12
   -1.189993    4.01782  0.0000E+00  0.1875E-07  0.3139E-11  0.4123E-04  0.0000E+00 -0.3682E+12
   -1.224992    4.01856  0.0000E+00  0.1878E-07  0.3474E-11  0.3782E-04  0.0000E+00 -0.4524E+12
   -1.259990    4.01944  0.0000E+00  0.1876E-07  0.4039E-11  0.3293E-04  0.0000E+00 -0.6432E+12
   -1.294989    4.02066  0.0000E+00  0.1854E-07  0.5382E-11  0.2569E-04  0.0000E+00 -0.1136E+13
   -1.329987    4.02271  0.0000E+00  0.1760E-07  0.8915E-11  0.9820E-05  0.0000E+00 -0.3077E+13
   -1.364984    4.02776  0.0000E+00  0.1285E-07  0.2777E-10  0.1078E-05  0.0000E+00 -0.3400E+14
   -1.399982    4.06417  0.0000E+00  0.0000E+00  0.0000E+00  0.0000E+00  0.0000E+00  0.0000E+00
