 1 - depth, m
 2 - temperature, C
 3 - salinity, kg/kg
 4 - turbulent kinetic energy, m**2/s**2
 5 - dissipation rate, m**2/s**3
 6 - kinematic heat conductance, m**2/s
 7 - modulus of horizontal velocity, m/s
 8 - Richardson number, n/d
   -0.000000   15.75805  0.0000E+00  0.1168E-03  0.4988E-04  0.4815E-04  0.9297E-01 -0.8798E-02
   -0.034998   15.81045  0.0000E+00  0.6897E-04  0.1281E-04  0.7718E-04  0.3265E-01 -0.3289E-01
   -0.069997   15.82004  0.0000E+00  0.5223E-04  0.5910E-05  0.9541E-04  0.2337E-01 -0.3476E-01
   -0.104995   15.82682  0.0000E+00  0.4303E-04  0.3371E-05  0.1077E-03  0.1907E-01 -0.3905E-01
   -0.139994   15.83182  0.0000E+00  0.3663E-04  0.2067E-05  0.1208E-03  0.1595E-01 -0.5005E-01
   -0.174994   15.83584  0.0000E+00  0.3190E-04  0.1328E-05  0.1341E-03  0.1347E-01 -0.5719E-01
   -0.209993   15.83924  0.0000E+00  0.2828E-04  0.8913E-06  0.1469E-03  0.1141E-01 -0.6787E-01
   -0.244993   15.84220  0.0000E+00  0.2539E-04  0.6250E-06  0.1592E-03  0.9650E-02 -0.7145E-01
   -0.279993   15.84483  0.0000E+00  0.2296E-04  0.4563E-06  0.1773E-03  0.8106E-02  0.6935E+04
   -0.314993   15.84717  0.0000E+00  0.2075E-04  0.3428E-06  0.2143E-03  0.6708E-02  0.1190E+02
   -0.349994   15.84918  0.0000E+00  0.1885E-04  0.2651E-06  0.2478E-03  0.5587E-02  0.3103E+03
   -0.384995   15.85092  0.0000E+00  0.1724E-04  0.2104E-06  0.2872E-03  0.4667E-02  0.3748E+02
   -0.419995   15.85242  0.0000E+00  0.1590E-04  0.1714E-06  0.3261E-03  0.3896E-02  0.2832E+02
   -0.454996   15.85371  0.0000E+00  0.1477E-04  0.1430E-06  0.3584E-03  0.3211E-02  0.7664E+02
   -0.489997   15.85483  0.0000E+00  0.1379E-04  0.1218E-06  0.3861E-03  0.2587E-02  0.2952E+02
   -0.524999   15.85583  0.0000E+00  0.1284E-04  0.1042E-06  0.4338E-03  0.2028E-02  0.7086E+02
   -0.560000   15.85669  0.0000E+00  0.1190E-04  0.8875E-07  0.4897E-03  0.1600E-02  0.6526E+01
   -0.595001   15.85745  0.0000E+00  0.1090E-04  0.7370E-07  0.5378E-03  0.1308E-02  0.9688E+01
   -0.630003   15.85813  0.0000E+00  0.1007E-04  0.6203E-07  0.5524E-03  0.1141E-02  0.7326E+01
   -0.665004   15.85877  0.0000E+00  0.9392E-05  0.5301E-07  0.5558E-03  0.1000E-02  0.2222E+02
   -0.700005   15.85940  0.0000E+00  0.8808E-05  0.4577E-07  0.5622E-03  0.8696E-03  0.1714E+01
   -0.735007   15.86000  0.0000E+00  0.8305E-05  0.3995E-07  0.5685E-03  0.7522E-03  0.1591E+03
   -0.770008   15.86059  0.0000E+00  0.7871E-05  0.3527E-07  0.5743E-03  0.6490E-03  0.3761E+00
   -0.805010   15.86115  0.0000E+00  0.7493E-05  0.3150E-07  0.5786E-03  0.5593E-03 -0.2171E+02
   -0.840011   15.86171  0.0000E+00  0.7164E-05  0.2848E-07  0.5813E-03  0.4818E-03  0.7960E+00
   -0.875012   15.86225  0.0000E+00  0.6876E-05  0.2608E-07  0.5816E-03  0.4153E-03  0.6469E+01
   -0.910013   15.86278  0.0000E+00  0.6622E-05  0.2420E-07  0.5785E-03  0.3591E-03  0.2497E+01
   -0.945014   15.86331  0.0000E+00  0.6399E-05  0.2277E-07  0.5721E-03  0.3104E-03  0.2772E+01
   -0.980015   15.86383  0.0000E+00  0.6201E-05  0.2173E-07  0.5616E-03  0.2680E-03  0.3329E+01
   -1.015016   15.86435  0.0000E+00  0.6022E-05  0.2102E-07  0.5472E-03  0.2308E-03  0.4154E+01
   -1.050017   15.86487  0.0000E+00  0.5856E-05  0.2064E-07  0.5284E-03  0.1992E-03  0.5614E+01
   -1.085017   15.86541  0.0000E+00  0.5696E-05  0.2057E-07  0.5083E-03  0.1726E-03  0.7815E+01
   -1.120018   15.86596  0.0000E+00  0.5536E-05  0.2092E-07  0.4783E-03  0.1499E-03  0.1139E+02
   -1.155018   15.86654  0.0000E+00  0.5370E-05  0.2185E-07  0.4572E-03  0.1288E-03  0.2690E+02
   -1.190017   15.86715  0.0000E+00  0.5183E-05  0.2396E-07  0.4079E-03  0.1092E-03  0.1216E+02
   -1.225017   15.86795  0.0000E+00  0.4946E-05  0.2817E-07  0.3838E-03  0.8751E-04  0.1208E+04
   -1.260016   15.86882  0.0000E+00  0.4590E-05  0.3842E-07  0.2963E-03  0.6853E-04 -0.9316E+04
   -1.295015   15.87091  0.0000E+00  0.3989E-05  0.6403E-07  0.2762E-03  0.4805E-04 -0.5840E+05
   -1.330014   15.87096  0.0000E+00  0.3202E-05  0.1381E-06  0.1267E-03  0.4112E-04  0.1155E+05
   -1.365013   15.87942  0.0000E+00  0.2094E-05  0.3310E-06  0.7270E-04  0.2512E-04 -0.2208E+07
   -1.400011   15.88270  0.0000E+00  0.0000E+00  0.0000E+00  0.0000E+00  0.3926E-04  0.0000E+00
