 1 - depth, m
 2 - temperature, C
 3 - salinity, kg/kg
 4 - turbulent kinetic energy, m**2/s**2
 5 - dissipation rate, m**2/s**3
 6 - kinematic heat conductance, m**2/s
 7 - modulus of horizontal velocity, m/s
 8 - Richardson number, n/d
   -0.000000    0.00000  0.0000E+00  0.5526E-12  0.1554E-15  0.1000E-09  0.0000E+00  0.1452E+17
   -0.034998    0.22455  0.0000E+00  0.8084E-12  0.1683E-15  0.1000E-09  0.0000E+00  0.1351E+17
   -0.069995    0.44710  0.0000E+00  0.1347E-11  0.2354E-15  0.1000E-09  0.0000E+00  0.1254E+17
   -0.104994    0.66789  0.0000E+00  0.2284E-11  0.3670E-15  0.1000E-09  0.0000E+00  0.1151E+17
   -0.139992    0.88525  0.0000E+00  0.3845E-11  0.5921E-15  0.1000E-09  0.0000E+00  0.1049E+17
   -0.174991    1.09823  0.0000E+00  0.6417E-11  0.9622E-15  0.1000E-09  0.0000E+00  0.9516E+16
   -0.209990    1.30685  0.0000E+00  0.1063E-10  0.1562E-14  0.1000E-09  0.0000E+00  0.8596E+16
   -0.244989    1.51107  0.0000E+00  0.1751E-10  0.2528E-14  0.1000E-09  0.0000E+00  0.7723E+16
   -0.279989    1.71084  0.0000E+00  0.2871E-10  0.4077E-14  0.1000E-09  0.0000E+00  0.6898E+16
   -0.314988    1.90608  0.0000E+00  0.4716E-10  0.6588E-14  0.1000E-09  0.0000E+00  0.6138E+16
   -0.349988    2.09732  0.0000E+00  0.7779E-10  0.1069E-13  0.1000E-09  0.0000E+00  0.5415E+16
   -0.384988    2.28439  0.0000E+00  0.1284E-09  0.1737E-13  0.1000E-09  0.0000E+00  0.4728E+16
   -0.419988    2.46702  0.0000E+00  0.2111E-09  0.2811E-13  0.1000E-09  0.0000E+00  0.4094E+16
   -0.454989    2.64566  0.0000E+00  0.3455E-09  0.4530E-13  0.1000E-09  0.0000E+00  0.3514E+16
   -0.489989    2.82116  0.0000E+00  0.5639E-09  0.7280E-13  0.1000E-09  0.0000E+00  0.2980E+16
   -0.524990    2.99454  0.0000E+00  0.9561E-09  0.1215E-12  0.1240E-09  0.0000E+00  0.2538E+16
   -0.559991    3.17135  0.0000E+00  0.1699E-08  0.2123E-12  0.2608E-09  0.0000E+00  0.2110E+16
   -0.594991    3.35554  0.0000E+00  0.3200E-08  0.3937E-12  0.6298E-09  0.0000E+00  0.1620E+16
   -0.629992    3.54716  0.0000E+00  0.5526E-08  0.6706E-12  0.1724E-08  0.0000E+00  0.1008E+16
   -0.664993    3.73162  0.0000E+00  0.9066E-08  0.1086E-11  0.6156E-08  0.0000E+00  0.4572E+15
   -0.699994    3.90472  0.0000E+00  0.1410E-07  0.1673E-11  0.9169E-07  0.0000E+00  0.4765E+14
   -0.734995    4.01072  0.0000E+00  0.1468E-07  0.1746E-11  0.4674E-04  0.0000E+00 -0.2005E+12
   -0.769995    4.01124  0.0000E+00  0.1497E-07  0.1788E-11  0.4576E-04  0.0000E+00 -0.2115E+12
   -0.804996    4.01177  0.0000E+00  0.1525E-07  0.1835E-11  0.4610E-04  0.0000E+00 -0.2169E+12
   -0.839997    4.01231  0.0000E+00  0.1552E-07  0.1885E-11  0.4639E-04  0.0000E+00 -0.2227E+12
   -0.874998    4.01285  0.0000E+00  0.1577E-07  0.1941E-11  0.4652E-04  0.0000E+00 -0.2299E+12
   -0.909998    4.01340  0.0000E+00  0.1601E-07  0.2003E-11  0.4645E-04  0.0000E+00 -0.2362E+12
   -0.944999    4.01395  0.0000E+00  0.1623E-07  0.2071E-11  0.4620E-04  0.0000E+00 -0.2431E+12
   -0.979999    4.01451  0.0000E+00  0.1643E-07  0.2146E-11  0.4574E-04  0.0000E+00 -0.2514E+12
   -1.014999    4.01507  0.0000E+00  0.1661E-07  0.2232E-11  0.4508E-04  0.0000E+00 -0.2658E+12
   -1.049999    4.01565  0.0000E+00  0.1678E-07  0.2333E-11  0.4414E-04  0.0000E+00 -0.2847E+12
   -1.084999    4.01627  0.0000E+00  0.1694E-07  0.2454E-11  0.4297E-04  0.0000E+00 -0.3073E+12
   -1.119999    4.01691  0.0000E+00  0.1707E-07  0.2599E-11  0.4139E-04  0.0000E+00 -0.3278E+12
   -1.154999    4.01759  0.0000E+00  0.1718E-07  0.2776E-11  0.3948E-04  0.0000E+00 -0.3538E+12
   -1.189998    4.01830  0.0000E+00  0.1726E-07  0.2999E-11  0.3708E-04  0.0000E+00 -0.3936E+12
   -1.224997    4.01908  0.0000E+00  0.1731E-07  0.3317E-11  0.3411E-04  0.0000E+00 -0.4842E+12
   -1.259996    4.02001  0.0000E+00  0.1731E-07  0.3853E-11  0.2985E-04  0.0000E+00 -0.6901E+12
   -1.294994    4.02129  0.0000E+00  0.1711E-07  0.5116E-11  0.2338E-04  0.0000E+00 -0.1221E+13
   -1.329992    4.02345  0.0000E+00  0.1623E-07  0.8393E-11  0.9011E-05  0.0000E+00 -0.3259E+13
   -1.364990    4.02869  0.0000E+00  0.1180E-07  0.2530E-10  0.1009E-05  0.0000E+00 -0.3420E+14
   -1.399988    4.06483  0.0000E+00  0.0000E+00  0.0000E+00  0.0000E+00  0.0000E+00  0.0000E+00
