 1 - depth, m
 2 - temperature, C
 3 - salinity, kg/kg
 4 - turbulent kinetic energy, m**2/s**2
 5 - dissipation rate, m**2/s**3
 6 - kinematic heat conductance, m**2/s
 7 - modulus of horizontal velocity, m/s
 8 - Richardson number, n/d
   -0.000000    0.00000  0.0000E+00  0.4702E-13  0.1132E-15  0.1000E-09  0.0000E+00  0.9284E+16
   -0.034998    0.14198  0.0000E+00  0.4702E-13  0.1132E-15  0.1000E-09  0.0000E+00  0.9041E+16
   -0.069996    0.28581  0.0000E+00  0.4702E-13  0.1132E-15  0.1000E-09  0.0000E+00  0.8786E+16
   -0.104995    0.43153  0.0000E+00  0.4702E-13  0.1132E-15  0.1000E-09  0.0000E+00  0.8421E+16
   -0.139993    0.57741  0.0000E+00  0.4702E-13  0.1132E-15  0.1000E-09  0.0000E+00  0.8002E+16
   -0.174993    0.72243  0.0000E+00  0.4702E-13  0.1132E-15  0.1000E-09  0.0000E+00  0.7587E+16
   -0.209992    0.86649  0.0000E+00  0.4702E-13  0.1132E-15  0.1000E-09  0.0000E+00  0.7175E+16
   -0.244991    1.00950  0.0000E+00  0.4702E-13  0.1132E-15  0.1000E-09  0.0000E+00  0.6769E+16
   -0.279991    1.15138  0.0000E+00  0.4702E-13  0.1132E-15  0.1000E-09  0.0000E+00  0.6370E+16
   -0.314991    1.29202  0.0000E+00  0.1234E-12  0.1132E-15  0.1000E-09  0.0000E+00  0.6002E+16
   -0.349992    1.43197  0.0000E+00  0.3958E-12  0.1293E-15  0.1000E-09  0.0000E+00  0.5640E+16
   -0.384992    1.57117  0.0000E+00  0.9044E-12  0.2145E-15  0.1000E-09  0.0000E+00  0.5279E+16
   -0.419993    1.70949  0.0000E+00  0.1804E-11  0.3846E-15  0.1000E-09  0.0000E+00  0.4930E+16
   -0.454993    1.84706  0.0000E+00  0.3400E-11  0.6928E-15  0.1000E-09  0.0000E+00  0.4603E+16
   -0.489994    1.98434  0.0000E+00  0.6260E-11  0.1241E-14  0.1000E-09  0.0000E+00  0.4312E+16
   -0.524995    2.12241  0.0000E+00  0.1193E-10  0.2314E-14  0.1000E-09  0.0000E+00  0.4175E+16
   -0.559996    2.26696  0.0000E+00  0.2374E-10  0.4511E-14  0.1000E-09  0.0000E+00  0.4118E+16
   -0.594997    2.42297  0.0000E+00  0.4996E-10  0.9311E-14  0.1000E-09  0.0000E+00  0.4003E+16
   -0.629998    2.59173  0.0000E+00  0.9480E-10  0.1738E-13  0.1000E-09  0.0000E+00  0.3497E+16
   -0.664999    2.75845  0.0000E+00  0.1712E-09  0.3085E-13  0.1000E-09  0.0000E+00  0.3007E+16
   -0.700001    2.92295  0.0000E+00  0.3036E-09  0.5379E-13  0.1000E-09  0.0000E+00  0.2537E+16
   -0.735002    3.08528  0.0000E+00  0.5359E-09  0.9333E-13  0.1152E-09  0.0000E+00  0.2099E+16
   -0.770003    3.24646  0.0000E+00  0.9432E-09  0.1614E-12  0.2474E-09  0.0000E+00  0.1690E+16
   -0.805004    3.40852  0.0000E+00  0.1656E-08  0.2785E-12  0.5664E-09  0.0000E+00  0.1274E+16
   -0.840005    3.57096  0.0000E+00  0.2893E-08  0.4784E-12  0.1452E-08  0.0000E+00  0.8534E+15
   -0.875006    3.73304  0.0000E+00  0.5034E-08  0.8186E-12  0.4881E-08  0.0000E+00  0.4343E+15
   -0.910007    3.89220  0.0000E+00  0.8532E-08  0.1369E-11  0.5440E-07  0.0000E+00  0.6485E+14
   -0.945008    4.01057  0.0000E+00  0.9426E-08  0.1519E-11  0.2444E-04  0.0000E+00 -0.3627E+12
   -0.980009    4.01151  0.0000E+00  0.9829E-08  0.1600E-11  0.2440E-04  0.0000E+00 -0.3753E+12
   -1.015009    4.01244  0.0000E+00  0.1018E-07  0.1683E-11  0.2474E-04  0.0000E+00 -0.3877E+12
   -1.050010    4.01337  0.0000E+00  0.1050E-07  0.1778E-11  0.2488E-04  0.0000E+00 -0.4061E+12
   -1.085010    4.01431  0.0000E+00  0.1080E-07  0.1888E-11  0.2484E-04  0.0000E+00 -0.4347E+12
   -1.120010    4.01529  0.0000E+00  0.1107E-07  0.2016E-11  0.2437E-04  0.0000E+00 -0.4612E+12
   -1.155010    4.01629  0.0000E+00  0.1130E-07  0.2169E-11  0.2358E-04  0.0000E+00 -0.4965E+12
   -1.190009    4.01733  0.0000E+00  0.1151E-07  0.2363E-11  0.2243E-04  0.0000E+00 -0.5532E+12
   -1.225009    4.01845  0.0000E+00  0.1169E-07  0.2641E-11  0.2099E-04  0.0000E+00 -0.6851E+12
   -1.260008    4.01978  0.0000E+00  0.1184E-07  0.3086E-11  0.1893E-04  0.0000E+00 -0.9796E+12
   -1.295007    4.02160  0.0000E+00  0.1185E-07  0.4164E-11  0.1487E-04  0.0000E+00 -0.1778E+13
   -1.330005    4.02468  0.0000E+00  0.1119E-07  0.6815E-11  0.5691E-05  0.0000E+00 -0.4813E+13
   -1.365003    4.03200  0.0000E+00  0.8151E-08  0.1731E-10  0.7740E-06  0.0000E+00 -0.3914E+14
   -1.400001    4.07051  0.0000E+00  0.0000E+00  0.0000E+00  0.0000E+00  0.0000E+00  0.0000E+00
