 1 - depth, m
 2 - temperature, C
 3 - salinity, kg/kg
 4 - turbulent kinetic energy, m**2/s**2
 5 - dissipation rate, m**2/s**3
 6 - kinematic heat conductance, m**2/s
 7 - modulus of horizontal velocity, m/s
 8 - Richardson number, n/d
   -0.000000   15.44613  0.0000E+00  0.1558E-04  0.1184E-05  0.2046E-04  0.2155E-01 -0.1811E-01
   -0.034998   15.46833  0.0000E+00  0.1278E-04  0.4473E-06  0.3918E-04  0.1282E-01 -0.4643E-01
   -0.069996   15.47848  0.0000E+00  0.1108E-04  0.2436E-06  0.5684E-04  0.9288E-02 -0.8078E-01
   -0.104994   15.48517  0.0000E+00  0.9882E-05  0.1547E-06  0.7589E-04  0.7113E-02 -0.1262E+00
   -0.139993   15.49006  0.0000E+00  0.9011E-05  0.1076E-06  0.1014E-03  0.5628E-02 -0.1219E+00
   -0.174992   15.49369  0.0000E+00  0.8394E-05  0.8080E-07  0.1935E-03  0.4563E-02  0.1304E+04
   -0.209991   15.49583  0.0000E+00  0.7983E-05  0.6476E-07  0.2797E-03  0.3827E-02  0.3821E+02
   -0.244991   15.49724  0.0000E+00  0.7691E-05  0.5398E-07  0.3295E-03  0.3236E-02  0.1127E+03
   -0.279991   15.49836  0.0000E+00  0.7453E-05  0.4590E-07  0.3330E-03  0.2716E-02  0.9100E+01
   -0.314991   15.49947  0.0000E+00  0.7222E-05  0.3933E-07  0.3545E-03  0.2221E-02  0.5179E+01
   -0.349991   15.50051  0.0000E+00  0.7012E-05  0.3409E-07  0.3740E-03  0.1812E-02  0.3463E+01
   -0.384991   15.50148  0.0000E+00  0.6828E-05  0.2991E-07  0.3966E-03  0.1470E-02  0.2683E+01
   -0.419991   15.50239  0.0000E+00  0.6670E-05  0.2659E-07  0.4124E-03  0.1186E-02  0.2513E+01
   -0.454992   15.50328  0.0000E+00  0.6525E-05  0.2391E-07  0.4293E-03  0.9349E-03  0.2446E+01
   -0.489993   15.50414  0.0000E+00  0.6386E-05  0.2174E-07  0.4479E-03  0.7107E-03  0.2173E+01
   -0.524994   15.50496  0.0000E+00  0.6237E-05  0.1985E-07  0.5055E-03  0.5163E-03  0.1453E+01
   -0.559995   15.50563  0.0000E+00  0.6089E-05  0.1822E-07  0.6080E-03  0.3827E-03  0.9861E+00
   -0.594996   15.50611  0.0000E+00  0.5952E-05  0.1681E-07  0.6635E-03  0.3046E-03  0.7085E+00
   -0.629997   15.50646  0.0000E+00  0.5859E-05  0.1586E-07  0.6759E-03  0.2654E-03  0.7197E+00
   -0.664998   15.50681  0.0000E+00  0.5791E-05  0.1516E-07  0.6845E-03  0.2370E-03  0.7251E+00
   -0.699999   15.50717  0.0000E+00  0.5735E-05  0.1461E-07  0.6949E-03  0.2116E-03  0.7423E+00
   -0.735000   15.50752  0.0000E+00  0.5688E-05  0.1418E-07  0.7027E-03  0.1894E-03  0.7512E+00
   -0.770001   15.50788  0.0000E+00  0.5650E-05  0.1386E-07  0.7077E-03  0.1702E-03  0.7631E+00
   -0.805002   15.50824  0.0000E+00  0.5618E-05  0.1363E-07  0.7101E-03  0.1539E-03  0.8088E+00
   -0.840003   15.50861  0.0000E+00  0.5590E-05  0.1348E-07  0.7101E-03  0.1397E-03  0.8975E+00
   -0.875004   15.50899  0.0000E+00  0.5564E-05  0.1339E-07  0.7073E-03  0.1271E-03  0.1055E+01
   -0.910005   15.50937  0.0000E+00  0.5539E-05  0.1338E-07  0.7014E-03  0.1157E-03  0.1282E+01
   -0.945006   15.50977  0.0000E+00  0.5514E-05  0.1343E-07  0.6919E-03  0.1050E-03  0.1556E+01
   -0.980006   15.51020  0.0000E+00  0.5487E-05  0.1356E-07  0.6786E-03  0.9484E-04  0.1892E+01
   -1.015007   15.51065  0.0000E+00  0.5457E-05  0.1378E-07  0.6615E-03  0.8523E-04  0.2337E+01
   -1.050007   15.51112  0.0000E+00  0.5422E-05  0.1411E-07  0.6382E-03  0.7626E-04  0.3060E+01
   -1.085007   15.51162  0.0000E+00  0.5379E-05  0.1461E-07  0.6117E-03  0.6788E-04  0.4141E+01
   -1.120007   15.51216  0.0000E+00  0.5328E-05  0.1532E-07  0.5737E-03  0.6012E-04  0.5955E+01
   -1.155007   15.51276  0.0000E+00  0.5265E-05  0.1634E-07  0.5418E-03  0.5255E-04  0.8532E+01
   -1.190006   15.51342  0.0000E+00  0.5185E-05  0.1794E-07  0.4831E-03  0.4531E-04 -0.1035E+04
   -1.225006   15.51424  0.0000E+00  0.5071E-05  0.2062E-07  0.4540E-03  0.3903E-04 -0.3059E+03
   -1.260005   15.51512  0.0000E+00  0.4883E-05  0.2635E-07  0.3384E-03  0.3188E-04 -0.5684E+05
   -1.295003   15.51686  0.0000E+00  0.4506E-05  0.4085E-07  0.3399E-03  0.2456E-04  0.1031E+06
   -1.330002   15.51760  0.0000E+00  0.3824E-05  0.8275E-07  0.1331E-03  0.2068E-04  0.4966E+06
   -1.365000   15.52671  0.0000E+00  0.2514E-05  0.2122E-06  0.6102E-04  0.1346E-04 -0.3512E+06
   -1.399998   15.53447  0.0000E+00  0.0000E+00  0.0000E+00  0.0000E+00  0.1670E-04  0.0000E+00
