 1 - depth, m
 2 - temperature, C
 3 - salinity, kg/kg
 4 - turbulent kinetic energy, m**2/s**2
 5 - dissipation rate, m**2/s**3
 6 - kinematic heat conductance, m**2/s
 7 - modulus of horizontal velocity, m/s
 8 - Richardson number, n/d
   -0.000000    7.09474  0.0000E+00  0.2666E-03  0.2218E-02  0.6866E-04  0.1706E+00  0.6373E-02
   -0.034998    7.14232  0.0000E+00  0.1508E-03  0.1585E-02  0.1163E-03  0.5451E-01 -0.5257E-02
   -0.069996    7.15296  0.0000E+00  0.1050E-03  0.1285E-02  0.1335E-03  0.3497E-01 -0.2465E-01
   -0.104995    7.15995  0.0000E+00  0.8440E-04  0.1038E-02  0.1379E-03  0.2764E-01 -0.2568E-01
   -0.139993    7.16417  0.0000E+00  0.7047E-04  0.8174E-03  0.1437E-03  0.2297E-01 -0.8567E-02
   -0.174992    7.16739  0.0000E+00  0.6001E-04  0.6300E-03  0.1505E-03  0.1937E-01 -0.7843E-02
   -0.209992    7.17011  0.0000E+00  0.5185E-04  0.4744E-03  0.1574E-03  0.1644E-01 -0.1070E-01
   -0.244991    7.17260  0.0000E+00  0.4532E-04  0.3448E-03  0.1629E-03  0.1397E-01 -0.1103E-01
   -0.279991    7.17500  0.0000E+00  0.3978E-04  0.2362E-03  0.1653E-03  0.1177E-01 -0.1672E-01
   -0.314991    7.17746  0.0000E+00  0.3466E-04  0.1474E-03  0.1736E-03  0.9642E-02  0.1094E+00
   -0.349991    7.17964  0.0000E+00  0.3021E-04  0.7979E-04  0.1803E-03  0.8037E-02  0.7037E+01
   -0.384992    7.18162  0.0000E+00  0.2647E-04  0.3555E-04  0.1856E-03  0.6739E-02  0.1049E+03
   -0.419992    7.18347  0.0000E+00  0.2346E-04  0.1247E-04  0.1881E-03  0.5655E-02  0.3889E+02
   -0.454993    7.18531  0.0000E+00  0.2106E-04  0.3533E-05  0.1891E-03  0.4666E-02  0.1089E+02
   -0.489994    7.18717  0.0000E+00  0.1911E-04  0.9869E-06  0.1914E-03  0.3754E-02  0.1759E+02
   -0.524995    7.18906  0.0000E+00  0.1733E-04  0.3719E-06  0.1992E-03  0.2955E-02  0.3381E+02
   -0.559996    7.19071  0.0000E+00  0.1563E-04  0.2098E-06  0.2048E-03  0.2373E-02 -0.6403E+03
   -0.594997    7.19213  0.0000E+00  0.1381E-04  0.1451E-06  0.2052E-03  0.1987E-02  0.7661E+03
   -0.629998    7.19324  0.0000E+00  0.1222E-04  0.1108E-06  0.2056E-03  0.1756E-02  0.1293E+07
   -0.664999    7.19458  0.0000E+00  0.1087E-04  0.8823E-07  0.2109E-03  0.1537E-02  0.8954E+03
   -0.700000    7.19592  0.0000E+00  0.9732E-05  0.7164E-07  0.2258E-03  0.1334E-02  0.7039E+03
   -0.735001    7.19723  0.0000E+00  0.8764E-05  0.5886E-07  0.2432E-03  0.1151E-02  0.1062E+04
   -0.770002    7.19847  0.0000E+00  0.7940E-05  0.4884E-07  0.2694E-03  0.9877E-03  0.1969E+04
   -0.805004    7.19961  0.0000E+00  0.7241E-05  0.4094E-07  0.3023E-03  0.8458E-03  0.3541E+05
   -0.840005    7.20065  0.0000E+00  0.6651E-05  0.3471E-07  0.3397E-03  0.7233E-03  0.7529E+03
   -0.875006    7.20157  0.0000E+00  0.6153E-05  0.2978E-07  0.3676E-03  0.6189E-03  0.4811E+03
   -0.910007    7.20242  0.0000E+00  0.5729E-05  0.2585E-07  0.3894E-03  0.5300E-03  0.5079E+03
   -0.945007    7.20321  0.0000E+00  0.5369E-05  0.2274E-07  0.4044E-03  0.4525E-03  0.2964E+04
   -0.980008    7.20395  0.0000E+00  0.5066E-05  0.2031E-07  0.4168E-03  0.3842E-03  0.8218E+03
   -1.015009    7.20466  0.0000E+00  0.4808E-05  0.1841E-07  0.4222E-03  0.3241E-03  0.2500E+04
   -1.050009    7.20535  0.0000E+00  0.4586E-05  0.1693E-07  0.4194E-03  0.2729E-03  0.4099E+04
   -1.085009    7.20604  0.0000E+00  0.4392E-05  0.1581E-07  0.4122E-03  0.2298E-03  0.2186E+04
   -1.120009    7.20673  0.0000E+00  0.4224E-05  0.1503E-07  0.4015E-03  0.1940E-03  0.3416E+04
   -1.155009    7.20744  0.0000E+00  0.4078E-05  0.1457E-07  0.3880E-03  0.1627E-03  0.5143E+04
   -1.190009    7.20819  0.0000E+00  0.3947E-05  0.1451E-07  0.3646E-03  0.1350E-03  0.7792E+04
   -1.225008    7.20901  0.0000E+00  0.3814E-05  0.1497E-07  0.3415E-03  0.1094E-03  0.1205E+05
   -1.260007    7.20991  0.0000E+00  0.3648E-05  0.1662E-07  0.2917E-03  0.8740E-04  0.2325E+05
   -1.295006    7.21114  0.0000E+00  0.3349E-05  0.2151E-07  0.2477E-03  0.6718E-04  0.9346E+05
   -1.330004    7.21247  0.0000E+00  0.2860E-05  0.3508E-07  0.1376E-03  0.5514E-04  0.5275E+07
   -1.365002    7.21696  0.0000E+00  0.1784E-05  0.9085E-07  0.2774E-04  0.3927E-04 -0.1108E+11
   -1.400000    7.23218  0.0000E+00  0.0000E+00  0.0000E+00  0.0000E+00  0.4684E-04  0.0000E+00
