 1 - depth, m
 2 - temperature, C
 3 - salinity, kg/kg
 4 - turbulent kinetic energy, m**2/s**2
 5 - dissipation rate, m**2/s**3
 6 - kinematic heat conductance, m**2/s
 7 - modulus of horizontal velocity, m/s
 8 - Richardson number, n/d
   -0.000000    0.00000  0.0000E+00  0.4702E-13  0.1132E-15  0.1000E-09  0.0000E+00  0.1081E+17
   -0.034998    0.16589  0.0000E+00  0.4702E-13  0.1132E-15  0.1000E-09  0.0000E+00  0.1040E+17
   -0.069996    0.33302  0.0000E+00  0.4702E-13  0.1132E-15  0.1000E-09  0.0000E+00  0.9992E+16
   -0.104994    0.50163  0.0000E+00  0.4702E-13  0.1132E-15  0.1000E-09  0.0000E+00  0.9422E+16
   -0.139993    0.66895  0.0000E+00  0.4702E-13  0.1132E-15  0.1000E-09  0.0000E+00  0.8782E+16
   -0.174992    0.83335  0.0000E+00  0.4702E-13  0.1132E-15  0.1000E-09  0.0000E+00  0.8169E+16
   -0.209991    0.99483  0.0000E+00  0.4702E-13  0.1132E-15  0.1000E-09  0.0000E+00  0.7582E+16
   -0.244990    1.15338  0.0000E+00  0.4702E-13  0.1132E-15  0.1000E-09  0.0000E+00  0.7021E+16
   -0.279990    1.30897  0.0000E+00  0.4702E-13  0.1132E-15  0.1000E-09  0.0000E+00  0.6483E+16
   -0.314990    1.46153  0.0000E+00  0.4702E-13  0.1132E-15  0.1000E-09  0.0000E+00  0.5895E+16
   -0.349990    1.60912  0.0000E+00  0.4702E-13  0.1132E-15  0.1000E-09  0.0000E+00  0.5322E+16
   -0.384990    1.75107  0.0000E+00  0.4702E-13  0.1132E-15  0.1000E-09  0.0000E+00  0.4773E+16
   -0.419990    1.88683  0.0000E+00  0.4702E-13  0.1132E-15  0.1000E-09  0.0000E+00  0.4349E+16
   -0.454991    2.01896  0.0000E+00  0.5141E-13  0.1132E-15  0.1000E-09  0.0000E+00  0.4012E+16
   -0.489992    2.14957  0.0000E+00  0.1741E-12  0.1145E-15  0.1000E-09  0.0000E+00  0.3683E+16
   -0.524992    2.27850  0.0000E+00  0.5323E-12  0.1719E-15  0.1000E-09  0.0000E+00  0.3344E+16
   -0.559993    2.40495  0.0000E+00  0.1334E-11  0.3519E-15  0.1000E-09  0.0000E+00  0.2982E+16
   -0.594994    2.52716  0.0000E+00  0.3222E-11  0.7925E-15  0.1000E-09  0.0000E+00  0.2600E+16
   -0.629995    2.64299  0.0000E+00  0.6684E-11  0.1597E-14  0.1000E-09  0.0000E+00  0.2300E+16
   -0.664996    2.75472  0.0000E+00  0.1307E-10  0.3056E-14  0.1000E-09  0.0000E+00  0.2024E+16
   -0.699997    2.86240  0.0000E+00  0.2504E-10  0.5745E-14  0.1000E-09  0.0000E+00  0.1768E+16
   -0.734998    2.96591  0.0000E+00  0.4775E-10  0.1075E-13  0.1000E-09  0.0000E+00  0.1573E+16
   -0.769999    3.06793  0.0000E+00  0.9069E-10  0.2003E-13  0.1000E-09  0.0000E+00  0.1474E+16
   -0.805000    3.17530  0.0000E+00  0.1716E-09  0.3719E-13  0.1000E-09  0.0000E+00  0.1356E+16
   -0.840001    3.28880  0.0000E+00  0.3230E-09  0.6870E-13  0.1463E-09  0.0000E+00  0.1217E+16
   -0.875002    3.40959  0.0000E+00  0.6059E-09  0.1265E-12  0.3133E-09  0.0000E+00  0.1048E+16
   -0.910003    3.53941  0.0000E+00  0.1131E-08  0.2318E-12  0.7329E-09  0.0000E+00  0.8233E+15
   -0.945003    3.67804  0.0000E+00  0.2091E-08  0.4210E-12  0.2037E-08  0.0000E+00  0.5437E+15
   -0.980004    3.82594  0.0000E+00  0.3833E-08  0.7584E-12  0.1102E-07  0.0000E+00  0.2018E+15
   -1.015004    3.97720  0.0000E+00  0.5390E-08  0.1077E-11  0.5908E-05  0.0000E+00  0.6272E+13
   -1.050004    4.00089  0.0000E+00  0.6229E-08  0.1275E-11  0.1097E-04  0.0000E+00 -0.5762E+12
   -1.085004    4.00345  0.0000E+00  0.6862E-08  0.1457E-11  0.1208E-04  0.0000E+00 -0.6339E+12
   -1.120004    4.00581  0.0000E+00  0.7441E-08  0.1663E-11  0.1244E-04  0.0000E+00 -0.7051E+12
   -1.155004    4.00810  0.0000E+00  0.7970E-08  0.1905E-11  0.1227E-04  0.0000E+00 -0.8064E+12
   -1.190003    4.01042  0.0000E+00  0.8457E-08  0.2208E-11  0.1171E-04  0.0000E+00 -0.9609E+12
   -1.225002    4.01291  0.0000E+00  0.8935E-08  0.2637E-11  0.1115E-04  0.0000E+00 -0.1247E+13
   -1.260001    4.01581  0.0000E+00  0.9412E-08  0.3330E-11  0.1038E-04  0.0000E+00 -0.1850E+13
   -1.295000    4.01964  0.0000E+00  0.9839E-08  0.4856E-11  0.8086E-05  0.0000E+00 -0.3672E+13
   -1.329998    4.02612  0.0000E+00  0.9587E-08  0.7902E-11  0.3780E-05  0.0000E+00 -0.9199E+13
   -1.364996    4.03889  0.0000E+00  0.7588E-08  0.1782E-10  0.7632E-06  0.0000E+00 -0.5817E+14
   -1.399994    4.08731  0.0000E+00  0.0000E+00  0.0000E+00  0.0000E+00  0.0000E+00  0.0000E+00
