 1 - depth, m
 2 - temperature, C
 3 - salinity, kg/kg
 4 - turbulent kinetic energy, m**2/s**2
 5 - dissipation rate, m**2/s**3
 6 - kinematic heat conductance, m**2/s
 7 - modulus of horizontal velocity, m/s
 8 - Richardson number, n/d
   -0.000000    0.00000  0.0000E+00  0.1404E-08  0.2416E-11  0.1604E-09  0.0000E+00  0.3907E+17
   -0.034997    0.64086  0.0000E+00  0.5356E-08  0.1850E-11  0.1591E-09  0.0000E+00  0.3023E+17
   -0.069994    1.24466  0.0000E+00  0.1242E-07  0.2258E-11  0.2539E-09  0.0000E+00  0.2308E+17
   -0.104992    1.82292  0.0000E+00  0.2332E-07  0.3302E-11  0.4988E-09  0.0000E+00  0.1712E+17
   -0.139990    2.38778  0.0000E+00  0.3984E-07  0.5081E-11  0.1110E-08  0.0000E+00  0.1179E+17
   -0.174988    2.94729  0.0000E+00  0.6493E-07  0.7876E-11  0.3028E-08  0.0000E+00  0.6717E+16
   -0.209986    3.50149  0.0000E+00  0.1026E-06  0.1210E-10  0.1796E-07  0.0000E+00  0.1894E+16
   -0.244985    4.00774  0.0000E+00  0.1083E-06  0.1285E-10  0.2819E-03  0.0000E+00  0.2959E+14
   -0.279984    4.03704  0.0000E+00  0.1086E-06  0.1290E-10  0.2967E-03  0.0000E+00 -0.2308E+12
   -0.314983    4.03731  0.0000E+00  0.1089E-06  0.1294E-10  0.2900E-03  0.0000E+00 -0.2221E+12
   -0.349982    4.03759  0.0000E+00  0.1092E-06  0.1300E-10  0.2902E-03  0.0000E+00 -0.2224E+12
   -0.384982    4.03786  0.0000E+00  0.1095E-06  0.1306E-10  0.2902E-03  0.0000E+00 -0.2253E+12
   -0.419981    4.03814  0.0000E+00  0.1097E-06  0.1312E-10  0.2902E-03  0.0000E+00 -0.2251E+12
   -0.454981    4.03842  0.0000E+00  0.1100E-06  0.1319E-10  0.2900E-03  0.0000E+00 -0.2236E+12
   -0.489981    4.03869  0.0000E+00  0.1102E-06  0.1326E-10  0.2895E-03  0.0000E+00 -0.2254E+12
   -0.524981    4.03896  0.0000E+00  0.1104E-06  0.1335E-10  0.2885E-03  0.0000E+00 -0.2322E+12
   -0.559981    4.03924  0.0000E+00  0.1106E-06  0.1348E-10  0.2866E-03  0.0000E+00 -0.2499E+12
   -0.594981    4.03954  0.0000E+00  0.1110E-06  0.1366E-10  0.2842E-03  0.0000E+00 -0.2606E+12
   -0.629981    4.03985  0.0000E+00  0.1113E-06  0.1387E-10  0.2819E-03  0.0000E+00 -0.2639E+12
   -0.664982    4.04016  0.0000E+00  0.1115E-06  0.1408E-10  0.2791E-03  0.0000E+00 -0.2670E+12
   -0.699982    4.04048  0.0000E+00  0.1118E-06  0.1432E-10  0.2760E-03  0.0000E+00 -0.2709E+12
   -0.734982    4.04079  0.0000E+00  0.1120E-06  0.1457E-10  0.2724E-03  0.0000E+00 -0.2760E+12
   -0.769983    4.04112  0.0000E+00  0.1122E-06  0.1485E-10  0.2685E-03  0.0000E+00 -0.2807E+12
   -0.804983    4.04144  0.0000E+00  0.1124E-06  0.1516E-10  0.2641E-03  0.0000E+00 -0.2871E+12
   -0.839983    4.04177  0.0000E+00  0.1126E-06  0.1550E-10  0.2593E-03  0.0000E+00 -0.2932E+12
   -0.874983    4.04211  0.0000E+00  0.1127E-06  0.1588E-10  0.2540E-03  0.0000E+00 -0.3020E+12
   -0.909983    4.04245  0.0000E+00  0.1128E-06  0.1630E-10  0.2481E-03  0.0000E+00 -0.3094E+12
   -0.944983    4.04281  0.0000E+00  0.1129E-06  0.1677E-10  0.2418E-03  0.0000E+00 -0.3191E+12
   -0.979983    4.04317  0.0000E+00  0.1129E-06  0.1730E-10  0.2350E-03  0.0000E+00 -0.3292E+12
   -1.014982    4.04353  0.0000E+00  0.1129E-06  0.1790E-10  0.2274E-03  0.0000E+00 -0.3450E+12
   -1.049982    4.04392  0.0000E+00  0.1128E-06  0.1862E-10  0.2189E-03  0.0000E+00 -0.3633E+12
   -1.084981    4.04432  0.0000E+00  0.1127E-06  0.1949E-10  0.2095E-03  0.0000E+00 -0.3836E+12
   -1.119980    4.04474  0.0000E+00  0.1126E-06  0.2055E-10  0.1990E-03  0.0000E+00 -0.4052E+12
   -1.154979    4.04518  0.0000E+00  0.1124E-06  0.2184E-10  0.1876E-03  0.0000E+00 -0.4310E+12
   -1.189978    4.04565  0.0000E+00  0.1121E-06  0.2347E-10  0.1747E-03  0.0000E+00 -0.4666E+12
   -1.224976    4.04615  0.0000E+00  0.1117E-06  0.2578E-10  0.1592E-03  0.0000E+00 -0.5279E+12
   -1.259974    4.04672  0.0000E+00  0.1110E-06  0.2970E-10  0.1371E-03  0.0000E+00 -0.6563E+12
   -1.294972    4.04740  0.0000E+00  0.1093E-06  0.3914E-10  0.1105E-03  0.0000E+00 -0.9348E+12
   -1.329970    4.04839  0.0000E+00  0.1051E-06  0.6540E-10  0.4087E-04  0.0000E+00 -0.2577E+13
   -1.364967    4.05102  0.0000E+00  0.7346E-07  0.3037E-09  0.2501E-05  0.0000E+00 -0.5126E+14
   -1.399964    4.09002  0.0000E+00  0.0000E+00  0.0000E+00  0.0000E+00  0.0000E+00  0.0000E+00
