 1 - depth, m
 2 - temperature, C
 3 - salinity, kg/kg
 4 - turbulent kinetic energy, m**2/s**2
 5 - dissipation rate, m**2/s**3
 6 - kinematic heat conductance, m**2/s
 7 - modulus of horizontal velocity, m/s
 8 - Richardson number, n/d
   -0.000000    0.00000  0.0000E+00  0.4702E-13  0.1132E-15  0.1000E-09  0.0000E+00  0.1382E+17
   -0.034998    0.21345  0.0000E+00  0.1166E-12  0.1132E-15  0.1000E-09  0.0000E+00  0.1302E+17
   -0.069996    0.42697  0.0000E+00  0.3761E-12  0.1136E-15  0.1000E-09  0.0000E+00  0.1220E+17
   -0.104994    0.64020  0.0000E+00  0.8302E-12  0.1606E-15  0.1000E-09  0.0000E+00  0.1128E+17
   -0.139993    0.85097  0.0000E+00  0.1562E-11  0.2569E-15  0.1000E-09  0.0000E+00  0.1032E+17
   -0.174992    1.05791  0.0000E+00  0.2737E-11  0.4210E-15  0.1000E-09  0.0000E+00  0.9402E+16
   -0.209991    1.26073  0.0000E+00  0.4640E-11  0.6896E-15  0.1000E-09  0.0000E+00  0.8517E+16
   -0.244991    1.45914  0.0000E+00  0.7734E-11  0.1124E-14  0.1000E-09  0.0000E+00  0.7672E+16
   -0.279990    1.65293  0.0000E+00  0.1277E-10  0.1822E-14  0.1000E-09  0.0000E+00  0.6871E+16
   -0.314990    1.84189  0.0000E+00  0.2108E-10  0.2957E-14  0.1000E-09  0.0000E+00  0.6147E+16
   -0.349990    2.02693  0.0000E+00  0.3491E-10  0.4819E-14  0.1000E-09  0.0000E+00  0.5459E+16
   -0.384990    2.20790  0.0000E+00  0.5784E-10  0.7859E-14  0.1000E-09  0.0000E+00  0.4804E+16
   -0.419991    2.38452  0.0000E+00  0.9543E-10  0.1277E-13  0.1000E-09  0.0000E+00  0.4191E+16
   -0.454991    2.55679  0.0000E+00  0.1567E-09  0.2065E-13  0.1000E-09  0.0000E+00  0.3626E+16
   -0.489992    2.72520  0.0000E+00  0.2567E-09  0.3331E-13  0.1000E-09  0.0000E+00  0.3112E+16
   -0.524993    2.89066  0.0000E+00  0.4368E-09  0.5578E-13  0.1000E-09  0.0000E+00  0.2703E+16
   -0.559994    3.05848  0.0000E+00  0.7789E-09  0.9788E-13  0.1094E-09  0.0000E+00  0.2318E+16
   -0.594995    3.23205  0.0000E+00  0.1473E-08  0.1822E-12  0.2507E-09  0.0000E+00  0.1883E+16
   -0.629996    3.41093  0.0000E+00  0.2553E-08  0.3114E-12  0.6099E-09  0.0000E+00  0.1323E+16
   -0.664997    3.58206  0.0000E+00  0.4210E-08  0.5067E-12  0.1589E-08  0.0000E+00  0.8271E+15
   -0.699998    3.74466  0.0000E+00  0.6795E-08  0.8070E-12  0.5303E-08  0.0000E+00  0.3953E+15
   -0.734999    3.89634  0.0000E+00  0.1068E-07  0.1254E-11  0.5453E-07  0.0000E+00  0.6042E+14
   -0.770000    4.00677  0.0000E+00  0.1123E-07  0.1322E-11  0.3728E-04  0.0000E+00 -0.1894E+12
   -0.805001    4.00736  0.0000E+00  0.1150E-07  0.1362E-11  0.3673E-04  0.0000E+00 -0.2001E+12
   -0.840002    4.00795  0.0000E+00  0.1177E-07  0.1405E-11  0.3712E-04  0.0000E+00 -0.2063E+12
   -0.875003    4.00855  0.0000E+00  0.1202E-07  0.1452E-11  0.3742E-04  0.0000E+00 -0.2136E+12
   -0.910004    4.00916  0.0000E+00  0.1226E-07  0.1505E-11  0.3753E-04  0.0000E+00 -0.2200E+12
   -0.945004    4.00977  0.0000E+00  0.1248E-07  0.1562E-11  0.3746E-04  0.0000E+00 -0.2269E+12
   -0.980005    4.01038  0.0000E+00  0.1269E-07  0.1626E-11  0.3719E-04  0.0000E+00 -0.2354E+12
   -1.015005    4.01099  0.0000E+00  0.1288E-07  0.1699E-11  0.3677E-04  0.0000E+00 -0.2499E+12
   -1.050006    4.01163  0.0000E+00  0.1306E-07  0.1783E-11  0.3610E-04  0.0000E+00 -0.2691E+12
   -1.085006    4.01230  0.0000E+00  0.1322E-07  0.1885E-11  0.3522E-04  0.0000E+00 -0.2926E+12
   -1.120006    4.01301  0.0000E+00  0.1337E-07  0.2007E-11  0.3392E-04  0.0000E+00 -0.3141E+12
   -1.155005    4.01375  0.0000E+00  0.1350E-07  0.2154E-11  0.3233E-04  0.0000E+00 -0.3415E+12
   -1.190005    4.01453  0.0000E+00  0.1360E-07  0.2341E-11  0.3033E-04  0.0000E+00 -0.3837E+12
   -1.225004    4.01539  0.0000E+00  0.1368E-07  0.2607E-11  0.2793E-04  0.0000E+00 -0.4802E+12
   -1.260003    4.01642  0.0000E+00  0.1373E-07  0.3052E-11  0.2457E-04  0.0000E+00 -0.7004E+12
   -1.295002    4.01787  0.0000E+00  0.1363E-07  0.4124E-11  0.1907E-04  0.0000E+00 -0.1289E+13
   -1.330000    4.02038  0.0000E+00  0.1290E-07  0.6890E-11  0.7186E-05  0.0000E+00 -0.3587E+13
   -1.364998    4.02655  0.0000E+00  0.9390E-08  0.1977E-10  0.8624E-06  0.0000E+00 -0.3605E+14
   -1.399996    4.06521  0.0000E+00  0.0000E+00  0.0000E+00  0.0000E+00  0.0000E+00  0.0000E+00
