 1 - depth, m
 2 - temperature, C
 3 - salinity, kg/kg
 4 - turbulent kinetic energy, m**2/s**2
 5 - dissipation rate, m**2/s**3
 6 - kinematic heat conductance, m**2/s
 7 - modulus of horizontal velocity, m/s
 8 - Richardson number, n/d
   -0.000000   10.81151  0.0000E+00  0.1876E-03  0.1602E-03  0.5214E-04  0.1279E+00 -0.5427E-02
   -0.034998   10.86669  0.0000E+00  0.1063E-03  0.4548E-04  0.1011E-03  0.4140E-01 -0.2167E-01
   -0.069996   10.87660  0.0000E+00  0.7699E-04  0.1678E-04  0.1192E-03  0.2822E-01 -0.5504E-01
   -0.104995   10.88319  0.0000E+00  0.6213E-04  0.9164E-05  0.1271E-03  0.2284E-01 -0.2165E-01
   -0.139994   10.88774  0.0000E+00  0.5208E-04  0.5471E-05  0.1364E-03  0.1916E-01 -0.2489E-01
   -0.174993   10.89143  0.0000E+00  0.4470E-04  0.3437E-05  0.1462E-03  0.1627E-01 -0.6662E+00
   -0.209993   10.89460  0.0000E+00  0.3906E-04  0.2221E-05  0.1556E-03  0.1386E-01 -0.8354E-01
   -0.244992   10.89744  0.0000E+00  0.3460E-04  0.1468E-05  0.1638E-03  0.1181E-01 -0.4087E-01
   -0.279992   10.90006  0.0000E+00  0.3090E-04  0.9988E-06  0.1696E-03  0.9985E-02 -0.4634E-01
   -0.314993   10.90260  0.0000E+00  0.2757E-04  0.7016E-06  0.1812E-03  0.8260E-02  0.3025E+02
   -0.349993   10.90489  0.0000E+00  0.2473E-04  0.5108E-06  0.1959E-03  0.6902E-02  0.1270E+02
   -0.384994   10.90697  0.0000E+00  0.2233E-04  0.3856E-06  0.2385E-03  0.5787E-02  0.1612E+03
   -0.419994   10.90879  0.0000E+00  0.2034E-04  0.3016E-06  0.2505E-03  0.4860E-02  0.4734E+02
   -0.454995   10.91051  0.0000E+00  0.1864E-04  0.2433E-06  0.2682E-03  0.4022E-02  0.3546E+03
   -0.489996   10.91213  0.0000E+00  0.1717E-04  0.2020E-06  0.2792E-03  0.3256E-02  0.2206E+02
   -0.524997   10.91367  0.0000E+00  0.1577E-04  0.1695E-06  0.2976E-03  0.2579E-02  0.1696E+02
   -0.559998   10.91506  0.0000E+00  0.1441E-04  0.1420E-06  0.3259E-03  0.2076E-02  0.7108E+02
   -0.595000   10.91626  0.0000E+00  0.1296E-04  0.1159E-06  0.3533E-03  0.1740E-02  0.3195E+03
   -0.630001   10.91729  0.0000E+00  0.1172E-04  0.9499E-07  0.3868E-03  0.1539E-02  0.7971E+03
   -0.665002   10.91826  0.0000E+00  0.1069E-04  0.7879E-07  0.4305E-03  0.1357E-02  0.3561E+03
   -0.700003   10.91913  0.0000E+00  0.9821E-05  0.6611E-07  0.4710E-03  0.1191E-02  0.4096E+04
   -0.735005   10.91991  0.0000E+00  0.9073E-05  0.5598E-07  0.4943E-03  0.1041E-02  0.1037E+03
   -0.770006   10.92063  0.0000E+00  0.8423E-05  0.4781E-07  0.5060E-03  0.9061E-03  0.3922E+02
   -0.805007   10.92132  0.0000E+00  0.7859E-05  0.4122E-07  0.5136E-03  0.7865E-03  0.6825E+02
   -0.840009   10.92198  0.0000E+00  0.7371E-05  0.3593E-07  0.5181E-03  0.6809E-03  0.3146E+02
   -0.875010   10.92262  0.0000E+00  0.6946E-05  0.3166E-07  0.5214E-03  0.5879E-03  0.3025E+02
   -0.910011   10.92326  0.0000E+00  0.6577E-05  0.2824E-07  0.5217E-03  0.5072E-03  0.1339E+03
   -0.945012   10.92389  0.0000E+00  0.6256E-05  0.2554E-07  0.5174E-03  0.4355E-03  0.6553E+02
   -0.980013   10.92453  0.0000E+00  0.5975E-05  0.2344E-07  0.5098E-03  0.3713E-03  0.1376E+03
   -1.015013   10.92518  0.0000E+00  0.5730E-05  0.2185E-07  0.4994E-03  0.3139E-03  0.7976E+02
   -1.050014   10.92584  0.0000E+00  0.5512E-05  0.2072E-07  0.4852E-03  0.2650E-03  0.9060E+02
   -1.085014   10.92652  0.0000E+00  0.5318E-05  0.2002E-07  0.4683E-03  0.2244E-03  0.1552E+03
   -1.120014   10.92722  0.0000E+00  0.5143E-05  0.1976E-07  0.4481E-03  0.1910E-03  0.2330E+03
   -1.155014   10.92796  0.0000E+00  0.4978E-05  0.2003E-07  0.4282E-03  0.1621E-03  0.3407E+03
   -1.190014   10.92876  0.0000E+00  0.4808E-05  0.2119E-07  0.3910E-03  0.1357E-03  0.4885E+03
   -1.225014   10.92972  0.0000E+00  0.4608E-05  0.2387E-07  0.3638E-03  0.1090E-03  0.6601E+03
   -1.260013   10.93082  0.0000E+00  0.4319E-05  0.3068E-07  0.2938E-03  0.8524E-04  0.4957E+03
   -1.295012   10.93281  0.0000E+00  0.3835E-05  0.4760E-07  0.2654E-03  0.6142E-04  0.2045E+04
   -1.330011   10.93358  0.0000E+00  0.3130E-05  0.9849E-07  0.1267E-03  0.5171E-04  0.1036E+06
   -1.365009   10.94262  0.0000E+00  0.2031E-05  0.2387E-06  0.5646E-04  0.3280E-04 -0.1295E+09
   -1.400007   10.95020  0.0000E+00  0.0000E+00  0.0000E+00  0.0000E+00  0.4848E-04  0.0000E+00
