 1 - depth, m
 2 - temperature, C
 3 - salinity, kg/kg
 4 - turbulent kinetic energy, m**2/s**2
 5 - dissipation rate, m**2/s**3
 6 - kinematic heat conductance, m**2/s
 7 - modulus of horizontal velocity, m/s
 8 - Richardson number, n/d
   -0.000000    0.00000  0.0000E+00  0.2951E-09  0.3388E-12  0.1000E-09  0.0000E+00  0.2701E+17
   -0.034999    0.42979  0.0000E+00  0.8588E-09  0.2546E-12  0.1000E-09  0.0000E+00  0.2455E+17
   -0.069999    0.87528  0.0000E+00  0.1864E-08  0.2853E-12  0.1000E-09  0.0000E+00  0.2157E+17
   -0.104999    1.33137  0.0000E+00  0.3378E-08  0.3857E-12  0.1000E-09  0.0000E+00  0.1817E+17
   -0.139999    1.79194  0.0000E+00  0.5592E-08  0.5597E-12  0.1141E-09  0.0000E+00  0.1453E+17
   -0.175000    2.25003  0.0000E+00  0.8825E-08  0.8298E-12  0.2013E-09  0.0000E+00  0.1086E+17
   -0.210001    2.69816  0.0000E+00  0.1358E-07  0.1236E-11  0.4450E-09  0.0000E+00  0.7364E+16
   -0.245002    3.12919  0.0000E+00  0.2059E-07  0.1841E-11  0.1191E-08  0.0000E+00  0.4227E+16
   -0.280003    3.53760  0.0000E+00  0.3092E-07  0.2733E-11  0.5764E-08  0.0000E+00  0.1533E+16
   -0.315005    3.91530  0.0000E+00  0.3596E-07  0.3212E-11  0.8279E-04  0.0000E+00  0.1507E+15
   -0.350007    4.00930  0.0000E+00  0.3627E-07  0.3244E-11  0.1302E-03  0.0000E+00 -0.1345E+12
   -0.385009    4.00973  0.0000E+00  0.3648E-07  0.3269E-11  0.1309E-03  0.0000E+00 -0.1352E+12
   -0.420011    4.01015  0.0000E+00  0.3669E-07  0.3296E-11  0.1324E-03  0.0000E+00 -0.1359E+12
   -0.455013    4.01054  0.0000E+00  0.3690E-07  0.3325E-11  0.1335E-03  0.0000E+00 -0.1377E+12
   -0.490015    4.01093  0.0000E+00  0.3709E-07  0.3356E-11  0.1335E-03  0.0000E+00 -0.1414E+12
   -0.525018    4.01132  0.0000E+00  0.3730E-07  0.3395E-11  0.1332E-03  0.0000E+00 -0.1486E+12
   -0.560020    4.01173  0.0000E+00  0.3756E-07  0.3446E-11  0.1324E-03  0.0000E+00 -0.1623E+12
   -0.595023    4.01216  0.0000E+00  0.3790E-07  0.3521E-11  0.1316E-03  0.0000E+00 -0.1758E+12
   -0.630025    4.01262  0.0000E+00  0.3825E-07  0.3605E-11  0.1311E-03  0.0000E+00 -0.1817E+12
   -0.665028    4.01309  0.0000E+00  0.3858E-07  0.3694E-11  0.1302E-03  0.0000E+00 -0.1883E+12
   -0.700031    4.01357  0.0000E+00  0.3891E-07  0.3787E-11  0.1291E-03  0.0000E+00 -0.1956E+12
   -0.735034    4.01405  0.0000E+00  0.3922E-07  0.3887E-11  0.1278E-03  0.0000E+00 -0.2037E+12
   -0.770036    4.01455  0.0000E+00  0.3952E-07  0.3995E-11  0.1263E-03  0.0000E+00 -0.2105E+12
   -0.805039    4.01505  0.0000E+00  0.3981E-07  0.4112E-11  0.1246E-03  0.0000E+00 -0.2186E+12
   -0.840041    4.01556  0.0000E+00  0.4008E-07  0.4239E-11  0.1227E-03  0.0000E+00 -0.2269E+12
   -0.875044    4.01608  0.0000E+00  0.4034E-07  0.4378E-11  0.1205E-03  0.0000E+00 -0.2371E+12
   -0.910046    4.01661  0.0000E+00  0.4058E-07  0.4531E-11  0.1180E-03  0.0000E+00 -0.2470E+12
   -0.945049    4.01716  0.0000E+00  0.4080E-07  0.4698E-11  0.1153E-03  0.0000E+00 -0.2587E+12
   -0.980051    4.01771  0.0000E+00  0.4100E-07  0.4883E-11  0.1123E-03  0.0000E+00 -0.2713E+12
   -1.015053    4.01829  0.0000E+00  0.4117E-07  0.5093E-11  0.1089E-03  0.0000E+00 -0.2881E+12
   -1.050055    4.01888  0.0000E+00  0.4133E-07  0.5337E-11  0.1050E-03  0.0000E+00 -0.3082E+12
   -1.085057    4.01951  0.0000E+00  0.4145E-07  0.5629E-11  0.1007E-03  0.0000E+00 -0.3324E+12
   -1.120058    4.02016  0.0000E+00  0.4155E-07  0.5980E-11  0.9579E-04  0.0000E+00 -0.3584E+12
   -1.155060    4.02086  0.0000E+00  0.4160E-07  0.6404E-11  0.9040E-04  0.0000E+00 -0.3899E+12
   -1.190061    4.02160  0.0000E+00  0.4161E-07  0.6933E-11  0.8424E-04  0.0000E+00 -0.4328E+12
   -1.225062    4.02240  0.0000E+00  0.4155E-07  0.7683E-11  0.7668E-04  0.0000E+00 -0.5079E+12
   -1.260062    4.02331  0.0000E+00  0.4137E-07  0.8946E-11  0.6599E-04  0.0000E+00 -0.6626E+12
   -1.295063    4.02446  0.0000E+00  0.4079E-07  0.1200E-10  0.5140E-04  0.0000E+00 -0.1030E+13
   -1.330063    4.02620  0.0000E+00  0.3905E-07  0.2036E-10  0.1972E-04  0.0000E+00 -0.2770E+13
   -1.365062    4.03055  0.0000E+00  0.2861E-07  0.7836E-10  0.1732E-05  0.0000E+00 -0.4164E+14
   -1.400062    4.07179  0.0000E+00  0.0000E+00  0.0000E+00  0.0000E+00  0.0000E+00  0.0000E+00
