 1 - depth, m
 2 - temperature, C
 3 - salinity, kg/kg
 4 - turbulent kinetic energy, m**2/s**2
 5 - dissipation rate, m**2/s**3
 6 - kinematic heat conductance, m**2/s
 7 - modulus of horizontal velocity, m/s
 8 - Richardson number, n/d
   -0.000000    0.57014  0.0000E+00  0.7948E-03  0.4566E-02  0.8926E-04  0.4048E+00  0.1538E-01
   -0.034999    0.64760  0.0000E+00  0.4520E-03  0.2323E-02  0.1797E-03  0.1283E+00  0.2673E-01
   -0.069999    0.67604  0.0000E+00  0.2966E-03  0.7829E-03  0.2642E-03  0.7190E-01  0.2071E-02
   -0.104999    0.68948  0.0000E+00  0.2400E-03  0.5245E-03  0.2771E-03  0.5381E-01  0.1701E-01
   -0.139999    0.69630  0.0000E+00  0.2035E-03  0.3754E-03  0.2922E-03  0.4396E-01  0.3132E-01
   -0.174999    0.70046  0.0000E+00  0.1764E-03  0.2659E-03  0.3015E-03  0.3773E-01  0.1099E-01
   -0.210000    0.70370  0.0000E+00  0.1560E-03  0.1901E-03  0.3108E-03  0.3306E-01  0.2723E-01
   -0.245001    0.70650  0.0000E+00  0.1398E-03  0.1336E-03  0.3171E-03  0.2920E-01  0.1012E+00
   -0.280002    0.70902  0.0000E+00  0.1261E-03  0.9431E-04  0.3206E-03  0.2565E-01  0.1946E-01
   -0.315003    0.71196  0.0000E+00  0.1135E-03  0.6467E-04  0.3325E-03  0.2193E-01  0.1753E-01
   -0.350005    0.71443  0.0000E+00  0.1028E-03  0.4330E-04  0.3408E-03  0.1922E-01  0.1303E+00
   -0.385007    0.71677  0.0000E+00  0.9429E-04  0.2928E-04  0.3465E-03  0.1698E-01 -0.3259E+02
   -0.420009    0.71878  0.0000E+00  0.8714E-04  0.1968E-04  0.3461E-03  0.1510E-01  0.1557E+01
   -0.455011    0.72103  0.0000E+00  0.8080E-04  0.1329E-04  0.3415E-03  0.1327E-01  0.5613E+01
   -0.490013    0.72427  0.0000E+00  0.7498E-04  0.9236E-05  0.3391E-03  0.1147E-01  0.1360E+03
   -0.525015    0.72979  0.0000E+00  0.6931E-04  0.6616E-05  0.3536E-03  0.9816E-02  0.1520E+06
   -0.560017    0.73260  0.0000E+00  0.6378E-04  0.4815E-05  0.3669E-03  0.8628E-02  0.2744E+07
   -0.595020    0.73394  0.0000E+00  0.5777E-04  0.3368E-05  0.3683E-03  0.7816E-02 -0.1263E+05
   -0.630022    0.73299  0.0000E+00  0.5227E-04  0.2361E-05  0.3553E-03  0.7369E-02  0.1269E+06
   -0.665025    0.73436  0.0000E+00  0.4744E-04  0.1692E-05  0.3428E-03  0.6822E-02  0.6289E+05
   -0.700027    0.73610  0.0000E+00  0.4317E-04  0.1246E-05  0.3301E-03  0.6260E-02  0.2579E+06
   -0.735030    0.73808  0.0000E+00  0.3935E-04  0.9407E-06  0.3186E-03  0.5712E-02  0.3304E+07
   -0.770032    0.74020  0.0000E+00  0.3595E-04  0.7301E-06  0.3083E-03  0.5200E-02  0.1487E+09
   -0.805035    0.74234  0.0000E+00  0.3287E-04  0.5804E-06  0.2963E-03  0.4731E-02  0.4510E+08
   -0.840037    0.74464  0.0000E+00  0.3010E-04  0.4717E-06  0.2849E-03  0.4286E-02  0.1685E+08
   -0.875040    0.74709  0.0000E+00  0.2759E-04  0.3905E-06  0.2735E-03  0.3869E-02  0.2292E+08
   -0.910042    0.74956  0.0000E+00  0.2531E-04  0.3281E-06  0.2608E-03  0.3487E-02  0.5710E+07
   -0.945044    0.75234  0.0000E+00  0.2325E-04  0.2796E-06  0.2478E-03  0.3122E-02  0.1274E+07
   -0.980046    0.75561  0.0000E+00  0.2138E-04  0.2412E-06  0.2355E-03  0.2773E-02  0.5313E+07
   -1.015048    0.76003  0.0000E+00  0.1969E-04  0.2104E-06  0.2244E-03  0.2437E-02  0.7860E+08
   -1.050050    0.76471  0.0000E+00  0.1812E-04  0.1851E-06  0.2127E-03  0.2133E-02  0.1671E+10
   -1.085051    0.76937  0.0000E+00  0.1669E-04  0.1647E-06  0.2006E-03  0.1856E-02  0.3937E+11
   -1.120053    0.77349  0.0000E+00  0.1536E-04  0.1486E-06  0.1867E-03  0.1607E-02  0.4673E+13
   -1.155054    0.77963  0.0000E+00  0.1415E-04  0.1370E-06  0.1722E-03  0.1374E-02  0.2254E+14
   -1.190055    0.78890  0.0000E+00  0.1305E-04  0.1305E-06  0.1568E-03  0.1152E-02  0.1054E+15
   -1.225055    0.80606  0.0000E+00  0.1201E-04  0.1315E-06  0.1406E-03  0.9374E-03  0.2349E+15
   -1.260056    0.82902  0.0000E+00  0.1094E-04  0.1459E-06  0.1208E-03  0.7490E-03  0.1961E+15
   -1.295056    0.85347  0.0000E+00  0.9518E-05  0.2038E-06  0.9571E-04  0.5978E-03  0.1357E+14
   -1.330056    0.87393  0.0000E+00  0.7612E-05  0.3535E-06  0.5437E-04  0.4981E-03  0.4728E+13
   -1.365055    0.93894  0.0000E+00  0.4394E-05  0.8506E-06  0.1061E-04  0.3894E-03  0.3427E+10
   -1.400055    1.13670  0.0000E+00  0.0000E+00  0.0000E+00  0.0000E+00  0.4652E-03  0.0000E+00
