 1 - depth, m
 2 - temperature, C
 3 - salinity, kg/kg
 4 - turbulent kinetic energy, m**2/s**2
 5 - dissipation rate, m**2/s**3
 6 - kinematic heat conductance, m**2/s
 7 - modulus of horizontal velocity, m/s
 8 - Richardson number, n/d
   -0.000000   11.53184  0.0000E+00  0.4475E-04  0.1620E-03  0.3144E-04  0.4098E-01 -0.1581E-01
   -0.034998   11.56979  0.0000E+00  0.2948E-04  0.1278E-03  0.5169E-04  0.1923E-01 -0.3177E-01
   -0.069996   11.58260  0.0000E+00  0.2393E-04  0.1105E-03  0.6554E-04  0.1409E-01 -0.4809E-01
   -0.104995   11.59127  0.0000E+00  0.2040E-04  0.9110E-04  0.8047E-04  0.1112E-01 -0.2025E+00
   -0.139994   11.59780  0.0000E+00  0.1770E-04  0.6934E-04  0.9652E-04  0.9011E-02 -0.1030E+00
   -0.174993   11.60297  0.0000E+00  0.1549E-04  0.4681E-04  0.1198E-03  0.7413E-02 -0.4314E-02
   -0.209992   11.60703  0.0000E+00  0.1368E-04  0.2785E-04  0.1852E-03  0.6151E-02  0.9070E+02
   -0.244992   11.60998  0.0000E+00  0.1224E-04  0.1503E-04  0.2225E-03  0.5141E-02  0.5180E+02
   -0.279992   11.61238  0.0000E+00  0.1109E-04  0.7656E-05  0.2533E-03  0.4261E-02  0.8963E+02
   -0.314992   11.61442  0.0000E+00  0.1012E-04  0.3753E-05  0.2898E-03  0.3463E-02  0.9583E+03
   -0.349992   11.61614  0.0000E+00  0.9326E-05  0.1749E-05  0.3211E-03  0.2834E-02  0.1502E+02
   -0.384992   11.61762  0.0000E+00  0.8679E-05  0.7793E-06  0.3520E-03  0.2320E-02  0.3862E+01
   -0.419993   11.61893  0.0000E+00  0.8157E-05  0.3424E-06  0.3702E-03  0.1895E-02  0.6794E+02
   -0.454994   11.62013  0.0000E+00  0.7729E-05  0.1566E-06  0.3870E-03  0.1517E-02  0.6999E+01
   -0.489994   11.62122  0.0000E+00  0.7371E-05  0.8003E-07  0.4016E-03  0.1178E-02  0.9495E+01
   -0.524995   11.62233  0.0000E+00  0.7042E-05  0.5382E-07  0.4452E-03  0.8796E-03  0.1333E+02
   -0.559996   11.62319  0.0000E+00  0.6730E-05  0.3884E-07  0.5158E-03  0.6642E-03 -0.1723E+04
   -0.594998   11.62405  0.0000E+00  0.6421E-05  0.3003E-07  0.5584E-03  0.5268E-03  0.3483E+02
   -0.629999   11.62463  0.0000E+00  0.6180E-05  0.2467E-07  0.5713E-03  0.4551E-03  0.2724E+02
   -0.665000   11.62541  0.0000E+00  0.5985E-05  0.2147E-07  0.5821E-03  0.3977E-03  0.2236E+03
   -0.700001   11.62607  0.0000E+00  0.5817E-05  0.1921E-07  0.5938E-03  0.3466E-03  0.1436E+03
   -0.735002   11.62677  0.0000E+00  0.5673E-05  0.1757E-07  0.6043E-03  0.3014E-03  0.9135E+03
   -0.770004   11.62740  0.0000E+00  0.5546E-05  0.1629E-07  0.6111E-03  0.2630E-03  0.6193E+02
   -0.805005   11.62803  0.0000E+00  0.5444E-05  0.1539E-07  0.6186E-03  0.2296E-03  0.1931E+04
   -0.840006   11.62863  0.0000E+00  0.5358E-05  0.1472E-07  0.6227E-03  0.2047E-03  0.9441E+03
   -0.875007   11.62922  0.0000E+00  0.5278E-05  0.1417E-07  0.6214E-03  0.1834E-03  0.7192E+02
   -0.910008   11.62980  0.0000E+00  0.5197E-05  0.1369E-07  0.6198E-03  0.1629E-03  0.6174E+02
   -0.945009   11.63037  0.0000E+00  0.5122E-05  0.1333E-07  0.6159E-03  0.1447E-03  0.6731E+02
   -0.980010   11.63093  0.0000E+00  0.5051E-05  0.1308E-07  0.6088E-03  0.1283E-03  0.8533E+02
   -1.015010   11.63148  0.0000E+00  0.4981E-05  0.1293E-07  0.5984E-03  0.1134E-03  0.3792E+05
   -1.050011   11.63203  0.0000E+00  0.4911E-05  0.1288E-07  0.5838E-03  0.1000E-03  0.2697E+03
   -1.085011   11.63258  0.0000E+00  0.4839E-05  0.1295E-07  0.5648E-03  0.8806E-04  0.2071E+03
   -1.120011   11.63314  0.0000E+00  0.4762E-05  0.1316E-07  0.5393E-03  0.7726E-04  0.3059E+03
   -1.155011   11.63371  0.0000E+00  0.4682E-05  0.1357E-07  0.5120E-03  0.6702E-04  0.4302E+03
   -1.190010   11.63430  0.0000E+00  0.4595E-05  0.1428E-07  0.4690E-03  0.5735E-04  0.6166E+03
   -1.225010   11.63494  0.0000E+00  0.4492E-05  0.1558E-07  0.4394E-03  0.4805E-04  0.8959E+03
   -1.260009   11.63562  0.0000E+00  0.4344E-05  0.1841E-07  0.3413E-03  0.3940E-04  0.1252E+04
   -1.295008   11.63666  0.0000E+00  0.4048E-05  0.2607E-07  0.3344E-03  0.3091E-04  0.6856E+04
   -1.330006   11.63749  0.0000E+00  0.3457E-05  0.4937E-07  0.1386E-03  0.2634E-04  0.1489E+06
   -1.365004   11.64321  0.0000E+00  0.2204E-05  0.1328E-06  0.4817E-04  0.1751E-04 -0.2198E+08
   -1.400002   11.64918  0.0000E+00  0.0000E+00  0.0000E+00  0.0000E+00  0.2114E-04  0.0000E+00
