 1 - depth, m
 2 - temperature, C
 3 - salinity, kg/kg
 4 - turbulent kinetic energy, m**2/s**2
 5 - dissipation rate, m**2/s**3
 6 - kinematic heat conductance, m**2/s
 7 - modulus of horizontal velocity, m/s
 8 - Richardson number, n/d
   -0.000000   16.16619  0.0000E+00  0.6964E-04  0.1945E-04  0.3711E-04  0.6526E-01  0.1340E-01
   -0.034998   16.24479  0.0000E+00  0.4333E-04  0.5581E-05  0.6188E-04  0.2504E-01 -0.3656E+00
   -0.069996   16.26160  0.0000E+00  0.3374E-04  0.2625E-05  0.7950E-04  0.1820E-01 -0.5888E-01
   -0.104995   16.27253  0.0000E+00  0.2822E-04  0.1472E-05  0.9681E-04  0.1465E-01 -0.8463E-01
   -0.139993   16.28065  0.0000E+00  0.2436E-04  0.8898E-06  0.1167E-03  0.1210E-01 -0.1086E+00
   -0.174993   16.28712  0.0000E+00  0.2159E-04  0.5770E-06  0.1507E-03  0.1012E-01  0.6229E+01
   -0.209992   16.29222  0.0000E+00  0.1955E-04  0.3988E-06  0.2323E-03  0.8539E-02  0.1117E+04
   -0.244992   16.29609  0.0000E+00  0.1801E-04  0.2918E-06  0.2691E-03  0.7247E-02  0.8107E+02
   -0.279991   16.29936  0.0000E+00  0.1675E-04  0.2234E-06  0.3242E-03  0.6108E-02  0.4443E+03
   -0.314991   16.30202  0.0000E+00  0.1565E-04  0.1762E-06  0.3786E-03  0.5095E-02  0.5083E+03
   -0.349992   16.30413  0.0000E+00  0.1469E-04  0.1425E-06  0.4084E-03  0.4254E-02  0.8993E+02
   -0.384992   16.30592  0.0000E+00  0.1388E-04  0.1178E-06  0.4304E-03  0.3534E-02  0.6966E+02
   -0.419993   16.30752  0.0000E+00  0.1318E-04  0.9932E-07  0.4448E-03  0.2915E-02  0.6127E+01
   -0.454993   16.30901  0.0000E+00  0.1258E-04  0.8527E-07  0.4556E-03  0.2353E-02  0.1547E+02
   -0.489994   16.31043  0.0000E+00  0.1203E-04  0.7424E-07  0.4615E-03  0.1837E-02  0.3568E+01
   -0.524995   16.31181  0.0000E+00  0.1147E-04  0.6468E-07  0.4901E-03  0.1369E-02  0.1873E+01
   -0.559996   16.31308  0.0000E+00  0.1089E-04  0.5589E-07  0.5318E-03  0.1023E-02  0.1192E+01
   -0.594997   16.31423  0.0000E+00  0.1037E-04  0.4873E-07  0.6392E-03  0.7907E-03  0.8645E+00
   -0.629998   16.31515  0.0000E+00  0.1011E-04  0.4520E-07  0.7407E-03  0.6860E-03  0.1847E+02
   -0.665000   16.31594  0.0000E+00  0.9909E-05  0.4260E-07  0.7467E-03  0.6396E-03  0.1256E+01
   -0.700001   16.31672  0.0000E+00  0.9659E-05  0.3957E-07  0.7256E-03  0.5789E-03  0.8304E+00
   -0.735002   16.31752  0.0000E+00  0.9384E-05  0.3661E-07  0.7404E-03  0.5014E-03  0.8979E+00
   -0.770003   16.31829  0.0000E+00  0.9143E-05  0.3432E-07  0.7474E-03  0.4352E-03  0.9059E+00
   -0.805004   16.31904  0.0000E+00  0.8930E-05  0.3258E-07  0.7487E-03  0.3794E-03  0.9077E+00
   -0.840005   16.31978  0.0000E+00  0.8740E-05  0.3130E-07  0.7435E-03  0.3323E-03  0.9037E+00
   -0.875006   16.32053  0.0000E+00  0.8567E-05  0.3041E-07  0.7328E-03  0.2928E-03  0.8921E+00
   -0.910007   16.32128  0.0000E+00  0.8408E-05  0.2986E-07  0.7185E-03  0.2599E-03  0.9097E+00
   -0.945008   16.32204  0.0000E+00  0.8259E-05  0.2961E-07  0.7007E-03  0.2319E-03  0.9630E+00
   -0.980009   16.32282  0.0000E+00  0.8113E-05  0.2966E-07  0.6777E-03  0.2074E-03  0.1078E+01
   -1.015009   16.32362  0.0000E+00  0.7964E-05  0.3004E-07  0.6527E-03  0.1854E-03  0.1288E+01
   -1.050010   16.32446  0.0000E+00  0.7801E-05  0.3084E-07  0.6157E-03  0.1657E-03  0.1745E+01
   -1.085010   16.32536  0.0000E+00  0.7615E-05  0.3227E-07  0.5854E-03  0.1474E-03  0.2544E+01
   -1.120010   16.32632  0.0000E+00  0.7398E-05  0.3473E-07  0.5339E-03  0.1306E-03  0.4668E+01
   -1.155010   16.32743  0.0000E+00  0.7138E-05  0.3888E-07  0.5032E-03  0.1135E-03 -0.8624E+02
   -1.190010   16.32873  0.0000E+00  0.6800E-05  0.4648E-07  0.4402E-03  0.9650E-04 -0.3083E+04
   -1.225009   16.33082  0.0000E+00  0.6364E-05  0.5958E-07  0.4037E-03  0.7651E-04  0.1829E+06
   -1.260008   16.33285  0.0000E+00  0.5710E-05  0.9296E-07  0.2955E-03  0.5922E-04 -0.2024E+05
   -1.295007   16.34041  0.0000E+00  0.4829E-05  0.1708E-06  0.2889E-03  0.3957E-04  0.2077E+06
   -1.330005   16.33666  0.0000E+00  0.3830E-05  0.3873E-06  0.1316E-03  0.3497E-04  0.3550E+05
   -1.365004   16.36090  0.0000E+00  0.2688E-05  0.8556E-06  0.1166E-03  0.2078E-04 -0.2881E+06
   -1.400001   16.36269  0.0000E+00  0.0000E+00  0.0000E+00  0.0000E+00  0.3585E-04  0.0000E+00
