 1 - depth, m
 2 - temperature, C
 3 - salinity, kg/kg
 4 - turbulent kinetic energy, m**2/s**2
 5 - dissipation rate, m**2/s**3
 6 - kinematic heat conductance, m**2/s
 7 - modulus of horizontal velocity, m/s
 8 - Richardson number, n/d
   -0.000000    0.00000  0.0000E+00  0.4702E-13  0.1132E-15  0.1000E-09  0.0000E+00  0.1414E+17
   -0.034997    0.21842  0.0000E+00  0.1289E-12  0.1132E-15  0.1000E-09  0.0000E+00  0.1303E+17
   -0.069995    0.43239  0.0000E+00  0.3998E-12  0.1153E-15  0.1000E-09  0.0000E+00  0.1199E+17
   -0.104993    0.64212  0.0000E+00  0.8661E-12  0.1700E-15  0.1000E-09  0.0000E+00  0.1095E+17
   -0.139991    0.84668  0.0000E+00  0.1622E-11  0.2772E-15  0.1000E-09  0.0000E+00  0.9955E+16
   -0.174990    1.04566  0.0000E+00  0.2851E-11  0.4593E-15  0.1000E-09  0.0000E+00  0.9030E+16
   -0.209989    1.23924  0.0000E+00  0.4863E-11  0.7590E-15  0.1000E-09  0.0000E+00  0.8170E+16
   -0.244988    1.42760  0.0000E+00  0.8169E-11  0.1247E-14  0.1000E-09  0.0000E+00  0.7370E+16
   -0.279987    1.61086  0.0000E+00  0.1360E-10  0.2037E-14  0.1000E-09  0.0000E+00  0.6624E+16
   -0.314987    1.78912  0.0000E+00  0.2264E-10  0.3331E-14  0.1000E-09  0.0000E+00  0.5970E+16
   -0.349987    1.96372  0.0000E+00  0.3780E-10  0.5467E-14  0.1000E-09  0.0000E+00  0.5354E+16
   -0.384987    2.13475  0.0000E+00  0.6311E-10  0.8977E-14  0.1000E-09  0.0000E+00  0.4768E+16
   -0.419987    2.30213  0.0000E+00  0.1049E-09  0.1468E-13  0.1000E-09  0.0000E+00  0.4218E+16
   -0.454987    2.46593  0.0000E+00  0.1735E-09  0.2388E-13  0.1000E-09  0.0000E+00  0.3713E+16
   -0.489987    2.62681  0.0000E+00  0.2860E-09  0.3874E-13  0.1000E-09  0.0000E+00  0.3264E+16
   -0.524988    2.78634  0.0000E+00  0.4900E-09  0.6525E-13  0.1000E-09  0.0000E+00  0.2965E+16
   -0.559988    2.95283  0.0000E+00  0.8792E-09  0.1151E-12  0.1103E-09  0.0000E+00  0.2703E+16
   -0.594989    3.13299  0.0000E+00  0.1673E-08  0.2153E-12  0.2385E-09  0.0000E+00  0.2339E+16
   -0.629990    3.32823  0.0000E+00  0.2912E-08  0.3695E-12  0.5679E-09  0.0000E+00  0.1686E+16
   -0.664990    3.51751  0.0000E+00  0.4825E-08  0.6035E-12  0.1440E-08  0.0000E+00  0.1086E+16
   -0.699991    3.69999  0.0000E+00  0.7826E-08  0.9650E-12  0.4607E-08  0.0000E+00  0.5432E+15
   -0.734992    3.87295  0.0000E+00  0.1242E-07  0.1512E-11  0.4075E-07  0.0000E+00  0.9720E+14
   -0.769992    4.00803  0.0000E+00  0.1301E-07  0.1587E-11  0.4110E-04  0.0000E+00 -0.2053E+12
   -0.804993    4.00862  0.0000E+00  0.1330E-07  0.1630E-11  0.4037E-04  0.0000E+00 -0.2166E+12
   -0.839994    4.00924  0.0000E+00  0.1358E-07  0.1678E-11  0.4073E-04  0.0000E+00 -0.2227E+12
   -0.874994    4.00985  0.0000E+00  0.1384E-07  0.1730E-11  0.4101E-04  0.0000E+00 -0.2298E+12
   -0.909995    4.01046  0.0000E+00  0.1409E-07  0.1788E-11  0.4110E-04  0.0000E+00 -0.2361E+12
   -0.944995    4.01108  0.0000E+00  0.1432E-07  0.1851E-11  0.4101E-04  0.0000E+00 -0.2429E+12
   -0.979995    4.01170  0.0000E+00  0.1453E-07  0.1921E-11  0.4070E-04  0.0000E+00 -0.2513E+12
   -1.014995    4.01232  0.0000E+00  0.1472E-07  0.2000E-11  0.4022E-04  0.0000E+00 -0.2657E+12
   -1.049995    4.01297  0.0000E+00  0.1490E-07  0.2094E-11  0.3948E-04  0.0000E+00 -0.2848E+12
   -1.084995    4.01364  0.0000E+00  0.1507E-07  0.2205E-11  0.3851E-04  0.0000E+00 -0.3079E+12
   -1.119995    4.01435  0.0000E+00  0.1521E-07  0.2339E-11  0.3713E-04  0.0000E+00 -0.3290E+12
   -1.154994    4.01509  0.0000E+00  0.1533E-07  0.2502E-11  0.3544E-04  0.0000E+00 -0.3559E+12
   -1.189993    4.01587  0.0000E+00  0.1542E-07  0.2707E-11  0.3329E-04  0.0000E+00 -0.3972E+12
   -1.224992    4.01672  0.0000E+00  0.1549E-07  0.3000E-11  0.3067E-04  0.0000E+00 -0.4909E+12
   -1.259990    4.01773  0.0000E+00  0.1551E-07  0.3492E-11  0.2691E-04  0.0000E+00 -0.7042E+12
   -1.294989    4.01913  0.0000E+00  0.1536E-07  0.4658E-11  0.2101E-04  0.0000E+00 -0.1263E+13
   -1.329987    4.02151  0.0000E+00  0.1455E-07  0.7670E-11  0.8033E-05  0.0000E+00 -0.3435E+13
   -1.364985    4.02727  0.0000E+00  0.1057E-07  0.2250E-10  0.9345E-06  0.0000E+00 -0.3526E+14
   -1.399982    4.06495  0.0000E+00  0.0000E+00  0.0000E+00  0.0000E+00  0.0000E+00  0.0000E+00
