 1 - depth, m
 2 - temperature, C
 3 - salinity, kg/kg
 4 - turbulent kinetic energy, m**2/s**2
 5 - dissipation rate, m**2/s**3
 6 - kinematic heat conductance, m**2/s
 7 - modulus of horizontal velocity, m/s
 8 - Richardson number, n/d
   -0.000000    0.00000  0.0000E+00  0.5650E-12  0.1886E-15  0.1000E-09  0.0000E+00  0.1928E+17
   -0.034997    0.30133  0.0000E+00  0.8829E-12  0.2052E-15  0.1000E-09  0.0000E+00  0.1680E+17
   -0.069995    0.58709  0.0000E+00  0.1555E-11  0.2955E-15  0.1000E-09  0.0000E+00  0.1461E+17
   -0.104992    0.85800  0.0000E+00  0.2741E-11  0.4768E-15  0.1000E-09  0.0000E+00  0.1263E+17
   -0.139990    1.11398  0.0000E+00  0.4761E-11  0.7931E-15  0.1000E-09  0.0000E+00  0.1088E+17
   -0.174989    1.35540  0.0000E+00  0.8167E-11  0.1326E-14  0.1000E-09  0.0000E+00  0.9350E+16
   -0.209987    1.58310  0.0000E+00  0.1389E-10  0.2210E-14  0.1000E-09  0.0000E+00  0.8019E+16
   -0.244986    1.79798  0.0000E+00  0.2349E-10  0.3671E-14  0.1000E-09  0.0000E+00  0.6861E+16
   -0.279985    2.00094  0.0000E+00  0.3952E-10  0.6073E-14  0.1000E-09  0.0000E+00  0.5854E+16
   -0.314985    2.19282  0.0000E+00  0.6659E-10  0.1007E-13  0.1000E-09  0.0000E+00  0.4910E+16
   -0.349984    2.37184  0.0000E+00  0.1127E-09  0.1675E-13  0.1000E-09  0.0000E+00  0.4085E+16
   -0.384984    2.53803  0.0000E+00  0.1907E-09  0.2790E-13  0.1000E-09  0.0000E+00  0.3374E+16
   -0.419983    2.69169  0.0000E+00  0.3214E-09  0.4626E-13  0.1000E-09  0.0000E+00  0.2862E+16
   -0.454983    2.83845  0.0000E+00  0.5388E-09  0.7635E-13  0.1000E-09  0.0000E+00  0.2483E+16
   -0.489983    2.98338  0.0000E+00  0.9007E-09  0.1256E-12  0.1520E-09  0.0000E+00  0.2148E+16
   -0.524984    3.12865  0.0000E+00  0.1566E-08  0.2148E-12  0.2941E-09  0.0000E+00  0.1891E+16
   -0.559984    3.28140  0.0000E+00  0.2850E-08  0.3846E-12  0.6044E-09  0.0000E+00  0.1648E+16
   -0.594984    3.44960  0.0000E+00  0.5499E-08  0.7298E-12  0.1451E-08  0.0000E+00  0.1308E+16
   -0.629985    3.63791  0.0000E+00  0.9673E-08  0.1266E-11  0.4497E-08  0.0000E+00  0.7573E+15
   -0.664985    3.82922  0.0000E+00  0.1594E-07  0.2063E-11  0.3781E-07  0.0000E+00  0.2026E+15
   -0.699985    3.99589  0.0000E+00  0.1738E-07  0.2260E-11  0.4364E-04  0.0000E+00  0.5505E+13
   -0.734986    4.01039  0.0000E+00  0.1779E-07  0.2322E-11  0.4953E-04  0.0000E+00 -0.2333E+12
   -0.769986    4.01101  0.0000E+00  0.1813E-07  0.2383E-11  0.4972E-04  0.0000E+00 -0.2429E+12
   -0.804987    4.01164  0.0000E+00  0.1847E-07  0.2451E-11  0.5005E-04  0.0000E+00 -0.2517E+12
   -0.839987    4.01227  0.0000E+00  0.1880E-07  0.2527E-11  0.5021E-04  0.0000E+00 -0.2619E+12
   -0.874987    4.01291  0.0000E+00  0.1911E-07  0.2612E-11  0.5023E-04  0.0000E+00 -0.2742E+12
   -0.909987    4.01357  0.0000E+00  0.1942E-07  0.2707E-11  0.5009E-04  0.0000E+00 -0.2856E+12
   -0.944988    4.01424  0.0000E+00  0.1971E-07  0.2811E-11  0.5041E-04  0.0000E+00 -0.2939E+12
   -0.979987    4.01491  0.0000E+00  0.1997E-07  0.2925E-11  0.5284E-04  0.0000E+00 -0.2913E+12
   -1.014987    4.01556  0.0000E+00  0.2022E-07  0.3054E-11  0.5198E-04  0.0000E+00 -0.3172E+12
   -1.049987    4.01624  0.0000E+00  0.2045E-07  0.3208E-11  0.4749E-04  0.0000E+00 -0.3701E+12
   -1.084986    4.01703  0.0000E+00  0.2067E-07  0.3395E-11  0.4584E-04  0.0000E+00 -0.4033E+12
   -1.119986    4.01786  0.0000E+00  0.2087E-07  0.3621E-11  0.4404E-04  0.0000E+00 -0.4350E+12
   -1.154985    4.01873  0.0000E+00  0.2104E-07  0.3895E-11  0.4190E-04  0.0000E+00 -0.4753E+12
   -1.189984    4.01966  0.0000E+00  0.2118E-07  0.4242E-11  0.3924E-04  0.0000E+00 -0.5361E+12
   -1.224982    4.02067  0.0000E+00  0.2129E-07  0.4737E-11  0.3593E-04  0.0000E+00 -0.6655E+12
   -1.259981    4.02189  0.0000E+00  0.2135E-07  0.5575E-11  0.3123E-04  0.0000E+00 -0.9625E+12
   -1.294979    4.02358  0.0000E+00  0.2122E-07  0.7580E-11  0.2420E-04  0.0000E+00 -0.1759E+13
   -1.329976    4.02649  0.0000E+00  0.2036E-07  0.1280E-10  0.9736E-05  0.0000E+00 -0.4962E+13
   -1.364974    4.03375  0.0000E+00  0.1583E-07  0.3828E-10  0.1370E-05  0.0000E+00 -0.5354E+14
   -1.399971    4.08168  0.0000E+00  0.0000E+00  0.0000E+00  0.0000E+00  0.0000E+00  0.0000E+00
