 1 - depth, m
 2 - temperature, C
 3 - salinity, kg/kg
 4 - turbulent kinetic energy, m**2/s**2
 5 - dissipation rate, m**2/s**3
 6 - kinematic heat conductance, m**2/s
 7 - modulus of horizontal velocity, m/s
 8 - Richardson number, n/d
   -0.000000    0.00000  0.0000E+00  0.4702E-13  0.1132E-15  0.1000E-09  0.0000E+00  0.1600E+17
   -0.034997    0.24823  0.0000E+00  0.4702E-13  0.1132E-15  0.1000E-09  0.0000E+00  0.1362E+17
   -0.069995    0.47425  0.0000E+00  0.4702E-13  0.1132E-15  0.1000E-09  0.0000E+00  0.1165E+17
   -0.104993    0.68070  0.0000E+00  0.4702E-13  0.1132E-15  0.1000E-09  0.0000E+00  0.1003E+17
   -0.139991    0.87007  0.0000E+00  0.4702E-13  0.1132E-15  0.1000E-09  0.0000E+00  0.8712E+16
   -0.174989    1.04492  0.0000E+00  0.4702E-13  0.1132E-15  0.1000E-09  0.0000E+00  0.7641E+16
   -0.209988    1.20780  0.0000E+00  0.4702E-13  0.1132E-15  0.1000E-09  0.0000E+00  0.6780E+16
   -0.244987    1.36119  0.0000E+00  0.4702E-13  0.1132E-15  0.1000E-09  0.0000E+00  0.6083E+16
   -0.279986    1.50727  0.0000E+00  0.4702E-13  0.1132E-15  0.1000E-09  0.0000E+00  0.5514E+16
   -0.314985    1.64788  0.0000E+00  0.4702E-13  0.1132E-15  0.1000E-09  0.0000E+00  0.4783E+16
   -0.349985    1.77740  0.0000E+00  0.4702E-13  0.1132E-15  0.1000E-09  0.0000E+00  0.4124E+16
   -0.384985    1.89574  0.0000E+00  0.4702E-13  0.1132E-15  0.1000E-09  0.0000E+00  0.3544E+16
   -0.419984    2.00329  0.0000E+00  0.4702E-13  0.1132E-15  0.1000E-09  0.0000E+00  0.3246E+16
   -0.454984    2.10736  0.0000E+00  0.4702E-13  0.1132E-15  0.1000E-09  0.0000E+00  0.3094E+16
   -0.489985    2.21239  0.0000E+00  0.4702E-13  0.1132E-15  0.1000E-09  0.0000E+00  0.2868E+16
   -0.524985    2.31581  0.0000E+00  0.4702E-13  0.1132E-15  0.1000E-09  0.0000E+00  0.2278E+16
   -0.559985    2.40290  0.0000E+00  0.4702E-13  0.1132E-15  0.1000E-09  0.0000E+00  0.1449E+16
   -0.594986    2.46102  0.0000E+00  0.4702E-13  0.1132E-15  0.1000E-09  0.0000E+00  0.5806E+15
   -0.629986    2.48510  0.0000E+00  0.4702E-13  0.1132E-15  0.1000E-09  0.0000E+00  0.6214E+15
   -0.664987    2.51130  0.0000E+00  0.4702E-13  0.1132E-15  0.1000E-09  0.0000E+00  0.6869E+15
   -0.699987    2.54077  0.0000E+00  0.4702E-13  0.1132E-15  0.1000E-09  0.0000E+00  0.7518E+15
   -0.734988    2.57369  0.0000E+00  0.4705E-13  0.1132E-15  0.1000E-09  0.0000E+00  0.8482E+15
   -0.769988    2.61174  0.0000E+00  0.7343E-13  0.1182E-15  0.1000E-09  0.0000E+00  0.1038E+16
   -0.804989    2.65978  0.0000E+00  0.1970E-12  0.1642E-15  0.1000E-09  0.0000E+00  0.1214E+16
   -0.839989    2.71835  0.0000E+00  0.5840E-12  0.3636E-15  0.1000E-09  0.0000E+00  0.1371E+16
   -0.874989    2.78798  0.0000E+00  0.1638E-11  0.9519E-15  0.1000E-09  0.0000E+00  0.1499E+16
   -0.909990    2.86920  0.0000E+00  0.4442E-11  0.2506E-14  0.1000E-09  0.0000E+00  0.1589E+16
   -0.944990    2.96242  0.0000E+00  0.1181E-10  0.6506E-14  0.1000E-09  0.0000E+00  0.1634E+16
   -0.979990    3.06832  0.0000E+00  0.3111E-10  0.1673E-13  0.1000E-09  0.0000E+00  0.1628E+16
   -1.014990    3.18790  0.0000E+00  0.8186E-10  0.4299E-13  0.1083E-09  0.0000E+00  0.1574E+16
   -1.049989    3.32416  0.0000E+00  0.2156E-09  0.1105E-12  0.2156E-09  0.0000E+00  0.1435E+16
   -1.084989    3.48004  0.0000E+00  0.5667E-09  0.2838E-12  0.6932E-09  0.0000E+00  0.1168E+16
   -1.119988    3.65840  0.0000E+00  0.1464E-08  0.7168E-12  0.3573E-08  0.0000E+00  0.7083E+15
   -1.154988    3.85587  0.0000E+00  0.3413E-08  0.1665E-11  0.5923E-06  0.0000E+00  0.1875E+15
   -1.189986    4.00229  0.0000E+00  0.5972E-08  0.3031E-11  0.3634E-05  0.0000E+00 -0.2468E+13
   -1.224985    4.01689  0.0000E+00  0.7961E-08  0.4550E-11  0.4733E-05  0.0000E+00 -0.4512E+13
   -1.259984    4.02559  0.0000E+00  0.1002E-07  0.6898E-11  0.5272E-05  0.0000E+00 -0.6782E+13
   -1.294982    4.03560  0.0000E+00  0.1258E-07  0.1179E-10  0.5135E-05  0.0000E+00 -0.1289E+14
   -1.329980    4.05028  0.0000E+00  0.1420E-07  0.2019E-10  0.3333E-05  0.0000E+00 -0.2764E+14
   -1.364977    4.07369  0.0000E+00  0.1396E-07  0.4444E-10  0.1226E-05  0.0000E+00 -0.1237E+15
   -1.399974    4.13947  0.0000E+00  0.0000E+00  0.0000E+00  0.0000E+00  0.0000E+00  0.0000E+00
