 1 - depth, m
 2 - temperature, C
 3 - salinity, kg/kg
 4 - turbulent kinetic energy, m**2/s**2
 5 - dissipation rate, m**2/s**3
 6 - kinematic heat conductance, m**2/s
 7 - modulus of horizontal velocity, m/s
 8 - Richardson number, n/d
   -0.000000   17.38147  0.0000E+00  0.2658E-04  0.4455E-05  0.2582E-04  0.2951E-01 -0.1399E+02
   -0.034998   17.42413  0.0000E+00  0.1883E-04  0.1353E-05  0.5567E-04  0.1415E-01  0.6224E+03
   -0.069996   17.43636  0.0000E+00  0.1572E-04  0.6528E-06  0.8822E-04  0.1038E-01  0.7572E+02
   -0.104994   17.44398  0.0000E+00  0.1382E-04  0.3777E-06  0.1207E-03  0.8175E-02  0.4299E+02
   -0.139993   17.44952  0.0000E+00  0.1253E-04  0.2440E-06  0.1582E-03  0.6638E-02  0.5767E+02
   -0.174992   17.45373  0.0000E+00  0.1162E-04  0.1713E-06  0.2151E-03  0.5492E-02  0.6149E+02
   -0.209991   17.45677  0.0000E+00  0.1098E-04  0.1291E-06  0.3027E-03  0.4615E-02  0.6221E+02
   -0.244991   17.45887  0.0000E+00  0.1052E-04  0.1028E-06  0.3489E-03  0.3922E-02  0.1303E+03
   -0.279990   17.46051  0.0000E+00  0.1015E-04  0.8456E-07  0.3809E-03  0.3310E-02  0.3491E+03
   -0.314990   17.46191  0.0000E+00  0.9799E-05  0.7084E-07  0.4094E-03  0.2747E-02  0.7037E+02
   -0.349990   17.46316  0.0000E+00  0.9476E-05  0.6023E-07  0.4352E-03  0.2271E-02  0.2097E+02
   -0.384991   17.46429  0.0000E+00  0.9188E-05  0.5197E-07  0.4615E-03  0.1869E-02  0.2070E+02
   -0.419991   17.46534  0.0000E+00  0.8938E-05  0.4553E-07  0.4811E-03  0.1528E-02  0.1987E+02
   -0.454992   17.46633  0.0000E+00  0.8713E-05  0.4044E-07  0.5007E-03  0.1222E-02  0.2004E+02
   -0.489993   17.46727  0.0000E+00  0.8503E-05  0.3640E-07  0.5184E-03  0.9459E-03  0.2036E+02
   -0.524993   17.46817  0.0000E+00  0.8288E-05  0.3293E-07  0.5597E-03  0.7007E-03  0.2038E+02
   -0.559994   17.46898  0.0000E+00  0.8073E-05  0.2988E-07  0.6260E-03  0.5240E-03  0.2622E+02
   -0.594995   17.46968  0.0000E+00  0.7863E-05  0.2714E-07  0.7254E-03  0.4146E-03  0.3875E+02
   -0.629996   17.47025  0.0000E+00  0.7706E-05  0.2522E-07  0.7514E-03  0.3582E-03  0.7216E+02
   -0.664997   17.47078  0.0000E+00  0.7579E-05  0.2380E-07  0.7618E-03  0.3161E-03  0.7653E+02
   -0.699998   17.47131  0.0000E+00  0.7465E-05  0.2266E-07  0.7717E-03  0.2785E-03  0.8409E+02
   -0.735000   17.47182  0.0000E+00  0.7361E-05  0.2177E-07  0.7772E-03  0.2458E-03  0.9137E+02
   -0.770001   17.47232  0.0000E+00  0.7265E-05  0.2110E-07  0.7779E-03  0.2177E-03  0.1035E+03
   -0.805002   17.47281  0.0000E+00  0.7176E-05  0.2061E-07  0.7742E-03  0.1940E-03  0.1156E+03
   -0.840003   17.47331  0.0000E+00  0.7091E-05  0.2028E-07  0.7666E-03  0.1739E-03  0.1337E+03
   -0.875004   17.47380  0.0000E+00  0.7010E-05  0.2010E-07  0.7558E-03  0.1568E-03  0.1506E+03
   -0.910004   17.47430  0.0000E+00  0.6928E-05  0.2005E-07  0.7413E-03  0.1420E-03  0.1764E+03
   -0.945005   17.47480  0.0000E+00  0.6844E-05  0.2013E-07  0.7225E-03  0.1289E-03  0.1993E+03
   -0.980006   17.47531  0.0000E+00  0.6755E-05  0.2037E-07  0.6977E-03  0.1167E-03  0.2317E+03
   -1.015006   17.47585  0.0000E+00  0.6657E-05  0.2081E-07  0.6703E-03  0.1052E-03  0.2673E+03
   -1.050006   17.47641  0.0000E+00  0.6546E-05  0.2152E-07  0.6307E-03  0.9438E-04  0.3346E+03
   -1.085007   17.47700  0.0000E+00  0.6416E-05  0.2266E-07  0.5969E-03  0.8417E-04  0.4202E+03
   -1.120006   17.47764  0.0000E+00  0.6262E-05  0.2446E-07  0.5417E-03  0.7462E-04  0.5609E+03
   -1.155006   17.47838  0.0000E+00  0.6078E-05  0.2735E-07  0.5108E-03  0.6489E-04  0.7169E+03
   -1.190006   17.47923  0.0000E+00  0.5836E-05  0.3261E-07  0.4399E-03  0.5528E-04 -0.4053E+03
   -1.225005   17.48059  0.0000E+00  0.5512E-05  0.4162E-07  0.4116E-03  0.4376E-04 -0.2095E+04
   -1.260004   17.48196  0.0000E+00  0.5015E-05  0.6280E-07  0.3016E-03  0.3386E-04 -0.1947E+06
   -1.295003   17.48696  0.0000E+00  0.4287E-05  0.1142E-06  0.2889E-03  0.2239E-04  0.5286E+06
   -1.330001   17.48500  0.0000E+00  0.3441E-05  0.2548E-06  0.1276E-03  0.1961E-04  0.6155E+06
   -1.364999   17.50435  0.0000E+00  0.2393E-05  0.5848E-06  0.9923E-04  0.1154E-04 -0.5245E+07
   -1.399997   17.50841  0.0000E+00  0.0000E+00  0.0000E+00  0.0000E+00  0.1992E-04  0.0000E+00
