 1 - depth, m
 2 - temperature, C
 3 - salinity, kg/kg
 4 - turbulent kinetic energy, m**2/s**2
 5 - dissipation rate, m**2/s**3
 6 - kinematic heat conductance, m**2/s
 7 - modulus of horizontal velocity, m/s
 8 - Richardson number, n/d
   -0.000000    0.00000  0.0000E+00  0.5625E-12  0.1623E-15  0.1000E-09  0.0000E+00  0.1790E+17
   -0.034997    0.27889  0.0000E+00  0.8284E-12  0.1714E-15  0.1000E-09  0.0000E+00  0.1580E+17
   -0.069995    0.54504  0.0000E+00  0.1380E-11  0.2350E-15  0.1000E-09  0.0000E+00  0.1390E+17
   -0.104992    0.79865  0.0000E+00  0.2328E-11  0.3611E-15  0.1000E-09  0.0000E+00  0.1216E+17
   -0.139990    1.03942  0.0000E+00  0.3885E-11  0.5753E-15  0.1000E-09  0.0000E+00  0.1060E+17
   -0.174989    1.26747  0.0000E+00  0.6416E-11  0.9241E-15  0.1000E-09  0.0000E+00  0.9214E+16
   -0.209987    1.48346  0.0000E+00  0.1051E-10  0.1483E-14  0.1000E-09  0.0000E+00  0.7997E+16
   -0.244986    1.68804  0.0000E+00  0.1710E-10  0.2372E-14  0.1000E-09  0.0000E+00  0.6924E+16
   -0.279985    1.88185  0.0000E+00  0.2770E-10  0.3780E-14  0.1000E-09  0.0000E+00  0.5979E+16
   -0.314984    2.06546  0.0000E+00  0.4491E-10  0.6032E-14  0.1000E-09  0.0000E+00  0.5156E+16
   -0.349984    2.23976  0.0000E+00  0.7310E-10  0.9663E-14  0.1000E-09  0.0000E+00  0.4424E+16
   -0.384983    2.40502  0.0000E+00  0.1190E-09  0.1549E-13  0.1000E-09  0.0000E+00  0.3772E+16
   -0.419983    2.56142  0.0000E+00  0.1930E-09  0.2472E-13  0.1000E-09  0.0000E+00  0.3244E+16
   -0.454983    2.71155  0.0000E+00  0.3114E-09  0.3925E-13  0.1000E-09  0.0000E+00  0.2816E+16
   -0.489983    2.85836  0.0000E+00  0.5006E-09  0.6212E-13  0.1047E-09  0.0000E+00  0.2456E+16
   -0.524983    3.00450  0.0000E+00  0.8350E-09  0.1019E-12  0.1311E-09  0.0000E+00  0.2265E+16
   -0.559984    3.16235  0.0000E+00  0.1457E-08  0.1748E-12  0.2165E-09  0.0000E+00  0.2094E+16
   -0.594984    3.34236  0.0000E+00  0.2694E-08  0.3175E-12  0.4662E-09  0.0000E+00  0.1750E+16
   -0.629984    3.54713  0.0000E+00  0.4570E-08  0.5306E-12  0.1276E-08  0.0000E+00  0.1050E+16
   -0.664985    3.74386  0.0000E+00  0.7345E-08  0.8403E-12  0.5510E-08  0.0000E+00  0.4164E+15
   -0.699985    3.92528  0.0000E+00  0.9421E-08  0.1073E-11  0.1138E-04  0.0000E+00  0.5285E+14
   -0.734986    3.99833  0.0000E+00  0.9899E-08  0.1131E-11  0.3044E-04  0.0000E+00 -0.1475E+12
   -0.769986    3.99919  0.0000E+00  0.1019E-07  0.1173E-11  0.3155E-04  0.0000E+00 -0.1571E+12
   -0.804986    4.00001  0.0000E+00  0.1047E-07  0.1218E-11  0.3262E-04  0.0000E+00 -0.1651E+12
   -0.839987    4.00080  0.0000E+00  0.1074E-07  0.1268E-11  0.3342E-04  0.0000E+00 -0.1741E+12
   -0.874987    4.00158  0.0000E+00  0.1100E-07  0.1322E-11  0.3402E-04  0.0000E+00 -0.1841E+12
   -0.909987    4.00235  0.0000E+00  0.1125E-07  0.1382E-11  0.3427E-04  0.0000E+00 -0.1944E+12
   -0.944987    4.00312  0.0000E+00  0.1149E-07  0.1448E-11  0.3429E-04  0.0000E+00 -0.2055E+12
   -0.979987    4.00390  0.0000E+00  0.1172E-07  0.1522E-11  0.3402E-04  0.0000E+00 -0.2192E+12
   -1.014987    4.00468  0.0000E+00  0.1193E-07  0.1605E-11  0.3364E-04  0.0000E+00 -0.2390E+12
   -1.049987    4.00551  0.0000E+00  0.1214E-07  0.1702E-11  0.3296E-04  0.0000E+00 -0.2651E+12
   -1.084986    4.00638  0.0000E+00  0.1234E-07  0.1819E-11  0.3205E-04  0.0000E+00 -0.2947E+12
   -1.119985    4.00730  0.0000E+00  0.1252E-07  0.1959E-11  0.3071E-04  0.0000E+00 -0.3256E+12
   -1.154984    4.00828  0.0000E+00  0.1269E-07  0.2133E-11  0.2906E-04  0.0000E+00 -0.3659E+12
   -1.189983    4.00933  0.0000E+00  0.1285E-07  0.2358E-11  0.2691E-04  0.0000E+00 -0.4300E+12
   -1.224982    4.01050  0.0000E+00  0.1300E-07  0.2688E-11  0.2444E-04  0.0000E+00 -0.5652E+12
   -1.259980    4.01196  0.0000E+00  0.1314E-07  0.3248E-11  0.2127E-04  0.0000E+00 -0.8726E+12
   -1.294978    4.01406  0.0000E+00  0.1320E-07  0.4682E-11  0.1546E-04  0.0000E+00 -0.1860E+13
   -1.329976    4.01807  0.0000E+00  0.1263E-07  0.8385E-11  0.5740E-05  0.0000E+00 -0.5935E+13
   -1.364973    4.02830  0.0000E+00  0.9877E-08  0.2301E-10  0.9463E-06  0.0000E+00 -0.5441E+14
   -1.399970    4.07960  0.0000E+00  0.0000E+00  0.0000E+00  0.0000E+00  0.0000E+00  0.0000E+00
