 1 - depth, m
 2 - temperature, C
 3 - salinity, kg/kg
 4 - turbulent kinetic energy, m**2/s**2
 5 - dissipation rate, m**2/s**3
 6 - kinematic heat conductance, m**2/s
 7 - modulus of horizontal velocity, m/s
 8 - Richardson number, n/d
   -0.000000    0.00000  0.0000E+00  0.4701E-13  0.1132E-15  0.1000E-09  0.0000E+00  0.6043E+16
   -0.034998    0.09178  0.0000E+00  0.4701E-13  0.1132E-15  0.1000E-09  0.0000E+00  0.6051E+16
   -0.069996    0.18606  0.0000E+00  0.4701E-13  0.1132E-15  0.1000E-09  0.0000E+00  0.6082E+16
   -0.104995    0.28339  0.0000E+00  0.4701E-13  0.1132E-15  0.1000E-09  0.0000E+00  0.6040E+16
   -0.139994    0.38283  0.0000E+00  0.4701E-13  0.1132E-15  0.1000E-09  0.0000E+00  0.5958E+16
   -0.174993    0.48385  0.0000E+00  0.4701E-13  0.1132E-15  0.1000E-09  0.0000E+00  0.5878E+16
   -0.209993    0.58664  0.0000E+00  0.4701E-13  0.1132E-15  0.1000E-09  0.0000E+00  0.5796E+16
   -0.244993    0.69131  0.0000E+00  0.4701E-13  0.1132E-15  0.1000E-09  0.0000E+00  0.5706E+16
   -0.279993    0.79791  0.0000E+00  0.4701E-13  0.1132E-15  0.1000E-09  0.0000E+00  0.5605E+16
   -0.314993    0.90641  0.0000E+00  0.4701E-13  0.1132E-15  0.1000E-09  0.0000E+00  0.5505E+16
   -0.349993    1.01704  0.0000E+00  0.4701E-13  0.1132E-15  0.1000E-09  0.0000E+00  0.5393E+16
   -0.384994    1.12978  0.0000E+00  0.4701E-13  0.1132E-15  0.1000E-09  0.0000E+00  0.5267E+16
   -0.419995    1.24459  0.0000E+00  0.4701E-13  0.1132E-15  0.1000E-09  0.0000E+00  0.5118E+16
   -0.454995    1.36118  0.0000E+00  0.4701E-13  0.1132E-15  0.1000E-09  0.0000E+00  0.4955E+16
   -0.489996    1.47944  0.0000E+00  0.4701E-13  0.1132E-15  0.1000E-09  0.0000E+00  0.4800E+16
   -0.524997    1.59983  0.0000E+00  0.4701E-13  0.1132E-15  0.1000E-09  0.0000E+00  0.4747E+16
   -0.559999    1.72544  0.0000E+00  0.4701E-13  0.1132E-15  0.1000E-09  0.0000E+00  0.4765E+16
   -0.595000    1.85929  0.0000E+00  0.4701E-13  0.1132E-15  0.1000E-09  0.0000E+00  0.4751E+16
   -0.630001    2.00203  0.0000E+00  0.2138E-12  0.1145E-15  0.1000E-09  0.0000E+00  0.4403E+16
   -0.665003    2.14452  0.0000E+00  0.5818E-12  0.2161E-15  0.1000E-09  0.0000E+00  0.4060E+16
   -0.700004    2.28681  0.0000E+00  0.1334E-11  0.4495E-15  0.1000E-09  0.0000E+00  0.3725E+16
   -0.735005    2.42910  0.0000E+00  0.2899E-11  0.9381E-15  0.1000E-09  0.0000E+00  0.3405E+16
   -0.770007    2.57196  0.0000E+00  0.6170E-11  0.1944E-14  0.1000E-09  0.0000E+00  0.3103E+16
   -0.805008    2.71643  0.0000E+00  0.1300E-10  0.4000E-14  0.1000E-09  0.0000E+00  0.2787E+16
   -0.840009    2.86224  0.0000E+00  0.2716E-10  0.8167E-14  0.1000E-09  0.0000E+00  0.2460E+16
   -0.875010    3.00921  0.0000E+00  0.5642E-10  0.1659E-13  0.1000E-09  0.0000E+00  0.2125E+16
   -0.910011    3.15732  0.0000E+00  0.1164E-09  0.3348E-13  0.1000E-09  0.0000E+00  0.1772E+16
   -0.945012    3.30535  0.0000E+00  0.2377E-09  0.6691E-13  0.1224E-09  0.0000E+00  0.1415E+16
   -0.980013    3.45269  0.0000E+00  0.4828E-09  0.1330E-12  0.3241E-09  0.0000E+00  0.1062E+16
   -1.015014    3.59875  0.0000E+00  0.9817E-09  0.2647E-12  0.9495E-09  0.0000E+00  0.7210E+15
   -1.050015    3.74420  0.0000E+00  0.2002E-08  0.5289E-12  0.3551E-08  0.0000E+00  0.3845E+15
   -1.085015    3.88796  0.0000E+00  0.4026E-08  0.1044E-11  0.3720E-07  0.0000E+00  0.7132E+14
   -1.120015    4.01034  0.0000E+00  0.5541E-08  0.1449E-11  0.8428E-05  0.0000E+00 -0.1018E+13
   -1.155015    4.01291  0.0000E+00  0.6281E-08  0.1703E-11  0.8854E-05  0.0000E+00 -0.1075E+13
   -1.190015    4.01537  0.0000E+00  0.6918E-08  0.1998E-11  0.8864E-05  0.0000E+00 -0.1202E+13
   -1.225015    4.01790  0.0000E+00  0.7512E-08  0.2397E-11  0.8860E-05  0.0000E+00 -0.1479E+13
   -1.260014    4.02076  0.0000E+00  0.8078E-08  0.3011E-11  0.8717E-05  0.0000E+00 -0.2074E+13
   -1.295013    4.02441  0.0000E+00  0.8554E-08  0.4251E-11  0.7288E-05  0.0000E+00 -0.3759E+13
   -1.330011    4.03026  0.0000E+00  0.8276E-08  0.6493E-11  0.3506E-05  0.0000E+00 -0.8361E+13
   -1.365010    4.04108  0.0000E+00  0.6230E-08  0.1364E-10  0.6375E-06  0.0000E+00 -0.4760E+14
   -1.400008    4.08162  0.0000E+00  0.0000E+00  0.0000E+00  0.0000E+00  0.0000E+00  0.0000E+00
