 1 - depth, m
 2 - temperature, C
 3 - salinity, kg/kg
 4 - turbulent kinetic energy, m**2/s**2
 5 - dissipation rate, m**2/s**3
 6 - kinematic heat conductance, m**2/s
 7 - modulus of horizontal velocity, m/s
 8 - Richardson number, n/d
   -0.000000    9.61586  0.0000E+00  0.2017E-03  0.2122E-03  0.5036E-04  0.1511E+00  0.1555E-02
   -0.034998    9.65987  0.0000E+00  0.1126E-03  0.6037E-04  0.9109E-04  0.4888E-01 -0.5867E-02
   -0.069996    9.67056  0.0000E+00  0.7961E-04  0.2252E-04  0.1151E-03  0.3152E-01 -0.8912E-02
   -0.104994    9.67716  0.0000E+00  0.6295E-04  0.1135E-04  0.1229E-03  0.2507E-01 -0.2183E-01
   -0.139993    9.68131  0.0000E+00  0.5219E-04  0.6648E-05  0.1286E-03  0.2087E-01 -0.1208E-01
   -0.174992    9.68451  0.0000E+00  0.4449E-04  0.4091E-05  0.1365E-03  0.1761E-01 -0.1746E-01
   -0.209991    9.68726  0.0000E+00  0.3873E-04  0.2584E-05  0.1441E-03  0.1490E-01 -0.1730E-01
   -0.244991    9.68972  0.0000E+00  0.3425E-04  0.1672E-05  0.1504E-03  0.1261E-01 -0.2003E-01
   -0.279991    9.69204  0.0000E+00  0.3051E-04  0.1108E-05  0.1540E-03  0.1058E-01 -0.2477E-01
   -0.314991    9.69441  0.0000E+00  0.2707E-04  0.7533E-06  0.1633E-03  0.8645E-02 -0.2052E-01
   -0.349991    9.69655  0.0000E+00  0.2414E-04  0.5307E-06  0.1713E-03  0.7164E-02  0.8227E+02
   -0.384991    9.69854  0.0000E+00  0.2166E-04  0.3887E-06  0.1783E-03  0.5966E-02  0.3401E+01
   -0.419991    9.70041  0.0000E+00  0.1959E-04  0.2962E-06  0.1831E-03  0.4973E-02  0.7343E+01
   -0.454992    9.70225  0.0000E+00  0.1784E-04  0.2340E-06  0.1871E-03  0.4080E-02  0.7521E+02
   -0.489993    9.70407  0.0000E+00  0.1631E-04  0.1911E-06  0.1929E-03  0.3264E-02  0.2037E+02
   -0.524994    9.70583  0.0000E+00  0.1488E-04  0.1582E-06  0.2030E-03  0.2552E-02  0.1765E+02
   -0.559995    9.70741  0.0000E+00  0.1349E-04  0.1312E-06  0.2173E-03  0.2033E-02  0.1115E+03
   -0.594996    9.70875  0.0000E+00  0.1201E-04  0.1057E-06  0.2455E-03  0.1690E-02  0.8831E+03
   -0.629997    9.70980  0.0000E+00  0.1075E-04  0.8562E-07  0.2812E-03  0.1486E-02  0.4609E+03
   -0.664998    9.71081  0.0000E+00  0.9712E-05  0.7036E-07  0.3261E-03  0.1300E-02  0.1261E+04
   -0.699999    9.71171  0.0000E+00  0.8854E-05  0.5863E-07  0.3570E-03  0.1132E-02  0.4827E+03
   -0.735000    9.71255  0.0000E+00  0.8128E-05  0.4940E-07  0.3814E-03  0.9831E-03  0.9065E+03
   -0.770001    9.71332  0.0000E+00  0.7512E-05  0.4208E-07  0.4087E-03  0.8520E-03  0.9191E+02
   -0.805002    9.71404  0.0000E+00  0.6988E-05  0.3624E-07  0.4298E-03  0.7380E-03  0.5905E+02
   -0.840003    9.71471  0.0000E+00  0.6538E-05  0.3155E-07  0.4444E-03  0.6386E-03  0.3882E+02
   -0.875004    9.71536  0.0000E+00  0.6151E-05  0.2777E-07  0.4532E-03  0.5516E-03  0.4795E+02
   -0.910005    9.71599  0.0000E+00  0.5815E-05  0.2471E-07  0.4570E-03  0.4764E-03  0.6734E+02
   -0.945006    9.71662  0.0000E+00  0.5526E-05  0.2227E-07  0.4592E-03  0.4096E-03  0.8575E+02
   -0.980006    9.71725  0.0000E+00  0.5276E-05  0.2035E-07  0.4571E-03  0.3499E-03  0.2422E+03
   -1.015007    9.71789  0.0000E+00  0.5059E-05  0.1887E-07  0.4517E-03  0.2964E-03  0.1092E+03
   -1.050007    9.71854  0.0000E+00  0.4868E-05  0.1776E-07  0.4437E-03  0.2505E-03  0.1547E+03
   -1.085007    9.71921  0.0000E+00  0.4700E-05  0.1700E-07  0.4331E-03  0.2121E-03  0.2381E+03
   -1.120007    9.71989  0.0000E+00  0.4549E-05  0.1659E-07  0.4192E-03  0.1802E-03  0.1286E+04
   -1.155007    9.72061  0.0000E+00  0.4410E-05  0.1659E-07  0.4022E-03  0.1523E-03  0.4766E+03
   -1.190006    9.72139  0.0000E+00  0.4271E-05  0.1725E-07  0.3747E-03  0.1267E-03  0.6979E+03
   -1.225006    9.72228  0.0000E+00  0.4114E-05  0.1890E-07  0.3485E-03  0.1019E-03  0.1874E+04
   -1.260005    9.72328  0.0000E+00  0.3901E-05  0.2299E-07  0.2978E-03  0.8007E-04  0.1625E+04
   -1.295003    9.72476  0.0000E+00  0.3544E-05  0.3367E-07  0.2476E-03  0.5963E-04 -0.1338E+05
   -1.330002    9.72586  0.0000E+00  0.3030E-05  0.6569E-07  0.1529E-03  0.4940E-04  0.3594E+06
   -1.365000    9.73128  0.0000E+00  0.1992E-05  0.1581E-06  0.3732E-04  0.3451E-04 -0.2000E+09
   -1.399998    9.74523  0.0000E+00  0.0000E+00  0.0000E+00  0.0000E+00  0.4593E-04  0.0000E+00
