 1 - depth, m
 2 - temperature, C
 3 - salinity, kg/kg
 4 - turbulent kinetic energy, m**2/s**2
 5 - dissipation rate, m**2/s**3
 6 - kinematic heat conductance, m**2/s
 7 - modulus of horizontal velocity, m/s
 8 - Richardson number, n/d
   -0.000000   10.86728  0.0000E+00  0.1619E-03  0.1226E-03  0.5910E-04  0.1271E+00 -0.4987E-02
   -0.034998   10.90368  0.0000E+00  0.9237E-04  0.3812E-04  0.8951E-04  0.4323E-01 -0.3247E-01
   -0.069997   10.91184  0.0000E+00  0.6624E-04  0.1338E-04  0.1011E-03  0.2909E-01 -0.1365E-01
   -0.104995   10.91680  0.0000E+00  0.5301E-04  0.7215E-05  0.1097E-03  0.2332E-01 -0.7417E-01
   -0.139995   10.92020  0.0000E+00  0.4426E-04  0.4186E-05  0.1192E-03  0.1942E-01 -0.1472E-01
   -0.174994   10.92294  0.0000E+00  0.3792E-04  0.2538E-05  0.1289E-03  0.1637E-01 -0.1685E-01
   -0.209994   10.92535  0.0000E+00  0.3318E-04  0.1591E-05  0.1378E-03  0.1384E-01 -0.1946E-01
   -0.244994   10.92755  0.0000E+00  0.2943E-04  0.1027E-05  0.1450E-03  0.1168E-01 -0.2292E-01
   -0.279994   10.92958  0.0000E+00  0.2629E-04  0.6879E-06  0.1493E-03  0.9764E-02 -0.2627E-01
   -0.314994   10.93155  0.0000E+00  0.2337E-04  0.4780E-06  0.1587E-03  0.7975E-02  0.8585E+00
   -0.349994   10.93334  0.0000E+00  0.2086E-04  0.3470E-06  0.1666E-03  0.6574E-02  0.1453E+01
   -0.384995   10.93499  0.0000E+00  0.1872E-04  0.2622E-06  0.1735E-03  0.5437E-02  0.2222E+03
   -0.419996   10.93652  0.0000E+00  0.1693E-04  0.2054E-06  0.1783E-03  0.4493E-02  0.3590E+01
   -0.454997   10.93800  0.0000E+00  0.1540E-04  0.1656E-06  0.1821E-03  0.3654E-02  0.1422E+02
   -0.489998   10.93943  0.0000E+00  0.1408E-04  0.1369E-06  0.1870E-03  0.2896E-02  0.1454E+02
   -0.524999   10.94080  0.0000E+00  0.1283E-04  0.1142E-06  0.1984E-03  0.2234E-02  0.5301E+01
   -0.560001   10.94205  0.0000E+00  0.1162E-04  0.9492E-07  0.2175E-03  0.1750E-02  0.5239E+02
   -0.595002   10.94315  0.0000E+00  0.1034E-04  0.7654E-07  0.2647E-03  0.1431E-02  0.8571E+03
   -0.630004   10.94407  0.0000E+00  0.9249E-05  0.6213E-07  0.3169E-03  0.1242E-02  0.7976E+03
   -0.665005   10.94486  0.0000E+00  0.8363E-05  0.5118E-07  0.3594E-03  0.1074E-02 -0.2133E+03
   -0.700006   10.94556  0.0000E+00  0.7631E-05  0.4275E-07  0.3928E-03  0.9255E-03  0.4071E+02
   -0.735008   10.94619  0.0000E+00  0.7021E-05  0.3619E-07  0.4223E-03  0.7949E-03  0.1665E+06
   -0.770009   10.94676  0.0000E+00  0.6509E-05  0.3105E-07  0.4395E-03  0.6825E-03  0.9269E+02
   -0.805011   10.94729  0.0000E+00  0.6076E-05  0.2695E-07  0.4490E-03  0.5859E-03  0.3092E+02
   -0.840012   10.94780  0.0000E+00  0.5709E-05  0.2370E-07  0.4536E-03  0.5030E-03  0.4061E+02
   -0.875014   10.94830  0.0000E+00  0.5396E-05  0.2110E-07  0.4550E-03  0.4315E-03  0.4407E+02
   -0.910015   10.94879  0.0000E+00  0.5130E-05  0.1902E-07  0.4549E-03  0.3707E-03  0.4355E+02
   -0.945016   10.94927  0.0000E+00  0.4904E-05  0.1738E-07  0.4531E-03  0.3177E-03  0.5577E+02
   -0.980017   10.94976  0.0000E+00  0.4711E-05  0.1611E-07  0.4492E-03  0.2712E-03  0.7280E+02
   -1.015018   10.95025  0.0000E+00  0.4546E-05  0.1513E-07  0.4433E-03  0.2302E-03  0.9716E+02
   -1.050018   10.95074  0.0000E+00  0.4402E-05  0.1441E-07  0.4353E-03  0.1956E-03  0.1406E+03
   -1.085019   10.95125  0.0000E+00  0.4274E-05  0.1391E-07  0.4255E-03  0.1666E-03  0.2082E+03
   -1.120019   10.95177  0.0000E+00  0.4158E-05  0.1363E-07  0.4124E-03  0.1425E-03  0.3235E+03
   -1.155019   10.95230  0.0000E+00  0.4051E-05  0.1359E-07  0.3986E-03  0.1210E-03  0.4788E+03
   -1.190019   10.95286  0.0000E+00  0.3946E-05  0.1391E-07  0.3727E-03  0.1014E-03  0.7279E+03
   -1.225019   10.95348  0.0000E+00  0.3829E-05  0.1480E-07  0.3512E-03  0.8240E-04  0.1126E+04
   -1.260018   10.95415  0.0000E+00  0.3670E-05  0.1714E-07  0.2986E-03  0.6596E-04  0.5080E+03
   -1.295017   10.95517  0.0000E+00  0.3368E-05  0.2378E-07  0.2516E-03  0.5003E-04  0.5050E+04
   -1.330016   10.95603  0.0000E+00  0.2894E-05  0.4233E-07  0.1508E-03  0.4125E-04  0.1194E+06
   -1.365015   10.96005  0.0000E+00  0.1870E-05  0.1097E-06  0.3450E-04  0.2907E-04 -0.9199E+09
   -1.400013   10.96987  0.0000E+00  0.0000E+00  0.0000E+00  0.0000E+00  0.3552E-04  0.0000E+00
