 1 - depth, m
 2 - temperature, C
 3 - salinity, kg/kg
 4 - turbulent kinetic energy, m**2/s**2
 5 - dissipation rate, m**2/s**3
 6 - kinematic heat conductance, m**2/s
 7 - modulus of horizontal velocity, m/s
 8 - Richardson number, n/d
   -0.000000   19.74972  0.0000E+00  0.4867E-04  0.1190E-04  0.3225E-04  0.4890E-01 -0.4507E-01
   -0.034998   19.77101  0.0000E+00  0.3053E-04  0.3500E-05  0.4931E-04  0.2056E-01 -0.3465E-01
   -0.069996   19.77635  0.0000E+00  0.2375E-04  0.1623E-05  0.6296E-04  0.1518E-01 -0.5443E-01
   -0.104995   19.77973  0.0000E+00  0.1964E-04  0.8837E-06  0.8321E-04  0.1210E-01  0.1446E+02
   -0.139994   19.78221  0.0000E+00  0.1680E-04  0.5261E-06  0.1035E-03  0.9875E-02  0.1097E+02
   -0.174993   19.78422  0.0000E+00  0.1472E-04  0.3375E-06  0.1228E-03  0.8141E-02  0.1684E+01
   -0.209993   19.78593  0.0000E+00  0.1314E-04  0.2314E-06  0.1434E-03  0.6735E-02  0.1528E+02
   -0.244992   19.78741  0.0000E+00  0.1188E-04  0.1677E-06  0.1632E-03  0.5559E-02  0.1338E+02
   -0.279992   19.78874  0.0000E+00  0.1080E-04  0.1263E-06  0.1827E-03  0.4550E-02  0.7159E+01
   -0.314992   19.78992  0.0000E+00  0.9810E-05  0.9710E-07  0.2224E-03  0.3655E-02  0.6182E+02
   -0.349993   19.79089  0.0000E+00  0.8956E-05  0.7632E-07  0.2580E-03  0.2956E-02  0.3200E+02
   -0.384993   19.79169  0.0000E+00  0.8237E-05  0.6132E-07  0.2947E-03  0.2395E-02  0.1269E+03
   -0.419994   19.79238  0.0000E+00  0.7642E-05  0.5041E-07  0.3242E-03  0.1939E-02  0.1846E+02
   -0.454995   19.79299  0.0000E+00  0.7141E-05  0.4234E-07  0.3451E-03  0.1543E-02  0.1507E+02
   -0.489996   19.79356  0.0000E+00  0.6707E-05  0.3624E-07  0.3608E-03  0.1189E-02  0.2661E+01
   -0.524997   19.79409  0.0000E+00  0.6292E-05  0.3121E-07  0.3883E-03  0.8809E-03  0.1247E+03
   -0.559998   19.79454  0.0000E+00  0.5890E-05  0.2685E-07  0.3984E-03  0.6591E-03  0.3011E+01
   -0.594999   19.79488  0.0000E+00  0.5463E-05  0.2265E-07  0.3858E-03  0.5203E-03  0.3538E+02
   -0.630001   19.79509  0.0000E+00  0.5108E-05  0.1936E-07  0.3886E-03  0.4416E-03  0.8512E+02
   -0.665002   19.79530  0.0000E+00  0.4830E-05  0.1689E-07  0.4128E-03  0.3762E-03  0.9468E+01
   -0.700003   19.79552  0.0000E+00  0.4611E-05  0.1503E-07  0.4311E-03  0.3202E-03  0.1576E+02
   -0.735004   19.79574  0.0000E+00  0.4438E-05  0.1359E-07  0.4567E-03  0.2733E-03  0.2302E+02
   -0.770006   19.79596  0.0000E+00  0.4299E-05  0.1249E-07  0.4652E-03  0.2345E-03  0.6472E+03
   -0.805007   19.79619  0.0000E+00  0.4190E-05  0.1165E-07  0.4889E-03  0.2024E-03  0.3821E+03
   -0.840008   19.79641  0.0000E+00  0.4105E-05  0.1103E-07  0.4949E-03  0.1765E-03  0.6190E+02
   -0.875009   19.79663  0.0000E+00  0.4036E-05  0.1055E-07  0.4972E-03  0.1551E-03  0.4110E+02
   -0.910010   19.79686  0.0000E+00  0.3978E-05  0.1018E-07  0.4969E-03  0.1369E-03  0.2546E+01
   -0.945011   19.79709  0.0000E+00  0.3928E-05  0.9910E-08  0.4949E-03  0.1207E-03  0.3412E+01
   -0.980012   19.79734  0.0000E+00  0.3884E-05  0.9722E-08  0.4908E-03  0.1060E-03  0.4498E+01
   -1.015013   19.79760  0.0000E+00  0.3842E-05  0.9615E-08  0.4844E-03  0.9255E-04  0.5998E+01
   -1.050013   19.79787  0.0000E+00  0.3802E-05  0.9589E-08  0.4745E-03  0.8050E-04  0.8414E+01
   -1.085014   19.79816  0.0000E+00  0.3760E-05  0.9659E-08  0.4614E-03  0.6970E-04  0.1222E+02
   -1.120014   19.79846  0.0000E+00  0.3716E-05  0.9848E-08  0.4425E-03  0.6010E-04  0.1848E+02
   -1.155014   19.79879  0.0000E+00  0.3668E-05  0.1019E-07  0.4228E-03  0.5116E-04  0.2716E+02
   -1.190014   19.79914  0.0000E+00  0.3613E-05  0.1082E-07  0.3906E-03  0.4286E-04 -0.1075E+03
   -1.225013   19.79956  0.0000E+00  0.3538E-05  0.1198E-07  0.3625E-03  0.3480E-04  0.3951E+02
   -1.260012   19.80002  0.0000E+00  0.3418E-05  0.1451E-07  0.2935E-03  0.2759E-04 -0.6111E+04
   -1.295011   19.80068  0.0000E+00  0.3180E-05  0.2088E-07  0.2688E-03  0.2093E-04  0.2440E+04
   -1.330010   19.80122  0.0000E+00  0.2762E-05  0.3964E-07  0.1241E-03  0.1735E-04  0.2794E+06
   -1.365008   19.80424  0.0000E+00  0.1793E-05  0.1041E-06  0.3980E-04  0.1148E-04 -0.1735E+08
   -1.400006   19.81011  0.0000E+00  0.0000E+00  0.0000E+00  0.0000E+00  0.1402E-04  0.0000E+00
