 1 - depth, m
 2 - temperature, C
 3 - salinity, kg/kg
 4 - turbulent kinetic energy, m**2/s**2
 5 - dissipation rate, m**2/s**3
 6 - kinematic heat conductance, m**2/s
 7 - modulus of horizontal velocity, m/s
 8 - Richardson number, n/d
   -0.000000    0.86622  0.0000E+00  0.2426E-03  0.2613E-03  0.6106E-04  0.1585E+00  0.4081E-02
   -0.034998    0.90313  0.0000E+00  0.1331E-03  0.7990E-04  0.1142E-03  0.5013E-01  0.1075E-01
   -0.069996    0.90956  0.0000E+00  0.9252E-04  0.2425E-04  0.1271E-03  0.3315E-01  0.3882E-02
   -0.104994    0.91410  0.0000E+00  0.7275E-04  0.1242E-04  0.1289E-03  0.2655E-01  0.6999E-02
   -0.139993    0.91737  0.0000E+00  0.5968E-04  0.7066E-05  0.1314E-03  0.2212E-01  0.6186E-02
   -0.174992    0.92001  0.0000E+00  0.5025E-04  0.4214E-05  0.1364E-03  0.1868E-01  0.9170E-02
   -0.209992    0.92235  0.0000E+00  0.4312E-04  0.2608E-05  0.1407E-03  0.1585E-01  0.1157E-01
   -0.244991    0.92451  0.0000E+00  0.3759E-04  0.1668E-05  0.1437E-03  0.1343E-01  0.1058E-01
   -0.279991    0.92657  0.0000E+00  0.3304E-04  0.1119E-05  0.1430E-03  0.1128E-01  0.1451E-01
   -0.314991    0.92865  0.0000E+00  0.2891E-04  0.7816E-06  0.1474E-03  0.9235E-02  0.2905E-01
   -0.349991    0.93063  0.0000E+00  0.2539E-04  0.5673E-06  0.1490E-03  0.7640E-02  0.9945E-01
   -0.384992    0.93258  0.0000E+00  0.2243E-04  0.4260E-06  0.1490E-03  0.6342E-02  0.5284E+00
   -0.419992    0.93449  0.0000E+00  0.1996E-04  0.3297E-06  0.1456E-03  0.5263E-02  0.3110E+01
   -0.454993    0.93651  0.0000E+00  0.1784E-04  0.2619E-06  0.1406E-03  0.4284E-02  0.3998E+02
   -0.489994    0.93881  0.0000E+00  0.1597E-04  0.2125E-06  0.1363E-03  0.3375E-02  0.1025E+04
   -0.524995    0.94145  0.0000E+00  0.1421E-04  0.1734E-06  0.1385E-03  0.2568E-02  0.8644E+07
   -0.559996    0.94362  0.0000E+00  0.1254E-04  0.1413E-06  0.1395E-03  0.1998E-02  0.2811E+08
   -0.594997    0.94547  0.0000E+00  0.1079E-04  0.1113E-06  0.1355E-03  0.1639E-02 -0.4436E+07
   -0.629998    0.94702  0.0000E+00  0.9245E-05  0.8735E-07  0.1248E-03  0.1441E-02  0.3245E+09
   -0.664999    0.94891  0.0000E+00  0.7934E-05  0.6889E-07  0.1144E-03  0.1254E-02  0.1654E+09
   -0.700000    0.95157  0.0000E+00  0.6818E-05  0.5455E-07  0.1045E-03  0.1078E-02  0.2254E+09
   -0.735001    0.95488  0.0000E+00  0.5858E-05  0.4329E-07  0.9506E-04  0.9185E-03  0.2784E+08
   -0.770002    0.95828  0.0000E+00  0.5027E-05  0.3438E-07  0.8590E-04  0.7758E-03  0.3653E+09
   -0.805003    0.96305  0.0000E+00  0.4303E-05  0.2729E-07  0.7694E-04  0.6505E-03  0.1373E+09
   -0.840004    0.97028  0.0000E+00  0.3675E-05  0.2166E-07  0.6831E-04  0.5405E-03  0.3119E+10
   -0.875005    0.97958  0.0000E+00  0.3130E-05  0.1718E-07  0.6014E-04  0.4448E-03  0.1743E+12
   -0.910006    0.98959  0.0000E+00  0.2654E-05  0.1361E-07  0.5177E-04  0.3638E-03  0.9905E+13
   -0.945007    1.00213  0.0000E+00  0.2242E-05  0.1078E-07  0.4339E-04  0.2926E-03  0.1370E+15
   -0.980008    1.01971  0.0000E+00  0.1884E-05  0.8545E-08  0.3579E-04  0.2296E-03  0.1936E+15
   -1.015008    1.04338  0.0000E+00  0.1574E-05  0.6765E-08  0.2930E-04  0.1735E-03  0.2115E+15
   -1.050009    1.06524  0.0000E+00  0.1306E-05  0.5342E-08  0.2334E-04  0.1278E-03  0.2642E+15
   -1.085009    1.08262  0.0000E+00  0.1069E-05  0.4191E-08  0.1748E-04  0.9206E-04  0.6164E+15
   -1.120009    1.11551  0.0000E+00  0.8541E-06  0.3239E-08  0.1177E-04  0.6565E-04  0.1297E+16
   -1.155009    1.18229  0.0000E+00  0.6536E-06  0.2427E-08  0.6975E-05  0.4394E-04  0.2192E+16
   -1.190008    1.31118  0.0000E+00  0.4673E-06  0.1717E-08  0.3570E-05  0.2569E-04  0.3225E+16
   -1.225008    1.54695  0.0000E+00  0.3090E-06  0.1124E-08  0.1344E-05  0.1150E-04  0.4161E+16
   -1.260007    1.88310  0.0000E+00  0.1781E-06  0.6438E-09  0.2978E-06  0.3645E-05  0.4301E+16
   -1.295006    2.28629  0.0000E+00  0.7130E-07  0.2606E-09  0.5239E-07  0.6519E-06  0.3446E+16
   -1.330004    2.64738  0.0000E+00  0.1774E-07  0.6787E-10  0.9784E-08  0.9646E-07  0.3589E+16
   -1.365002    3.05042  0.0000E+00  0.3162E-08  0.1935E-10  0.4257E-08  0.5926E-08  0.1419E+16
   -1.400000    3.34941  0.0000E+00  0.0000E+00  0.0000E+00  0.0000E+00  0.5912E-08  0.0000E+00
