 1 - depth, m
 2 - temperature, C
 3 - salinity, kg/kg
 4 - turbulent kinetic energy, m**2/s**2
 5 - dissipation rate, m**2/s**3
 6 - kinematic heat conductance, m**2/s
 7 - modulus of horizontal velocity, m/s
 8 - Richardson number, n/d
   -0.000000    0.00000  0.0000E+00  0.4702E-13  0.1132E-15  0.1000E-09  0.0000E+00  0.9447E+16
   -0.034998    0.14451  0.0000E+00  0.4702E-13  0.1132E-15  0.1000E-09  0.0000E+00  0.9187E+16
   -0.069996    0.29084  0.0000E+00  0.4702E-13  0.1132E-15  0.1000E-09  0.0000E+00  0.8919E+16
   -0.104995    0.43903  0.0000E+00  0.4702E-13  0.1132E-15  0.1000E-09  0.0000E+00  0.8540E+16
   -0.139993    0.58736  0.0000E+00  0.4702E-13  0.1132E-15  0.1000E-09  0.0000E+00  0.8106E+16
   -0.174992    0.73479  0.0000E+00  0.4702E-13  0.1132E-15  0.1000E-09  0.0000E+00  0.7677E+16
   -0.209992    0.88122  0.0000E+00  0.4702E-13  0.1132E-15  0.1000E-09  0.0000E+00  0.7253E+16
   -0.244991    1.02658  0.0000E+00  0.4702E-13  0.1132E-15  0.1000E-09  0.0000E+00  0.6834E+16
   -0.279991    1.17075  0.0000E+00  0.5632E-13  0.1132E-15  0.1000E-09  0.0000E+00  0.6421E+16
   -0.314991    1.31365  0.0000E+00  0.1647E-12  0.1134E-15  0.1000E-09  0.0000E+00  0.6040E+16
   -0.349991    1.45577  0.0000E+00  0.4717E-12  0.1358E-15  0.1000E-09  0.0000E+00  0.5664E+16
   -0.384992    1.59704  0.0000E+00  0.1029E-11  0.2239E-15  0.1000E-09  0.0000E+00  0.5290E+16
   -0.419992    1.73733  0.0000E+00  0.1996E-11  0.3948E-15  0.1000E-09  0.0000E+00  0.4930E+16
   -0.454993    1.87678  0.0000E+00  0.3683E-11  0.6989E-15  0.1000E-09  0.0000E+00  0.4594E+16
   -0.489994    2.01590  0.0000E+00  0.6651E-11  0.1231E-14  0.1000E-09  0.0000E+00  0.4293E+16
   -0.524995    2.15577  0.0000E+00  0.1244E-10  0.2257E-14  0.1000E-09  0.0000E+00  0.4145E+16
   -0.559996    2.30215  0.0000E+00  0.2430E-10  0.4330E-14  0.1000E-09  0.0000E+00  0.4075E+16
   -0.594997    2.46010  0.0000E+00  0.5024E-10  0.8798E-14  0.1000E-09  0.0000E+00  0.3944E+16
   -0.629998    2.63087  0.0000E+00  0.9391E-10  0.1620E-13  0.1000E-09  0.0000E+00  0.3426E+16
   -0.664999    2.79946  0.0000E+00  0.1671E-09  0.2840E-13  0.1000E-09  0.0000E+00  0.2924E+16
   -0.700000    2.96563  0.0000E+00  0.2919E-09  0.4887E-13  0.1000E-09  0.0000E+00  0.2444E+16
   -0.735001    3.12939  0.0000E+00  0.5078E-09  0.8368E-13  0.1168E-09  0.0000E+00  0.1997E+16
   -0.770003    3.29170  0.0000E+00  0.8808E-09  0.1429E-12  0.2346E-09  0.0000E+00  0.1580E+16
   -0.805004    3.45467  0.0000E+00  0.1524E-08  0.2434E-12  0.5444E-09  0.0000E+00  0.1159E+16
   -0.840005    3.61791  0.0000E+00  0.2626E-08  0.4129E-12  0.1447E-08  0.0000E+00  0.7350E+15
   -0.875006    3.78094  0.0000E+00  0.4504E-08  0.6975E-12  0.5749E-08  0.0000E+00  0.3105E+15
   -0.910007    3.94031  0.0000E+00  0.6899E-08  0.1069E-11  0.1866E-05  0.0000E+00  0.1924E+14
   -0.945008    4.00408  0.0000E+00  0.7690E-08  0.1200E-11  0.1911E-04  0.0000E+00 -0.3244E+12
   -0.980008    4.00540  0.0000E+00  0.8107E-08  0.1281E-11  0.1971E-04  0.0000E+00 -0.3414E+12
   -1.015009    4.00664  0.0000E+00  0.8476E-08  0.1366E-11  0.2035E-04  0.0000E+00 -0.3594E+12
   -1.050009    4.00783  0.0000E+00  0.8823E-08  0.1462E-11  0.2072E-04  0.0000E+00 -0.3832E+12
   -1.085009    4.00901  0.0000E+00  0.9149E-08  0.1574E-11  0.2087E-04  0.0000E+00 -0.4177E+12
   -1.120009    4.01022  0.0000E+00  0.9449E-08  0.1705E-11  0.2049E-04  0.0000E+00 -0.4540E+12
   -1.155009    4.01146  0.0000E+00  0.9721E-08  0.1862E-11  0.1977E-04  0.0000E+00 -0.5028E+12
   -1.190009    4.01277  0.0000E+00  0.9970E-08  0.2065E-11  0.1867E-04  0.0000E+00 -0.5792E+12
   -1.225008    4.01418  0.0000E+00  0.1021E-07  0.2359E-11  0.1742E-04  0.0000E+00 -0.7380E+12
   -1.260007    4.01588  0.0000E+00  0.1042E-07  0.2828E-11  0.1576E-04  0.0000E+00 -0.1080E+13
   -1.295006    4.01819  0.0000E+00  0.1052E-07  0.3919E-11  0.1209E-04  0.0000E+00 -0.2087E+13
   -1.330005    4.02220  0.0000E+00  0.9968E-08  0.6433E-11  0.4841E-05  0.0000E+00 -0.5571E+13
   -1.365003    4.03108  0.0000E+00  0.7368E-08  0.1576E-10  0.7244E-06  0.0000E+00 -0.4225E+14
   -1.400001    4.07235  0.0000E+00  0.0000E+00  0.0000E+00  0.0000E+00  0.0000E+00  0.0000E+00
