 1 - depth, m
 2 - temperature, C
 3 - salinity, kg/kg
 4 - turbulent kinetic energy, m**2/s**2
 5 - dissipation rate, m**2/s**3
 6 - kinematic heat conductance, m**2/s
 7 - modulus of horizontal velocity, m/s
 8 - Richardson number, n/d
   -0.000000    0.00000  0.0000E+00  0.4702E-13  0.1132E-15  0.1000E-09  0.0000E+00  0.8116E+16
   -0.034998    0.12381  0.0000E+00  0.4702E-13  0.1132E-15  0.1000E-09  0.0000E+00  0.7973E+16
   -0.069996    0.24970  0.0000E+00  0.4702E-13  0.1132E-15  0.1000E-09  0.0000E+00  0.7819E+16
   -0.104995    0.37769  0.0000E+00  0.4702E-13  0.1132E-15  0.1000E-09  0.0000E+00  0.7566E+16
   -0.139994    0.50630  0.0000E+00  0.4702E-13  0.1132E-15  0.1000E-09  0.0000E+00  0.7259E+16
   -0.174993    0.63462  0.0000E+00  0.4702E-13  0.1132E-15  0.1000E-09  0.0000E+00  0.6952E+16
   -0.209992    0.76258  0.0000E+00  0.4702E-13  0.1132E-15  0.1000E-09  0.0000E+00  0.6643E+16
   -0.244992    0.89007  0.0000E+00  0.4702E-13  0.1132E-15  0.1000E-09  0.0000E+00  0.6335E+16
   -0.279992    1.01701  0.0000E+00  0.4702E-13  0.1132E-15  0.1000E-09  0.0000E+00  0.6028E+16
   -0.314992    1.14334  0.0000E+00  0.4702E-13  0.1132E-15  0.1000E-09  0.0000E+00  0.5753E+16
   -0.349992    1.26964  0.0000E+00  0.4702E-13  0.1132E-15  0.1000E-09  0.0000E+00  0.5479E+16
   -0.384993    1.39592  0.0000E+00  0.4702E-13  0.1132E-15  0.1000E-09  0.0000E+00  0.5204E+16
   -0.419994    1.52212  0.0000E+00  0.5666E-13  0.1132E-15  0.1000E-09  0.0000E+00  0.4928E+16
   -0.454994    1.64818  0.0000E+00  0.2571E-12  0.1132E-15  0.1000E-09  0.0000E+00  0.4665E+16
   -0.489995    1.77438  0.0000E+00  0.6600E-12  0.1847E-15  0.1000E-09  0.0000E+00  0.4438E+16
   -0.524996    1.90178  0.0000E+00  0.1477E-11  0.3581E-15  0.1000E-09  0.0000E+00  0.4374E+16
   -0.559997    2.03578  0.0000E+00  0.3226E-11  0.7385E-15  0.1000E-09  0.0000E+00  0.4411E+16
   -0.594999    2.18130  0.0000E+00  0.7250E-11  0.1608E-14  0.1000E-09  0.0000E+00  0.4402E+16
   -0.630000    2.33968  0.0000E+00  0.1443E-10  0.3136E-14  0.1000E-09  0.0000E+00  0.3955E+16
   -0.665001    2.49669  0.0000E+00  0.2726E-10  0.5811E-14  0.1000E-09  0.0000E+00  0.3517E+16
   -0.700002    2.65216  0.0000E+00  0.5056E-10  0.1058E-13  0.1000E-09  0.0000E+00  0.3094E+16
   -0.735004    2.80616  0.0000E+00  0.9332E-10  0.1916E-13  0.1000E-09  0.0000E+00  0.2698E+16
   -0.770005    2.95954  0.0000E+00  0.1717E-09  0.3458E-13  0.1000E-09  0.0000E+00  0.2332E+16
   -0.805006    3.11399  0.0000E+00  0.3148E-09  0.6224E-13  0.1000E-09  0.0000E+00  0.1957E+16
   -0.840007    3.26920  0.0000E+00  0.5745E-09  0.1115E-12  0.1833E-09  0.0000E+00  0.1576E+16
   -0.875008    3.42496  0.0000E+00  0.1045E-08  0.1992E-12  0.4327E-09  0.0000E+00  0.1192E+16
   -0.910009    3.58125  0.0000E+00  0.1893E-08  0.3541E-12  0.1148E-08  0.0000E+00  0.7991E+15
   -0.945010    3.73614  0.0000E+00  0.3396E-08  0.6243E-12  0.3902E-08  0.0000E+00  0.4141E+15
   -0.980011    3.88697  0.0000E+00  0.5973E-08  0.1081E-11  0.3780E-07  0.0000E+00  0.7366E+14
   -1.015012    4.00814  0.0000E+00  0.7054E-08  0.1285E-11  0.1565E-04  0.0000E+00 -0.4855E+12
   -1.050012    4.00952  0.0000E+00  0.7582E-08  0.1405E-11  0.1686E-04  0.0000E+00 -0.4822E+12
   -1.085012    4.01081  0.0000E+00  0.8051E-08  0.1536E-11  0.1756E-04  0.0000E+00 -0.5051E+12
   -1.120013    4.01209  0.0000E+00  0.8472E-08  0.1685E-11  0.1726E-04  0.0000E+00 -0.5437E+12
   -1.155013    4.01341  0.0000E+00  0.8853E-08  0.1865E-11  0.1617E-04  0.0000E+00 -0.6145E+12
   -1.190012    4.01482  0.0000E+00  0.9197E-08  0.2093E-11  0.1486E-04  0.0000E+00 -0.7218E+12
   -1.225012    4.01639  0.0000E+00  0.9525E-08  0.2417E-11  0.1395E-04  0.0000E+00 -0.9157E+12
   -1.260011    4.01827  0.0000E+00  0.9824E-08  0.2936E-11  0.1300E-04  0.0000E+00 -0.1313E+13
   -1.295010    4.02080  0.0000E+00  0.9983E-08  0.4071E-11  0.1009E-04  0.0000E+00 -0.2499E+13
   -1.330008    4.02515  0.0000E+00  0.9438E-08  0.6435E-11  0.4372E-05  0.0000E+00 -0.6128E+13
   -1.365007    4.03418  0.0000E+00  0.6937E-08  0.1483E-10  0.6878E-06  0.0000E+00 -0.4242E+14
   -1.400005    4.07413  0.0000E+00  0.0000E+00  0.0000E+00  0.0000E+00  0.0000E+00  0.0000E+00
