 1 - depth, m
 2 - temperature, C
 3 - salinity, kg/kg
 4 - turbulent kinetic energy, m**2/s**2
 5 - dissipation rate, m**2/s**3
 6 - kinematic heat conductance, m**2/s
 7 - modulus of horizontal velocity, m/s
 8 - Richardson number, n/d
   -0.000000    0.00000  0.0000E+00  0.2377E-11  0.8342E-15  0.1000E-09  0.0000E+00  0.1617E+17
   -0.034998    0.25093  0.0000E+00  0.3736E-11  0.7807E-15  0.1000E-09  0.0000E+00  0.1519E+17
   -0.069996    0.50430  0.0000E+00  0.6382E-11  0.9709E-15  0.1000E-09  0.0000E+00  0.1416E+17
   -0.104994    0.75952  0.0000E+00  0.1064E-10  0.1386E-14  0.1000E-09  0.0000E+00  0.1294E+17
   -0.139993    1.01281  0.0000E+00  0.1720E-10  0.2078E-14  0.1000E-09  0.0000E+00  0.1163E+17
   -0.174992    1.26168  0.0000E+00  0.2721E-10  0.3161E-14  0.1000E-09  0.0000E+00  0.1037E+17
   -0.209992    1.50548  0.0000E+00  0.4247E-10  0.4818E-14  0.1000E-09  0.0000E+00  0.9151E+16
   -0.244991    1.74360  0.0000E+00  0.6574E-10  0.7331E-14  0.1000E-09  0.0000E+00  0.7995E+16
   -0.279991    1.97552  0.0000E+00  0.1012E-09  0.1113E-13  0.1000E-09  0.0000E+00  0.6906E+16
   -0.314991    2.20081  0.0000E+00  0.1561E-09  0.1695E-13  0.1000E-09  0.0000E+00  0.5876E+16
   -0.349991    2.41862  0.0000E+00  0.2421E-09  0.2598E-13  0.1000E-09  0.0000E+00  0.4917E+16
   -0.384991    2.62822  0.0000E+00  0.3763E-09  0.3992E-13  0.1000E-09  0.0000E+00  0.4033E+16
   -0.419992    2.82883  0.0000E+00  0.5838E-09  0.6129E-13  0.1000E-09  0.0000E+00  0.3271E+16
   -0.454993    3.02239  0.0000E+00  0.9038E-09  0.9393E-13  0.1084E-09  0.0000E+00  0.2604E+16
   -0.489993    3.21089  0.0000E+00  0.1398E-08  0.1439E-12  0.1876E-09  0.0000E+00  0.1991E+16
   -0.524994    3.39487  0.0000E+00  0.2245E-08  0.2288E-12  0.4103E-09  0.0000E+00  0.1445E+16
   -0.559995    3.57815  0.0000E+00  0.3782E-08  0.3816E-12  0.1084E-08  0.0000E+00  0.9084E+15
   -0.594996    3.76114  0.0000E+00  0.6760E-08  0.6758E-12  0.4832E-08  0.0000E+00  0.3690E+15
   -0.629997    3.93693  0.0000E+00  0.9544E-08  0.9671E-12  0.9623E-05  0.0000E+00  0.3404E+14
   -0.664998    4.00042  0.0000E+00  0.9987E-08  0.1016E-11  0.3494E-04  0.0000E+00 -0.1340E+12
   -0.700000    4.00120  0.0000E+00  0.1026E-07  0.1050E-11  0.3561E-04  0.0000E+00 -0.1394E+12
   -0.735001    4.00191  0.0000E+00  0.1053E-07  0.1087E-11  0.3674E-04  0.0000E+00 -0.1424E+12
   -0.770002    4.00257  0.0000E+00  0.1079E-07  0.1127E-11  0.3782E-04  0.0000E+00 -0.1489E+12
   -0.805003    4.00322  0.0000E+00  0.1104E-07  0.1170E-11  0.3854E-04  0.0000E+00 -0.1562E+12
   -0.840004    4.00386  0.0000E+00  0.1128E-07  0.1217E-11  0.3888E-04  0.0000E+00 -0.1650E+12
   -0.875005    4.00450  0.0000E+00  0.1151E-07  0.1268E-11  0.3900E-04  0.0000E+00 -0.1754E+12
   -0.910006    4.00515  0.0000E+00  0.1174E-07  0.1325E-11  0.3887E-04  0.0000E+00 -0.1859E+12
   -0.945007    4.00582  0.0000E+00  0.1196E-07  0.1387E-11  0.3858E-04  0.0000E+00 -0.1971E+12
   -0.980007    4.00650  0.0000E+00  0.1216E-07  0.1455E-11  0.3811E-04  0.0000E+00 -0.2101E+12
   -1.015008    4.00719  0.0000E+00  0.1236E-07  0.1533E-11  0.3751E-04  0.0000E+00 -0.2286E+12
   -1.050008    4.00792  0.0000E+00  0.1255E-07  0.1624E-11  0.3667E-04  0.0000E+00 -0.2520E+12
   -1.085008    4.00869  0.0000E+00  0.1273E-07  0.1732E-11  0.3561E-04  0.0000E+00 -0.2788E+12
   -1.120008    4.00951  0.0000E+00  0.1290E-07  0.1861E-11  0.3417E-04  0.0000E+00 -0.3058E+12
   -1.155008    4.01037  0.0000E+00  0.1305E-07  0.2016E-11  0.3244E-04  0.0000E+00 -0.3396E+12
   -1.190008    4.01129  0.0000E+00  0.1317E-07  0.2211E-11  0.3031E-04  0.0000E+00 -0.3893E+12
   -1.225007    4.01231  0.0000E+00  0.1328E-07  0.2487E-11  0.2780E-04  0.0000E+00 -0.4920E+12
   -1.260006    4.01353  0.0000E+00  0.1335E-07  0.2948E-11  0.2429E-04  0.0000E+00 -0.7208E+12
   -1.295005    4.01522  0.0000E+00  0.1330E-07  0.4085E-11  0.1839E-04  0.0000E+00 -0.1368E+13
   -1.330003    4.01818  0.0000E+00  0.1265E-07  0.7058E-11  0.6876E-05  0.0000E+00 -0.4094E+13
   -1.365001    4.02569  0.0000E+00  0.9437E-08  0.2037E-10  0.8856E-06  0.0000E+00 -0.4107E+14
   -1.399999    4.06882  0.0000E+00  0.0000E+00  0.0000E+00  0.0000E+00  0.0000E+00  0.0000E+00
