 1 - depth, m
 2 - temperature, C
 3 - salinity, kg/kg
 4 - turbulent kinetic energy, m**2/s**2
 5 - dissipation rate, m**2/s**3
 6 - kinematic heat conductance, m**2/s
 7 - modulus of horizontal velocity, m/s
 8 - Richardson number, n/d
   -0.000000    9.39708  0.0000E+00  0.5910E-04  0.1326E-04  0.3786E-04  0.6050E-01 -0.2444E-01
   -0.034998    9.43209  0.0000E+00  0.3574E-04  0.3843E-05  0.4996E-04  0.2440E-01 -0.4828E-01
   -0.069996    9.43995  0.0000E+00  0.2747E-04  0.1759E-05  0.6025E-04  0.1818E-01 -0.1364E-01
   -0.104995    9.44547  0.0000E+00  0.2239E-04  0.9403E-06  0.7102E-04  0.1456E-01 -0.2102E-01
   -0.139994    9.45007  0.0000E+00  0.1887E-04  0.5574E-06  0.8148E-04  0.1189E-01 -0.2940E-01
   -0.174993    9.45415  0.0000E+00  0.1631E-04  0.3585E-06  0.9128E-04  0.9773E-02 -0.3918E-01
   -0.209992    9.45787  0.0000E+00  0.1437E-04  0.2464E-06  0.1003E-03  0.8041E-02 -0.5013E-01
   -0.244992    9.46134  0.0000E+00  0.1282E-04  0.1783E-06  0.1084E-03  0.6586E-02 -0.6229E-01
   -0.279992    9.46461  0.0000E+00  0.1149E-04  0.1335E-06  0.1151E-03  0.5332E-02 -0.7464E-01
   -0.314992    9.46777  0.0000E+00  0.1024E-04  0.1013E-06  0.1257E-03  0.4218E-02 -0.1124E+00
   -0.349992    9.47068  0.0000E+00  0.9162E-05  0.7838E-07  0.1370E-03  0.3349E-02 -0.1534E+00
   -0.384992    9.47335  0.0000E+00  0.8267E-05  0.6191E-07  0.1618E-03  0.2665E-02  0.7832E+01
   -0.419993    9.47570  0.0000E+00  0.7559E-05  0.5036E-07  0.2634E-03  0.2120E-02  0.3927E+03
   -0.454994    9.47744  0.0000E+00  0.6996E-05  0.4213E-07  0.3122E-03  0.1681E-02  0.7414E+02
   -0.489995    9.47882  0.0000E+00  0.6518E-05  0.3594E-07  0.3439E-03  0.1291E-02  0.7527E+02
   -0.524996    9.48001  0.0000E+00  0.6071E-05  0.3082E-07  0.3722E-03  0.9502E-03  0.1118E+03
   -0.559997    9.48100  0.0000E+00  0.5651E-05  0.2643E-07  0.3908E-03  0.7041E-03  0.4811E+01
   -0.594998    9.48181  0.0000E+00  0.5251E-05  0.2250E-07  0.3992E-03  0.5524E-03  0.4543E+00
   -0.629999    9.48248  0.0000E+00  0.4958E-05  0.1971E-07  0.4064E-03  0.4752E-03  0.4443E+00
   -0.665000    9.48314  0.0000E+00  0.4732E-05  0.1761E-07  0.4111E-03  0.4154E-03  0.4628E+00
   -0.700001    9.48381  0.0000E+00  0.4546E-05  0.1591E-07  0.4170E-03  0.3618E-03  0.5149E+00
   -0.735003    9.48449  0.0000E+00  0.4392E-05  0.1453E-07  0.4236E-03  0.3146E-03  0.5717E+00
   -0.770004    9.48516  0.0000E+00  0.4266E-05  0.1342E-07  0.4304E-03  0.2739E-03  0.6374E+00
   -0.805005    9.48584  0.0000E+00  0.4161E-05  0.1252E-07  0.4369E-03  0.2392E-03  0.7254E+00
   -0.840006    9.48652  0.0000E+00  0.4076E-05  0.1180E-07  0.4428E-03  0.2094E-03  0.8390E+00
   -0.875007    9.48721  0.0000E+00  0.4004E-05  0.1122E-07  0.4477E-03  0.1837E-03  0.9862E+00
   -0.910008    9.48790  0.0000E+00  0.3944E-05  0.1076E-07  0.4513E-03  0.1616E-03  0.1195E+01
   -0.945009    9.48861  0.0000E+00  0.3892E-05  0.1040E-07  0.4533E-03  0.1420E-03  0.1447E+01
   -0.980010    9.48933  0.0000E+00  0.3847E-05  0.1013E-07  0.4533E-03  0.1242E-03  0.1766E+01
   -1.015010    9.49008  0.0000E+00  0.3805E-05  0.9949E-08  0.4511E-03  0.1081E-03  0.2185E+01
   -1.050011    9.49085  0.0000E+00  0.3765E-05  0.9843E-08  0.4458E-03  0.9363E-04  0.2882E+01
   -1.085011    9.49164  0.0000E+00  0.3725E-05  0.9823E-08  0.4371E-03  0.8079E-04  0.3884E+01
   -1.120011    9.49247  0.0000E+00  0.3683E-05  0.9903E-08  0.4240E-03  0.6941E-04  0.5453E+01
   -1.155011    9.49335  0.0000E+00  0.3640E-05  0.1010E-07  0.4063E-03  0.5892E-04  0.7402E+01
   -1.190011    9.49430  0.0000E+00  0.3592E-05  0.1047E-07  0.3821E-03  0.4917E-04  0.1013E+02
   -1.225010    9.49533  0.0000E+00  0.3533E-05  0.1113E-07  0.3538E-03  0.4007E-04  0.1406E+02
   -1.260009    9.49648  0.0000E+00  0.3446E-05  0.1245E-07  0.2891E-03  0.3207E-04  0.2480E+02
   -1.295008    9.49789  0.0000E+00  0.3266E-05  0.1601E-07  0.2781E-03  0.2510E-04  0.5162E+02
   -1.330007    9.49937  0.0000E+00  0.2869E-05  0.2767E-07  0.1125E-03  0.2112E-04 -0.4075E+04
   -1.365005    9.50738  0.0000E+00  0.1824E-05  0.7577E-07  0.3629E-04  0.1374E-04 -0.3309E+05
   -1.400003    9.51999  0.0000E+00  0.0000E+00  0.0000E+00  0.0000E+00  0.1551E-04  0.0000E+00
