 1 - depth, m
 2 - temperature, C
 3 - salinity, kg/kg
 4 - turbulent kinetic energy, m**2/s**2
 5 - dissipation rate, m**2/s**3
 6 - kinematic heat conductance, m**2/s
 7 - modulus of horizontal velocity, m/s
 8 - Richardson number, n/d
   -0.000000    0.00000  0.0000E+00  0.4701E-13  0.1132E-15  0.1000E-09  0.0000E+00  0.7009E+16
   -0.034999    0.10666  0.0000E+00  0.4701E-13  0.1132E-15  0.1000E-09  0.0000E+00  0.6927E+16
   -0.069998    0.21524  0.0000E+00  0.4701E-13  0.1132E-15  0.1000E-09  0.0000E+00  0.6821E+16
   -0.104997    0.32551  0.0000E+00  0.4701E-13  0.1132E-15  0.1000E-09  0.0000E+00  0.6630E+16
   -0.139996    0.43619  0.0000E+00  0.4701E-13  0.1132E-15  0.1000E-09  0.0000E+00  0.6395E+16
   -0.174996    0.54654  0.0000E+00  0.4701E-13  0.1132E-15  0.1000E-09  0.0000E+00  0.6162E+16
   -0.209996    0.65653  0.0000E+00  0.4701E-13  0.1132E-15  0.1000E-09  0.0000E+00  0.5930E+16
   -0.244997    0.76613  0.0000E+00  0.4701E-13  0.1132E-15  0.1000E-09  0.0000E+00  0.5701E+16
   -0.279997    0.87534  0.0000E+00  0.4701E-13  0.1132E-15  0.1000E-09  0.0000E+00  0.5476E+16
   -0.314998    0.98417  0.0000E+00  0.4701E-13  0.1132E-15  0.1000E-09  0.0000E+00  0.5288E+16
   -0.349999    1.09336  0.0000E+00  0.4701E-13  0.1132E-15  0.1000E-09  0.0000E+00  0.5105E+16
   -0.385000    1.20303  0.0000E+00  0.4701E-13  0.1132E-15  0.1000E-09  0.0000E+00  0.4921E+16
   -0.420001    1.31320  0.0000E+00  0.4701E-13  0.1132E-15  0.1000E-09  0.0000E+00  0.4727E+16
   -0.455003    1.42369  0.0000E+00  0.4701E-13  0.1132E-15  0.1000E-09  0.0000E+00  0.4541E+16
   -0.490004    1.53472  0.0000E+00  0.4701E-13  0.1132E-15  0.1000E-09  0.0000E+00  0.4395E+16
   -0.525006    1.64742  0.0000E+00  0.4701E-13  0.1132E-15  0.1000E-09  0.0000E+00  0.4442E+16
   -0.560008    1.76737  0.0000E+00  0.4701E-13  0.1132E-15  0.1000E-09  0.0000E+00  0.4623E+16
   -0.595010    1.89980  0.0000E+00  0.4701E-13  0.1132E-15  0.1000E-09  0.0000E+00  0.4772E+16
   -0.630011    2.04631  0.0000E+00  0.2290E-12  0.1193E-15  0.1000E-09  0.0000E+00  0.4396E+16
   -0.665013    2.19217  0.0000E+00  0.6208E-12  0.2271E-15  0.1000E-09  0.0000E+00  0.4019E+16
   -0.700015    2.33715  0.0000E+00  0.1416E-11  0.4713E-15  0.1000E-09  0.0000E+00  0.3653E+16
   -0.735017    2.48134  0.0000E+00  0.3064E-11  0.9798E-15  0.1000E-09  0.0000E+00  0.3309E+16
   -0.770019    2.62542  0.0000E+00  0.6494E-11  0.2022E-14  0.1000E-09  0.0000E+00  0.2990E+16
   -0.805021    2.77056  0.0000E+00  0.1363E-10  0.4145E-14  0.1000E-09  0.0000E+00  0.2660E+16
   -0.840023    2.91646  0.0000E+00  0.2835E-10  0.8430E-14  0.1000E-09  0.0000E+00  0.2324E+16
   -0.875025    3.06297  0.0000E+00  0.5868E-10  0.1706E-13  0.1000E-09  0.0000E+00  0.1986E+16
   -0.910026    3.21021  0.0000E+00  0.1206E-09  0.3431E-13  0.1000E-09  0.0000E+00  0.1632E+16
   -0.945028    3.35677  0.0000E+00  0.2454E-09  0.6834E-13  0.1383E-09  0.0000E+00  0.1279E+16
   -0.980029    3.50205  0.0000E+00  0.4967E-09  0.1354E-12  0.3750E-09  0.0000E+00  0.9339E+15
   -1.015030    3.64564  0.0000E+00  0.1006E-08  0.2686E-12  0.1146E-08  0.0000E+00  0.6061E+15
   -1.050032    3.78879  0.0000E+00  0.2044E-08  0.5346E-12  0.4910E-08  0.0000E+00  0.2808E+15
   -1.085033    3.92949  0.0000E+00  0.3969E-08  0.1023E-11  0.1220E-06  0.0000E+00  0.2083E+14
   -1.120033    4.01063  0.0000E+00  0.5425E-08  0.1414E-11  0.8330E-05  0.0000E+00 -0.1014E+13
   -1.155034    4.01316  0.0000E+00  0.6167E-08  0.1669E-11  0.8731E-05  0.0000E+00 -0.1072E+13
   -1.190034    4.01560  0.0000E+00  0.6805E-08  0.1964E-11  0.8729E-05  0.0000E+00 -0.1201E+13
   -1.225034    4.01811  0.0000E+00  0.7403E-08  0.2364E-11  0.8727E-05  0.0000E+00 -0.1481E+13
   -1.260034    4.02096  0.0000E+00  0.7976E-08  0.2978E-11  0.8602E-05  0.0000E+00 -0.2082E+13
   -1.295034    4.02460  0.0000E+00  0.8463E-08  0.4215E-11  0.7214E-05  0.0000E+00 -0.3780E+13
   -1.330033    4.03046  0.0000E+00  0.8197E-08  0.6440E-11  0.3474E-05  0.0000E+00 -0.8395E+13
   -1.365032    4.04128  0.0000E+00  0.6174E-08  0.1350E-10  0.6333E-06  0.0000E+00 -0.4758E+14
   -1.400030    4.08172  0.0000E+00  0.0000E+00  0.0000E+00  0.0000E+00  0.0000E+00  0.0000E+00
