 1 - depth, m
 2 - temperature, C
 3 - salinity, kg/kg
 4 - turbulent kinetic energy, m**2/s**2
 5 - dissipation rate, m**2/s**3
 6 - kinematic heat conductance, m**2/s
 7 - modulus of horizontal velocity, m/s
 8 - Richardson number, n/d
   -0.000000    0.00000  0.0000E+00  0.4702E-13  0.1132E-15  0.1000E-09  0.0000E+00  0.6057E+16
   -0.034998    0.09199  0.0000E+00  0.4702E-13  0.1132E-15  0.1000E-09  0.0000E+00  0.5955E+16
   -0.069996    0.18476  0.0000E+00  0.4702E-13  0.1132E-15  0.1000E-09  0.0000E+00  0.5851E+16
   -0.104995    0.27831  0.0000E+00  0.4702E-13  0.1132E-15  0.1000E-09  0.0000E+00  0.5693E+16
   -0.139993    0.37182  0.0000E+00  0.4702E-13  0.1132E-15  0.1000E-09  0.0000E+00  0.5507E+16
   -0.174992    0.46477  0.0000E+00  0.4702E-13  0.1132E-15  0.1000E-09  0.0000E+00  0.5320E+16
   -0.209992    0.55710  0.0000E+00  0.4702E-13  0.1132E-15  0.1000E-09  0.0000E+00  0.5132E+16
   -0.244991    0.64873  0.0000E+00  0.4702E-13  0.1132E-15  0.1000E-09  0.0000E+00  0.4943E+16
   -0.279991    0.73959  0.0000E+00  0.4702E-13  0.1132E-15  0.1000E-09  0.0000E+00  0.4756E+16
   -0.314991    0.82960  0.0000E+00  0.4702E-13  0.1132E-15  0.1000E-09  0.0000E+00  0.4619E+16
   -0.349992    0.91970  0.0000E+00  0.4702E-13  0.1132E-15  0.1000E-09  0.0000E+00  0.4487E+16
   -0.384992    1.00997  0.0000E+00  0.4702E-13  0.1132E-15  0.1000E-09  0.0000E+00  0.4353E+16
   -0.419993    1.10038  0.0000E+00  0.4702E-13  0.1132E-15  0.1000E-09  0.0000E+00  0.4203E+16
   -0.454993    1.19059  0.0000E+00  0.4702E-13  0.1132E-15  0.1000E-09  0.0000E+00  0.4062E+16
   -0.489994    1.28076  0.0000E+00  0.4702E-13  0.1132E-15  0.1000E-09  0.0000E+00  0.3972E+16
   -0.524995    1.37209  0.0000E+00  0.4702E-13  0.1132E-15  0.1000E-09  0.0000E+00  0.4139E+16
   -0.559996    1.47092  0.0000E+00  0.4702E-13  0.1132E-15  0.1000E-09  0.0000E+00  0.4491E+16
   -0.594997    1.58297  0.0000E+00  0.4702E-13  0.1132E-15  0.1000E-09  0.0000E+00  0.4831E+16
   -0.629998    1.70988  0.0000E+00  0.4702E-13  0.1132E-15  0.1000E-09  0.0000E+00  0.4500E+16
   -0.664999    1.83512  0.0000E+00  0.4702E-13  0.1132E-15  0.1000E-09  0.0000E+00  0.4177E+16
   -0.700001    1.95853  0.0000E+00  0.4702E-13  0.1132E-15  0.1000E-09  0.0000E+00  0.3870E+16
   -0.735002    2.08023  0.0000E+00  0.4702E-13  0.1132E-15  0.1000E-09  0.0000E+00  0.3597E+16
   -0.770003    2.20101  0.0000E+00  0.4702E-13  0.1132E-15  0.1000E-09  0.0000E+00  0.3367E+16
   -0.805004    2.32223  0.0000E+00  0.4702E-13  0.1132E-15  0.1000E-09  0.0000E+00  0.3125E+16
   -0.840005    2.44351  0.0000E+00  0.4702E-13  0.1132E-15  0.1000E-09  0.0000E+00  0.2879E+16
   -0.875006    2.56461  0.0000E+00  0.4702E-13  0.1132E-15  0.1000E-09  0.0000E+00  0.2636E+16
   -0.910007    2.68560  0.0000E+00  0.4702E-13  0.1132E-15  0.1000E-09  0.0000E+00  0.2366E+16
   -0.945008    2.80490  0.0000E+00  0.4702E-13  0.1132E-15  0.1000E-09  0.0000E+00  0.2094E+16
   -0.980009    2.92185  0.0000E+00  0.4702E-13  0.1132E-15  0.1000E-09  0.0000E+00  0.1833E+16
   -1.015009    3.03615  0.0000E+00  0.1954E-12  0.2270E-15  0.1000E-09  0.0000E+00  0.1610E+16
   -1.050010    3.14959  0.0000E+00  0.7550E-12  0.7887E-15  0.1000E-09  0.0000E+00  0.1405E+16
   -1.085010    3.26319  0.0000E+00  0.2772E-11  0.2788E-14  0.1000E-09  0.0000E+00  0.1250E+16
   -1.120010    3.38216  0.0000E+00  0.9873E-11  0.9627E-14  0.1000E-09  0.0000E+00  0.1030E+16
   -1.155010    3.50190  0.0000E+00  0.3464E-10  0.3279E-13  0.1024E-09  0.0000E+00  0.8086E+15
   -1.190009    3.62285  0.0000E+00  0.1207E-09  0.1111E-12  0.4696E-09  0.0000E+00  0.5935E+15
   -1.225009    3.74820  0.0000E+00  0.4387E-09  0.3936E-12  0.2567E-08  0.0000E+00  0.3788E+15
   -1.260008    3.89427  0.0000E+00  0.1647E-08  0.1451E-11  0.5888E-07  0.0000E+00  0.4686E+14
   -1.295007    4.03629  0.0000E+00  0.5346E-08  0.5006E-11  0.2550E-05  0.0000E+00 -0.1364E+14
   -1.330005    4.05143  0.0000E+00  0.6481E-08  0.7739E-11  0.1992E-05  0.0000E+00 -0.2043E+14
   -1.365003    4.06908  0.0000E+00  0.5607E-08  0.1389E-10  0.5906E-06  0.0000E+00 -0.7085E+14
   -1.400001    4.11245  0.0000E+00  0.0000E+00  0.0000E+00  0.0000E+00  0.0000E+00  0.0000E+00
