 1 - depth, m
 2 - temperature, C
 3 - salinity, kg/kg
 4 - turbulent kinetic energy, m**2/s**2
 5 - dissipation rate, m**2/s**3
 6 - kinematic heat conductance, m**2/s
 7 - modulus of horizontal velocity, m/s
 8 - Richardson number, n/d
   -0.000000    0.00000  0.0000E+00  0.4702E-13  0.1132E-15  0.1000E-09  0.0000E+00  0.1099E+17
   -0.034998    0.16867  0.0000E+00  0.4702E-13  0.1132E-15  0.1000E-09  0.0000E+00  0.1054E+17
   -0.069996    0.33833  0.0000E+00  0.4702E-13  0.1132E-15  0.1000E-09  0.0000E+00  0.1008E+17
   -0.104994    0.50871  0.0000E+00  0.4702E-13  0.1132E-15  0.1000E-09  0.0000E+00  0.9499E+16
   -0.139993    0.67782  0.0000E+00  0.4702E-13  0.1132E-15  0.1000E-09  0.0000E+00  0.8866E+16
   -0.174992    0.84433  0.0000E+00  0.4702E-13  0.1132E-15  0.1000E-09  0.0000E+00  0.8243E+16
   -0.209991    1.00795  0.0000E+00  0.4702E-13  0.1132E-15  0.1000E-09  0.0000E+00  0.7632E+16
   -0.244991    1.16835  0.0000E+00  0.4702E-13  0.1132E-15  0.1000E-09  0.0000E+00  0.7037E+16
   -0.279990    1.32522  0.0000E+00  0.4702E-13  0.1132E-15  0.1000E-09  0.0000E+00  0.6461E+16
   -0.314990    1.47830  0.0000E+00  0.4702E-13  0.1132E-15  0.1000E-09  0.0000E+00  0.5940E+16
   -0.349990    1.62815  0.0000E+00  0.4702E-13  0.1132E-15  0.1000E-09  0.0000E+00  0.5435E+16
   -0.384991    1.77450  0.0000E+00  0.4702E-13  0.1132E-15  0.1000E-09  0.0000E+00  0.4944E+16
   -0.419991    1.91697  0.0000E+00  0.5419E-13  0.1132E-15  0.1000E-09  0.0000E+00  0.4487E+16
   -0.454992    2.05566  0.0000E+00  0.1600E-12  0.1133E-15  0.1000E-09  0.0000E+00  0.4074E+16
   -0.489992    2.19114  0.0000E+00  0.4387E-12  0.1394E-15  0.1000E-09  0.0000E+00  0.3708E+16
   -0.524993    2.32435  0.0000E+00  0.1018E-11  0.2327E-15  0.1000E-09  0.0000E+00  0.3492E+16
   -0.559994    2.46072  0.0000E+00  0.2202E-11  0.4490E-15  0.1000E-09  0.0000E+00  0.3339E+16
   -0.594995    2.60397  0.0000E+00  0.4795E-11  0.9310E-15  0.1000E-09  0.0000E+00  0.3140E+16
   -0.629996    2.75413  0.0000E+00  0.9200E-11  0.1745E-14  0.1000E-09  0.0000E+00  0.2664E+16
   -0.664997    2.89800  0.0000E+00  0.1668E-10  0.3107E-14  0.1000E-09  0.0000E+00  0.2227E+16
   -0.699998    3.03518  0.0000E+00  0.2965E-10  0.5434E-14  0.1000E-09  0.0000E+00  0.1833E+16
   -0.734999    3.16539  0.0000E+00  0.5244E-10  0.9461E-14  0.1000E-09  0.0000E+00  0.1500E+16
   -0.770000    3.29008  0.0000E+00  0.9254E-10  0.1644E-13  0.1000E-09  0.0000E+00  0.1235E+16
   -0.805001    3.41300  0.0000E+00  0.1630E-09  0.2851E-13  0.1006E-09  0.0000E+00  0.9778E+15
   -0.840002    3.53370  0.0000E+00  0.2862E-09  0.4931E-13  0.1750E-09  0.0000E+00  0.7323E+15
   -0.875003    3.65175  0.0000E+00  0.5018E-09  0.8518E-13  0.4417E-09  0.0000E+00  0.5013E+15
   -0.910004    3.76680  0.0000E+00  0.8771E-09  0.1467E-12  0.1350E-08  0.0000E+00  0.2831E+15
   -0.945005    3.87638  0.0000E+00  0.1519E-08  0.2507E-12  0.7274E-08  0.0000E+00  0.9341E+14
   -0.980005    3.97593  0.0000E+00  0.2260E-08  0.3746E-12  0.1982E-05  0.0000E+00  0.1892E+13
   -1.015006    3.99457  0.0000E+00  0.2817E-08  0.4823E-12  0.5167E-05  0.0000E+00 -0.3826E+12
   -1.050006    3.99727  0.0000E+00  0.3257E-08  0.5860E-12  0.5903E-05  0.0000E+00 -0.4347E+12
   -1.085006    3.99962  0.0000E+00  0.3690E-08  0.7108E-12  0.6476E-05  0.0000E+00 -0.5093E+12
   -1.120006    4.00191  0.0000E+00  0.4115E-08  0.8629E-12  0.6545E-05  0.0000E+00 -0.6001E+12
   -1.155006    4.00423  0.0000E+00  0.4540E-08  0.1057E-11  0.6334E-05  0.0000E+00 -0.7298E+12
   -1.190005    4.00668  0.0000E+00  0.4984E-08  0.1322E-11  0.5971E-05  0.0000E+00 -0.9351E+12
   -1.225004    4.00944  0.0000E+00  0.5501E-08  0.1731E-11  0.5800E-05  0.0000E+00 -0.1350E+13
   -1.260003    4.01292  0.0000E+00  0.6131E-08  0.2434E-11  0.5711E-05  0.0000E+00 -0.2268E+13
   -1.295002    4.01791  0.0000E+00  0.6907E-08  0.3966E-11  0.4888E-05  0.0000E+00 -0.4939E+13
   -1.330000    4.02669  0.0000E+00  0.7108E-08  0.6684E-11  0.2534E-05  0.0000E+00 -0.1208E+14
   -1.364998    4.04265  0.0000E+00  0.6046E-08  0.1444E-10  0.6486E-06  0.0000E+00 -0.6468E+14
   -1.399996    4.09328  0.0000E+00  0.0000E+00  0.0000E+00  0.0000E+00  0.0000E+00  0.0000E+00
