 1 - depth, m
 2 - temperature, C
 3 - salinity, kg/kg
 4 - turbulent kinetic energy, m**2/s**2
 5 - dissipation rate, m**2/s**3
 6 - kinematic heat conductance, m**2/s
 7 - modulus of horizontal velocity, m/s
 8 - Richardson number, n/d
   -0.000000    0.00000  0.0000E+00  0.4702E-13  0.1132E-15  0.1000E-09  0.0000E+00  0.7763E+16
   -0.034998    0.11833  0.0000E+00  0.4702E-13  0.1132E-15  0.1000E-09  0.0000E+00  0.7615E+16
   -0.069996    0.23827  0.0000E+00  0.4702E-13  0.1132E-15  0.1000E-09  0.0000E+00  0.7462E+16
   -0.104995    0.35991  0.0000E+00  0.4702E-13  0.1132E-15  0.1000E-09  0.0000E+00  0.7225E+16
   -0.139994    0.48197  0.0000E+00  0.4702E-13  0.1132E-15  0.1000E-09  0.0000E+00  0.6945E+16
   -0.174993    0.60369  0.0000E+00  0.4702E-13  0.1132E-15  0.1000E-09  0.0000E+00  0.6666E+16
   -0.209992    0.72505  0.0000E+00  0.4702E-13  0.1132E-15  0.1000E-09  0.0000E+00  0.6388E+16
   -0.244992    0.84599  0.0000E+00  0.4702E-13  0.1132E-15  0.1000E-09  0.0000E+00  0.6111E+16
   -0.279992    0.96647  0.0000E+00  0.4702E-13  0.1132E-15  0.1000E-09  0.0000E+00  0.5835E+16
   -0.314992    1.08643  0.0000E+00  0.4702E-13  0.1132E-15  0.1000E-09  0.0000E+00  0.5597E+16
   -0.349992    1.20659  0.0000E+00  0.4702E-13  0.1132E-15  0.1000E-09  0.0000E+00  0.5360E+16
   -0.384993    1.32698  0.0000E+00  0.4702E-13  0.1132E-15  0.1000E-09  0.0000E+00  0.5120E+16
   -0.419993    1.44758  0.0000E+00  0.4702E-13  0.1132E-15  0.1000E-09  0.0000E+00  0.4873E+16
   -0.454994    1.56818  0.0000E+00  0.4702E-13  0.1132E-15  0.1000E-09  0.0000E+00  0.4635E+16
   -0.489995    1.68901  0.0000E+00  0.7681E-13  0.1132E-15  0.1000E-09  0.0000E+00  0.4435E+16
   -0.524996    1.81113  0.0000E+00  0.3198E-12  0.1327E-15  0.1000E-09  0.0000E+00  0.4415E+16
   -0.559997    1.94023  0.0000E+00  0.8890E-12  0.2584E-15  0.1000E-09  0.0000E+00  0.4511E+16
   -0.594998    2.08144  0.0000E+00  0.2235E-11  0.5819E-15  0.1000E-09  0.0000E+00  0.4563E+16
   -0.629999    2.23622  0.0000E+00  0.4711E-11  0.1179E-14  0.1000E-09  0.0000E+00  0.4131E+16
   -0.665000    2.38966  0.0000E+00  0.9296E-11  0.2271E-14  0.1000E-09  0.0000E+00  0.3709E+16
   -0.700002    2.54164  0.0000E+00  0.1795E-10  0.4292E-14  0.1000E-09  0.0000E+00  0.3303E+16
   -0.735003    2.69230  0.0000E+00  0.3445E-10  0.8069E-14  0.1000E-09  0.0000E+00  0.2923E+16
   -0.770004    2.84244  0.0000E+00  0.6583E-10  0.1511E-13  0.1000E-09  0.0000E+00  0.2572E+16
   -0.805005    2.99355  0.0000E+00  0.1253E-09  0.2820E-13  0.1000E-09  0.0000E+00  0.2212E+16
   -0.840007    3.14530  0.0000E+00  0.2372E-09  0.5235E-13  0.1000E-09  0.0000E+00  0.1846E+16
   -0.875008    3.29754  0.0000E+00  0.4474E-09  0.9685E-13  0.1695E-09  0.0000E+00  0.1480E+16
   -0.910009    3.45032  0.0000E+00  0.8397E-09  0.1783E-12  0.4192E-09  0.0000E+00  0.1101E+16
   -0.945009    3.60199  0.0000E+00  0.1563E-08  0.3256E-12  0.1157E-08  0.0000E+00  0.7286E+15
   -0.980010    3.75148  0.0000E+00  0.2890E-08  0.5912E-12  0.4136E-08  0.0000E+00  0.3695E+15
   -1.015011    3.89635  0.0000E+00  0.5253E-08  0.1058E-11  0.4557E-07  0.0000E+00  0.5931E+14
   -1.050011    4.00928  0.0000E+00  0.6475E-08  0.1313E-11  0.1275E-04  0.0000E+00 -0.6134E+12
   -1.085012    4.01092  0.0000E+00  0.7084E-08  0.1468E-11  0.1355E-04  0.0000E+00 -0.6391E+12
   -1.120012    4.01253  0.0000E+00  0.7621E-08  0.1640E-11  0.1364E-04  0.0000E+00 -0.6797E+12
   -1.155012    4.01413  0.0000E+00  0.8094E-08  0.1838E-11  0.1328E-04  0.0000E+00 -0.7459E+12
   -1.190011    4.01579  0.0000E+00  0.8515E-08  0.2083E-11  0.1262E-04  0.0000E+00 -0.8544E+12
   -1.225011    4.01759  0.0000E+00  0.8914E-08  0.2428E-11  0.1212E-04  0.0000E+00 -0.1069E+13
   -1.260010    4.01970  0.0000E+00  0.9286E-08  0.2973E-11  0.1150E-04  0.0000E+00 -0.1521E+13
   -1.295009    4.02249  0.0000E+00  0.9534E-08  0.4136E-11  0.9161E-05  0.0000E+00 -0.2845E+13
   -1.330007    4.02721  0.0000E+00  0.9062E-08  0.6452E-11  0.4092E-05  0.0000E+00 -0.6751E+13
   -1.365005    4.03666  0.0000E+00  0.6697E-08  0.1441E-10  0.6704E-06  0.0000E+00 -0.4382E+14
   -1.400003    4.07651  0.0000E+00  0.0000E+00  0.0000E+00  0.0000E+00  0.0000E+00  0.0000E+00
