 1 - depth, m
 2 - temperature, C
 3 - salinity, kg/kg
 4 - turbulent kinetic energy, m**2/s**2
 5 - dissipation rate, m**2/s**3
 6 - kinematic heat conductance, m**2/s
 7 - modulus of horizontal velocity, m/s
 8 - Richardson number, n/d
   -0.000000    0.00000  0.0000E+00  0.3696E-12  0.1237E-15  0.1000E-09  0.0000E+00  0.1417E+17
   -0.034998    0.21892  0.0000E+00  0.5385E-12  0.1258E-15  0.1000E-09  0.0000E+00  0.1327E+17
   -0.069996    0.43712  0.0000E+00  0.9101E-12  0.1544E-15  0.1000E-09  0.0000E+00  0.1238E+17
   -0.104994    0.65426  0.0000E+00  0.1533E-11  0.2194E-15  0.1000E-09  0.0000E+00  0.1139E+17
   -0.139993    0.86827  0.0000E+00  0.2514E-11  0.3331E-15  0.1000E-09  0.0000E+00  0.1039E+17
   -0.174992    1.07786  0.0000E+00  0.4042E-11  0.5147E-15  0.1000E-09  0.0000E+00  0.9427E+16
   -0.209991    1.28280  0.0000E+00  0.6416E-11  0.7973E-15  0.1000E-09  0.0000E+00  0.8510E+16
   -0.244990    1.48286  0.0000E+00  0.1010E-10  0.1233E-14  0.1000E-09  0.0000E+00  0.7641E+16
   -0.279990    1.67788  0.0000E+00  0.1582E-10  0.1901E-14  0.1000E-09  0.0000E+00  0.6821E+16
   -0.314990    1.86772  0.0000E+00  0.2481E-10  0.2938E-14  0.1000E-09  0.0000E+00  0.6087E+16
   -0.349990    2.05341  0.0000E+00  0.3910E-10  0.4565E-14  0.1000E-09  0.0000E+00  0.5393E+16
   -0.384990    2.23486  0.0000E+00  0.6170E-10  0.7109E-14  0.1000E-09  0.0000E+00  0.4735E+16
   -0.419990    2.41185  0.0000E+00  0.9713E-10  0.1105E-13  0.1000E-09  0.0000E+00  0.4122E+16
   -0.454991    2.58450  0.0000E+00  0.1524E-09  0.1712E-13  0.1000E-09  0.0000E+00  0.3561E+16
   -0.489991    2.75349  0.0000E+00  0.2388E-09  0.2650E-13  0.1000E-09  0.0000E+00  0.3055E+16
   -0.524992    2.92008  0.0000E+00  0.3884E-09  0.4256E-13  0.1000E-09  0.0000E+00  0.2665E+16
   -0.559993    3.09081  0.0000E+00  0.6625E-09  0.7170E-13  0.1019E-09  0.0000E+00  0.2295E+16
   -0.594994    3.27030  0.0000E+00  0.1201E-08  0.1284E-12  0.1800E-09  0.0000E+00  0.1851E+16
   -0.629995    3.45847  0.0000E+00  0.2010E-08  0.2128E-12  0.4450E-09  0.0000E+00  0.1242E+16
   -0.664996    3.63841  0.0000E+00  0.3210E-08  0.3367E-12  0.1252E-08  0.0000E+00  0.6982E+15
   -0.699997    3.80765  0.0000E+00  0.5018E-08  0.5218E-12  0.5910E-08  0.0000E+00  0.2394E+15
   -0.734998    3.95998  0.0000E+00  0.6415E-08  0.6752E-12  0.8524E-05  0.0000E+00  0.1515E+14
   -0.769999    3.99586  0.0000E+00  0.6830E-08  0.7246E-12  0.2138E-04  0.0000E+00 -0.1378E+12
   -0.805000    3.99696  0.0000E+00  0.7125E-08  0.7644E-12  0.2329E-04  0.0000E+00 -0.1476E+12
   -0.840001    3.99795  0.0000E+00  0.7404E-08  0.8069E-12  0.2488E-04  0.0000E+00 -0.1557E+12
   -0.875001    3.99887  0.0000E+00  0.7668E-08  0.8525E-12  0.2611E-04  0.0000E+00 -0.1644E+12
   -0.910002    3.99974  0.0000E+00  0.7918E-08  0.9014E-12  0.2688E-04  0.0000E+00 -0.1733E+12
   -0.945003    4.00059  0.0000E+00  0.8153E-08  0.9540E-12  0.2721E-04  0.0000E+00 -0.1840E+12
   -0.980003    4.00143  0.0000E+00  0.8373E-08  0.1011E-11  0.2719E-04  0.0000E+00 -0.1971E+12
   -1.015004    4.00227  0.0000E+00  0.8584E-08  0.1075E-11  0.2702E-04  0.0000E+00 -0.2158E+12
   -1.050004    4.00314  0.0000E+00  0.8787E-08  0.1149E-11  0.2662E-04  0.0000E+00 -0.2396E+12
   -1.085004    4.00406  0.0000E+00  0.8983E-08  0.1237E-11  0.2602E-04  0.0000E+00 -0.2685E+12
   -1.120004    4.00502  0.0000E+00  0.9168E-08  0.1342E-11  0.2505E-04  0.0000E+00 -0.2980E+12
   -1.155003    4.00604  0.0000E+00  0.9342E-08  0.1470E-11  0.2377E-04  0.0000E+00 -0.3361E+12
   -1.190003    4.00712  0.0000E+00  0.9505E-08  0.1637E-11  0.2205E-04  0.0000E+00 -0.3952E+12
   -1.225002    4.00832  0.0000E+00  0.9665E-08  0.1881E-11  0.2008E-04  0.0000E+00 -0.5187E+12
   -1.260001    4.00981  0.0000E+00  0.9810E-08  0.2287E-11  0.1760E-04  0.0000E+00 -0.7908E+12
   -1.294999    4.01190  0.0000E+00  0.9873E-08  0.3284E-11  0.1276E-04  0.0000E+00 -0.1652E+13
   -1.329998    4.01578  0.0000E+00  0.9387E-08  0.5740E-11  0.4813E-05  0.0000E+00 -0.4973E+13
   -1.364996    4.02514  0.0000E+00  0.7064E-08  0.1500E-10  0.7189E-06  0.0000E+00 -0.4307E+14
   -1.399993    4.07004  0.0000E+00  0.0000E+00  0.0000E+00  0.0000E+00  0.0000E+00  0.0000E+00
