 1 - depth, m
 2 - temperature, C
 3 - salinity, kg/kg
 4 - turbulent kinetic energy, m**2/s**2
 5 - dissipation rate, m**2/s**3
 6 - kinematic heat conductance, m**2/s
 7 - modulus of horizontal velocity, m/s
 8 - Richardson number, n/d
   -0.000000    0.00000  0.0000E+00  0.4702E-13  0.1132E-15  0.1000E-09  0.0000E+00  0.1735E+17
   -0.034997    0.27000  0.0000E+00  0.4702E-13  0.1132E-15  0.1000E-09  0.0000E+00  0.1530E+17
   -0.069994    0.52682  0.0000E+00  0.4702E-13  0.1132E-15  0.1000E-09  0.0000E+00  0.1350E+17
   -0.104991    0.77141  0.0000E+00  0.4814E-13  0.1132E-15  0.1000E-09  0.0000E+00  0.1184E+17
   -0.139989    1.00341  0.0000E+00  0.1577E-12  0.1132E-15  0.1000E-09  0.0000E+00  0.1035E+17
   -0.174987    1.22285  0.0000E+00  0.4448E-12  0.1274E-15  0.1000E-09  0.0000E+00  0.9024E+16
   -0.209985    1.43032  0.0000E+00  0.9518E-12  0.1826E-15  0.1000E-09  0.0000E+00  0.7853E+16
   -0.244984    1.62635  0.0000E+00  0.1777E-11  0.2955E-15  0.1000E-09  0.0000E+00  0.6818E+16
   -0.279982    1.81144  0.0000E+00  0.3118E-11  0.4882E-15  0.1000E-09  0.0000E+00  0.5906E+16
   -0.314981    1.98608  0.0000E+00  0.5341E-11  0.8102E-15  0.1000E-09  0.0000E+00  0.5110E+16
   -0.349980    2.15101  0.0000E+00  0.9085E-11  0.1348E-14  0.1000E-09  0.0000E+00  0.4401E+16
   -0.384980    2.30642  0.0000E+00  0.1538E-10  0.2240E-14  0.1000E-09  0.0000E+00  0.3770E+16
   -0.419979    2.45240  0.0000E+00  0.2586E-10  0.3704E-14  0.1000E-09  0.0000E+00  0.3256E+16
   -0.454979    2.59105  0.0000E+00  0.4323E-10  0.6093E-14  0.1000E-09  0.0000E+00  0.2841E+16
   -0.489978    2.72471  0.0000E+00  0.7201E-10  0.9988E-14  0.1000E-09  0.0000E+00  0.2490E+16
   -0.524978    2.85508  0.0000E+00  0.1247E-09  0.1701E-13  0.1000E-09  0.0000E+00  0.2275E+16
   -0.559978    2.98926  0.0000E+00  0.2261E-09  0.3032E-13  0.1000E-09  0.0000E+00  0.2106E+16
   -0.594978    3.13245  0.0000E+00  0.4345E-09  0.5731E-13  0.1000E-09  0.0000E+00  0.1888E+16
   -0.629978    3.28563  0.0000E+00  0.7633E-09  0.9924E-13  0.1759E-09  0.0000E+00  0.1462E+16
   -0.664978    3.43306  0.0000E+00  0.1276E-08  0.1636E-12  0.3913E-09  0.0000E+00  0.1083E+16
   -0.699978    3.57559  0.0000E+00  0.2092E-08  0.2643E-12  0.9215E-09  0.0000E+00  0.7441E+15
   -0.734978    3.71418  0.0000E+00  0.3407E-08  0.4242E-12  0.2539E-08  0.0000E+00  0.4361E+15
   -0.769978    3.85061  0.0000E+00  0.5503E-08  0.6754E-12  0.1339E-07  0.0000E+00  0.1445E+15
   -0.804979    3.98120  0.0000E+00  0.6678E-08  0.8268E-12  0.1235E-04  0.0000E+00  0.4195E+13
   -0.839978    3.99810  0.0000E+00  0.7135E-08  0.8926E-12  0.1964E-04  0.0000E+00 -0.2027E+12
   -0.874978    3.99921  0.0000E+00  0.7488E-08  0.9514E-12  0.2123E-04  0.0000E+00 -0.2101E+12
   -0.909978    4.00025  0.0000E+00  0.7819E-08  0.1015E-11  0.2250E-04  0.0000E+00 -0.2169E+12
   -0.944978    4.00123  0.0000E+00  0.8130E-08  0.1083E-11  0.2322E-04  0.0000E+00 -0.2273E+12
   -0.979978    4.00220  0.0000E+00  0.8423E-08  0.1159E-11  0.2359E-04  0.0000E+00 -0.2411E+12
   -1.014977    4.00316  0.0000E+00  0.8701E-08  0.1244E-11  0.2381E-04  0.0000E+00 -0.2634E+12
   -1.049976    4.00414  0.0000E+00  0.8965E-08  0.1341E-11  0.2367E-04  0.0000E+00 -0.2943E+12
   -1.084975    4.00518  0.0000E+00  0.9219E-08  0.1456E-11  0.2315E-04  0.0000E+00 -0.3305E+12
   -1.119974    4.00628  0.0000E+00  0.9470E-08  0.1600E-11  0.2204E-04  0.0000E+00 -0.3717E+12
   -1.154973    4.00745  0.0000E+00  0.9721E-08  0.1787E-11  0.1986E-04  0.0000E+00 -0.4455E+12
   -1.189971    4.00877  0.0000E+00  0.9971E-08  0.2041E-11  0.1761E-04  0.0000E+00 -0.5579E+12
   -1.224970    4.01033  0.0000E+00  0.1024E-07  0.2425E-11  0.1576E-04  0.0000E+00 -0.7684E+12
   -1.259968    4.01231  0.0000E+00  0.1052E-07  0.3078E-11  0.1387E-04  0.0000E+00 -0.1228E+13
   -1.294965    4.01519  0.0000E+00  0.1077E-07  0.4648E-11  0.9972E-05  0.0000E+00 -0.2763E+13
   -1.329963    4.02079  0.0000E+00  0.1044E-07  0.8204E-11  0.4185E-05  0.0000E+00 -0.8188E+13
   -1.364960    4.03358  0.0000E+00  0.8472E-08  0.2037E-10  0.8505E-06  0.0000E+00 -0.6221E+14
   -1.399957    4.08722  0.0000E+00  0.0000E+00  0.0000E+00  0.0000E+00  0.0000E+00  0.0000E+00
