 1 - depth, m
 2 - temperature, C
 3 - salinity, kg/kg
 4 - turbulent kinetic energy, m**2/s**2
 5 - dissipation rate, m**2/s**3
 6 - kinematic heat conductance, m**2/s
 7 - modulus of horizontal velocity, m/s
 8 - Richardson number, n/d
   -0.000000    7.49490  0.0000E+00  0.5316E-04  0.1670E-04  0.3066E-04  0.5292E-01 -0.5096E-02
   -0.034998    7.51599  0.0000E+00  0.3307E-04  0.4591E-05  0.4910E-04  0.2262E-01 -0.7744E-02
   -0.069996    7.52173  0.0000E+00  0.2536E-04  0.1987E-05  0.6014E-04  0.1666E-01 -0.1191E-01
   -0.104995    7.52603  0.0000E+00  0.2078E-04  0.1063E-05  0.7008E-04  0.1330E-01 -0.1749E-01
   -0.139993    7.52955  0.0000E+00  0.1757E-04  0.6242E-06  0.7941E-04  0.1085E-01 -0.2567E-01
   -0.174993    7.53260  0.0000E+00  0.1520E-04  0.3945E-06  0.8809E-04  0.8935E-02 -0.3614E-01
   -0.209992    7.53534  0.0000E+00  0.1337E-04  0.2660E-06  0.9591E-04  0.7375E-02 -0.4869E-01
   -0.244992    7.53785  0.0000E+00  0.1191E-04  0.1895E-06  0.1027E-03  0.6065E-02 -0.6263E-01
   -0.279991    7.54020  0.0000E+00  0.1063E-04  0.1400E-06  0.1082E-03  0.4932E-02 -0.6692E-01
   -0.314992    7.54243  0.0000E+00  0.9419E-05  0.1048E-06  0.1234E-03  0.3913E-02  0.3283E+03
   -0.349992    7.54443  0.0000E+00  0.8362E-05  0.7988E-07  0.1433E-03  0.3119E-02  0.8122E+03
   -0.384992    7.54623  0.0000E+00  0.7471E-05  0.6207E-07  0.1617E-03  0.2492E-02  0.1685E+02
   -0.419993    7.54787  0.0000E+00  0.6738E-05  0.4930E-07  0.1785E-03  0.1988E-02  0.3555E+02
   -0.454993    7.54940  0.0000E+00  0.6130E-05  0.4001E-07  0.1958E-03  0.1555E-02  0.1367E+02
   -0.489994    7.55085  0.0000E+00  0.5620E-05  0.3320E-07  0.2113E-03  0.1175E-02  0.1801E+04
   -0.524995    7.55220  0.0000E+00  0.5157E-05  0.2778E-07  0.2284E-03  0.8516E-03  0.8487E+01
   -0.559996    7.55341  0.0000E+00  0.4722E-05  0.2324E-07  0.2414E-03  0.6251E-03  0.3237E+02
   -0.594997    7.55447  0.0000E+00  0.4278E-05  0.1897E-07  0.2617E-03  0.4847E-03  0.3401E+03
   -0.629999    7.55538  0.0000E+00  0.3919E-05  0.1572E-07  0.2888E-03  0.4086E-03  0.1309E+03
   -0.665000    7.55619  0.0000E+00  0.3645E-05  0.1336E-07  0.3143E-03  0.3458E-03  0.8170E+02
   -0.700001    7.55692  0.0000E+00  0.3433E-05  0.1163E-07  0.3320E-03  0.2945E-03  0.3737E+02
   -0.735002    7.55759  0.0000E+00  0.3264E-05  0.1031E-07  0.3469E-03  0.2519E-03  0.6008E+01
   -0.770003    7.55822  0.0000E+00  0.3129E-05  0.9302E-08  0.3568E-03  0.2168E-03  0.3033E+01
   -0.805005    7.55882  0.0000E+00  0.3016E-05  0.8496E-08  0.3619E-03  0.1877E-03  0.1656E+01
   -0.840006    7.55941  0.0000E+00  0.2920E-05  0.7837E-08  0.3652E-03  0.1628E-03  0.1899E+01
   -0.875007    7.56001  0.0000E+00  0.2838E-05  0.7293E-08  0.3679E-03  0.1413E-03  0.2342E+01
   -0.910008    7.56060  0.0000E+00  0.2767E-05  0.6841E-08  0.3700E-03  0.1226E-03  0.2910E+01
   -0.945009    7.56120  0.0000E+00  0.2705E-05  0.6474E-08  0.3714E-03  0.1060E-03  0.3576E+01
   -0.980009    7.56180  0.0000E+00  0.2652E-05  0.6179E-08  0.3718E-03  0.9117E-04  0.4388E+01
   -1.015010    7.56242  0.0000E+00  0.2604E-05  0.5946E-08  0.3709E-03  0.7784E-04  0.5502E+01
   -1.050010    7.56304  0.0000E+00  0.2561E-05  0.5768E-08  0.3682E-03  0.6619E-04  0.7323E+01
   -1.085011    7.56367  0.0000E+00  0.2520E-05  0.5641E-08  0.3635E-03  0.5604E-04  0.1001E+02
   -1.120011    7.56432  0.0000E+00  0.2482E-05  0.5569E-08  0.3562E-03  0.4728E-04  0.1410E+02
   -1.155010    7.56500  0.0000E+00  0.2446E-05  0.5562E-08  0.3459E-03  0.3937E-04  0.1915E+02
   -1.190010    7.56570  0.0000E+00  0.2410E-05  0.5632E-08  0.3317E-03  0.3220E-04  0.2595E+02
   -1.225009    7.56645  0.0000E+00  0.2372E-05  0.5820E-08  0.3118E-03  0.2569E-04  0.3567E+02
   -1.260009    7.56726  0.0000E+00  0.2323E-05  0.6244E-08  0.2802E-03  0.2012E-04  0.5868E+02
   -1.295007    7.56816  0.0000E+00  0.2229E-05  0.7420E-08  0.2212E-03  0.1561E-04  0.1510E+03
   -1.330006    7.56935  0.0000E+00  0.2070E-05  0.1018E-07  0.1641E-03  0.1256E-04  0.1129E+04
   -1.365004    7.57111  0.0000E+00  0.1399E-05  0.2919E-07  0.1248E-04  0.9775E-05 -0.6318E+06
   -1.400002    7.59342  0.0000E+00  0.0000E+00  0.0000E+00  0.0000E+00  0.1000E-04  0.0000E+00
