 1 - depth, m
 2 - temperature, C
 3 - salinity, kg/kg
 4 - turbulent kinetic energy, m**2/s**2
 5 - dissipation rate, m**2/s**3
 6 - kinematic heat conductance, m**2/s
 7 - modulus of horizontal velocity, m/s
 8 - Richardson number, n/d
   -0.000000    3.51956  0.0000E+00  0.9847E-04  0.5383E-04  0.4413E-04  0.8537E-01  0.3125E-03
   -0.034998    3.53172  0.0000E+00  0.5953E-04  0.1592E-04  0.6825E-04  0.3252E-01  0.1087E-02
   -0.069996    3.53456  0.0000E+00  0.4442E-04  0.6324E-05  0.8247E-04  0.2318E-01  0.3273E-03
   -0.104995    3.53669  0.0000E+00  0.3609E-04  0.3387E-05  0.9075E-04  0.1862E-01  0.1010E-01
   -0.139993    3.53832  0.0000E+00  0.3033E-04  0.1961E-05  0.9967E-04  0.1543E-01  0.6600E-03
   -0.174992    3.53973  0.0000E+00  0.2610E-04  0.1208E-05  0.1078E-03  0.1293E-01  0.1106E-02
   -0.209992    3.54099  0.0000E+00  0.2283E-04  0.7757E-06  0.1145E-03  0.1090E-01  0.1050E-02
   -0.244991    3.54217  0.0000E+00  0.2022E-04  0.5210E-06  0.1191E-03  0.9146E-02  0.1752E-02
   -0.279991    3.54332  0.0000E+00  0.1797E-04  0.3645E-06  0.1203E-03  0.7586E-02  0.1490E-02
   -0.314991    3.54447  0.0000E+00  0.1582E-04  0.2613E-06  0.1255E-03  0.6131E-02  0.2346E-02
   -0.349991    3.54559  0.0000E+00  0.1394E-04  0.1927E-06  0.1285E-03  0.4980E-02  0.3829E-02
   -0.384992    3.54669  0.0000E+00  0.1233E-04  0.1462E-06  0.1302E-03  0.4049E-02  0.6786E-02
   -0.419992    3.54778  0.0000E+00  0.1098E-04  0.1140E-06  0.1293E-03  0.3282E-02  0.1032E-01
   -0.454993    3.54891  0.0000E+00  0.9824E-05  0.9104E-07  0.1273E-03  0.2604E-02  0.1618E-01
   -0.489994    3.55008  0.0000E+00  0.8830E-05  0.7427E-07  0.1261E-03  0.1990E-02  0.3569E-01
   -0.524995    3.55128  0.0000E+00  0.7904E-05  0.6094E-07  0.1283E-03  0.1458E-02  0.1961E+00
   -0.559996    3.55241  0.0000E+00  0.7023E-05  0.4986E-07  0.1283E-03  0.1085E-02  0.1260E+01
   -0.594997    3.55344  0.0000E+00  0.6081E-05  0.3933E-07  0.1244E-03  0.8530E-03 -0.3919E+02
   -0.629998    3.55438  0.0000E+00  0.5254E-05  0.3094E-07  0.1174E-03  0.7288E-03  0.6541E+02
   -0.664999    3.55540  0.0000E+00  0.4557E-05  0.2450E-07  0.1108E-03  0.6162E-03  0.3982E+05
   -0.700000    3.55650  0.0000E+00  0.3968E-05  0.1952E-07  0.1047E-03  0.5149E-03  0.1471E+03
   -0.735001    3.55769  0.0000E+00  0.3464E-05  0.1563E-07  0.9899E-04  0.4258E-03  0.2236E+03
   -0.770002    3.55896  0.0000E+00  0.3031E-05  0.1258E-07  0.9347E-04  0.3492E-03  0.5037E+03
   -0.805003    3.56032  0.0000E+00  0.2657E-05  0.1015E-07  0.8807E-04  0.2844E-03  0.1183E+04
   -0.840005    3.56178  0.0000E+00  0.2334E-05  0.8234E-08  0.8281E-04  0.2298E-03  0.3054E+04
   -0.875006    3.56336  0.0000E+00  0.2054E-05  0.6703E-08  0.7762E-04  0.1841E-03  0.9877E+04
   -0.910006    3.56507  0.0000E+00  0.1810E-05  0.5477E-08  0.7241E-04  0.1468E-03  0.2683E+05
   -0.945007    3.56695  0.0000E+00  0.1600E-05  0.4505E-08  0.6726E-04  0.1153E-03  0.8279E+05
   -0.980008    3.56903  0.0000E+00  0.1420E-05  0.3734E-08  0.6219E-04  0.8873E-04  0.3399E+06
   -1.015008    3.57135  0.0000E+00  0.1264E-05  0.3119E-08  0.5723E-04  0.6626E-04  0.2340E+07
   -1.050009    3.57395  0.0000E+00  0.1127E-05  0.2621E-08  0.5224E-04  0.4855E-04  0.2013E+08
   -1.085009    3.57686  0.0000E+00  0.1004E-05  0.2212E-08  0.4711E-04  0.3504E-04  0.2596E+09
   -1.120009    3.58023  0.0000E+00  0.8958E-06  0.1879E-08  0.4183E-04  0.2515E-04  0.3960E+10
   -1.155009    3.58431  0.0000E+00  0.8021E-06  0.1617E-08  0.3665E-04  0.1741E-04  0.9311E+11
   -1.190008    3.58948  0.0000E+00  0.7227E-06  0.1418E-08  0.3172E-04  0.1139E-04  0.8628E+12
   -1.225008    3.59650  0.0000E+00  0.6528E-06  0.1268E-08  0.2695E-04  0.6851E-05  0.1579E+13
   -1.260007    3.60640  0.0000E+00  0.5856E-06  0.1158E-08  0.2192E-04  0.3883E-05  0.2365E+13
   -1.295006    3.62045  0.0000E+00  0.4978E-06  0.1090E-08  0.1550E-04  0.2177E-05  0.3341E+12
   -1.330004    3.64035  0.0000E+00  0.3895E-06  0.1156E-08  0.9577E-05  0.1353E-05  0.7001E+13
   -1.365002    3.67600  0.0000E+00  0.2076E-06  0.2236E-08  0.2230E-05  0.7764E-06  0.1788E+14
   -1.400000    3.76707  0.0000E+00  0.0000E+00  0.0000E+00  0.0000E+00  0.7834E-06  0.0000E+00
