 1 - depth, m
 2 - temperature, C
 3 - salinity, kg/kg
 4 - turbulent kinetic energy, m**2/s**2
 5 - dissipation rate, m**2/s**3
 6 - kinematic heat conductance, m**2/s
 7 - modulus of horizontal velocity, m/s
 8 - Richardson number, n/d
   -0.000000    0.00000  0.0000E+00  0.4702E-13  0.1132E-15  0.1000E-09  0.0000E+00  0.7186E+16
   -0.034998    0.10940  0.0000E+00  0.4702E-13  0.1132E-15  0.1000E-09  0.0000E+00  0.7023E+16
   -0.069996    0.21961  0.0000E+00  0.4702E-13  0.1132E-15  0.1000E-09  0.0000E+00  0.6856E+16
   -0.104994    0.33059  0.0000E+00  0.4702E-13  0.1132E-15  0.1000E-09  0.0000E+00  0.6621E+16
   -0.139993    0.44128  0.0000E+00  0.4702E-13  0.1132E-15  0.1000E-09  0.0000E+00  0.6350E+16
   -0.174992    0.55100  0.0000E+00  0.4702E-13  0.1132E-15  0.1000E-09  0.0000E+00  0.6081E+16
   -0.209992    0.65967  0.0000E+00  0.4702E-13  0.1132E-15  0.1000E-09  0.0000E+00  0.5812E+16
   -0.244991    0.76715  0.0000E+00  0.4702E-13  0.1132E-15  0.1000E-09  0.0000E+00  0.5546E+16
   -0.279991    0.87337  0.0000E+00  0.4702E-13  0.1132E-15  0.1000E-09  0.0000E+00  0.5282E+16
   -0.314991    0.97821  0.0000E+00  0.4702E-13  0.1132E-15  0.1000E-09  0.0000E+00  0.5069E+16
   -0.349991    1.08256  0.0000E+00  0.4702E-13  0.1132E-15  0.1000E-09  0.0000E+00  0.4860E+16
   -0.384991    1.18644  0.0000E+00  0.4702E-13  0.1132E-15  0.1000E-09  0.0000E+00  0.4650E+16
   -0.419992    1.28976  0.0000E+00  0.4702E-13  0.1132E-15  0.1000E-09  0.0000E+00  0.4434E+16
   -0.454993    1.39228  0.0000E+00  0.4702E-13  0.1132E-15  0.1000E-09  0.0000E+00  0.4231E+16
   -0.489993    1.49422  0.0000E+00  0.4702E-13  0.1132E-15  0.1000E-09  0.0000E+00  0.4076E+16
   -0.524994    1.59671  0.0000E+00  0.4702E-13  0.1132E-15  0.1000E-09  0.0000E+00  0.4147E+16
   -0.559995    1.70589  0.0000E+00  0.4702E-13  0.1132E-15  0.1000E-09  0.0000E+00  0.4366E+16
   -0.594996    1.82705  0.0000E+00  0.4702E-13  0.1132E-15  0.1000E-09  0.0000E+00  0.4556E+16
   -0.629997    1.96148  0.0000E+00  0.4702E-13  0.1132E-15  0.1000E-09  0.0000E+00  0.4175E+16
   -0.664998    2.09333  0.0000E+00  0.4702E-13  0.1132E-15  0.1000E-09  0.0000E+00  0.3807E+16
   -0.700000    2.22241  0.0000E+00  0.4702E-13  0.1132E-15  0.1000E-09  0.0000E+00  0.3458E+16
   -0.735001    2.34874  0.0000E+00  0.4702E-13  0.1132E-15  0.1000E-09  0.0000E+00  0.3149E+16
   -0.770002    2.47316  0.0000E+00  0.4702E-13  0.1132E-15  0.1000E-09  0.0000E+00  0.2890E+16
   -0.805003    2.59741  0.0000E+00  0.4702E-13  0.1132E-15  0.1000E-09  0.0000E+00  0.2625E+16
   -0.840004    2.72104  0.0000E+00  0.4702E-13  0.1132E-15  0.1000E-09  0.0000E+00  0.2360E+16
   -0.875005    2.84380  0.0000E+00  0.1043E-12  0.1132E-15  0.1000E-09  0.0000E+00  0.2101E+16
   -0.910006    2.96569  0.0000E+00  0.3582E-12  0.2399E-15  0.1000E-09  0.0000E+00  0.1825E+16
   -0.945007    3.08511  0.0000E+00  0.1036E-11  0.6306E-15  0.1000E-09  0.0000E+00  0.1556E+16
   -0.980007    3.20138  0.0000E+00  0.2835E-11  0.1661E-14  0.1000E-09  0.0000E+00  0.1302E+16
   -1.015008    3.31414  0.0000E+00  0.7665E-11  0.4360E-14  0.1000E-09  0.0000E+00  0.1081E+16
   -1.050008    3.42495  0.0000E+00  0.2067E-10  0.1143E-13  0.1000E-09  0.0000E+00  0.8788E+15
   -1.085008    3.53485  0.0000E+00  0.5557E-10  0.2991E-13  0.1075E-09  0.0000E+00  0.7154E+15
   -1.120008    3.65009  0.0000E+00  0.1470E-09  0.7707E-13  0.3893E-09  0.0000E+00  0.5069E+15
   -1.155008    3.76582  0.0000E+00  0.3845E-09  0.1965E-12  0.1688E-08  0.0000E+00  0.2959E+15
   -1.190008    3.88173  0.0000E+00  0.9959E-09  0.4978E-12  0.1421E-07  0.0000E+00  0.8543E+14
   -1.225007    3.99282  0.0000E+00  0.2337E-08  0.1167E-11  0.1309E-05  0.0000E+00 -0.3032E+13
   -1.260006    4.00707  0.0000E+00  0.3685E-08  0.2151E-11  0.2294E-05  0.0000E+00 -0.4854E+13
   -1.295005    4.01873  0.0000E+00  0.5231E-08  0.3953E-11  0.2848E-05  0.0000E+00 -0.8588E+13
   -1.330003    4.03266  0.0000E+00  0.5934E-08  0.6425E-11  0.1933E-05  0.0000E+00 -0.1645E+14
   -1.365001    4.05150  0.0000E+00  0.5209E-08  0.1254E-10  0.5693E-06  0.0000E+00 -0.6724E+14
   -1.399999    4.09965  0.0000E+00  0.0000E+00  0.0000E+00  0.0000E+00  0.0000E+00  0.0000E+00
