 1 - depth, m
 2 - temperature, C
 3 - salinity, kg/kg
 4 - turbulent kinetic energy, m**2/s**2
 5 - dissipation rate, m**2/s**3
 6 - kinematic heat conductance, m**2/s
 7 - modulus of horizontal velocity, m/s
 8 - Richardson number, n/d
   -0.000000    4.04407  0.0000E+00  0.1508E-03  0.2180E-03  0.4801E-04  0.1109E+00  0.1448E-01
   -0.034998    3.99981  0.0000E+00  0.8913E-04  0.6770E-04  0.8720E-04  0.4031E-01 -0.9717E-01
   -0.069996    3.99942  0.0000E+00  0.6514E-04  0.2537E-04  0.9612E-04  0.2869E-01  0.5858E-02
   -0.104994    3.99942  0.0000E+00  0.5203E-04  0.1029E-04  0.1037E-03  0.2344E-01  0.1141E-01
   -0.139993    4.00047  0.0000E+00  0.4315E-04  0.4715E-05  0.1103E-03  0.1975E-01  0.1572E-01
   -0.174992    4.00241  0.0000E+00  0.3666E-04  0.2478E-05  0.1164E-03  0.1681E-01  0.2058E-01
   -0.209992    4.00518  0.0000E+00  0.3173E-04  0.1469E-05  0.1209E-03  0.1434E-01  0.2552E-01
   -0.244991    4.00898  0.0000E+00  0.2785E-04  0.9501E-06  0.1233E-03  0.1219E-01  0.3040E-01
   -0.279991    4.01405  0.0000E+00  0.2452E-04  0.6519E-06  0.1214E-03  0.1026E-01  0.3185E-01
   -0.314991    4.02133  0.0000E+00  0.2124E-04  0.4608E-06  0.1234E-03  0.8383E-02  0.5981E-01
   -0.349991    4.03224  0.0000E+00  0.1830E-04  0.3355E-06  0.1224E-03  0.6883E-02  0.1220E+00
   -0.384991    4.08112  0.0000E+00  0.1574E-04  0.2501E-06  0.1201E-03  0.5594E-02  0.2638E+00
   -0.419992    4.19278  0.0000E+00  0.1363E-04  0.1916E-06  0.1163E-03  0.4492E-02  0.2755E+00
   -0.454993    4.30736  0.0000E+00  0.1185E-04  0.1499E-06  0.1128E-03  0.3498E-02  0.1049E+00
   -0.489993    4.43747  0.0000E+00  0.1031E-04  0.1189E-06  0.1113E-03  0.2564E-02  0.7796E+00
   -0.524994    4.61348  0.0000E+00  0.8917E-05  0.9417E-07  0.1114E-03  0.1742E-02  0.2528E+05
   -0.559995    4.88500  0.0000E+00  0.7752E-05  0.7512E-07  0.1084E-03  0.1261E-02  0.9611E+04
   -0.594996    4.95997  0.0000E+00  0.6557E-05  0.5788E-07  0.9991E-04  0.9962E-03 -0.9728E+04
   -0.629997    5.00689  0.0000E+00  0.5521E-05  0.4438E-07  0.9663E-04  0.8585E-03  0.3264E+07
   -0.664998    5.05684  0.0000E+00  0.4671E-05  0.3419E-07  0.9448E-04  0.7254E-03  0.4966E+08
   -0.700000    5.11031  0.0000E+00  0.3997E-05  0.2662E-07  0.9384E-04  0.6011E-03  0.1368E+06
   -0.735001    5.15542  0.0000E+00  0.3453E-05  0.2085E-07  0.9511E-04  0.4942E-03  0.8811E+05
   -0.770002    5.20479  0.0000E+00  0.3018E-05  0.1650E-07  0.1004E-03  0.4025E-03  0.5435E+06
   -0.805003    5.22356  0.0000E+00  0.2666E-05  0.1314E-07  0.1135E-03  0.3281E-03  0.3425E+06
   -0.840004    5.24152  0.0000E+00  0.2383E-05  0.1057E-07  0.1281E-03  0.2646E-03  0.5552E+06
   -0.875005    5.26342  0.0000E+00  0.2164E-05  0.8632E-08  0.1454E-03  0.2117E-03  0.4798E+06
   -0.910006    5.27972  0.0000E+00  0.1989E-05  0.7168E-08  0.1634E-03  0.1713E-03  0.1751E+08
   -0.945007    5.28852  0.0000E+00  0.1849E-05  0.6057E-08  0.1794E-03  0.1376E-03  0.6771E+08
   -0.980007    5.29657  0.0000E+00  0.1738E-05  0.5217E-08  0.1848E-03  0.1092E-03  0.5216E+07
   -1.015008    5.30515  0.0000E+00  0.1650E-05  0.4581E-08  0.1901E-03  0.8512E-04  0.2578E+07
   -1.050008    5.31431  0.0000E+00  0.1579E-05  0.4103E-08  0.1962E-03  0.6564E-04  0.1075E+08
   -1.085008    5.32405  0.0000E+00  0.1524E-05  0.3756E-08  0.1996E-03  0.5039E-04  0.8696E+10
   -1.120008    5.33229  0.0000E+00  0.1483E-05  0.3523E-08  0.1989E-03  0.3890E-04 -0.8554E+08
   -1.155008    5.33918  0.0000E+00  0.1451E-05  0.3389E-08  0.1967E-03  0.2982E-04 -0.3353E+09
   -1.190008    5.34549  0.0000E+00  0.1425E-05  0.3342E-08  0.1914E-03  0.2247E-04 -0.9885E+09
   -1.225007    5.35165  0.0000E+00  0.1401E-05  0.3386E-08  0.1817E-03  0.1650E-04 -0.3902E+10
   -1.260006    5.35789  0.0000E+00  0.1370E-05  0.3568E-08  0.1645E-03  0.1195E-04 -0.1131E+11
   -1.295005    5.36453  0.0000E+00  0.1314E-05  0.4142E-08  0.1307E-03  0.8732E-05 -0.1182E+12
   -1.330003    5.37258  0.0000E+00  0.1216E-05  0.5536E-08  0.9195E-04  0.6730E-05 -0.5412E+12
   -1.365001    5.38434  0.0000E+00  0.8287E-06  0.1483E-07  0.9081E-05  0.4954E-05 -0.2791E+13
   -1.399999    5.48471  0.0000E+00  0.0000E+00  0.0000E+00  0.0000E+00  0.4991E-05  0.0000E+00
