 1 - depth, m
 2 - temperature, C
 3 - salinity, kg/kg
 4 - turbulent kinetic energy, m**2/s**2
 5 - dissipation rate, m**2/s**3
 6 - kinematic heat conductance, m**2/s
 7 - modulus of horizontal velocity, m/s
 8 - Richardson number, n/d
   -0.000000    0.00000  0.0000E+00  0.4702E-13  0.1132E-15  0.1000E-09  0.0000E+00  0.1061E+17
   -0.034998    0.16264  0.0000E+00  0.4702E-13  0.1132E-15  0.1000E-09  0.0000E+00  0.1025E+17
   -0.069996    0.32722  0.0000E+00  0.4702E-13  0.1132E-15  0.1000E-09  0.0000E+00  0.9899E+16
   -0.104994    0.49393  0.0000E+00  0.4702E-13  0.1132E-15  0.1000E-09  0.0000E+00  0.9364E+16
   -0.139993    0.65978  0.0000E+00  0.4702E-13  0.1132E-15  0.1000E-09  0.0000E+00  0.8744E+16
   -0.174992    0.82296  0.0000E+00  0.4702E-13  0.1132E-15  0.1000E-09  0.0000E+00  0.8144E+16
   -0.209991    0.98335  0.0000E+00  0.4702E-13  0.1132E-15  0.1000E-09  0.0000E+00  0.7564E+16
   -0.244991    1.14084  0.0000E+00  0.4702E-13  0.1132E-15  0.1000E-09  0.0000E+00  0.7005E+16
   -0.279990    1.29531  0.0000E+00  0.4702E-13  0.1132E-15  0.1000E-09  0.0000E+00  0.6467E+16
   -0.314990    1.44662  0.0000E+00  0.4702E-13  0.1132E-15  0.1000E-09  0.0000E+00  0.5861E+16
   -0.349991    1.59239  0.0000E+00  0.4702E-13  0.1132E-15  0.1000E-09  0.0000E+00  0.5269E+16
   -0.384991    1.73180  0.0000E+00  0.4702E-13  0.1132E-15  0.1000E-09  0.0000E+00  0.4701E+16
   -0.419991    1.86419  0.0000E+00  0.4702E-13  0.1132E-15  0.1000E-09  0.0000E+00  0.4275E+16
   -0.454992    1.99247  0.0000E+00  0.4702E-13  0.1132E-15  0.1000E-09  0.0000E+00  0.3946E+16
   -0.489993    2.11897  0.0000E+00  0.4702E-13  0.1132E-15  0.1000E-09  0.0000E+00  0.3621E+16
   -0.524993    2.24336  0.0000E+00  0.4702E-13  0.1132E-15  0.1000E-09  0.0000E+00  0.3259E+16
   -0.559994    2.36369  0.0000E+00  0.4702E-13  0.1132E-15  0.1000E-09  0.0000E+00  0.2850E+16
   -0.594995    2.47700  0.0000E+00  0.5620E-13  0.1132E-15  0.1000E-09  0.0000E+00  0.2417E+16
   -0.629996    2.58044  0.0000E+00  0.1377E-12  0.1194E-15  0.1000E-09  0.0000E+00  0.2145E+16
   -0.664997    2.67922  0.0000E+00  0.4086E-12  0.1760E-15  0.1000E-09  0.0000E+00  0.1893E+16
   -0.699999    2.77320  0.0000E+00  0.9984E-12  0.3539E-15  0.1000E-09  0.0000E+00  0.1656E+16
   -0.735000    2.86200  0.0000E+00  0.2243E-11  0.7488E-15  0.1000E-09  0.0000E+00  0.1476E+16
   -0.770001    2.94765  0.0000E+00  0.4880E-11  0.1579E-14  0.1000E-09  0.0000E+00  0.1398E+16
   -0.805002    3.03598  0.0000E+00  0.1046E-10  0.3306E-14  0.1000E-09  0.0000E+00  0.1313E+16
   -0.840003    3.12732  0.0000E+00  0.2221E-10  0.6860E-14  0.1000E-09  0.0000E+00  0.1222E+16
   -0.875004    3.22227  0.0000E+00  0.4684E-10  0.1416E-13  0.1000E-09  0.0000E+00  0.1126E+16
   -0.910005    3.32183  0.0000E+00  0.9803E-10  0.2900E-13  0.1010E-09  0.0000E+00  0.1007E+16
   -0.945005    3.42581  0.0000E+00  0.2030E-09  0.5880E-13  0.1760E-09  0.0000E+00  0.8714E+15
   -0.980006    3.53501  0.0000E+00  0.4180E-09  0.1186E-12  0.4312E-09  0.0000E+00  0.7167E+15
   -1.015006    3.65087  0.0000E+00  0.8614E-09  0.2393E-12  0.1166E-08  0.0000E+00  0.5390E+15
   -1.050007    3.77753  0.0000E+00  0.1779E-08  0.4843E-12  0.4586E-08  0.0000E+00  0.2977E+15
   -1.085007    3.91591  0.0000E+00  0.3397E-08  0.9192E-12  0.7088E-06  0.0000E+00  0.5129E+14
   -1.120007    4.00393  0.0000E+00  0.4776E-08  0.1320E-11  0.6234E-05  0.0000E+00 -0.1069E+13
   -1.155006    4.00775  0.0000E+00  0.5581E-08  0.1624E-11  0.6862E-05  0.0000E+00 -0.1190E+13
   -1.190006    4.01120  0.0000E+00  0.6309E-08  0.1992E-11  0.7025E-05  0.0000E+00 -0.1398E+13
   -1.225005    4.01466  0.0000E+00  0.7035E-08  0.2512E-11  0.7099E-05  0.0000E+00 -0.1815E+13
   -1.260004    4.01858  0.0000E+00  0.7797E-08  0.3342E-11  0.7042E-05  0.0000E+00 -0.2712E+13
   -1.295003    4.02363  0.0000E+00  0.8606E-08  0.5074E-11  0.5990E-05  0.0000E+00 -0.5259E+13
   -1.330001    4.03181  0.0000E+00  0.8689E-08  0.8153E-11  0.3104E-05  0.0000E+00 -0.1209E+14
   -1.364999    4.04648  0.0000E+00  0.7151E-08  0.1738E-10  0.7306E-06  0.0000E+00 -0.6522E+14
   -1.399997    4.09566  0.0000E+00  0.0000E+00  0.0000E+00  0.0000E+00  0.0000E+00  0.0000E+00
