 1 - depth, m
 2 - temperature, C
 3 - salinity, kg/kg
 4 - turbulent kinetic energy, m**2/s**2
 5 - dissipation rate, m**2/s**3
 6 - kinematic heat conductance, m**2/s
 7 - modulus of horizontal velocity, m/s
 8 - Richardson number, n/d
   -0.000000   15.94073  0.0000E+00  0.4498E-04  0.1572E-04  0.2874E-04  0.4734E-01  0.4518E-01
   -0.034998   15.97275  0.0000E+00  0.2942E-04  0.4533E-05  0.5042E-04  0.2113E-01 -0.2934E-01
   -0.069996   15.98282  0.0000E+00  0.2301E-04  0.1869E-05  0.6559E-04  0.1509E-01 -0.5190E-01
   -0.104994   15.98986  0.0000E+00  0.1933E-04  0.9745E-06  0.8142E-04  0.1182E-01 -0.7071E-01
   -0.139993   15.99521  0.0000E+00  0.1677E-04  0.5571E-06  0.9897E-04  0.9542E-02 -0.9916E-01
   -0.174992   15.99952  0.0000E+00  0.1491E-04  0.3447E-06  0.1223E-03  0.7837E-02 -0.6083E-01
   -0.209992   16.00304  0.0000E+00  0.1354E-04  0.2309E-06  0.2070E-03  0.6497E-02  0.3876E+03
   -0.244991   16.00559  0.0000E+00  0.1251E-04  0.1665E-06  0.2605E-03  0.5447E-02  0.5035E+02
   -0.279991   16.00765  0.0000E+00  0.1167E-04  0.1272E-06  0.2976E-03  0.4541E-02  0.6405E+02
   -0.314991   16.00942  0.0000E+00  0.1093E-04  0.1004E-06  0.3306E-03  0.3730E-02  0.3454E+02
   -0.349991   16.01095  0.0000E+00  0.1028E-04  0.8138E-07  0.3600E-03  0.3068E-02  0.1068E+02
   -0.384992   16.01227  0.0000E+00  0.9739E-05  0.6751E-07  0.3871E-03  0.2521E-02  0.1488E+02
   -0.419992   16.01344  0.0000E+00  0.9284E-05  0.5724E-07  0.4030E-03  0.2060E-02  0.8228E+01
   -0.454993   16.01452  0.0000E+00  0.8892E-05  0.4945E-07  0.4163E-03  0.1648E-02  0.5395E+01
   -0.489994   16.01555  0.0000E+00  0.8539E-05  0.4339E-07  0.4267E-03  0.1274E-02  0.4872E+01
   -0.524994   16.01654  0.0000E+00  0.8186E-05  0.3823E-07  0.4640E-03  0.9407E-03  0.5397E+01
   -0.559995   16.01741  0.0000E+00  0.7842E-05  0.3374E-07  0.5328E-03  0.7008E-03  0.9814E+00
   -0.594996   16.01811  0.0000E+00  0.7513E-05  0.2970E-07  0.6259E-03  0.5529E-03  0.7076E+00
   -0.629998   16.01864  0.0000E+00  0.7274E-05  0.2684E-07  0.6405E-03  0.4772E-03  0.7809E+00
   -0.664999   16.01917  0.0000E+00  0.7089E-05  0.2471E-07  0.6510E-03  0.4194E-03  0.7954E+00
   -0.700000   16.01969  0.0000E+00  0.6936E-05  0.2301E-07  0.6628E-03  0.3673E-03  0.8267E+00
   -0.735001   16.02021  0.0000E+00  0.6806E-05  0.2167E-07  0.6721E-03  0.3216E-03  0.8516E+00
   -0.770002   16.02072  0.0000E+00  0.6697E-05  0.2064E-07  0.6784E-03  0.2823E-03  0.8662E+00
   -0.805003   16.02123  0.0000E+00  0.6603E-05  0.1986E-07  0.6814E-03  0.2490E-03  0.8850E+00
   -0.840004   16.02174  0.0000E+00  0.6522E-05  0.1929E-07  0.6812E-03  0.2208E-03  0.9070E+00
   -0.875005   16.02226  0.0000E+00  0.6450E-05  0.1890E-07  0.6780E-03  0.1970E-03  0.9645E+00
   -0.910006   16.02278  0.0000E+00  0.6383E-05  0.1866E-07  0.6713E-03  0.1766E-03  0.1091E+01
   -0.945007   16.02332  0.0000E+00  0.6319E-05  0.1857E-07  0.6604E-03  0.1586E-03  0.1278E+01
   -0.980008   16.02388  0.0000E+00  0.6255E-05  0.1862E-07  0.6452E-03  0.1422E-03  0.1529E+01
   -1.015008   16.02446  0.0000E+00  0.6187E-05  0.1883E-07  0.6260E-03  0.1270E-03  0.1893E+01
   -1.050009   16.02507  0.0000E+00  0.6112E-05  0.1925E-07  0.5987E-03  0.1131E-03  0.2522E+01
   -1.085009   16.02572  0.0000E+00  0.6025E-05  0.1995E-07  0.5721E-03  0.1002E-03  0.3518E+01
   -1.120009   16.02642  0.0000E+00  0.5924E-05  0.2104E-07  0.5269E-03  0.8840E-04  0.5363E+01
   -1.155008   16.02720  0.0000E+00  0.5805E-05  0.2274E-07  0.5019E-03  0.7674E-04  0.1625E+02
   -1.190008   16.02806  0.0000E+00  0.5656E-05  0.2572E-07  0.4358E-03  0.6574E-04 -0.4570E+03
   -1.225007   16.02927  0.0000E+00  0.5446E-05  0.3101E-07  0.4177E-03  0.5423E-04 -0.6734E+03
   -1.260006   16.03056  0.0000E+00  0.5106E-05  0.4278E-07  0.3169E-03  0.4324E-04 -0.1577E+06
   -1.295005   16.03394  0.0000E+00  0.4484E-05  0.7283E-07  0.2948E-03  0.3106E-04  0.9915E+05
   -1.330004   16.03410  0.0000E+00  0.3614E-05  0.1587E-06  0.1263E-03  0.2608E-04  0.2301E+06
   -1.365002   16.04887  0.0000E+00  0.2437E-05  0.3787E-06  0.8046E-04  0.1622E-04 -0.1190E+06
   -1.400000   16.05448  0.0000E+00  0.0000E+00  0.0000E+00  0.0000E+00  0.2346E-04  0.0000E+00
