 1 - depth, m
 2 - temperature, C
 3 - salinity, kg/kg
 4 - turbulent kinetic energy, m**2/s**2
 5 - dissipation rate, m**2/s**3
 6 - kinematic heat conductance, m**2/s
 7 - modulus of horizontal velocity, m/s
 8 - Richardson number, n/d
   -0.000000    0.00000  0.0000E+00  0.4702E-13  0.1132E-15  0.1000E-09  0.0000E+00  0.1096E+17
   -0.034998    0.16826  0.0000E+00  0.4702E-13  0.1132E-15  0.1000E-09  0.0000E+00  0.1055E+17
   -0.069996    0.33797  0.0000E+00  0.4702E-13  0.1132E-15  0.1000E-09  0.0000E+00  0.1013E+17
   -0.104994    0.50917  0.0000E+00  0.4702E-13  0.1132E-15  0.1000E-09  0.0000E+00  0.9577E+16
   -0.139993    0.67973  0.0000E+00  0.4702E-13  0.1132E-15  0.1000E-09  0.0000E+00  0.8969E+16
   -0.174992    0.84835  0.0000E+00  0.5472E-13  0.1132E-15  0.1000E-09  0.0000E+00  0.8377E+16
   -0.209991    1.01495  0.0000E+00  0.1896E-12  0.1140E-15  0.1000E-09  0.0000E+00  0.7800E+16
   -0.244990    1.17942  0.0000E+00  0.5187E-12  0.1323E-15  0.1000E-09  0.0000E+00  0.7240E+16
   -0.279990    1.34166  0.0000E+00  0.1078E-11  0.2043E-15  0.1000E-09  0.0000E+00  0.6696E+16
   -0.314990    1.50158  0.0000E+00  0.2010E-11  0.3414E-15  0.1000E-09  0.0000E+00  0.6178E+16
   -0.349990    1.65927  0.0000E+00  0.3587E-11  0.5811E-15  0.1000E-09  0.0000E+00  0.5673E+16
   -0.384990    1.81455  0.0000E+00  0.6273E-11  0.9899E-15  0.1000E-09  0.0000E+00  0.5181E+16
   -0.419991    1.96717  0.0000E+00  0.1083E-10  0.1677E-14  0.1000E-09  0.0000E+00  0.4737E+16
   -0.454991    2.11798  0.0000E+00  0.1853E-10  0.2825E-14  0.1000E-09  0.0000E+00  0.4339E+16
   -0.489992    2.26808  0.0000E+00  0.3158E-10  0.4742E-14  0.1000E-09  0.0000E+00  0.3979E+16
   -0.524993    2.41866  0.0000E+00  0.5602E-10  0.8282E-14  0.1000E-09  0.0000E+00  0.3756E+16
   -0.559994    2.57589  0.0000E+00  0.1041E-09  0.1516E-13  0.1000E-09  0.0000E+00  0.3589E+16
   -0.594995    2.74506  0.0000E+00  0.2053E-09  0.2942E-13  0.1000E-09  0.0000E+00  0.3346E+16
   -0.629996    2.92743  0.0000E+00  0.3687E-09  0.5212E-13  0.1000E-09  0.0000E+00  0.2770E+16
   -0.664997    3.10708  0.0000E+00  0.6303E-09  0.8790E-13  0.1193E-09  0.0000E+00  0.2216E+16
   -0.699998    3.28367  0.0000E+00  0.1057E-08  0.1454E-12  0.2233E-09  0.0000E+00  0.1689E+16
   -0.734999    3.45701  0.0000E+00  0.1764E-08  0.2392E-12  0.5163E-09  0.0000E+00  0.1198E+16
   -0.770000    3.62816  0.0000E+00  0.2934E-08  0.3923E-12  0.1369E-08  0.0000E+00  0.7333E+15
   -0.805001    3.79940  0.0000E+00  0.4857E-08  0.6403E-12  0.6104E-08  0.0000E+00  0.2672E+15
   -0.840002    3.96644  0.0000E+00  0.6460E-08  0.8583E-12  0.5330E-05  0.0000E+00  0.7150E+13
   -0.875003    3.99672  0.0000E+00  0.7064E-08  0.9473E-12  0.1743E-04  0.0000E+00 -0.2258E+12
   -0.910004    3.99839  0.0000E+00  0.7482E-08  0.1018E-11  0.1918E-04  0.0000E+00 -0.2459E+12
   -0.945004    3.99983  0.0000E+00  0.7870E-08  0.1093E-11  0.2067E-04  0.0000E+00 -0.2607E+12
   -0.980005    4.00115  0.0000E+00  0.8231E-08  0.1174E-11  0.2182E-04  0.0000E+00 -0.2757E+12
   -1.015005    4.00239  0.0000E+00  0.8570E-08  0.1262E-11  0.2266E-04  0.0000E+00 -0.2958E+12
   -1.050006    4.00360  0.0000E+00  0.8887E-08  0.1361E-11  0.2308E-04  0.0000E+00 -0.3218E+12
   -1.085006    4.00481  0.0000E+00  0.9185E-08  0.1474E-11  0.2300E-04  0.0000E+00 -0.3573E+12
   -1.120006    4.00605  0.0000E+00  0.9463E-08  0.1607E-11  0.2236E-04  0.0000E+00 -0.3972E+12
   -1.155005    4.00734  0.0000E+00  0.9724E-08  0.1769E-11  0.2119E-04  0.0000E+00 -0.4541E+12
   -1.190005    4.00873  0.0000E+00  0.9967E-08  0.1979E-11  0.1963E-04  0.0000E+00 -0.5409E+12
   -1.225004    4.01026  0.0000E+00  0.1020E-07  0.2281E-11  0.1799E-04  0.0000E+00 -0.7056E+12
   -1.260003    4.01212  0.0000E+00  0.1041E-07  0.2777E-11  0.1595E-04  0.0000E+00 -0.1054E+13
   -1.295002    4.01466  0.0000E+00  0.1052E-07  0.3947E-11  0.1168E-04  0.0000E+00 -0.2140E+13
   -1.330000    4.01919  0.0000E+00  0.1001E-07  0.6632E-11  0.4735E-05  0.0000E+00 -0.5925E+13
   -1.364998    4.02922  0.0000E+00  0.7557E-08  0.1652E-10  0.7507E-06  0.0000E+00 -0.4611E+14
   -1.399996    4.07423  0.0000E+00  0.0000E+00  0.0000E+00  0.0000E+00  0.0000E+00  0.0000E+00
