 1 - depth, m
 2 - temperature, C
 3 - salinity, kg/kg
 4 - turbulent kinetic energy, m**2/s**2
 5 - dissipation rate, m**2/s**3
 6 - kinematic heat conductance, m**2/s
 7 - modulus of horizontal velocity, m/s
 8 - Richardson number, n/d
   -0.000000    0.00000  0.0000E+00  0.6208E-11  0.2738E-14  0.1000E-09  0.0000E+00  0.1998E+17
   -0.034997    0.31282  0.0000E+00  0.1072E-10  0.2542E-14  0.1000E-09  0.0000E+00  0.1777E+17
   -0.069995    0.61703  0.0000E+00  0.1951E-10  0.3272E-14  0.1000E-09  0.0000E+00  0.1569E+17
   -0.104993    0.91213  0.0000E+00  0.3388E-10  0.4864E-14  0.1000E-09  0.0000E+00  0.1371E+17
   -0.139991    1.19684  0.0000E+00  0.5657E-10  0.7564E-14  0.1000E-09  0.0000E+00  0.1188E+17
   -0.174990    1.47065  0.0000E+00  0.9223E-10  0.1188E-13  0.1000E-09  0.0000E+00  0.1022E+17
   -0.209989    1.73387  0.0000E+00  0.1482E-09  0.1862E-13  0.1000E-09  0.0000E+00  0.8717E+16
   -0.244988    1.98683  0.0000E+00  0.2360E-09  0.2909E-13  0.1000E-09  0.0000E+00  0.7368E+16
   -0.279987    2.22986  0.0000E+00  0.3733E-09  0.4525E-13  0.1000E-09  0.0000E+00  0.6154E+16
   -0.314987    2.46321  0.0000E+00  0.5908E-09  0.7046E-13  0.1000E-09  0.0000E+00  0.5100E+16
   -0.349986    2.68892  0.0000E+00  0.9383E-09  0.1101E-12  0.1031E-09  0.0000E+00  0.4136E+16
   -0.384986    2.90691  0.0000E+00  0.1490E-08  0.1721E-12  0.1408E-09  0.0000E+00  0.3250E+16
   -0.419986    3.11657  0.0000E+00  0.2357E-08  0.2679E-12  0.2832E-09  0.0000E+00  0.2452E+16
   -0.454986    3.31770  0.0000E+00  0.3707E-08  0.4148E-12  0.6155E-09  0.0000E+00  0.1744E+16
   -0.489987    3.51072  0.0000E+00  0.5808E-08  0.6397E-12  0.1477E-08  0.0000E+00  0.1115E+16
   -0.524987    3.69632  0.0000E+00  0.9402E-08  0.1018E-11  0.4848E-08  0.0000E+00  0.5626E+15
   -0.559988    3.88165  0.0000E+00  0.1426E-07  0.1522E-11  0.4476E-05  0.0000E+00  0.1042E+15
   -0.594988    4.00390  0.0000E+00  0.1497E-07  0.1601E-11  0.4916E-04  0.0000E+00 -0.1672E+12
   -0.629989    4.00460  0.0000E+00  0.1537E-07  0.1651E-11  0.4901E-04  0.0000E+00 -0.1774E+12
   -0.664989    4.00527  0.0000E+00  0.1575E-07  0.1702E-11  0.5024E-04  0.0000E+00 -0.1813E+12
   -0.699990    4.00592  0.0000E+00  0.1611E-07  0.1755E-11  0.5138E-04  0.0000E+00 -0.1856E+12
   -0.734991    4.00655  0.0000E+00  0.1645E-07  0.1810E-11  0.5238E-04  0.0000E+00 -0.1904E+12
   -0.769991    4.00717  0.0000E+00  0.1678E-07  0.1868E-11  0.5318E-04  0.0000E+00 -0.1959E+12
   -0.804992    4.00777  0.0000E+00  0.1709E-07  0.1930E-11  0.5366E-04  0.0000E+00 -0.2020E+12
   -0.839992    4.00838  0.0000E+00  0.1738E-07  0.1995E-11  0.5376E-04  0.0000E+00 -0.2095E+12
   -0.874993    4.00899  0.0000E+00  0.1766E-07  0.2066E-11  0.5362E-04  0.0000E+00 -0.2183E+12
   -0.909993    4.00961  0.0000E+00  0.1792E-07  0.2143E-11  0.5329E-04  0.0000E+00 -0.2267E+12
   -0.944994    4.01023  0.0000E+00  0.1816E-07  0.2226E-11  0.5279E-04  0.0000E+00 -0.2355E+12
   -0.979994    4.01087  0.0000E+00  0.1839E-07  0.2317E-11  0.5207E-04  0.0000E+00 -0.2458E+12
   -1.014994    4.01151  0.0000E+00  0.1859E-07  0.2419E-11  0.5115E-04  0.0000E+00 -0.2614E+12
   -1.049994    4.01217  0.0000E+00  0.1878E-07  0.2537E-11  0.4993E-04  0.0000E+00 -0.2814E+12
   -1.084993    4.01287  0.0000E+00  0.1895E-07  0.2678E-11  0.4846E-04  0.0000E+00 -0.3046E+12
   -1.119993    4.01360  0.0000E+00  0.1910E-07  0.2845E-11  0.4659E-04  0.0000E+00 -0.3271E+12
   -1.154992    4.01437  0.0000E+00  0.1922E-07  0.3046E-11  0.4439E-04  0.0000E+00 -0.3549E+12
   -1.189991    4.01518  0.0000E+00  0.1930E-07  0.3297E-11  0.4166E-04  0.0000E+00 -0.3962E+12
   -1.224990    4.01605  0.0000E+00  0.1936E-07  0.3652E-11  0.3826E-04  0.0000E+00 -0.4830E+12
   -1.259989    4.01708  0.0000E+00  0.1935E-07  0.4246E-11  0.3337E-04  0.0000E+00 -0.6762E+12
   -1.294987    4.01846  0.0000E+00  0.1912E-07  0.5685E-11  0.2564E-04  0.0000E+00 -0.1188E+13
   -1.329985    4.02077  0.0000E+00  0.1816E-07  0.9520E-11  0.9680E-05  0.0000E+00 -0.3323E+13
   -1.364983    4.02652  0.0000E+00  0.1336E-07  0.2951E-10  0.1114E-05  0.0000E+00 -0.3657E+14
   -1.399980    4.06563  0.0000E+00  0.0000E+00  0.0000E+00  0.0000E+00  0.0000E+00  0.0000E+00
