 1 - depth, m
 2 - temperature, C
 3 - salinity, kg/kg
 4 - turbulent kinetic energy, m**2/s**2
 5 - dissipation rate, m**2/s**3
 6 - kinematic heat conductance, m**2/s
 7 - modulus of horizontal velocity, m/s
 8 - Richardson number, n/d
   -0.000000    0.00000  0.0000E+00  0.4702E-13  0.1132E-15  0.1000E-09  0.0000E+00  0.7841E+16
   -0.034998    0.11954  0.0000E+00  0.4702E-13  0.1132E-15  0.1000E-09  0.0000E+00  0.7693E+16
   -0.069996    0.24078  0.0000E+00  0.4702E-13  0.1132E-15  0.1000E-09  0.0000E+00  0.7538E+16
   -0.104995    0.36377  0.0000E+00  0.4702E-13  0.1132E-15  0.1000E-09  0.0000E+00  0.7296E+16
   -0.139994    0.48718  0.0000E+00  0.4702E-13  0.1132E-15  0.1000E-09  0.0000E+00  0.7008E+16
   -0.174993    0.61023  0.0000E+00  0.4702E-13  0.1132E-15  0.1000E-09  0.0000E+00  0.6721E+16
   -0.209992    0.73287  0.0000E+00  0.4702E-13  0.1132E-15  0.1000E-09  0.0000E+00  0.6436E+16
   -0.244992    0.85506  0.0000E+00  0.4702E-13  0.1132E-15  0.1000E-09  0.0000E+00  0.6152E+16
   -0.279992    0.97675  0.0000E+00  0.4702E-13  0.1132E-15  0.1000E-09  0.0000E+00  0.5870E+16
   -0.314992    1.09788  0.0000E+00  0.4702E-13  0.1132E-15  0.1000E-09  0.0000E+00  0.5624E+16
   -0.349992    1.21917  0.0000E+00  0.4702E-13  0.1132E-15  0.1000E-09  0.0000E+00  0.5381E+16
   -0.384993    1.34066  0.0000E+00  0.4702E-13  0.1132E-15  0.1000E-09  0.0000E+00  0.5135E+16
   -0.419993    1.46230  0.0000E+00  0.4702E-13  0.1132E-15  0.1000E-09  0.0000E+00  0.4883E+16
   -0.454994    1.58393  0.0000E+00  0.4702E-13  0.1132E-15  0.1000E-09  0.0000E+00  0.4641E+16
   -0.489995    1.70579  0.0000E+00  0.8383E-13  0.1132E-15  0.1000E-09  0.0000E+00  0.4436E+16
   -0.524996    1.82893  0.0000E+00  0.3353E-12  0.1364E-15  0.1000E-09  0.0000E+00  0.4409E+16
   -0.559997    1.95901  0.0000E+00  0.9227E-12  0.2673E-15  0.1000E-09  0.0000E+00  0.4494E+16
   -0.594998    2.10114  0.0000E+00  0.2313E-11  0.6028E-15  0.1000E-09  0.0000E+00  0.4536E+16
   -0.630000    2.25677  0.0000E+00  0.4875E-11  0.1223E-14  0.1000E-09  0.0000E+00  0.4100E+16
   -0.665001    2.41105  0.0000E+00  0.9623E-11  0.2356E-14  0.1000E-09  0.0000E+00  0.3674E+16
   -0.700002    2.56383  0.0000E+00  0.1859E-10  0.4456E-14  0.1000E-09  0.0000E+00  0.3263E+16
   -0.735003    2.71520  0.0000E+00  0.3571E-10  0.8386E-14  0.1000E-09  0.0000E+00  0.2878E+16
   -0.770005    2.86597  0.0000E+00  0.6831E-10  0.1572E-13  0.1000E-09  0.0000E+00  0.2523E+16
   -0.805006    3.01761  0.0000E+00  0.1301E-09  0.2936E-13  0.1000E-09  0.0000E+00  0.2158E+16
   -0.840007    3.16980  0.0000E+00  0.2466E-09  0.5455E-13  0.1000E-09  0.0000E+00  0.1790E+16
   -0.875008    3.32238  0.0000E+00  0.4656E-09  0.1010E-12  0.1841E-09  0.0000E+00  0.1421E+16
   -0.910009    3.47536  0.0000E+00  0.8746E-09  0.1862E-12  0.4629E-09  0.0000E+00  0.1041E+16
   -0.945010    3.62709  0.0000E+00  0.1629E-08  0.3403E-12  0.1317E-08  0.0000E+00  0.6686E+15
   -0.980011    3.77640  0.0000E+00  0.3014E-08  0.6182E-12  0.5128E-08  0.0000E+00  0.3115E+15
   -1.015011    3.92014  0.0000E+00  0.5383E-08  0.1089E-11  0.9207E-07  0.0000E+00  0.2982E+14
   -1.050012    4.01028  0.0000E+00  0.6610E-08  0.1348E-11  0.1305E-04  0.0000E+00 -0.6222E+12
   -1.085012    4.01188  0.0000E+00  0.7229E-08  0.1507E-11  0.1384E-04  0.0000E+00 -0.6476E+12
   -1.120012    4.01345  0.0000E+00  0.7774E-08  0.1681E-11  0.1390E-04  0.0000E+00 -0.6879E+12
   -1.155012    4.01502  0.0000E+00  0.8253E-08  0.1883E-11  0.1352E-04  0.0000E+00 -0.7540E+12
   -1.190012    4.01665  0.0000E+00  0.8678E-08  0.2132E-11  0.1284E-04  0.0000E+00 -0.8624E+12
   -1.225011    4.01842  0.0000E+00  0.9081E-08  0.2482E-11  0.1232E-04  0.0000E+00 -0.1077E+13
   -1.260011    4.02049  0.0000E+00  0.9456E-08  0.3035E-11  0.1169E-04  0.0000E+00 -0.1529E+13
   -1.295009    4.02324  0.0000E+00  0.9702E-08  0.4213E-11  0.9319E-05  0.0000E+00 -0.2852E+13
   -1.330008    4.02788  0.0000E+00  0.9218E-08  0.6562E-11  0.4159E-05  0.0000E+00 -0.6747E+13
   -1.365006    4.03720  0.0000E+00  0.6806E-08  0.1467E-10  0.6782E-06  0.0000E+00 -0.4387E+14
   -1.400004    4.07684  0.0000E+00  0.0000E+00  0.0000E+00  0.0000E+00  0.0000E+00  0.0000E+00
