 1 - depth, m
 2 - temperature, C
 3 - salinity, kg/kg
 4 - turbulent kinetic energy, m**2/s**2
 5 - dissipation rate, m**2/s**3
 6 - kinematic heat conductance, m**2/s
 7 - modulus of horizontal velocity, m/s
 8 - Richardson number, n/d
   -0.000000   15.68480  0.0000E+00  0.1113E-03  0.4087E-04  0.5539E-04  0.9267E-01 -0.1722E-01
   -0.034998   15.70778  0.0000E+00  0.6739E-04  0.1175E-04  0.8009E-04  0.3257E-01 -0.1707E-01
   -0.069996   15.71188  0.0000E+00  0.5072E-04  0.5368E-05  0.8986E-04  0.2343E-01 -0.1840E-01
   -0.104994   15.71479  0.0000E+00  0.4137E-04  0.2943E-05  0.1002E-03  0.1911E-01 -0.2059E-01
   -0.139993   15.71707  0.0000E+00  0.3495E-04  0.1749E-05  0.1116E-03  0.1599E-01 -0.2867E-01
   -0.174992   15.71903  0.0000E+00  0.3025E-04  0.1113E-05  0.1231E-03  0.1349E-01 -0.3653E-01
   -0.209991   15.72078  0.0000E+00  0.2668E-04  0.7537E-06  0.1340E-03  0.1142E-01 -0.4404E-01
   -0.244991   15.72237  0.0000E+00  0.2385E-04  0.5378E-06  0.1460E-03  0.9634E-02  0.1475E+00
   -0.279991   15.72383  0.0000E+00  0.2144E-04  0.3989E-06  0.1645E-03  0.8063E-02  0.1814E+02
   -0.314991   15.72517  0.0000E+00  0.1921E-04  0.3018E-06  0.1849E-03  0.6633E-02  0.2806E+02
   -0.349991   15.72637  0.0000E+00  0.1725E-04  0.2331E-06  0.2028E-03  0.5477E-02  0.6164E+02
   -0.384991   15.72746  0.0000E+00  0.1558E-04  0.1836E-06  0.2185E-03  0.4527E-02  0.5986E+01
   -0.419992   15.72848  0.0000E+00  0.1418E-04  0.1478E-06  0.2344E-03  0.3732E-02  0.1636E+03
   -0.454992   15.72944  0.0000E+00  0.1299E-04  0.1214E-06  0.2473E-03  0.3029E-02  0.2219E+02
   -0.489993   15.73036  0.0000E+00  0.1195E-04  0.1017E-06  0.2588E-03  0.2394E-02  0.8973E+00
   -0.524994   15.73125  0.0000E+00  0.1097E-04  0.8564E-07  0.2781E-03  0.1837E-02  0.1881E+01
   -0.559995   15.73203  0.0000E+00  0.1002E-04  0.7178E-07  0.3114E-03  0.1427E-02  0.1774E+02
   -0.594996   15.73266  0.0000E+00  0.9007E-05  0.5841E-07  0.3394E-03  0.1156E-02  0.9676E+02
   -0.629997   15.73315  0.0000E+00  0.8163E-05  0.4797E-07  0.3719E-03  0.9976E-03  0.3627E+02
   -0.664998   15.73360  0.0000E+00  0.7485E-05  0.4010E-07  0.4042E-03  0.8617E-03  0.1315E+03
   -0.699999   15.73401  0.0000E+00  0.6934E-05  0.3408E-07  0.4333E-03  0.7421E-03  0.2453E+04
   -0.735000   15.73439  0.0000E+00  0.6481E-05  0.2943E-07  0.4605E-03  0.6384E-03  0.8978E+02
   -0.770002   15.73474  0.0000E+00  0.6107E-05  0.2578E-07  0.4786E-03  0.5502E-03  0.3081E+01
   -0.805003   15.73508  0.0000E+00  0.5793E-05  0.2289E-07  0.4895E-03  0.4749E-03  0.1303E+01
   -0.840004   15.73541  0.0000E+00  0.5528E-05  0.2059E-07  0.4924E-03  0.4104E-03  0.3693E+01
   -0.875005   15.73574  0.0000E+00  0.5304E-05  0.1875E-07  0.4935E-03  0.3545E-03  0.1475E+01
   -0.910005   15.73608  0.0000E+00  0.5113E-05  0.1728E-07  0.4935E-03  0.3067E-03  0.1189E+01
   -0.945006   15.73643  0.0000E+00  0.4951E-05  0.1613E-07  0.4916E-03  0.2649E-03  0.1419E+01
   -0.980007   15.73678  0.0000E+00  0.4813E-05  0.1526E-07  0.4876E-03  0.2279E-03  0.1717E+01
   -1.015007   15.73714  0.0000E+00  0.4694E-05  0.1462E-07  0.4814E-03  0.1953E-03  0.2101E+01
   -1.050008   15.73752  0.0000E+00  0.4590E-05  0.1418E-07  0.4726E-03  0.1674E-03  0.2766E+01
   -1.085008   15.73791  0.0000E+00  0.4494E-05  0.1391E-07  0.4613E-03  0.1440E-03  0.3755E+01
   -1.120008   15.73832  0.0000E+00  0.4404E-05  0.1384E-07  0.4457E-03  0.1239E-03  0.5369E+01
   -1.155008   15.73875  0.0000E+00  0.4316E-05  0.1399E-07  0.4268E-03  0.1056E-03  0.7506E+01
   -1.190007   15.73921  0.0000E+00  0.4228E-05  0.1444E-07  0.3983E-03  0.8869E-04  0.1170E+02
   -1.225006   15.73973  0.0000E+00  0.4126E-05  0.1543E-07  0.3721E-03  0.7249E-04 -0.1409E+02
   -1.260005   15.74029  0.0000E+00  0.3984E-05  0.1777E-07  0.3036E-03  0.5837E-04  0.1858E+04
   -1.295004   15.74110  0.0000E+00  0.3705E-05  0.2431E-07  0.2828E-03  0.4499E-04  0.1374E+04
   -1.330003   15.74181  0.0000E+00  0.3174E-05  0.4389E-07  0.1285E-03  0.3767E-04  0.9737E+05
   -1.365001   15.74600  0.0000E+00  0.2026E-05  0.1153E-06  0.4199E-04  0.2492E-04 -0.6850E+06
   -1.399999   15.75225  0.0000E+00  0.0000E+00  0.0000E+00  0.0000E+00  0.3006E-04  0.0000E+00
