 1 - depth, m
 2 - temperature, C
 3 - salinity, kg/kg
 4 - turbulent kinetic energy, m**2/s**2
 5 - dissipation rate, m**2/s**3
 6 - kinematic heat conductance, m**2/s
 7 - modulus of horizontal velocity, m/s
 8 - Richardson number, n/d
   -0.000000    0.00000  0.0000E+00  0.2243E-03  0.2063E-03  0.6153E-04  0.1819E+00  0.1897E-01
   -0.034996    0.00545  0.0000E+00  0.1464E-03  0.8232E-04  0.1200E-03  0.6314E-01  0.8426E-02
   -0.069993    0.00873  0.0000E+00  0.1111E-03  0.3416E-04  0.1442E-03  0.4096E-01 -0.2404E-03
   -0.104990    0.01060  0.0000E+00  0.9264E-04  0.1961E-04  0.1593E-03  0.3272E-01  0.2129E-02
   -0.139987    0.01195  0.0000E+00  0.8027E-04  0.1188E-04  0.1738E-03  0.2759E-01  0.2605E-02
   -0.174985    0.01305  0.0000E+00  0.7124E-04  0.7580E-05  0.1883E-03  0.2371E-01  0.3565E-02
   -0.209983    0.01402  0.0000E+00  0.6426E-04  0.4995E-05  0.2016E-03  0.2056E-01  0.4152E-02
   -0.244981    0.01493  0.0000E+00  0.5866E-04  0.3405E-05  0.2121E-03  0.1784E-01  0.5169E-02
   -0.279979    0.01581  0.0000E+00  0.5381E-04  0.2388E-05  0.2179E-03  0.1541E-01  0.6667E-02
   -0.314978    0.01674  0.0000E+00  0.4917E-04  0.1717E-05  0.2294E-03  0.1307E-01  0.2141E-01
   -0.349976    0.01760  0.0000E+00  0.4503E-04  0.1268E-05  0.2376E-03  0.1123E-01  0.1363E+00
   -0.384975    0.01843  0.0000E+00  0.4139E-04  0.9649E-06  0.2433E-03  0.9698E-02  0.1117E+01
   -0.419974    0.01921  0.0000E+00  0.3819E-04  0.7572E-06  0.2441E-03  0.8386E-02  0.7468E+01
   -0.454974    0.02006  0.0000E+00  0.3531E-04  0.6119E-06  0.2421E-03  0.7172E-02  0.6357E+02
   -0.489973    0.02108  0.0000E+00  0.3264E-04  0.5082E-06  0.2409E-03  0.6022E-02  0.1763E+04
   -0.524972    0.02239  0.0000E+00  0.2998E-04  0.4268E-06  0.2491E-03  0.4978E-02  0.5939E+04
   -0.559972    0.02321  0.0000E+00  0.2731E-04  0.3584E-06  0.2562E-03  0.4195E-02  0.8250E+07
   -0.594971    0.02382  0.0000E+00  0.2436E-04  0.2926E-06  0.2560E-03  0.3657E-02 -0.2777E+08
   -0.629971    0.02431  0.0000E+00  0.2171E-04  0.2393E-06  0.2443E-03  0.3322E-02  0.7976E+10
   -0.664971    0.02491  0.0000E+00  0.1941E-04  0.1974E-06  0.2330E-03  0.2991E-02  0.1589E+10
   -0.699970    0.02559  0.0000E+00  0.1741E-04  0.1641E-06  0.2221E-03  0.2675E-02  0.2757E+10
   -0.734970    0.02633  0.0000E+00  0.1564E-04  0.1372E-06  0.2117E-03  0.2379E-02  0.3699E+10
   -0.769970    0.02714  0.0000E+00  0.1408E-04  0.1152E-06  0.2015E-03  0.2107E-02  0.1492E+10
   -0.804969    0.02801  0.0000E+00  0.1269E-04  0.9714E-07  0.1913E-03  0.1858E-02  0.2514E+10
   -0.839969    0.02897  0.0000E+00  0.1144E-04  0.8224E-07  0.1812E-03  0.1632E-02  0.4010E+10
   -0.874969    0.03002  0.0000E+00  0.1034E-04  0.6988E-07  0.1714E-03  0.1426E-02  0.6772E+10
   -0.909968    0.03115  0.0000E+00  0.9342E-05  0.5958E-07  0.1608E-03  0.1241E-02  0.8636E+08
   -0.944967    0.03242  0.0000E+00  0.8461E-05  0.5109E-07  0.1503E-03  0.1072E-02  0.3521E+09
   -0.979966    0.03395  0.0000E+00  0.7679E-05  0.4407E-07  0.1402E-03  0.9150E-03  0.6046E+10
   -1.014966    0.03600  0.0000E+00  0.6983E-05  0.3826E-07  0.1306E-03  0.7702E-03  0.2112E+12
   -1.049964    0.03835  0.0000E+00  0.6355E-05  0.3338E-07  0.1211E-03  0.6424E-03  0.1286E+13
   -1.084963    0.04074  0.0000E+00  0.5787E-05  0.2928E-07  0.1117E-03  0.5318E-03  0.7466E+12
   -1.119962    0.04312  0.0000E+00  0.5273E-05  0.2588E-07  0.1015E-03  0.4381E-03  0.1134E+14
   -1.154960    0.04680  0.0000E+00  0.4817E-05  0.2316E-07  0.9150E-04  0.3542E-03  0.3500E+14
   -1.189958    0.05319  0.0000E+00  0.4410E-05  0.2105E-07  0.8171E-04  0.2789E-03  0.1124E+15
   -1.224956    0.06823  0.0000E+00  0.4021E-05  0.1945E-07  0.7195E-04  0.2112E-03  0.2387E+15
   -1.259954    0.10241  0.0000E+00  0.3627E-05  0.1842E-07  0.6130E-04  0.1562E-03  0.8187E+15
   -1.294951    0.16766  0.0000E+00  0.3170E-05  0.1871E-07  0.4780E-04  0.1171E-03  0.7308E+15
   -1.329948    0.21358  0.0000E+00  0.2584E-05  0.2212E-07  0.2702E-04  0.9246E-04  0.1201E+16
   -1.364945    0.28810  0.0000E+00  0.1391E-05  0.5100E-07  0.4508E-05  0.7013E-04  0.8829E+15
   -1.399941    0.39605  0.0000E+00  0.0000E+00  0.0000E+00  0.0000E+00  0.7042E-04  0.0000E+00
