 1 - depth, m
 2 - temperature, C
 3 - salinity, kg/kg
 4 - turbulent kinetic energy, m**2/s**2
 5 - dissipation rate, m**2/s**3
 6 - kinematic heat conductance, m**2/s
 7 - modulus of horizontal velocity, m/s
 8 - Richardson number, n/d
   -0.000000    9.00265  0.0000E+00  0.5641E-03  0.2062E-02  0.1004E-03  0.2920E+00 -0.2019E-01
   -0.034998    9.10073  0.0000E+00  0.2868E-03  0.8793E-03  0.1506E-03  0.8976E-01 -0.3516E-02
   -0.069996    9.13932  0.0000E+00  0.1827E-03  0.2906E-03  0.2013E-03  0.5022E-01  0.2166E-01
   -0.104994    9.15449  0.0000E+00  0.1422E-03  0.1805E-03  0.2093E-03  0.3744E-01 -0.1903E-01
   -0.139993    9.16275  0.0000E+00  0.1175E-03  0.1203E-03  0.2085E-03  0.3023E-01 -0.1529E-01
   -0.174992    9.16807  0.0000E+00  0.9910E-04  0.8005E-04  0.2112E-03  0.2516E-01 -0.2781E-01
   -0.209991    9.17211  0.0000E+00  0.8513E-04  0.5376E-04  0.2149E-03  0.2141E-01 -0.2718E-01
   -0.244991    9.17569  0.0000E+00  0.7425E-04  0.3498E-04  0.2158E-03  0.1841E-01 -0.3822E-01
   -0.279991    9.17874  0.0000E+00  0.6534E-04  0.2161E-04  0.2142E-03  0.1572E-01 -0.2753E-01
   -0.314991    9.18214  0.0000E+00  0.5743E-04  0.1333E-04  0.2243E-03  0.1282E-01  0.8016E-01
   -0.349991    9.18483  0.0000E+00  0.5107E-04  0.8144E-05  0.2300E-03  0.1088E-01  0.1066E+01
   -0.384991    9.18731  0.0000E+00  0.4585E-04  0.5105E-05  0.2371E-03  0.9339E-02  0.6366E+00
   -0.419992    9.18961  0.0000E+00  0.4158E-04  0.3291E-05  0.2438E-03  0.8093E-02  0.1947E+02
   -0.454992    9.19195  0.0000E+00  0.3799E-04  0.2204E-05  0.2504E-03  0.6900E-02  0.1475E+03
   -0.489993    9.19432  0.0000E+00  0.3489E-04  0.1552E-05  0.2583E-03  0.5736E-02  0.3651E+02
   -0.524994    9.19731  0.0000E+00  0.3201E-04  0.1149E-05  0.2759E-03  0.4707E-02 -0.3223E+02
   -0.559995    9.19951  0.0000E+00  0.2925E-04  0.8779E-06  0.2987E-03  0.3992E-02 -0.4308E+04
   -0.594996    9.20089  0.0000E+00  0.2631E-04  0.6471E-06  0.3091E-03  0.3520E-02  0.4450E+06
   -0.629997    9.20114  0.0000E+00  0.2368E-04  0.4693E-06  0.3193E-03  0.3275E-02  0.7400E+06
   -0.664998    9.20252  0.0000E+00  0.2144E-04  0.3532E-06  0.3313E-03  0.2976E-02  0.8190E+05
   -0.699999    9.20388  0.0000E+00  0.1953E-04  0.2773E-06  0.3462E-03  0.2680E-02  0.1453E+06
   -0.735000    9.20524  0.0000E+00  0.1787E-04  0.2232E-06  0.3583E-03  0.2406E-02  0.1365E+05
   -0.770001    9.20657  0.0000E+00  0.1641E-04  0.1842E-06  0.3689E-03  0.2156E-02  0.1325E+05
   -0.805002    9.20779  0.0000E+00  0.1512E-04  0.1553E-06  0.3804E-03  0.1930E-02  0.1429E+05
   -0.840003    9.20892  0.0000E+00  0.1399E-04  0.1323E-06  0.3938E-03  0.1725E-02  0.3276E+05
   -0.875004    9.21000  0.0000E+00  0.1298E-04  0.1136E-06  0.4120E-03  0.1539E-02  0.1698E+05
   -0.910005    9.21100  0.0000E+00  0.1208E-04  0.9847E-07  0.4272E-03  0.1371E-02  0.2004E+05
   -0.945006    9.21197  0.0000E+00  0.1127E-04  0.8611E-07  0.4370E-03  0.1216E-02  0.3158E+05
   -0.980006    9.21289  0.0000E+00  0.1055E-04  0.7608E-07  0.4416E-03  0.1070E-02  0.3826E+05
   -1.015007    9.21379  0.0000E+00  0.9894E-05  0.6797E-07  0.4474E-03  0.9329E-03  0.3306E+05
   -1.050007    9.21466  0.0000E+00  0.9290E-05  0.6151E-07  0.4434E-03  0.8093E-03  0.4687E+05
   -1.085007    9.21551  0.0000E+00  0.8728E-05  0.5663E-07  0.4330E-03  0.6989E-03  0.8981E+05
   -1.120007    9.21636  0.0000E+00  0.8204E-05  0.5355E-07  0.4151E-03  0.6017E-03  0.1114E+06
   -1.155007    9.21725  0.0000E+00  0.7713E-05  0.5280E-07  0.3875E-03  0.5115E-03  0.1456E+06
   -1.190007    9.21822  0.0000E+00  0.7240E-05  0.5546E-07  0.3524E-03  0.4258E-03  0.3227E+06
   -1.225006    9.21931  0.0000E+00  0.6739E-05  0.6399E-07  0.3207E-03  0.3422E-03  0.3726E+06
   -1.260005    9.22059  0.0000E+00  0.6138E-05  0.8645E-07  0.2653E-03  0.2651E-03  0.6274E+06
   -1.295004    9.22241  0.0000E+00  0.5282E-05  0.1463E-06  0.2266E-03  0.1985E-03  0.3074E+07
   -1.330002    9.22364  0.0000E+00  0.4200E-05  0.3154E-06  0.1254E-03  0.1689E-03  0.8574E+08
   -1.365000    9.23042  0.0000E+00  0.2768E-05  0.6509E-06  0.5702E-04  0.1197E-03 -0.2109E+12
   -1.399998    9.24247  0.0000E+00  0.0000E+00  0.0000E+00  0.0000E+00  0.1839E-03  0.0000E+00
