 1 - depth, m
 2 - temperature, C
 3 - salinity, kg/kg
 4 - turbulent kinetic energy, m**2/s**2
 5 - dissipation rate, m**2/s**3
 6 - kinematic heat conductance, m**2/s
 7 - modulus of horizontal velocity, m/s
 8 - Richardson number, n/d
   -0.000000   12.13323  0.0000E+00  0.5128E-04  0.1256E-04  0.3108E-04  0.5120E-01 -0.4044E-01
   -0.034998   12.15185  0.0000E+00  0.3142E-04  0.3761E-05  0.5009E-04  0.2052E-01 -0.1739E-01
   -0.069996   12.15616  0.0000E+00  0.2416E-04  0.1749E-05  0.5929E-04  0.1510E-01 -0.1886E-01
   -0.104994   12.15920  0.0000E+00  0.1970E-04  0.9595E-06  0.6775E-04  0.1208E-01 -0.2936E-01
   -0.139993   12.16170  0.0000E+00  0.1653E-04  0.5725E-06  0.7658E-04  0.9850E-02 -0.4437E-01
   -0.174992   12.16390  0.0000E+00  0.1419E-04  0.3647E-06  0.8548E-04  0.8096E-02 -0.6427E-01
   -0.209991   12.16588  0.0000E+00  0.1240E-04  0.2459E-06  0.9438E-04  0.6664E-02 -0.8809E-01
   -0.244991   12.16770  0.0000E+00  0.1098E-04  0.1739E-06  0.1053E-03  0.5460E-02 -0.5714E-01
   -0.279991   12.16938  0.0000E+00  0.9787E-05  0.1275E-06  0.1312E-03  0.4422E-02  0.2204E+02
   -0.314991   12.17091  0.0000E+00  0.8689E-05  0.9493E-07  0.1496E-03  0.3509E-02  0.5841E+01
   -0.349991   12.17229  0.0000E+00  0.7747E-05  0.7209E-07  0.1660E-03  0.2794E-02  0.4002E+01
   -0.384991   12.17356  0.0000E+00  0.6965E-05  0.5594E-07  0.1860E-03  0.2227E-02  0.1191E+02
   -0.419992   12.17470  0.0000E+00  0.6336E-05  0.4455E-07  0.2211E-03  0.1773E-02  0.2745E+02
   -0.454992   12.17571  0.0000E+00  0.5826E-05  0.3643E-07  0.2572E-03  0.1390E-02  0.7471E+02
   -0.489993   12.17658  0.0000E+00  0.5404E-05  0.3054E-07  0.2868E-03  0.1058E-02  0.4106E+03
   -0.524994   12.17736  0.0000E+00  0.5018E-05  0.2584E-07  0.3045E-03  0.7738E-03  0.3701E+02
   -0.559995   12.17803  0.0000E+00  0.4656E-05  0.2188E-07  0.3193E-03  0.5713E-03  0.5713E+02
   -0.594996   12.17856  0.0000E+00  0.4299E-05  0.1824E-07  0.3324E-03  0.4466E-03  0.1920E+03
   -0.629997   12.17895  0.0000E+00  0.4029E-05  0.1560E-07  0.3525E-03  0.3797E-03  0.2385E+03
   -0.664998   12.17933  0.0000E+00  0.3828E-05  0.1369E-07  0.3680E-03  0.3274E-03  0.7480E+02
   -0.699999   12.17969  0.0000E+00  0.3671E-05  0.1225E-07  0.3781E-03  0.2830E-03  0.6374E+01
   -0.735001   12.18004  0.0000E+00  0.3544E-05  0.1111E-07  0.3859E-03  0.2452E-03  0.2088E+02
   -0.770002   12.18040  0.0000E+00  0.3442E-05  0.1021E-07  0.3928E-03  0.2128E-03  0.1513E+01
   -0.805003   12.18075  0.0000E+00  0.3358E-05  0.9479E-08  0.3989E-03  0.1853E-03  0.1854E+01
   -0.840004   12.18111  0.0000E+00  0.3290E-05  0.8893E-08  0.4045E-03  0.1615E-03  0.2317E+01
   -0.875005   12.18148  0.0000E+00  0.3234E-05  0.8419E-08  0.4095E-03  0.1410E-03  0.2883E+01
   -0.910006   12.18185  0.0000E+00  0.3187E-05  0.8040E-08  0.4135E-03  0.1232E-03  0.3671E+01
   -0.945006   12.18223  0.0000E+00  0.3149E-05  0.7744E-08  0.4162E-03  0.1075E-03  0.4581E+01
   -0.980007   12.18262  0.0000E+00  0.3116E-05  0.7522E-08  0.4173E-03  0.9340E-04  0.5779E+01
   -1.015008   12.18303  0.0000E+00  0.3088E-05  0.7363E-08  0.4166E-03  0.8068E-04  0.7307E+01
   -1.050008   12.18345  0.0000E+00  0.3061E-05  0.7262E-08  0.4134E-03  0.6940E-04  0.9902E+01
   -1.085008   12.18388  0.0000E+00  0.3035E-05  0.7222E-08  0.4074E-03  0.5949E-04  0.1358E+02
   -1.120008   12.18434  0.0000E+00  0.3009E-05  0.7250E-08  0.3978E-03  0.5077E-04  0.1949E+02
   -1.155008   12.18482  0.0000E+00  0.2981E-05  0.7359E-08  0.3844E-03  0.4284E-04  0.2670E+02
   -1.190007   12.18534  0.0000E+00  0.2952E-05  0.7573E-08  0.3659E-03  0.3552E-04  0.3688E+02
   -1.225007   12.18590  0.0000E+00  0.2914E-05  0.7966E-08  0.3413E-03  0.2881E-04  0.5076E+02
   -1.260006   12.18651  0.0000E+00  0.2859E-05  0.8746E-08  0.2982E-03  0.2302E-04  0.8437E+02
   -1.295004   12.18722  0.0000E+00  0.2742E-05  0.1082E-07  0.2446E-03  0.1821E-04  0.2212E+03
   -1.330003   12.18811  0.0000E+00  0.2517E-05  0.1632E-07  0.1582E-03  0.1483E-04  0.9744E+04
   -1.365001   12.19023  0.0000E+00  0.1683E-05  0.4641E-07  0.1978E-04  0.1113E-04 -0.5839E+06
   -1.399999   12.20455  0.0000E+00  0.0000E+00  0.0000E+00  0.0000E+00  0.1166E-04  0.0000E+00
