 1 - depth, m
 2 - temperature, C
 3 - salinity, kg/kg
 4 - turbulent kinetic energy, m**2/s**2
 5 - dissipation rate, m**2/s**3
 6 - kinematic heat conductance, m**2/s
 7 - modulus of horizontal velocity, m/s
 8 - Richardson number, n/d
   -0.000000    0.00000  0.0000E+00  0.4702E-13  0.1132E-15  0.1000E-09  0.0000E+00  0.1111E+17
   -0.034998    0.17052  0.0000E+00  0.4702E-13  0.1132E-15  0.1000E-09  0.0000E+00  0.1066E+17
   -0.069996    0.34210  0.0000E+00  0.4702E-13  0.1132E-15  0.1000E-09  0.0000E+00  0.1021E+17
   -0.104994    0.51490  0.0000E+00  0.4702E-13  0.1132E-15  0.1000E-09  0.0000E+00  0.9617E+16
   -0.139993    0.68652  0.0000E+00  0.4702E-13  0.1132E-15  0.1000E-09  0.0000E+00  0.8970E+16
   -0.174992    0.85554  0.0000E+00  0.4702E-13  0.1132E-15  0.1000E-09  0.0000E+00  0.8349E+16
   -0.209991    1.02199  0.0000E+00  0.1007E-12  0.1132E-15  0.1000E-09  0.0000E+00  0.7753E+16
   -0.244990    1.18586  0.0000E+00  0.3439E-12  0.1151E-15  0.1000E-09  0.0000E+00  0.7181E+16
   -0.279990    1.34715  0.0000E+00  0.7839E-12  0.1725E-15  0.1000E-09  0.0000E+00  0.6632E+16
   -0.314990    1.50584  0.0000E+00  0.1531E-11  0.2918E-15  0.1000E-09  0.0000E+00  0.6076E+16
   -0.349990    1.66114  0.0000E+00  0.2819E-11  0.5063E-15  0.1000E-09  0.0000E+00  0.5536E+16
   -0.384990    1.81267  0.0000E+00  0.5049E-11  0.8791E-15  0.1000E-09  0.0000E+00  0.5016E+16
   -0.419990    1.96011  0.0000E+00  0.8898E-11  0.1516E-14  0.1000E-09  0.0000E+00  0.4584E+16
   -0.454991    2.10527  0.0000E+00  0.1553E-10  0.2597E-14  0.1000E-09  0.0000E+00  0.4220E+16
   -0.489991    2.24994  0.0000E+00  0.2695E-10  0.4431E-14  0.1000E-09  0.0000E+00  0.3883E+16
   -0.524992    2.39503  0.0000E+00  0.4869E-10  0.7867E-14  0.1000E-09  0.0000E+00  0.3649E+16
   -0.559993    2.54496  0.0000E+00  0.9218E-10  0.1464E-13  0.1000E-09  0.0000E+00  0.3457E+16
   -0.594994    2.70348  0.0000E+00  0.1850E-09  0.2887E-13  0.1000E-09  0.0000E+00  0.3211E+16
   -0.629995    2.87123  0.0000E+00  0.3372E-09  0.5186E-13  0.1000E-09  0.0000E+00  0.2722E+16
   -0.664996    3.03680  0.0000E+00  0.5852E-09  0.8869E-13  0.1050E-09  0.0000E+00  0.2252E+16
   -0.699997    3.20017  0.0000E+00  0.9972E-09  0.1489E-12  0.2142E-09  0.0000E+00  0.1801E+16
   -0.734998    3.36133  0.0000E+00  0.1691E-08  0.2486E-12  0.4662E-09  0.0000E+00  0.1383E+16
   -0.769999    3.52197  0.0000E+00  0.2859E-08  0.4140E-12  0.1088E-08  0.0000E+00  0.9873E+15
   -0.805000    3.68575  0.0000E+00  0.4821E-08  0.6875E-12  0.3154E-08  0.0000E+00  0.5661E+15
   -0.840001    3.85094  0.0000E+00  0.8033E-08  0.1130E-11  0.2082E-07  0.0000E+00  0.1421E+15
   -0.875001    4.00161  0.0000E+00  0.8885E-08  0.1255E-11  0.2362E-04  0.0000E+00 -0.2602E+12
   -0.910002    4.00268  0.0000E+00  0.9289E-08  0.1325E-11  0.2554E-04  0.0000E+00 -0.2603E+12
   -0.945003    4.00367  0.0000E+00  0.9636E-08  0.1396E-11  0.2615E-04  0.0000E+00 -0.2736E+12
   -0.980003    4.00465  0.0000E+00  0.9951E-08  0.1471E-11  0.2647E-04  0.0000E+00 -0.2906E+12
   -1.015004    4.00564  0.0000E+00  0.1025E-07  0.1555E-11  0.2668E-04  0.0000E+00 -0.3163E+12
   -1.050004    4.00666  0.0000E+00  0.1054E-07  0.1652E-11  0.2668E-04  0.0000E+00 -0.3487E+12
   -1.085004    4.00773  0.0000E+00  0.1081E-07  0.1766E-11  0.2636E-04  0.0000E+00 -0.3823E+12
   -1.120004    4.00884  0.0000E+00  0.1106E-07  0.1901E-11  0.2567E-04  0.0000E+00 -0.4161E+12
   -1.155003    4.01000  0.0000E+00  0.1128E-07  0.2061E-11  0.2467E-04  0.0000E+00 -0.4591E+12
   -1.190003    4.01121  0.0000E+00  0.1148E-07  0.2261E-11  0.2333E-04  0.0000E+00 -0.5225E+12
   -1.225002    4.01251  0.0000E+00  0.1166E-07  0.2544E-11  0.2168E-04  0.0000E+00 -0.6538E+12
   -1.260001    4.01406  0.0000E+00  0.1180E-07  0.3008E-11  0.1932E-04  0.0000E+00 -0.9423E+12
   -1.294999    4.01616  0.0000E+00  0.1185E-07  0.4176E-11  0.1457E-04  0.0000E+00 -0.1787E+13
   -1.329998    4.01977  0.0000E+00  0.1125E-07  0.7135E-11  0.5509E-05  0.0000E+00 -0.5240E+13
   -1.364996    4.02861  0.0000E+00  0.8461E-08  0.1861E-10  0.8236E-06  0.0000E+00 -0.4550E+14
   -1.399993    4.07351  0.0000E+00  0.0000E+00  0.0000E+00  0.0000E+00  0.0000E+00  0.0000E+00
