 1 - depth, m
 2 - temperature, C
 3 - salinity, kg/kg
 4 - turbulent kinetic energy, m**2/s**2
 5 - dissipation rate, m**2/s**3
 6 - kinematic heat conductance, m**2/s
 7 - modulus of horizontal velocity, m/s
 8 - Richardson number, n/d
   -0.000000    0.00000  0.0000E+00  0.7305E-08  0.1937E-10  0.8180E-09  0.0000E+00  0.6095E+17
   -0.034998    1.06441  0.0000E+00  0.3881E-07  0.1428E-10  0.9100E-09  0.0000E+00  0.4062E+17
   -0.069996    2.10202  0.0000E+00  0.9519E-07  0.1729E-10  0.2022E-08  0.0000E+00  0.2233E+17
   -0.104995    3.11293  0.0000E+00  0.1812E-06  0.2538E-10  0.1180E-07  0.0000E+00  0.6009E+16
   -0.139994    4.05141  0.0000E+00  0.1822E-06  0.2550E-10  0.4159E-03  0.0000E+00 -0.3575E+12
   -0.174993    4.05176  0.0000E+00  0.1827E-06  0.2556E-10  0.4114E-03  0.0000E+00 -0.3310E+12
   -0.209992    4.05212  0.0000E+00  0.1831E-06  0.2563E-10  0.4124E-03  0.0000E+00 -0.3248E+12
   -0.244992    4.05246  0.0000E+00  0.1835E-06  0.2570E-10  0.4191E-03  0.0000E+00 -0.2866E+12
   -0.279992    4.05280  0.0000E+00  0.1839E-06  0.2577E-10  0.4221E-03  0.0000E+00 -0.3497E+12
   -0.314992    4.05313  0.0000E+00  0.1842E-06  0.2585E-10  0.4210E-03  0.0000E+00 -0.2855E+12
   -0.349992    4.05346  0.0000E+00  0.1845E-06  0.2594E-10  0.4212E-03  0.0000E+00 -0.3505E+12
   -0.384993    4.05379  0.0000E+00  0.1848E-06  0.2604E-10  0.4133E-03  0.0000E+00 -0.3272E+12
   -0.419994    4.05413  0.0000E+00  0.1850E-06  0.2616E-10  0.4128E-03  0.0000E+00 -0.3253E+12
   -0.454994    4.05446  0.0000E+00  0.1853E-06  0.2628E-10  0.4119E-03  0.0000E+00 -0.3257E+12
   -0.489995    4.05479  0.0000E+00  0.1855E-06  0.2642E-10  0.4108E-03  0.0000E+00 -0.3282E+12
   -0.524996    4.05512  0.0000E+00  0.1856E-06  0.2658E-10  0.4090E-03  0.0000E+00 -0.3289E+12
   -0.559997    4.05545  0.0000E+00  0.1859E-06  0.2681E-10  0.4063E-03  0.0000E+00 -0.3392E+12
   -0.594999    4.05579  0.0000E+00  0.1861E-06  0.2715E-10  0.4024E-03  0.0000E+00 -0.3357E+12
   -0.630000    4.05613  0.0000E+00  0.1864E-06  0.2753E-10  0.3982E-03  0.0000E+00 -0.3450E+12
   -0.665001    4.05647  0.0000E+00  0.1866E-06  0.2795E-10  0.3933E-03  0.0000E+00 -0.3516E+12
   -0.700002    4.05682  0.0000E+00  0.1867E-06  0.2840E-10  0.3881E-03  0.0000E+00 -0.3577E+12
   -0.735004    4.05717  0.0000E+00  0.1869E-06  0.2890E-10  0.3822E-03  0.0000E+00 -0.3660E+12
   -0.770005    4.05753  0.0000E+00  0.1870E-06  0.2945E-10  0.3759E-03  0.0000E+00 -0.3726E+12
   -0.805006    4.05789  0.0000E+00  0.1871E-06  0.3006E-10  0.3688E-03  0.0000E+00 -0.3825E+12
   -0.840007    4.05826  0.0000E+00  0.1872E-06  0.3073E-10  0.3613E-03  0.0000E+00 -0.3902E+12
   -0.875008    4.05863  0.0000E+00  0.1872E-06  0.3148E-10  0.3764E-03  0.0000E+00 -0.3482E+12
   -0.910009    4.05899  0.0000E+00  0.1872E-06  0.3231E-10  0.3376E-03  0.0000E+00 -0.4536E+12
   -0.945010    4.05939  0.0000E+00  0.1872E-06  0.3323E-10  0.3593E-03  0.0000E+00 -0.3727E+12
   -0.980011    4.05977  0.0000E+00  0.1871E-06  0.3427E-10  0.3174E-03  0.0000E+00 -0.4854E+12
   -1.015012    4.06019  0.0000E+00  0.1869E-06  0.3546E-10  0.3396E-03  0.0000E+00 -0.4034E+12
   -1.050012    4.06059  0.0000E+00  0.1868E-06  0.3690E-10  0.2927E-03  0.0000E+00 -0.5342E+12
   -1.085012    4.06106  0.0000E+00  0.1865E-06  0.3861E-10  0.3161E-03  0.0000E+00 -0.4451E+12
   -1.120013    4.06149  0.0000E+00  0.1862E-06  0.4074E-10  0.2634E-03  0.0000E+00 -0.6000E+12
   -1.155012    4.06200  0.0000E+00  0.1858E-06  0.4329E-10  0.2846E-03  0.0000E+00 -0.5100E+12
   -1.190012    4.06249  0.0000E+00  0.1853E-06  0.4658E-10  0.2293E-03  0.0000E+00 -0.6993E+12
   -1.225012    4.06308  0.0000E+00  0.1846E-06  0.5129E-10  0.2153E-03  0.0000E+00 -0.7317E+12
   -1.260011    4.06372  0.0000E+00  0.1834E-06  0.5949E-10  0.1856E-03  0.0000E+00 -0.8870E+12
   -1.295010    4.06448  0.0000E+00  0.1807E-06  0.7939E-10  0.1487E-03  0.0000E+00 -0.1190E+13
   -1.330008    4.06552  0.0000E+00  0.1741E-06  0.1333E-09  0.6632E-04  0.0000E+00 -0.2776E+13
   -1.365007    4.06795  0.0000E+00  0.1217E-06  0.6577E-09  0.3158E-05  0.0000E+00 -0.7105E+14
   -1.400005    4.11271  0.0000E+00  0.0000E+00  0.0000E+00  0.0000E+00  0.0000E+00  0.0000E+00
