 1 - depth, m
 2 - temperature, C
 3 - salinity, kg/kg
 4 - turbulent kinetic energy, m**2/s**2
 5 - dissipation rate, m**2/s**3
 6 - kinematic heat conductance, m**2/s
 7 - modulus of horizontal velocity, m/s
 8 - Richardson number, n/d
   -0.000000    0.00000  0.0000E+00  0.4702E-13  0.1132E-15  0.1000E-09  0.0000E+00  0.1010E+17
   -0.034998    0.15478  0.0000E+00  0.4702E-13  0.1132E-15  0.1000E-09  0.0000E+00  0.9734E+16
   -0.069996    0.31047  0.0000E+00  0.4702E-13  0.1132E-15  0.1000E-09  0.0000E+00  0.9365E+16
   -0.104994    0.46718  0.0000E+00  0.4702E-13  0.1132E-15  0.1000E-09  0.0000E+00  0.8896E+16
   -0.139993    0.62321  0.0000E+00  0.4702E-13  0.1132E-15  0.1000E-09  0.0000E+00  0.8382E+16
   -0.174992    0.77756  0.0000E+00  0.4702E-13  0.1132E-15  0.1000E-09  0.0000E+00  0.7883E+16
   -0.209991    0.93025  0.0000E+00  0.4702E-13  0.1132E-15  0.1000E-09  0.0000E+00  0.7399E+16
   -0.244990    1.08123  0.0000E+00  0.6562E-13  0.1132E-15  0.1000E-09  0.0000E+00  0.6928E+16
   -0.279990    1.23049  0.0000E+00  0.2723E-12  0.1132E-15  0.1000E-09  0.0000E+00  0.6471E+16
   -0.314990    1.37798  0.0000E+00  0.6765E-12  0.1687E-15  0.1000E-09  0.0000E+00  0.6052E+16
   -0.349990    1.52426  0.0000E+00  0.1389E-11  0.2938E-15  0.1000E-09  0.0000E+00  0.5642E+16
   -0.384990    1.66929  0.0000E+00  0.2644E-11  0.5248E-15  0.1000E-09  0.0000E+00  0.5238E+16
   -0.419990    1.81294  0.0000E+00  0.4853E-11  0.9327E-15  0.1000E-09  0.0000E+00  0.4854E+16
   -0.454991    1.95545  0.0000E+00  0.8753E-11  0.1644E-14  0.1000E-09  0.0000E+00  0.4498E+16
   -0.489991    2.09743  0.0000E+00  0.1565E-10  0.2883E-14  0.1000E-09  0.0000E+00  0.4181E+16
   -0.524992    2.24006  0.0000E+00  0.2912E-10  0.5261E-14  0.1000E-09  0.0000E+00  0.4021E+16
   -0.559993    2.38955  0.0000E+00  0.5671E-10  0.1005E-13  0.1000E-09  0.0000E+00  0.3935E+16
   -0.594994    2.55131  0.0000E+00  0.1169E-09  0.2035E-13  0.1000E-09  0.0000E+00  0.3782E+16
   -0.629995    2.72667  0.0000E+00  0.2181E-09  0.3736E-13  0.1000E-09  0.0000E+00  0.3237E+16
   -0.664996    2.89953  0.0000E+00  0.3872E-09  0.6526E-13  0.1000E-09  0.0000E+00  0.2714E+16
   -0.699997    3.06975  0.0000E+00  0.6751E-09  0.1119E-12  0.1308E-09  0.0000E+00  0.2216E+16
   -0.734998    3.23740  0.0000E+00  0.1171E-08  0.1910E-12  0.2825E-09  0.0000E+00  0.1751E+16
   -0.769999    3.40349  0.0000E+00  0.2026E-08  0.3248E-12  0.6402E-09  0.0000E+00  0.1314E+16
   -0.805000    3.57013  0.0000E+00  0.3495E-08  0.5510E-12  0.1637E-08  0.0000E+00  0.8716E+15
   -0.840001    3.73628  0.0000E+00  0.5992E-08  0.9296E-12  0.5590E-08  0.0000E+00  0.4305E+15
   -0.875002    3.89850  0.0000E+00  0.9964E-08  0.1526E-11  0.7067E-07  0.0000E+00  0.5547E+14
   -0.910002    4.01147  0.0000E+00  0.1075E-07  0.1654E-11  0.2863E-04  0.0000E+00 -0.3328E+12
   -0.945003    4.01230  0.0000E+00  0.1113E-07  0.1725E-11  0.2839E-04  0.0000E+00 -0.3465E+12
   -0.980003    4.01314  0.0000E+00  0.1148E-07  0.1803E-11  0.2871E-04  0.0000E+00 -0.3538E+12
   -1.015004    4.01396  0.0000E+00  0.1179E-07  0.1889E-11  0.2891E-04  0.0000E+00 -0.3685E+12
   -1.050004    4.01480  0.0000E+00  0.1209E-07  0.1987E-11  0.2886E-04  0.0000E+00 -0.3893E+12
   -1.085004    4.01566  0.0000E+00  0.1236E-07  0.2102E-11  0.2861E-04  0.0000E+00 -0.4174E+12
   -1.120004    4.01656  0.0000E+00  0.1260E-07  0.2238E-11  0.2792E-04  0.0000E+00 -0.4433E+12
   -1.155004    4.01748  0.0000E+00  0.1281E-07  0.2400E-11  0.2692E-04  0.0000E+00 -0.4771E+12
   -1.190003    4.01844  0.0000E+00  0.1299E-07  0.2601E-11  0.2555E-04  0.0000E+00 -0.5303E+12
   -1.225002    4.01948  0.0000E+00  0.1314E-07  0.2886E-11  0.2387E-04  0.0000E+00 -0.6518E+12
   -1.260001    4.02071  0.0000E+00  0.1325E-07  0.3353E-11  0.2140E-04  0.0000E+00 -0.9246E+12
   -1.295000    4.02238  0.0000E+00  0.1321E-07  0.4489E-11  0.1683E-04  0.0000E+00 -0.1652E+13
   -1.329998    4.02520  0.0000E+00  0.1248E-07  0.7324E-11  0.6477E-05  0.0000E+00 -0.4422E+13
   -1.364996    4.03189  0.0000E+00  0.9068E-08  0.1936E-10  0.8360E-06  0.0000E+00 -0.3819E+14
   -1.399994    4.06972  0.0000E+00  0.0000E+00  0.0000E+00  0.0000E+00  0.0000E+00  0.0000E+00
