 1 - depth, m
 2 - temperature, C
 3 - salinity, kg/kg
 4 - turbulent kinetic energy, m**2/s**2
 5 - dissipation rate, m**2/s**3
 6 - kinematic heat conductance, m**2/s
 7 - modulus of horizontal velocity, m/s
 8 - Richardson number, n/d
   -0.000000    0.00000  0.0000E+00  0.4702E-13  0.1132E-15  0.1000E-09  0.0000E+00  0.9414E+16
   -0.034998    0.14400  0.0000E+00  0.4702E-13  0.1132E-15  0.1000E-09  0.0000E+00  0.9158E+16
   -0.069996    0.28983  0.0000E+00  0.4702E-13  0.1132E-15  0.1000E-09  0.0000E+00  0.8892E+16
   -0.104995    0.43752  0.0000E+00  0.4702E-13  0.1132E-15  0.1000E-09  0.0000E+00  0.8516E+16
   -0.139993    0.58536  0.0000E+00  0.4702E-13  0.1132E-15  0.1000E-09  0.0000E+00  0.8085E+16
   -0.174992    0.73228  0.0000E+00  0.4702E-13  0.1132E-15  0.1000E-09  0.0000E+00  0.7658E+16
   -0.209992    0.87822  0.0000E+00  0.4702E-13  0.1132E-15  0.1000E-09  0.0000E+00  0.7236E+16
   -0.244991    1.02308  0.0000E+00  0.4702E-13  0.1132E-15  0.1000E-09  0.0000E+00  0.6820E+16
   -0.279991    1.16676  0.0000E+00  0.4702E-13  0.1132E-15  0.1000E-09  0.0000E+00  0.6410E+16
   -0.314991    1.30918  0.0000E+00  0.1290E-12  0.1132E-15  0.1000E-09  0.0000E+00  0.6032E+16
   -0.349991    1.45084  0.0000E+00  0.4073E-12  0.1305E-15  0.1000E-09  0.0000E+00  0.5659E+16
   -0.384992    1.59168  0.0000E+00  0.9239E-12  0.2161E-15  0.1000E-09  0.0000E+00  0.5288E+16
   -0.419992    1.73156  0.0000E+00  0.1834E-11  0.3860E-15  0.1000E-09  0.0000E+00  0.4930E+16
   -0.454993    1.87062  0.0000E+00  0.3444E-11  0.6928E-15  0.1000E-09  0.0000E+00  0.4596E+16
   -0.489994    2.00936  0.0000E+00  0.6316E-11  0.1237E-14  0.1000E-09  0.0000E+00  0.4297E+16
   -0.524995    2.14884  0.0000E+00  0.1199E-10  0.2298E-14  0.1000E-09  0.0000E+00  0.4150E+16
   -0.559996    2.29479  0.0000E+00  0.2378E-10  0.4465E-14  0.1000E-09  0.0000E+00  0.4081E+16
   -0.594997    2.45220  0.0000E+00  0.4987E-10  0.9185E-14  0.1000E-09  0.0000E+00  0.3952E+16
   -0.629998    2.62230  0.0000E+00  0.9435E-10  0.1710E-13  0.1000E-09  0.0000E+00  0.3436E+16
   -0.664999    2.79019  0.0000E+00  0.1698E-09  0.3028E-13  0.1000E-09  0.0000E+00  0.2937E+16
   -0.700000    2.95565  0.0000E+00  0.3004E-09  0.5266E-13  0.1000E-09  0.0000E+00  0.2461E+16
   -0.735001    3.11871  0.0000E+00  0.5289E-09  0.9114E-13  0.1170E-09  0.0000E+00  0.2018E+16
   -0.770003    3.28037  0.0000E+00  0.9286E-09  0.1573E-12  0.2540E-09  0.0000E+00  0.1604E+16
   -0.805004    3.44269  0.0000E+00  0.1626E-08  0.2709E-12  0.5919E-09  0.0000E+00  0.1185E+16
   -0.840005    3.60512  0.0000E+00  0.2835E-08  0.4645E-12  0.1574E-08  0.0000E+00  0.7641E+15
   -0.875006    3.76672  0.0000E+00  0.4922E-08  0.7932E-12  0.5898E-08  0.0000E+00  0.3479E+15
   -0.910007    3.92380  0.0000E+00  0.8114E-08  0.1294E-11  0.1254E-06  0.0000E+00  0.2642E+14
   -0.945008    4.00965  0.0000E+00  0.9016E-08  0.1445E-11  0.2358E-04  0.0000E+00 -0.3577E+12
   -0.980008    4.01061  0.0000E+00  0.9425E-08  0.1526E-11  0.2362E-04  0.0000E+00 -0.3702E+12
   -1.015009    4.01156  0.0000E+00  0.9774E-08  0.1609E-11  0.2397E-04  0.0000E+00 -0.3831E+12
   -1.050009    4.01251  0.0000E+00  0.1010E-07  0.1703E-11  0.2413E-04  0.0000E+00 -0.4020E+12
   -1.085009    4.01347  0.0000E+00  0.1040E-07  0.1812E-11  0.2410E-04  0.0000E+00 -0.4315E+12
   -1.120009    4.01447  0.0000E+00  0.1067E-07  0.1940E-11  0.2365E-04  0.0000E+00 -0.4591E+12
   -1.155009    4.01549  0.0000E+00  0.1091E-07  0.2091E-11  0.2289E-04  0.0000E+00 -0.4959E+12
   -1.190009    4.01656  0.0000E+00  0.1112E-07  0.2287E-11  0.2175E-04  0.0000E+00 -0.5550E+12
   -1.225008    4.01771  0.0000E+00  0.1132E-07  0.2574E-11  0.2029E-04  0.0000E+00 -0.6922E+12
   -1.260007    4.01909  0.0000E+00  0.1148E-07  0.3026E-11  0.1828E-04  0.0000E+00 -0.9958E+12
   -1.295006    4.02097  0.0000E+00  0.1153E-07  0.4102E-11  0.1420E-04  0.0000E+00 -0.1838E+13
   -1.330005    4.02421  0.0000E+00  0.1089E-07  0.6728E-11  0.5486E-05  0.0000E+00 -0.4973E+13
   -1.365003    4.03183  0.0000E+00  0.7963E-08  0.1695E-10  0.7640E-06  0.0000E+00 -0.4003E+14
   -1.400001    4.07108  0.0000E+00  0.0000E+00  0.0000E+00  0.0000E+00  0.0000E+00  0.0000E+00
