 1 - depth, m
 2 - temperature, C
 3 - salinity, kg/kg
 4 - turbulent kinetic energy, m**2/s**2
 5 - dissipation rate, m**2/s**3
 6 - kinematic heat conductance, m**2/s
 7 - modulus of horizontal velocity, m/s
 8 - Richardson number, n/d
   -0.000000    7.90689  0.0000E+00  0.3615E-04  0.5743E-05  0.2528E-04  0.4218E-01 -0.2236E-01
   -0.034998    7.94546  0.0000E+00  0.2546E-04  0.1751E-05  0.4417E-04  0.2159E-01 -0.1004E-01
   -0.069996    7.95842  0.0000E+00  0.2082E-04  0.8302E-06  0.6013E-04  0.1608E-01 -0.1808E-01
   -0.104994    7.96753  0.0000E+00  0.1781E-04  0.4783E-06  0.7431E-04  0.1271E-01 -0.2717E-01
   -0.139993    7.97476  0.0000E+00  0.1564E-04  0.3098E-06  0.8729E-04  0.1027E-01 -0.3792E-01
   -0.174992    7.98083  0.0000E+00  0.1397E-04  0.2169E-06  0.9946E-04  0.8397E-02 -0.5072E-01
   -0.209992    7.98605  0.0000E+00  0.1263E-04  0.1604E-06  0.1107E-03  0.6903E-02 -0.6500E-01
   -0.244991    7.99066  0.0000E+00  0.1150E-04  0.1233E-06  0.1209E-03  0.5670E-02 -0.8014E-01
   -0.279991    7.99480  0.0000E+00  0.1049E-04  0.9704E-07  0.1296E-03  0.4620E-02 -0.9363E-01
   -0.314991    7.99858  0.0000E+00  0.9528E-05  0.7708E-07  0.1428E-03  0.3696E-02 -0.1108E+00
   -0.349991    8.00196  0.0000E+00  0.8688E-05  0.6215E-07  0.1619E-03  0.2973E-02  0.1248E-01
   -0.384992    8.00490  0.0000E+00  0.7988E-05  0.5112E-07  0.2393E-03  0.2399E-02  0.7675E+04
   -0.419992    8.00708  0.0000E+00  0.7431E-05  0.4316E-07  0.3572E-03  0.1951E-02  0.3137E+04
   -0.454993    8.00848  0.0000E+00  0.6973E-05  0.3718E-07  0.4009E-03  0.1576E-02  0.4876E+01
   -0.489994    8.00963  0.0000E+00  0.6570E-05  0.3242E-07  0.3960E-03  0.1231E-02  0.7729E+01
   -0.524994    8.01075  0.0000E+00  0.6185E-05  0.2831E-07  0.4190E-03  0.9162E-03  0.7224E+01
   -0.559995    8.01182  0.0000E+00  0.5817E-05  0.2468E-07  0.4415E-03  0.6853E-03  0.6601E+00
   -0.594996    8.01283  0.0000E+00  0.5460E-05  0.2134E-07  0.4488E-03  0.5389E-03  0.4732E+00
   -0.629998    8.01385  0.0000E+00  0.5190E-05  0.1891E-07  0.4554E-03  0.4632E-03  0.5429E+00
   -0.664999    8.01483  0.0000E+00  0.4977E-05  0.1705E-07  0.4614E-03  0.4047E-03  0.5539E+00
   -0.700000    8.01579  0.0000E+00  0.4796E-05  0.1551E-07  0.4689E-03  0.3521E-03  0.5814E+00
   -0.735001    8.01673  0.0000E+00  0.4642E-05  0.1426E-07  0.4763E-03  0.3061E-03  0.6021E+00
   -0.770002    8.01764  0.0000E+00  0.4512E-05  0.1324E-07  0.4833E-03  0.2667E-03  0.6163E+00
   -0.805003    8.01853  0.0000E+00  0.4401E-05  0.1240E-07  0.4893E-03  0.2334E-03  0.6321E+00
   -0.840004    8.01941  0.0000E+00  0.4307E-05  0.1173E-07  0.4941E-03  0.2052E-03  0.6679E+00
   -0.875005    8.02026  0.0000E+00  0.4224E-05  0.1118E-07  0.4976E-03  0.1813E-03  0.7296E+00
   -0.910006    8.02110  0.0000E+00  0.4150E-05  0.1073E-07  0.4999E-03  0.1606E-03  0.8395E+00
   -0.945007    8.02193  0.0000E+00  0.4083E-05  0.1037E-07  0.5005E-03  0.1422E-03  0.9720E+00
   -0.980008    8.02275  0.0000E+00  0.4022E-05  0.1008E-07  0.4992E-03  0.1254E-03  0.1139E+01
   -1.015008    8.02356  0.0000E+00  0.3963E-05  0.9866E-08  0.4954E-03  0.1100E-03  0.1356E+01
   -1.050008    8.02438  0.0000E+00  0.3906E-05  0.9719E-08  0.4887E-03  0.9601E-04  0.1715E+01
   -1.085009    8.02519  0.0000E+00  0.3849E-05  0.9647E-08  0.4785E-03  0.8348E-04  0.2212E+01
   -1.120009    8.02602  0.0000E+00  0.3791E-05  0.9664E-08  0.4643E-03  0.7227E-04  0.2950E+01
   -1.155008    8.02687  0.0000E+00  0.3733E-05  0.9794E-08  0.4458E-03  0.6187E-04  0.3802E+01
   -1.190008    8.02775  0.0000E+00  0.3674E-05  0.1008E-07  0.4210E-03  0.5214E-04  0.4935E+01
   -1.225007    8.02867  0.0000E+00  0.3607E-05  0.1062E-07  0.3915E-03  0.4303E-04  0.6531E+01
   -1.260006    8.02965  0.0000E+00  0.3516E-05  0.1175E-07  0.3300E-03  0.3500E-04  0.1100E+02
   -1.295005    8.03083  0.0000E+00  0.3342E-05  0.1484E-07  0.2934E-03  0.2797E-04  0.2298E+02
   -1.330004    8.03217  0.0000E+00  0.2988E-05  0.2422E-07  0.1563E-03  0.2354E-04 -0.1116E+04
   -1.365002    8.03775  0.0000E+00  0.1930E-05  0.6825E-07  0.2959E-04  0.1684E-04 -0.1447E+05
   -1.400000    8.05356  0.0000E+00  0.0000E+00  0.0000E+00  0.0000E+00  0.1832E-04  0.0000E+00
