 1 - depth, m
 2 - temperature, C
 3 - salinity, kg/kg
 4 - turbulent kinetic energy, m**2/s**2
 5 - dissipation rate, m**2/s**3
 6 - kinematic heat conductance, m**2/s
 7 - modulus of horizontal velocity, m/s
 8 - Richardson number, n/d
   -0.000000    0.00000  0.0000E+00  0.4702E-13  0.1132E-15  0.1000E-09  0.0000E+00  0.1120E+17
   -0.034998    0.17202  0.0000E+00  0.4702E-13  0.1132E-15  0.1000E-09  0.0000E+00  0.1073E+17
   -0.069996    0.34485  0.0000E+00  0.4702E-13  0.1132E-15  0.1000E-09  0.0000E+00  0.1023E+17
   -0.104994    0.51824  0.0000E+00  0.4702E-13  0.1132E-15  0.1000E-09  0.0000E+00  0.9625E+16
   -0.139993    0.69019  0.0000E+00  0.4702E-13  0.1132E-15  0.1000E-09  0.0000E+00  0.8968E+16
   -0.174992    0.85938  0.0000E+00  0.4702E-13  0.1132E-15  0.1000E-09  0.0000E+00  0.8322E+16
   -0.209991    1.02550  0.0000E+00  0.4702E-13  0.1132E-15  0.1000E-09  0.0000E+00  0.7690E+16
   -0.244990    1.18823  0.0000E+00  0.4702E-13  0.1132E-15  0.1000E-09  0.0000E+00  0.7077E+16
   -0.279990    1.34726  0.0000E+00  0.4702E-13  0.1132E-15  0.1000E-09  0.0000E+00  0.6483E+16
   -0.314990    1.50229  0.0000E+00  0.4702E-13  0.1132E-15  0.1000E-09  0.0000E+00  0.5947E+16
   -0.349990    1.65392  0.0000E+00  0.4702E-13  0.1132E-15  0.1000E-09  0.0000E+00  0.5428E+16
   -0.384990    1.80188  0.0000E+00  0.4702E-13  0.1132E-15  0.1000E-09  0.0000E+00  0.4925E+16
   -0.419991    1.94574  0.0000E+00  0.1516E-12  0.1132E-15  0.1000E-09  0.0000E+00  0.4457E+16
   -0.454991    2.08562  0.0000E+00  0.4515E-12  0.1362E-15  0.1000E-09  0.0000E+00  0.4034E+16
   -0.489992    2.22210  0.0000E+00  0.9961E-12  0.2261E-15  0.1000E-09  0.0000E+00  0.3661E+16
   -0.524993    2.35610  0.0000E+00  0.2053E-11  0.4197E-15  0.1000E-09  0.0000E+00  0.3438E+16
   -0.559993    2.49316  0.0000E+00  0.4221E-11  0.8228E-15  0.1000E-09  0.0000E+00  0.3275E+16
   -0.594994    2.63698  0.0000E+00  0.9003E-11  0.1705E-14  0.1000E-09  0.0000E+00  0.3067E+16
   -0.629995    2.78754  0.0000E+00  0.1715E-10  0.3187E-14  0.1000E-09  0.0000E+00  0.2587E+16
   -0.664996    2.93150  0.0000E+00  0.3101E-10  0.5659E-14  0.1000E-09  0.0000E+00  0.2149E+16
   -0.699997    3.06844  0.0000E+00  0.5501E-10  0.9863E-14  0.1000E-09  0.0000E+00  0.1756E+16
   -0.734998    3.19806  0.0000E+00  0.9707E-10  0.1710E-13  0.1000E-09  0.0000E+00  0.1425E+16
   -0.769999    3.32185  0.0000E+00  0.1708E-09  0.2955E-13  0.1000E-09  0.0000E+00  0.1163E+16
   -0.805000    3.44374  0.0000E+00  0.2996E-09  0.5094E-13  0.1452E-09  0.0000E+00  0.9112E+15
   -0.840001    3.56329  0.0000E+00  0.5232E-09  0.8743E-13  0.3383E-09  0.0000E+00  0.6717E+15
   -0.875002    3.68023  0.0000E+00  0.9113E-09  0.1497E-12  0.8708E-09  0.0000E+00  0.4474E+15
   -0.910003    3.79447  0.0000E+00  0.1580E-08  0.2551E-12  0.2834E-08  0.0000E+00  0.2352E+15
   -0.945004    3.90349  0.0000E+00  0.2694E-08  0.4285E-12  0.2157E-07  0.0000E+00  0.5320E+14
   -0.980004    3.99653  0.0000E+00  0.3427E-08  0.5479E-12  0.7222E-05  0.0000E+00 -0.3492E+12
   -1.015005    3.99858  0.0000E+00  0.3834E-08  0.6296E-12  0.7967E-05  0.0000E+00 -0.3719E+12
   -1.050005    4.00041  0.0000E+00  0.4223E-08  0.7247E-12  0.8375E-05  0.0000E+00 -0.4063E+12
   -1.085005    4.00216  0.0000E+00  0.4604E-08  0.8399E-12  0.8725E-05  0.0000E+00 -0.4634E+12
   -1.120005    4.00394  0.0000E+00  0.4974E-08  0.9810E-12  0.8517E-05  0.0000E+00 -0.5353E+12
   -1.155004    4.00579  0.0000E+00  0.5340E-08  0.1162E-11  0.8034E-05  0.0000E+00 -0.6403E+12
   -1.190004    4.00780  0.0000E+00  0.5719E-08  0.1408E-11  0.7417E-05  0.0000E+00 -0.8084E+12
   -1.225003    4.01008  0.0000E+00  0.6155E-08  0.1787E-11  0.7059E-05  0.0000E+00 -0.1152E+13
   -1.260002    4.01300  0.0000E+00  0.6680E-08  0.2437E-11  0.6782E-05  0.0000E+00 -0.1918E+13
   -1.295001    4.01726  0.0000E+00  0.7303E-08  0.3882E-11  0.5576E-05  0.0000E+00 -0.4232E+13
   -1.329999    4.02502  0.0000E+00  0.7367E-08  0.6573E-11  0.2735E-05  0.0000E+00 -0.1080E+14
   -1.364997    4.03996  0.0000E+00  0.6158E-08  0.1451E-10  0.6587E-06  0.0000E+00 -0.6206E+14
   -1.399995    4.09028  0.0000E+00  0.0000E+00  0.0000E+00  0.0000E+00  0.0000E+00  0.0000E+00
