 1 - depth, m
 2 - temperature, C
 3 - salinity, kg/kg
 4 - turbulent kinetic energy, m**2/s**2
 5 - dissipation rate, m**2/s**3
 6 - kinematic heat conductance, m**2/s
 7 - modulus of horizontal velocity, m/s
 8 - Richardson number, n/d
   -0.000000    7.32220  0.0000E+00  0.3563E-03  0.4957E-03  0.7942E-04  0.2069E+00 -0.1121E-01
   -0.034998    7.36806  0.0000E+00  0.1890E-03  0.1609E-03  0.1249E-03  0.6360E-01 -0.1385E+02
   -0.069996    7.37856  0.0000E+00  0.1289E-03  0.5328E-04  0.1546E-03  0.3979E-01 -0.1697E-01
   -0.104994    7.38456  0.0000E+00  0.1000E-03  0.2720E-04  0.1578E-03  0.3155E-01 -0.6934E-02
   -0.139993    7.38859  0.0000E+00  0.8231E-04  0.1626E-04  0.1619E-03  0.2635E-01 -0.5536E-02
   -0.174992    7.39160  0.0000E+00  0.6946E-04  0.9997E-05  0.1680E-03  0.2236E-01 -0.7238E-02
   -0.209992    7.39410  0.0000E+00  0.5966E-04  0.6187E-05  0.1744E-03  0.1910E-01 -0.6909E-02
   -0.244991    7.39631  0.0000E+00  0.5209E-04  0.3898E-05  0.1794E-03  0.1631E-01 -0.7974E-02
   -0.279991    7.39838  0.0000E+00  0.4598E-04  0.2505E-05  0.1814E-03  0.1379E-01 -0.1576E-01
   -0.314991    7.40052  0.0000E+00  0.4056E-04  0.1654E-05  0.1895E-03  0.1135E-01 -0.1960E-01
   -0.349991    7.40245  0.0000E+00  0.3603E-04  0.1134E-05  0.1955E-03  0.9508E-02  0.1278E+01
   -0.384991    7.40425  0.0000E+00  0.3227E-04  0.8111E-06  0.2003E-03  0.8016E-02  0.2206E+01
   -0.419992    7.40595  0.0000E+00  0.2916E-04  0.6059E-06  0.2021E-03  0.6779E-02  0.2818E+03
   -0.454992    7.40768  0.0000E+00  0.2652E-04  0.4714E-06  0.2025E-03  0.5646E-02  0.1528E+03
   -0.489993    7.40945  0.0000E+00  0.2422E-04  0.3808E-06  0.2041E-03  0.4592E-02  0.3143E+03
   -0.524994    7.41123  0.0000E+00  0.2203E-04  0.3133E-06  0.2121E-03  0.3666E-02  0.1704E+02
   -0.559995    7.41278  0.0000E+00  0.1993E-04  0.2590E-06  0.2182E-03  0.2996E-02 -0.7667E+03
   -0.594996    7.41406  0.0000E+00  0.1768E-04  0.2082E-06  0.2188E-03  0.2552E-02  0.1833E+04
   -0.629997    7.41500  0.0000E+00  0.1570E-04  0.1677E-06  0.2185E-03  0.2284E-02  0.2021E+04
   -0.664998    7.41614  0.0000E+00  0.1403E-04  0.1365E-06  0.2254E-03  0.2027E-02  0.1237E+06
   -0.699999    7.41728  0.0000E+00  0.1261E-04  0.1122E-06  0.2389E-03  0.1786E-02  0.3571E+04
   -0.735001    7.41839  0.0000E+00  0.1140E-04  0.9292E-07  0.2509E-03  0.1566E-02  0.4165E+04
   -0.770002    7.41946  0.0000E+00  0.1035E-04  0.7750E-07  0.2648E-03  0.1369E-02  0.6102E+05
   -0.805003    7.42048  0.0000E+00  0.9435E-05  0.6508E-07  0.2841E-03  0.1193E-02  0.1942E+04
   -0.840004    7.42144  0.0000E+00  0.8647E-05  0.5506E-07  0.3019E-03  0.1036E-02  0.1831E+04
   -0.875005    7.42235  0.0000E+00  0.7965E-05  0.4694E-07  0.3232E-03  0.8977E-03  0.8471E+03
   -0.910006    7.42321  0.0000E+00  0.7374E-05  0.4035E-07  0.3446E-03  0.7768E-03  0.5854E+03
   -0.945006    7.42402  0.0000E+00  0.6867E-05  0.3508E-07  0.3577E-03  0.6691E-03  0.8895E+03
   -0.980007    7.42480  0.0000E+00  0.6432E-05  0.3086E-07  0.3685E-03  0.5723E-03  0.1001E+04
   -1.015008    7.42556  0.0000E+00  0.6058E-05  0.2751E-07  0.3795E-03  0.4853E-03  0.1364E+04
   -1.050008    7.42629  0.0000E+00  0.5731E-05  0.2483E-07  0.3911E-03  0.4097E-03  0.1993E+04
   -1.085008    7.42700  0.0000E+00  0.5446E-05  0.2272E-07  0.3998E-03  0.3452E-03  0.3066E+04
   -1.120008    7.42769  0.0000E+00  0.5198E-05  0.2115E-07  0.4009E-03  0.2908E-03  0.4951E+04
   -1.155008    7.42839  0.0000E+00  0.4986E-05  0.2011E-07  0.3955E-03  0.2428E-03  0.7500E+04
   -1.190007    7.42910  0.0000E+00  0.4804E-05  0.1963E-07  0.3761E-03  0.2004E-03  0.1284E+05
   -1.225007    7.42986  0.0000E+00  0.4632E-05  0.1983E-07  0.3523E-03  0.1625E-03  0.1832E+05
   -1.260006    7.43069  0.0000E+00  0.4435E-05  0.2127E-07  0.3051E-03  0.1302E-03  0.3455E+05
   -1.295004    7.43172  0.0000E+00  0.4101E-05  0.2625E-07  0.2538E-03  0.1027E-03  0.1040E+06
   -1.330003    7.43297  0.0000E+00  0.3555E-05  0.4046E-07  0.1416E-03  0.8468E-04  0.3224E+07
   -1.365001    7.43629  0.0000E+00  0.2203E-05  0.1023E-06  0.2356E-04  0.6367E-04 -0.3537E+10
   -1.399999    7.45266  0.0000E+00  0.0000E+00  0.0000E+00  0.0000E+00  0.7100E-04  0.0000E+00
