 1 - depth, m
 2 - temperature, C
 3 - salinity, kg/kg
 4 - turbulent kinetic energy, m**2/s**2
 5 - dissipation rate, m**2/s**3
 6 - kinematic heat conductance, m**2/s
 7 - modulus of horizontal velocity, m/s
 8 - Richardson number, n/d
   -0.000000    0.00000  0.0000E+00  0.4702E-13  0.1132E-15  0.1000E-09  0.0000E+00  0.1407E+17
   -0.034997    0.21745  0.0000E+00  0.1195E-12  0.1132E-15  0.1000E-09  0.0000E+00  0.1295E+17
   -0.069995    0.42998  0.0000E+00  0.3809E-12  0.1136E-15  0.1000E-09  0.0000E+00  0.1191E+17
   -0.104993    0.63810  0.0000E+00  0.8349E-12  0.1663E-15  0.1000E-09  0.0000E+00  0.1088E+17
   -0.139991    0.84109  0.0000E+00  0.1572E-11  0.2710E-15  0.1000E-09  0.0000E+00  0.9906E+16
   -0.174990    1.03867  0.0000E+00  0.2772E-11  0.4499E-15  0.1000E-09  0.0000E+00  0.9003E+16
   -0.209989    1.23113  0.0000E+00  0.4740E-11  0.7454E-15  0.1000E-09  0.0000E+00  0.8165E+16
   -0.244988    1.41874  0.0000E+00  0.7982E-11  0.1228E-14  0.1000E-09  0.0000E+00  0.7386E+16
   -0.279987    1.60170  0.0000E+00  0.1332E-10  0.2014E-14  0.1000E-09  0.0000E+00  0.6659E+16
   -0.314987    1.78017  0.0000E+00  0.2224E-10  0.3307E-14  0.1000E-09  0.0000E+00  0.6004E+16
   -0.349987    1.95500  0.0000E+00  0.3728E-10  0.5453E-14  0.1000E-09  0.0000E+00  0.5386E+16
   -0.384987    2.12628  0.0000E+00  0.6249E-10  0.8999E-14  0.1000E-09  0.0000E+00  0.4801E+16
   -0.419987    2.29399  0.0000E+00  0.1043E-09  0.1479E-13  0.1000E-09  0.0000E+00  0.4261E+16
   -0.454987    2.45865  0.0000E+00  0.1734E-09  0.2421E-13  0.1000E-09  0.0000E+00  0.3768E+16
   -0.489987    2.62114  0.0000E+00  0.2874E-09  0.3952E-13  0.1000E-09  0.0000E+00  0.3320E+16
   -0.524988    2.78282  0.0000E+00  0.4953E-09  0.6703E-13  0.1000E-09  0.0000E+00  0.2993E+16
   -0.559988    2.95043  0.0000E+00  0.8946E-09  0.1192E-12  0.1145E-09  0.0000E+00  0.2696E+16
   -0.594989    3.12962  0.0000E+00  0.1714E-08  0.2247E-12  0.2513E-09  0.0000E+00  0.2316E+16
   -0.629990    3.32168  0.0000E+00  0.3004E-08  0.3884E-12  0.5939E-09  0.0000E+00  0.1695E+16
   -0.664990    3.50958  0.0000E+00  0.5010E-08  0.6393E-12  0.1490E-08  0.0000E+00  0.1113E+16
   -0.699991    3.69290  0.0000E+00  0.8185E-08  0.1030E-11  0.4706E-08  0.0000E+00  0.5690E+15
   -0.734992    3.86927  0.0000E+00  0.1309E-07  0.1628E-11  0.4149E-07  0.0000E+00  0.1037E+15
   -0.769992    4.00909  0.0000E+00  0.1370E-07  0.1709E-11  0.4224E-04  0.0000E+00 -0.2179E+12
   -0.804993    4.00969  0.0000E+00  0.1401E-07  0.1755E-11  0.4144E-04  0.0000E+00 -0.2302E+12
   -0.839994    4.01032  0.0000E+00  0.1430E-07  0.1807E-11  0.4180E-04  0.0000E+00 -0.2369E+12
   -0.874994    4.01094  0.0000E+00  0.1458E-07  0.1863E-11  0.4208E-04  0.0000E+00 -0.2446E+12
   -0.909995    4.01157  0.0000E+00  0.1484E-07  0.1926E-11  0.4218E-04  0.0000E+00 -0.2516E+12
   -0.944995    4.01219  0.0000E+00  0.1508E-07  0.1994E-11  0.4208E-04  0.0000E+00 -0.2593E+12
   -0.979995    4.01283  0.0000E+00  0.1531E-07  0.2070E-11  0.4178E-04  0.0000E+00 -0.2686E+12
   -1.014995    4.01347  0.0000E+00  0.1551E-07  0.2156E-11  0.4129E-04  0.0000E+00 -0.2842E+12
   -1.049995    4.01413  0.0000E+00  0.1571E-07  0.2257E-11  0.4053E-04  0.0000E+00 -0.3047E+12
   -1.084995    4.01482  0.0000E+00  0.1588E-07  0.2378E-11  0.3953E-04  0.0000E+00 -0.3292E+12
   -1.119995    4.01555  0.0000E+00  0.1604E-07  0.2523E-11  0.3814E-04  0.0000E+00 -0.3522E+12
   -1.154994    4.01631  0.0000E+00  0.1616E-07  0.2699E-11  0.3642E-04  0.0000E+00 -0.3812E+12
   -1.189993    4.01711  0.0000E+00  0.1626E-07  0.2921E-11  0.3424E-04  0.0000E+00 -0.4255E+12
   -1.224992    4.01798  0.0000E+00  0.1634E-07  0.3237E-11  0.3155E-04  0.0000E+00 -0.5237E+12
   -1.259991    4.01902  0.0000E+00  0.1636E-07  0.3766E-11  0.2767E-04  0.0000E+00 -0.7454E+12
   -1.294989    4.02045  0.0000E+00  0.1620E-07  0.5013E-11  0.2165E-04  0.0000E+00 -0.1320E+13
   -1.329987    4.02284  0.0000E+00  0.1537E-07  0.8219E-11  0.8404E-05  0.0000E+00 -0.3542E+13
   -1.364985    4.02858  0.0000E+00  0.1122E-07  0.2420E-10  0.9835E-06  0.0000E+00 -0.3642E+14
   -1.399982    4.06657  0.0000E+00  0.0000E+00  0.0000E+00  0.0000E+00  0.0000E+00  0.0000E+00
