 1 - depth, m
 2 - temperature, C
 3 - salinity, kg/kg
 4 - turbulent kinetic energy, m**2/s**2
 5 - dissipation rate, m**2/s**3
 6 - kinematic heat conductance, m**2/s
 7 - modulus of horizontal velocity, m/s
 8 - Richardson number, n/d
   -0.000000    0.00000  0.0000E+00  0.4702E-13  0.1132E-15  0.1000E-09  0.0000E+00  0.6016E+16
   -0.034998    0.09136  0.0000E+00  0.4702E-13  0.1132E-15  0.1000E-09  0.0000E+00  0.5914E+16
   -0.069996    0.18346  0.0000E+00  0.4702E-13  0.1132E-15  0.1000E-09  0.0000E+00  0.5810E+16
   -0.104995    0.27632  0.0000E+00  0.4702E-13  0.1132E-15  0.1000E-09  0.0000E+00  0.5653E+16
   -0.139993    0.36910  0.0000E+00  0.4702E-13  0.1132E-15  0.1000E-09  0.0000E+00  0.5468E+16
   -0.174992    0.46132  0.0000E+00  0.4702E-13  0.1132E-15  0.1000E-09  0.0000E+00  0.5283E+16
   -0.209992    0.55290  0.0000E+00  0.4702E-13  0.1132E-15  0.1000E-09  0.0000E+00  0.5096E+16
   -0.244991    0.64378  0.0000E+00  0.4702E-13  0.1132E-15  0.1000E-09  0.0000E+00  0.4910E+16
   -0.279991    0.73387  0.0000E+00  0.4702E-13  0.1132E-15  0.1000E-09  0.0000E+00  0.4725E+16
   -0.314991    0.82312  0.0000E+00  0.4702E-13  0.1132E-15  0.1000E-09  0.0000E+00  0.4591E+16
   -0.349992    0.91247  0.0000E+00  0.4702E-13  0.1132E-15  0.1000E-09  0.0000E+00  0.4462E+16
   -0.384992    1.00200  0.0000E+00  0.4702E-13  0.1132E-15  0.1000E-09  0.0000E+00  0.4331E+16
   -0.419993    1.09169  0.0000E+00  0.4702E-13  0.1132E-15  0.1000E-09  0.0000E+00  0.4185E+16
   -0.454993    1.18120  0.0000E+00  0.4702E-13  0.1132E-15  0.1000E-09  0.0000E+00  0.4046E+16
   -0.489994    1.27069  0.0000E+00  0.4702E-13  0.1132E-15  0.1000E-09  0.0000E+00  0.3960E+16
   -0.524995    1.36135  0.0000E+00  0.4702E-13  0.1132E-15  0.1000E-09  0.0000E+00  0.4132E+16
   -0.559996    1.45958  0.0000E+00  0.4702E-13  0.1132E-15  0.1000E-09  0.0000E+00  0.4494E+16
   -0.594997    1.57116  0.0000E+00  0.4702E-13  0.1132E-15  0.1000E-09  0.0000E+00  0.4843E+16
   -0.629998    1.69774  0.0000E+00  0.4702E-13  0.1132E-15  0.1000E-09  0.0000E+00  0.4515E+16
   -0.664999    1.82266  0.0000E+00  0.4702E-13  0.1132E-15  0.1000E-09  0.0000E+00  0.4194E+16
   -0.700001    1.94579  0.0000E+00  0.4702E-13  0.1132E-15  0.1000E-09  0.0000E+00  0.3888E+16
   -0.735002    2.06724  0.0000E+00  0.4702E-13  0.1132E-15  0.1000E-09  0.0000E+00  0.3616E+16
   -0.770003    2.18779  0.0000E+00  0.4702E-13  0.1132E-15  0.1000E-09  0.0000E+00  0.3388E+16
   -0.805004    2.30880  0.0000E+00  0.4702E-13  0.1132E-15  0.1000E-09  0.0000E+00  0.3148E+16
   -0.840005    2.42990  0.0000E+00  0.4702E-13  0.1132E-15  0.1000E-09  0.0000E+00  0.2903E+16
   -0.875006    2.55086  0.0000E+00  0.4702E-13  0.1132E-15  0.1000E-09  0.0000E+00  0.2661E+16
   -0.910007    2.67173  0.0000E+00  0.4702E-13  0.1132E-15  0.1000E-09  0.0000E+00  0.2391E+16
   -0.945008    2.79095  0.0000E+00  0.4702E-13  0.1132E-15  0.1000E-09  0.0000E+00  0.2120E+16
   -0.980009    2.90785  0.0000E+00  0.4702E-13  0.1132E-15  0.1000E-09  0.0000E+00  0.1859E+16
   -1.015009    3.02214  0.0000E+00  0.1754E-12  0.2089E-15  0.1000E-09  0.0000E+00  0.1637E+16
   -1.050010    3.13565  0.0000E+00  0.6813E-12  0.7258E-15  0.1000E-09  0.0000E+00  0.1432E+16
   -1.085010    3.24939  0.0000E+00  0.2527E-11  0.2591E-14  0.1000E-09  0.0000E+00  0.1278E+16
   -1.120010    3.36850  0.0000E+00  0.9091E-11  0.9034E-14  0.1000E-09  0.0000E+00  0.1057E+16
   -1.155010    3.48838  0.0000E+00  0.3222E-10  0.3108E-13  0.1000E-09  0.0000E+00  0.8354E+15
   -1.190009    3.60946  0.0000E+00  0.1134E-09  0.1063E-12  0.4298E-09  0.0000E+00  0.6206E+15
   -1.225009    3.73496  0.0000E+00  0.4163E-09  0.3804E-12  0.2297E-08  0.0000E+00  0.4099E+15
   -1.260008    3.88143  0.0000E+00  0.1585E-08  0.1420E-11  0.4332E-07  0.0000E+00  0.6729E+14
   -1.295007    4.03553  0.0000E+00  0.5296E-08  0.4968E-11  0.2514E-05  0.0000E+00 -0.1367E+14
   -1.330005    4.05088  0.0000E+00  0.6432E-08  0.7685E-11  0.1976E-05  0.0000E+00 -0.2045E+14
   -1.365003    4.06867  0.0000E+00  0.5571E-08  0.1379E-10  0.5878E-06  0.0000E+00 -0.7078E+14
   -1.400001    4.11214  0.0000E+00  0.0000E+00  0.0000E+00  0.0000E+00  0.0000E+00  0.0000E+00
