 1 - depth, m
 2 - temperature, C
 3 - salinity, kg/kg
 4 - turbulent kinetic energy, m**2/s**2
 5 - dissipation rate, m**2/s**3
 6 - kinematic heat conductance, m**2/s
 7 - modulus of horizontal velocity, m/s
 8 - Richardson number, n/d
   -0.000000    0.00000  0.0000E+00  0.1299E-12  0.1150E-15  0.1000E-09  0.0000E+00  0.1625E+17
   -0.034997    0.25228  0.0000E+00  0.1751E-12  0.1153E-15  0.1000E-09  0.0000E+00  0.1490E+17
   -0.069995    0.50077  0.0000E+00  0.2806E-12  0.1212E-15  0.1000E-09  0.0000E+00  0.1354E+17
   -0.104993    0.74402  0.0000E+00  0.4714E-12  0.1352E-15  0.1000E-09  0.0000E+00  0.1213E+17
   -0.139992    0.97951  0.0000E+00  0.8326E-12  0.1621E-15  0.1000E-09  0.0000E+00  0.1074E+17
   -0.174990    1.20564  0.0000E+00  0.1435E-11  0.2092E-15  0.1000E-09  0.0000E+00  0.9449E+16
   -0.209989    1.42179  0.0000E+00  0.2345E-11  0.3030E-15  0.1000E-09  0.0000E+00  0.8254E+16
   -0.244989    1.62751  0.0000E+00  0.3696E-11  0.4515E-15  0.1000E-09  0.0000E+00  0.7164E+16
   -0.279988    1.82252  0.0000E+00  0.5703E-11  0.6756E-15  0.1000E-09  0.0000E+00  0.6177E+16
   -0.314988    2.00664  0.0000E+00  0.8733E-11  0.1013E-14  0.1000E-09  0.0000E+00  0.5364E+16
   -0.349987    2.18223  0.0000E+00  0.1337E-10  0.1527E-14  0.1000E-09  0.0000E+00  0.4626E+16
   -0.384987    2.34922  0.0000E+00  0.2046E-10  0.2304E-14  0.1000E-09  0.0000E+00  0.3953E+16
   -0.419988    2.50721  0.0000E+00  0.3121E-10  0.3471E-14  0.1000E-09  0.0000E+00  0.3355E+16
   -0.454988    2.65634  0.0000E+00  0.4745E-10  0.5218E-14  0.1000E-09  0.0000E+00  0.2847E+16
   -0.489988    2.79782  0.0000E+00  0.7209E-10  0.7842E-14  0.1000E-09  0.0000E+00  0.2434E+16
   -0.524989    2.93405  0.0000E+00  0.1136E-09  0.1223E-13  0.1000E-09  0.0000E+00  0.2243E+16
   -0.559989    3.07793  0.0000E+00  0.1881E-09  0.2002E-13  0.1000E-09  0.0000E+00  0.2104E+16
   -0.594990    3.23818  0.0000E+00  0.3314E-09  0.3491E-13  0.1000E-09  0.0000E+00  0.1840E+16
   -0.629991    3.41484  0.0000E+00  0.5432E-09  0.5674E-13  0.1221E-09  0.0000E+00  0.1238E+16
   -0.664992    3.57508  0.0000E+00  0.8519E-09  0.8826E-13  0.3125E-09  0.0000E+00  0.7527E+15
   -0.699992    3.71576  0.0000E+00  0.1313E-08  0.1348E-12  0.9765E-09  0.0000E+00  0.3961E+15
   -0.734993    3.83456  0.0000E+00  0.2010E-08  0.2048E-12  0.5317E-08  0.0000E+00  0.1642E+15
   -0.769994    3.93153  0.0000E+00  0.2873E-08  0.2931E-12  0.1586E-05  0.0000E+00  0.3464E+14
   -0.804995    3.99128  0.0000E+00  0.3309E-08  0.3410E-12  0.8798E-05  0.0000E+00 -0.1119E+12
   -0.839995    3.99299  0.0000E+00  0.3586E-08  0.3766E-12  0.1031E-04  0.0000E+00 -0.1396E+12
   -0.874996    3.99429  0.0000E+00  0.3853E-08  0.4160E-12  0.1140E-04  0.0000E+00 -0.1542E+12
   -0.909997    3.99547  0.0000E+00  0.4112E-08  0.4600E-12  0.1205E-04  0.0000E+00 -0.1686E+12
   -0.944997    3.99660  0.0000E+00  0.4364E-08  0.5094E-12  0.1239E-04  0.0000E+00 -0.1850E+12
   -0.979997    3.99771  0.0000E+00  0.4611E-08  0.5660E-12  0.1247E-04  0.0000E+00 -0.2050E+12
   -1.014997    3.99881  0.0000E+00  0.4858E-08  0.6325E-12  0.1256E-04  0.0000E+00 -0.2327E+12
   -1.049997    3.99996  0.0000E+00  0.5108E-08  0.7129E-12  0.1250E-04  0.0000E+00 -0.2695E+12
   -1.084997    4.00117  0.0000E+00  0.5363E-08  0.8125E-12  0.1221E-04  0.0000E+00 -0.3194E+12
   -1.119997    4.00249  0.0000E+00  0.5621E-08  0.9377E-12  0.1133E-04  0.0000E+00 -0.3824E+12
   -1.154996    4.00394  0.0000E+00  0.5885E-08  0.1101E-11  0.1025E-04  0.0000E+00 -0.4726E+12
   -1.189995    4.00558  0.0000E+00  0.6168E-08  0.1325E-11  0.9140E-05  0.0000E+00 -0.6148E+12
   -1.224994    4.00752  0.0000E+00  0.6503E-08  0.1672E-11  0.8396E-05  0.0000E+00 -0.9012E+12
   -1.259993    4.01008  0.0000E+00  0.6916E-08  0.2273E-11  0.7752E-05  0.0000E+00 -0.1553E+13
   -1.294992    4.01394  0.0000E+00  0.7415E-08  0.3664E-11  0.6025E-05  0.0000E+00 -0.3640E+13
   -1.329990    4.02135  0.0000E+00  0.7422E-08  0.6413E-11  0.2812E-05  0.0000E+00 -0.1006E+14
   -1.364987    4.03644  0.0000E+00  0.6231E-08  0.1466E-10  0.6694E-06  0.0000E+00 -0.6200E+14
   -1.399985    4.08847  0.0000E+00  0.0000E+00  0.0000E+00  0.0000E+00  0.0000E+00  0.0000E+00
