 1 - depth, m
 2 - temperature, C
 3 - salinity, kg/kg
 4 - turbulent kinetic energy, m**2/s**2
 5 - dissipation rate, m**2/s**3
 6 - kinematic heat conductance, m**2/s
 7 - modulus of horizontal velocity, m/s
 8 - Richardson number, n/d
   -0.000000   13.46852  0.0000E+00  0.6154E-04  0.1490E-04  0.3639E-04  0.6229E-01 -0.1899E-01
   -0.034998   13.48788  0.0000E+00  0.3702E-04  0.4225E-05  0.5135E-04  0.2511E-01 -0.7822E-02
   -0.069996   13.49233  0.0000E+00  0.2846E-04  0.1910E-05  0.6277E-04  0.1858E-01 -0.1500E-01
   -0.104994   13.49549  0.0000E+00  0.2336E-04  0.1032E-05  0.7362E-04  0.1488E-01 -0.1957E-01
   -0.139993   13.49809  0.0000E+00  0.1979E-04  0.6176E-06  0.8411E-04  0.1216E-01 -0.2736E-01
   -0.174992   13.50038  0.0000E+00  0.1717E-04  0.3986E-06  0.9411E-04  0.1001E-01 -0.3651E-01
   -0.209991   13.50245  0.0000E+00  0.1516E-04  0.2737E-06  0.1033E-03  0.8268E-02 -0.4697E-01
   -0.244991   13.50436  0.0000E+00  0.1354E-04  0.1976E-06  0.1116E-03  0.6799E-02 -0.5856E-01
   -0.279991   13.50617  0.0000E+00  0.1214E-04  0.1477E-06  0.1183E-03  0.5531E-02 -0.6993E-01
   -0.314991   13.50792  0.0000E+00  0.1083E-04  0.1120E-06  0.1297E-03  0.4398E-02 -0.7382E-01
   -0.349991   13.50952  0.0000E+00  0.9696E-05  0.8659E-07  0.1485E-03  0.3511E-02  0.1631E+02
   -0.384991   13.51095  0.0000E+00  0.8754E-05  0.6847E-07  0.1950E-03  0.2810E-02  0.3409E+02
   -0.419992   13.51216  0.0000E+00  0.7991E-05  0.5552E-07  0.2277E-03  0.2254E-02  0.3343E+02
   -0.454992   13.51322  0.0000E+00  0.7363E-05  0.4605E-07  0.2649E-03  0.1777E-02  0.1159E+03
   -0.489993   13.51415  0.0000E+00  0.6840E-05  0.3908E-07  0.3178E-03  0.1360E-02  0.2504E+03
   -0.524994   13.51492  0.0000E+00  0.6359E-05  0.3339E-07  0.3525E-03  0.1006E-02  0.1380E+03
   -0.559995   13.51555  0.0000E+00  0.5903E-05  0.2853E-07  0.3846E-03  0.7477E-03  0.2880E+02
   -0.594996   13.51606  0.0000E+00  0.5461E-05  0.2410E-07  0.3956E-03  0.5876E-03  0.7805E+02
   -0.629997   13.51646  0.0000E+00  0.5131E-05  0.2091E-07  0.4066E-03  0.5035E-03  0.1357E+02
   -0.664998   13.51685  0.0000E+00  0.4877E-05  0.1854E-07  0.4159E-03  0.4383E-03  0.4163E+01
   -0.699999   13.51724  0.0000E+00  0.4670E-05  0.1665E-07  0.4239E-03  0.3807E-03  0.6422E+00
   -0.735000   13.51763  0.0000E+00  0.4499E-05  0.1514E-07  0.4301E-03  0.3305E-03  0.6142E+00
   -0.770001   13.51802  0.0000E+00  0.4359E-05  0.1391E-07  0.4363E-03  0.2873E-03  0.6870E+00
   -0.805002   13.51841  0.0000E+00  0.4242E-05  0.1293E-07  0.4423E-03  0.2504E-03  0.7910E+00
   -0.840003   13.51880  0.0000E+00  0.4147E-05  0.1213E-07  0.4478E-03  0.2188E-03  0.9235E+00
   -0.875004   13.51920  0.0000E+00  0.4067E-05  0.1150E-07  0.4524E-03  0.1916E-03  0.1094E+01
   -0.910005   13.51960  0.0000E+00  0.4000E-05  0.1100E-07  0.4557E-03  0.1684E-03  0.1332E+01
   -0.945006   13.52001  0.0000E+00  0.3943E-05  0.1060E-07  0.4577E-03  0.1478E-03  0.1628E+01
   -0.980006   13.52044  0.0000E+00  0.3893E-05  0.1031E-07  0.4578E-03  0.1294E-03  0.2004E+01
   -1.015007   13.52087  0.0000E+00  0.3848E-05  0.1010E-07  0.4557E-03  0.1126E-03  0.2507E+01
   -1.050007   13.52132  0.0000E+00  0.3806E-05  0.9968E-08  0.4508E-03  0.9761E-04  0.3333E+01
   -1.085007   13.52178  0.0000E+00  0.3763E-05  0.9924E-08  0.4426E-03  0.8431E-04  0.4544E+01
   -1.120007   13.52226  0.0000E+00  0.3721E-05  0.9977E-08  0.4302E-03  0.7252E-04  0.6443E+01
   -1.155007   13.52277  0.0000E+00  0.3677E-05  0.1015E-07  0.4135E-03  0.6166E-04  0.8845E+01
   -1.190007   13.52331  0.0000E+00  0.3630E-05  0.1048E-07  0.3904E-03  0.5157E-04  0.1218E+02
   -1.225006   13.52391  0.0000E+00  0.3572E-05  0.1109E-07  0.3629E-03  0.4219E-04  0.1698E+02
   -1.260005   13.52456  0.0000E+00  0.3489E-05  0.1233E-07  0.3037E-03  0.3402E-04  0.2942E+02
   -1.295004   13.52535  0.0000E+00  0.3319E-05  0.1565E-07  0.2758E-03  0.2693E-04  0.6912E+02
   -1.330002   13.52624  0.0000E+00  0.2963E-05  0.2587E-07  0.1372E-03  0.2245E-04  0.1471E+07
   -1.365000   13.53004  0.0000E+00  0.1920E-05  0.7162E-07  0.3102E-04  0.1582E-04 -0.1876E+06
   -1.399998   13.53986  0.0000E+00  0.0000E+00  0.0000E+00  0.0000E+00  0.1717E-04  0.0000E+00
