 1 - depth, m
 2 - temperature, C
 3 - salinity, kg/kg
 4 - turbulent kinetic energy, m**2/s**2
 5 - dissipation rate, m**2/s**3
 6 - kinematic heat conductance, m**2/s
 7 - modulus of horizontal velocity, m/s
 8 - Richardson number, n/d
   -0.000000   10.01305  0.0000E+00  0.4190E-03  0.6637E-03  0.7284E-04  0.2526E+00  0.1047E-01
   -0.034998   10.06678  0.0000E+00  0.2333E-03  0.2286E-03  0.1373E-03  0.7711E-01 -0.2000E-01
   -0.069997   10.08168  0.0000E+00  0.1608E-03  0.8060E-04  0.1878E-03  0.4724E-01 -0.1163E+00
   -0.104996   10.08942  0.0000E+00  0.1274E-03  0.3845E-04  0.1914E-03  0.3691E-01 -0.2642E-01
   -0.139995   10.09332  0.0000E+00  0.1064E-03  0.2189E-04  0.1999E-03  0.3072E-01 -0.2021E-01
   -0.174995   10.09604  0.0000E+00  0.9099E-04  0.1354E-04  0.2086E-03  0.2604E-01 -0.1255E-01
   -0.209994   10.09823  0.0000E+00  0.7955E-04  0.8705E-05  0.2176E-03  0.2240E-01 -0.1252E-01
   -0.244994   10.10014  0.0000E+00  0.7069E-04  0.5699E-05  0.2249E-03  0.1937E-01 -0.8127E-02
   -0.279995   10.10192  0.0000E+00  0.6339E-04  0.3737E-05  0.2279E-03  0.1669E-01  0.3769E-02
   -0.314995   10.10387  0.0000E+00  0.5675E-04  0.2495E-05  0.2395E-03  0.1398E-01  0.1429E+01
   -0.349996   10.10556  0.0000E+00  0.5118E-04  0.1737E-05  0.2485E-03  0.1196E-01  0.1503E+01
   -0.384996   10.10713  0.0000E+00  0.4648E-04  0.1264E-05  0.2557E-03  0.1029E-01  0.3137E+01
   -0.419997   10.10862  0.0000E+00  0.4251E-04  0.9630E-06  0.2589E-03  0.8887E-02  0.6685E+01
   -0.454998   10.11016  0.0000E+00  0.3906E-04  0.7638E-06  0.2604E-03  0.7575E-02  0.3719E+02
   -0.490000   10.11175  0.0000E+00  0.3599E-04  0.6279E-06  0.2631E-03  0.6341E-02  0.6649E+02
   -0.525001   10.11334  0.0000E+00  0.3303E-04  0.5247E-06  0.2737E-03  0.5241E-02  0.8670E+02
   -0.560002   10.11469  0.0000E+00  0.3014E-04  0.4399E-06  0.2818E-03  0.4423E-02  0.7367E+03
   -0.595004   10.11574  0.0000E+00  0.2700E-04  0.3588E-06  0.2820E-03  0.3865E-02  0.2528E+04
   -0.630005   10.11640  0.0000E+00  0.2420E-04  0.2929E-06  0.2811E-03  0.3508E-02  0.2942E+05
   -0.665007   10.11730  0.0000E+00  0.2181E-04  0.2414E-06  0.2838E-03  0.3162E-02  0.2304E+05
   -0.700009   10.11824  0.0000E+00  0.1975E-04  0.2007E-06  0.2891E-03  0.2833E-02  0.1046E+04
   -0.735010   10.11919  0.0000E+00  0.1795E-04  0.1682E-06  0.3044E-03  0.2527E-02  0.3076E+05
   -0.770012   10.12012  0.0000E+00  0.1638E-04  0.1418E-06  0.3311E-03  0.2248E-02  0.4350E+03
   -0.805013   10.12101  0.0000E+00  0.1500E-04  0.1202E-06  0.3618E-03  0.1993E-02  0.4072E+04
   -0.840015   10.12184  0.0000E+00  0.1378E-04  0.1026E-06  0.3984E-03  0.1762E-02  0.3689E+03
   -0.875016   10.12262  0.0000E+00  0.1270E-04  0.8815E-07  0.4354E-03  0.1554E-02  0.3317E+03
   -0.910018   10.12333  0.0000E+00  0.1174E-04  0.7624E-07  0.4642E-03  0.1366E-02  0.5257E+03
   -0.945019   10.12400  0.0000E+00  0.1089E-04  0.6656E-07  0.4902E-03  0.1193E-02  0.4293E+03
   -0.980020   10.12464  0.0000E+00  0.1014E-04  0.5875E-07  0.5070E-03  0.1034E-02  0.1714E+04
   -1.015021   10.12525  0.0000E+00  0.9459E-05  0.5251E-07  0.5110E-03  0.8859E-03  0.1190E+04
   -1.050022   10.12585  0.0000E+00  0.8845E-05  0.4765E-07  0.5049E-03  0.7540E-03  0.1118E+04
   -1.085022   10.12646  0.0000E+00  0.8286E-05  0.4411E-07  0.4898E-03  0.6391E-03  0.1811E+04
   -1.120023   10.12709  0.0000E+00  0.7778E-05  0.4203E-07  0.4652E-03  0.5410E-03  0.2777E+04
   -1.155023   10.12778  0.0000E+00  0.7305E-05  0.4187E-07  0.4314E-03  0.4529E-03  0.5389E+04
   -1.190023   10.12858  0.0000E+00  0.6841E-05  0.4452E-07  0.3841E-03  0.3709E-03  0.4126E+04
   -1.225023   10.12960  0.0000E+00  0.6339E-05  0.5188E-07  0.3428E-03  0.2916E-03  0.8208E+04
   -1.260022   10.13082  0.0000E+00  0.5711E-05  0.7195E-07  0.2771E-03  0.2210E-03  0.2103E+05
   -1.295022   10.13298  0.0000E+00  0.4883E-05  0.1169E-06  0.2386E-03  0.1581E-03  0.6047E+05
   -1.330020   10.13343  0.0000E+00  0.3847E-05  0.2444E-06  0.1298E-03  0.1346E-03  0.4493E+06
   -1.365019   10.14160  0.0000E+00  0.2530E-05  0.5327E-06  0.6734E-04  0.8954E-04 -0.1126E+10
   -1.400017   10.14976  0.0000E+00  0.0000E+00  0.0000E+00  0.0000E+00  0.1444E-03  0.0000E+00
