 1 - depth, m
 2 - temperature, C
 3 - salinity, kg/kg
 4 - turbulent kinetic energy, m**2/s**2
 5 - dissipation rate, m**2/s**3
 6 - kinematic heat conductance, m**2/s
 7 - modulus of horizontal velocity, m/s
 8 - Richardson number, n/d
   -0.000000    0.00000  0.0000E+00  0.4702E-13  0.1132E-15  0.1000E-09  0.0000E+00  0.6210E+16
   -0.034998    0.09435  0.0000E+00  0.4702E-13  0.1132E-15  0.1000E-09  0.0000E+00  0.6109E+16
   -0.069996    0.18962  0.0000E+00  0.4702E-13  0.1132E-15  0.1000E-09  0.0000E+00  0.6003E+16
   -0.104995    0.28576  0.0000E+00  0.4702E-13  0.1132E-15  0.1000E-09  0.0000E+00  0.5839E+16
   -0.139994    0.38191  0.0000E+00  0.4702E-13  0.1132E-15  0.1000E-09  0.0000E+00  0.5643E+16
   -0.174993    0.47748  0.0000E+00  0.4702E-13  0.1132E-15  0.1000E-09  0.0000E+00  0.5447E+16
   -0.209992    0.57242  0.0000E+00  0.4702E-13  0.1132E-15  0.1000E-09  0.0000E+00  0.5249E+16
   -0.244992    0.66663  0.0000E+00  0.4702E-13  0.1132E-15  0.1000E-09  0.0000E+00  0.5050E+16
   -0.279992    0.76003  0.0000E+00  0.4702E-13  0.1132E-15  0.1000E-09  0.0000E+00  0.4853E+16
   -0.314992    0.85255  0.0000E+00  0.4702E-13  0.1132E-15  0.1000E-09  0.0000E+00  0.4705E+16
   -0.349992    0.94508  0.0000E+00  0.4702E-13  0.1132E-15  0.1000E-09  0.0000E+00  0.4561E+16
   -0.384992    1.03770  0.0000E+00  0.4702E-13  0.1132E-15  0.1000E-09  0.0000E+00  0.4416E+16
   -0.419993    1.13036  0.0000E+00  0.4702E-13  0.1132E-15  0.1000E-09  0.0000E+00  0.4256E+16
   -0.454994    1.22275  0.0000E+00  0.4702E-13  0.1132E-15  0.1000E-09  0.0000E+00  0.4105E+16
   -0.489994    1.31504  0.0000E+00  0.4702E-13  0.1132E-15  0.1000E-09  0.0000E+00  0.4005E+16
   -0.524995    1.40841  0.0000E+00  0.4702E-13  0.1132E-15  0.1000E-09  0.0000E+00  0.4152E+16
   -0.559996    1.50910  0.0000E+00  0.4702E-13  0.1132E-15  0.1000E-09  0.0000E+00  0.4479E+16
   -0.594998    1.62270  0.0000E+00  0.4702E-13  0.1132E-15  0.1000E-09  0.0000E+00  0.4789E+16
   -0.629999    1.75081  0.0000E+00  0.4702E-13  0.1132E-15  0.1000E-09  0.0000E+00  0.4452E+16
   -0.665000    1.87715  0.0000E+00  0.4702E-13  0.1132E-15  0.1000E-09  0.0000E+00  0.4123E+16
   -0.700001    2.00156  0.0000E+00  0.4702E-13  0.1132E-15  0.1000E-09  0.0000E+00  0.3809E+16
   -0.735002    2.12414  0.0000E+00  0.4702E-13  0.1132E-15  0.1000E-09  0.0000E+00  0.3529E+16
   -0.770004    2.24565  0.0000E+00  0.4702E-13  0.1132E-15  0.1000E-09  0.0000E+00  0.3294E+16
   -0.805005    2.36752  0.0000E+00  0.4702E-13  0.1132E-15  0.1000E-09  0.0000E+00  0.3048E+16
   -0.840006    2.48936  0.0000E+00  0.4702E-13  0.1132E-15  0.1000E-09  0.0000E+00  0.2798E+16
   -0.875007    2.61093  0.0000E+00  0.4702E-13  0.1132E-15  0.1000E-09  0.0000E+00  0.2552E+16
   -0.910008    2.73227  0.0000E+00  0.4702E-13  0.1132E-15  0.1000E-09  0.0000E+00  0.2279E+16
   -0.945009    2.85182  0.0000E+00  0.4702E-13  0.1132E-15  0.1000E-09  0.0000E+00  0.2008E+16
   -0.980010    2.96891  0.0000E+00  0.9874E-13  0.1158E-15  0.1000E-09  0.0000E+00  0.1746E+16
   -1.015010    3.08322  0.0000E+00  0.3549E-12  0.3368E-15  0.1000E-09  0.0000E+00  0.1522E+16
   -1.050011    3.19648  0.0000E+00  0.1226E-11  0.1106E-14  0.1000E-09  0.0000E+00  0.1316E+16
   -1.085011    3.30970  0.0000E+00  0.4157E-11  0.3629E-14  0.1000E-09  0.0000E+00  0.1158E+16
   -1.120011    3.42829  0.0000E+00  0.1376E-10  0.1166E-13  0.1000E-09  0.0000E+00  0.9392E+15
   -1.155011    3.54765  0.0000E+00  0.4491E-10  0.3697E-13  0.1304E-09  0.0000E+00  0.7189E+15
   -1.190010    3.66821  0.0000E+00  0.1458E-09  0.1168E-12  0.5850E-09  0.0000E+00  0.5023E+15
   -1.225010    3.79312  0.0000E+00  0.4934E-09  0.3853E-12  0.3459E-08  0.0000E+00  0.2747E+15
   -1.260009    3.93805  0.0000E+00  0.1693E-08  0.1302E-11  0.1815E-06  0.0000E+00  0.5897E+13
   -1.295008    4.02607  0.0000E+00  0.4742E-08  0.4282E-11  0.2303E-05  0.0000E+00 -0.1258E+14
   -1.330006    4.04278  0.0000E+00  0.5868E-08  0.6927E-11  0.1822E-05  0.0000E+00 -0.1994E+14
   -1.365005    4.06205  0.0000E+00  0.5199E-08  0.1275E-10  0.5617E-06  0.0000E+00 -0.7027E+14
   -1.400002    4.10765  0.0000E+00  0.0000E+00  0.0000E+00  0.0000E+00  0.0000E+00  0.0000E+00
