 1 - depth, m
 2 - temperature, C
 3 - salinity, kg/kg
 4 - turbulent kinetic energy, m**2/s**2
 5 - dissipation rate, m**2/s**3
 6 - kinematic heat conductance, m**2/s
 7 - modulus of horizontal velocity, m/s
 8 - Richardson number, n/d
   -0.000000    0.00000  0.0000E+00  0.4390E-10  0.3663E-13  0.1000E-09  0.8447E-74  0.1616E+17
   -0.034997    0.25084  0.0000E+00  0.1021E-09  0.2739E-13  0.1000E-09  0.3898E-74  0.1297E+17
   -0.069993    0.46591  0.0000E+00  0.2020E-09  0.2816E-13  0.1000E-09  0.1762E-74  0.1054E+17
   -0.104991    0.65173  0.0000E+00  0.3412E-09  0.3380E-13  0.1000E-09  0.7797E-75  0.8791E+16
   -0.139988    0.81557  0.0000E+00  0.5236E-09  0.4326E-13  0.1000E-09  0.3381E-75  0.7586E+16
   -0.174986    0.96458  0.0000E+00  0.7573E-09  0.5654E-13  0.1000E-09  0.1439E-75  0.6809E+16
   -0.209984    1.10529  0.0000E+00  0.1054E-08  0.7408E-13  0.1019E-09  0.6098E-76  0.6357E+16
   -0.244982    1.24349  0.0000E+00  0.1431E-08  0.9661E-13  0.1069E-09  0.2516E-76  0.6114E+16
   -0.279981    1.38356  0.0000E+00  0.1906E-08  0.1251E-12  0.1148E-09  0.9502E-77  0.5977E+16
   -0.314980    1.52842  0.0000E+00  0.2512E-08  0.1613E-12  0.1318E-09  0.1837E-77  0.5467E+16
   -0.349979    1.66909  0.0000E+00  0.3297E-08  0.2077E-12  0.1578E-09  0.3262E-78  0.4965E+16
   -0.384978    1.80495  0.0000E+00  0.4304E-08  0.2666E-12  0.1955E-09  0.5592E-79  0.4487E+16
   -0.419977    1.93564  0.0000E+00  0.5578E-08  0.3401E-12  0.2357E-09  0.1117E-79  0.4280E+16
   -0.454976    2.06874  0.0000E+00  0.7171E-08  0.4306E-12  0.2850E-09  0.2105E-80  0.4130E+16
   -0.489976    2.20679  0.0000E+00  0.9149E-08  0.5412E-12  0.3701E-09  0.2649E-81  0.3753E+16
   -0.524975    2.34258  0.0000E+00  0.1186E-07  0.6902E-12  0.6334E-09  0.1475E-82  0.2735E+16
   -0.559975    2.44946  0.0000E+00  0.1579E-07  0.9034E-12  0.2024E-08  0.6554E-84  0.1359E+16
   -0.594975    2.50581  0.0000E+00  0.1588E-07  0.9102E-12  0.8245E-04  0.2256E-85  0.1372E+15
   -0.629975    2.51178  0.0000E+00  0.1589E-07  0.9127E-12  0.7971E-04  0.2179E-85  0.1697E+15
   -0.664975    2.51929  0.0000E+00  0.1586E-07  0.9140E-12  0.7074E-04  0.2099E-85  0.2327E+15
   -0.699975    2.52969  0.0000E+00  0.1569E-07  0.9116E-12  0.3921E-04  0.2056E-85  0.3326E+15
   -0.734974    2.54468  0.0000E+00  0.1487E-07  0.8835E-12  0.9698E-08  0.2020E-85  0.5833E+15
   -0.769974    2.57100  0.0000E+00  0.1244E-07  0.7876E-12  0.2387E-08  0.3770E-86  0.1119E+16
   -0.804974    2.62227  0.0000E+00  0.1012E-07  0.7112E-12  0.1213E-08  0.5929E-87  0.1681E+16
   -0.839974    2.70282  0.0000E+00  0.8113E-08  0.6755E-12  0.7987E-09  0.8865E-88  0.2213E+16
   -0.874974    2.81710  0.0000E+00  0.6539E-08  0.7126E-12  0.6771E-09  0.1231E-88  0.2637E+16
   -0.909973    2.96979  0.0000E+00  0.5641E-08  0.8862E-12  0.7892E-09  0.1885E-89  0.2820E+16
   -0.944973    3.16354  0.0000E+00  0.5904E-08  0.1327E-11  0.1333E-08  0.2844E-90  0.2654E+16
   -0.979972    3.40127  0.0000E+00  0.8270E-08  0.2308E-11  0.3753E-08  0.3990E-91  0.1995E+16
   -1.014971    3.68449  0.0000E+00  0.1360E-07  0.4105E-11  0.1150E-05  0.4215E-92  0.8277E+15
   -1.049971    3.96686  0.0000E+00  0.1754E-07  0.5563E-11  0.1588E-04  0.3944E-93  0.6001E+14
   -1.084969    4.02483  0.0000E+00  0.1908E-07  0.6173E-11  0.2375E-04  0.2190E-94 -0.1426E+13
   -1.119968    4.02725  0.0000E+00  0.2014E-07  0.6697E-11  0.2414E-04  0.1167E-94 -0.1504E+13
   -1.154967    4.02962  0.0000E+00  0.2104E-07  0.7295E-11  0.2402E-04  0.5876E-95 -0.1614E+13
   -1.189965    4.03202  0.0000E+00  0.2181E-07  0.8021E-11  0.2333E-04  0.2708E-95 -0.1792E+13
   -1.224963    4.03454  0.0000E+00  0.2250E-07  0.9035E-11  0.2209E-04  0.1019E-95 -0.2160E+13
   -1.259961    4.03742  0.0000E+00  0.2313E-07  0.1069E-10  0.2000E-04  0.3273E-96 -0.2972E+13
   -1.294958    4.04113  0.0000E+00  0.2364E-07  0.1454E-10  0.1560E-04  0.9247E-97 -0.5362E+13
   -1.329956    4.04730  0.0000E+00  0.2315E-07  0.2326E-10  0.7395E-05  0.3102E-97 -0.1345E+14
   -1.364953    4.06040  0.0000E+00  0.1919E-07  0.5668E-10  0.1562E-05  0.5724E-98 -0.9231E+14
   -1.399949    4.11800  0.0000E+00  0.0000E+00  0.0000E+00  0.0000E+00  0.7300E-98  0.0000E+00
