 1 - depth, m
 2 - temperature, C
 3 - salinity, kg/kg
 4 - turbulent kinetic energy, m**2/s**2
 5 - dissipation rate, m**2/s**3
 6 - kinematic heat conductance, m**2/s
 7 - modulus of horizontal velocity, m/s
 8 - Richardson number, n/d
   -0.000000    2.24515  0.0000E+00  0.4900E-03  0.1157E-02  0.7373E-04  0.2688E+00 -0.5392E-02
   -0.034998    2.30434  0.0000E+00  0.2535E-03  0.4149E-03  0.1334E-03  0.8390E-01  0.2389E+00
   -0.069996    2.32378  0.0000E+00  0.1668E-03  0.1419E-03  0.1854E-03  0.4994E-01  0.4779E-02
   -0.104994    2.33474  0.0000E+00  0.1283E-03  0.8045E-04  0.1839E-03  0.3813E-01  0.1292E-01
   -0.139993    2.34071  0.0000E+00  0.1048E-03  0.5057E-04  0.1841E-03  0.3130E-01  0.4932E-02
   -0.174992    2.34484  0.0000E+00  0.8769E-04  0.3202E-04  0.1872E-03  0.2633E-01  0.3289E-02
   -0.209991    2.34811  0.0000E+00  0.7530E-04  0.2081E-04  0.1907E-03  0.2236E-01  0.4012E-02
   -0.244991    2.35081  0.0000E+00  0.6555E-04  0.1334E-04  0.1939E-03  0.1910E-01  0.4264E-02
   -0.279991    2.35329  0.0000E+00  0.5775E-04  0.8620E-05  0.1929E-03  0.1620E-01  0.4278E-02
   -0.314991    2.35589  0.0000E+00  0.5077E-04  0.5659E-05  0.1992E-03  0.1324E-01  0.9593E-02
   -0.349991    2.35837  0.0000E+00  0.4503E-04  0.3791E-05  0.2026E-03  0.1112E-01  0.4981E-01
   -0.384991    2.36095  0.0000E+00  0.4025E-04  0.2594E-05  0.2044E-03  0.9446E-02  0.6008E+00
   -0.419992    2.36342  0.0000E+00  0.3630E-04  0.1823E-05  0.2024E-03  0.8080E-02  0.8035E+01
   -0.454992    2.36598  0.0000E+00  0.3289E-04  0.1323E-05  0.1981E-03  0.6787E-02  0.2087E+03
   -0.489993    2.36918  0.0000E+00  0.2985E-04  0.1001E-05  0.1950E-03  0.5543E-02  0.5805E+04
   -0.524994    2.37306  0.0000E+00  0.2695E-04  0.7757E-06  0.2026E-03  0.4434E-02  0.2416E+08
   -0.559995    2.37548  0.0000E+00  0.2419E-04  0.6065E-06  0.2078E-03  0.3657E-02  0.5902E+07
   -0.594996    2.37701  0.0000E+00  0.2127E-04  0.4584E-06  0.2066E-03  0.3155E-02 -0.7380E+05
   -0.629997    2.37797  0.0000E+00  0.1864E-04  0.3450E-06  0.1964E-03  0.2885E-02  0.2212E+08
   -0.664998    2.37945  0.0000E+00  0.1638E-04  0.2610E-06  0.1868E-03  0.2587E-02  0.1610E+08
   -0.699999    2.38115  0.0000E+00  0.1442E-04  0.1997E-06  0.1777E-03  0.2290E-02  0.8174E+07
   -0.735000    2.38298  0.0000E+00  0.1272E-04  0.1542E-06  0.1690E-03  0.2011E-02  0.8112E+08
   -0.770001    2.38494  0.0000E+00  0.1123E-04  0.1180E-06  0.1606E-03  0.1755E-02  0.1536E+08
   -0.805002    2.38706  0.0000E+00  0.9919E-05  0.8881E-07  0.1522E-03  0.1522E-02  0.1199E+10
   -0.840003    2.38934  0.0000E+00  0.8781E-05  0.6928E-07  0.1440E-03  0.1311E-02  0.8647E+08
   -0.875004    2.39179  0.0000E+00  0.7780E-05  0.5463E-07  0.1360E-03  0.1121E-02  0.6762E+09
   -0.910005    2.39436  0.0000E+00  0.6905E-05  0.4439E-07  0.1276E-03  0.9531E-03  0.6951E+08
   -0.945006    2.39712  0.0000E+00  0.6143E-05  0.3669E-07  0.1182E-03  0.8031E-03  0.1368E+10
   -0.980006    2.40022  0.0000E+00  0.5480E-05  0.3054E-07  0.1092E-03  0.6677E-03  0.3401E+09
   -1.015007    2.40400  0.0000E+00  0.4899E-05  0.2558E-07  0.1017E-03  0.5448E-03  0.5268E+10
   -1.050007    2.40801  0.0000E+00  0.4386E-05  0.2154E-07  0.9453E-04  0.4389E-03  0.1233E+12
   -1.085007    2.41190  0.0000E+00  0.3929E-05  0.1823E-07  0.8727E-04  0.3497E-03  0.3077E+13
   -1.120007    2.41630  0.0000E+00  0.3524E-05  0.1554E-07  0.7947E-04  0.2765E-03  0.1542E+14
   -1.155007    2.42279  0.0000E+00  0.3172E-05  0.1342E-07  0.7188E-04  0.2128E-03  0.4227E+14
   -1.190007    2.43333  0.0000E+00  0.2870E-05  0.1180E-07  0.6452E-04  0.1577E-03  0.1125E+15
   -1.225006    2.45262  0.0000E+00  0.2606E-05  0.1060E-07  0.5722E-04  0.1112E-03  0.2000E+15
   -1.260005    2.47821  0.0000E+00  0.2356E-05  0.9796E-08  0.4907E-04  0.7570E-04  0.2275E+15
   -1.295004    2.50554  0.0000E+00  0.2049E-05  0.9534E-08  0.3907E-04  0.5143E-04  0.7582E+13
   -1.330002    2.51436  0.0000E+00  0.1662E-05  0.1065E-07  0.2280E-04  0.3729E-04  0.2154E+15
   -1.365000    2.54936  0.0000E+00  0.8904E-06  0.2250E-07  0.4044E-05  0.2568E-04  0.2163E+15
   -1.399998    2.65994  0.0000E+00  0.0000E+00  0.0000E+00  0.0000E+00  0.2613E-04  0.0000E+00
