 1 - depth, m
 2 - temperature, C
 3 - salinity, kg/kg
 4 - turbulent kinetic energy, m**2/s**2
 5 - dissipation rate, m**2/s**3
 6 - kinematic heat conductance, m**2/s
 7 - modulus of horizontal velocity, m/s
 8 - Richardson number, n/d
   -0.000000    0.00000  0.0000E+00  0.4702E-13  0.1132E-15  0.1000E-09  0.0000E+00  0.1044E+17
   -0.034998    0.15998  0.0000E+00  0.4702E-13  0.1132E-15  0.1000E-09  0.0000E+00  0.1015E+17
   -0.069996    0.32278  0.0000E+00  0.4702E-13  0.1132E-15  0.1000E-09  0.0000E+00  0.9858E+16
   -0.104995    0.48855  0.0000E+00  0.4702E-13  0.1132E-15  0.1000E-09  0.0000E+00  0.9382E+16
   -0.139993    0.65445  0.0000E+00  0.4702E-13  0.1132E-15  0.1000E-09  0.0000E+00  0.8818E+16
   -0.174993    0.81877  0.0000E+00  0.4702E-13  0.1132E-15  0.1000E-09  0.0000E+00  0.8264E+16
   -0.209992    0.98134  0.0000E+00  0.4702E-13  0.1132E-15  0.1000E-09  0.0000E+00  0.7721E+16
   -0.244992    1.14208  0.0000E+00  0.4702E-13  0.1132E-15  0.1000E-09  0.0000E+00  0.7191E+16
   -0.279991    1.30084  0.0000E+00  0.4702E-13  0.1132E-15  0.1000E-09  0.0000E+00  0.6674E+16
   -0.314992    1.45753  0.0000E+00  0.9030E-13  0.1132E-15  0.1000E-09  0.0000E+00  0.6109E+16
   -0.349992    1.61040  0.0000E+00  0.3290E-12  0.1207E-15  0.1000E-09  0.0000E+00  0.5554E+16
   -0.384992    1.75884  0.0000E+00  0.7899E-12  0.2014E-15  0.1000E-09  0.0000E+00  0.5017E+16
   -0.419993    1.90234  0.0000E+00  0.1622E-11  0.3685E-15  0.1000E-09  0.0000E+00  0.4592E+16
   -0.454994    2.04328  0.0000E+00  0.3133E-11  0.6782E-15  0.1000E-09  0.0000E+00  0.4246E+16
   -0.489994    2.18372  0.0000E+00  0.5896E-11  0.1241E-14  0.1000E-09  0.0000E+00  0.3912E+16
   -0.524995    2.32394  0.0000E+00  0.1150E-10  0.2363E-14  0.1000E-09  0.0000E+00  0.3609E+16
   -0.559996    2.46502  0.0000E+00  0.2339E-10  0.4705E-14  0.1000E-09  0.0000E+00  0.3311E+16
   -0.594997    2.60747  0.0000E+00  0.5030E-10  0.9909E-14  0.1000E-09  0.0000E+00  0.2990E+16
   -0.629999    2.75046  0.0000E+00  0.9720E-10  0.1881E-13  0.1000E-09  0.0000E+00  0.2617E+16
   -0.665000    2.89114  0.0000E+00  0.1786E-09  0.3393E-13  0.1000E-09  0.0000E+00  0.2262E+16
   -0.700001    3.02959  0.0000E+00  0.3224E-09  0.6011E-13  0.1000E-09  0.0000E+00  0.1924E+16
   -0.735002    3.16589  0.0000E+00  0.5788E-09  0.1059E-12  0.1685E-09  0.0000E+00  0.1628E+16
   -0.770003    3.30243  0.0000E+00  0.1035E-08  0.1857E-12  0.3481E-09  0.0000E+00  0.1382E+16
   -0.805005    3.44514  0.0000E+00  0.1843E-08  0.3246E-12  0.7642E-09  0.0000E+00  0.1101E+16
   -0.840006    3.59479  0.0000E+00  0.3263E-08  0.5641E-12  0.1887E-08  0.0000E+00  0.7749E+15
   -0.875007    3.75260  0.0000E+00  0.5742E-08  0.9749E-12  0.6629E-08  0.0000E+00  0.3873E+15
   -0.910008    3.91776  0.0000E+00  0.9238E-08  0.1560E-11  0.1518E-05  0.0000E+00  0.4098E+14
   -0.945009    4.00820  0.0000E+00  0.1024E-07  0.1741E-11  0.2374E-04  0.0000E+00 -0.3767E+12
   -0.980009    4.00938  0.0000E+00  0.1073E-07  0.1844E-11  0.2417E-04  0.0000E+00 -0.3986E+12
   -1.015010    4.01053  0.0000E+00  0.1115E-07  0.1951E-11  0.2485E-04  0.0000E+00 -0.4259E+12
   -1.050010    4.01168  0.0000E+00  0.1155E-07  0.2072E-11  0.2533E-04  0.0000E+00 -0.4603E+12
   -1.085011    4.01286  0.0000E+00  0.1191E-07  0.2210E-11  0.2538E-04  0.0000E+00 -0.4942E+12
   -1.120011    4.01405  0.0000E+00  0.1224E-07  0.2371E-11  0.2494E-04  0.0000E+00 -0.5282E+12
   -1.155011    4.01527  0.0000E+00  0.1252E-07  0.2560E-11  0.2415E-04  0.0000E+00 -0.5733E+12
   -1.190010    4.01654  0.0000E+00  0.1277E-07  0.2794E-11  0.2297E-04  0.0000E+00 -0.6426E+12
   -1.225010    4.01790  0.0000E+00  0.1298E-07  0.3123E-11  0.2152E-04  0.0000E+00 -0.7911E+12
   -1.260009    4.01949  0.0000E+00  0.1315E-07  0.3660E-11  0.1937E-04  0.0000E+00 -0.1120E+13
   -1.295007    4.02161  0.0000E+00  0.1319E-07  0.4979E-11  0.1505E-04  0.0000E+00 -0.2042E+13
   -1.330006    4.02517  0.0000E+00  0.1252E-07  0.8218E-11  0.5906E-05  0.0000E+00 -0.5606E+13
   -1.365004    4.03354  0.0000E+00  0.9369E-08  0.2099E-10  0.8806E-06  0.0000E+00 -0.4624E+14
   -1.400002    4.07655  0.0000E+00  0.0000E+00  0.0000E+00  0.0000E+00  0.0000E+00  0.0000E+00
