 1 - depth, m
 2 - temperature, C
 3 - salinity, kg/kg
 4 - turbulent kinetic energy, m**2/s**2
 5 - dissipation rate, m**2/s**3
 6 - kinematic heat conductance, m**2/s
 7 - modulus of horizontal velocity, m/s
 8 - Richardson number, n/d
   -0.000000   15.61692  0.0000E+00  0.2312E-04  0.2963E-05  0.2312E-04  0.2707E-01 -0.5843E-01
   -0.034998   15.66457  0.0000E+00  0.1751E-04  0.9518E-06  0.5115E-04  0.1406E-01 -0.1071E+00
   -0.069996   15.68017  0.0000E+00  0.1511E-04  0.4814E-06  0.9662E-04  0.1033E-01  0.1126E+02
   -0.104994   15.68939  0.0000E+00  0.1364E-04  0.2928E-06  0.1357E-03  0.8168E-02  0.8920E+01
   -0.139993   15.69594  0.0000E+00  0.1268E-04  0.1992E-06  0.1864E-03  0.6678E-02  0.3056E+01
   -0.174992   15.70068  0.0000E+00  0.1206E-04  0.1480E-06  0.2867E-03  0.5581E-02  0.3502E+03
   -0.209991   15.70367  0.0000E+00  0.1170E-04  0.1179E-06  0.3581E-03  0.4772E-02  0.1049E+03
   -0.244990   15.70581  0.0000E+00  0.1145E-04  0.9773E-07  0.3848E-03  0.4084E-02  0.1212E+03
   -0.279990   15.70768  0.0000E+00  0.1125E-04  0.8287E-07  0.4048E-03  0.3453E-02  0.2561E+03
   -0.314990   15.70943  0.0000E+00  0.1104E-04  0.7115E-07  0.4362E-03  0.2865E-02  0.1875E+02
   -0.349990   15.71103  0.0000E+00  0.1083E-04  0.6180E-07  0.4677E-03  0.2367E-02  0.4060E+01
   -0.384990   15.71251  0.0000E+00  0.1064E-04  0.5434E-07  0.5011E-03  0.1945E-02  0.3042E+01
   -0.419991   15.71388  0.0000E+00  0.1046E-04  0.4841E-07  0.5282E-03  0.1588E-02  0.2797E+01
   -0.454991   15.71519  0.0000E+00  0.1029E-04  0.4368E-07  0.5562E-03  0.1268E-02  0.2667E+01
   -0.489992   15.71643  0.0000E+00  0.1012E-04  0.3988E-07  0.5830E-03  0.9789E-03  0.2346E+01
   -0.524993   15.71760  0.0000E+00  0.9930E-05  0.3661E-07  0.6427E-03  0.7234E-03  0.1590E+01
   -0.559994   15.71865  0.0000E+00  0.9728E-05  0.3379E-07  0.7368E-03  0.5414E-03  0.1163E+01
   -0.594995   15.71952  0.0000E+00  0.9524E-05  0.3132E-07  0.8616E-03  0.4301E-03  0.9231E+00
   -0.629996   15.72021  0.0000E+00  0.9370E-05  0.2966E-07  0.9209E-03  0.3732E-03  0.9883E+00
   -0.664997   15.72084  0.0000E+00  0.9242E-05  0.2847E-07  0.9261E-03  0.3315E-03  0.9705E+00
   -0.699998   15.72146  0.0000E+00  0.9123E-05  0.2756E-07  0.9280E-03  0.2944E-03  0.9718E+00
   -0.734999   15.72208  0.0000E+00  0.9011E-05  0.2691E-07  0.9238E-03  0.2622E-03  0.9873E+00
   -0.770000   15.72270  0.0000E+00  0.8904E-05  0.2647E-07  0.9139E-03  0.2346E-03  0.1005E+01
   -0.805001   15.72333  0.0000E+00  0.8801E-05  0.2623E-07  0.8987E-03  0.2111E-03  0.1055E+01
   -0.840002   15.72397  0.0000E+00  0.8700E-05  0.2617E-07  0.8790E-03  0.1912E-03  0.1122E+01
   -0.875003   15.72462  0.0000E+00  0.8599E-05  0.2628E-07  0.8565E-03  0.1740E-03  0.1241E+01
   -0.910003   15.72529  0.0000E+00  0.8494E-05  0.2657E-07  0.8298E-03  0.1592E-03  0.1446E+01
   -0.945004   15.72598  0.0000E+00  0.8382E-05  0.2705E-07  0.8002E-03  0.1458E-03  0.1759E+01
   -0.980005   15.72671  0.0000E+00  0.8258E-05  0.2779E-07  0.7603E-03  0.1332E-03  0.2219E+01
   -1.015005   15.72748  0.0000E+00  0.8118E-05  0.2888E-07  0.7229E-03  0.1210E-03  0.2944E+01
   -1.050005   15.72831  0.0000E+00  0.7952E-05  0.3053E-07  0.6685E-03  0.1094E-03  0.4389E+01
   -1.085005   15.72922  0.0000E+00  0.7751E-05  0.3303E-07  0.6290E-03  0.9816E-04  0.7655E+01
   -1.120005   15.73023  0.0000E+00  0.7502E-05  0.3710E-07  0.5674E-03  0.8754E-04 -0.3562E+02
   -1.155005   15.73152  0.0000E+00  0.7182E-05  0.4364E-07  0.5297E-03  0.7610E-04  0.3056E+06
   -1.190004   15.73312  0.0000E+00  0.6745E-05  0.5526E-07  0.4439E-03  0.6427E-04 -0.1454E+04
   -1.225004   15.73590  0.0000E+00  0.6222E-05  0.7356E-07  0.4062E-03  0.4964E-04 -0.4204E+05
   -1.260003   15.73833  0.0000E+00  0.5472E-05  0.1222E-06  0.2928E-03  0.3777E-04 -0.4510E+05
   -1.295001   15.74933  0.0000E+00  0.4596E-05  0.2307E-06  0.2974E-03  0.2425E-04  0.2538E+07
   -1.330000   15.74157  0.0000E+00  0.3669E-05  0.5272E-06  0.1396E-03  0.2217E-04 -0.2428E+06
   -1.364998   15.77282  0.0000E+00  0.2644E-05  0.1129E-05  0.1379E-03  0.1281E-04 -0.2739E+06
   -1.399995   15.77400  0.0000E+00  0.0000E+00  0.0000E+00  0.0000E+00  0.2441E-04  0.0000E+00
