 1 - depth, m
 2 - temperature, C
 3 - salinity, kg/kg
 4 - turbulent kinetic energy, m**2/s**2
 5 - dissipation rate, m**2/s**3
 6 - kinematic heat conductance, m**2/s
 7 - modulus of horizontal velocity, m/s
 8 - Richardson number, n/d
   -0.000000    0.00000  0.0000E+00  0.1362E-09  0.1297E-12  0.1000E-09  0.0000E+00  0.2587E+17
   -0.034997    0.41055  0.0000E+00  0.3503E-09  0.1059E-12  0.1000E-09  0.0000E+00  0.2179E+17
   -0.069994    0.80002  0.0000E+00  0.7460E-09  0.1319E-12  0.1000E-09  0.0000E+00  0.1836E+17
   -0.104992    1.17210  0.0000E+00  0.1374E-08  0.1958E-12  0.1000E-09  0.0000E+00  0.1542E+17
   -0.139990    1.53022  0.0000E+00  0.2351E-08  0.3060E-12  0.1000E-09  0.0000E+00  0.1287E+17
   -0.174989    1.87730  0.0000E+00  0.3875E-08  0.4831E-12  0.1301E-09  0.0000E+00  0.1061E+17
   -0.209987    2.21604  0.0000E+00  0.6265E-08  0.7619E-12  0.2302E-09  0.0000E+00  0.8586E+16
   -0.244986    2.54942  0.0000E+00  0.1002E-07  0.1197E-11  0.4624E-09  0.0000E+00  0.6725E+16
   -0.279985    2.88088  0.0000E+00  0.1592E-07  0.1874E-11  0.9870E-09  0.0000E+00  0.4955E+16
   -0.314984    3.21418  0.0000E+00  0.2531E-07  0.2938E-11  0.2462E-08  0.0000E+00  0.3190E+16
   -0.349984    3.55239  0.0000E+00  0.4018E-07  0.4606E-11  0.1196E-07  0.0000E+00  0.1365E+16
   -0.384983    3.88263  0.0000E+00  0.4972E-07  0.5676E-11  0.6798E-04  0.0000E+00  0.1919E+15
   -0.419983    4.02529  0.0000E+00  0.5023E-07  0.5740E-11  0.1437E-03  0.0000E+00 -0.2247E+12
   -0.454983    4.02566  0.0000E+00  0.5054E-07  0.5785E-11  0.1426E-03  0.0000E+00 -0.2257E+12
   -0.489983    4.02603  0.0000E+00  0.5084E-07  0.5835E-11  0.1429E-03  0.0000E+00 -0.2289E+12
   -0.524983    4.02640  0.0000E+00  0.5115E-07  0.5894E-11  0.1430E-03  0.0000E+00 -0.2375E+12
   -0.559983    4.02678  0.0000E+00  0.5152E-07  0.5974E-11  0.1426E-03  0.0000E+00 -0.2561E+12
   -0.594984    4.02719  0.0000E+00  0.5201E-07  0.6089E-11  0.1423E-03  0.0000E+00 -0.2735E+12
   -0.629984    4.02762  0.0000E+00  0.5251E-07  0.6217E-11  0.1422E-03  0.0000E+00 -0.2785E+12
   -0.664984    4.02805  0.0000E+00  0.5298E-07  0.6351E-11  0.1418E-03  0.0000E+00 -0.2835E+12
   -0.699985    4.02849  0.0000E+00  0.5343E-07  0.6492E-11  0.1411E-03  0.0000E+00 -0.2904E+12
   -0.734985    4.02893  0.0000E+00  0.5385E-07  0.6643E-11  0.1402E-03  0.0000E+00 -0.2978E+12
   -0.769985    4.02938  0.0000E+00  0.5426E-07  0.6805E-11  0.1390E-03  0.0000E+00 -0.3056E+12
   -0.804986    4.02984  0.0000E+00  0.5464E-07  0.6980E-11  0.1375E-03  0.0000E+00 -0.3142E+12
   -0.839986    4.03030  0.0000E+00  0.5501E-07  0.7171E-11  0.1358E-03  0.0000E+00 -0.3243E+12
   -0.874986    4.03078  0.0000E+00  0.5534E-07  0.7380E-11  0.1337E-03  0.0000E+00 -0.3360E+12
   -0.909986    4.03126  0.0000E+00  0.5566E-07  0.7610E-11  0.1313E-03  0.0000E+00 -0.3482E+12
   -0.944986    4.03176  0.0000E+00  0.5594E-07  0.7862E-11  0.1286E-03  0.0000E+00 -0.3618E+12
   -0.979986    4.03227  0.0000E+00  0.5619E-07  0.8141E-11  0.1256E-03  0.0000E+00 -0.3779E+12
   -1.014986    4.03280  0.0000E+00  0.5640E-07  0.8456E-11  0.1221E-03  0.0000E+00 -0.4003E+12
   -1.049986    4.03335  0.0000E+00  0.5659E-07  0.8825E-11  0.1180E-03  0.0000E+00 -0.4281E+12
   -1.084985    4.03394  0.0000E+00  0.5673E-07  0.9266E-11  0.1135E-03  0.0000E+00 -0.4558E+12
   -1.119984    4.03455  0.0000E+00  0.5682E-07  0.9796E-11  0.1083E-03  0.0000E+00 -0.4861E+12
   -1.154983    4.03520  0.0000E+00  0.5686E-07  0.1044E-10  0.1025E-03  0.0000E+00 -0.5221E+12
   -1.189982    4.03588  0.0000E+00  0.5684E-07  0.1124E-10  0.9580E-04  0.0000E+00 -0.5726E+12
   -1.224981    4.03662  0.0000E+00  0.5672E-07  0.1237E-10  0.8753E-04  0.0000E+00 -0.6628E+12
   -1.259979    4.03746  0.0000E+00  0.5643E-07  0.1428E-10  0.7569E-04  0.0000E+00 -0.8517E+12
   -1.294977    4.03852  0.0000E+00  0.5558E-07  0.1888E-10  0.5966E-04  0.0000E+00 -0.1298E+13
   -1.329975    4.04011  0.0000E+00  0.5315E-07  0.3129E-10  0.2391E-04  0.0000E+00 -0.3334E+13
   -1.364972    4.04398  0.0000E+00  0.3837E-07  0.1202E-09  0.1967E-05  0.0000E+00 -0.5111E+14
   -1.399969    4.08568  0.0000E+00  0.0000E+00  0.0000E+00  0.0000E+00  0.0000E+00  0.0000E+00
