 1 - depth, m
 2 - temperature, C
 3 - salinity, kg/kg
 4 - turbulent kinetic energy, m**2/s**2
 5 - dissipation rate, m**2/s**3
 6 - kinematic heat conductance, m**2/s
 7 - modulus of horizontal velocity, m/s
 8 - Richardson number, n/d
   -0.000000    0.00000  0.0000E+00  0.4702E-13  0.1132E-15  0.1000E-09  0.0000E+00  0.1373E+17
   -0.034998    0.21202  0.0000E+00  0.4702E-13  0.1132E-15  0.1000E-09  0.0000E+00  0.1296E+17
   -0.069996    0.42443  0.0000E+00  0.4702E-13  0.1132E-15  0.1000E-09  0.0000E+00  0.1214E+17
   -0.104994    0.63637  0.0000E+00  0.4702E-13  0.1132E-15  0.1000E-09  0.0000E+00  0.1119E+17
   -0.139993    0.84517  0.0000E+00  0.4702E-13  0.1132E-15  0.1000E-09  0.0000E+00  0.1019E+17
   -0.174992    1.04897  0.0000E+00  0.4702E-13  0.1132E-15  0.1000E-09  0.0000E+00  0.9220E+16
   -0.209991    1.24703  0.0000E+00  0.4702E-13  0.1132E-15  0.1000E-09  0.0000E+00  0.8280E+16
   -0.244990    1.43863  0.0000E+00  0.1620E-12  0.1132E-15  0.1000E-09  0.0000E+00  0.7385E+16
   -0.279990    1.62318  0.0000E+00  0.4588E-12  0.1256E-15  0.1000E-09  0.0000E+00  0.6541E+16
   -0.314990    1.80017  0.0000E+00  0.9721E-12  0.1817E-15  0.1000E-09  0.0000E+00  0.5795E+16
   -0.349990    1.97039  0.0000E+00  0.1813E-11  0.2940E-15  0.1000E-09  0.0000E+00  0.5095E+16
   -0.384990    2.13341  0.0000E+00  0.3189E-11  0.4864E-15  0.1000E-09  0.0000E+00  0.4442E+16
   -0.419990    2.28865  0.0000E+00  0.5435E-11  0.8023E-15  0.1000E-09  0.0000E+00  0.3861E+16
   -0.454991    2.43655  0.0000E+00  0.9107E-11  0.1314E-14  0.1000E-09  0.0000E+00  0.3360E+16
   -0.489992    2.57822  0.0000E+00  0.1513E-10  0.2143E-14  0.1000E-09  0.0000E+00  0.2932E+16
   -0.524992    2.71499  0.0000E+00  0.2605E-10  0.3625E-14  0.1000E-09  0.0000E+00  0.2670E+16
   -0.559993    2.85415  0.0000E+00  0.4694E-10  0.6416E-14  0.1000E-09  0.0000E+00  0.2467E+16
   -0.594994    3.00034  0.0000E+00  0.8960E-10  0.1204E-13  0.1000E-09  0.0000E+00  0.2216E+16
   -0.629995    3.15365  0.0000E+00  0.1564E-09  0.2071E-13  0.1000E-09  0.0000E+00  0.1738E+16
   -0.664996    3.29772  0.0000E+00  0.2598E-09  0.3391E-13  0.1000E-09  0.0000E+00  0.1321E+16
   -0.699997    3.43214  0.0000E+00  0.4230E-09  0.5442E-13  0.1524E-09  0.0000E+00  0.9669E+15
   -0.734998    3.55661  0.0000E+00  0.6846E-09  0.8675E-13  0.3362E-09  0.0000E+00  0.6812E+15
   -0.769999    3.67290  0.0000E+00  0.1104E-08  0.1378E-12  0.8046E-09  0.0000E+00  0.4554E+15
   -0.805000    3.78543  0.0000E+00  0.1776E-08  0.2184E-12  0.2372E-08  0.0000E+00  0.2488E+15
   -0.840001    3.89308  0.0000E+00  0.2827E-08  0.3430E-12  0.1515E-07  0.0000E+00  0.6835E+14
   -0.875002    3.98835  0.0000E+00  0.3422E-08  0.4170E-12  0.7769E-05  0.0000E+00  0.5353E+12
   -0.910003    3.99458  0.0000E+00  0.3773E-08  0.4681E-12  0.9754E-05  0.0000E+00 -0.2020E+12
   -0.945003    3.99615  0.0000E+00  0.4078E-08  0.5207E-12  0.1053E-04  0.0000E+00 -0.2199E+12
   -0.980004    3.99756  0.0000E+00  0.4369E-08  0.5799E-12  0.1092E-04  0.0000E+00 -0.2399E+12
   -1.015004    3.99889  0.0000E+00  0.4652E-08  0.6488E-12  0.1117E-04  0.0000E+00 -0.2672E+12
   -1.050004    4.00021  0.0000E+00  0.4934E-08  0.7319E-12  0.1121E-04  0.0000E+00 -0.3039E+12
   -1.085004    4.00157  0.0000E+00  0.5220E-08  0.8347E-12  0.1115E-04  0.0000E+00 -0.3566E+12
   -1.120004    4.00301  0.0000E+00  0.5506E-08  0.9634E-12  0.1051E-04  0.0000E+00 -0.4224E+12
   -1.155004    4.00457  0.0000E+00  0.5796E-08  0.1131E-11  0.9637E-05  0.0000E+00 -0.5170E+12
   -1.190003    4.00631  0.0000E+00  0.6103E-08  0.1360E-11  0.8688E-05  0.0000E+00 -0.6664E+12
   -1.225003    4.00834  0.0000E+00  0.6465E-08  0.1715E-11  0.8075E-05  0.0000E+00 -0.9686E+12
   -1.260002    4.01100  0.0000E+00  0.6906E-08  0.2330E-11  0.7551E-05  0.0000E+00 -0.1652E+13
   -1.295000    4.01495  0.0000E+00  0.7435E-08  0.3735E-11  0.5965E-05  0.0000E+00 -0.3795E+13
   -1.329998    4.02242  0.0000E+00  0.7451E-08  0.6471E-11  0.2813E-05  0.0000E+00 -0.1022E+14
   -1.364997    4.03737  0.0000E+00  0.6240E-08  0.1468E-10  0.6687E-06  0.0000E+00 -0.6190E+14
   -1.399994    4.08887  0.0000E+00  0.0000E+00  0.0000E+00  0.0000E+00  0.0000E+00  0.0000E+00
