 1 - depth, m
 2 - temperature, C
 3 - salinity, kg/kg
 4 - turbulent kinetic energy, m**2/s**2
 5 - dissipation rate, m**2/s**3
 6 - kinematic heat conductance, m**2/s
 7 - modulus of horizontal velocity, m/s
 8 - Richardson number, n/d
   -0.000000    0.00000  0.0000E+00  0.4702E-13  0.1132E-15  0.1000E-09  0.0000E+00  0.8631E+16
   -0.034998    0.13180  0.0000E+00  0.4702E-13  0.1132E-15  0.1000E-09  0.0000E+00  0.8363E+16
   -0.069996    0.26427  0.0000E+00  0.4702E-13  0.1132E-15  0.1000E-09  0.0000E+00  0.8092E+16
   -0.104994    0.39739  0.0000E+00  0.4702E-13  0.1132E-15  0.1000E-09  0.0000E+00  0.7740E+16
   -0.139993    0.52983  0.0000E+00  0.4702E-13  0.1132E-15  0.1000E-09  0.0000E+00  0.7349E+16
   -0.174992    0.66075  0.0000E+00  0.4702E-13  0.1132E-15  0.1000E-09  0.0000E+00  0.6965E+16
   -0.209991    0.79006  0.0000E+00  0.4702E-13  0.1132E-15  0.1000E-09  0.0000E+00  0.6587E+16
   -0.244990    0.91763  0.0000E+00  0.4702E-13  0.1132E-15  0.1000E-09  0.0000E+00  0.6216E+16
   -0.279990    1.04336  0.0000E+00  0.4702E-13  0.1132E-15  0.1000E-09  0.0000E+00  0.5852E+16
   -0.314990    1.16713  0.0000E+00  0.4702E-13  0.1132E-15  0.1000E-09  0.0000E+00  0.5537E+16
   -0.349990    1.28971  0.0000E+00  0.4702E-13  0.1132E-15  0.1000E-09  0.0000E+00  0.5228E+16
   -0.384990    1.41105  0.0000E+00  0.4702E-13  0.1132E-15  0.1000E-09  0.0000E+00  0.4921E+16
   -0.419991    1.53099  0.0000E+00  0.4702E-13  0.1132E-15  0.1000E-09  0.0000E+00  0.4617E+16
   -0.454991    1.64934  0.0000E+00  0.4702E-13  0.1132E-15  0.1000E-09  0.0000E+00  0.4334E+16
   -0.489992    1.76639  0.0000E+00  0.4702E-13  0.1132E-15  0.1000E-09  0.0000E+00  0.4093E+16
   -0.524993    1.88315  0.0000E+00  0.4702E-13  0.1132E-15  0.1000E-09  0.0000E+00  0.4036E+16
   -0.559994    2.00524  0.0000E+00  0.4702E-13  0.1132E-15  0.1000E-09  0.0000E+00  0.4082E+16
   -0.594994    2.13719  0.0000E+00  0.4702E-13  0.1132E-15  0.1000E-09  0.0000E+00  0.4084E+16
   -0.629995    2.27972  0.0000E+00  0.4702E-13  0.1132E-15  0.1000E-09  0.0000E+00  0.3651E+16
   -0.664996    2.41838  0.0000E+00  0.4702E-13  0.1132E-15  0.1000E-09  0.0000E+00  0.3239E+16
   -0.699998    2.55290  0.0000E+00  0.7026E-13  0.1132E-15  0.1000E-09  0.0000E+00  0.2854E+16
   -0.734999    2.68318  0.0000E+00  0.2858E-12  0.1466E-15  0.1000E-09  0.0000E+00  0.2516E+16
   -0.770000    2.81021  0.0000E+00  0.7643E-12  0.3037E-15  0.1000E-09  0.0000E+00  0.2238E+16
   -0.805001    2.93634  0.0000E+00  0.1794E-11  0.6638E-15  0.1000E-09  0.0000E+00  0.1961E+16
   -0.840002    3.06109  0.0000E+00  0.4025E-11  0.1440E-14  0.1000E-09  0.0000E+00  0.1688E+16
   -0.875002    3.18414  0.0000E+00  0.8884E-11  0.3098E-14  0.1000E-09  0.0000E+00  0.1425E+16
   -0.910003    3.30541  0.0000E+00  0.1940E-10  0.6608E-14  0.1000E-09  0.0000E+00  0.1160E+16
   -0.945004    3.42328  0.0000E+00  0.4188E-10  0.1394E-13  0.1000E-09  0.0000E+00  0.9088E+15
   -0.980004    3.53698  0.0000E+00  0.8982E-10  0.2923E-13  0.1112E-09  0.0000E+00  0.6786E+15
   -1.015005    3.64601  0.0000E+00  0.1928E-09  0.6138E-13  0.3316E-09  0.0000E+00  0.4773E+15
   -1.050005    3.75149  0.0000E+00  0.4154E-09  0.1294E-12  0.1126E-08  0.0000E+00  0.2954E+15
   -1.085005    3.85391  0.0000E+00  0.8948E-09  0.2730E-12  0.5313E-08  0.0000E+00  0.1311E+15
   -1.120005    3.95787  0.0000E+00  0.1802E-08  0.5429E-12  0.2174E-06  0.0000E+00  0.4772E+13
   -1.155005    4.00092  0.0000E+00  0.2888E-08  0.9004E-12  0.3032E-05  0.0000E+00 -0.1312E+13
   -1.190004    4.00584  0.0000E+00  0.3668E-08  0.1247E-11  0.3494E-05  0.0000E+00 -0.1551E+13
   -1.225003    4.01039  0.0000E+00  0.4487E-08  0.1749E-11  0.3881E-05  0.0000E+00 -0.2088E+13
   -1.260002    4.01540  0.0000E+00  0.5409E-08  0.2569E-11  0.4262E-05  0.0000E+00 -0.3261E+13
   -1.295001    4.02185  0.0000E+00  0.6491E-08  0.4221E-11  0.4109E-05  0.0000E+00 -0.6364E+13
   -1.329999    4.03187  0.0000E+00  0.6853E-08  0.6836E-11  0.2353E-05  0.0000E+00 -0.1375E+14
   -1.364997    4.04822  0.0000E+00  0.5833E-08  0.1399E-10  0.6247E-06  0.0000E+00 -0.6540E+14
   -1.399995    4.09673  0.0000E+00  0.0000E+00  0.0000E+00  0.0000E+00  0.0000E+00  0.0000E+00
