 1 - depth, m
 2 - temperature, C
 3 - salinity, kg/kg
 4 - turbulent kinetic energy, m**2/s**2
 5 - dissipation rate, m**2/s**3
 6 - kinematic heat conductance, m**2/s
 7 - modulus of horizontal velocity, m/s
 8 - Richardson number, n/d
   -0.000000    0.00000  0.0000E+00  0.2098E-07  0.7234E-10  0.2426E-08  0.0000E+00  0.7694E+17
   -0.034999    1.42014  0.0000E+00  0.1341E-06  0.5294E-10  0.3252E-08  0.0000E+00  0.4226E+17
   -0.069998    2.82228  0.0000E+00  0.3378E-06  0.6376E-10  0.1583E-07  0.0000E+00  0.1065E+17
   -0.104997    4.09990  0.0000E+00  0.3396E-06  0.6395E-10  0.5672E-03  0.0000E+00 -0.6672E+12
   -0.139997    4.10025  0.0000E+00  0.3405E-06  0.6405E-10  0.5595E-03  0.0000E+00 -0.6019E+12
   -0.174997    4.10059  0.0000E+00  0.3412E-06  0.6416E-10  0.5645E-03  0.0000E+00 -0.5215E+12
   -0.209997    4.10093  0.0000E+00  0.3419E-06  0.6427E-10  0.5748E-03  0.0000E+00 -0.6311E+12
   -0.244997    4.10125  0.0000E+00  0.3425E-06  0.6439E-10  0.5695E-03  0.0000E+00 -0.5026E+12
   -0.279998    4.10157  0.0000E+00  0.3430E-06  0.6452E-10  0.5747E-03  0.0000E+00 -0.6079E+12
   -0.314999    4.10188  0.0000E+00  0.3434E-06  0.6467E-10  0.5648E-03  0.0000E+00 -0.5530E+12
   -0.350000    4.10219  0.0000E+00  0.3439E-06  0.6484E-10  0.5649E-03  0.0000E+00 -0.5433E+12
   -0.385001    4.10250  0.0000E+00  0.3442E-06  0.6503E-10  0.5741E-03  0.0000E+00 -0.4775E+12
   -0.420002    4.10279  0.0000E+00  0.3446E-06  0.6525E-10  0.5706E-03  0.0000E+00 -0.5827E+12
   -0.455004    4.10309  0.0000E+00  0.3448E-06  0.6549E-10  0.5629E-03  0.0000E+00 -0.5277E+12
   -0.490005    4.10338  0.0000E+00  0.3451E-06  0.6576E-10  0.5614E-03  0.0000E+00 -0.5303E+12
   -0.525007    4.10367  0.0000E+00  0.3453E-06  0.6611E-10  0.5592E-03  0.0000E+00 -0.5296E+12
   -0.560009    4.10397  0.0000E+00  0.3455E-06  0.6658E-10  0.5554E-03  0.0000E+00 -0.5605E+12
   -0.595011    4.10427  0.0000E+00  0.3457E-06  0.6729E-10  0.5504E-03  0.0000E+00 -0.5559E+12
   -0.630013    4.10458  0.0000E+00  0.3459E-06  0.6809E-10  0.5702E-03  0.0000E+00 -0.4900E+12
   -0.665015    4.10488  0.0000E+00  0.3460E-06  0.6895E-10  0.5304E-03  0.0000E+00 -0.6339E+12
   -0.700017    4.10520  0.0000E+00  0.3461E-06  0.6989E-10  0.5313E-03  0.0000E+00 -0.5753E+12
   -0.735019    4.10552  0.0000E+00  0.3461E-06  0.7094E-10  0.5545E-03  0.0000E+00 -0.4992E+12
   -0.770021    4.10582  0.0000E+00  0.3460E-06  0.7208E-10  0.5039E-03  0.0000E+00 -0.6524E+12
   -0.805023    4.10614  0.0000E+00  0.3459E-06  0.7337E-10  0.5062E-03  0.0000E+00 -0.5957E+12
   -0.840025    4.10646  0.0000E+00  0.3457E-06  0.7482E-10  0.5328E-03  0.0000E+00 -0.5159E+12
   -0.875027    4.10677  0.0000E+00  0.3455E-06  0.7642E-10  0.4701E-03  0.0000E+00 -0.6828E+12
   -0.910028    4.10711  0.0000E+00  0.3452E-06  0.7822E-10  0.5127E-03  0.0000E+00 -0.5359E+12
   -0.945030    4.10742  0.0000E+00  0.3448E-06  0.8026E-10  0.4441E-03  0.0000E+00 -0.7115E+12
   -0.980032    4.10778  0.0000E+00  0.3444E-06  0.8260E-10  0.4475E-03  0.0000E+00 -0.6605E+12
   -1.015033    4.10813  0.0000E+00  0.3439E-06  0.8537E-10  0.4344E-03  0.0000E+00 -0.6753E+12
   -1.050034    4.10849  0.0000E+00  0.3432E-06  0.8868E-10  0.4165E-03  0.0000E+00 -0.7047E+12
   -1.085035    4.10886  0.0000E+00  0.3425E-06  0.9263E-10  0.4466E-03  0.0000E+00 -0.6139E+12
   -1.120036    4.10921  0.0000E+00  0.3417E-06  0.9743E-10  0.3535E-03  0.0000E+00 -0.8661E+12
   -1.155037    4.10964  0.0000E+00  0.3407E-06  0.1032E-09  0.4017E-03  0.0000E+00 -0.6896E+12
   -1.190037    4.11002  0.0000E+00  0.3396E-06  0.1107E-09  0.3081E-03  0.0000E+00 -0.9798E+12
   -1.225037    4.11051  0.0000E+00  0.3381E-06  0.1213E-09  0.2985E-03  0.0000E+00 -0.9789E+12
   -1.260037    4.11101  0.0000E+00  0.3358E-06  0.1398E-09  0.2593E-03  0.0000E+00 -0.1152E+13
   -1.295037    4.11159  0.0000E+00  0.3308E-06  0.1845E-09  0.2121E-03  0.0000E+00 -0.1501E+13
   -1.330036    4.11237  0.0000E+00  0.3187E-06  0.3044E-09  0.9925E-04  0.0000E+00 -0.3233E+13
   -1.365035    4.11405  0.0000E+00  0.2200E-06  0.1532E-08  0.4143E-05  0.0000E+00 -0.8510E+14
   -1.400034    4.15136  0.0000E+00  0.0000E+00  0.0000E+00  0.0000E+00  0.0000E+00  0.0000E+00
