 1 - depth, m
 2 - temperature, C
 3 - salinity, kg/kg
 4 - turbulent kinetic energy, m**2/s**2
 5 - dissipation rate, m**2/s**3
 6 - kinematic heat conductance, m**2/s
 7 - modulus of horizontal velocity, m/s
 8 - Richardson number, n/d
   -0.000000    2.92794  0.0000E+00  0.9290E-04  0.4836E-04  0.3692E-04  0.7831E-01  0.2608E-02
   -0.034998    2.98412  0.0000E+00  0.5413E-04  0.1330E-04  0.6666E-04  0.2933E-01  0.4484E-02
   -0.069996    2.99793  0.0000E+00  0.3988E-04  0.5598E-05  0.7311E-04  0.2099E-01  0.6951E-02
   -0.104994    3.00822  0.0000E+00  0.3201E-04  0.3039E-05  0.7846E-04  0.1695E-01  0.2008E-01
   -0.139993    3.01670  0.0000E+00  0.2647E-04  0.1767E-05  0.8347E-04  0.1406E-01  0.1424E-01
   -0.174992    3.02430  0.0000E+00  0.2235E-04  0.1080E-05  0.8773E-04  0.1176E-01  0.2105E-01
   -0.209992    3.03143  0.0000E+00  0.1920E-04  0.6886E-06  0.9053E-04  0.9847E-02  0.2725E-01
   -0.244991    3.03832  0.0000E+00  0.1671E-04  0.4565E-06  0.9150E-04  0.8200E-02  0.3550E-01
   -0.279991    3.04522  0.0000E+00  0.1458E-04  0.3132E-06  0.8912E-04  0.6731E-02  0.4233E-01
   -0.314991    3.05253  0.0000E+00  0.1254E-04  0.2200E-06  0.8975E-04  0.5343E-02  0.8477E-01
   -0.349991    3.06010  0.0000E+00  0.1075E-04  0.1594E-06  0.8800E-04  0.4262E-02  0.1937E+00
   -0.384991    3.06854  0.0000E+00  0.9237E-05  0.1188E-06  0.8469E-04  0.3401E-02  0.6089E+00
   -0.419992    3.07919  0.0000E+00  0.7971E-05  0.9089E-07  0.7928E-04  0.2705E-02  0.3088E+01
   -0.454993    3.10374  0.0000E+00  0.6895E-05  0.7090E-07  0.7340E-04  0.2082E-02  0.6387E+02
   -0.489993    3.14930  0.0000E+00  0.5980E-05  0.5626E-07  0.6859E-04  0.1512E-02  0.4130E+04
   -0.524994    3.20536  0.0000E+00  0.5159E-05  0.4475E-07  0.6672E-04  0.1031E-02  0.5723E+06
   -0.559995    3.25498  0.0000E+00  0.4419E-05  0.3547E-07  0.6460E-04  0.7231E-03  0.2179E+07
   -0.594996    3.28516  0.0000E+00  0.3662E-05  0.2698E-07  0.6295E-04  0.5467E-03 -0.7347E+09
   -0.629997    3.31389  0.0000E+00  0.3006E-05  0.2036E-07  0.5481E-04  0.4622E-03  0.8606E+09
   -0.664999    3.34403  0.0000E+00  0.2460E-05  0.1537E-07  0.4759E-04  0.3845E-03  0.2387E+11
   -0.700000    3.38835  0.0000E+00  0.2010E-05  0.1160E-07  0.4293E-04  0.3132E-03  0.6365E+11
   -0.735001    3.45098  0.0000E+00  0.1640E-05  0.8742E-08  0.4340E-04  0.2502E-03 -0.3208E+11
   -0.770002    3.52161  0.0000E+00  0.1336E-05  0.6570E-08  0.4523E-04  0.1966E-03  0.1034E+12
   -0.805003    3.58950  0.0000E+00  0.1085E-05  0.4907E-08  0.4871E-04  0.1527E-03 -0.1613E+12
   -0.840004    3.64640  0.0000E+00  0.8761E-06  0.3636E-08  0.5186E-04  0.1159E-03 -0.2513E+12
   -0.875005    3.69994  0.0000E+00  0.7044E-06  0.2663E-08  0.5473E-04  0.8606E-04 -0.2746E+12
   -0.910006    3.75418  0.0000E+00  0.5661E-06  0.1931E-08  0.5721E-04  0.6286E-04 -0.3012E+12
   -0.945007    3.80116  0.0000E+00  0.4531E-06  0.1377E-08  0.5984E-04  0.4456E-04 -0.3072E+12
   -0.980007    3.85300  0.0000E+00  0.3627E-06  0.9641E-09  0.6235E-04  0.2927E-04 -0.3128E+12
   -1.015008    3.90966  0.0000E+00  0.2936E-06  0.6663E-09  0.6597E-04  0.1737E-04 -0.3155E+12
   -1.050008    3.95784  0.0000E+00  0.2440E-06  0.4573E-09  0.6889E-04  0.9455E-05 -0.3282E+12
   -1.085009    3.99748  0.0000E+00  0.2065E-06  0.3049E-09  0.6888E-04  0.4481E-05 -0.3954E+12
   -1.120009    4.04245  0.0000E+00  0.1848E-06  0.2128E-09  0.7059E-04  0.1668E-05 -0.4617E+12
   -1.155008    4.07409  0.0000E+00  0.1786E-06  0.1775E-09  0.7165E-04  0.5587E-06 -0.5718E+12
   -1.190008    4.08729  0.0000E+00  0.1772E-06  0.1670E-09  0.7133E-04  0.2095E-06 -0.7289E+12
   -1.225007    4.09672  0.0000E+00  0.1769E-06  0.1680E-09  0.6920E-04  0.7148E-07 -0.1034E+13
   -1.260006    4.10499  0.0000E+00  0.1761E-06  0.1789E-09  0.6358E-04  0.2329E-07 -0.1626E+13
   -1.295005    4.11333  0.0000E+00  0.1729E-06  0.2110E-09  0.5291E-04  0.7785E-08 -0.3423E+13
   -1.330003    4.12325  0.0000E+00  0.1637E-06  0.2931E-09  0.3190E-04  0.3434E-08 -0.8491E+13
   -1.365002    4.13940  0.0000E+00  0.1206E-06  0.7766E-09  0.3769E-05  0.1119E-08 -0.1862E+15
   -1.399999    4.24901  0.0000E+00  0.0000E+00  0.0000E+00  0.0000E+00  0.1119E-08  0.0000E+00
