 1 - depth, m
 2 - temperature, C
 3 - salinity, kg/kg
 4 - turbulent kinetic energy, m**2/s**2
 5 - dissipation rate, m**2/s**3
 6 - kinematic heat conductance, m**2/s
 7 - modulus of horizontal velocity, m/s
 8 - Richardson number, n/d
   -0.000000    8.44217  0.0000E+00  0.5648E-04  0.1871E-04  0.3315E-04  0.5429E-01 -0.2163E+00
   -0.034998    8.47843  0.0000E+00  0.3499E-04  0.5047E-05  0.5308E-04  0.2313E-01 -0.1011E-01
   -0.069997    8.48811  0.0000E+00  0.2690E-04  0.2212E-05  0.6406E-04  0.1686E-01 -0.1999E-01
   -0.104996    8.49514  0.0000E+00  0.2225E-04  0.1198E-05  0.7581E-04  0.1341E-01 -0.3039E-01
   -0.139995    8.50079  0.0000E+00  0.1897E-04  0.7072E-06  0.8730E-04  0.1093E-01 -0.4328E-01
   -0.174995    8.50556  0.0000E+00  0.1654E-04  0.4481E-06  0.9846E-04  0.9009E-02 -0.5978E-01
   -0.209994    8.50970  0.0000E+00  0.1467E-04  0.3027E-06  0.1091E-03  0.7456E-02 -0.7771E-01
   -0.244994    8.51336  0.0000E+00  0.1317E-04  0.2163E-06  0.1193E-03  0.6157E-02 -0.9318E-01
   -0.279995    8.51664  0.0000E+00  0.1188E-04  0.1609E-06  0.1336E-03  0.5041E-02  0.5644E-02
   -0.314995    8.51955  0.0000E+00  0.1068E-04  0.1223E-06  0.1885E-03  0.4049E-02  0.8325E+02
   -0.349996    8.52184  0.0000E+00  0.9656E-05  0.9508E-07  0.2214E-03  0.3285E-02  0.8233E+01
   -0.384996    8.52382  0.0000E+00  0.8787E-05  0.7548E-07  0.2455E-03  0.2668E-02  0.4078E+02
   -0.419997    8.52559  0.0000E+00  0.8065E-05  0.6126E-07  0.2682E-03  0.2162E-02  0.5449E+02
   -0.454999    8.52717  0.0000E+00  0.7463E-05  0.5080E-07  0.3024E-03  0.1721E-02  0.4206E+02
   -0.490000    8.52854  0.0000E+00  0.6952E-05  0.4299E-07  0.3182E-03  0.1334E-02  0.1344E+02
   -0.525001    8.52980  0.0000E+00  0.6477E-05  0.3662E-07  0.3508E-03  0.9944E-03  0.2228E+03
   -0.560003    8.53091  0.0000E+00  0.6031E-05  0.3121E-07  0.3818E-03  0.7509E-03  0.2985E+02
   -0.595004    8.53190  0.0000E+00  0.5586E-05  0.2619E-07  0.4019E-03  0.5979E-03  0.2197E+02
   -0.630006    8.53281  0.0000E+00  0.5235E-05  0.2241E-07  0.4152E-03  0.5156E-03  0.1533E+02
   -0.665007    8.53367  0.0000E+00  0.4954E-05  0.1955E-07  0.4279E-03  0.4490E-03  0.1177E+02
   -0.700009    8.53449  0.0000E+00  0.4721E-05  0.1731E-07  0.4406E-03  0.3901E-03  0.1973E+01
   -0.735010    8.53526  0.0000E+00  0.4526E-05  0.1552E-07  0.4486E-03  0.3389E-03  0.1052E+02
   -0.770012    8.53602  0.0000E+00  0.4360E-05  0.1408E-07  0.4543E-03  0.2946E-03  0.4663E+01
   -0.805014    8.53675  0.0000E+00  0.4218E-05  0.1291E-07  0.4589E-03  0.2564E-03  0.9671E+00
   -0.840015    8.53748  0.0000E+00  0.4096E-05  0.1196E-07  0.4625E-03  0.2235E-03  0.1903E+01
   -0.875016    8.53819  0.0000E+00  0.3991E-05  0.1120E-07  0.4652E-03  0.1951E-03  0.1235E+01
   -0.910018    8.53890  0.0000E+00  0.3898E-05  0.1057E-07  0.4666E-03  0.1707E-03  0.1473E+01
   -0.945019    8.53960  0.0000E+00  0.3817E-05  0.1008E-07  0.4664E-03  0.1491E-03  0.1745E+01
   -0.980020    8.54029  0.0000E+00  0.3744E-05  0.9694E-08  0.4643E-03  0.1297E-03  0.2090E+01
   -1.015021    8.54099  0.0000E+00  0.3677E-05  0.9405E-08  0.4599E-03  0.1122E-03  0.2537E+01
   -1.050022    8.54169  0.0000E+00  0.3615E-05  0.9205E-08  0.4527E-03  0.9685E-04  0.3296E+01
   -1.085023    8.54240  0.0000E+00  0.3554E-05  0.9092E-08  0.4424E-03  0.8342E-04  0.4370E+01
   -1.120023    8.54312  0.0000E+00  0.3494E-05  0.9078E-08  0.4281E-03  0.7165E-04  0.6041E+01
   -1.155023    8.54387  0.0000E+00  0.3434E-05  0.9184E-08  0.4102E-03  0.6087E-04  0.8045E+01
   -1.190023    8.54464  0.0000E+00  0.3373E-05  0.9459E-08  0.3847E-03  0.5086E-04  0.1089E+02
   -1.225023    8.54547  0.0000E+00  0.3302E-05  0.1003E-07  0.3571E-03  0.4139E-04  0.1132E+02
   -1.260023    8.54636  0.0000E+00  0.3205E-05  0.1129E-07  0.2926E-03  0.3310E-04  0.6479E+04
   -1.295022    8.54752  0.0000E+00  0.3012E-05  0.1479E-07  0.2757E-03  0.2556E-04  0.8885E+04
   -1.330021    8.54869  0.0000E+00  0.2627E-05  0.2569E-07  0.1184E-03  0.2138E-04 -0.2378E+04
   -1.365019    8.55499  0.0000E+00  0.1655E-05  0.7038E-07  0.3470E-04  0.1411E-04 -0.2405E+06
   -1.400018    8.56487  0.0000E+00  0.0000E+00  0.0000E+00  0.0000E+00  0.1650E-04  0.0000E+00
