 1 - depth, m
 2 - temperature, C
 3 - salinity, kg/kg
 4 - turbulent kinetic energy, m**2/s**2
 5 - dissipation rate, m**2/s**3
 6 - kinematic heat conductance, m**2/s
 7 - modulus of horizontal velocity, m/s
 8 - Richardson number, n/d
   -0.000000   19.03619  0.0000E+00  0.4254E-03  0.8541E-03  0.8905E-04  0.2552E+00  0.3802E-02
   -0.034998   19.16430  0.0000E+00  0.2326E-03  0.3443E-03  0.1419E-03  0.7916E-01 -0.7025E-01
   -0.069996   19.21420  0.0000E+00  0.1603E-03  0.1271E-03  0.1850E-03  0.4671E-01  0.1083E+01
   -0.104994   19.23724  0.0000E+00  0.1275E-03  0.7093E-04  0.1998E-03  0.3578E-01 -0.3005E+00
   -0.139993   19.24834  0.0000E+00  0.1061E-03  0.4264E-04  0.2078E-03  0.2953E-01 -0.4934E-01
   -0.174992   19.25608  0.0000E+00  0.9053E-04  0.2594E-04  0.2197E-03  0.2502E-01  0.3142E-01
   -0.209991   19.26154  0.0000E+00  0.7888E-04  0.1569E-04  0.2327E-03  0.2153E-01 -0.7885E-01
   -0.244990   19.26607  0.0000E+00  0.7002E-04  0.9576E-05  0.2473E-03  0.1863E-01  0.8244E+00
   -0.279990   19.27015  0.0000E+00  0.6293E-04  0.5896E-05  0.2575E-03  0.1604E-01  0.3821E+01
   -0.314990   19.27573  0.0000E+00  0.5671E-04  0.3710E-05  0.2873E-03  0.1341E-01  0.6176E+02
   -0.349990   19.27892  0.0000E+00  0.5164E-04  0.2468E-05  0.3167E-03  0.1156E-01  0.6264E+02
   -0.384990   19.28174  0.0000E+00  0.4739E-04  0.1688E-05  0.3533E-03  0.1006E-01  0.2496E+03
   -0.419991   19.28439  0.0000E+00  0.4386E-04  0.1208E-05  0.3999E-03  0.8772E-02  0.1155E+03
   -0.454991   19.28679  0.0000E+00  0.4086E-04  0.9140E-06  0.4453E-03  0.7575E-02  0.3595E+03
   -0.489992   19.28916  0.0000E+00  0.3822E-04  0.7304E-06  0.4967E-03  0.6433E-02  0.5577E+03
   -0.524993   19.29154  0.0000E+00  0.3562E-04  0.5996E-06  0.5471E-03  0.5386E-02  0.6813E+02
   -0.559993   19.29339  0.0000E+00  0.3290E-04  0.4945E-06  0.5757E-03  0.4568E-02  0.3156E+04
   -0.594994   19.29472  0.0000E+00  0.2991E-04  0.3997E-06  0.6081E-03  0.3966E-02  0.1301E+05
   -0.629995   19.29493  0.0000E+00  0.2740E-04  0.3290E-06  0.6337E-03  0.3621E-02  0.2594E+04
   -0.664996   19.29597  0.0000E+00  0.2525E-04  0.2753E-06  0.6346E-03  0.3288E-02  0.2596E+04
   -0.699997   19.29700  0.0000E+00  0.2333E-04  0.2322E-06  0.6525E-03  0.2946E-02  0.2910E+03
   -0.734998   19.29803  0.0000E+00  0.2163E-04  0.1976E-06  0.6484E-03  0.2629E-02  0.1090E+04
   -0.769999   19.29901  0.0000E+00  0.2008E-04  0.1689E-06  0.6451E-03  0.2326E-02  0.1002E+03
   -0.805000   19.29998  0.0000E+00  0.1864E-04  0.1449E-06  0.6421E-03  0.2041E-02  0.1320E+03
   -0.840001   19.30093  0.0000E+00  0.1740E-04  0.1259E-06  0.6697E-03  0.1779E-02  0.9048E+02
   -0.875002   19.30185  0.0000E+00  0.1630E-04  0.1108E-06  0.6645E-03  0.1557E-02  0.1642E+03
   -0.910003   19.30275  0.0000E+00  0.1529E-04  0.9841E-07  0.6480E-03  0.1360E-02  0.1295E+03
   -0.945004   19.30369  0.0000E+00  0.1430E-04  0.8803E-07  0.6260E-03  0.1168E-02  0.1391E+03
   -0.980004   19.30465  0.0000E+00  0.1344E-04  0.8050E-07  0.6381E-03  0.9924E-03  0.5400E+03
   -1.015005   19.30561  0.0000E+00  0.1266E-04  0.7528E-07  0.6138E-03  0.8406E-03  0.1226E+04
   -1.050005   19.30659  0.0000E+00  0.1193E-04  0.7212E-07  0.5768E-03  0.7153E-03  0.3768E+03
   -1.085005   19.30764  0.0000E+00  0.1122E-04  0.7125E-07  0.5508E-03  0.5983E-03  0.3320E+03
   -1.120005   19.30876  0.0000E+00  0.1055E-04  0.7379E-07  0.5204E-03  0.5058E-03  0.4565E+03
   -1.155005   19.31003  0.0000E+00  0.9884E-05  0.8260E-07  0.4981E-03  0.4259E-03  0.6902E+03
   -1.190004   19.31159  0.0000E+00  0.9111E-05  0.1052E-06  0.4411E-03  0.3505E-03  0.1999E+04
   -1.225003   19.31404  0.0000E+00  0.8253E-05  0.1492E-06  0.4065E-03  0.2669E-03  0.2904E+04
   -1.260002   19.31646  0.0000E+00  0.7193E-05  0.2627E-06  0.3157E-03  0.1975E-03  0.2839E+04
   -1.295001   19.32457  0.0000E+00  0.6081E-05  0.4925E-06  0.2947E-03  0.1295E-03  0.5557E+05
   -1.329999   19.31955  0.0000E+00  0.4844E-05  0.1175E-05  0.1540E-03  0.1178E-03  0.9972E+06
   -1.364997   19.34403  0.0000E+00  0.3476E-05  0.2306E-05  0.1383E-03  0.6882E-04 -0.6926E+08
   -1.399995   19.34655  0.0000E+00  0.0000E+00  0.0000E+00  0.0000E+00  0.1446E-03  0.0000E+00
