 1 - depth, m
 2 - temperature, C
 3 - salinity, kg/kg
 4 - turbulent kinetic energy, m**2/s**2
 5 - dissipation rate, m**2/s**3
 6 - kinematic heat conductance, m**2/s
 7 - modulus of horizontal velocity, m/s
 8 - Richardson number, n/d
   -0.000000    0.00000  0.0000E+00  0.4702E-13  0.1132E-15  0.1000E-09  0.0000E+00  0.8901E+16
   -0.034998    0.13600  0.0000E+00  0.4702E-13  0.1132E-15  0.1000E-09  0.0000E+00  0.8682E+16
   -0.069996    0.27378  0.0000E+00  0.4702E-13  0.1132E-15  0.1000E-09  0.0000E+00  0.8455E+16
   -0.104995    0.41339  0.0000E+00  0.4702E-13  0.1132E-15  0.1000E-09  0.0000E+00  0.8125E+16
   -0.139993    0.55325  0.0000E+00  0.4702E-13  0.1132E-15  0.1000E-09  0.0000E+00  0.7744E+16
   -0.174993    0.69240  0.0000E+00  0.4702E-13  0.1132E-15  0.1000E-09  0.0000E+00  0.7366E+16
   -0.209992    0.83077  0.0000E+00  0.4702E-13  0.1132E-15  0.1000E-09  0.0000E+00  0.6992E+16
   -0.244991    0.96830  0.0000E+00  0.4702E-13  0.1132E-15  0.1000E-09  0.0000E+00  0.6621E+16
   -0.279991    1.10490  0.0000E+00  0.4702E-13  0.1132E-15  0.1000E-09  0.0000E+00  0.6255E+16
   -0.314991    1.24051  0.0000E+00  0.4702E-13  0.1132E-15  0.1000E-09  0.0000E+00  0.5923E+16
   -0.349992    1.37570  0.0000E+00  0.7552E-13  0.1132E-15  0.1000E-09  0.0000E+00  0.5594E+16
   -0.384992    1.51046  0.0000E+00  0.2433E-12  0.1173E-15  0.1000E-09  0.0000E+00  0.5265E+16
   -0.419993    1.64469  0.0000E+00  0.6144E-12  0.1598E-15  0.1000E-09  0.0000E+00  0.4942E+16
   -0.454993    1.77840  0.0000E+00  0.1268E-11  0.2717E-15  0.1000E-09  0.0000E+00  0.4638E+16
   -0.489994    1.91200  0.0000E+00  0.2408E-11  0.4813E-15  0.1000E-09  0.0000E+00  0.4369E+16
   -0.524995    2.04655  0.0000E+00  0.4625E-11  0.8937E-15  0.1000E-09  0.0000E+00  0.4260E+16
   -0.559996    2.18775  0.0000E+00  0.9190E-11  0.1738E-14  0.1000E-09  0.0000E+00  0.4240E+16
   -0.594997    2.34063  0.0000E+00  0.1926E-10  0.3581E-14  0.1000E-09  0.0000E+00  0.4164E+16
   -0.629998    2.50653  0.0000E+00  0.3643E-10  0.6681E-14  0.1000E-09  0.0000E+00  0.3672E+16
   -0.664999    2.67055  0.0000E+00  0.6564E-10  0.1188E-13  0.1000E-09  0.0000E+00  0.3196E+16
   -0.700001    2.83254  0.0000E+00  0.1164E-09  0.2077E-13  0.1000E-09  0.0000E+00  0.2738E+16
   -0.735002    2.99257  0.0000E+00  0.2057E-09  0.3622E-13  0.1000E-09  0.0000E+00  0.2311E+16
   -0.770003    3.15164  0.0000E+00  0.3633E-09  0.6310E-13  0.1049E-09  0.0000E+00  0.1915E+16
   -0.805004    3.31167  0.0000E+00  0.6414E-09  0.1099E-12  0.1891E-09  0.0000E+00  0.1508E+16
   -0.840005    3.47212  0.0000E+00  0.1130E-08  0.1909E-12  0.4518E-09  0.0000E+00  0.1096E+16
   -0.875006    3.63210  0.0000E+00  0.1988E-08  0.3313E-12  0.1249E-08  0.0000E+00  0.6834E+15
   -0.910007    3.79012  0.0000E+00  0.3484E-08  0.5728E-12  0.5188E-08  0.0000E+00  0.2815E+15
   -0.945008    3.93993  0.0000E+00  0.5495E-08  0.9038E-12  0.1318E-05  0.0000E+00  0.1892E+14
   -0.980009    4.00378  0.0000E+00  0.6355E-08  0.1056E-11  0.1493E-04  0.0000E+00 -0.3772E+12
   -1.015009    4.00530  0.0000E+00  0.6815E-08  0.1152E-11  0.1576E-04  0.0000E+00 -0.3977E+12
   -1.050010    4.00671  0.0000E+00  0.7229E-08  0.1256E-11  0.1633E-04  0.0000E+00 -0.4236E+12
   -1.085010    4.00809  0.0000E+00  0.7619E-08  0.1375E-11  0.1673E-04  0.0000E+00 -0.4632E+12
   -1.120010    4.00948  0.0000E+00  0.7983E-08  0.1514E-11  0.1658E-04  0.0000E+00 -0.5073E+12
   -1.155010    4.01090  0.0000E+00  0.8324E-08  0.1684E-11  0.1602E-04  0.0000E+00 -0.5699E+12
   -1.190009    4.01240  0.0000E+00  0.8647E-08  0.1905E-11  0.1504E-04  0.0000E+00 -0.6709E+12
   -1.225009    4.01405  0.0000E+00  0.8966E-08  0.2224E-11  0.1406E-04  0.0000E+00 -0.8691E+12
   -1.260008    4.01603  0.0000E+00  0.9269E-08  0.2735E-11  0.1291E-04  0.0000E+00 -0.1283E+13
   -1.295007    4.01872  0.0000E+00  0.9477E-08  0.3871E-11  0.9777E-05  0.0000E+00 -0.2547E+13
   -1.330005    4.02345  0.0000E+00  0.9029E-08  0.6257E-11  0.4175E-05  0.0000E+00 -0.6487E+13
   -1.365003    4.03334  0.0000E+00  0.6747E-08  0.1454E-10  0.6816E-06  0.0000E+00 -0.4468E+14
   -1.400001    4.07532  0.0000E+00  0.0000E+00  0.0000E+00  0.0000E+00  0.0000E+00  0.0000E+00
