 1 - depth, m
 2 - temperature, C
 3 - salinity, kg/kg
 4 - turbulent kinetic energy, m**2/s**2
 5 - dissipation rate, m**2/s**3
 6 - kinematic heat conductance, m**2/s
 7 - modulus of horizontal velocity, m/s
 8 - Richardson number, n/d
   -0.000000    0.00000  0.0000E+00  0.4702E-13  0.1132E-15  0.1000E-09  0.0000E+00  0.1331E+17
   -0.034998    0.20538  0.0000E+00  0.6146E-13  0.1132E-15  0.1000E-09  0.0000E+00  0.1252E+17
   -0.069997    0.41003  0.0000E+00  0.2443E-12  0.1132E-15  0.1000E-09  0.0000E+00  0.1171E+17
   -0.104996    0.61334  0.0000E+00  0.6157E-12  0.1322E-15  0.1000E-09  0.0000E+00  0.1082E+17
   -0.139995    0.81353  0.0000E+00  0.1209E-11  0.1952E-15  0.1000E-09  0.0000E+00  0.9926E+16
   -0.174995    1.00957  0.0000E+00  0.2132E-11  0.3073E-15  0.1000E-09  0.0000E+00  0.9067E+16
   -0.209995    1.20133  0.0000E+00  0.3571E-11  0.4884E-15  0.1000E-09  0.0000E+00  0.8250E+16
   -0.244995    1.38869  0.0000E+00  0.5829E-11  0.7737E-15  0.1000E-09  0.0000E+00  0.7476E+16
   -0.279995    1.57156  0.0000E+00  0.9385E-11  0.1219E-14  0.1000E-09  0.0000E+00  0.6745E+16
   -0.314996    1.74989  0.0000E+00  0.1506E-10  0.1921E-14  0.1000E-09  0.0000E+00  0.6089E+16
   -0.349997    1.92463  0.0000E+00  0.2423E-10  0.3038E-14  0.1000E-09  0.0000E+00  0.5468E+16
   -0.384998    2.09575  0.0000E+00  0.3895E-10  0.4804E-14  0.1000E-09  0.0000E+00  0.4877E+16
   -0.419999    2.26314  0.0000E+00  0.6233E-10  0.7568E-14  0.1000E-09  0.0000E+00  0.4326E+16
   -0.455000    2.42703  0.0000E+00  0.9928E-10  0.1187E-13  0.1000E-09  0.0000E+00  0.3823E+16
   -0.490001    2.58821  0.0000E+00  0.1576E-09  0.1855E-13  0.1000E-09  0.0000E+00  0.3371E+16
   -0.525003    2.74808  0.0000E+00  0.2596E-09  0.3006E-13  0.1000E-09  0.0000E+00  0.3055E+16
   -0.560004    2.91381  0.0000E+00  0.4476E-09  0.5101E-13  0.1000E-09  0.0000E+00  0.2778E+16
   -0.595006    3.09127  0.0000E+00  0.8187E-09  0.9180E-13  0.1091E-09  0.0000E+00  0.2418E+16
   -0.630007    3.28186  0.0000E+00  0.1379E-08  0.1526E-12  0.2205E-09  0.0000E+00  0.1798E+16
   -0.665009    3.46780  0.0000E+00  0.2213E-08  0.2416E-12  0.5157E-09  0.0000E+00  0.1219E+16
   -0.700011    3.64836  0.0000E+00  0.3478E-08  0.3748E-12  0.1428E-08  0.0000E+00  0.6852E+15
   -0.735012    3.82201  0.0000E+00  0.5415E-08  0.5760E-12  0.7448E-08  0.0000E+00  0.2091E+15
   -0.770014    3.98228  0.0000E+00  0.6185E-08  0.6605E-12  0.1408E-04  0.0000E+00  0.3643E+13
   -0.805016    3.99377  0.0000E+00  0.6553E-08  0.7066E-12  0.1964E-04  0.0000E+00 -0.1418E+12
   -0.840017    3.99501  0.0000E+00  0.6858E-08  0.7507E-12  0.2201E-04  0.0000E+00 -0.1494E+12
   -0.875019    3.99611  0.0000E+00  0.7141E-08  0.7970E-12  0.2373E-04  0.0000E+00 -0.1578E+12
   -0.910020    3.99712  0.0000E+00  0.7404E-08  0.8459E-12  0.2469E-04  0.0000E+00 -0.1677E+12
   -0.945022    3.99810  0.0000E+00  0.7648E-08  0.8978E-12  0.2520E-04  0.0000E+00 -0.1792E+12
   -0.980023    3.99905  0.0000E+00  0.7877E-08  0.9542E-12  0.2538E-04  0.0000E+00 -0.1927E+12
   -1.015024    3.99999  0.0000E+00  0.8095E-08  0.1017E-11  0.2535E-04  0.0000E+00 -0.2115E+12
   -1.050025    4.00095  0.0000E+00  0.8306E-08  0.1090E-11  0.2506E-04  0.0000E+00 -0.2353E+12
   -1.085026    4.00195  0.0000E+00  0.8510E-08  0.1176E-11  0.2456E-04  0.0000E+00 -0.2651E+12
   -1.120026    4.00301  0.0000E+00  0.8704E-08  0.1278E-11  0.2368E-04  0.0000E+00 -0.2959E+12
   -1.155026    4.00411  0.0000E+00  0.8886E-08  0.1404E-11  0.2246E-04  0.0000E+00 -0.3364E+12
   -1.190027    4.00528  0.0000E+00  0.9059E-08  0.1569E-11  0.2079E-04  0.0000E+00 -0.3993E+12
   -1.225026    4.00659  0.0000E+00  0.9229E-08  0.1813E-11  0.1891E-04  0.0000E+00 -0.5267E+12
   -1.260026    4.00818  0.0000E+00  0.9384E-08  0.2217E-11  0.1659E-04  0.0000E+00 -0.8043E+12
   -1.295025    4.01042  0.0000E+00  0.9462E-08  0.3209E-11  0.1181E-04  0.0000E+00 -0.1709E+13
   -1.330024    4.01458  0.0000E+00  0.8990E-08  0.5635E-11  0.4477E-05  0.0000E+00 -0.5174E+13
   -1.365023    4.02450  0.0000E+00  0.6800E-08  0.1448E-10  0.7006E-06  0.0000E+00 -0.4395E+14
   -1.400022    4.07042  0.0000E+00  0.0000E+00  0.0000E+00  0.0000E+00  0.0000E+00  0.0000E+00
