 1 - depth, m
 2 - temperature, C
 3 - salinity, kg/kg
 4 - turbulent kinetic energy, m**2/s**2
 5 - dissipation rate, m**2/s**3
 6 - kinematic heat conductance, m**2/s
 7 - modulus of horizontal velocity, m/s
 8 - Richardson number, n/d
   -0.000000    0.00000  0.0000E+00  0.4702E-13  0.1132E-15  0.1000E-09  0.0000E+00  0.1773E+17
   -0.034997    0.27615  0.0000E+00  0.4702E-13  0.1132E-15  0.1000E-09  0.0000E+00  0.1573E+17
   -0.069994    0.54088  0.0000E+00  0.4702E-13  0.1132E-15  0.1000E-09  0.0000E+00  0.1390E+17
   -0.104991    0.79425  0.0000E+00  0.4702E-13  0.1132E-15  0.1000E-09  0.0000E+00  0.1217E+17
   -0.139989    1.03480  0.0000E+00  0.4702E-13  0.1132E-15  0.1000E-09  0.0000E+00  0.1057E+17
   -0.174987    1.26178  0.0000E+00  0.4702E-13  0.1132E-15  0.1000E-09  0.0000E+00  0.9136E+16
   -0.209985    1.47536  0.0000E+00  0.4978E-13  0.1132E-15  0.1000E-09  0.0000E+00  0.7865E+16
   -0.244983    1.67569  0.0000E+00  0.1788E-12  0.1132E-15  0.1000E-09  0.0000E+00  0.6742E+16
   -0.279982    1.86302  0.0000E+00  0.4967E-12  0.1288E-15  0.1000E-09  0.0000E+00  0.5755E+16
   -0.314981    2.03765  0.0000E+00  0.1040E-11  0.1949E-15  0.1000E-09  0.0000E+00  0.4937E+16
   -0.349980    2.20151  0.0000E+00  0.1940E-11  0.3222E-15  0.1000E-09  0.0000E+00  0.4215E+16
   -0.384979    2.35477  0.0000E+00  0.3434E-11  0.5410E-15  0.1000E-09  0.0000E+00  0.3573E+16
   -0.419978    2.49738  0.0000E+00  0.5910E-11  0.9046E-15  0.1000E-09  0.0000E+00  0.3035E+16
   -0.454978    2.63053  0.0000E+00  0.1002E-10  0.1503E-14  0.1000E-09  0.0000E+00  0.2597E+16
   -0.489978    2.75612  0.0000E+00  0.1685E-10  0.2485E-14  0.1000E-09  0.0000E+00  0.2244E+16
   -0.524977    2.87628  0.0000E+00  0.2944E-10  0.4269E-14  0.1000E-09  0.0000E+00  0.2073E+16
   -0.559977    3.00047  0.0000E+00  0.5383E-10  0.7681E-14  0.1000E-09  0.0000E+00  0.1962E+16
   -0.594977    3.13484  0.0000E+00  0.1043E-09  0.1466E-13  0.1000E-09  0.0000E+00  0.1790E+16
   -0.629977    3.27972  0.0000E+00  0.1847E-09  0.2560E-13  0.1000E-09  0.0000E+00  0.1358E+16
   -0.664977    3.41394  0.0000E+00  0.3115E-09  0.4262E-13  0.1157E-09  0.0000E+00  0.9966E+15
   -0.699977    3.53754  0.0000E+00  0.5157E-09  0.6963E-13  0.2572E-09  0.0000E+00  0.6995E+15
   -0.734977    3.65069  0.0000E+00  0.8499E-09  0.1132E-12  0.6264E-09  0.0000E+00  0.4662E+15
   -0.769977    3.75526  0.0000E+00  0.1398E-08  0.1837E-12  0.1664E-08  0.0000E+00  0.2835E+15
   -0.804977    3.85481  0.0000E+00  0.2291E-08  0.2971E-12  0.6163E-08  0.0000E+00  0.1232E+15
   -0.839977    3.94633  0.0000E+00  0.3608E-08  0.4639E-12  0.1177E-06  0.0000E+00  0.1170E+14
   -0.874977    3.99838  0.0000E+00  0.4237E-08  0.5484E-12  0.1122E-04  0.0000E+00 -0.2289E+12
   -0.909977    3.99958  0.0000E+00  0.4589E-08  0.6042E-12  0.1205E-04  0.0000E+00 -0.2392E+12
   -0.944976    4.00071  0.0000E+00  0.4921E-08  0.6660E-12  0.1256E-04  0.0000E+00 -0.2534E+12
   -0.979976    4.00181  0.0000E+00  0.5241E-08  0.7361E-12  0.1280E-04  0.0000E+00 -0.2728E+12
   -1.014975    4.00291  0.0000E+00  0.5554E-08  0.8178E-12  0.1307E-04  0.0000E+00 -0.3023E+12
   -1.049974    4.00405  0.0000E+00  0.5864E-08  0.9157E-12  0.1317E-04  0.0000E+00 -0.3426E+12
   -1.084973    4.00526  0.0000E+00  0.6175E-08  0.1036E-11  0.1296E-04  0.0000E+00 -0.3972E+12
   -1.119972    4.00656  0.0000E+00  0.6483E-08  0.1186E-11  0.1213E-04  0.0000E+00 -0.4660E+12
   -1.154971    4.00799  0.0000E+00  0.6795E-08  0.1380E-11  0.1107E-04  0.0000E+00 -0.5650E+12
   -1.189969    4.00960  0.0000E+00  0.7122E-08  0.1646E-11  0.9939E-05  0.0000E+00 -0.7213E+12
   -1.224968    4.01151  0.0000E+00  0.7506E-08  0.2055E-11  0.9185E-05  0.0000E+00 -0.1036E+13
   -1.259966    4.01402  0.0000E+00  0.7970E-08  0.2762E-11  0.8518E-05  0.0000E+00 -0.1743E+13
   -1.294963    4.01778  0.0000E+00  0.8520E-08  0.4386E-11  0.6649E-05  0.0000E+00 -0.3977E+13
   -1.329961    4.02501  0.0000E+00  0.8521E-08  0.7612E-11  0.3111E-05  0.0000E+00 -0.1078E+14
   -1.364958    4.03991  0.0000E+00  0.7186E-08  0.1752E-10  0.7468E-06  0.0000E+00 -0.6680E+14
   -1.399954    4.09312  0.0000E+00  0.0000E+00  0.0000E+00  0.0000E+00  0.0000E+00  0.0000E+00
