 1 - depth, m
 2 - temperature, C
 3 - salinity, kg/kg
 4 - turbulent kinetic energy, m**2/s**2
 5 - dissipation rate, m**2/s**3
 6 - kinematic heat conductance, m**2/s
 7 - modulus of horizontal velocity, m/s
 8 - Richardson number, n/d
   -0.000000    0.03222  0.0000E+00  0.1782E-03  0.1045E-03  0.5488E-04  0.1423E+00  0.2622E-02
   -0.034998    0.04141  0.0000E+00  0.1087E-03  0.3025E-04  0.9812E-04  0.4890E-01 -0.2797E-01
   -0.069996    0.04510  0.0000E+00  0.8126E-04  0.1306E-04  0.1161E-03  0.3383E-01  0.1022E-02
   -0.104995    0.04777  0.0000E+00  0.6663E-04  0.6975E-05  0.1268E-03  0.2755E-01  0.7422E-02
   -0.139993    0.04979  0.0000E+00  0.5685E-04  0.4072E-05  0.1391E-03  0.2325E-01  0.4935E-02
   -0.174992    0.05148  0.0000E+00  0.4964E-04  0.2531E-05  0.1510E-03  0.1986E-01  0.1123E-01
   -0.209992    0.05298  0.0000E+00  0.4412E-04  0.1665E-05  0.1612E-03  0.1706E-01  0.7072E-02
   -0.244991    0.05438  0.0000E+00  0.3971E-04  0.1158E-05  0.1689E-03  0.1462E-01  0.8231E-02
   -0.279991    0.05571  0.0000E+00  0.3589E-04  0.8460E-06  0.1720E-03  0.1244E-01  0.9167E-02
   -0.314991    0.05706  0.0000E+00  0.3223E-04  0.6366E-06  0.1801E-03  0.1038E-01  0.1481E-01
   -0.349991    0.05833  0.0000E+00  0.2896E-04  0.4926E-06  0.1852E-03  0.8724E-02  0.3289E-01
   -0.384992    0.05957  0.0000E+00  0.2611E-04  0.3901E-06  0.1880E-03  0.7341E-02  0.7960E-01
   -0.419992    0.06080  0.0000E+00  0.2364E-04  0.3156E-06  0.1866E-03  0.6165E-02  0.1404E+00
   -0.454993    0.06207  0.0000E+00  0.2146E-04  0.2595E-06  0.1828E-03  0.5095E-02  0.2918E+00
   -0.489994    0.06343  0.0000E+00  0.1948E-04  0.2164E-06  0.1795E-03  0.4097E-02  0.1323E+01
   -0.524995    0.06492  0.0000E+00  0.1754E-04  0.1802E-06  0.1831E-03  0.3201E-02  0.4645E+01
   -0.559996    0.06620  0.0000E+00  0.1563E-04  0.1491E-06  0.1850E-03  0.2543E-02 -0.9321E+04
   -0.594997    0.06727  0.0000E+00  0.1358E-04  0.1190E-06  0.1806E-03  0.2112E-02 -0.4626E+04
   -0.629998    0.06821  0.0000E+00  0.1175E-04  0.9465E-07  0.1673E-03  0.1862E-02 -0.1819E+04
   -0.664999    0.06925  0.0000E+00  0.1018E-04  0.7562E-07  0.1543E-03  0.1626E-02 -0.8599E+04
   -0.700000    0.07039  0.0000E+00  0.8824E-05  0.6066E-07  0.1415E-03  0.1406E-02  0.1161E+05
   -0.735001    0.07165  0.0000E+00  0.7641E-05  0.4874E-07  0.1289E-03  0.1203E-02 -0.2389E+05
   -0.770003    0.07304  0.0000E+00  0.6602E-05  0.3920E-07  0.1164E-03  0.1020E-02  0.6484E+05
   -0.805004    0.07456  0.0000E+00  0.5686E-05  0.3151E-07  0.1037E-03  0.8583E-03  0.3923E+06
   -0.840005    0.07627  0.0000E+00  0.4876E-05  0.2531E-07  0.9110E-04  0.7150E-03  0.1214E+05
   -0.875006    0.07820  0.0000E+00  0.4158E-05  0.2028E-07  0.7877E-04  0.5890E-03  0.4194E+05
   -0.910007    0.08038  0.0000E+00  0.3518E-05  0.1618E-07  0.6614E-04  0.4811E-03  0.6213E+05
   -0.945007    0.08300  0.0000E+00  0.2951E-05  0.1286E-07  0.5378E-04  0.3853E-03  0.2258E+06
   -0.980008    0.08637  0.0000E+00  0.2447E-05  0.1016E-07  0.4189E-04  0.2993E-03  0.1659E+07
   -1.015009    0.09121  0.0000E+00  0.2000E-05  0.7957E-08  0.3149E-04  0.2212E-03  0.3179E+08
   -1.050009    0.09721  0.0000E+00  0.1608E-05  0.6173E-08  0.2229E-04  0.1571E-03  0.6045E+09
   -1.085009    0.10399  0.0000E+00  0.1249E-05  0.4674E-08  0.1243E-04  0.1087E-03  0.1390E+12
   -1.120009    0.12156  0.0000E+00  0.8701E-06  0.3218E-08  0.3910E-05  0.7300E-04  0.2152E+14
   -1.155009    0.21396  0.0000E+00  0.4429E-06  0.1631E-08  0.2487E-06  0.3701E-04  0.2776E+15
   -1.190009    0.57087  0.0000E+00  0.1048E-06  0.3916E-09  0.2569E-07  0.6152E-05  0.1007E+16
   -1.225008    1.24186  0.0000E+00  0.1768E-07  0.6840E-10  0.5663E-08  0.3211E-06  0.3272E+16
   -1.260007    1.98393  0.0000E+00  0.2897E-08  0.1165E-10  0.1689E-08  0.1044E-07  0.4963E+16
   -1.295006    2.66695  0.0000E+00  0.4265E-09  0.1856E-11  0.7352E-09  0.2798E-09  0.4192E+16
   -1.330004    3.12789  0.0000E+00  0.5695E-10  0.4322E-12  0.5000E-09  0.1316E-10  0.3243E+16
   -1.365003    3.46835  0.0000E+00  0.5995E-11  0.3095E-12  0.1464E-09  0.4883E-12  0.5640E+15
   -1.400000    3.55981  0.0000E+00  0.0000E+00  0.0000E+00  0.0000E+00  0.4873E-12  0.0000E+00
