 1 - depth, m
 2 - temperature, C
 3 - salinity, kg/kg
 4 - turbulent kinetic energy, m**2/s**2
 5 - dissipation rate, m**2/s**3
 6 - kinematic heat conductance, m**2/s
 7 - modulus of horizontal velocity, m/s
 8 - Richardson number, n/d
   -0.000000   12.00229  0.0000E+00  0.1349E-03  0.6428E-04  0.4633E-04  0.1082E+00 -0.1687E-01
   -0.034998   12.07700  0.0000E+00  0.7891E-04  0.1748E-04  0.8516E-04  0.3571E-01 -0.1721E-01
   -0.069996   12.08998  0.0000E+00  0.5843E-04  0.7605E-05  0.1004E-03  0.2482E-01 -0.4104E-01
   -0.104994   12.09918  0.0000E+00  0.4750E-04  0.4159E-05  0.1102E-03  0.2016E-01 -0.3573E-01
   -0.139993   12.10583  0.0000E+00  0.4003E-04  0.2463E-05  0.1214E-03  0.1685E-01 -0.4039E-01
   -0.174992   12.11124  0.0000E+00  0.3453E-04  0.1542E-05  0.1333E-03  0.1422E-01 -0.5097E-01
   -0.209991   12.11591  0.0000E+00  0.3036E-04  0.1019E-05  0.1452E-03  0.1205E-01 -0.4335E-01
   -0.244990   12.12009  0.0000E+00  0.2708E-04  0.7079E-06  0.1561E-03  0.1018E-01  0.8731E+00
   -0.279990   12.12394  0.0000E+00  0.2435E-04  0.5137E-06  0.1668E-03  0.8539E-02  0.1017E+01
   -0.314990   12.12755  0.0000E+00  0.2189E-04  0.3839E-06  0.1949E-03  0.7047E-02  0.1643E+02
   -0.349990   12.13068  0.0000E+00  0.1980E-04  0.2951E-06  0.2304E-03  0.5859E-02  0.1723E+03
   -0.384990   12.13340  0.0000E+00  0.1804E-04  0.2327E-06  0.2729E-03  0.4889E-02  0.1875E+03
   -0.419990   12.13576  0.0000E+00  0.1659E-04  0.1882E-06  0.3169E-03  0.4080E-02  0.8935E+02
   -0.454991   12.13784  0.0000E+00  0.1536E-04  0.1558E-06  0.3639E-03  0.3361E-02  0.1440E+03
   -0.489992   12.13966  0.0000E+00  0.1430E-04  0.1317E-06  0.4073E-03  0.2706E-02  0.4149E+02
   -0.524992   12.14124  0.0000E+00  0.1326E-04  0.1118E-06  0.4389E-03  0.2115E-02  0.5141E+02
   -0.559993   12.14259  0.0000E+00  0.1222E-04  0.9424E-07  0.4720E-03  0.1657E-02  0.1566E+02
   -0.594994   12.14371  0.0000E+00  0.1113E-04  0.7751E-07  0.5194E-03  0.1347E-02  0.6175E+02
   -0.629995   12.14459  0.0000E+00  0.1026E-04  0.6484E-07  0.5369E-03  0.1173E-02  0.5776E+02
   -0.664996   12.14544  0.0000E+00  0.9557E-05  0.5522E-07  0.5446E-03  0.1027E-02  0.2126E+02
   -0.699997   12.14628  0.0000E+00  0.8966E-05  0.4761E-07  0.5521E-03  0.8919E-03  0.2326E+02
   -0.734998   12.14711  0.0000E+00  0.8467E-05  0.4156E-07  0.5600E-03  0.7705E-03  0.1475E+01
   -0.769999   12.14793  0.0000E+00  0.8044E-05  0.3675E-07  0.5679E-03  0.6635E-03  0.1213E+01
   -0.805000   12.14875  0.0000E+00  0.7686E-05  0.3293E-07  0.5747E-03  0.5709E-03  0.1011E+01
   -0.840001   12.14956  0.0000E+00  0.7383E-05  0.2993E-07  0.5796E-03  0.4908E-03  0.1121E+01
   -0.875002   12.15038  0.0000E+00  0.7125E-05  0.2759E-07  0.5824E-03  0.4223E-03  0.1282E+01
   -0.910003   12.15119  0.0000E+00  0.6904E-05  0.2581E-07  0.5818E-03  0.3643E-03  0.1516E+01
   -0.945003   12.15202  0.0000E+00  0.6714E-05  0.2450E-07  0.5770E-03  0.3144E-03  0.1806E+01
   -0.980004   12.15286  0.0000E+00  0.6548E-05  0.2361E-07  0.5677E-03  0.2709E-03  0.2178E+01
   -1.015004   12.15374  0.0000E+00  0.6401E-05  0.2307E-07  0.5538E-03  0.2331E-03  0.2671E+01
   -1.050004   12.15465  0.0000E+00  0.6267E-05  0.2286E-07  0.5356E-03  0.2013E-03  0.3524E+01
   -1.085004   12.15561  0.0000E+00  0.6137E-05  0.2299E-07  0.5168E-03  0.1747E-03  0.4833E+01
   -1.120004   12.15661  0.0000E+00  0.6006E-05  0.2354E-07  0.4878E-03  0.1521E-03  0.7015E+01
   -1.155004   12.15771  0.0000E+00  0.5866E-05  0.2467E-07  0.4664E-03  0.1311E-03  0.9830E+01
   -1.190003   12.15889  0.0000E+00  0.5706E-05  0.2694E-07  0.4187E-03  0.1115E-03 -0.3356E+02
   -1.225003   12.16042  0.0000E+00  0.5495E-05  0.3129E-07  0.3954E-03  0.9129E-04 -0.1806E+03
   -1.260001   12.16210  0.0000E+00  0.5169E-05  0.4181E-07  0.3103E-03  0.7264E-04 -0.2412E+04
   -1.295000   12.16585  0.0000E+00  0.4582E-05  0.6838E-07  0.2840E-03  0.5283E-04 -0.1941E+05
   -1.329998   12.16668  0.0000E+00  0.3735E-05  0.1465E-06  0.1285E-03  0.4431E-04  0.1034E+07
   -1.364996   12.18290  0.0000E+00  0.2482E-05  0.3491E-06  0.7145E-04  0.2802E-04 -0.2464E+07
   -1.399994   12.19218  0.0000E+00  0.0000E+00  0.0000E+00  0.0000E+00  0.3985E-04  0.0000E+00
