 1 - depth, m
 2 - temperature, C
 3 - salinity, kg/kg
 4 - turbulent kinetic energy, m**2/s**2
 5 - dissipation rate, m**2/s**3
 6 - kinematic heat conductance, m**2/s
 7 - modulus of horizontal velocity, m/s
 8 - Richardson number, n/d
   -0.000000    0.00000  0.0000E+00  0.1421E-08  0.2516E-11  0.2011E-09  0.0000E+00  0.3194E+17
   -0.034998    0.51452  0.0000E+00  0.5579E-08  0.2054E-11  0.1996E-09  0.0000E+00  0.2644E+17
   -0.069997    1.01194  0.0000E+00  0.1330E-07  0.2775E-11  0.3228E-09  0.0000E+00  0.2195E+17
   -0.104996    1.50429  0.0000E+00  0.2597E-07  0.4444E-11  0.6260E-09  0.0000E+00  0.1817E+17
   -0.139995    2.00847  0.0000E+00  0.4662E-07  0.7390E-11  0.1313E-08  0.0000E+00  0.1454E+17
   -0.174994    2.54210  0.0000E+00  0.8048E-07  0.1231E-10  0.3221E-08  0.0000E+00  0.1039E+17
   -0.209994    3.12079  0.0000E+00  0.1351E-06  0.2023E-10  0.1835E-07  0.0000E+00  0.5192E+16
   -0.244994    3.71458  0.0000E+00  0.1713E-06  0.2534E-10  0.1619E-03  0.0000E+00  0.1241E+16
   -0.279994    4.03376  0.0000E+00  0.1781E-06  0.2630E-10  0.3400E-03  0.0000E+00  0.4434E+14
   -0.314994    4.07196  0.0000E+00  0.1786E-06  0.2640E-10  0.3767E-03  0.0000E+00 -0.3960E+12
   -0.349995    4.07226  0.0000E+00  0.1790E-06  0.2650E-10  0.3766E-03  0.0000E+00 -0.3871E+12
   -0.384996    4.07255  0.0000E+00  0.1795E-06  0.2661E-10  0.3768E-03  0.0000E+00 -0.3881E+12
   -0.419997    4.07284  0.0000E+00  0.1798E-06  0.2673E-10  0.3768E-03  0.0000E+00 -0.3876E+12
   -0.454998    4.07313  0.0000E+00  0.1802E-06  0.2686E-10  0.3766E-03  0.0000E+00 -0.3855E+12
   -0.489999    4.07342  0.0000E+00  0.1805E-06  0.2700E-10  0.3760E-03  0.0000E+00 -0.3888E+12
   -0.525000    4.07371  0.0000E+00  0.1808E-06  0.2717E-10  0.3748E-03  0.0000E+00 -0.3933E+12
   -0.560002    4.07399  0.0000E+00  0.1811E-06  0.2740E-10  0.3727E-03  0.0000E+00 -0.4126E+12
   -0.595003    4.07429  0.0000E+00  0.1815E-06  0.2774E-10  0.3698E-03  0.0000E+00 -0.4130E+12
   -0.630004    4.07460  0.0000E+00  0.1819E-06  0.2812E-10  0.3668E-03  0.0000E+00 -0.4190E+12
   -0.665006    4.07490  0.0000E+00  0.1823E-06  0.2853E-10  0.3630E-03  0.0000E+00 -0.4243E+12
   -0.700008    4.07521  0.0000E+00  0.1826E-06  0.2898E-10  0.3588E-03  0.0000E+00 -0.4310E+12
   -0.735009    4.07553  0.0000E+00  0.1829E-06  0.2947E-10  0.3541E-03  0.0000E+00 -0.4386E+12
   -0.770011    4.07584  0.0000E+00  0.1831E-06  0.3000E-10  0.3490E-03  0.0000E+00 -0.4449E+12
   -0.805012    4.07616  0.0000E+00  0.1833E-06  0.3059E-10  0.3432E-03  0.0000E+00 -0.4538E+12
   -0.840014    4.07649  0.0000E+00  0.1834E-06  0.3125E-10  0.3369E-03  0.0000E+00 -0.4625E+12
   -0.875015    4.07682  0.0000E+00  0.1836E-06  0.3198E-10  0.3298E-03  0.0000E+00 -0.4748E+12
   -0.910016    4.07716  0.0000E+00  0.1836E-06  0.3281E-10  0.3222E-03  0.0000E+00 -0.4858E+12
   -0.945017    4.07750  0.0000E+00  0.1836E-06  0.3373E-10  0.3138E-03  0.0000E+00 -0.5008E+12
   -0.980018    4.07785  0.0000E+00  0.1836E-06  0.3477E-10  0.3049E-03  0.0000E+00 -0.5159E+12
   -1.015019    4.07822  0.0000E+00  0.1835E-06  0.3596E-10  0.2948E-03  0.0000E+00 -0.5377E+12
   -1.050020    4.07859  0.0000E+00  0.1833E-06  0.3739E-10  0.2833E-03  0.0000E+00 -0.5624E+12
   -1.085021    4.07898  0.0000E+00  0.1831E-06  0.3912E-10  0.2707E-03  0.0000E+00 -0.5931E+12
   -1.120021    4.07939  0.0000E+00  0.1828E-06  0.4124E-10  0.2566E-03  0.0000E+00 -0.6279E+12
   -1.155021    4.07982  0.0000E+00  0.1824E-06  0.4381E-10  0.2521E-03  0.0000E+00 -0.6366E+12
   -1.190021    4.08027  0.0000E+00  0.1819E-06  0.4703E-10  0.2216E-03  0.0000E+00 -0.7435E+12
   -1.225021    4.08077  0.0000E+00  0.1811E-06  0.5165E-10  0.2042E-03  0.0000E+00 -0.8144E+12
   -1.260020    4.08132  0.0000E+00  0.1800E-06  0.5957E-10  0.1758E-03  0.0000E+00 -0.9885E+12
   -1.295019    4.08197  0.0000E+00  0.1772E-06  0.7871E-10  0.1416E-03  0.0000E+00 -0.1354E+13
   -1.330018    4.08288  0.0000E+00  0.1704E-06  0.1304E-09  0.6115E-04  0.0000E+00 -0.3158E+13
   -1.365017    4.08499  0.0000E+00  0.1186E-06  0.6149E-09  0.3131E-05  0.0000E+00 -0.6910E+14
   -1.400015    4.12269  0.0000E+00  0.0000E+00  0.0000E+00  0.0000E+00  0.0000E+00  0.0000E+00
