 1 - depth, m
 2 - temperature, C
 3 - salinity, kg/kg
 4 - turbulent kinetic energy, m**2/s**2
 5 - dissipation rate, m**2/s**3
 6 - kinematic heat conductance, m**2/s
 7 - modulus of horizontal velocity, m/s
 8 - Richardson number, n/d
   -0.000000    0.00000  0.0000E+00  0.2586E-05  0.1358E-06  0.4744E-05  0.6107E-02  0.2608E+16
   -0.034996    0.04835  0.0000E+00  0.2031E-05  0.5280E-07  0.7410E-05  0.3837E-02  0.1542E+16
   -0.069993    0.07638  0.0000E+00  0.1584E-05  0.2723E-07  0.8650E-05  0.2734E-02  0.9701E+15
   -0.104990    0.09458  0.0000E+00  0.1231E-05  0.1572E-07  0.8931E-05  0.2032E-02  0.6982E+15
   -0.139987    0.10830  0.0000E+00  0.9512E-06  0.9611E-08  0.8561E-05  0.1535E-02  0.6538E+15
   -0.174985    0.12144  0.0000E+00  0.7299E-06  0.6076E-08  0.7752E-05  0.1163E-02  0.8217E+15
   -0.209983    0.13786  0.0000E+00  0.5559E-06  0.3935E-08  0.6634E-05  0.8749E-03  0.1207E+16
   -0.244981    0.16202  0.0000E+00  0.4185E-06  0.2590E-08  0.5320E-05  0.6434E-03  0.1799E+16
   -0.279979    0.19911  0.0000E+00  0.3060E-06  0.1698E-08  0.3787E-05  0.4485E-03  0.2581E+16
   -0.314978    0.25613  0.0000E+00  0.2029E-06  0.9985E-09  0.2679E-05  0.2633E-03  0.2715E+16
   -0.349977    0.31877  0.0000E+00  0.1255E-06  0.5405E-09  0.1558E-05  0.1487E-03  0.2925E+16
   -0.384976    0.39146  0.0000E+00  0.7291E-07  0.2596E-09  0.6591E-06  0.7868E-04  0.3244E+16
   -0.419975    0.48105  0.0000E+00  0.4074E-07  0.9167E-10  0.6728E-07  0.3891E-04  0.4166E+16
   -0.454974    0.61825  0.0000E+00  0.3514E-07  0.1997E-10  0.3837E-08  0.1072E-04  0.5220E+16
   -0.489973    0.82107  0.0000E+00  0.5304E-07  0.9736E-11  0.2030E-08  0.1282E-05  0.5743E+16
   -0.524973    1.05587  0.0000E+00  0.9246E-07  0.1306E-10  0.4147E-08  0.6894E-07  0.4372E+16
   -0.559972    1.23238  0.0000E+00  0.1674E-06  0.2236E-10  0.2874E-07  0.2976E-08  0.1263E+16
   -0.594972    1.28143  0.0000E+00  0.1692E-06  0.2272E-10  0.4614E-03  0.1042E-09 -0.9136E+12
   -0.629971    1.28139  0.0000E+00  0.1695E-06  0.2273E-10  0.4577E-03  0.8424E-10 -0.6550E+12
   -0.664971    1.28136  0.0000E+00  0.1692E-06  0.2263E-10  0.4600E-03  0.6813E-10 -0.4073E+12
   -0.699971    1.28134  0.0000E+00  0.1687E-06  0.2247E-10  0.4635E-03  0.5616E-10 -0.1948E+12
   -0.734971    1.28133  0.0000E+00  0.1681E-06  0.2231E-10  0.4816E-03  0.4780E-10  0.1824E+11
   -0.769970    1.28132  0.0000E+00  0.1671E-06  0.2208E-10  0.1729E-06  0.4306E-10  0.5420E+15
   -0.804970    1.29467  0.0000E+00  0.1142E-06  0.1509E-10  0.2249E-07  0.1320E-10  0.1580E+16
   -0.839970    1.33514  0.0000E+00  0.7487E-07  0.9711E-11  0.8779E-08  0.1855E-11  0.2840E+16
   -0.874969    1.40248  0.0000E+00  0.4875E-07  0.6221E-11  0.4305E-08  0.2325E-12  0.3783E+16
   -0.909968    1.49403  0.0000E+00  0.3157E-07  0.3983E-11  0.2213E-08  0.3139E-13  0.4771E+16
   -0.944968    1.61464  0.0000E+00  0.2044E-07  0.2567E-11  0.1233E-08  0.4167E-14  0.5596E+16
   -0.979967    1.76471  0.0000E+00  0.1321E-07  0.1676E-11  0.7434E-09  0.5186E-15  0.6144E+16
   -1.014966    1.94266  0.0000E+00  0.8474E-08  0.1119E-11  0.5037E-09  0.5002E-16  0.6132E+16
   -1.049965    2.13818  0.0000E+00  0.5302E-08  0.7820E-12  0.3748E-09  0.4321E-17  0.5967E+16
   -1.084964    2.35194  0.0000E+00  0.3182E-08  0.6168E-12  0.3106E-09  0.3396E-18  0.6179E+16
   -1.119962    2.60869  0.0000E+00  0.1920E-08  0.6464E-12  0.3671E-09  0.3065E-19  0.5951E+16
   -1.154961    2.91453  0.0000E+00  0.1670E-08  0.1068E-11  0.8200E-09  0.2486E-20  0.5038E+16
   -1.189959    3.27322  0.0000E+00  0.3272E-08  0.2713E-11  0.9272E-08  0.1623E-21  0.3282E+16
   -1.224957    3.67699  0.0000E+00  0.7465E-08  0.6724E-11  0.2139E-05  0.6750E-23  0.1263E+16
   -1.259954    3.98163  0.0000E+00  0.1393E-07  0.1424E-10  0.5018E-05  0.2070E-24  0.5754E+14
   -1.294952    4.07470  0.0000E+00  0.2128E-07  0.2707E-10  0.6780E-05  0.5469E-26 -0.2439E+14
   -1.329949    4.09196  0.0000E+00  0.2445E-07  0.4236E-10  0.4881E-05  0.8008E-27 -0.4188E+14
   -1.364945    4.11573  0.0000E+00  0.2353E-07  0.8595E-10  0.1782E-05  0.9171E-28 -0.1608E+15
   -1.399942    4.18030  0.0000E+00  0.0000E+00  0.0000E+00  0.0000E+00  0.9477E-28  0.0000E+00
