 1 - depth, m
 2 - temperature, C
 3 - salinity, kg/kg
 4 - turbulent kinetic energy, m**2/s**2
 5 - dissipation rate, m**2/s**3
 6 - kinematic heat conductance, m**2/s
 7 - modulus of horizontal velocity, m/s
 8 - Richardson number, n/d
   -0.000000    0.00000  0.0000E+00  0.4702E-13  0.1132E-15  0.1000E-09  0.0000E+00  0.6109E+16
   -0.034998    0.09280  0.0000E+00  0.4702E-13  0.1132E-15  0.1000E-09  0.0000E+00  0.6006E+16
   -0.069996    0.18640  0.0000E+00  0.4702E-13  0.1132E-15  0.1000E-09  0.0000E+00  0.5899E+16
   -0.104995    0.28078  0.0000E+00  0.4702E-13  0.1132E-15  0.1000E-09  0.0000E+00  0.5739E+16
   -0.139993    0.37511  0.0000E+00  0.4702E-13  0.1132E-15  0.1000E-09  0.0000E+00  0.5549E+16
   -0.174993    0.46887  0.0000E+00  0.4702E-13  0.1132E-15  0.1000E-09  0.0000E+00  0.5359E+16
   -0.209992    0.56201  0.0000E+00  0.4702E-13  0.1132E-15  0.1000E-09  0.0000E+00  0.5167E+16
   -0.244992    0.65444  0.0000E+00  0.4702E-13  0.1132E-15  0.1000E-09  0.0000E+00  0.4976E+16
   -0.279991    0.74608  0.0000E+00  0.4702E-13  0.1132E-15  0.1000E-09  0.0000E+00  0.4786E+16
   -0.314991    0.83686  0.0000E+00  0.4702E-13  0.1132E-15  0.1000E-09  0.0000E+00  0.4646E+16
   -0.349992    0.92772  0.0000E+00  0.4702E-13  0.1132E-15  0.1000E-09  0.0000E+00  0.4511E+16
   -0.384992    1.01873  0.0000E+00  0.4702E-13  0.1132E-15  0.1000E-09  0.0000E+00  0.4373E+16
   -0.419993    1.10986  0.0000E+00  0.4702E-13  0.1132E-15  0.1000E-09  0.0000E+00  0.4221E+16
   -0.454993    1.20078  0.0000E+00  0.4702E-13  0.1132E-15  0.1000E-09  0.0000E+00  0.4076E+16
   -0.489994    1.29163  0.0000E+00  0.4702E-13  0.1132E-15  0.1000E-09  0.0000E+00  0.3983E+16
   -0.524995    1.38361  0.0000E+00  0.4702E-13  0.1132E-15  0.1000E-09  0.0000E+00  0.4144E+16
   -0.559996    1.48305  0.0000E+00  0.4702E-13  0.1132E-15  0.1000E-09  0.0000E+00  0.4489E+16
   -0.594997    1.59563  0.0000E+00  0.4702E-13  0.1132E-15  0.1000E-09  0.0000E+00  0.4819E+16
   -0.629998    1.72298  0.0000E+00  0.4702E-13  0.1132E-15  0.1000E-09  0.0000E+00  0.4486E+16
   -0.665000    1.84860  0.0000E+00  0.4702E-13  0.1132E-15  0.1000E-09  0.0000E+00  0.4160E+16
   -0.700001    1.97234  0.0000E+00  0.4702E-13  0.1132E-15  0.1000E-09  0.0000E+00  0.3851E+16
   -0.735002    2.09433  0.0000E+00  0.4702E-13  0.1132E-15  0.1000E-09  0.0000E+00  0.3575E+16
   -0.770003    2.21534  0.0000E+00  0.4702E-13  0.1132E-15  0.1000E-09  0.0000E+00  0.3343E+16
   -0.805004    2.33677  0.0000E+00  0.4702E-13  0.1132E-15  0.1000E-09  0.0000E+00  0.3101E+16
   -0.840005    2.45823  0.0000E+00  0.4702E-13  0.1132E-15  0.1000E-09  0.0000E+00  0.2853E+16
   -0.875006    2.57947  0.0000E+00  0.4702E-13  0.1132E-15  0.1000E-09  0.0000E+00  0.2609E+16
   -0.910007    2.70057  0.0000E+00  0.4702E-13  0.1132E-15  0.1000E-09  0.0000E+00  0.2338E+16
   -0.945008    2.81994  0.0000E+00  0.4702E-13  0.1132E-15  0.1000E-09  0.0000E+00  0.2066E+16
   -0.980009    2.93693  0.0000E+00  0.4702E-13  0.1132E-15  0.1000E-09  0.0000E+00  0.1805E+16
   -1.015009    3.05122  0.0000E+00  0.2222E-12  0.2494E-15  0.1000E-09  0.0000E+00  0.1582E+16
   -1.050010    3.16459  0.0000E+00  0.8505E-12  0.8622E-15  0.1000E-09  0.0000E+00  0.1376E+16
   -1.085010    3.27807  0.0000E+00  0.3075E-11  0.3002E-14  0.1000E-09  0.0000E+00  0.1220E+16
   -1.120010    3.39690  0.0000E+00  0.1078E-10  0.1021E-13  0.1000E-09  0.0000E+00  0.1001E+16
   -1.155010    3.51650  0.0000E+00  0.3725E-10  0.3424E-13  0.1110E-09  0.0000E+00  0.7797E+15
   -1.190010    3.63728  0.0000E+00  0.1279E-09  0.1143E-12  0.5083E-09  0.0000E+00  0.5642E+15
   -1.225009    3.76243  0.0000E+00  0.4575E-09  0.3988E-12  0.2847E-08  0.0000E+00  0.3455E+15
   -1.260008    3.90805  0.0000E+00  0.1683E-08  0.1442E-11  0.8231E-07  0.0000E+00  0.2942E+14
   -1.295007    4.03506  0.0000E+00  0.5271E-08  0.4906E-11  0.2528E-05  0.0000E+00 -0.1347E+14
   -1.330005    4.05032  0.0000E+00  0.6405E-08  0.7633E-11  0.1973E-05  0.0000E+00 -0.2035E+14
   -1.365004    4.06815  0.0000E+00  0.5558E-08  0.1375E-10  0.5873E-06  0.0000E+00 -0.7078E+14
   -1.400002    4.11180  0.0000E+00  0.0000E+00  0.0000E+00  0.0000E+00  0.0000E+00  0.0000E+00
