 1 - depth, m
 2 - temperature, C
 3 - salinity, kg/kg
 4 - turbulent kinetic energy, m**2/s**2
 5 - dissipation rate, m**2/s**3
 6 - kinematic heat conductance, m**2/s
 7 - modulus of horizontal velocity, m/s
 8 - Richardson number, n/d
   -0.000000    0.00000  0.0000E+00  0.2450E-07  0.8770E-10  0.2877E-08  0.0000E+00  0.7873E+17
   -0.034998    1.46316  0.0000E+00  0.1602E-06  0.6539E-10  0.4072E-08  0.0000E+00  0.4168E+17
   -0.069996    2.88857  0.0000E+00  0.4081E-06  0.8204E-10  0.2289E-07  0.0000E+00  0.9385E+16
   -0.104995    4.13246  0.0000E+00  0.4102E-06  0.8229E-10  0.6405E-03  0.0000E+00 -0.7701E+12
   -0.139994    4.13277  0.0000E+00  0.4112E-06  0.8242E-10  0.6317E-03  0.0000E+00 -0.7044E+12
   -0.174993    4.13308  0.0000E+00  0.4120E-06  0.8257E-10  0.6362E-03  0.0000E+00 -0.6201E+12
   -0.209993    4.13338  0.0000E+00  0.4128E-06  0.8272E-10  0.6471E-03  0.0000E+00 -0.7370E+12
   -0.244992    4.13367  0.0000E+00  0.4134E-06  0.8288E-10  0.6413E-03  0.0000E+00 -0.6009E+12
   -0.279992    4.13396  0.0000E+00  0.4140E-06  0.8307E-10  0.6464E-03  0.0000E+00 -0.7153E+12
   -0.314993    4.13425  0.0000E+00  0.4146E-06  0.8327E-10  0.6444E-03  0.0000E+00 -0.5877E+12
   -0.349993    4.13453  0.0000E+00  0.4150E-06  0.8349E-10  0.6443E-03  0.0000E+00 -0.7052E+12
   -0.384994    4.13481  0.0000E+00  0.4155E-06  0.8375E-10  0.6463E-03  0.0000E+00 -0.5791E+12
   -0.419994    4.13508  0.0000E+00  0.4158E-06  0.8404E-10  0.6399E-03  0.0000E+00 -0.7001E+12
   -0.454995    4.13536  0.0000E+00  0.4161E-06  0.8436E-10  0.6333E-03  0.0000E+00 -0.6403E+12
   -0.489996    4.13563  0.0000E+00  0.4164E-06  0.8473E-10  0.6314E-03  0.0000E+00 -0.6411E+12
   -0.524997    4.13591  0.0000E+00  0.4166E-06  0.8519E-10  0.6287E-03  0.0000E+00 -0.6382E+12
   -0.559998    4.13618  0.0000E+00  0.4168E-06  0.8582E-10  0.6245E-03  0.0000E+00 -0.6604E+12
   -0.595000    4.13646  0.0000E+00  0.4170E-06  0.8676E-10  0.6185E-03  0.0000E+00 -0.6526E+12
   -0.630001    4.13674  0.0000E+00  0.4172E-06  0.8785E-10  0.6119E-03  0.0000E+00 -0.6656E+12
   -0.665002    4.13703  0.0000E+00  0.4173E-06  0.8901E-10  0.6373E-03  0.0000E+00 -0.5809E+12
   -0.700004    4.13730  0.0000E+00  0.4173E-06  0.9026E-10  0.5807E-03  0.0000E+00 -0.7531E+12
   -0.735005    4.13760  0.0000E+00  0.4173E-06  0.9163E-10  0.6236E-03  0.0000E+00 -0.5949E+12
   -0.770006    4.13787  0.0000E+00  0.4172E-06  0.9316E-10  0.5587E-03  0.0000E+00 -0.7752E+12
   -0.805007    4.13818  0.0000E+00  0.4171E-06  0.9486E-10  0.6077E-03  0.0000E+00 -0.6098E+12
   -0.840009    4.13845  0.0000E+00  0.4169E-06  0.9678E-10  0.5332E-03  0.0000E+00 -0.8067E+12
   -0.875010    4.13877  0.0000E+00  0.4166E-06  0.9896E-10  0.5418E-03  0.0000E+00 -0.7416E+12
   -0.910011    4.13908  0.0000E+00  0.4162E-06  0.1015E-09  0.5298E-03  0.0000E+00 -0.7556E+12
   -0.945012    4.13940  0.0000E+00  0.4157E-06  0.1043E-09  0.5140E-03  0.0000E+00 -0.7747E+12
   -0.980013    4.13973  0.0000E+00  0.4152E-06  0.1075E-09  0.5496E-03  0.0000E+00 -0.6742E+12
   -1.015013    4.14003  0.0000E+00  0.4146E-06  0.1111E-09  0.4517E-03  0.0000E+00 -0.9334E+12
   -1.050014    4.14040  0.0000E+00  0.4138E-06  0.1154E-09  0.4596E-03  0.0000E+00 -0.8721E+12
   -1.085014    4.14076  0.0000E+00  0.4129E-06  0.1209E-09  0.4414E-03  0.0000E+00 -0.9085E+12
   -1.120015    4.14114  0.0000E+00  0.4119E-06  0.1276E-09  0.4152E-03  0.0000E+00 -0.9639E+12
   -1.155015    4.14153  0.0000E+00  0.4107E-06  0.1356E-09  0.4510E-03  0.0000E+00 -0.8405E+12
   -1.190014    4.14190  0.0000E+00  0.4093E-06  0.1457E-09  0.3297E-03  0.0000E+00 -0.1260E+13
   -1.225014    4.14240  0.0000E+00  0.4075E-06  0.1603E-09  0.3238E-03  0.0000E+00 -0.1251E+13
   -1.260013    4.14291  0.0000E+00  0.4046E-06  0.1856E-09  0.2813E-03  0.0000E+00 -0.1455E+13
   -1.295012    4.14350  0.0000E+00  0.3983E-06  0.2471E-09  0.2244E-03  0.0000E+00 -0.1949E+13
   -1.330011    4.14430  0.0000E+00  0.3837E-06  0.4077E-09  0.1234E-03  0.0000E+00 -0.3548E+13
   -1.365009    4.14575  0.0000E+00  0.2666E-06  0.2026E-08  0.4598E-05  0.0000E+00 -0.1036E+15
   -1.400007    4.18306  0.0000E+00  0.0000E+00  0.0000E+00  0.0000E+00  0.0000E+00  0.0000E+00
