 1 - depth, m
 2 - temperature, C
 3 - salinity, kg/kg
 4 - turbulent kinetic energy, m**2/s**2
 5 - dissipation rate, m**2/s**3
 6 - kinematic heat conductance, m**2/s
 7 - modulus of horizontal velocity, m/s
 8 - Richardson number, n/d
   -0.000000   11.39173  0.0000E+00  0.4746E-04  0.1546E-04  0.3039E-04  0.4889E-01  0.1269E+00
   -0.034998   11.43347  0.0000E+00  0.3074E-04  0.4947E-05  0.4949E-04  0.2109E-01 -0.2281E-01
   -0.069997   11.44448  0.0000E+00  0.2412E-04  0.2279E-05  0.6317E-04  0.1544E-01 -0.4237E-01
   -0.104995   11.45227  0.0000E+00  0.2013E-04  0.1181E-05  0.7737E-04  0.1224E-01 -0.6170E-01
   -0.139994   11.45836  0.0000E+00  0.1734E-04  0.6597E-06  0.9215E-04  0.9949E-02 -0.8743E-01
   -0.174994   11.46339  0.0000E+00  0.1528E-04  0.3960E-06  0.1105E-03  0.8178E-02 -0.5715E-01
   -0.209993   11.46760  0.0000E+00  0.1373E-04  0.2571E-06  0.1532E-03  0.6763E-02  0.1321E+03
   -0.244993   11.47103  0.0000E+00  0.1250E-04  0.1805E-06  0.1860E-03  0.5614E-02  0.1609E+02
   -0.279993   11.47398  0.0000E+00  0.1147E-04  0.1349E-06  0.2139E-03  0.4630E-02  0.1787E+02
   -0.314993   11.47657  0.0000E+00  0.1054E-04  0.1044E-06  0.2477E-03  0.3761E-02  0.2829E+02
   -0.349994   11.47878  0.0000E+00  0.9740E-05  0.8322E-07  0.2907E-03  0.3074E-02  0.1954E+03
   -0.384995   11.48060  0.0000E+00  0.9079E-05  0.6816E-07  0.3463E-03  0.2523E-02  0.5998E+02
   -0.419995   11.48206  0.0000E+00  0.8535E-05  0.5717E-07  0.3810E-03  0.2072E-02  0.1143E+03
   -0.454996   11.48329  0.0000E+00  0.8072E-05  0.4887E-07  0.4044E-03  0.1670E-02  0.4187E+02
   -0.489997   11.48440  0.0000E+00  0.7665E-05  0.4245E-07  0.4122E-03  0.1305E-02  0.3232E+03
   -0.524999   11.48546  0.0000E+00  0.7268E-05  0.3697E-07  0.4479E-03  0.9759E-03  0.1598E+02
   -0.560000   11.48641  0.0000E+00  0.6882E-05  0.3216E-07  0.4910E-03  0.7350E-03  0.8669E+00
   -0.595001   11.48722  0.0000E+00  0.6504E-05  0.2772E-07  0.5260E-03  0.5821E-03  0.6223E+00
   -0.630003   11.48792  0.0000E+00  0.6220E-05  0.2451E-07  0.5373E-03  0.5025E-03  0.6797E+00
   -0.665004   11.48861  0.0000E+00  0.5996E-05  0.2206E-07  0.5455E-03  0.4402E-03  0.6860E+00
   -0.700005   11.48929  0.0000E+00  0.5808E-05  0.2009E-07  0.5556E-03  0.3838E-03  0.7270E+00
   -0.735007   11.48995  0.0000E+00  0.5650E-05  0.1849E-07  0.5650E-03  0.3340E-03  0.7747E+00
   -0.770008   11.49061  0.0000E+00  0.5516E-05  0.1722E-07  0.5732E-03  0.2911E-03  0.8267E+00
   -0.805010   11.49125  0.0000E+00  0.5403E-05  0.1620E-07  0.5797E-03  0.2544E-03  0.8991E+00
   -0.840011   11.49189  0.0000E+00  0.5306E-05  0.1540E-07  0.5839E-03  0.2230E-03  0.9874E+00
   -0.875012   11.49252  0.0000E+00  0.5222E-05  0.1479E-07  0.5858E-03  0.1963E-03  0.1102E+01
   -0.910013   11.49315  0.0000E+00  0.5147E-05  0.1433E-07  0.5849E-03  0.1735E-03  0.1262E+01
   -0.945015   11.49379  0.0000E+00  0.5081E-05  0.1400E-07  0.5814E-03  0.1536E-03  0.1460E+01
   -0.980015   11.49444  0.0000E+00  0.5020E-05  0.1379E-07  0.5749E-03  0.1359E-03  0.1705E+01
   -1.015016   11.49510  0.0000E+00  0.4962E-05  0.1370E-07  0.5653E-03  0.1199E-03  0.2047E+01
   -1.050017   11.49577  0.0000E+00  0.4902E-05  0.1372E-07  0.5514E-03  0.1057E-03  0.2624E+01
   -1.085017   11.49647  0.0000E+00  0.4839E-05  0.1388E-07  0.5335E-03  0.9293E-04  0.3486E+01
   -1.120018   11.49719  0.0000E+00  0.4770E-05  0.1423E-07  0.5077E-03  0.8133E-04  0.4838E+01
   -1.155018   11.49797  0.0000E+00  0.4695E-05  0.1482E-07  0.4821E-03  0.7028E-04  0.6607E+01
   -1.190018   11.49880  0.0000E+00  0.4609E-05  0.1588E-07  0.4392E-03  0.5981E-04 -0.3857E+02
   -1.225017   11.49978  0.0000E+00  0.4497E-05  0.1778E-07  0.4107E-03  0.4942E-04 -0.1463E+02
   -1.260017   11.50084  0.0000E+00  0.4325E-05  0.2200E-07  0.3188E-03  0.4002E-04 -0.1681E+04
   -1.295016   11.50278  0.0000E+00  0.3984E-05  0.3305E-07  0.3098E-03  0.3054E-04  0.9291E+04
   -1.330014   11.50376  0.0000E+00  0.3379E-05  0.6580E-07  0.1269E-03  0.2578E-04  0.1655E+06
   -1.365013   11.51347  0.0000E+00  0.2181E-05  0.1689E-06  0.5283E-04  0.1669E-04 -0.9892E+06
   -1.400011   11.52204  0.0000E+00  0.0000E+00  0.0000E+00  0.0000E+00  0.2115E-04  0.0000E+00
