 1 - depth, m
 2 - temperature, C
 3 - salinity, kg/kg
 4 - turbulent kinetic energy, m**2/s**2
 5 - dissipation rate, m**2/s**3
 6 - kinematic heat conductance, m**2/s
 7 - modulus of horizontal velocity, m/s
 8 - Richardson number, n/d
   -0.000000    0.00000  0.0000E+00  0.4702E-13  0.1132E-15  0.1000E-09  0.0000E+00  0.7752E+16
   -0.034998    0.11816  0.0000E+00  0.4702E-13  0.1132E-15  0.1000E-09  0.0000E+00  0.7623E+16
   -0.069996    0.23823  0.0000E+00  0.4702E-13  0.1132E-15  0.1000E-09  0.0000E+00  0.7485E+16
   -0.104995    0.36024  0.0000E+00  0.4702E-13  0.1132E-15  0.1000E-09  0.0000E+00  0.7255E+16
   -0.139994    0.48283  0.0000E+00  0.4702E-13  0.1132E-15  0.1000E-09  0.0000E+00  0.6977E+16
   -0.174993    0.60517  0.0000E+00  0.4702E-13  0.1132E-15  0.1000E-09  0.0000E+00  0.6699E+16
   -0.209992    0.72720  0.0000E+00  0.4702E-13  0.1132E-15  0.1000E-09  0.0000E+00  0.6419E+16
   -0.244992    0.84883  0.0000E+00  0.4702E-13  0.1132E-15  0.1000E-09  0.0000E+00  0.6140E+16
   -0.279992    0.97001  0.0000E+00  0.4702E-13  0.1132E-15  0.1000E-09  0.0000E+00  0.5862E+16
   -0.314992    1.09067  0.0000E+00  0.4702E-13  0.1132E-15  0.1000E-09  0.0000E+00  0.5618E+16
   -0.349993    1.21149  0.0000E+00  0.4702E-13  0.1132E-15  0.1000E-09  0.0000E+00  0.5376E+16
   -0.384993    1.33249  0.0000E+00  0.4702E-13  0.1132E-15  0.1000E-09  0.0000E+00  0.5132E+16
   -0.419994    1.45365  0.0000E+00  0.4702E-13  0.1132E-15  0.1000E-09  0.0000E+00  0.4883E+16
   -0.454994    1.57482  0.0000E+00  0.4702E-13  0.1132E-15  0.1000E-09  0.0000E+00  0.4645E+16
   -0.489995    1.69627  0.0000E+00  0.8133E-13  0.1132E-15  0.1000E-09  0.0000E+00  0.4442E+16
   -0.524996    1.81903  0.0000E+00  0.3298E-12  0.1353E-15  0.1000E-09  0.0000E+00  0.4415E+16
   -0.559998    1.94864  0.0000E+00  0.9113E-12  0.2650E-15  0.1000E-09  0.0000E+00  0.4499E+16
   -0.594999    2.09013  0.0000E+00  0.2289E-11  0.5979E-15  0.1000E-09  0.0000E+00  0.4541E+16
   -0.630000    2.24493  0.0000E+00  0.4828E-11  0.1214E-14  0.1000E-09  0.0000E+00  0.4113E+16
   -0.665001    2.39852  0.0000E+00  0.9537E-11  0.2340E-14  0.1000E-09  0.0000E+00  0.3693E+16
   -0.700003    2.55074  0.0000E+00  0.1844E-10  0.4429E-14  0.1000E-09  0.0000E+00  0.3287E+16
   -0.735004    2.70169  0.0000E+00  0.3544E-10  0.8339E-14  0.1000E-09  0.0000E+00  0.2906E+16
   -0.770005    2.85213  0.0000E+00  0.6783E-10  0.1564E-13  0.1000E-09  0.0000E+00  0.2553E+16
   -0.805006    3.00351  0.0000E+00  0.1293E-09  0.2923E-13  0.1000E-09  0.0000E+00  0.2190E+16
   -0.840008    3.15549  0.0000E+00  0.2451E-09  0.5433E-13  0.1000E-09  0.0000E+00  0.1824E+16
   -0.875009    3.30792  0.0000E+00  0.4631E-09  0.1007E-12  0.1791E-09  0.0000E+00  0.1456E+16
   -0.910010    3.46083  0.0000E+00  0.8703E-09  0.1856E-12  0.4464E-09  0.0000E+00  0.1076E+16
   -0.945011    3.61257  0.0000E+00  0.1622E-08  0.3393E-12  0.1248E-08  0.0000E+00  0.7035E+15
   -0.980011    3.76204  0.0000E+00  0.3003E-08  0.6169E-12  0.4624E-08  0.0000E+00  0.3449E+15
   -1.015012    3.90648  0.0000E+00  0.5429E-08  0.1098E-11  0.6162E-07  0.0000E+00  0.4543E+14
   -1.050013    4.01039  0.0000E+00  0.6666E-08  0.1359E-11  0.1314E-04  0.0000E+00 -0.6217E+12
   -1.085013    4.01199  0.0000E+00  0.7283E-08  0.1517E-11  0.1393E-04  0.0000E+00 -0.6468E+12
   -1.120013    4.01355  0.0000E+00  0.7825E-08  0.1691E-11  0.1399E-04  0.0000E+00 -0.6867E+12
   -1.155013    4.01511  0.0000E+00  0.8302E-08  0.1892E-11  0.1361E-04  0.0000E+00 -0.7522E+12
   -1.190013    4.01674  0.0000E+00  0.8725E-08  0.2141E-11  0.1291E-04  0.0000E+00 -0.8598E+12
   -1.225012    4.01849  0.0000E+00  0.9125E-08  0.2490E-11  0.1240E-04  0.0000E+00 -0.1073E+13
   -1.260011    4.02055  0.0000E+00  0.9496E-08  0.3041E-11  0.1176E-04  0.0000E+00 -0.1522E+13
   -1.295010    4.02328  0.0000E+00  0.9737E-08  0.4216E-11  0.9372E-05  0.0000E+00 -0.2836E+13
   -1.330009    4.02789  0.0000E+00  0.9247E-08  0.6564E-11  0.4179E-05  0.0000E+00 -0.6706E+13
   -1.365007    4.03716  0.0000E+00  0.6820E-08  0.1469E-10  0.6787E-06  0.0000E+00 -0.4368E+14
   -1.400005    4.07668  0.0000E+00  0.0000E+00  0.0000E+00  0.0000E+00  0.0000E+00  0.0000E+00
