 1 - depth, m
 2 - temperature, C
 3 - salinity, kg/kg
 4 - turbulent kinetic energy, m**2/s**2
 5 - dissipation rate, m**2/s**3
 6 - kinematic heat conductance, m**2/s
 7 - modulus of horizontal velocity, m/s
 8 - Richardson number, n/d
   -0.000000    0.00000  0.0000E+00  0.1086E-11  0.3264E-15  0.1000E-09  0.0000E+00  0.1532E+17
   -0.034998    0.23736  0.0000E+00  0.1623E-11  0.3277E-15  0.1000E-09  0.0000E+00  0.1432E+17
   -0.069996    0.47473  0.0000E+00  0.2711E-11  0.4306E-15  0.1000E-09  0.0000E+00  0.1331E+17
   -0.104994    0.71165  0.0000E+00  0.4531E-11  0.6405E-15  0.1000E-09  0.0000E+00  0.1218E+17
   -0.139993    0.94551  0.0000E+00  0.7444E-11  0.9936E-15  0.1000E-09  0.0000E+00  0.1101E+17
   -0.174992    1.17461  0.0000E+00  0.1206E-10  0.1558E-14  0.1000E-09  0.0000E+00  0.9890E+16
   -0.209991    1.39848  0.0000E+00  0.1933E-10  0.2442E-14  0.1000E-09  0.0000E+00  0.8818E+16
   -0.244990    1.61667  0.0000E+00  0.3079E-10  0.3819E-14  0.1000E-09  0.0000E+00  0.7801E+16
   -0.279990    1.82880  0.0000E+00  0.4878E-10  0.5951E-14  0.1000E-09  0.0000E+00  0.6843E+16
   -0.314990    2.03452  0.0000E+00  0.7738E-10  0.9290E-14  0.1000E-09  0.0000E+00  0.5975E+16
   -0.349990    2.23449  0.0000E+00  0.1233E-09  0.1457E-13  0.1000E-09  0.0000E+00  0.5161E+16
   -0.384990    2.42837  0.0000E+00  0.1966E-09  0.2287E-13  0.1000E-09  0.0000E+00  0.4399E+16
   -0.419990    2.61574  0.0000E+00  0.3123E-09  0.3580E-13  0.1000E-09  0.0000E+00  0.3709E+16
   -0.454991    2.79699  0.0000E+00  0.4941E-09  0.5579E-13  0.1000E-09  0.0000E+00  0.3091E+16
   -0.489991    2.97303  0.0000E+00  0.7798E-09  0.8675E-13  0.1000E-09  0.0000E+00  0.2534E+16
   -0.524992    3.14494  0.0000E+00  0.1276E-08  0.1398E-12  0.1749E-09  0.0000E+00  0.2074E+16
   -0.559993    3.31827  0.0000E+00  0.2188E-08  0.2358E-12  0.3753E-09  0.0000E+00  0.1631E+16
   -0.594994    3.49648  0.0000E+00  0.3976E-08  0.4219E-12  0.9552E-09  0.0000E+00  0.1148E+16
   -0.629995    3.67924  0.0000E+00  0.6658E-08  0.6971E-12  0.3021E-08  0.0000E+00  0.6012E+15
   -0.664996    3.85274  0.0000E+00  0.1053E-07  0.1090E-11  0.2078E-07  0.0000E+00  0.1384E+15
   -0.699997    4.00170  0.0000E+00  0.1099E-07  0.1140E-11  0.4076E-04  0.0000E+00 -0.1405E+12
   -0.734998    4.00228  0.0000E+00  0.1122E-07  0.1169E-11  0.4004E-04  0.0000E+00 -0.1463E+12
   -0.769999    4.00286  0.0000E+00  0.1145E-07  0.1202E-11  0.4045E-04  0.0000E+00 -0.1519E+12
   -0.805000    4.00343  0.0000E+00  0.1167E-07  0.1237E-11  0.4078E-04  0.0000E+00 -0.1577E+12
   -0.840001    4.00402  0.0000E+00  0.1188E-07  0.1276E-11  0.4097E-04  0.0000E+00 -0.1642E+12
   -0.875002    4.00460  0.0000E+00  0.1209E-07  0.1320E-11  0.4101E-04  0.0000E+00 -0.1718E+12
   -0.910002    4.00519  0.0000E+00  0.1228E-07  0.1367E-11  0.4087E-04  0.0000E+00 -0.1787E+12
   -0.945003    4.00579  0.0000E+00  0.1247E-07  0.1420E-11  0.4057E-04  0.0000E+00 -0.1861E+12
   -0.980004    4.00639  0.0000E+00  0.1264E-07  0.1479E-11  0.4008E-04  0.0000E+00 -0.1947E+12
   -1.015004    4.00700  0.0000E+00  0.1280E-07  0.1546E-11  0.3944E-04  0.0000E+00 -0.2084E+12
   -1.050004    4.00764  0.0000E+00  0.1294E-07  0.1624E-11  0.3855E-04  0.0000E+00 -0.2261E+12
   -1.085004    4.00831  0.0000E+00  0.1308E-07  0.1718E-11  0.3744E-04  0.0000E+00 -0.2473E+12
   -1.120004    4.00901  0.0000E+00  0.1321E-07  0.1831E-11  0.3594E-04  0.0000E+00 -0.2672E+12
   -1.155004    4.00976  0.0000E+00  0.1331E-07  0.1968E-11  0.3414E-04  0.0000E+00 -0.2924E+12
   -1.190003    4.01054  0.0000E+00  0.1339E-07  0.2142E-11  0.3193E-04  0.0000E+00 -0.3303E+12
   -1.225002    4.01140  0.0000E+00  0.1346E-07  0.2389E-11  0.2928E-04  0.0000E+00 -0.4145E+12
   -1.260001    4.01243  0.0000E+00  0.1348E-07  0.2804E-11  0.2557E-04  0.0000E+00 -0.6062E+12
   -1.295000    4.01388  0.0000E+00  0.1336E-07  0.3823E-11  0.1958E-04  0.0000E+00 -0.1130E+13
   -1.329998    4.01639  0.0000E+00  0.1263E-07  0.6521E-11  0.7149E-05  0.0000E+00 -0.3311E+13
   -1.364996    4.02275  0.0000E+00  0.9200E-08  0.1921E-10  0.8507E-06  0.0000E+00 -0.3543E+14
   -1.399994    4.06283  0.0000E+00  0.0000E+00  0.0000E+00  0.0000E+00  0.0000E+00  0.0000E+00
