 1 - depth, m
 2 - temperature, C
 3 - salinity, kg/kg
 4 - turbulent kinetic energy, m**2/s**2
 5 - dissipation rate, m**2/s**3
 6 - kinematic heat conductance, m**2/s
 7 - modulus of horizontal velocity, m/s
 8 - Richardson number, n/d
   -0.000000   10.64067  0.0000E+00  0.2368E-03  0.7478E-03  0.6183E-04  0.1559E+00 -0.7127E-02
   -0.034998   10.67214  0.0000E+00  0.1353E-03  0.4049E-03  0.8759E-04  0.5251E-01  0.1794E-01
   -0.069997   10.68261  0.0000E+00  0.9230E-04  0.2068E-03  0.1136E-03  0.3269E-01  0.1266E-02
   -0.104996   10.68896  0.0000E+00  0.7220E-04  0.8906E-04  0.1270E-03  0.2527E-01  0.3538E-02
   -0.139995   10.69249  0.0000E+00  0.5974E-04  0.5004E-04  0.1341E-03  0.2086E-01 -0.2179E-01
   -0.174995   10.69514  0.0000E+00  0.5131E-04  0.3138E-04  0.1432E-03  0.1753E-01 -0.2059E-01
   -0.209995   10.69731  0.0000E+00  0.4494E-04  0.1940E-04  0.1520E-03  0.1491E-01 -0.2535E-01
   -0.244995   10.69920  0.0000E+00  0.3996E-04  0.1241E-04  0.1591E-03  0.1272E-01 -0.3045E-01
   -0.279995   10.70092  0.0000E+00  0.3584E-04  0.8008E-05  0.1637E-03  0.1076E-01 -0.3577E-01
   -0.314996   10.70268  0.0000E+00  0.3203E-04  0.5206E-05  0.1740E-03  0.8850E-02 -0.1072E-01
   -0.349996   10.70420  0.0000E+00  0.2882E-04  0.3406E-05  0.1821E-03  0.7431E-02  0.3400E+01
   -0.384997   10.70563  0.0000E+00  0.2613E-04  0.2251E-05  0.1898E-03  0.6279E-02  0.4662E+01
   -0.419998   10.70695  0.0000E+00  0.2387E-04  0.1514E-05  0.1993E-03  0.5329E-02  0.6142E+02
   -0.454999   10.70818  0.0000E+00  0.2193E-04  0.1048E-05  0.2308E-03  0.4468E-02  0.3233E+03
   -0.490001   10.70932  0.0000E+00  0.2023E-04  0.7577E-06  0.2487E-03  0.3671E-02  0.3023E+02
   -0.525002   10.71047  0.0000E+00  0.1860E-04  0.5659E-06  0.2679E-03  0.2961E-02  0.2720E+02
   -0.560004   10.71145  0.0000E+00  0.1701E-04  0.4288E-06  0.2964E-03  0.2452E-02 -0.6193E+03
   -0.595005   10.71224  0.0000E+00  0.1533E-04  0.3149E-06  0.3159E-03  0.2116E-02  0.1974E+04
   -0.630007   10.71270  0.0000E+00  0.1386E-04  0.2331E-06  0.3250E-03  0.1933E-02  0.3191E+03
   -0.665008   10.71340  0.0000E+00  0.1261E-04  0.1764E-06  0.3335E-03  0.1739E-02 -0.1680E+05
   -0.700010   10.71409  0.0000E+00  0.1154E-04  0.1368E-06  0.3443E-03  0.1552E-02  0.5925E+04
   -0.735012   10.71475  0.0000E+00  0.1061E-04  0.1085E-06  0.3583E-03  0.1380E-02  0.9194E+04
   -0.770013   10.71537  0.0000E+00  0.9807E-05  0.8799E-07  0.3727E-03  0.1226E-02  0.3990E+03
   -0.805015   10.71598  0.0000E+00  0.9101E-05  0.7274E-07  0.3815E-03  0.1088E-02  0.4268E+03
   -0.840017   10.71654  0.0000E+00  0.8479E-05  0.6123E-07  0.3880E-03  0.9640E-03  0.4465E+03
   -0.875018   10.71711  0.0000E+00  0.7928E-05  0.5268E-07  0.3984E-03  0.8519E-03  0.4177E+03
   -0.910020   10.71763  0.0000E+00  0.7438E-05  0.4583E-07  0.4136E-03  0.7525E-03  0.6939E+03
   -0.945021   10.71815  0.0000E+00  0.7007E-05  0.4040E-07  0.4218E-03  0.6612E-03  0.6278E+03
   -0.980022   10.71863  0.0000E+00  0.6625E-05  0.3603E-07  0.4238E-03  0.5775E-03  0.7925E+03
   -1.015023   10.71910  0.0000E+00  0.6285E-05  0.3252E-07  0.4256E-03  0.5006E-03  0.2528E+05
   -1.050024   10.71956  0.0000E+00  0.5975E-05  0.2970E-07  0.4234E-03  0.4319E-03  0.1160E+05
   -1.085025   10.72002  0.0000E+00  0.5689E-05  0.2751E-07  0.4166E-03  0.3710E-03  0.1916E+04
   -1.120025   10.72047  0.0000E+00  0.5426E-05  0.2600E-07  0.4030E-03  0.3180E-03  0.2992E+04
   -1.155025   10.72094  0.0000E+00  0.5185E-05  0.2528E-07  0.3861E-03  0.2695E-03  0.5884E+04
   -1.190026   10.72143  0.0000E+00  0.4956E-05  0.2569E-07  0.3598E-03  0.2246E-03  0.7163E+04
   -1.225025   10.72197  0.0000E+00  0.4716E-05  0.2794E-07  0.3317E-03  0.1816E-03  0.1065E+05
   -1.260025   10.72256  0.0000E+00  0.4420E-05  0.3438E-07  0.2864E-03  0.1428E-03  0.3193E+05
   -1.295024   10.72334  0.0000E+00  0.3946E-05  0.5339E-07  0.2304E-03  0.1087E-03  0.4730E+05
   -1.330023   10.72414  0.0000E+00  0.3285E-05  0.1055E-06  0.1503E-03  0.8974E-04  0.4685E+07
   -1.365022   10.72653  0.0000E+00  0.2142E-05  0.2341E-06  0.3229E-04  0.6429E-04 -0.6088E+09
   -1.400020   10.73615  0.0000E+00  0.0000E+00  0.0000E+00  0.0000E+00  0.8911E-04  0.0000E+00
