 1 - depth, m
 2 - temperature, C
 3 - salinity, kg/kg
 4 - turbulent kinetic energy, m**2/s**2
 5 - dissipation rate, m**2/s**3
 6 - kinematic heat conductance, m**2/s
 7 - modulus of horizontal velocity, m/s
 8 - Richardson number, n/d
   -0.000000    0.00000  0.0000E+00  0.4702E-13  0.1132E-15  0.1000E-09  0.0000E+00  0.7968E+16
   -0.034998    0.12151  0.0000E+00  0.4702E-13  0.1132E-15  0.1000E-09  0.0000E+00  0.7826E+16
   -0.069996    0.24495  0.0000E+00  0.4702E-13  0.1132E-15  0.1000E-09  0.0000E+00  0.7676E+16
   -0.104995    0.37039  0.0000E+00  0.4702E-13  0.1132E-15  0.1000E-09  0.0000E+00  0.7434E+16
   -0.139994    0.49643  0.0000E+00  0.4702E-13  0.1132E-15  0.1000E-09  0.0000E+00  0.7141E+16
   -0.174993    0.62223  0.0000E+00  0.4702E-13  0.1132E-15  0.1000E-09  0.0000E+00  0.6848E+16
   -0.209992    0.74773  0.0000E+00  0.4702E-13  0.1132E-15  0.1000E-09  0.0000E+00  0.6554E+16
   -0.244992    0.87285  0.0000E+00  0.4702E-13  0.1132E-15  0.1000E-09  0.0000E+00  0.6261E+16
   -0.279992    0.99751  0.0000E+00  0.4702E-13  0.1132E-15  0.1000E-09  0.0000E+00  0.5968E+16
   -0.314992    1.12165  0.0000E+00  0.4702E-13  0.1132E-15  0.1000E-09  0.0000E+00  0.5707E+16
   -0.349992    1.24588  0.0000E+00  0.4702E-13  0.1132E-15  0.1000E-09  0.0000E+00  0.5447E+16
   -0.384993    1.37022  0.0000E+00  0.4702E-13  0.1132E-15  0.1000E-09  0.0000E+00  0.5186E+16
   -0.419993    1.49462  0.0000E+00  0.4702E-13  0.1132E-15  0.1000E-09  0.0000E+00  0.4921E+16
   -0.454994    1.61896  0.0000E+00  0.1026E-12  0.1132E-15  0.1000E-09  0.0000E+00  0.4667E+16
   -0.489995    1.74351  0.0000E+00  0.3522E-12  0.1265E-15  0.1000E-09  0.0000E+00  0.4449E+16
   -0.524996    1.86932  0.0000E+00  0.8793E-12  0.2218E-15  0.1000E-09  0.0000E+00  0.4400E+16
   -0.559997    2.00185  0.0000E+00  0.1988E-11  0.4450E-15  0.1000E-09  0.0000E+00  0.4455E+16
   -0.594998    2.14608  0.0000E+00  0.4488E-11  0.9550E-15  0.1000E-09  0.0000E+00  0.4465E+16
   -0.629999    2.30340  0.0000E+00  0.8869E-11  0.1840E-14  0.1000E-09  0.0000E+00  0.4024E+16
   -0.665000    2.45941  0.0000E+00  0.1655E-10  0.3366E-14  0.1000E-09  0.0000E+00  0.3592E+16
   -0.700002    2.61399  0.0000E+00  0.3029E-10  0.6044E-14  0.1000E-09  0.0000E+00  0.3176E+16
   -0.735003    2.76725  0.0000E+00  0.5512E-10  0.1080E-13  0.1000E-09  0.0000E+00  0.2785E+16
   -0.770004    2.92004  0.0000E+00  0.9997E-10  0.1922E-13  0.1000E-09  0.0000E+00  0.2424E+16
   -0.805005    3.07404  0.0000E+00  0.1808E-09  0.3413E-13  0.1000E-09  0.0000E+00  0.2053E+16
   -0.840006    3.22895  0.0000E+00  0.3253E-09  0.6031E-13  0.1002E-09  0.0000E+00  0.1675E+16
   -0.875008    3.38465  0.0000E+00  0.5839E-09  0.1063E-12  0.2128E-09  0.0000E+00  0.1294E+16
   -0.910009    3.54117  0.0000E+00  0.1044E-08  0.1866E-12  0.5366E-09  0.0000E+00  0.9010E+15
   -0.945009    3.69684  0.0000E+00  0.1850E-08  0.3252E-12  0.1641E-08  0.0000E+00  0.5132E+15
   -0.980010    3.85028  0.0000E+00  0.3255E-08  0.5626E-12  0.1006E-07  0.0000E+00  0.1447E+15
   -1.015011    3.99407  0.0000E+00  0.4169E-08  0.7246E-12  0.7647E-05  0.0000E+00 -0.4013E+12
   -1.050011    3.99689  0.0000E+00  0.4687E-08  0.8376E-12  0.9018E-05  0.0000E+00 -0.4433E+12
   -1.085012    3.99929  0.0000E+00  0.5176E-08  0.9669E-12  0.9991E-05  0.0000E+00 -0.4964E+12
   -1.120012    4.00154  0.0000E+00  0.5632E-08  0.1116E-11  0.1031E-04  0.0000E+00 -0.5600E+12
   -1.155012    4.00373  0.0000E+00  0.6056E-08  0.1293E-11  0.1019E-04  0.0000E+00 -0.6476E+12
   -1.190011    4.00597  0.0000E+00  0.6454E-08  0.1516E-11  0.9766E-05  0.0000E+00 -0.7792E+12
   -1.225011    4.00835  0.0000E+00  0.6852E-08  0.1832E-11  0.9387E-05  0.0000E+00 -0.1025E+13
   -1.260010    4.01114  0.0000E+00  0.7255E-08  0.2341E-11  0.8874E-05  0.0000E+00 -0.1541E+13
   -1.295009    4.01483  0.0000E+00  0.7614E-08  0.3438E-11  0.7016E-05  0.0000E+00 -0.3078E+13
   -1.330007    4.02105  0.0000E+00  0.7378E-08  0.5554E-11  0.3232E-05  0.0000E+00 -0.7659E+13
   -1.365005    4.03305  0.0000E+00  0.5656E-08  0.1218E-10  0.6023E-06  0.0000E+00 -0.4727E+14
   -1.400003    4.07700  0.0000E+00  0.0000E+00  0.0000E+00  0.0000E+00  0.0000E+00  0.0000E+00
