 1 - depth, m
 2 - temperature, C
 3 - salinity, kg/kg
 4 - turbulent kinetic energy, m**2/s**2
 5 - dissipation rate, m**2/s**3
 6 - kinematic heat conductance, m**2/s
 7 - modulus of horizontal velocity, m/s
 8 - Richardson number, n/d
   -0.000000    0.00000  0.0000E+00  0.4702E-13  0.1132E-15  0.1000E-09  0.0000E+00  0.7697E+16
   -0.034998    0.11731  0.0000E+00  0.4702E-13  0.1132E-15  0.1000E-09  0.0000E+00  0.7562E+16
   -0.069996    0.23637  0.0000E+00  0.4702E-13  0.1132E-15  0.1000E-09  0.0000E+00  0.7419E+16
   -0.104995    0.35723  0.0000E+00  0.4702E-13  0.1132E-15  0.1000E-09  0.0000E+00  0.7189E+16
   -0.139994    0.47857  0.0000E+00  0.4702E-13  0.1132E-15  0.1000E-09  0.0000E+00  0.6913E+16
   -0.174993    0.59959  0.0000E+00  0.4702E-13  0.1132E-15  0.1000E-09  0.0000E+00  0.6637E+16
   -0.209992    0.72025  0.0000E+00  0.4702E-13  0.1132E-15  0.1000E-09  0.0000E+00  0.6361E+16
   -0.244992    0.84047  0.0000E+00  0.4702E-13  0.1132E-15  0.1000E-09  0.0000E+00  0.6086E+16
   -0.279992    0.96021  0.0000E+00  0.4702E-13  0.1132E-15  0.1000E-09  0.0000E+00  0.5812E+16
   -0.314992    1.07941  0.0000E+00  0.4702E-13  0.1132E-15  0.1000E-09  0.0000E+00  0.5575E+16
   -0.349992    1.19878  0.0000E+00  0.4702E-13  0.1132E-15  0.1000E-09  0.0000E+00  0.5340E+16
   -0.384993    1.31837  0.0000E+00  0.4702E-13  0.1132E-15  0.1000E-09  0.0000E+00  0.5104E+16
   -0.419994    1.43815  0.0000E+00  0.4702E-13  0.1132E-15  0.1000E-09  0.0000E+00  0.4861E+16
   -0.454994    1.55795  0.0000E+00  0.4702E-13  0.1132E-15  0.1000E-09  0.0000E+00  0.4627E+16
   -0.489995    1.67801  0.0000E+00  0.6332E-13  0.1132E-15  0.1000E-09  0.0000E+00  0.4432E+16
   -0.524996    1.79942  0.0000E+00  0.2899E-12  0.1250E-15  0.1000E-09  0.0000E+00  0.4417E+16
   -0.559997    1.92780  0.0000E+00  0.8229E-12  0.2392E-15  0.1000E-09  0.0000E+00  0.4519E+16
   -0.594999    2.06833  0.0000E+00  0.2078E-11  0.5352E-15  0.1000E-09  0.0000E+00  0.4579E+16
   -0.630000    2.22249  0.0000E+00  0.4374E-11  0.1081E-14  0.1000E-09  0.0000E+00  0.4153E+16
   -0.665001    2.37543  0.0000E+00  0.8604E-11  0.2074E-14  0.1000E-09  0.0000E+00  0.3736E+16
   -0.700002    2.52701  0.0000E+00  0.1655E-10  0.3904E-14  0.1000E-09  0.0000E+00  0.3332E+16
   -0.735004    2.67734  0.0000E+00  0.3164E-10  0.7312E-14  0.1000E-09  0.0000E+00  0.2955E+16
   -0.770005    2.82723  0.0000E+00  0.6022E-10  0.1364E-13  0.1000E-09  0.0000E+00  0.2606E+16
   -0.805006    2.97811  0.0000E+00  0.1142E-09  0.2536E-13  0.1000E-09  0.0000E+00  0.2247E+16
   -0.840007    3.12967  0.0000E+00  0.2153E-09  0.4689E-13  0.1000E-09  0.0000E+00  0.1883E+16
   -0.875008    3.28176  0.0000E+00  0.4045E-09  0.8642E-13  0.1474E-09  0.0000E+00  0.1518E+16
   -0.910009    3.43448  0.0000E+00  0.7563E-09  0.1585E-12  0.3601E-09  0.0000E+00  0.1140E+16
   -0.945010    3.58620  0.0000E+00  0.1402E-08  0.2884E-12  0.9732E-09  0.0000E+00  0.7670E+15
   -0.980011    3.73597  0.0000E+00  0.2585E-08  0.5220E-12  0.3320E-08  0.0000E+00  0.4066E+15
   -1.015012    3.88187  0.0000E+00  0.4716E-08  0.9364E-12  0.2916E-07  0.0000E+00  0.8249E+14
   -1.050012    4.00601  0.0000E+00  0.5888E-08  0.1177E-11  0.1150E-04  0.0000E+00 -0.5906E+12
   -1.085013    4.00784  0.0000E+00  0.6480E-08  0.1326E-11  0.1236E-04  0.0000E+00 -0.6189E+12
   -1.120013    4.00960  0.0000E+00  0.7005E-08  0.1491E-11  0.1254E-04  0.0000E+00 -0.6623E+12
   -1.155013    4.01135  0.0000E+00  0.7471E-08  0.1683E-11  0.1227E-04  0.0000E+00 -0.7316E+12
   -1.190012    4.01315  0.0000E+00  0.7889E-08  0.1921E-11  0.1170E-04  0.0000E+00 -0.8442E+12
   -1.225012    4.01509  0.0000E+00  0.8290E-08  0.2256E-11  0.1126E-04  0.0000E+00 -0.1065E+13
   -1.260011    4.01736  0.0000E+00  0.8671E-08  0.2787E-11  0.1069E-04  0.0000E+00 -0.1531E+13
   -1.295010    4.02037  0.0000E+00  0.8948E-08  0.3920E-11  0.8517E-05  0.0000E+00 -0.2901E+13
   -1.330008    4.02543  0.0000E+00  0.8537E-08  0.6154E-11  0.3833E-05  0.0000E+00 -0.6949E+13
   -1.365007    4.03548  0.0000E+00  0.6357E-08  0.1365E-10  0.6478E-06  0.0000E+00 -0.4449E+14
   -1.400005    4.07633  0.0000E+00  0.0000E+00  0.0000E+00  0.0000E+00  0.0000E+00  0.0000E+00
