 1 - depth, m
 2 - temperature, C
 3 - salinity, kg/kg
 4 - turbulent kinetic energy, m**2/s**2
 5 - dissipation rate, m**2/s**3
 6 - kinematic heat conductance, m**2/s
 7 - modulus of horizontal velocity, m/s
 8 - Richardson number, n/d
   -0.000000    0.00000  0.0000E+00  0.4702E-13  0.1132E-15  0.1000E-09  0.0000E+00  0.8699E+16
   -0.034998    0.13285  0.0000E+00  0.4702E-13  0.1132E-15  0.1000E-09  0.0000E+00  0.8498E+16
   -0.069996    0.26753  0.0000E+00  0.4702E-13  0.1132E-15  0.1000E-09  0.0000E+00  0.8287E+16
   -0.104995    0.40406  0.0000E+00  0.4702E-13  0.1132E-15  0.1000E-09  0.0000E+00  0.7974E+16
   -0.139993    0.54086  0.0000E+00  0.4702E-13  0.1132E-15  0.1000E-09  0.0000E+00  0.7607E+16
   -0.174993    0.67694  0.0000E+00  0.4702E-13  0.1132E-15  0.1000E-09  0.0000E+00  0.7239E+16
   -0.209992    0.81218  0.0000E+00  0.4702E-13  0.1132E-15  0.1000E-09  0.0000E+00  0.6870E+16
   -0.244992    0.94639  0.0000E+00  0.4702E-13  0.1132E-15  0.1000E-09  0.0000E+00  0.6501E+16
   -0.279991    1.07938  0.0000E+00  0.4702E-13  0.1132E-15  0.1000E-09  0.0000E+00  0.6132E+16
   -0.314991    1.21097  0.0000E+00  0.4702E-13  0.1132E-15  0.1000E-09  0.0000E+00  0.5793E+16
   -0.349992    1.34157  0.0000E+00  0.4702E-13  0.1132E-15  0.1000E-09  0.0000E+00  0.5453E+16
   -0.384992    1.47100  0.0000E+00  0.4702E-13  0.1132E-15  0.1000E-09  0.0000E+00  0.5112E+16
   -0.419993    1.59897  0.0000E+00  0.4702E-13  0.1132E-15  0.1000E-09  0.0000E+00  0.4779E+16
   -0.454993    1.72541  0.0000E+00  0.4702E-13  0.1132E-15  0.1000E-09  0.0000E+00  0.4465E+16
   -0.489994    1.85058  0.0000E+00  0.4702E-13  0.1132E-15  0.1000E-09  0.0000E+00  0.4185E+16
   -0.524995    1.97521  0.0000E+00  0.4702E-13  0.1132E-15  0.1000E-09  0.0000E+00  0.4047E+16
   -0.559996    2.10385  0.0000E+00  0.4702E-13  0.1132E-15  0.1000E-09  0.0000E+00  0.3982E+16
   -0.594997    2.23994  0.0000E+00  0.4702E-13  0.1132E-15  0.1000E-09  0.0000E+00  0.3874E+16
   -0.629998    2.38372  0.0000E+00  0.5228E-13  0.1132E-15  0.1000E-09  0.0000E+00  0.3438E+16
   -0.665000    2.52343  0.0000E+00  0.2468E-12  0.1246E-15  0.1000E-09  0.0000E+00  0.3024E+16
   -0.700001    2.65873  0.0000E+00  0.6613E-12  0.2392E-15  0.1000E-09  0.0000E+00  0.2636E+16
   -0.735002    2.78940  0.0000E+00  0.1508E-11  0.4980E-15  0.1000E-09  0.0000E+00  0.2296E+16
   -0.770003    2.91642  0.0000E+00  0.3261E-11  0.1036E-14  0.1000E-09  0.0000E+00  0.2019E+16
   -0.805004    3.04241  0.0000E+00  0.6909E-11  0.2138E-14  0.1000E-09  0.0000E+00  0.1744E+16
   -0.840005    3.16690  0.0000E+00  0.1447E-10  0.4374E-14  0.1000E-09  0.0000E+00  0.1474E+16
   -0.875007    3.28951  0.0000E+00  0.3010E-10  0.8902E-14  0.1000E-09  0.0000E+00  0.1215E+16
   -0.910007    3.41009  0.0000E+00  0.6218E-10  0.1799E-13  0.1000E-09  0.0000E+00  0.9564E+15
   -0.945008    3.52705  0.0000E+00  0.1272E-09  0.3602E-13  0.1302E-09  0.0000E+00  0.7147E+15
   -0.980009    3.63954  0.0000E+00  0.2587E-09  0.7173E-13  0.3742E-09  0.0000E+00  0.4949E+15
   -1.015010    3.74682  0.0000E+00  0.5267E-09  0.1430E-12  0.1215E-08  0.0000E+00  0.3034E+15
   -1.050010    3.84940  0.0000E+00  0.1075E-08  0.2861E-12  0.5471E-08  0.0000E+00  0.1342E+15
   -1.085010    3.94589  0.0000E+00  0.2109E-08  0.5534E-12  0.1223E-06  0.0000E+00  0.1088E+14
   -1.120010    4.00276  0.0000E+00  0.3204E-08  0.8538E-12  0.4194E-05  0.0000E+00 -0.9932E+12
   -1.155010    4.00625  0.0000E+00  0.3885E-08  0.1099E-11  0.4627E-05  0.0000E+00 -0.1099E+13
   -1.190010    4.00950  0.0000E+00  0.4531E-08  0.1412E-11  0.4751E-05  0.0000E+00 -0.1311E+13
   -1.225009    4.01287  0.0000E+00  0.5227E-08  0.1878E-11  0.4928E-05  0.0000E+00 -0.1778E+13
   -1.260008    4.01685  0.0000E+00  0.6021E-08  0.2651E-11  0.5135E-05  0.0000E+00 -0.2807E+13
   -1.295007    4.02224  0.0000E+00  0.6948E-08  0.4251E-11  0.4678E-05  0.0000E+00 -0.5636E+13
   -1.330006    4.03115  0.0000E+00  0.7189E-08  0.6915E-11  0.2534E-05  0.0000E+00 -0.1271E+14
   -1.365004    4.04660  0.0000E+00  0.6049E-08  0.1444E-10  0.6438E-06  0.0000E+00 -0.6422E+14
   -1.400002    4.09514  0.0000E+00  0.0000E+00  0.0000E+00  0.0000E+00  0.0000E+00  0.0000E+00
