 1 - depth, m
 2 - temperature, C
 3 - salinity, kg/kg
 4 - turbulent kinetic energy, m**2/s**2
 5 - dissipation rate, m**2/s**3
 6 - kinematic heat conductance, m**2/s
 7 - modulus of horizontal velocity, m/s
 8 - Richardson number, n/d
   -0.000000    0.00000  0.0000E+00  0.4702E-13  0.1132E-15  0.1000E-09  0.0000E+00  0.9363E+16
   -0.034998    0.14320  0.0000E+00  0.4702E-13  0.1132E-15  0.1000E-09  0.0000E+00  0.9106E+16
   -0.069996    0.28815  0.0000E+00  0.4702E-13  0.1132E-15  0.1000E-09  0.0000E+00  0.8841E+16
   -0.104995    0.43490  0.0000E+00  0.4702E-13  0.1132E-15  0.1000E-09  0.0000E+00  0.8468E+16
   -0.139993    0.58176  0.0000E+00  0.4702E-13  0.1132E-15  0.1000E-09  0.0000E+00  0.8042E+16
   -0.174992    0.72772  0.0000E+00  0.4702E-13  0.1132E-15  0.1000E-09  0.0000E+00  0.7620E+16
   -0.209992    0.87269  0.0000E+00  0.4702E-13  0.1132E-15  0.1000E-09  0.0000E+00  0.7203E+16
   -0.244991    1.01659  0.0000E+00  0.4702E-13  0.1132E-15  0.1000E-09  0.0000E+00  0.6792E+16
   -0.279991    1.15932  0.0000E+00  0.4702E-13  0.1132E-15  0.1000E-09  0.0000E+00  0.6387E+16
   -0.314991    1.30081  0.0000E+00  0.1257E-12  0.1132E-15  0.1000E-09  0.0000E+00  0.6015E+16
   -0.349991    1.44157  0.0000E+00  0.4006E-12  0.1304E-15  0.1000E-09  0.0000E+00  0.5648E+16
   -0.384992    1.58155  0.0000E+00  0.9134E-12  0.2169E-15  0.1000E-09  0.0000E+00  0.5282E+16
   -0.419992    1.72063  0.0000E+00  0.1821E-11  0.3894E-15  0.1000E-09  0.0000E+00  0.4929E+16
   -0.454993    1.85890  0.0000E+00  0.3435E-11  0.7021E-15  0.1000E-09  0.0000E+00  0.4598E+16
   -0.489994    1.99684  0.0000E+00  0.6327E-11  0.1259E-14  0.1000E-09  0.0000E+00  0.4302E+16
   -0.524995    2.13554  0.0000E+00  0.1207E-10  0.2349E-14  0.1000E-09  0.0000E+00  0.4160E+16
   -0.559996    2.28070  0.0000E+00  0.2404E-10  0.4585E-14  0.1000E-09  0.0000E+00  0.4098E+16
   -0.594997    2.43734  0.0000E+00  0.5064E-10  0.9474E-14  0.1000E-09  0.0000E+00  0.3977E+16
   -0.629998    2.60671  0.0000E+00  0.9618E-10  0.1770E-13  0.1000E-09  0.0000E+00  0.3466E+16
   -0.664999    2.77393  0.0000E+00  0.1738E-09  0.3145E-13  0.1000E-09  0.0000E+00  0.2972E+16
   -0.700000    2.93884  0.0000E+00  0.3086E-09  0.5490E-13  0.1000E-09  0.0000E+00  0.2500E+16
   -0.735001    3.10147  0.0000E+00  0.5453E-09  0.9534E-13  0.1200E-09  0.0000E+00  0.2059E+16
   -0.770002    3.26284  0.0000E+00  0.9608E-09  0.1651E-12  0.2594E-09  0.0000E+00  0.1649E+16
   -0.805004    3.42500  0.0000E+00  0.1688E-08  0.2852E-12  0.6001E-09  0.0000E+00  0.1231E+16
   -0.840005    3.58741  0.0000E+00  0.2953E-08  0.4904E-12  0.1567E-08  0.0000E+00  0.8103E+15
   -0.875006    3.74924  0.0000E+00  0.5143E-08  0.8399E-12  0.5539E-08  0.0000E+00  0.3925E+15
   -0.910007    3.90742  0.0000E+00  0.8635E-08  0.1393E-11  0.8133E-07  0.0000E+00  0.4396E+14
   -0.945007    4.01118  0.0000E+00  0.9526E-08  0.1544E-11  0.2458E-04  0.0000E+00 -0.3684E+12
   -0.980008    4.01211  0.0000E+00  0.9933E-08  0.1626E-11  0.2453E-04  0.0000E+00 -0.3811E+12
   -1.015009    4.01303  0.0000E+00  0.1029E-07  0.1711E-11  0.2487E-04  0.0000E+00 -0.3934E+12
   -1.050009    4.01396  0.0000E+00  0.1062E-07  0.1807E-11  0.2501E-04  0.0000E+00 -0.4118E+12
   -1.085009    4.01489  0.0000E+00  0.1092E-07  0.1919E-11  0.2497E-04  0.0000E+00 -0.4407E+12
   -1.120009    4.01586  0.0000E+00  0.1119E-07  0.2050E-11  0.2449E-04  0.0000E+00 -0.4673E+12
   -1.155009    4.01685  0.0000E+00  0.1143E-07  0.2205E-11  0.2370E-04  0.0000E+00 -0.5028E+12
   -1.190009    4.01789  0.0000E+00  0.1163E-07  0.2401E-11  0.2255E-04  0.0000E+00 -0.5598E+12
   -1.225008    4.01900  0.0000E+00  0.1182E-07  0.2680E-11  0.2113E-04  0.0000E+00 -0.6922E+12
   -1.260007    4.02032  0.0000E+00  0.1196E-07  0.3128E-11  0.1908E-04  0.0000E+00 -0.9881E+12
   -1.295006    4.02213  0.0000E+00  0.1198E-07  0.4217E-11  0.1502E-04  0.0000E+00 -0.1787E+13
   -1.330004    4.02519  0.0000E+00  0.1132E-07  0.6894E-11  0.5759E-05  0.0000E+00 -0.4821E+13
   -1.365002    4.03243  0.0000E+00  0.8243E-08  0.1754E-10  0.7807E-06  0.0000E+00 -0.3922E+14
   -1.400000    4.07080  0.0000E+00  0.0000E+00  0.0000E+00  0.0000E+00  0.0000E+00  0.0000E+00
