 1 - depth, m
 2 - temperature, C
 3 - salinity, kg/kg
 4 - turbulent kinetic energy, m**2/s**2
 5 - dissipation rate, m**2/s**3
 6 - kinematic heat conductance, m**2/s
 7 - modulus of horizontal velocity, m/s
 8 - Richardson number, n/d
   -0.000000    0.00000  0.0000E+00  0.4701E-13  0.1132E-15  0.1000E-09  0.0000E+00  0.5659E+16
   -0.034999    0.08588  0.0000E+00  0.4701E-13  0.1132E-15  0.1000E-09  0.0000E+00  0.5864E+16
   -0.069998    0.17705  0.0000E+00  0.4701E-13  0.1132E-15  0.1000E-09  0.0000E+00  0.6052E+16
   -0.104997    0.27364  0.0000E+00  0.4701E-13  0.1132E-15  0.1000E-09  0.0000E+00  0.6110E+16
   -0.139997    0.37395  0.0000E+00  0.4701E-13  0.1132E-15  0.1000E-09  0.0000E+00  0.6084E+16
   -0.174997    0.47686  0.0000E+00  0.4701E-13  0.1132E-15  0.1000E-09  0.0000E+00  0.6035E+16
   -0.209997    0.58221  0.0000E+00  0.4701E-13  0.1132E-15  0.1000E-09  0.0000E+00  0.5966E+16
   -0.244998    0.68985  0.0000E+00  0.4701E-13  0.1132E-15  0.1000E-09  0.0000E+00  0.5878E+16
   -0.279999    0.79967  0.0000E+00  0.4701E-13  0.1132E-15  0.1000E-09  0.0000E+00  0.5774E+16
   -0.315000    0.91157  0.0000E+00  0.4701E-13  0.1132E-15  0.1000E-09  0.0000E+00  0.5640E+16
   -0.350001    1.02517  0.0000E+00  0.4701E-13  0.1132E-15  0.1000E-09  0.0000E+00  0.5493E+16
   -0.385002    1.14038  0.0000E+00  0.4701E-13  0.1132E-15  0.1000E-09  0.0000E+00  0.5336E+16
   -0.420003    1.25719  0.0000E+00  0.4701E-13  0.1132E-15  0.1000E-09  0.0000E+00  0.5183E+16
   -0.455005    1.37590  0.0000E+00  0.4701E-13  0.1132E-15  0.1000E-09  0.0000E+00  0.5033E+16
   -0.490007    1.49681  0.0000E+00  0.4701E-13  0.1132E-15  0.1000E-09  0.0000E+00  0.4885E+16
   -0.525009    1.62034  0.0000E+00  0.4701E-13  0.1132E-15  0.1000E-09  0.0000E+00  0.4774E+16
   -0.560011    1.74791  0.0000E+00  0.4701E-13  0.1132E-15  0.1000E-09  0.0000E+00  0.4699E+16
   -0.595013    1.88130  0.0000E+00  0.4701E-13  0.1132E-15  0.1000E-09  0.0000E+00  0.4595E+16
   -0.630015    2.02079  0.0000E+00  0.2219E-12  0.1175E-15  0.1000E-09  0.0000E+00  0.4307E+16
   -0.665017    2.16151  0.0000E+00  0.6047E-12  0.2239E-15  0.1000E-09  0.0000E+00  0.4008E+16
   -0.700019    2.30335  0.0000E+00  0.1389E-11  0.4673E-15  0.1000E-09  0.0000E+00  0.3701E+16
   -0.735021    2.44622  0.0000E+00  0.3023E-11  0.9780E-15  0.1000E-09  0.0000E+00  0.3393E+16
   -0.770023    2.59034  0.0000E+00  0.6452E-11  0.2032E-14  0.1000E-09  0.0000E+00  0.3088E+16
   -0.805025    2.73623  0.0000E+00  0.1363E-10  0.4193E-14  0.1000E-09  0.0000E+00  0.2767E+16
   -0.840027    2.88357  0.0000E+00  0.2855E-10  0.8587E-14  0.1000E-09  0.0000E+00  0.2432E+16
   -0.875029    3.03207  0.0000E+00  0.5949E-10  0.1750E-13  0.1000E-09  0.0000E+00  0.2088E+16
   -0.910031    3.18148  0.0000E+00  0.1231E-09  0.3542E-13  0.1000E-09  0.0000E+00  0.1727E+16
   -0.945033    3.33072  0.0000E+00  0.2522E-09  0.7102E-13  0.1348E-09  0.0000E+00  0.1364E+16
   -0.980034    3.47908  0.0000E+00  0.5137E-09  0.1416E-12  0.3651E-09  0.0000E+00  0.1004E+16
   -1.015036    3.62574  0.0000E+00  0.1048E-08  0.2828E-12  0.1115E-08  0.0000E+00  0.6566E+15
   -1.050037    3.77048  0.0000E+00  0.2143E-08  0.5667E-12  0.4562E-08  0.0000E+00  0.3221E+15
   -1.085038    3.91157  0.0000E+00  0.4253E-08  0.1107E-11  0.7639E-07  0.0000E+00  0.3938E+14
   -1.120039    4.01216  0.0000E+00  0.5790E-08  0.1521E-11  0.8912E-05  0.0000E+00 -0.1035E+13
   -1.155040    4.01460  0.0000E+00  0.6546E-08  0.1782E-11  0.9302E-05  0.0000E+00 -0.1090E+13
   -1.190040    4.01696  0.0000E+00  0.7192E-08  0.2082E-11  0.9279E-05  0.0000E+00 -0.1213E+13
   -1.225041    4.01939  0.0000E+00  0.7790E-08  0.2487E-11  0.9251E-05  0.0000E+00 -0.1485E+13
   -1.260041    4.02214  0.0000E+00  0.8355E-08  0.3106E-11  0.9081E-05  0.0000E+00 -0.2068E+13
   -1.295040    4.02566  0.0000E+00  0.8817E-08  0.4354E-11  0.7573E-05  0.0000E+00 -0.3716E+13
   -1.330040    4.03129  0.0000E+00  0.8510E-08  0.6625E-11  0.3623E-05  0.0000E+00 -0.8225E+13
   -1.365039    4.04175  0.0000E+00  0.6381E-08  0.1397E-10  0.6480E-06  0.0000E+00 -0.4716E+14
   -1.400038    4.08171  0.0000E+00  0.0000E+00  0.0000E+00  0.0000E+00  0.0000E+00  0.0000E+00
