 1 - depth, m
 2 - temperature, C
 3 - salinity, kg/kg
 4 - turbulent kinetic energy, m**2/s**2
 5 - dissipation rate, m**2/s**3
 6 - kinematic heat conductance, m**2/s
 7 - modulus of horizontal velocity, m/s
 8 - Richardson number, n/d
   -0.000000   10.80294  0.0000E+00  0.2281E-03  0.3751E-03  0.5061E-04  0.1476E+00  0.1051E-01
   -0.034998   10.85654  0.0000E+00  0.1241E-03  0.1124E-03  0.9206E-04  0.4890E-01 -0.1906E-01
   -0.069996   10.86817  0.0000E+00  0.8679E-04  0.3923E-04  0.1232E-03  0.3162E-01  0.4230E-02
   -0.104995   10.87508  0.0000E+00  0.6975E-04  0.2359E-04  0.1289E-03  0.2487E-01 -0.1737E-01
   -0.139994   10.87941  0.0000E+00  0.5847E-04  0.1495E-04  0.1374E-03  0.2067E-01 -0.1005E+00
   -0.174993   10.88273  0.0000E+00  0.4983E-04  0.9540E-05  0.1470E-03  0.1740E-01 -0.3728E-01
   -0.209993   10.88547  0.0000E+00  0.4333E-04  0.6099E-05  0.1562E-03  0.1484E-01 -0.3280E-01
   -0.244992   10.88788  0.0000E+00  0.3822E-04  0.3911E-05  0.1639E-03  0.1267E-01 -0.3625E-01
   -0.279992   10.89008  0.0000E+00  0.3403E-04  0.2538E-05  0.1685E-03  0.1073E-01 -0.4024E-01
   -0.314993   10.89227  0.0000E+00  0.3024E-04  0.1675E-05  0.1796E-03  0.8810E-02 -0.2541E-01
   -0.349993   10.89422  0.0000E+00  0.2707E-04  0.1132E-05  0.1925E-03  0.7370E-02  0.1331E+00
   -0.384994   10.89599  0.0000E+00  0.2441E-04  0.7870E-06  0.2265E-03  0.6204E-02  0.1321E+03
   -0.419994   10.89754  0.0000E+00  0.2220E-04  0.5657E-06  0.2448E-03  0.5241E-02  0.1103E+03
   -0.454995   10.89902  0.0000E+00  0.2030E-04  0.4222E-06  0.2585E-03  0.4355E-02  0.5025E+03
   -0.489996   10.90046  0.0000E+00  0.1864E-04  0.3278E-06  0.2700E-03  0.3527E-02  0.5968E+02
   -0.524997   10.90189  0.0000E+00  0.1708E-04  0.2606E-06  0.2904E-03  0.2797E-02  0.3781E+02
   -0.559998   10.90312  0.0000E+00  0.1557E-04  0.2089E-06  0.3193E-03  0.2269E-02 -0.1240E+03
   -0.595000   10.90415  0.0000E+00  0.1397E-04  0.1624E-06  0.3398E-03  0.1921E-02  0.2560E+03
   -0.630001   10.90496  0.0000E+00  0.1258E-04  0.1262E-06  0.3499E-03  0.1721E-02  0.6965E+04
   -0.665002   10.90587  0.0000E+00  0.1142E-04  0.1004E-06  0.3680E-03  0.1524E-02  0.1357E+04
   -0.700004   10.90677  0.0000E+00  0.1044E-04  0.8162E-07  0.3901E-03  0.1340E-02  0.3191E+02
   -0.735005   10.90761  0.0000E+00  0.9595E-05  0.6800E-07  0.4128E-03  0.1173E-02  0.1774E+04
   -0.770006   10.90838  0.0000E+00  0.8871E-05  0.5754E-07  0.4377E-03  0.1026E-02  0.1925E+03
   -0.805007   10.90909  0.0000E+00  0.8241E-05  0.4922E-07  0.4595E-03  0.8968E-03  0.1056E+03
   -0.840009   10.90975  0.0000E+00  0.7692E-05  0.4251E-07  0.4759E-03  0.7823E-03  0.1734E+04
   -0.875010   10.91037  0.0000E+00  0.7213E-05  0.3706E-07  0.4856E-03  0.6810E-03  0.7090E+03
   -0.910011   10.91096  0.0000E+00  0.6790E-05  0.3264E-07  0.4899E-03  0.5921E-03  0.6264E+03
   -0.945012   10.91153  0.0000E+00  0.6419E-05  0.2907E-07  0.4910E-03  0.5119E-03  0.9964E+03
   -0.980013   10.91209  0.0000E+00  0.6091E-05  0.2624E-07  0.4881E-03  0.4390E-03  0.4074E+03
   -1.015013   10.91265  0.0000E+00  0.5802E-05  0.2404E-07  0.4832E-03  0.3730E-03  0.5824E+03
   -1.050014   10.91321  0.0000E+00  0.5544E-05  0.2238E-07  0.4739E-03  0.3158E-03  0.7572E+03
   -1.085014   10.91377  0.0000E+00  0.5311E-05  0.2123E-07  0.4601E-03  0.2673E-03  0.1851E+04
   -1.120015   10.91434  0.0000E+00  0.5098E-05  0.2064E-07  0.4397E-03  0.2266E-03  0.3576E+04
   -1.155015   10.91495  0.0000E+00  0.4901E-05  0.2075E-07  0.4183E-03  0.1906E-03  0.2838E+04
   -1.190014   10.91559  0.0000E+00  0.4702E-05  0.2198E-07  0.3812E-03  0.1577E-03  0.5179E+04
   -1.225014   10.91636  0.0000E+00  0.4483E-05  0.2485E-07  0.3538E-03  0.1247E-03  0.9199E+04
   -1.260013   10.91720  0.0000E+00  0.4197E-05  0.3255E-07  0.2875E-03  0.9674E-04  0.1267E+05
   -1.295012   10.91858  0.0000E+00  0.3751E-05  0.5106E-07  0.2614E-03  0.7013E-04  0.4345E+05
   -1.330011   10.91933  0.0000E+00  0.3100E-05  0.1041E-06  0.1270E-03  0.5961E-04  0.1580E+07
   -1.365009   10.92534  0.0000E+00  0.1993E-05  0.2409E-06  0.4935E-04  0.3944E-04 -0.8903E+09
   -1.400007   10.93247  0.0000E+00  0.0000E+00  0.0000E+00  0.0000E+00  0.5813E-04  0.0000E+00
