 1 - depth, m
 2 - temperature, C
 3 - salinity, kg/kg
 4 - turbulent kinetic energy, m**2/s**2
 5 - dissipation rate, m**2/s**3
 6 - kinematic heat conductance, m**2/s
 7 - modulus of horizontal velocity, m/s
 8 - Richardson number, n/d
   -0.000000   12.64307  0.0000E+00  0.3610E-04  0.8453E-05  0.2592E-04  0.3734E-01 -0.1241E-01
   -0.034998   12.66677  0.0000E+00  0.2284E-04  0.2437E-05  0.4276E-04  0.1652E-01 -0.3349E-01
   -0.069996   12.67448  0.0000E+00  0.1794E-04  0.1154E-05  0.5613E-04  0.1197E-01 -0.6112E-01
   -0.104995   12.67982  0.0000E+00  0.1499E-04  0.6509E-06  0.6964E-04  0.9429E-02 -0.9479E-01
   -0.139993   12.68387  0.0000E+00  0.1290E-04  0.3997E-06  0.9021E-04  0.7611E-02  0.2392E+02
   -0.174993   12.68704  0.0000E+00  0.1134E-04  0.2613E-06  0.1173E-03  0.6228E-02  0.1334E+02
   -0.209992   12.68957  0.0000E+00  0.1015E-04  0.1801E-06  0.1465E-03  0.5135E-02  0.1985E+02
   -0.244992   12.69165  0.0000E+00  0.9213E-05  0.1301E-06  0.1783E-03  0.4235E-02  0.1064E+03
   -0.279991   12.69339  0.0000E+00  0.8421E-05  0.9736E-07  0.2093E-03  0.3468E-02  0.3334E+02
   -0.314991   12.69488  0.0000E+00  0.7703E-05  0.7440E-07  0.2459E-03  0.2788E-02  0.2083E+02
   -0.349992   12.69613  0.0000E+00  0.7091E-05  0.5819E-07  0.2816E-03  0.2253E-02  0.1773E+02
   -0.384992   12.69719  0.0000E+00  0.6585E-05  0.4662E-07  0.3181E-03  0.1824E-02  0.2839E+03
   -0.419993   12.69810  0.0000E+00  0.6174E-05  0.3830E-07  0.3426E-03  0.1476E-02  0.6015E+01
   -0.454993   12.69890  0.0000E+00  0.5835E-05  0.3220E-07  0.3635E-03  0.1172E-02  0.4482E+01
   -0.489994   12.69963  0.0000E+00  0.5552E-05  0.2767E-07  0.3833E-03  0.9024E-03  0.1143E+02
   -0.524995   12.70030  0.0000E+00  0.5295E-05  0.2402E-07  0.4186E-03  0.6685E-03  0.7165E+01
   -0.559996   12.70089  0.0000E+00  0.5058E-05  0.2094E-07  0.4509E-03  0.5016E-03  0.4541E+01
   -0.594997   12.70144  0.0000E+00  0.4829E-05  0.1814E-07  0.4702E-03  0.3977E-03  0.1832E+01
   -0.629998   12.70197  0.0000E+00  0.4656E-05  0.1612E-07  0.4801E-03  0.3437E-03  0.1034E+01
   -0.665000   12.70248  0.0000E+00  0.4520E-05  0.1458E-07  0.4892E-03  0.3015E-03  0.9425E+00
   -0.700001   12.70297  0.0000E+00  0.4405E-05  0.1335E-07  0.4994E-03  0.2636E-03  0.1024E+01
   -0.735002   12.70345  0.0000E+00  0.4307E-05  0.1235E-07  0.5083E-03  0.2304E-03  0.1130E+01
   -0.770003   12.70392  0.0000E+00  0.4224E-05  0.1155E-07  0.5161E-03  0.2016E-03  0.1267E+01
   -0.805004   12.70437  0.0000E+00  0.4152E-05  0.1090E-07  0.5224E-03  0.1771E-03  0.1448E+01
   -0.840005   12.70481  0.0000E+00  0.4090E-05  0.1038E-07  0.5272E-03  0.1558E-03  0.1679E+01
   -0.875007   12.70525  0.0000E+00  0.4034E-05  0.9959E-08  0.5301E-03  0.1375E-03  0.1958E+01
   -0.910007   12.70568  0.0000E+00  0.3982E-05  0.9626E-08  0.5311E-03  0.1215E-03  0.2325E+01
   -0.945008   12.70610  0.0000E+00  0.3935E-05  0.9370E-08  0.5298E-03  0.1073E-03  0.2729E+01
   -0.980009   12.70652  0.0000E+00  0.3890E-05  0.9185E-08  0.5261E-03  0.9447E-04  0.3228E+01
   -1.015010   12.70693  0.0000E+00  0.3847E-05  0.9066E-08  0.5194E-03  0.8283E-04  0.3877E+01
   -1.050010   12.70735  0.0000E+00  0.3803E-05  0.9014E-08  0.5092E-03  0.7236E-04  0.4959E+01
   -1.085010   12.70777  0.0000E+00  0.3756E-05  0.9036E-08  0.4949E-03  0.6302E-04  0.6479E+01
   -1.120010   12.70820  0.0000E+00  0.3707E-05  0.9149E-08  0.4760E-03  0.5463E-04  0.8796E+01
   -1.155010   12.70864  0.0000E+00  0.3656E-05  0.9378E-08  0.4528E-03  0.4684E-04  0.1158E+02
   -1.190010   12.70910  0.0000E+00  0.3600E-05  0.9779E-08  0.4212E-03  0.3951E-04  0.1549E+02
   -1.225009   12.70959  0.0000E+00  0.3533E-05  0.1049E-07  0.3893E-03  0.3255E-04  0.2081E+02
   -1.260008   12.71012  0.0000E+00  0.3438E-05  0.1196E-07  0.3100E-03  0.2642E-04 -0.8500E+01
   -1.295007   12.71080  0.0000E+00  0.3248E-05  0.1594E-07  0.3030E-03  0.2076E-04  0.7559E+02
   -1.330006   12.71149  0.0000E+00  0.2831E-05  0.2860E-07  0.1192E-03  0.1767E-04 -0.7342E+04
   -1.365004   12.71556  0.0000E+00  0.1784E-05  0.7930E-07  0.3848E-04  0.1151E-04 -0.3145E+05
   -1.400002   12.72088  0.0000E+00  0.0000E+00  0.0000E+00  0.0000E+00  0.1334E-04  0.0000E+00
