 1 - depth, m
 2 - temperature, C
 3 - salinity, kg/kg
 4 - turbulent kinetic energy, m**2/s**2
 5 - dissipation rate, m**2/s**3
 6 - kinematic heat conductance, m**2/s
 7 - modulus of horizontal velocity, m/s
 8 - Richardson number, n/d
   -0.000000    0.00000  0.0000E+00  0.5505E-12  0.1543E-15  0.1000E-09  0.0000E+00  0.1469E+17
   -0.034997    0.22734  0.0000E+00  0.8042E-12  0.1667E-15  0.1000E-09  0.0000E+00  0.1360E+17
   -0.069995    0.45163  0.0000E+00  0.1337E-11  0.2326E-15  0.1000E-09  0.0000E+00  0.1256E+17
   -0.104993    0.67316  0.0000E+00  0.2264E-11  0.3619E-15  0.1000E-09  0.0000E+00  0.1149E+17
   -0.139992    0.89047  0.0000E+00  0.3806E-11  0.5829E-15  0.1000E-09  0.0000E+00  0.1044E+17
   -0.174990    1.10276  0.0000E+00  0.6342E-11  0.9460E-15  0.1000E-09  0.0000E+00  0.9444E+16
   -0.209989    1.31010  0.0000E+00  0.1049E-10  0.1534E-14  0.1000E-09  0.0000E+00  0.8511E+16
   -0.244989    1.51251  0.0000E+00  0.1726E-10  0.2480E-14  0.1000E-09  0.0000E+00  0.7635E+16
   -0.279988    1.71001  0.0000E+00  0.2827E-10  0.3997E-14  0.1000E-09  0.0000E+00  0.6811E+16
   -0.314988    1.90260  0.0000E+00  0.4639E-10  0.6454E-14  0.1000E-09  0.0000E+00  0.6063E+16
   -0.349987    2.09102  0.0000E+00  0.7646E-10  0.1047E-13  0.1000E-09  0.0000E+00  0.5355E+16
   -0.384987    2.27522  0.0000E+00  0.1261E-09  0.1700E-13  0.1000E-09  0.0000E+00  0.4685E+16
   -0.419988    2.45499  0.0000E+00  0.2072E-09  0.2752E-13  0.1000E-09  0.0000E+00  0.4067E+16
   -0.454988    2.63073  0.0000E+00  0.3390E-09  0.4434E-13  0.1000E-09  0.0000E+00  0.3501E+16
   -0.489988    2.80328  0.0000E+00  0.5532E-09  0.7127E-13  0.1000E-09  0.0000E+00  0.2984E+16
   -0.524989    2.97377  0.0000E+00  0.9379E-09  0.1189E-12  0.1201E-09  0.0000E+00  0.2566E+16
   -0.559989    3.14819  0.0000E+00  0.1666E-08  0.2080E-12  0.2491E-09  0.0000E+00  0.2163E+16
   -0.594990    3.33091  0.0000E+00  0.3140E-08  0.3857E-12  0.5904E-09  0.0000E+00  0.1693E+16
   -0.629991    3.52225  0.0000E+00  0.5423E-08  0.6574E-12  0.1574E-08  0.0000E+00  0.1082E+16
   -0.664992    3.70695  0.0000E+00  0.8903E-08  0.1065E-11  0.5232E-08  0.0000E+00  0.5276E+15
   -0.699992    3.88193  0.0000E+00  0.1405E-07  0.1663E-11  0.5317E-07  0.0000E+00  0.8096E+14
   -0.734993    4.01025  0.0000E+00  0.1463E-07  0.1736E-11  0.4668E-04  0.0000E+00 -0.1992E+12
   -0.769994    4.01077  0.0000E+00  0.1492E-07  0.1777E-11  0.4570E-04  0.0000E+00 -0.2103E+12
   -0.804995    4.01131  0.0000E+00  0.1519E-07  0.1823E-11  0.4604E-04  0.0000E+00 -0.2157E+12
   -0.839995    4.01186  0.0000E+00  0.1546E-07  0.1874E-11  0.4632E-04  0.0000E+00 -0.2216E+12
   -0.874996    4.01241  0.0000E+00  0.1571E-07  0.1929E-11  0.4644E-04  0.0000E+00 -0.2289E+12
   -0.909997    4.01296  0.0000E+00  0.1595E-07  0.1991E-11  0.4637E-04  0.0000E+00 -0.2353E+12
   -0.944997    4.01352  0.0000E+00  0.1616E-07  0.2058E-11  0.4612E-04  0.0000E+00 -0.2423E+12
   -0.979997    4.01408  0.0000E+00  0.1636E-07  0.2133E-11  0.4565E-04  0.0000E+00 -0.2507E+12
   -1.014997    4.01465  0.0000E+00  0.1654E-07  0.2219E-11  0.4500E-04  0.0000E+00 -0.2651E+12
   -1.049997    4.01524  0.0000E+00  0.1671E-07  0.2319E-11  0.4406E-04  0.0000E+00 -0.2841E+12
   -1.084997    4.01586  0.0000E+00  0.1687E-07  0.2440E-11  0.4288E-04  0.0000E+00 -0.3068E+12
   -1.119997    4.01652  0.0000E+00  0.1700E-07  0.2585E-11  0.4130E-04  0.0000E+00 -0.3275E+12
   -1.154996    4.01720  0.0000E+00  0.1711E-07  0.2761E-11  0.3939E-04  0.0000E+00 -0.3536E+12
   -1.189995    4.01792  0.0000E+00  0.1719E-07  0.2983E-11  0.3699E-04  0.0000E+00 -0.3936E+12
   -1.224994    4.01871  0.0000E+00  0.1724E-07  0.3300E-11  0.3403E-04  0.0000E+00 -0.4841E+12
   -1.259993    4.01965  0.0000E+00  0.1724E-07  0.3834E-11  0.2978E-04  0.0000E+00 -0.6895E+12
   -1.294992    4.02094  0.0000E+00  0.1704E-07  0.5094E-11  0.2331E-04  0.0000E+00 -0.1219E+13
   -1.329990    4.02312  0.0000E+00  0.1616E-07  0.8362E-11  0.8976E-05  0.0000E+00 -0.3263E+13
   -1.364987    4.02841  0.0000E+00  0.1175E-07  0.2521E-10  0.1007E-05  0.0000E+00 -0.3433E+14
   -1.399985    4.06479  0.0000E+00  0.0000E+00  0.0000E+00  0.0000E+00  0.0000E+00  0.0000E+00
