 1 - depth, m
 2 - temperature, C
 3 - salinity, kg/kg
 4 - turbulent kinetic energy, m**2/s**2
 5 - dissipation rate, m**2/s**3
 6 - kinematic heat conductance, m**2/s
 7 - modulus of horizontal velocity, m/s
 8 - Richardson number, n/d
   -0.000000    0.00000  0.0000E+00  0.4702E-13  0.1132E-15  0.1000E-09  0.0000E+00  0.7236E+16
   -0.034998    0.11017  0.0000E+00  0.4702E-13  0.1132E-15  0.1000E-09  0.0000E+00  0.7070E+16
   -0.069996    0.22113  0.0000E+00  0.4702E-13  0.1132E-15  0.1000E-09  0.0000E+00  0.6898E+16
   -0.104994    0.33286  0.0000E+00  0.4702E-13  0.1132E-15  0.1000E-09  0.0000E+00  0.6658E+16
   -0.139993    0.44425  0.0000E+00  0.4702E-13  0.1132E-15  0.1000E-09  0.0000E+00  0.6382E+16
   -0.174992    0.55464  0.0000E+00  0.4702E-13  0.1132E-15  0.1000E-09  0.0000E+00  0.6108E+16
   -0.209992    0.66393  0.0000E+00  0.4702E-13  0.1132E-15  0.1000E-09  0.0000E+00  0.5835E+16
   -0.244991    0.77201  0.0000E+00  0.4702E-13  0.1132E-15  0.1000E-09  0.0000E+00  0.5565E+16
   -0.279991    0.87877  0.0000E+00  0.4702E-13  0.1132E-15  0.1000E-09  0.0000E+00  0.5298E+16
   -0.314991    0.98414  0.0000E+00  0.4702E-13  0.1132E-15  0.1000E-09  0.0000E+00  0.5082E+16
   -0.349991    1.08898  0.0000E+00  0.4702E-13  0.1132E-15  0.1000E-09  0.0000E+00  0.4870E+16
   -0.384991    1.19334  0.0000E+00  0.4702E-13  0.1132E-15  0.1000E-09  0.0000E+00  0.4658E+16
   -0.419992    1.29711  0.0000E+00  0.4702E-13  0.1132E-15  0.1000E-09  0.0000E+00  0.4439E+16
   -0.454993    1.40005  0.0000E+00  0.4702E-13  0.1132E-15  0.1000E-09  0.0000E+00  0.4234E+16
   -0.489993    1.50239  0.0000E+00  0.4702E-13  0.1132E-15  0.1000E-09  0.0000E+00  0.4077E+16
   -0.524994    1.60527  0.0000E+00  0.4702E-13  0.1132E-15  0.1000E-09  0.0000E+00  0.4144E+16
   -0.559995    1.71481  0.0000E+00  0.4702E-13  0.1132E-15  0.1000E-09  0.0000E+00  0.4360E+16
   -0.594996    1.83631  0.0000E+00  0.4702E-13  0.1132E-15  0.1000E-09  0.0000E+00  0.4545E+16
   -0.629997    1.97105  0.0000E+00  0.4702E-13  0.1132E-15  0.1000E-09  0.0000E+00  0.4163E+16
   -0.664998    2.10318  0.0000E+00  0.4702E-13  0.1132E-15  0.1000E-09  0.0000E+00  0.3792E+16
   -0.699999    2.23249  0.0000E+00  0.4702E-13  0.1132E-15  0.1000E-09  0.0000E+00  0.3442E+16
   -0.735001    2.35899  0.0000E+00  0.4702E-13  0.1132E-15  0.1000E-09  0.0000E+00  0.3131E+16
   -0.770002    2.48352  0.0000E+00  0.4702E-13  0.1132E-15  0.1000E-09  0.0000E+00  0.2871E+16
   -0.805003    2.60784  0.0000E+00  0.4702E-13  0.1132E-15  0.1000E-09  0.0000E+00  0.2605E+16
   -0.840004    2.73152  0.0000E+00  0.4702E-13  0.1132E-15  0.1000E-09  0.0000E+00  0.2339E+16
   -0.875005    2.85428  0.0000E+00  0.1389E-12  0.1172E-15  0.1000E-09  0.0000E+00  0.2080E+16
   -0.910006    2.97613  0.0000E+00  0.4374E-12  0.2800E-15  0.1000E-09  0.0000E+00  0.1804E+16
   -0.945006    3.09547  0.0000E+00  0.1231E-11  0.7383E-15  0.1000E-09  0.0000E+00  0.1535E+16
   -0.980007    3.21162  0.0000E+00  0.3338E-11  0.1935E-14  0.1000E-09  0.0000E+00  0.1282E+16
   -1.015008    3.32421  0.0000E+00  0.8978E-11  0.5057E-14  0.1000E-09  0.0000E+00  0.1061E+16
   -1.050008    3.43481  0.0000E+00  0.2410E-10  0.1320E-13  0.1000E-09  0.0000E+00  0.8597E+15
   -1.085008    3.54444  0.0000E+00  0.6455E-10  0.3441E-13  0.1269E-09  0.0000E+00  0.6964E+15
   -1.120008    3.65939  0.0000E+00  0.1700E-09  0.8831E-13  0.4626E-09  0.0000E+00  0.4887E+15
   -1.155008    3.77476  0.0000E+00  0.4429E-09  0.2243E-12  0.2044E-08  0.0000E+00  0.2787E+15
   -1.190007    3.89010  0.0000E+00  0.1140E-08  0.5648E-12  0.1904E-07  0.0000E+00  0.7159E+14
   -1.225007    3.99758  0.0000E+00  0.2602E-08  0.1293E-11  0.1597E-05  0.0000E+00 -0.3190E+13
   -1.260006    4.00944  0.0000E+00  0.3931E-08  0.2268E-11  0.2510E-05  0.0000E+00 -0.4773E+13
   -1.295005    4.02015  0.0000E+00  0.5436E-08  0.4055E-11  0.3007E-05  0.0000E+00 -0.8380E+13
   -1.330003    4.03338  0.0000E+00  0.6089E-08  0.6529E-11  0.1997E-05  0.0000E+00 -0.1611E+14
   -1.365001    4.05168  0.0000E+00  0.5300E-08  0.1274E-10  0.5766E-06  0.0000E+00 -0.6677E+14
   -1.399999    4.09949  0.0000E+00  0.0000E+00  0.0000E+00  0.0000E+00  0.0000E+00  0.0000E+00
