 1 - depth, m
 2 - temperature, C
 3 - salinity, kg/kg
 4 - turbulent kinetic energy, m**2/s**2
 5 - dissipation rate, m**2/s**3
 6 - kinematic heat conductance, m**2/s
 7 - modulus of horizontal velocity, m/s
 8 - Richardson number, n/d
   -0.000000    0.00000  0.0000E+00  0.4702E-13  0.1132E-15  0.1000E-09  0.0000E+00  0.9606E+16
   -0.034998    0.14699  0.0000E+00  0.4702E-13  0.1132E-15  0.1000E-09  0.0000E+00  0.9442E+16
   -0.069996    0.29757  0.0000E+00  0.4702E-13  0.1132E-15  0.1000E-09  0.0000E+00  0.9264E+16
   -0.104995    0.45195  0.0000E+00  0.4702E-13  0.1132E-15  0.1000E-09  0.0000E+00  0.8936E+16
   -0.139994    0.60795  0.0000E+00  0.4702E-13  0.1132E-15  0.1000E-09  0.0000E+00  0.8520E+16
   -0.174993    0.76414  0.0000E+00  0.4702E-13  0.1132E-15  0.1000E-09  0.0000E+00  0.8093E+16
   -0.209992    0.92027  0.0000E+00  0.1177E-12  0.1132E-15  0.1000E-09  0.0000E+00  0.7655E+16
   -0.244992    1.07608  0.0000E+00  0.3773E-12  0.1156E-15  0.1000E-09  0.0000E+00  0.7211E+16
   -0.279992    1.23130  0.0000E+00  0.8330E-12  0.1692E-15  0.1000E-09  0.0000E+00  0.6764E+16
   -0.314992    1.38574  0.0000E+00  0.1588E-11  0.2783E-15  0.1000E-09  0.0000E+00  0.6315E+16
   -0.349992    1.53909  0.0000E+00  0.2856E-11  0.4702E-15  0.1000E-09  0.0000E+00  0.5867E+16
   -0.384993    1.69112  0.0000E+00  0.4996E-11  0.7954E-15  0.1000E-09  0.0000E+00  0.5422E+16
   -0.419993    1.84157  0.0000E+00  0.8591E-11  0.1337E-14  0.1000E-09  0.0000E+00  0.5016E+16
   -0.454994    1.99119  0.0000E+00  0.1462E-10  0.2231E-14  0.1000E-09  0.0000E+00  0.4644E+16
   -0.489995    2.14089  0.0000E+00  0.2473E-10  0.3707E-14  0.1000E-09  0.0000E+00  0.4296E+16
   -0.524996    2.29151  0.0000E+00  0.4347E-10  0.6399E-14  0.1000E-09  0.0000E+00  0.4052E+16
   -0.559997    2.44740  0.0000E+00  0.8001E-10  0.1157E-13  0.1000E-09  0.0000E+00  0.3854E+16
   -0.594998    2.61245  0.0000E+00  0.1561E-09  0.2216E-13  0.1000E-09  0.0000E+00  0.3603E+16
   -0.630000    2.78763  0.0000E+00  0.2776E-09  0.3882E-13  0.1000E-09  0.0000E+00  0.3082E+16
   -0.665001    2.96152  0.0000E+00  0.4697E-09  0.6471E-13  0.1000E-09  0.0000E+00  0.2575E+16
   -0.700002    3.13407  0.0000E+00  0.7796E-09  0.1057E-12  0.1316E-09  0.0000E+00  0.2082E+16
   -0.735003    3.30533  0.0000E+00  0.1286E-08  0.1717E-12  0.2761E-09  0.0000E+00  0.1611E+16
   -0.770005    3.47647  0.0000E+00  0.2115E-08  0.2779E-12  0.6217E-09  0.0000E+00  0.1159E+16
   -0.805006    3.65012  0.0000E+00  0.3469E-08  0.4486E-12  0.1699E-08  0.0000E+00  0.6846E+15
   -0.840007    3.82516  0.0000E+00  0.5649E-08  0.7192E-12  0.9220E-08  0.0000E+00  0.2033E+15
   -0.875008    3.99389  0.0000E+00  0.6387E-08  0.8170E-12  0.1572E-04  0.0000E+00 -0.2109E+12
   -0.910009    3.99556  0.0000E+00  0.6778E-08  0.8779E-12  0.1808E-04  0.0000E+00 -0.2198E+12
   -0.945010    3.99700  0.0000E+00  0.7136E-08  0.9427E-12  0.1986E-04  0.0000E+00 -0.2283E+12
   -0.980011    3.99831  0.0000E+00  0.7462E-08  0.1012E-11  0.2105E-04  0.0000E+00 -0.2393E+12
   -1.015011    3.99954  0.0000E+00  0.7760E-08  0.1086E-11  0.2187E-04  0.0000E+00 -0.2556E+12
   -1.050012    4.00073  0.0000E+00  0.8036E-08  0.1168E-11  0.2218E-04  0.0000E+00 -0.2795E+12
   -1.085012    4.00192  0.0000E+00  0.8294E-08  0.1263E-11  0.2203E-04  0.0000E+00 -0.3126E+12
   -1.120012    4.00315  0.0000E+00  0.8536E-08  0.1374E-11  0.2146E-04  0.0000E+00 -0.3472E+12
   -1.155012    4.00443  0.0000E+00  0.8767E-08  0.1513E-11  0.2039E-04  0.0000E+00 -0.3958E+12
   -1.190012    4.00578  0.0000E+00  0.8986E-08  0.1697E-11  0.1873E-04  0.0000E+00 -0.4747E+12
   -1.225011    4.00728  0.0000E+00  0.9201E-08  0.1968E-11  0.1701E-04  0.0000E+00 -0.6254E+12
   -1.260011    4.00911  0.0000E+00  0.9394E-08  0.2413E-11  0.1501E-04  0.0000E+00 -0.9429E+12
   -1.295009    4.01162  0.0000E+00  0.9488E-08  0.3465E-11  0.1067E-04  0.0000E+00 -0.1977E+13
   -1.330008    4.01619  0.0000E+00  0.8999E-08  0.5881E-11  0.4302E-05  0.0000E+00 -0.5604E+13
   -1.365006    4.02641  0.0000E+00  0.6775E-08  0.1450E-10  0.6932E-06  0.0000E+00 -0.4430E+14
   -1.400004    4.07156  0.0000E+00  0.0000E+00  0.0000E+00  0.0000E+00  0.0000E+00  0.0000E+00
