 1 - depth, m
 2 - temperature, C
 3 - salinity, kg/kg
 4 - turbulent kinetic energy, m**2/s**2
 5 - dissipation rate, m**2/s**3
 6 - kinematic heat conductance, m**2/s
 7 - modulus of horizontal velocity, m/s
 8 - Richardson number, n/d
   -0.000000    0.00000  0.0000E+00  0.4702E-13  0.1132E-15  0.1000E-09  0.0000E+00  0.7918E+16
   -0.034998    0.12073  0.0000E+00  0.4702E-13  0.1132E-15  0.1000E-09  0.0000E+00  0.7717E+16
   -0.069996    0.24240  0.0000E+00  0.4702E-13  0.1132E-15  0.1000E-09  0.0000E+00  0.7512E+16
   -0.104994    0.36501  0.0000E+00  0.4702E-13  0.1132E-15  0.1000E-09  0.0000E+00  0.7228E+16
   -0.139993    0.48731  0.0000E+00  0.4702E-13  0.1132E-15  0.1000E-09  0.0000E+00  0.6904E+16
   -0.174992    0.60852  0.0000E+00  0.4702E-13  0.1132E-15  0.1000E-09  0.0000E+00  0.6583E+16
   -0.209991    0.72852  0.0000E+00  0.4702E-13  0.1132E-15  0.1000E-09  0.0000E+00  0.6262E+16
   -0.244991    0.84718  0.0000E+00  0.4702E-13  0.1132E-15  0.1000E-09  0.0000E+00  0.5945E+16
   -0.279991    0.96437  0.0000E+00  0.4702E-13  0.1132E-15  0.1000E-09  0.0000E+00  0.5632E+16
   -0.314991    1.07997  0.0000E+00  0.4702E-13  0.1132E-15  0.1000E-09  0.0000E+00  0.5363E+16
   -0.349991    1.19473  0.0000E+00  0.4702E-13  0.1132E-15  0.1000E-09  0.0000E+00  0.5099E+16
   -0.384991    1.30862  0.0000E+00  0.4702E-13  0.1132E-15  0.1000E-09  0.0000E+00  0.4835E+16
   -0.419992    1.42149  0.0000E+00  0.4702E-13  0.1132E-15  0.1000E-09  0.0000E+00  0.4570E+16
   -0.454992    1.53316  0.0000E+00  0.4702E-13  0.1132E-15  0.1000E-09  0.0000E+00  0.4323E+16
   -0.489993    1.64387  0.0000E+00  0.4702E-13  0.1132E-15  0.1000E-09  0.0000E+00  0.4119E+16
   -0.524994    1.75469  0.0000E+00  0.4702E-13  0.1132E-15  0.1000E-09  0.0000E+00  0.4112E+16
   -0.559995    1.87134  0.0000E+00  0.4702E-13  0.1132E-15  0.1000E-09  0.0000E+00  0.4226E+16
   -0.594996    1.99857  0.0000E+00  0.4702E-13  0.1132E-15  0.1000E-09  0.0000E+00  0.4301E+16
   -0.629997    2.13736  0.0000E+00  0.4702E-13  0.1132E-15  0.1000E-09  0.0000E+00  0.3892E+16
   -0.664998    2.27295  0.0000E+00  0.4702E-13  0.1132E-15  0.1000E-09  0.0000E+00  0.3501E+16
   -0.699999    2.40508  0.0000E+00  0.4702E-13  0.1132E-15  0.1000E-09  0.0000E+00  0.3132E+16
   -0.735000    2.53372  0.0000E+00  0.4702E-13  0.1132E-15  0.1000E-09  0.0000E+00  0.2805E+16
   -0.770001    2.65977  0.0000E+00  0.5169E-13  0.1132E-15  0.1000E-09  0.0000E+00  0.2534E+16
   -0.805002    2.78524  0.0000E+00  0.2468E-12  0.1540E-15  0.1000E-09  0.0000E+00  0.2261E+16
   -0.840003    2.90968  0.0000E+00  0.7173E-12  0.3536E-15  0.1000E-09  0.0000E+00  0.1989E+16
   -0.875004    3.03278  0.0000E+00  0.1827E-11  0.8464E-15  0.1000E-09  0.0000E+00  0.1726E+16
   -0.910005    3.15449  0.0000E+00  0.4464E-11  0.2002E-14  0.1000E-09  0.0000E+00  0.1454E+16
   -0.945006    3.27321  0.0000E+00  0.1068E-10  0.4662E-14  0.1000E-09  0.0000E+00  0.1193E+16
   -0.980007    3.38821  0.0000E+00  0.2531E-10  0.1077E-13  0.1000E-09  0.0000E+00  0.9504E+15
   -1.015007    3.49905  0.0000E+00  0.5991E-10  0.2485E-13  0.1000E-09  0.0000E+00  0.7382E+15
   -1.050007    3.60708  0.0000E+00  0.1421E-09  0.5749E-13  0.2716E-09  0.0000E+00  0.5448E+15
   -1.085008    3.71315  0.0000E+00  0.3369E-09  0.1331E-12  0.9012E-09  0.0000E+00  0.3792E+15
   -1.120008    3.82391  0.0000E+00  0.7870E-09  0.3039E-12  0.4197E-08  0.0000E+00  0.1844E+15
   -1.155007    3.93270  0.0000E+00  0.1769E-08  0.6713E-12  0.7725E-07  0.0000E+00  0.1958E+14
   -1.190007    4.00590  0.0000E+00  0.3183E-08  0.1229E-11  0.2755E-05  0.0000E+00 -0.2041E+13
   -1.225006    4.01170  0.0000E+00  0.4201E-08  0.1799E-11  0.3387E-05  0.0000E+00 -0.2551E+13
   -1.260005    4.01746  0.0000E+00  0.5277E-08  0.2683E-11  0.3942E-05  0.0000E+00 -0.3761E+13
   -1.295004    4.02440  0.0000E+00  0.6480E-08  0.4381E-11  0.3984E-05  0.0000E+00 -0.6908E+13
   -1.330002    4.03461  0.0000E+00  0.6876E-08  0.6947E-11  0.2349E-05  0.0000E+00 -0.1417E+14
   -1.365000    4.05067  0.0000E+00  0.5805E-08  0.1390E-10  0.6192E-06  0.0000E+00 -0.6487E+14
   -1.399998    4.09783  0.0000E+00  0.0000E+00  0.0000E+00  0.0000E+00  0.0000E+00  0.0000E+00
