 1 - depth, m
 2 - temperature, C
 3 - salinity, kg/kg
 4 - turbulent kinetic energy, m**2/s**2
 5 - dissipation rate, m**2/s**3
 6 - kinematic heat conductance, m**2/s
 7 - modulus of horizontal velocity, m/s
 8 - Richardson number, n/d
   -0.000000    0.00000  0.0000E+00  0.4702E-13  0.1132E-15  0.1000E-09  0.0000E+00  0.1100E+17
   -0.034998    0.16886  0.0000E+00  0.4702E-13  0.1132E-15  0.1000E-09  0.0000E+00  0.1059E+17
   -0.069996    0.33922  0.0000E+00  0.4702E-13  0.1132E-15  0.1000E-09  0.0000E+00  0.1016E+17
   -0.104994    0.51107  0.0000E+00  0.4702E-13  0.1132E-15  0.1000E-09  0.0000E+00  0.9604E+16
   -0.139993    0.68224  0.0000E+00  0.4702E-13  0.1132E-15  0.1000E-09  0.0000E+00  0.8990E+16
   -0.174992    0.85140  0.0000E+00  0.8607E-13  0.1132E-15  0.1000E-09  0.0000E+00  0.8391E+16
   -0.209991    1.01846  0.0000E+00  0.3129E-12  0.1132E-15  0.1000E-09  0.0000E+00  0.7808E+16
   -0.244991    1.18331  0.0000E+00  0.7302E-12  0.1490E-15  0.1000E-09  0.0000E+00  0.7242E+16
   -0.279990    1.34585  0.0000E+00  0.1401E-11  0.2327E-15  0.1000E-09  0.0000E+00  0.6694E+16
   -0.314990    1.50599  0.0000E+00  0.2484E-11  0.3796E-15  0.1000E-09  0.0000E+00  0.6172E+16
   -0.349990    1.66382  0.0000E+00  0.4266E-11  0.6259E-15  0.1000E-09  0.0000E+00  0.5663E+16
   -0.384991    1.81916  0.0000E+00  0.7212E-11  0.1031E-14  0.1000E-09  0.0000E+00  0.5169E+16
   -0.419991    1.97175  0.0000E+00  0.1205E-10  0.1690E-14  0.1000E-09  0.0000E+00  0.4724E+16
   -0.454992    2.12249  0.0000E+00  0.1997E-10  0.2754E-14  0.1000E-09  0.0000E+00  0.4326E+16
   -0.489992    2.27252  0.0000E+00  0.3296E-10  0.4472E-14  0.1000E-09  0.0000E+00  0.3966E+16
   -0.524993    2.42306  0.0000E+00  0.5651E-10  0.7539E-14  0.1000E-09  0.0000E+00  0.3745E+16
   -0.559994    2.58032  0.0000E+00  0.1015E-09  0.1332E-13  0.1000E-09  0.0000E+00  0.3580E+16
   -0.594995    2.74969  0.0000E+00  0.1933E-09  0.2495E-13  0.1000E-09  0.0000E+00  0.3341E+16
   -0.629996    2.93258  0.0000E+00  0.3371E-09  0.4289E-13  0.1000E-09  0.0000E+00  0.2766E+16
   -0.664997    3.11306  0.0000E+00  0.5595E-09  0.7022E-13  0.1000E-09  0.0000E+00  0.2214E+16
   -0.699998    3.29100  0.0000E+00  0.9109E-09  0.1127E-12  0.1733E-09  0.0000E+00  0.1686E+16
   -0.734999    3.46638  0.0000E+00  0.1474E-08  0.1798E-12  0.3923E-09  0.0000E+00  0.1188E+16
   -0.770000    3.64029  0.0000E+00  0.2379E-08  0.2860E-12  0.1043E-08  0.0000E+00  0.7105E+15
   -0.805002    3.81484  0.0000E+00  0.3825E-08  0.4533E-12  0.5095E-08  0.0000E+00  0.2307E+15
   -0.840002    3.98572  0.0000E+00  0.4595E-08  0.5472E-12  0.6432E-05  0.0000E+00 -0.7639E+11
   -0.875003    3.98973  0.0000E+00  0.5064E-08  0.6158E-12  0.1075E-04  0.0000E+00 -0.1688E+12
   -0.910004    3.99208  0.0000E+00  0.5495E-08  0.6874E-12  0.1331E-04  0.0000E+00 -0.2016E+12
   -0.945005    3.99400  0.0000E+00  0.5903E-08  0.7641E-12  0.1508E-04  0.0000E+00 -0.2270E+12
   -0.980006    3.99569  0.0000E+00  0.6292E-08  0.8470E-12  0.1643E-04  0.0000E+00 -0.2498E+12
   -1.015006    3.99726  0.0000E+00  0.6661E-08  0.9379E-12  0.1784E-04  0.0000E+00 -0.2710E+12
   -1.050006    3.99874  0.0000E+00  0.7013E-08  0.1040E-11  0.1904E-04  0.0000E+00 -0.2940E+12
   -1.085006    4.00017  0.0000E+00  0.7347E-08  0.1155E-11  0.1919E-04  0.0000E+00 -0.3327E+12
   -1.120006    4.00162  0.0000E+00  0.7665E-08  0.1291E-11  0.1862E-04  0.0000E+00 -0.3799E+12
   -1.155006    4.00313  0.0000E+00  0.7972E-08  0.1459E-11  0.1715E-04  0.0000E+00 -0.4559E+12
   -1.190006    4.00478  0.0000E+00  0.8263E-08  0.1675E-11  0.1539E-04  0.0000E+00 -0.5704E+12
   -1.225005    4.00666  0.0000E+00  0.8552E-08  0.1986E-11  0.1395E-04  0.0000E+00 -0.7679E+12
   -1.260004    4.00894  0.0000E+00  0.8832E-08  0.2496E-11  0.1241E-04  0.0000E+00 -0.1173E+13
   -1.295002    4.01204  0.0000E+00  0.9035E-08  0.3671E-11  0.9021E-05  0.0000E+00 -0.2462E+13
   -1.330001    4.01755  0.0000E+00  0.8663E-08  0.6211E-11  0.3859E-05  0.0000E+00 -0.6812E+13
   -1.364999    4.02928  0.0000E+00  0.6687E-08  0.1475E-10  0.6937E-06  0.0000E+00 -0.4946E+14
   -1.399997    4.07668  0.0000E+00  0.0000E+00  0.0000E+00  0.0000E+00  0.0000E+00  0.0000E+00
