 1 - depth, m
 2 - temperature, C
 3 - salinity, kg/kg
 4 - turbulent kinetic energy, m**2/s**2
 5 - dissipation rate, m**2/s**3
 6 - kinematic heat conductance, m**2/s
 7 - modulus of horizontal velocity, m/s
 8 - Richardson number, n/d
   -0.000000   14.10261  0.0000E+00  0.3764E-04  0.7940E-05  0.2687E-04  0.3936E-01 -0.1393E-01
   -0.034998   14.13109  0.0000E+00  0.2406E-04  0.2409E-05  0.4393E-04  0.1684E-01 -0.4703E-01
   -0.069996   14.13740  0.0000E+00  0.1889E-04  0.1160E-05  0.5506E-04  0.1233E-01 -0.4647E-01
   -0.104994   14.14169  0.0000E+00  0.1566E-04  0.6479E-06  0.6627E-04  0.9728E-02 -0.7588E-01
   -0.139993   14.14504  0.0000E+00  0.1337E-04  0.3959E-06  0.7901E-04  0.7854E-02 -0.1035E+00
   -0.174992   14.14782  0.0000E+00  0.1167E-04  0.2596E-06  0.1010E-03  0.6410E-02  0.4655E+02
   -0.209991   14.15015  0.0000E+00  0.1039E-04  0.1805E-06  0.1228E-03  0.5264E-02  0.3023E+02
   -0.244991   14.15218  0.0000E+00  0.9369E-05  0.1315E-06  0.1430E-03  0.4322E-02  0.8070E+01
   -0.279990   14.15398  0.0000E+00  0.8512E-05  0.9917E-07  0.1665E-03  0.3521E-02  0.1208E+02
   -0.314990   14.15560  0.0000E+00  0.7744E-05  0.7630E-07  0.1940E-03  0.2823E-02  0.3927E+02
   -0.349990   14.15699  0.0000E+00  0.7099E-05  0.6011E-07  0.2414E-03  0.2277E-02  0.9765E+02
   -0.384991   14.15810  0.0000E+00  0.6581E-05  0.4866E-07  0.3219E-03  0.1852E-02  0.1776E+02
   -0.419991   14.15891  0.0000E+00  0.6159E-05  0.4035E-07  0.3372E-03  0.1519E-02  0.2092E+03
   -0.454992   14.15962  0.0000E+00  0.5797E-05  0.3408E-07  0.3527E-03  0.1213E-02  0.8140E+01
   -0.489992   14.16027  0.0000E+00  0.5485E-05  0.2933E-07  0.3611E-03  0.9388E-03  0.2180E+02
   -0.524993   14.16089  0.0000E+00  0.5188E-05  0.2539E-07  0.3815E-03  0.6955E-03  0.1475E+01
   -0.559994   14.16144  0.0000E+00  0.4906E-05  0.2200E-07  0.4013E-03  0.5204E-03  0.7167E+00
   -0.594995   14.16190  0.0000E+00  0.4636E-05  0.1892E-07  0.4189E-03  0.4125E-03  0.6347E+00
   -0.629996   14.16228  0.0000E+00  0.4434E-05  0.1669E-07  0.4286E-03  0.3562E-03  0.9987E+00
   -0.664997   14.16265  0.0000E+00  0.4277E-05  0.1499E-07  0.4360E-03  0.3118E-03  0.1157E+01
   -0.699998   14.16302  0.0000E+00  0.4148E-05  0.1363E-07  0.4443E-03  0.2716E-03  0.1351E+01
   -0.734999   14.16339  0.0000E+00  0.4041E-05  0.1252E-07  0.4526E-03  0.2363E-03  0.1580E+01
   -0.770000   14.16375  0.0000E+00  0.3952E-05  0.1164E-07  0.4604E-03  0.2057E-03  0.1888E+01
   -0.805001   14.16411  0.0000E+00  0.3879E-05  0.1094E-07  0.4672E-03  0.1797E-03  0.2280E+01
   -0.840002   14.16447  0.0000E+00  0.3818E-05  0.1038E-07  0.4726E-03  0.1573E-03  0.2813E+01
   -0.875003   14.16483  0.0000E+00  0.3767E-05  0.9950E-08  0.4764E-03  0.1381E-03  0.3464E+01
   -0.910004   14.16520  0.0000E+00  0.3723E-05  0.9619E-08  0.4783E-03  0.1217E-03  0.4392E+01
   -0.945005   14.16556  0.0000E+00  0.3686E-05  0.9378E-08  0.4782E-03  0.1072E-03  0.5470E+01
   -0.980005   14.16594  0.0000E+00  0.3652E-05  0.9216E-08  0.4758E-03  0.9419E-04  0.6910E+01
   -1.015006   14.16633  0.0000E+00  0.3620E-05  0.9128E-08  0.4709E-03  0.8248E-04  0.8760E+01
   -1.050006   14.16674  0.0000E+00  0.3589E-05  0.9116E-08  0.4625E-03  0.7197E-04  0.1194E+02
   -1.085006   14.16715  0.0000E+00  0.3555E-05  0.9190E-08  0.4508E-03  0.6262E-04  0.1650E+02
   -1.120006   14.16759  0.0000E+00  0.3519E-05  0.9373E-08  0.4336E-03  0.5421E-04  0.2401E+02
   -1.155006   14.16806  0.0000E+00  0.3478E-05  0.9702E-08  0.4139E-03  0.4638E-04  0.3353E+02
   -1.190005   14.16856  0.0000E+00  0.3431E-05  0.1028E-07  0.3846E-03  0.3903E-04  0.4554E+02
   -1.225005   14.16914  0.0000E+00  0.3370E-05  0.1130E-07  0.3563E-03  0.3185E-04  0.2302E+03
   -1.260003   14.16977  0.0000E+00  0.3274E-05  0.1351E-07  0.2897E-03  0.2561E-04 -0.3451E+04
   -1.295002   14.17073  0.0000E+00  0.3075E-05  0.1938E-07  0.2644E-03  0.1963E-04  0.4881E+04
   -1.330001   14.17154  0.0000E+00  0.2694E-05  0.3636E-07  0.1183E-03  0.1645E-04  0.3845E+07
   -1.364999   14.17624  0.0000E+00  0.1753E-05  0.9651E-07  0.3672E-04  0.1073E-04 -0.8569E+07
   -1.399996   14.18507  0.0000E+00  0.0000E+00  0.0000E+00  0.0000E+00  0.1294E-04  0.0000E+00
