 1 - depth, m
 2 - temperature, C
 3 - salinity, kg/kg
 4 - turbulent kinetic energy, m**2/s**2
 5 - dissipation rate, m**2/s**3
 6 - kinematic heat conductance, m**2/s
 7 - modulus of horizontal velocity, m/s
 8 - Richardson number, n/d
   -0.000000   11.63431  0.0000E+00  0.8924E-04  0.5807E-04  0.3857E-04  0.7518E-01  0.3712E-02
   -0.034998   11.68657  0.0000E+00  0.5311E-04  0.1471E-04  0.5909E-04  0.2901E-01 -0.1613E-01
   -0.069996   11.69927  0.0000E+00  0.3972E-04  0.6337E-05  0.7826E-04  0.2045E-01 -0.3412E-01
   -0.104994   11.70822  0.0000E+00  0.3251E-04  0.3504E-05  0.9130E-04  0.1627E-01 -0.4962E-01
   -0.139993   11.71469  0.0000E+00  0.2752E-04  0.2019E-05  0.1046E-03  0.1337E-01 -0.5363E-01
   -0.174992   11.71986  0.0000E+00  0.2393E-04  0.1240E-05  0.1183E-03  0.1114E-01 -0.7112E-01
   -0.209991   11.72427  0.0000E+00  0.2123E-04  0.7975E-06  0.1324E-03  0.9318E-02 -0.8738E-01
   -0.244991   11.72813  0.0000E+00  0.1910E-04  0.5329E-06  0.1530E-03  0.7792E-02  0.1470E-01
   -0.279990   11.73147  0.0000E+00  0.1732E-04  0.3700E-06  0.2244E-03  0.6481E-02  0.4196E+02
   -0.314990   11.73418  0.0000E+00  0.1573E-04  0.2659E-06  0.2589E-03  0.5323E-02  0.1412E+02
   -0.349990   11.73646  0.0000E+00  0.1436E-04  0.1983E-06  0.2974E-03  0.4401E-02  0.2348E+02
   -0.384991   11.73842  0.0000E+00  0.1321E-04  0.1534E-06  0.3263E-03  0.3651E-02  0.3912E+02
   -0.419991   11.74017  0.0000E+00  0.1225E-04  0.1227E-06  0.3472E-03  0.3021E-02  0.3813E+02
   -0.454992   11.74178  0.0000E+00  0.1145E-04  0.1011E-06  0.3647E-03  0.2459E-02  0.1811E+02
   -0.489993   11.74328  0.0000E+00  0.1074E-04  0.8546E-07  0.3803E-03  0.1948E-02  0.1578E+02
   -0.524993   11.74468  0.0000E+00  0.1007E-04  0.7280E-07  0.4132E-03  0.1493E-02  0.6849E+01
   -0.559994   11.74591  0.0000E+00  0.9403E-05  0.6192E-07  0.4692E-03  0.1156E-02  0.1245E+03
   -0.594995   11.74693  0.0000E+00  0.8722E-05  0.5166E-07  0.5248E-03  0.9340E-03  0.8920E+02
   -0.629996   11.74777  0.0000E+00  0.8177E-05  0.4389E-07  0.5437E-03  0.8109E-03  0.4450E+02
   -0.664997   11.74856  0.0000E+00  0.7725E-05  0.3782E-07  0.5555E-03  0.7092E-03  0.7968E+02
   -0.699998   11.74933  0.0000E+00  0.7389E-05  0.3346E-07  0.5706E-03  0.6106E-03  0.3154E+02
   -0.735000   11.75007  0.0000E+00  0.7133E-05  0.3026E-07  0.6034E-03  0.5447E-03  0.1501E+03
   -0.770001   11.75078  0.0000E+00  0.6899E-05  0.2756E-07  0.5812E-03  0.4884E-03  0.3368E+01
   -0.805002   11.75149  0.0000E+00  0.6665E-05  0.2509E-07  0.5894E-03  0.4251E-03  0.1925E+03
   -0.840003   11.75221  0.0000E+00  0.6461E-05  0.2309E-07  0.5944E-03  0.3685E-03  0.5997E+01
   -0.875004   11.75292  0.0000E+00  0.6284E-05  0.2152E-07  0.5965E-03  0.3204E-03  0.2451E+03
   -0.910004   11.75363  0.0000E+00  0.6130E-05  0.2031E-07  0.5961E-03  0.2793E-03  0.4656E+01
   -0.945005   11.75434  0.0000E+00  0.5995E-05  0.1939E-07  0.5926E-03  0.2437E-03  0.5603E+01
   -0.980006   11.75506  0.0000E+00  0.5874E-05  0.1874E-07  0.5858E-03  0.2120E-03  0.7153E+01
   -1.015006   11.75579  0.0000E+00  0.5763E-05  0.1833E-07  0.5751E-03  0.1839E-03  0.9306E+01
   -1.050006   11.75655  0.0000E+00  0.5658E-05  0.1814E-07  0.5600E-03  0.1596E-03  0.1298E+02
   -1.085007   11.75732  0.0000E+00  0.5555E-05  0.1820E-07  0.5412E-03  0.1388E-03  0.1852E+02
   -1.120007   11.75814  0.0000E+00  0.5452E-05  0.1856E-07  0.5143E-03  0.1207E-03  0.2756E+02
   -1.155006   11.75900  0.0000E+00  0.5343E-05  0.1932E-07  0.4899E-03  0.1041E-03  0.3936E+02
   -1.190006   11.75993  0.0000E+00  0.5220E-05  0.2085E-07  0.4440E-03  0.8846E-04  0.4170E+02
   -1.225005   11.76106  0.0000E+00  0.5065E-05  0.2371E-07  0.4179E-03  0.7272E-04  0.7820E+02
   -1.260004   11.76227  0.0000E+00  0.4837E-05  0.3063E-07  0.3250E-03  0.5847E-04 -0.8333E+03
   -1.295003   11.76465  0.0000E+00  0.4415E-05  0.4769E-07  0.3125E-03  0.4397E-04 -0.2424E+04
   -1.330001   11.76556  0.0000E+00  0.3704E-05  0.9726E-07  0.1343E-03  0.3729E-04 -0.2966E+05
   -1.364999   11.77664  0.0000E+00  0.2413E-05  0.2404E-06  0.5881E-04  0.2413E-04 -0.1218E+08
   -1.399997   11.78570  0.0000E+00  0.0000E+00  0.0000E+00  0.0000E+00  0.3237E-04  0.0000E+00
