 1 - depth, m
 2 - temperature, C
 3 - salinity, kg/kg
 4 - turbulent kinetic energy, m**2/s**2
 5 - dissipation rate, m**2/s**3
 6 - kinematic heat conductance, m**2/s
 7 - modulus of horizontal velocity, m/s
 8 - Richardson number, n/d
   -0.000000   10.71958  0.0000E+00  0.3958E-03  0.8403E-03  0.7659E-04  0.2441E+00 -0.8596E-02
   -0.034998   10.77017  0.0000E+00  0.2140E-03  0.3267E-03  0.1281E-03  0.7581E-01 -0.1626E-03
   -0.069996   10.78794  0.0000E+00  0.1434E-03  0.1116E-03  0.1740E-03  0.4404E-01 -0.1923E-01
   -0.104995   10.79603  0.0000E+00  0.1129E-03  0.6329E-04  0.1804E-03  0.3358E-01 -0.2447E-01
   -0.139994   10.80021  0.0000E+00  0.9402E-04  0.3878E-04  0.1851E-03  0.2779E-01 -0.1588E-01
   -0.174993   10.80321  0.0000E+00  0.8016E-04  0.2419E-04  0.1906E-03  0.2354E-01 -0.1088E-01
   -0.209992   10.80557  0.0000E+00  0.6965E-04  0.1526E-04  0.1962E-03  0.2017E-01 -0.1438E-01
   -0.244992   10.80761  0.0000E+00  0.6147E-04  0.9638E-05  0.2017E-03  0.1737E-01 -0.2803E-01
   -0.279992   10.80953  0.0000E+00  0.5481E-04  0.6179E-05  0.2036E-03  0.1487E-01  0.2637E-02
   -0.314992   10.81173  0.0000E+00  0.4886E-04  0.4043E-05  0.2134E-03  0.1229E-01  0.4523E+00
   -0.349992   10.81352  0.0000E+00  0.4384E-04  0.2680E-05  0.2206E-03  0.1042E-01  0.5266E+01
   -0.384992   10.81515  0.0000E+00  0.3959E-04  0.1796E-05  0.2266E-03  0.8920E-02 -0.8037E+02
   -0.419993   10.81666  0.0000E+00  0.3600E-04  0.1232E-05  0.2295E-03  0.7670E-02  0.6775E+01
   -0.454994   10.81821  0.0000E+00  0.3292E-04  0.8793E-06  0.2314E-03  0.6486E-02  0.7680E+01
   -0.489995   10.81984  0.0000E+00  0.3021E-04  0.6611E-06  0.2348E-03  0.5360E-02  0.2127E+03
   -0.524995   10.82163  0.0000E+00  0.2765E-04  0.5168E-06  0.2452E-03  0.4360E-02 -0.2416E+02
   -0.559997   10.82308  0.0000E+00  0.2516E-04  0.4130E-06  0.2547E-03  0.3642E-02  0.7054E+03
   -0.594998   10.82418  0.0000E+00  0.2249E-04  0.3233E-06  0.2619E-03  0.3161E-02  0.1121E+05
   -0.629999   10.82464  0.0000E+00  0.2014E-04  0.2562E-06  0.2724E-03  0.2877E-02  0.6617E+05
   -0.665000   10.82561  0.0000E+00  0.1814E-04  0.2072E-06  0.2920E-03  0.2585E-02  0.2581E+06
   -0.700001   10.82657  0.0000E+00  0.1644E-04  0.1705E-06  0.3163E-03  0.2306E-02  0.3349E+04
   -0.735002   10.82746  0.0000E+00  0.1497E-04  0.1419E-06  0.3409E-03  0.2047E-02  0.1339E+06
   -0.770004   10.82830  0.0000E+00  0.1368E-04  0.1191E-06  0.3611E-03  0.1814E-02  0.1090E+05
   -0.805005   10.82907  0.0000E+00  0.1256E-04  0.1009E-06  0.3813E-03  0.1604E-02  0.1817E+04
   -0.840006   10.82980  0.0000E+00  0.1157E-04  0.8612E-07  0.4010E-03  0.1415E-02  0.1513E+04
   -0.875007   10.83048  0.0000E+00  0.1070E-04  0.7401E-07  0.4237E-03  0.1244E-02  0.1644E+04
   -0.910008   10.83112  0.0000E+00  0.9922E-05  0.6410E-07  0.4423E-03  0.1092E-02  0.2064E+04
   -0.945009   10.83172  0.0000E+00  0.9240E-05  0.5606E-07  0.4577E-03  0.9537E-03  0.2383E+04
   -0.980010   10.83230  0.0000E+00  0.8635E-05  0.4957E-07  0.4656E-03  0.8260E-03  0.2934E+04
   -1.015010   10.83286  0.0000E+00  0.8097E-05  0.4440E-07  0.4681E-03  0.7082E-03  0.3737E+04
   -1.050011   10.83340  0.0000E+00  0.7612E-05  0.4036E-07  0.4638E-03  0.6039E-03  0.5231E+04
   -1.085011   10.83394  0.0000E+00  0.7170E-05  0.3735E-07  0.4527E-03  0.5132E-03  0.7578E+04
   -1.120011   10.83450  0.0000E+00  0.6767E-05  0.3552E-07  0.4325E-03  0.4358E-03  0.1151E+05
   -1.155011   10.83509  0.0000E+00  0.6398E-05  0.3515E-07  0.4082E-03  0.3661E-03  0.1638E+05
   -1.190010   10.83573  0.0000E+00  0.6040E-05  0.3693E-07  0.3658E-03  0.3023E-03  0.2759E+05
   -1.225010   10.83650  0.0000E+00  0.5657E-05  0.4233E-07  0.3335E-03  0.2398E-03  0.3563E+05
   -1.260009   10.83738  0.0000E+00  0.5189E-05  0.5681E-07  0.2753E-03  0.1846E-03  0.6406E+05
   -1.295008   10.83879  0.0000E+00  0.4511E-05  0.9315E-07  0.2313E-03  0.1353E-03  0.1876E+06
   -1.330006   10.83959  0.0000E+00  0.3609E-05  0.1991E-06  0.1319E-03  0.1138E-03  0.4558E+07
   -1.365005   10.84475  0.0000E+00  0.2352E-05  0.4201E-06  0.5383E-04  0.7771E-04 -0.4424E+10
   -1.400002   10.85324  0.0000E+00  0.0000E+00  0.0000E+00  0.0000E+00  0.1174E-03  0.0000E+00
