 1 - depth, m
 2 - temperature, C
 3 - salinity, kg/kg
 4 - turbulent kinetic energy, m**2/s**2
 5 - dissipation rate, m**2/s**3
 6 - kinematic heat conductance, m**2/s
 7 - modulus of horizontal velocity, m/s
 8 - Richardson number, n/d
   -0.000000    0.00000  0.0000E+00  0.2083E-03  0.3028E-03  0.6501E-04  0.1731E+00  0.9858E-02
   -0.034996    0.00918  0.0000E+00  0.1320E-03  0.1265E-03  0.1059E-03  0.6074E-01  0.3854E-02
   -0.069993    0.01510  0.0000E+00  0.9846E-04  0.5072E-04  0.1371E-03  0.3793E-01  0.2375E-02
   -0.104989    0.01809  0.0000E+00  0.8134E-04  0.2973E-04  0.1464E-03  0.2977E-01  0.5058E-02
   -0.139987    0.02027  0.0000E+00  0.7003E-04  0.1805E-04  0.1583E-03  0.2487E-01  0.5216E-02
   -0.174984    0.02209  0.0000E+00  0.6180E-04  0.1122E-04  0.1686E-03  0.2123E-01  0.6987E-02
   -0.209982    0.02367  0.0000E+00  0.5541E-04  0.7077E-05  0.1778E-03  0.1834E-01  0.8231E-02
   -0.244980    0.02516  0.0000E+00  0.5021E-04  0.4554E-05  0.1845E-03  0.1588E-01  0.1207E-01
   -0.279978    0.02661  0.0000E+00  0.4563E-04  0.2991E-05  0.1871E-03  0.1365E-01  0.1841E-01
   -0.314976    0.02837  0.0000E+00  0.4128E-04  0.2007E-05  0.1969E-03  0.1138E-01  0.3482E-01
   -0.349975    0.02989  0.0000E+00  0.3751E-04  0.1393E-05  0.2004E-03  0.9687E-02  0.1069E+01
   -0.384973    0.03137  0.0000E+00  0.3418E-04  0.1000E-05  0.2031E-03  0.8304E-02 -0.7486E+02
   -0.419972    0.03273  0.0000E+00  0.3128E-04  0.7440E-06  0.2020E-03  0.7144E-02  0.3653E+03
   -0.454971    0.03445  0.0000E+00  0.2872E-04  0.5761E-06  0.1984E-03  0.6046E-02  0.6729E+04
   -0.489970    0.03703  0.0000E+00  0.2636E-04  0.4625E-06  0.1953E-03  0.4993E-02  0.1222E+06
   -0.524969    0.04025  0.0000E+00  0.2403E-04  0.3781E-06  0.2098E-03  0.4048E-02  0.9984E+08
   -0.559969    0.04153  0.0000E+00  0.2176E-04  0.3114E-06  0.2152E-03  0.3363E-02  0.1316E+07
   -0.594968    0.04244  0.0000E+00  0.1928E-04  0.2496E-06  0.2135E-03  0.2907E-02  0.1174E+09
   -0.629968    0.04314  0.0000E+00  0.1707E-04  0.2010E-06  0.2024E-03  0.2644E-02  0.1613E+10
   -0.664967    0.04404  0.0000E+00  0.1515E-04  0.1638E-06  0.1913E-03  0.2372E-02  0.8260E+09
   -0.699967    0.04504  0.0000E+00  0.1349E-04  0.1348E-06  0.1804E-03  0.2110E-02  0.4248E+09
   -0.734966    0.04615  0.0000E+00  0.1203E-04  0.1119E-06  0.1696E-03  0.1864E-02  0.2442E+10
   -0.769965    0.04737  0.0000E+00  0.1075E-04  0.9345E-07  0.1589E-03  0.1640E-02 -0.9772E+09
   -0.804965    0.04870  0.0000E+00  0.9601E-05  0.7849E-07  0.1480E-03  0.1436E-02  0.1147E+10
   -0.839964    0.05017  0.0000E+00  0.8585E-05  0.6629E-07  0.1370E-03  0.1252E-02  0.3650E+10
   -0.874964    0.05181  0.0000E+00  0.7678E-05  0.5624E-07  0.1262E-03  0.1087E-02  0.3616E+10
   -0.909963    0.05364  0.0000E+00  0.6866E-05  0.4793E-07  0.1148E-03  0.9404E-03  0.8307E+10
   -0.944962    0.05581  0.0000E+00  0.6146E-05  0.4111E-07  0.1007E-03  0.8070E-03  0.7303E+09
   -0.979961    0.05855  0.0000E+00  0.5504E-05  0.3549E-07  0.8461E-04  0.6846E-03  0.1106E+10
   -1.014960    0.06263  0.0000E+00  0.4925E-05  0.3084E-07  0.7543E-04  0.5716E-03  0.3366E+10
   -1.049959    0.06816  0.0000E+00  0.4408E-05  0.2696E-07  0.6804E-04  0.4736E-03  0.5606E+11
   -1.084957    0.07426  0.0000E+00  0.3933E-05  0.2370E-07  0.6054E-04  0.3917E-03  0.3524E+13
   -1.119955    0.09453  0.0000E+00  0.3493E-05  0.2097E-07  0.5410E-04  0.3234E-03  0.5194E+14
   -1.154954    0.16948  0.0000E+00  0.3136E-05  0.1892E-07  0.4829E-04  0.2647E-03  0.2033E+15
   -1.189951    0.29340  0.0000E+00  0.2831E-05  0.1743E-07  0.4289E-04  0.2137E-03  0.8402E+15
   -1.224949    0.48273  0.0000E+00  0.2532E-05  0.1643E-07  0.3867E-04  0.1659E-03  0.2751E+16
   -1.259946    0.78269  0.0000E+00  0.2289E-05  0.1650E-07  0.3380E-04  0.1307E-03  0.5689E+16
   -1.294944    1.11034  0.0000E+00  0.2031E-05  0.1926E-07  0.2763E-04  0.1051E-03  0.4930E+16
   -1.329940    1.30769  0.0000E+00  0.1679E-05  0.2809E-07  0.1566E-04  0.8762E-04  0.4620E+16
   -1.364937    1.50110  0.0000E+00  0.9545E-06  0.7276E-07  0.2691E-05  0.6951E-04  0.2258E+16
   -1.399933    1.62063  0.0000E+00  0.0000E+00  0.0000E+00  0.0000E+00  0.7459E-04  0.0000E+00
