 1 - depth, m
 2 - temperature, C
 3 - salinity, kg/kg
 4 - turbulent kinetic energy, m**2/s**2
 5 - dissipation rate, m**2/s**3
 6 - kinematic heat conductance, m**2/s
 7 - modulus of horizontal velocity, m/s
 8 - Richardson number, n/d
   -0.000000    7.17227  0.0000E+00  0.2991E-03  0.1935E-01  0.6379E-04  0.1658E+00 -0.4350E-02
   -0.034998    7.25254  0.0000E+00  0.1886E-03  0.1444E-01  0.1163E-03  0.5262E-01  0.2617E-03
   -0.069996    7.26742  0.0000E+00  0.1310E-03  0.1133E-01  0.1330E-03  0.3460E-01 -0.4459E-01
   -0.104994    7.27806  0.0000E+00  0.1083E-03  0.8551E-02  0.1399E-03  0.2791E-01 -0.3631E-01
   -0.139993    7.28520  0.0000E+00  0.9188E-04  0.6304E-02  0.1472E-03  0.2354E-01 -0.5710E-01
   -0.174992    7.29071  0.0000E+00  0.7828E-04  0.4471E-02  0.1559E-03  0.2007E-01 -0.4924E-01
   -0.209991    7.29529  0.0000E+00  0.6658E-04  0.2966E-02  0.1644E-03  0.1717E-01 -0.1102E+00
   -0.244991    7.29925  0.0000E+00  0.5623E-04  0.1769E-02  0.1715E-03  0.1467E-01 -0.1588E-01
   -0.279991    7.30286  0.0000E+00  0.4693E-04  0.8959E-03  0.1753E-03  0.1242E-01 -0.1608E-01
   -0.314991    7.30638  0.0000E+00  0.3864E-04  0.3549E-03  0.1848E-03  0.1024E-01 -0.2620E-01
   -0.349991    7.30962  0.0000E+00  0.3216E-04  0.9850E-04  0.1925E-03  0.8552E-02  0.8487E+01
   -0.384991    7.31267  0.0000E+00  0.2767E-04  0.1767E-04  0.1990E-03  0.7170E-02  0.2946E+01
   -0.419992    7.31555  0.0000E+00  0.2467E-04  0.2174E-05  0.2026E-03  0.6014E-02  0.2309E+02
   -0.454992    7.31832  0.0000E+00  0.2242E-04  0.4192E-06  0.2047E-03  0.4970E-02  0.5618E+03
   -0.489993    7.32098  0.0000E+00  0.2053E-04  0.2586E-06  0.2080E-03  0.4019E-02  0.4387E+04
   -0.524994    7.32350  0.0000E+00  0.1873E-04  0.2122E-06  0.2182E-03  0.3186E-02  0.1833E+02
   -0.559995    7.32583  0.0000E+00  0.1699E-04  0.1770E-06  0.2306E-03  0.2575E-02 -0.5025E+01
   -0.594996    7.32798  0.0000E+00  0.1513E-04  0.1434E-06  0.2476E-03  0.2167E-02  0.9402E+03
   -0.629997    7.32999  0.0000E+00  0.1349E-04  0.1164E-06  0.2628E-03  0.1918E-02  0.1348E+04
   -0.664998    7.33192  0.0000E+00  0.1212E-04  0.9545E-07  0.2908E-03  0.1687E-02  0.1029E+04
   -0.699999    7.33370  0.0000E+00  0.1097E-04  0.7913E-07  0.3280E-03  0.1475E-02  0.9738E+03
   -0.735000    7.33531  0.0000E+00  0.9984E-05  0.6620E-07  0.3684E-03  0.1285E-02  0.2972E+03
   -0.770001    7.33674  0.0000E+00  0.9138E-05  0.5586E-07  0.4046E-03  0.1117E-02  0.9801E+03
   -0.805002    7.33802  0.0000E+00  0.8405E-05  0.4754E-07  0.4408E-03  0.9685E-03  0.1446E+04
   -0.840003    7.33916  0.0000E+00  0.7771E-05  0.4083E-07  0.4643E-03  0.8376E-03  0.3707E+03
   -0.875004    7.34019  0.0000E+00  0.7218E-05  0.3538E-07  0.4764E-03  0.7222E-03  0.2728E+03
   -0.910005    7.34116  0.0000E+00  0.6735E-05  0.3096E-07  0.4802E-03  0.6216E-03  0.8094E+02
   -0.945006    7.34209  0.0000E+00  0.6317E-05  0.2743E-07  0.4790E-03  0.5321E-03  0.7942E+02
   -0.980007    7.34299  0.0000E+00  0.5954E-05  0.2463E-07  0.4747E-03  0.4519E-03  0.6876E+02
   -1.015007    7.34389  0.0000E+00  0.5640E-05  0.2246E-07  0.4677E-03  0.3804E-03  0.8320E+02
   -1.050008    7.34479  0.0000E+00  0.5365E-05  0.2081E-07  0.4573E-03  0.3193E-03  0.1166E+03
   -1.085008    7.34568  0.0000E+00  0.5125E-05  0.1963E-07  0.4446E-03  0.2683E-03  0.1647E+03
   -1.120008    7.34659  0.0000E+00  0.4916E-05  0.1892E-07  0.4272E-03  0.2269E-03  0.2432E+03
   -1.155007    7.34753  0.0000E+00  0.4729E-05  0.1872E-07  0.4085E-03  0.1909E-03  0.3462E+03
   -1.190007    7.34851  0.0000E+00  0.4550E-05  0.1924E-07  0.3757E-03  0.1589E-03  0.4931E+03
   -1.225006    7.34965  0.0000E+00  0.4354E-05  0.2085E-07  0.3484E-03  0.1276E-03  0.7037E+03
   -1.260005    7.35092  0.0000E+00  0.4092E-05  0.2525E-07  0.2893E-03  0.1002E-03  0.1365E+04
   -1.295004    7.35292  0.0000E+00  0.3637E-05  0.3685E-07  0.2406E-03  0.7366E-04  0.3106E+04
   -1.330002    7.35445  0.0000E+00  0.2971E-05  0.6942E-07  0.1375E-03  0.6050E-04  0.6725E+06
   -1.365001    7.36194  0.0000E+00  0.1897E-05  0.1708E-06  0.4184E-04  0.4089E-04 -0.4146E+08
   -1.399998    7.37609  0.0000E+00  0.0000E+00  0.0000E+00  0.0000E+00  0.5663E-04  0.0000E+00
