 1 - depth, m
 2 - temperature, C
 3 - salinity, kg/kg
 4 - turbulent kinetic energy, m**2/s**2
 5 - dissipation rate, m**2/s**3
 6 - kinematic heat conductance, m**2/s
 7 - modulus of horizontal velocity, m/s
 8 - Richardson number, n/d
   -0.000000    9.76174  0.0000E+00  0.1118E-03  0.8829E-03  0.4342E-04  0.8003E-01  0.3315E-02
   -0.034998    9.80795  0.0000E+00  0.6510E-04  0.5560E-03  0.7267E-04  0.2869E-01 -0.4276E-01
   -0.069996    9.81670  0.0000E+00  0.4921E-04  0.3887E-03  0.8209E-04  0.2063E-01 -0.3152E-01
   -0.104995    9.82307  0.0000E+00  0.3982E-04  0.2539E-03  0.8968E-04  0.1678E-01 -0.4258E+00
   -0.139994    9.82813  0.0000E+00  0.3289E-04  0.1531E-03  0.9965E-04  0.1395E-01 -0.5472E-01
   -0.174993    9.83240  0.0000E+00  0.2745E-04  0.8068E-04  0.1104E-03  0.1170E-01 -0.6013E-01
   -0.209993    9.83615  0.0000E+00  0.2314E-04  0.3463E-04  0.1238E-03  0.9829E-02  0.2362E-03
   -0.244992    9.83945  0.0000E+00  0.1982E-04  0.1132E-04  0.1510E-03  0.8222E-02  0.1149E+02
   -0.279992    9.84233  0.0000E+00  0.1729E-04  0.2798E-05  0.1668E-03  0.6810E-02  0.3223E+02
   -0.314992    9.84503  0.0000E+00  0.1522E-04  0.6440E-06  0.1874E-03  0.5497E-02  0.3124E+02
   -0.349993    9.84739  0.0000E+00  0.1355E-04  0.2297E-06  0.2058E-03  0.4472E-02  0.1195E+02
   -0.384993    9.84952  0.0000E+00  0.1219E-04  0.1424E-06  0.2240E-03  0.3646E-02  0.1374E+02
   -0.419994    9.85147  0.0000E+00  0.1108E-04  0.1086E-06  0.2369E-03  0.2970E-02  0.4304E+01
   -0.454995    9.85331  0.0000E+00  0.1016E-04  0.8773E-07  0.2504E-03  0.2378E-02  0.7418E+02
   -0.489996    9.85503  0.0000E+00  0.9371E-05  0.7292E-07  0.2651E-03  0.1851E-02  0.1126E+02
   -0.524997    9.85663  0.0000E+00  0.8645E-05  0.6115E-07  0.3034E-03  0.1396E-02  0.3271E+02
   -0.559998    9.85802  0.0000E+00  0.7963E-05  0.5134E-07  0.3718E-03  0.1067E-02  0.8675E+02
   -0.594999    9.85911  0.0000E+00  0.7278E-05  0.4230E-07  0.4168E-03  0.8597E-03  0.2514E+02
   -0.630001    9.86000  0.0000E+00  0.6725E-05  0.3545E-07  0.4398E-03  0.7433E-03  0.2313E+02
   -0.665002    9.86081  0.0000E+00  0.6280E-05  0.3026E-07  0.4530E-03  0.6462E-03  0.2563E+02
   -0.700003    9.86157  0.0000E+00  0.5911E-05  0.2622E-07  0.4626E-03  0.5595E-03  0.2735E+02
   -0.735004    9.86231  0.0000E+00  0.5602E-05  0.2302E-07  0.4705E-03  0.4832E-03  0.1142E+01
   -0.770006    9.86302  0.0000E+00  0.5342E-05  0.2047E-07  0.4764E-03  0.4171E-03  0.2060E+02
   -0.805007    9.86372  0.0000E+00  0.5121E-05  0.1843E-07  0.4812E-03  0.3602E-03  0.1814E+01
   -0.840008    9.86441  0.0000E+00  0.4935E-05  0.1679E-07  0.4848E-03  0.3113E-03  0.1795E+01
   -0.875009    9.86510  0.0000E+00  0.4776E-05  0.1549E-07  0.4872E-03  0.2693E-03  0.2129E+01
   -0.910010    9.86578  0.0000E+00  0.4639E-05  0.1444E-07  0.4883E-03  0.2335E-03  0.2619E+01
   -0.945011    9.86646  0.0000E+00  0.4521E-05  0.1363E-07  0.4877E-03  0.2022E-03  0.3222E+01
   -0.980012    9.86714  0.0000E+00  0.4419E-05  0.1301E-07  0.4849E-03  0.1747E-03  0.3989E+01
   -1.015013    9.86783  0.0000E+00  0.4329E-05  0.1256E-07  0.4797E-03  0.1503E-03  0.5040E+01
   -1.050014    9.86852  0.0000E+00  0.4247E-05  0.1226E-07  0.4716E-03  0.1294E-03  0.6802E+01
   -1.085014    9.86923  0.0000E+00  0.4169E-05  0.1209E-07  0.4606E-03  0.1115E-03  0.9457E+01
   -1.120014    9.86996  0.0000E+00  0.4093E-05  0.1208E-07  0.4447E-03  0.9597E-04  0.1368E+02
   -1.155014    9.87071  0.0000E+00  0.4017E-05  0.1226E-07  0.4262E-03  0.8175E-04  0.2782E+02
   -1.190014    9.87151  0.0000E+00  0.3938E-05  0.1272E-07  0.3978E-03  0.6861E-04  0.2639E+02
   -1.225013    9.87238  0.0000E+00  0.3846E-05  0.1367E-07  0.3715E-03  0.5604E-04  0.3433E+02
   -1.260012    9.87332  0.0000E+00  0.3716E-05  0.1587E-07  0.3044E-03  0.4508E-04 -0.3048E+03
   -1.295011    9.87471  0.0000E+00  0.3464E-05  0.2191E-07  0.2816E-03  0.3461E-04  0.4105E+04
   -1.330010    9.87580  0.0000E+00  0.3006E-05  0.3968E-07  0.1335E-03  0.2899E-04  0.1087E+06
   -1.365008    9.88247  0.0000E+00  0.1923E-05  0.1051E-06  0.3854E-04  0.1969E-04 -0.9405E+06
   -1.400006    9.89324  0.0000E+00  0.0000E+00  0.0000E+00  0.0000E+00  0.2352E-04  0.0000E+00
