 1 - depth, m
 2 - temperature, C
 3 - salinity, kg/kg
 4 - turbulent kinetic energy, m**2/s**2
 5 - dissipation rate, m**2/s**3
 6 - kinematic heat conductance, m**2/s
 7 - modulus of horizontal velocity, m/s
 8 - Richardson number, n/d
   -0.000000    0.49521  0.0000E+00  0.4283E-04  0.7403E-05  0.2886E-04  0.4604E-01  0.1120E-01
   -0.034998    0.49821  0.0000E+00  0.3098E-04  0.2376E-05  0.4870E-04  0.2562E-01 -0.1626E-02
   -0.069997    0.50187  0.0000E+00  0.2545E-04  0.1187E-05  0.6345E-04  0.1979E-01 -0.2576E-02
   -0.104996    0.50545  0.0000E+00  0.2170E-04  0.7059E-06  0.7475E-04  0.1616E-01 -0.3506E-02
   -0.139995    0.50929  0.0000E+00  0.1884E-04  0.4645E-06  0.8322E-04  0.1349E-01 -0.4236E-02
   -0.174994    0.51361  0.0000E+00  0.1654E-04  0.3272E-06  0.8915E-04  0.1137E-01 -0.3844E-02
   -0.209994    0.51870  0.0000E+00  0.1462E-04  0.2423E-06  0.9241E-04  0.9620E-02 -0.6509E-03
   -0.244994    0.52512  0.0000E+00  0.1294E-04  0.1861E-06  0.9287E-04  0.8103E-02  0.8467E-02
   -0.279994    0.53428  0.0000E+00  0.1135E-04  0.1453E-06  0.8961E-04  0.6723E-02  0.9843E+01
   -0.314994    0.55230  0.0000E+00  0.9562E-05  0.1091E-06  0.8846E-04  0.5348E-02  0.1350E+00
   -0.349995    0.66713  0.0000E+00  0.7918E-05  0.8077E-07  0.8471E-04  0.4158E-02  0.3595E+00
   -0.384996    0.83400  0.0000E+00  0.6508E-05  0.5965E-07  0.7967E-04  0.3201E-02  0.4658E+00
   -0.419997    0.99637  0.0000E+00  0.5347E-05  0.4443E-07  0.7327E-04  0.2452E-02 -0.1860E+00
   -0.454998    1.16999  0.0000E+00  0.4379E-05  0.3321E-07  0.6721E-04  0.1791E-02  0.2360E+00
   -0.489999    1.35965  0.0000E+00  0.3558E-05  0.2463E-07  0.6184E-04  0.1178E-02  0.2608E+04
   -0.525000    1.56025  0.0000E+00  0.2829E-05  0.1763E-07  0.5882E-04  0.6675E-03  0.2335E+05
   -0.560001    1.76733  0.0000E+00  0.2223E-05  0.1244E-07  0.5457E-04  0.3815E-03  0.1405E+06
   -0.595003    1.94034  0.0000E+00  0.1652E-05  0.8166E-08  0.4854E-04  0.2365E-03  0.4451E+06
   -0.630004    2.16266  0.0000E+00  0.1194E-05  0.5124E-08  0.4088E-04  0.1805E-03  0.8108E+07
   -0.665006    2.39554  0.0000E+00  0.8265E-06  0.2978E-08  0.3335E-04  0.1254E-03  0.1012E+08
   -0.700007    2.65095  0.0000E+00  0.5200E-06  0.1533E-08  0.2764E-04  0.6999E-04  0.3757E+08
   -0.735009    2.90287  0.0000E+00  0.2673E-06  0.6053E-09  0.2754E-04  0.2781E-04  0.1638E+10
   -0.770010    3.22978  0.0000E+00  0.1082E-06  0.1597E-09  0.3054E-04  0.4953E-05  0.1445E+10
   -0.805012    3.56632  0.0000E+00  0.7482E-07  0.6531E-10  0.3334E-04  0.7353E-06  0.1855E+10
   -0.840013    3.80754  0.0000E+00  0.7129E-07  0.4849E-10  0.3572E-04  0.1290E-06  0.5200E+10
   -0.875015    3.96389  0.0000E+00  0.7522E-07  0.4645E-10  0.3764E-04  0.3989E-07  0.1450E+10
   -0.910016    4.05530  0.0000E+00  0.7770E-07  0.4687E-10  0.4415E-04  0.2288E-07 -0.2596E+09
   -0.945017    4.07429  0.0000E+00  0.7955E-07  0.4755E-10  0.4548E-04  0.1638E-07 -0.1532E+11
   -0.980018    4.08351  0.0000E+00  0.8111E-07  0.4836E-10  0.4642E-04  0.1209E-07 -0.3398E+12
   -1.015019    4.08766  0.0000E+00  0.8252E-07  0.4938E-10  0.4685E-04  0.8818E-08  0.3421E+13
   -1.050020    4.08662  0.0000E+00  0.8404E-07  0.5086E-10  0.4681E-04  0.6410E-08  0.6586E+13
   -1.085020    4.08227  0.0000E+00  0.8583E-07  0.5306E-10  0.4666E-04  0.4630E-08 -0.4563E+12
   -1.120021    4.08407  0.0000E+00  0.8762E-07  0.5612E-10  0.4603E-04  0.3361E-08 -0.1202E+13
   -1.155021    4.08661  0.0000E+00  0.8945E-07  0.6030E-10  0.4466E-04  0.2368E-08 -0.1852E+13
   -1.190021    4.08975  0.0000E+00  0.9150E-07  0.6632E-10  0.4253E-04  0.1596E-08 -0.2822E+13
   -1.225020    4.09379  0.0000E+00  0.9414E-07  0.7613E-10  0.3955E-04  0.9932E-09 -0.4872E+13
   -1.260020    4.09968  0.0000E+00  0.9774E-07  0.9417E-10  0.3523E-04  0.5783E-09 -0.9540E+13
   -1.295019    4.10914  0.0000E+00  0.1030E-06  0.1385E-09  0.2821E-04  0.3195E-09 -0.2302E+14
   -1.330018    4.12641  0.0000E+00  0.1059E-06  0.2347E-09  0.1755E-04  0.1925E-09 -0.6073E+14
   -1.365016    4.15819  0.0000E+00  0.9532E-07  0.6714E-09  0.3563E-05  0.9370E-10 -0.4431E+15
   -1.400015    4.29466  0.0000E+00  0.0000E+00  0.0000E+00  0.0000E+00  0.9538E-10  0.0000E+00
