 1 - depth, m
 2 - temperature, C
 3 - salinity, kg/kg
 4 - turbulent kinetic energy, m**2/s**2
 5 - dissipation rate, m**2/s**3
 6 - kinematic heat conductance, m**2/s
 7 - modulus of horizontal velocity, m/s
 8 - Richardson number, n/d
   -0.000000    0.00000  0.0000E+00  0.4702E-13  0.1132E-15  0.1000E-09  0.0000E+00  0.1311E+17
   -0.034998    0.20213  0.0000E+00  0.9966E-13  0.1132E-15  0.1000E-09  0.0000E+00  0.1247E+17
   -0.069996    0.40569  0.0000E+00  0.3402E-12  0.1132E-15  0.1000E-09  0.0000E+00  0.1180E+17
   -0.104994    0.61032  0.0000E+00  0.7710E-12  0.1476E-15  0.1000E-09  0.0000E+00  0.1100E+17
   -0.139993    0.81370  0.0000E+00  0.1452E-11  0.2262E-15  0.1000E-09  0.0000E+00  0.1015E+17
   -0.174992    1.01432  0.0000E+00  0.2518E-11  0.3602E-15  0.1000E-09  0.0000E+00  0.9312E+16
   -0.209992    1.21181  0.0000E+00  0.4196E-11  0.5755E-15  0.1000E-09  0.0000E+00  0.8496E+16
   -0.244991    1.40580  0.0000E+00  0.6852E-11  0.9152E-15  0.1000E-09  0.0000E+00  0.7707E+16
   -0.279991    1.59598  0.0000E+00  0.1106E-10  0.1448E-14  0.1000E-09  0.0000E+00  0.6949E+16
   -0.314991    1.78207  0.0000E+00  0.1782E-10  0.2292E-14  0.1000E-09  0.0000E+00  0.6254E+16
   -0.349991    1.96472  0.0000E+00  0.2880E-10  0.3641E-14  0.1000E-09  0.0000E+00  0.5587E+16
   -0.384991    2.14370  0.0000E+00  0.4653E-10  0.5786E-14  0.1000E-09  0.0000E+00  0.4948E+16
   -0.419992    2.31867  0.0000E+00  0.7486E-10  0.9158E-14  0.1000E-09  0.0000E+00  0.4348E+16
   -0.454993    2.48972  0.0000E+00  0.1198E-09  0.1443E-13  0.1000E-09  0.0000E+00  0.3795E+16
   -0.489993    2.65737  0.0000E+00  0.1913E-09  0.2267E-13  0.1000E-09  0.0000E+00  0.3290E+16
   -0.524994    2.82258  0.0000E+00  0.3167E-09  0.3691E-13  0.1000E-09  0.0000E+00  0.2890E+16
   -0.559995    2.99053  0.0000E+00  0.5490E-09  0.6291E-13  0.1000E-09  0.0000E+00  0.2517E+16
   -0.594996    3.16487  0.0000E+00  0.1009E-08  0.1137E-12  0.1415E-09  0.0000E+00  0.2095E+16
   -0.629997    3.34570  0.0000E+00  0.1707E-08  0.1896E-12  0.3227E-09  0.0000E+00  0.1529E+16
   -0.664999    3.52055  0.0000E+00  0.2748E-08  0.3011E-12  0.7751E-09  0.0000E+00  0.1013E+16
   -0.700000    3.68889  0.0000E+00  0.4330E-08  0.4678E-12  0.2234E-08  0.0000E+00  0.5484E+15
   -0.735001    3.84954  0.0000E+00  0.6741E-08  0.7182E-12  0.1318E-07  0.0000E+00  0.1465E+15
   -0.770002    3.99509  0.0000E+00  0.7309E-08  0.7812E-12  0.2311E-04  0.0000E+00 -0.1385E+12
   -0.805003    3.99616  0.0000E+00  0.7595E-08  0.8179E-12  0.2524E-04  0.0000E+00 -0.1433E+12
   -0.840004    3.99711  0.0000E+00  0.7855E-08  0.8559E-12  0.2669E-04  0.0000E+00 -0.1496E+12
   -0.875005    3.99800  0.0000E+00  0.8099E-08  0.8965E-12  0.2775E-04  0.0000E+00 -0.1571E+12
   -0.910006    3.99886  0.0000E+00  0.8327E-08  0.9403E-12  0.2837E-04  0.0000E+00 -0.1649E+12
   -0.945007    3.99969  0.0000E+00  0.8540E-08  0.9874E-12  0.2860E-04  0.0000E+00 -0.1741E+12
   -0.980007    4.00051  0.0000E+00  0.8740E-08  0.1039E-11  0.2852E-04  0.0000E+00 -0.1854E+12
   -1.015008    4.00133  0.0000E+00  0.8929E-08  0.1097E-11  0.2829E-04  0.0000E+00 -0.2017E+12
   -1.050008    4.00218  0.0000E+00  0.9110E-08  0.1165E-11  0.2786E-04  0.0000E+00 -0.2223E+12
   -1.085008    4.00306  0.0000E+00  0.9283E-08  0.1245E-11  0.2723E-04  0.0000E+00 -0.2475E+12
   -1.120008    4.00398  0.0000E+00  0.9444E-08  0.1341E-11  0.2624E-04  0.0000E+00 -0.2724E+12
   -1.155008    4.00495  0.0000E+00  0.9592E-08  0.1458E-11  0.2495E-04  0.0000E+00 -0.3040E+12
   -1.190008    4.00597  0.0000E+00  0.9728E-08  0.1611E-11  0.2319E-04  0.0000E+00 -0.3539E+12
   -1.225007    4.00710  0.0000E+00  0.9857E-08  0.1837E-11  0.2114E-04  0.0000E+00 -0.4611E+12
   -1.260006    4.00848  0.0000E+00  0.9966E-08  0.2211E-11  0.1854E-04  0.0000E+00 -0.6992E+12
   -1.295005    4.01043  0.0000E+00  0.9978E-08  0.3148E-11  0.1345E-04  0.0000E+00 -0.1454E+13
   -1.330003    4.01403  0.0000E+00  0.9431E-08  0.5526E-11  0.4919E-05  0.0000E+00 -0.4473E+13
   -1.365001    4.02291  0.0000E+00  0.7014E-08  0.1467E-10  0.7089E-06  0.0000E+00 -0.4052E+14
   -1.399999    4.06702  0.0000E+00  0.0000E+00  0.0000E+00  0.0000E+00  0.0000E+00  0.0000E+00
