 1 - depth, m
 2 - temperature, C
 3 - salinity, kg/kg
 4 - turbulent kinetic energy, m**2/s**2
 5 - dissipation rate, m**2/s**3
 6 - kinematic heat conductance, m**2/s
 7 - modulus of horizontal velocity, m/s
 8 - Richardson number, n/d
   -0.000000   -0.00000  0.3693E-07  0.3361E-09  0.2978E-12  0.1000E-09  0.0000E+00  0.4699E+17
   -0.068745    0.78785  0.0000E+00  0.2220E-08  0.2598E-12  0.1000E-09  0.0000E+00  0.3439E+17
   -0.137491    1.52926  0.9777E-10  0.5781E-08  0.3994E-12  0.1000E-09  0.0000E+00  0.2370E+17
   -0.206238    2.22195  0.4897E-10  0.1192E-07  0.7024E-12  0.2402E-09  0.0000E+00  0.1490E+17
   -0.274985    2.86610  0.7182E-10  0.2256E-07  0.1251E-11  0.8189E-09  0.0000E+00  0.7787E+16
   -0.343733    3.46274  0.6592E-10  0.4104E-07  0.2202E-11  0.5215E-08  0.0000E+00  0.2157E+16
   -0.412481    4.00268  0.6626E-10  0.4142E-07  0.2223E-11  0.2754E-03  0.0000E+00 -0.7140E+11
   -0.481230    4.00295  0.6626E-10  0.4160E-07  0.2235E-11  0.2685E-03  0.0000E+00 -0.7305E+11
   -0.549979    4.00323  0.6626E-10  0.4177E-07  0.2249E-11  0.2687E-03  0.0000E+00 -0.7316E+11
   -0.618729    4.00351  0.6626E-10  0.4193E-07  0.2264E-11  0.2689E-03  0.0000E+00 -0.7332E+11
   -0.687479    4.00378  0.6626E-10  0.4207E-07  0.2280E-11  0.2689E-03  0.0000E+00 -0.7360E+11
   -0.756229    4.00404  0.6626E-10  0.4220E-07  0.2298E-11  0.2685E-03  0.0000E+00 -0.7411E+11
   -0.824980    4.00431  0.6626E-10  0.4231E-07  0.2317E-11  0.2678E-03  0.0000E+00 -0.7474E+11
   -0.893731    4.00457  0.6626E-10  0.4242E-07  0.2338E-11  0.2669E-03  0.0000E+00 -0.7550E+11
   -0.962482    4.00484  0.6626E-10  0.4251E-07  0.2360E-11  0.2656E-03  0.0000E+00 -0.7636E+11
   -1.031233    4.00510  0.6626E-10  0.4258E-07  0.2385E-11  0.2641E-03  0.0000E+00 -0.7741E+11
   -1.099985    4.00536  0.6626E-10  0.4265E-07  0.2411E-11  0.2622E-03  0.0000E+00 -0.7870E+11
   -1.168737    4.00562  0.6626E-10  0.4270E-07  0.2440E-11  0.2600E-03  0.0000E+00 -0.8015E+11
   -1.237488    4.00589  0.6626E-10  0.4273E-07  0.2471E-11  0.2574E-03  0.0000E+00 -0.8176E+11
   -1.306240    4.00615  0.6626E-10  0.4276E-07  0.2505E-11  0.2546E-03  0.0000E+00 -0.8356E+11
   -1.374992    4.00642  0.6626E-10  0.4276E-07  0.2542E-11  0.2514E-03  0.0000E+00 -0.8549E+11
   -1.443744    4.00669  0.6626E-10  0.4276E-07  0.2582E-11  0.2478E-03  0.0000E+00 -0.8756E+11
   -1.512496    4.00696  0.6626E-10  0.4273E-07  0.2626E-11  0.2439E-03  0.0000E+00 -0.8983E+11
   -1.581248    4.00724  0.6626E-10  0.4269E-07  0.2674E-11  0.2396E-03  0.0000E+00 -0.9236E+11
   -1.649999    4.00752  0.6626E-10  0.4263E-07  0.2727E-11  0.2350E-03  0.0000E+00 -0.9516E+11
   -1.718751    4.00781  0.6626E-10  0.4256E-07  0.2784E-11  0.2300E-03  0.0000E+00 -0.9829E+11
   -1.787502    4.00810  0.6626E-10  0.4246E-07  0.2847E-11  0.2246E-03  0.0000E+00 -0.1018E+12
   -1.856253    4.00839  0.6626E-10  0.4235E-07  0.2917E-11  0.2187E-03  0.0000E+00 -0.1057E+12
   -1.925004    4.00870  0.6626E-10  0.4222E-07  0.2995E-11  0.2125E-03  0.0000E+00 -0.1100E+12
   -1.993755    4.00901  0.6626E-10  0.4206E-07  0.3081E-11  0.2059E-03  0.0000E+00 -0.1150E+12
   -2.062505    4.00933  0.6626E-10  0.4188E-07  0.3178E-11  0.1986E-03  0.0000E+00 -0.1208E+12
   -2.131255    4.00966  0.6626E-10  0.4165E-07  0.3295E-11  0.1903E-03  0.0000E+00 -0.1280E+12
   -2.200005    4.01001  0.6626E-10  0.4138E-07  0.3439E-11  0.1809E-03  0.0000E+00 -0.1368E+12
   -2.268754    4.01038  0.6626E-10  0.4105E-07  0.3618E-11  0.1707E-03  0.0000E+00 -0.1477E+12
   -2.337503    4.01077  0.6626E-10  0.4058E-07  0.3884E-11  0.1487E-03  0.0000E+00 -0.1732E+12
   -2.406251    4.01122  0.6626E-10  0.3981E-07  0.4334E-11  0.1040E-03  0.0000E+00 -0.2546E+12
   -2.474999    4.01186  0.6626E-10  0.3863E-07  0.5086E-11  0.7356E-04  0.0000E+00 -0.3754E+12
   -2.543746    4.01279  0.6626E-10  0.3664E-07  0.6513E-11  0.4671E-04  0.0000E+00 -0.6272E+12
   -2.612493    4.01426  0.6626E-10  0.3294E-07  0.9765E-11  0.2198E-04  0.0000E+00 -0.1466E+13
   -2.681239    4.01743  0.6626E-10  0.1652E-07  0.3168E-10  0.1388E-05  0.0000E+00 -0.4025E+14
   -2.749984    4.06449  0.6626E-10  0.0000E+00  0.0000E+00  0.0000E+00  0.0000E+00  0.0000E+00
