 1 - depth, m
 2 - temperature, C
 3 - salinity, kg/kg
 4 - turbulent kinetic energy, m**2/s**2
 5 - dissipation rate, m**2/s**3
 6 - kinematic heat conductance, m**2/s
 7 - modulus of horizontal velocity, m/s
 8 - Richardson number, n/d
   -0.000000   -0.00001  0.1081E-06  0.1142E-08  0.1396E-11  0.1278E-09  0.0000E+00  0.5553E+17
   -0.068745    0.95537  0.0000E+00  0.9958E-08  0.1492E-11  0.1999E-09  0.0000E+00  0.3799E+17
   -0.137492    1.85637  0.8533E-10  0.2844E-07  0.2910E-11  0.6398E-09  0.0000E+00  0.2316E+17
   -0.206238    2.69758  0.6098E-10  0.6562E-07  0.6103E-11  0.2807E-08  0.0000E+00  0.1109E+17
   -0.274986    3.46978  0.6611E-10  0.1397E-06  0.1251E-10  0.3136E-07  0.0000E+00  0.2047E+16
   -0.343733    4.07099  0.6633E-10  0.1406E-06  0.1260E-10  0.5190E-03  0.0000E+00 -0.2562E+12
   -0.412482    4.07118  0.6633E-10  0.1411E-06  0.1265E-10  0.5098E-03  0.0000E+00 -0.2559E+12
   -0.481231    4.07137  0.6633E-10  0.1414E-06  0.1270E-10  0.5103E-03  0.0000E+00 -0.2521E+12
   -0.549980    4.07156  0.6633E-10  0.1417E-06  0.1276E-10  0.5105E-03  0.0000E+00 -0.2486E+12
   -0.618730    4.07175  0.6633E-10  0.1419E-06  0.1282E-10  0.5102E-03  0.0000E+00 -0.2454E+12
   -0.687480    4.07193  0.6633E-10  0.1421E-06  0.1289E-10  0.5093E-03  0.0000E+00 -0.2429E+12
   -0.756230    4.07211  0.6633E-10  0.1422E-06  0.1296E-10  0.5078E-03  0.0000E+00 -0.2408E+12
   -0.824981    4.07229  0.6633E-10  0.1423E-06  0.1304E-10  0.5058E-03  0.0000E+00 -0.2393E+12
   -0.893732    4.07247  0.6633E-10  0.1423E-06  0.1312E-10  0.5031E-03  0.0000E+00 -0.2382E+12
   -0.962483    4.07265  0.6633E-10  0.1422E-06  0.1321E-10  0.4999E-03  0.0000E+00 -0.2375E+12
   -1.031235    4.07282  0.6633E-10  0.1421E-06  0.1331E-10  0.4962E-03  0.0000E+00 -0.2374E+12
   -1.099986    4.07300  0.6633E-10  0.1420E-06  0.1342E-10  0.4918E-03  0.0000E+00 -0.2381E+12
   -1.168738    4.07317  0.6633E-10  0.1418E-06  0.1354E-10  0.4868E-03  0.0000E+00 -0.2392E+12
   -1.237490    4.07335  0.6633E-10  0.1416E-06  0.1368E-10  0.4812E-03  0.0000E+00 -0.2408E+12
   -1.306242    4.07353  0.6633E-10  0.1413E-06  0.1382E-10  0.4750E-03  0.0000E+00 -0.2429E+12
   -1.374994    4.07370  0.6633E-10  0.1409E-06  0.1398E-10  0.4681E-03  0.0000E+00 -0.2453E+12
   -1.443746    4.07388  0.6633E-10  0.1405E-06  0.1416E-10  0.4607E-03  0.0000E+00 -0.2481E+12
   -1.512498    4.07406  0.6633E-10  0.1401E-06  0.1436E-10  0.4526E-03  0.0000E+00 -0.2513E+12
   -1.581250    4.07425  0.6633E-10  0.1396E-06  0.1458E-10  0.4438E-03  0.0000E+00 -0.2552E+12
   -1.650002    4.07443  0.6633E-10  0.1391E-06  0.1482E-10  0.4344E-03  0.0000E+00 -0.2596E+12
   -1.718753    4.07462  0.6633E-10  0.1385E-06  0.1509E-10  0.4244E-03  0.0000E+00 -0.2647E+12
   -1.787505    4.07481  0.6633E-10  0.1378E-06  0.1539E-10  0.4137E-03  0.0000E+00 -0.2705E+12
   -1.856256    4.07501  0.6633E-10  0.1372E-06  0.1573E-10  0.4023E-03  0.0000E+00 -0.2771E+12
   -1.925007    4.07521  0.6633E-10  0.1364E-06  0.1611E-10  0.3902E-03  0.0000E+00 -0.2846E+12
   -1.993758    4.07541  0.6633E-10  0.1356E-06  0.1654E-10  0.3776E-03  0.0000E+00 -0.2932E+12
   -2.062508    4.07562  0.6633E-10  0.1348E-06  0.1703E-10  0.3639E-03  0.0000E+00 -0.3039E+12
   -2.131258    4.07584  0.6633E-10  0.1338E-06  0.1763E-10  0.3484E-03  0.0000E+00 -0.3176E+12
   -2.200008    4.07607  0.6633E-10  0.1327E-06  0.1837E-10  0.3311E-03  0.0000E+00 -0.3348E+12
   -2.268757    4.07630  0.6633E-10  0.1315E-06  0.1930E-10  0.3114E-03  0.0000E+00 -0.3570E+12
   -2.337506    4.07656  0.6633E-10  0.1300E-06  0.2051E-10  0.2888E-03  0.0000E+00 -0.3866E+12
   -2.406255    4.07683  0.6633E-10  0.1281E-06  0.2216E-10  0.2655E-03  0.0000E+00 -0.4235E+12
   -2.475002    4.07713  0.6633E-10  0.1252E-06  0.2504E-10  0.1717E-03  0.0000E+00 -0.6627E+12
   -2.543750    4.07760  0.6633E-10  0.1195E-06  0.3157E-10  0.9498E-04  0.0000E+00 -0.1220E+13
   -2.612496    4.07845  0.6633E-10  0.1088E-06  0.4647E-10  0.4592E-04  0.0000E+00 -0.2588E+13
   -2.681243    4.08023  0.6633E-10  0.5142E-07  0.1633E-09  0.2252E-05  0.0000E+00 -0.6086E+14
   -2.749988    4.11517  0.6633E-10  0.0000E+00  0.0000E+00  0.0000E+00  0.0000E+00  0.0000E+00
