 1 - depth, m
 2 - temperature, C
 3 - salinity, kg/kg
 4 - turbulent kinetic energy, m**2/s**2
 5 - dissipation rate, m**2/s**3
 6 - kinematic heat conductance, m**2/s
 7 - modulus of horizontal velocity, m/s
 8 - Richardson number, n/d
   -0.000000   -0.00000  0.5285E-09  0.1219E-13  0.7603E-17  0.1000E-09  0.0000E+00  0.1234E+17
   -0.068746    0.19001  0.1640E-09  0.1219E-13  0.7603E-17  0.1000E-09  0.0000E+00  0.1163E+17
   -0.137492    0.37878  0.9643E-10  0.1219E-13  0.7603E-17  0.1000E-09  0.0000E+00  0.1083E+17
   -0.206239    0.56452  0.8405E-10  0.1219E-13  0.7603E-17  0.1000E-09  0.0000E+00  0.1004E+17
   -0.274987    0.74686  0.8103E-10  0.1219E-13  0.7603E-17  0.1000E-09  0.0000E+00  0.9280E+16
   -0.343735    0.92554  0.8029E-10  0.1219E-13  0.7603E-17  0.1000E-09  0.0000E+00  0.8565E+16
   -0.412483    1.10079  0.8013E-10  0.1219E-13  0.7603E-17  0.1000E-09  0.0000E+00  0.7878E+16
   -0.481233    1.27245  0.8010E-10  0.1219E-13  0.7603E-17  0.1000E-09  0.0000E+00  0.7219E+16
   -0.549982    1.44040  0.8009E-10  0.1761E-13  0.7603E-17  0.1000E-09  0.0000E+00  0.6608E+16
   -0.618732    1.60495  0.8008E-10  0.7135E-13  0.9126E-17  0.1000E-09  0.0000E+00  0.6040E+16
   -0.687482    1.76644  0.8006E-10  0.1834E-12  0.1761E-16  0.1000E-09  0.0000E+00  0.5501E+16
   -0.756233    1.92494  0.8003E-10  0.4082E-12  0.3616E-16  0.1000E-09  0.0000E+00  0.5021E+16
   -0.824984    2.08151  0.7996E-10  0.8640E-12  0.7380E-16  0.1000E-09  0.0000E+00  0.4557E+16
   -0.893735    2.23608  0.7983E-10  0.1791E-11  0.1490E-15  0.1000E-09  0.0000E+00  0.4108E+16
   -0.962487    2.38859  0.7964E-10  0.3671E-11  0.2980E-15  0.1000E-09  0.0000E+00  0.3674E+16
   -1.031239    2.53894  0.7938E-10  0.7453E-11  0.5911E-15  0.1000E-09  0.0000E+00  0.3257E+16
   -1.099991    2.68704  0.7906E-10  0.1506E-10  0.1167E-14  0.1000E-09  0.0000E+00  0.2857E+16
   -1.168743    2.83287  0.7870E-10  0.3025E-10  0.2291E-14  0.1000E-09  0.0000E+00  0.2472E+16
   -1.237495    2.97626  0.7832E-10  0.6032E-10  0.4466E-14  0.1000E-09  0.0000E+00  0.2103E+16
   -1.306247    3.11701  0.7792E-10  0.1194E-09  0.8648E-14  0.1000E-09  0.0000E+00  0.1751E+16
   -1.374999    3.25491  0.7747E-10  0.2348E-09  0.1663E-13  0.1000E-09  0.0000E+00  0.1421E+16
   -1.443752    3.39017  0.7699E-10  0.4585E-09  0.3177E-13  0.1452E-09  0.0000E+00  0.1113E+16
   -1.512504    3.52322  0.7656E-10  0.8889E-09  0.6027E-13  0.3745E-09  0.0000E+00  0.8189E+15
   -1.581256    3.65381  0.7630E-10  0.1711E-08  0.1136E-12  0.1071E-08  0.0000E+00  0.5397E+15
   -1.650008    3.78149  0.7621E-10  0.3267E-08  0.2123E-12  0.3903E-08  0.0000E+00  0.2768E+15
   -1.718760    3.90451  0.7619E-10  0.6084E-08  0.3880E-12  0.3906E-07  0.0000E+00  0.5056E+14
   -1.787512    4.00193  0.7619E-10  0.6641E-08  0.4253E-12  0.3767E-04  0.0000E+00 -0.1153E+12
   -1.856263    4.00240  0.7619E-10  0.6890E-08  0.4460E-12  0.3830E-04  0.0000E+00 -0.1172E+12
   -1.925014    4.00285  0.7619E-10  0.7105E-08  0.4684E-12  0.3836E-04  0.0000E+00 -0.1209E+12
   -1.993765    4.00331  0.7619E-10  0.7287E-08  0.4932E-12  0.3784E-04  0.0000E+00 -0.1267E+12
   -2.062516    4.00378  0.7619E-10  0.7439E-08  0.5215E-12  0.3707E-04  0.0000E+00 -0.1354E+12
   -2.131266    4.00427  0.7619E-10  0.7569E-08  0.5560E-12  0.3584E-04  0.0000E+00 -0.1484E+12
   -2.200016    4.00479  0.7619E-10  0.7673E-08  0.5990E-12  0.3398E-04  0.0000E+00 -0.1670E+12
   -2.268766    4.00536  0.7619E-10  0.7747E-08  0.6545E-12  0.3143E-04  0.0000E+00 -0.1948E+12
   -2.337515    4.00600  0.7619E-10  0.7780E-08  0.7292E-12  0.2814E-04  0.0000E+00 -0.2384E+12
   -2.406264    4.00676  0.7619E-10  0.7753E-08  0.8365E-12  0.2402E-04  0.0000E+00 -0.3134E+12
   -2.475012    4.00771  0.7619E-10  0.7625E-08  0.1006E-11  0.1892E-04  0.0000E+00 -0.4630E+12
   -2.543759    4.00905  0.7619E-10  0.7282E-08  0.1323E-11  0.1247E-04  0.0000E+00 -0.8519E+12
   -2.612506    4.01133  0.7619E-10  0.6424E-08  0.2070E-11  0.5541E-05  0.0000E+00 -0.2483E+13
   -2.681253    4.01702  0.7619E-10  0.3564E-08  0.5807E-11  0.5122E-06  0.0000E+00 -0.5464E+14
   -2.749999    4.07533  0.7619E-10  0.0000E+00  0.0000E+00  0.0000E+00  0.0000E+00  0.0000E+00
