 1 - depth, m
 2 - temperature, C
 3 - salinity, kg/kg
 4 - turbulent kinetic energy, m**2/s**2
 5 - dissipation rate, m**2/s**3
 6 - kinematic heat conductance, m**2/s
 7 - modulus of horizontal velocity, m/s
 8 - Richardson number, n/d
   -0.000000    5.84761  0.8825E-10  0.4583E-03  0.7055E-03  0.1163E-03  0.2300E+00 -0.1867E+00
   -0.068746    5.62606  0.8826E-10  0.2532E-03  0.1911E-03  0.3585E-03  0.7041E-01  0.1954E+00
   -0.137492    5.59093  0.8826E-10  0.1836E-03  0.6595E-04  0.3117E-03  0.5591E-01  0.1143E+01
   -0.206239    5.56383  0.8826E-10  0.1365E-03  0.2472E-04  0.2870E-03  0.4789E-01  0.1494E-01
   -0.274987    5.54318  0.8827E-10  0.1046E-03  0.1050E-04  0.2803E-03  0.4212E-01  0.2305E-01
   -0.343735    5.52589  0.8827E-10  0.8275E-04  0.5097E-05  0.2801E-03  0.3765E-01  0.2615E-01
   -0.412484    5.51067  0.8827E-10  0.6723E-04  0.2751E-05  0.2888E-03  0.3366E-01  0.3788E-01
   -0.481233    5.49715  0.8827E-10  0.5618E-04  0.1620E-05  0.3043E-03  0.3030E-01  0.3754E-01
   -0.549983    5.48504  0.8828E-10  0.4847E-04  0.1033E-05  0.3205E-03  0.2750E-01  0.4350E-01
   -0.618733    5.47413  0.8828E-10  0.4310E-04  0.7082E-06  0.3353E-03  0.2507E-01  0.4480E-01
   -0.687484    5.46425  0.8828E-10  0.3914E-04  0.5144E-06  0.3520E-03  0.2285E-01  0.4773E-01
   -0.756235    5.45533  0.8828E-10  0.3610E-04  0.3915E-06  0.3687E-03  0.2085E-01  0.5115E-01
   -0.824986    5.44725  0.8829E-10  0.3364E-04  0.3093E-06  0.3841E-03  0.1902E-01  0.5442E-01
   -0.893737    5.43990  0.8829E-10  0.3155E-04  0.2517E-06  0.3968E-03  0.1735E-01  0.5696E-01
   -0.962489    5.43318  0.8829E-10  0.2967E-04  0.2092E-06  0.4054E-03  0.1580E-01  0.5794E-01
   -1.031241    5.42697  0.8830E-10  0.2786E-04  0.1762E-06  0.4113E-03  0.1433E-01  0.5993E-01
   -1.099993    5.42120  0.8830E-10  0.2605E-04  0.1492E-06  0.4230E-03  0.1295E-01  0.7345E-01
   -1.168745    5.41586  0.8830E-10  0.2431E-04  0.1271E-06  0.4300E-03  0.1172E-01  0.8793E-01
   -1.237497    5.41085  0.8831E-10  0.2267E-04  0.1090E-06  0.4338E-03  0.1061E-01  0.1041E+00
   -1.306249    5.40611  0.8831E-10  0.2112E-04  0.9391E-07  0.4356E-03  0.9601E-02  0.1226E+00
   -1.375002    5.40158  0.8831E-10  0.1969E-04  0.8129E-07  0.4359E-03  0.8669E-02  0.1440E+00
   -1.443754    5.39723  0.8832E-10  0.1835E-04  0.7067E-07  0.4353E-03  0.7809E-02  0.1696E+00
   -1.512507    5.39298  0.8832E-10  0.1711E-04  0.6168E-07  0.4343E-03  0.7010E-02  0.2015E+00
   -1.581259    5.38875  0.8833E-10  0.1597E-04  0.5406E-07  0.4333E-03  0.6264E-02  0.2459E+00
   -1.650011    5.38441  0.8833E-10  0.1493E-04  0.4759E-07  0.4327E-03  0.5566E-02  0.3305E+00
   -1.718763    5.37974  0.8834E-10  0.1399E-04  0.4210E-07  0.4327E-03  0.4911E-02  0.6634E+00
   -1.787515    5.37430  0.8835E-10  0.1315E-04  0.3746E-07  0.4338E-03  0.4293E-02  0.2115E+01
   -1.856266    5.37040  0.8836E-10  0.1240E-04  0.3359E-07  0.4383E-03  0.3733E-02  0.6388E+00
   -1.925018    5.36924  0.8837E-10  0.1172E-04  0.3033E-07  0.4489E-03  0.3236E-02  0.6861E+05
   -1.993769    5.36945  0.8838E-10  0.1110E-04  0.2757E-07  0.4626E-03  0.2780E-02  0.1662E+04
   -2.062520    5.37093  0.8839E-10  0.1050E-04  0.2522E-07  0.4795E-03  0.2360E-02  0.3993E+04
   -2.131270    5.37293  0.8840E-10  0.9929E-05  0.2319E-07  0.4948E-03  0.2001E-02  0.1403E+05
   -2.200020    5.37534  0.8842E-10  0.9380E-05  0.2152E-07  0.5081E-03  0.1699E-02  0.1111E+05
   -2.268770    5.37814  0.8844E-10  0.8851E-05  0.2018E-07  0.5107E-03  0.1442E-02  0.1614E+05
   -2.337519    5.38130  0.8845E-10  0.8333E-05  0.1920E-07  0.5005E-03  0.1221E-02  0.4681E+05
   -2.406268    5.38471  0.8847E-10  0.7810E-05  0.1865E-07  0.4735E-03  0.1031E-02  0.1239E+06
   -2.475016    5.38830  0.8848E-10  0.7251E-05  0.1869E-07  0.4212E-03  0.8686E-03  0.1382E+07
   -2.543764    5.39214  0.8849E-10  0.6584E-05  0.1984E-07  0.3381E-03  0.7327E-03  0.8269E+05
   -2.612511    5.39659  0.8850E-10  0.5712E-05  0.2373E-07  0.2185E-03  0.6195E-03 -0.4680E+05
   -2.681258    5.40315  0.8851E-10  0.2460E-05  0.5930E-07  0.1451E-04  0.5196E-03 -0.1552E+08
   -2.750004    5.49684  0.8853E-10  0.0000E+00  0.0000E+00  0.0000E+00  0.5138E-03  0.0000E+00
