 1 - depth, m
 2 - temperature, C
 3 - salinity, kg/kg
 4 - turbulent kinetic energy, m**2/s**2
 5 - dissipation rate, m**2/s**3
 6 - kinematic heat conductance, m**2/s
 7 - modulus of horizontal velocity, m/s
 8 - Richardson number, n/d
   -0.000000   -0.00000  0.1883E-09  0.1219E-13  0.7603E-17  0.1000E-09  0.0000E+00  0.1145E+17
   -0.068746    0.17585  0.1752E-09  0.1219E-13  0.7603E-17  0.1000E-09  0.0000E+00  0.1090E+17
   -0.137492    0.35177  0.1543E-09  0.1219E-13  0.7603E-17  0.1000E-09  0.0000E+00  0.1027E+17
   -0.206239    0.52613  0.1208E-09  0.1219E-13  0.7603E-17  0.1000E-09  0.0000E+00  0.9630E+16
   -0.274987    0.69859  0.9587E-10  0.1219E-13  0.7603E-17  0.1000E-09  0.0000E+00  0.9003E+16
   -0.343735    0.86895  0.8313E-10  0.1219E-13  0.7603E-17  0.1000E-09  0.0000E+00  0.8404E+16
   -0.412484    1.03733  0.7800E-10  0.1219E-13  0.7603E-17  0.1000E-09  0.0000E+00  0.7818E+16
   -0.481233    1.20359  0.7624E-10  0.1219E-13  0.7603E-17  0.1000E-09  0.0000E+00  0.7248E+16
   -0.549983    1.36759  0.7570E-10  0.1219E-13  0.7603E-17  0.1000E-09  0.0000E+00  0.6703E+16
   -0.618733    1.52945  0.7554E-10  0.1463E-13  0.7603E-17  0.1000E-09  0.0000E+00  0.6183E+16
   -0.687483    1.68925  0.7547E-10  0.6536E-13  0.8305E-17  0.1000E-09  0.0000E+00  0.5677E+16
   -0.756234    1.84691  0.7540E-10  0.1692E-12  0.1531E-16  0.1000E-09  0.0000E+00  0.5201E+16
   -0.824985    2.00270  0.7530E-10  0.3711E-12  0.3056E-16  0.1000E-09  0.0000E+00  0.4736E+16
   -0.893736    2.15648  0.7515E-10  0.7684E-12  0.6079E-16  0.1000E-09  0.0000E+00  0.4283E+16
   -0.962488    2.30806  0.7494E-10  0.1554E-11  0.1196E-15  0.1000E-09  0.0000E+00  0.3845E+16
   -1.031240    2.45725  0.7465E-10  0.3104E-11  0.2333E-15  0.1000E-09  0.0000E+00  0.3421E+16
   -1.099992    2.60382  0.7429E-10  0.6164E-11  0.4526E-15  0.1000E-09  0.0000E+00  0.3011E+16
   -1.168744    2.74746  0.7385E-10  0.1216E-10  0.8730E-15  0.1000E-09  0.0000E+00  0.2620E+16
   -1.237496    2.88793  0.7338E-10  0.2383E-10  0.1672E-14  0.1000E-09  0.0000E+00  0.2248E+16
   -1.306248    3.02503  0.7293E-10  0.4636E-10  0.3182E-14  0.1000E-09  0.0000E+00  0.1898E+16
   -1.375000    3.15857  0.7258E-10  0.8956E-10  0.6014E-14  0.1000E-09  0.0000E+00  0.1575E+16
   -1.443753    3.28879  0.7235E-10  0.1719E-09  0.1129E-13  0.1000E-09  0.0000E+00  0.1279E+16
   -1.512505    3.41630  0.7222E-10  0.3275E-09  0.2106E-13  0.1072E-09  0.0000E+00  0.9998E+15
   -1.581257    3.54101  0.7217E-10  0.6201E-09  0.3902E-13  0.2692E-09  0.0000E+00  0.7379E+15
   -1.650009    3.66281  0.7215E-10  0.1166E-08  0.7184E-13  0.7415E-09  0.0000E+00  0.4932E+15
   -1.718761    3.78150  0.7214E-10  0.2176E-08  0.1313E-12  0.2517E-08  0.0000E+00  0.2656E+15
   -1.787513    3.89621  0.7214E-10  0.4000E-08  0.2367E-12  0.1922E-07  0.0000E+00  0.6276E+14
   -1.856265    3.99698  0.7214E-10  0.4463E-08  0.2653E-12  0.2745E-04  0.0000E+00 -0.9962E+11
   -1.925016    3.99756  0.7214E-10  0.4669E-08  0.2812E-12  0.2808E-04  0.0000E+00 -0.1017E+12
   -1.993767    3.99813  0.7214E-10  0.4844E-08  0.2982E-12  0.2814E-04  0.0000E+00 -0.1057E+12
   -2.062518    3.99868  0.7214E-10  0.4990E-08  0.3172E-12  0.2794E-04  0.0000E+00 -0.1124E+12
   -2.131268    3.99925  0.7214E-10  0.5116E-08  0.3399E-12  0.2731E-04  0.0000E+00 -0.1226E+12
   -2.200018    3.99984  0.7214E-10  0.5219E-08  0.3678E-12  0.2611E-04  0.0000E+00 -0.1375E+12
   -2.268768    4.00048  0.7214E-10  0.5295E-08  0.4032E-12  0.2429E-04  0.0000E+00 -0.1597E+12
   -2.337517    4.00118  0.7214E-10  0.5338E-08  0.4505E-12  0.2181E-04  0.0000E+00 -0.1949E+12
   -2.406266    4.00199  0.7214E-10  0.5333E-08  0.5180E-12  0.1859E-04  0.0000E+00 -0.2557E+12
   -2.475014    4.00300  0.7214E-10  0.5247E-08  0.6245E-12  0.1454E-04  0.0000E+00 -0.3786E+12
   -2.543762    4.00439  0.7214E-10  0.4996E-08  0.8254E-12  0.9431E-05  0.0000E+00 -0.7060E+12
   -2.612509    4.00673  0.7214E-10  0.4352E-08  0.1305E-11  0.4050E-05  0.0000E+00 -0.2156E+13
   -2.681255    4.01262  0.7214E-10  0.2397E-08  0.3561E-11  0.3795E-06  0.0000E+00 -0.4563E+14
   -2.750001    4.06707  0.7214E-10  0.0000E+00  0.0000E+00  0.0000E+00  0.0000E+00  0.0000E+00
