 1 - depth, m
 2 - temperature, C
 3 - salinity, kg/kg
 4 - turbulent kinetic energy, m**2/s**2
 5 - dissipation rate, m**2/s**3
 6 - kinematic heat conductance, m**2/s
 7 - modulus of horizontal velocity, m/s
 8 - Richardson number, n/d
   -0.000000   -0.00000  0.4887E-09  0.1036E-11  0.2803E-15  0.1000E-09  0.0000E+00  0.2408E+17
   -0.068745    0.38050  0.1832E-10  0.2846E-11  0.4644E-15  0.1000E-09  0.0000E+00  0.1885E+17
   -0.137491    0.71116  0.7292E-10  0.7752E-11  0.1118E-14  0.1000E-09  0.0000E+00  0.1472E+17
   -0.206238    0.99627  0.6762E-10  0.2020E-10  0.2790E-14  0.1000E-09  0.0000E+00  0.1159E+17
   -0.274985    1.24273  0.6799E-10  0.5160E-10  0.6918E-14  0.1000E-09  0.0000E+00  0.9304E+16
   -0.343733    1.45872  0.6796E-10  0.1300E-09  0.1697E-13  0.1000E-09  0.0000E+00  0.7870E+16
   -0.412481    1.65772  0.6796E-10  0.3243E-09  0.4125E-13  0.1000E-09  0.0000E+00  0.6947E+16
   -0.481230    1.84944  0.6796E-10  0.8012E-09  0.9941E-13  0.1061E-09  0.0000E+00  0.6461E+16
   -0.549979    2.04537  0.6796E-10  0.1961E-08  0.2374E-12  0.1868E-09  0.0000E+00  0.6417E+16
   -0.618729    2.26277  0.6796E-10  0.4733E-08  0.5593E-12  0.4279E-09  0.0000E+00  0.6616E+16
   -0.687479    2.52157  0.6796E-10  0.1129E-07  0.1302E-11  0.9971E-09  0.0000E+00  0.6655E+16
   -0.756229    2.84131  0.6794E-10  0.2661E-07  0.2993E-11  0.2546E-08  0.0000E+00  0.6067E+16
   -0.824980    3.24893  0.6777E-10  0.6148E-07  0.6750E-11  0.1066E-07  0.0000E+00  0.3776E+16
   -0.893731    3.75489  0.6643E-10  0.1044E-06  0.1124E-10  0.7216E-04  0.0000E+00  0.5669E+15
   -0.962482    4.05492  0.6559E-10  0.1056E-06  0.1137E-10  0.3396E-03  0.0000E+00 -0.3032E+12
   -1.031233    4.05520  0.6559E-10  0.1062E-06  0.1146E-10  0.3333E-03  0.0000E+00 -0.3152E+12
   -1.099985    4.05550  0.6559E-10  0.1067E-06  0.1156E-10  0.3333E-03  0.0000E+00 -0.3181E+12
   -1.168737    4.05580  0.6559E-10  0.1072E-06  0.1167E-10  0.3330E-03  0.0000E+00 -0.3229E+12
   -1.237488    4.05609  0.6559E-10  0.1076E-06  0.1179E-10  0.3321E-03  0.0000E+00 -0.3285E+12
   -1.306240    4.05640  0.6559E-10  0.1079E-06  0.1193E-10  0.3306E-03  0.0000E+00 -0.3350E+12
   -1.374992    4.05670  0.6559E-10  0.1083E-06  0.1207E-10  0.3285E-03  0.0000E+00 -0.3411E+12
   -1.443744    4.05701  0.6559E-10  0.1085E-06  0.1224E-10  0.3259E-03  0.0000E+00 -0.3459E+12
   -1.512496    4.05733  0.6559E-10  0.1087E-06  0.1242E-10  0.3226E-03  0.0000E+00 -0.3517E+12
   -1.581248    4.05764  0.6558E-10  0.1088E-06  0.1262E-10  0.3187E-03  0.0000E+00 -0.3585E+12
   -1.650000    4.05796  0.6558E-10  0.1088E-06  0.1284E-10  0.3141E-03  0.0000E+00 -0.3665E+12
   -1.718751    4.05829  0.6558E-10  0.1088E-06  0.1308E-10  0.3088E-03  0.0000E+00 -0.3757E+12
   -1.787502    4.05862  0.6558E-10  0.1087E-06  0.1334E-10  0.3028E-03  0.0000E+00 -0.3862E+12
   -1.856254    4.05896  0.6558E-10  0.1085E-06  0.1364E-10  0.2961E-03  0.0000E+00 -0.3984E+12
   -1.925005    4.05931  0.6558E-10  0.1083E-06  0.1398E-10  0.2886E-03  0.0000E+00 -0.4124E+12
   -1.993755    4.05967  0.6558E-10  0.1079E-06  0.1435E-10  0.2806E-03  0.0000E+00 -0.4283E+12
   -2.062506    4.06005  0.6558E-10  0.1075E-06  0.1477E-10  0.2716E-03  0.0000E+00 -0.4463E+12
   -2.131256    4.06043  0.6558E-10  0.1069E-06  0.1529E-10  0.2610E-03  0.0000E+00 -0.4683E+12
   -2.200005    4.06083  0.6558E-10  0.1062E-06  0.1592E-10  0.2489E-03  0.0000E+00 -0.4958E+12
   -2.268754    4.06126  0.6558E-10  0.1053E-06  0.1673E-10  0.2348E-03  0.0000E+00 -0.5315E+12
   -2.337503    4.06171  0.6558E-10  0.1042E-06  0.1777E-10  0.2184E-03  0.0000E+00 -0.5792E+12
   -2.406251    4.06220  0.6558E-10  0.1027E-06  0.1920E-10  0.1974E-03  0.0000E+00 -0.6489E+12
   -2.474999    4.06274  0.6558E-10  0.1004E-06  0.2164E-10  0.1526E-03  0.0000E+00 -0.8561E+12
   -2.543746    4.06346  0.6558E-10  0.9583E-07  0.2680E-10  0.8487E-04  0.0000E+00 -0.1588E+13
   -2.612493    4.06476  0.6558E-10  0.8710E-07  0.3866E-10  0.4059E-04  0.0000E+00 -0.3467E+13
   -2.681239    4.06754  0.6558E-10  0.4233E-07  0.1270E-09  0.2172E-05  0.0000E+00 -0.8372E+14
   -2.749985    4.11787  0.6558E-10  0.0000E+00  0.0000E+00  0.0000E+00  0.0000E+00  0.0000E+00
