 1 - depth, m
 2 - temperature, C
 3 - salinity, kg/kg
 4 - turbulent kinetic energy, m**2/s**2
 5 - dissipation rate, m**2/s**3
 6 - kinematic heat conductance, m**2/s
 7 - modulus of horizontal velocity, m/s
 8 - Richardson number, n/d
   -0.000000   -0.00000  0.8170E-10  0.1218E-13  0.7603E-17  0.1000E-09  0.0000E+00  0.1072E+17
   -0.068746    0.16445  0.1618E-09  0.1218E-13  0.7603E-17  0.1000E-09  0.0000E+00  0.1073E+17
   -0.137493    0.33692  0.1505E-09  0.1218E-13  0.7603E-17  0.1000E-09  0.0000E+00  0.1047E+17
   -0.206241    0.51394  0.1242E-09  0.1218E-13  0.7603E-17  0.1000E-09  0.0000E+00  0.1005E+17
   -0.274989    0.69351  0.1007E-09  0.1218E-13  0.7603E-17  0.1000E-09  0.0000E+00  0.9536E+16
   -0.343738    0.87395  0.8511E-10  0.1218E-13  0.7603E-17  0.1000E-09  0.0000E+00  0.8975E+16
   -0.412487    1.05447  0.7693E-10  0.2051E-13  0.7603E-17  0.1000E-09  0.0000E+00  0.8370E+16
   -0.481237    1.23402  0.7334E-10  0.7778E-13  0.8827E-17  0.1000E-09  0.0000E+00  0.7744E+16
   -0.549987    1.41180  0.7196E-10  0.1931E-12  0.1611E-16  0.1000E-09  0.0000E+00  0.7130E+16
   -0.618738    1.58764  0.7148E-10  0.4131E-12  0.3149E-16  0.1000E-09  0.0000E+00  0.6536E+16
   -0.687489    1.76155  0.7130E-10  0.8375E-12  0.6141E-16  0.1000E-09  0.0000E+00  0.5954E+16
   -0.756240    1.93325  0.7118E-10  0.1660E-11  0.1186E-15  0.1000E-09  0.0000E+00  0.5397E+16
   -0.824992    2.10283  0.7102E-10  0.3252E-11  0.2270E-15  0.1000E-09  0.0000E+00  0.4855E+16
   -0.893744    2.27015  0.7079E-10  0.6317E-11  0.4314E-15  0.1000E-09  0.0000E+00  0.4333E+16
   -0.962496    2.43508  0.7047E-10  0.1218E-10  0.8140E-15  0.1000E-09  0.0000E+00  0.3829E+16
   -1.031249    2.59752  0.7007E-10  0.2332E-10  0.1526E-14  0.1000E-09  0.0000E+00  0.3343E+16
   -1.100001    2.75717  0.6965E-10  0.4451E-10  0.2850E-14  0.1000E-09  0.0000E+00  0.2866E+16
   -1.168754    2.91323  0.6926E-10  0.8451E-10  0.5299E-14  0.1000E-09  0.0000E+00  0.2413E+16
   -1.237507    3.06529  0.6897E-10  0.1595E-09  0.9797E-14  0.1000E-09  0.0000E+00  0.1985E+16
   -1.306260    3.21282  0.6878E-10  0.2993E-09  0.1800E-13  0.1000E-09  0.0000E+00  0.1584E+16
   -1.375012    3.35521  0.6868E-10  0.5582E-09  0.3289E-13  0.1370E-09  0.0000E+00  0.1222E+16
   -1.443765    3.49271  0.6864E-10  0.1034E-08  0.5971E-13  0.3379E-09  0.0000E+00  0.9005E+15
   -1.512518    3.62650  0.6862E-10  0.1905E-08  0.1077E-12  0.9076E-09  0.0000E+00  0.6056E+15
   -1.581271    3.75711  0.6861E-10  0.3482E-08  0.1931E-12  0.2969E-08  0.0000E+00  0.3322E+15
   -1.650024    3.88504  0.6861E-10  0.6264E-08  0.3409E-12  0.2214E-07  0.0000E+00  0.7922E+14
   -1.718776    3.99937  0.6861E-10  0.6698E-08  0.3657E-12  0.4611E-04  0.0000E+00 -0.8516E+11
   -1.787529    3.99978  0.6861E-10  0.6889E-08  0.3791E-12  0.4662E-04  0.0000E+00 -0.8608E+11
   -1.856281    4.00018  0.6861E-10  0.7052E-08  0.3932E-12  0.4658E-04  0.0000E+00 -0.8793E+11
   -1.925033    4.00058  0.6861E-10  0.7187E-08  0.4084E-12  0.4599E-04  0.0000E+00 -0.9077E+11
   -1.993785    4.00098  0.6861E-10  0.7295E-08  0.4251E-12  0.4486E-04  0.0000E+00 -0.9476E+11
   -2.062536    4.00139  0.6861E-10  0.7379E-08  0.4440E-12  0.4355E-04  0.0000E+00 -0.1006E+12
   -2.131287    4.00181  0.6861E-10  0.7439E-08  0.4668E-12  0.4176E-04  0.0000E+00 -0.1090E+12
   -2.200038    4.00225  0.6861E-10  0.7472E-08  0.4952E-12  0.3930E-04  0.0000E+00 -0.1209E+12
   -2.268788    4.00273  0.6861E-10  0.7474E-08  0.5315E-12  0.3609E-04  0.0000E+00 -0.1382E+12
   -2.337538    4.00326  0.6861E-10  0.7432E-08  0.5804E-12  0.3204E-04  0.0000E+00 -0.1649E+12
   -2.406287    4.00387  0.6861E-10  0.7328E-08  0.6506E-12  0.2706E-04  0.0000E+00 -0.2099E+12
   -2.475036    4.00462  0.6861E-10  0.7121E-08  0.7617E-12  0.2100E-04  0.0000E+00 -0.2978E+12
   -2.543784    4.00563  0.6861E-10  0.6704E-08  0.9713E-12  0.1360E-04  0.0000E+00 -0.5224E+12
   -2.612532    4.00728  0.6861E-10  0.5805E-08  0.1470E-11  0.5917E-05  0.0000E+00 -0.1447E+13
   -2.681279    4.01130  0.6861E-10  0.2844E-08  0.4094E-11  0.4159E-06  0.0000E+00 -0.3770E+14
   -2.750025    4.06008  0.6861E-10  0.0000E+00  0.0000E+00  0.0000E+00  0.0000E+00  0.0000E+00
