 1 - depth, m
 2 - temperature, C
 3 - salinity, kg/kg
 4 - turbulent kinetic energy, m**2/s**2
 5 - dissipation rate, m**2/s**3
 6 - kinematic heat conductance, m**2/s
 7 - modulus of horizontal velocity, m/s
 8 - Richardson number, n/d
   -0.000000   -0.00000  0.7181E-07  0.4758E-09  0.4650E-12  0.1000E-09  0.0000E+00  0.4716E+17
   -0.068745    0.79146  0.0000E+00  0.3422E-08  0.4651E-12  0.1000E-09  0.0000E+00  0.3437E+17
   -0.137491    1.53359  0.8899E-10  0.9396E-08  0.8424E-12  0.1801E-09  0.0000E+00  0.2382E+17
   -0.206238    2.23214  0.5577E-10  0.2088E-07  0.1681E-11  0.5690E-09  0.0000E+00  0.1505E+17
   -0.274985    2.89079  0.7038E-10  0.4333E-07  0.3351E-11  0.2214E-08  0.0000E+00  0.7713E+16
   -0.343733    3.50850  0.6621E-10  0.8671E-07  0.6553E-11  0.1885E-07  0.0000E+00  0.1778E+16
   -0.412482    4.03670  0.6625E-10  0.8741E-07  0.6610E-11  0.3941E-03  0.0000E+00 -0.1635E+12
   -0.481230    4.03690  0.6625E-10  0.8773E-07  0.6642E-11  0.3855E-03  0.0000E+00 -0.1649E+12
   -0.549980    4.03711  0.6625E-10  0.8803E-07  0.6678E-11  0.3858E-03  0.0000E+00 -0.1634E+12
   -0.618729    4.03732  0.6625E-10  0.8829E-07  0.6717E-11  0.3861E-03  0.0000E+00 -0.1624E+12
   -0.687479    4.03752  0.6625E-10  0.8852E-07  0.6761E-11  0.3859E-03  0.0000E+00 -0.1619E+12
   -0.756230    4.03772  0.6625E-10  0.8873E-07  0.6809E-11  0.3852E-03  0.0000E+00 -0.1619E+12
   -0.824980    4.03792  0.6625E-10  0.8890E-07  0.6861E-11  0.3841E-03  0.0000E+00 -0.1624E+12
   -0.893731    4.03812  0.6625E-10  0.8905E-07  0.6917E-11  0.3825E-03  0.0000E+00 -0.1633E+12
   -0.962483    4.03832  0.6625E-10  0.8917E-07  0.6979E-11  0.3804E-03  0.0000E+00 -0.1646E+12
   -1.031234    4.03853  0.6625E-10  0.8926E-07  0.7046E-11  0.3779E-03  0.0000E+00 -0.1663E+12
   -1.099986    4.03873  0.6625E-10  0.8932E-07  0.7119E-11  0.3749E-03  0.0000E+00 -0.1684E+12
   -1.168737    4.03893  0.6625E-10  0.8935E-07  0.7200E-11  0.3715E-03  0.0000E+00 -0.1708E+12
   -1.237489    4.03914  0.6625E-10  0.8936E-07  0.7288E-11  0.3675E-03  0.0000E+00 -0.1737E+12
   -1.306241    4.03935  0.6625E-10  0.8934E-07  0.7384E-11  0.3631E-03  0.0000E+00 -0.1770E+12
   -1.374993    4.03956  0.6625E-10  0.8929E-07  0.7490E-11  0.3582E-03  0.0000E+00 -0.1808E+12
   -1.443745    4.03978  0.6625E-10  0.8921E-07  0.7605E-11  0.3528E-03  0.0000E+00 -0.1848E+12
   -1.512497    4.04000  0.6625E-10  0.8909E-07  0.7732E-11  0.3468E-03  0.0000E+00 -0.1894E+12
   -1.581249    4.04022  0.6625E-10  0.8895E-07  0.7871E-11  0.3404E-03  0.0000E+00 -0.1946E+12
   -1.650000    4.04045  0.6625E-10  0.8876E-07  0.8024E-11  0.3334E-03  0.0000E+00 -0.2004E+12
   -1.718752    4.04069  0.6625E-10  0.8855E-07  0.8193E-11  0.3259E-03  0.0000E+00 -0.2069E+12
   -1.787503    4.04093  0.6625E-10  0.8829E-07  0.8379E-11  0.3178E-03  0.0000E+00 -0.2143E+12
   -1.856254    4.04118  0.6625E-10  0.8800E-07  0.8586E-11  0.3092E-03  0.0000E+00 -0.2225E+12
   -1.925005    4.04144  0.6625E-10  0.8766E-07  0.8817E-11  0.3000E-03  0.0000E+00 -0.2318E+12
   -1.993756    4.04171  0.6625E-10  0.8728E-07  0.9074E-11  0.2904E-03  0.0000E+00 -0.2422E+12
   -2.062507    4.04199  0.6625E-10  0.8685E-07  0.9367E-11  0.2799E-03  0.0000E+00 -0.2540E+12
   -2.131257    4.04228  0.6625E-10  0.8634E-07  0.9720E-11  0.2679E-03  0.0000E+00 -0.2680E+12
   -2.200006    4.04258  0.6625E-10  0.8573E-07  0.1015E-10  0.2545E-03  0.0000E+00 -0.2855E+12
   -2.268755    4.04290  0.6625E-10  0.8499E-07  0.1070E-10  0.2392E-03  0.0000E+00 -0.3076E+12
   -2.337504    4.04325  0.6625E-10  0.8408E-07  0.1140E-10  0.2218E-03  0.0000E+00 -0.3366E+12
   -2.406253    4.04362  0.6625E-10  0.8287E-07  0.1240E-10  0.2020E-03  0.0000E+00 -0.3756E+12
   -2.475000    4.04404  0.6625E-10  0.8092E-07  0.1415E-10  0.1326E-03  0.0000E+00 -0.5845E+12
   -2.543748    4.04469  0.6625E-10  0.7720E-07  0.1789E-10  0.7614E-04  0.0000E+00 -0.1050E+13
   -2.612494    4.04582  0.6625E-10  0.7015E-07  0.2641E-10  0.3634E-04  0.0000E+00 -0.2308E+13
   -2.681240    4.04825  0.6625E-10  0.3402E-07  0.8994E-10  0.1914E-05  0.0000E+00 -0.5830E+14
   -2.749986    4.09253  0.6625E-10  0.0000E+00  0.0000E+00  0.0000E+00  0.0000E+00  0.0000E+00
