 1 - depth, m
 2 - temperature, C
 3 - salinity, kg/kg
 4 - turbulent kinetic energy, m**2/s**2
 5 - dissipation rate, m**2/s**3
 6 - kinematic heat conductance, m**2/s
 7 - modulus of horizontal velocity, m/s
 8 - Richardson number, n/d
   -0.000000   -0.00000  0.3023E-09  0.1219E-13  0.7604E-17  0.1000E-09  0.0000E+00  0.1297E+17
   -0.068746    0.19987  0.1425E-09  0.1219E-13  0.7604E-17  0.1000E-09  0.0000E+00  0.1200E+17
   -0.137492    0.39532  0.9831E-10  0.1219E-13  0.7604E-17  0.1000E-09  0.0000E+00  0.1098E+17
   -0.206239    0.58474  0.8180E-10  0.3233E-13  0.7604E-17  0.1000E-09  0.0000E+00  0.1005E+17
   -0.274986    0.76849  0.7693E-10  0.1014E-12  0.1121E-16  0.1000E-09  0.0000E+00  0.9210E+16
   -0.343734    0.94711  0.7579E-10  0.2429E-12  0.2225E-16  0.1000E-09  0.0000E+00  0.8496E+16
   -0.412483    1.12227  0.7557E-10  0.5279E-12  0.4555E-16  0.1000E-09  0.0000E+00  0.7836E+16
   -0.481232    1.29442  0.7553E-10  0.1106E-11  0.9252E-16  0.1000E-09  0.0000E+00  0.7224E+16
   -0.549981    1.46401  0.7552E-10  0.2282E-11  0.1862E-15  0.1000E-09  0.0000E+00  0.6689E+16
   -0.618731    1.63239  0.7552E-10  0.4642E-11  0.3702E-15  0.1000E-09  0.0000E+00  0.6216E+16
   -0.687481    1.80095  0.7552E-10  0.9359E-11  0.7298E-15  0.1000E-09  0.0000E+00  0.5763E+16
   -0.756232    1.97028  0.7551E-10  0.1873E-10  0.1428E-14  0.1000E-09  0.0000E+00  0.5373E+16
   -0.824983    2.14259  0.7549E-10  0.3720E-10  0.2777E-14  0.1000E-09  0.0000E+00  0.4967E+16
   -0.893734    2.31815  0.7544E-10  0.7340E-10  0.5361E-14  0.1000E-09  0.0000E+00  0.4539E+16
   -0.962485    2.49712  0.7534E-10  0.1438E-09  0.1028E-13  0.1000E-09  0.0000E+00  0.4085E+16
   -1.031237    2.67954  0.7515E-10  0.2800E-09  0.1960E-13  0.1000E-09  0.0000E+00  0.3603E+16
   -1.099989    2.86539  0.7489E-10  0.5432E-09  0.3724E-13  0.1000E-09  0.0000E+00  0.3094E+16
   -1.168741    3.05475  0.7455E-10  0.1049E-08  0.7045E-13  0.1405E-09  0.0000E+00  0.2553E+16
   -1.237493    3.24725  0.7417E-10  0.2014E-08  0.1325E-12  0.3407E-09  0.0000E+00  0.1980E+16
   -1.306245    3.44224  0.7372E-10  0.3843E-08  0.2478E-12  0.9129E-09  0.0000E+00  0.1382E+16
   -1.374997    3.63867  0.7301E-10  0.7280E-08  0.4602E-12  0.3052E-08  0.0000E+00  0.7676E+15
   -1.443749    3.83381  0.7221E-10  0.1356E-07  0.8416E-12  0.2386E-07  0.0000E+00  0.1796E+15
   -1.512501    4.00530  0.7205E-10  0.1413E-07  0.8793E-12  0.8404E-04  0.0000E+00 -0.1009E+12
   -1.581253    4.00563  0.7205E-10  0.1439E-07  0.8999E-12  0.9137E-04  0.0000E+00 -0.9531E+11
   -1.650005    4.00595  0.7205E-10  0.1461E-07  0.9214E-12  0.9156E-04  0.0000E+00 -0.9763E+11
   -1.718757    4.00626  0.7205E-10  0.1480E-07  0.9441E-12  0.9164E-04  0.0000E+00 -0.1002E+12
   -1.787509    4.00658  0.7205E-10  0.1496E-07  0.9690E-12  0.9128E-04  0.0000E+00 -0.1033E+12
   -1.856260    4.00690  0.7205E-10  0.1510E-07  0.9968E-12  0.9046E-04  0.0000E+00 -0.1071E+12
   -1.925011    4.00723  0.7205E-10  0.1521E-07  0.1028E-11  0.8915E-04  0.0000E+00 -0.1117E+12
   -1.993762    4.00757  0.7205E-10  0.1530E-07  0.1064E-11  0.8709E-04  0.0000E+00 -0.1177E+12
   -2.062513    4.00792  0.7205E-10  0.1536E-07  0.1106E-11  0.8184E-04  0.0000E+00 -0.1290E+12
   -2.131263    4.00830  0.7205E-10  0.1539E-07  0.1159E-11  0.7499E-04  0.0000E+00 -0.1456E+12
   -2.200013    4.00872  0.7205E-10  0.1538E-07  0.1226E-11  0.6758E-04  0.0000E+00 -0.1679E+12
   -2.268762    4.00919  0.7205E-10  0.1531E-07  0.1313E-11  0.6035E-04  0.0000E+00 -0.1967E+12
   -2.337511    4.00973  0.7205E-10  0.1518E-07  0.1432E-11  0.5291E-04  0.0000E+00 -0.2368E+12
   -2.406260    4.01037  0.7205E-10  0.1494E-07  0.1602E-11  0.4449E-04  0.0000E+00 -0.3014E+12
   -2.475008    4.01116  0.7205E-10  0.1453E-07  0.1870E-11  0.3460E-04  0.0000E+00 -0.4242E+12
   -2.543755    4.01222  0.7205E-10  0.1375E-07  0.2371E-11  0.2277E-04  0.0000E+00 -0.7253E+12
   -2.612502    4.01395  0.7205E-10  0.1216E-07  0.3529E-11  0.1052E-04  0.0000E+00 -0.1852E+13
   -2.681248    4.01794  0.7205E-10  0.6099E-08  0.1030E-10  0.7324E-06  0.0000E+00 -0.4934E+14
   -2.749994    4.07178  0.7205E-10  0.0000E+00  0.0000E+00  0.0000E+00  0.0000E+00  0.0000E+00
