 1 - depth, m
 2 - temperature, C
 3 - salinity, kg/kg
 4 - turbulent kinetic energy, m**2/s**2
 5 - dissipation rate, m**2/s**3
 6 - kinematic heat conductance, m**2/s
 7 - modulus of horizontal velocity, m/s
 8 - Richardson number, n/d
   -0.000000   -0.00000  0.2456E-09  0.1219E-13  0.7603E-17  0.1000E-09  0.0000E+00  0.1100E+17
   -0.068746    0.16886  0.1585E-09  0.1219E-13  0.7603E-17  0.1000E-09  0.0000E+00  0.1028E+17
   -0.137492    0.33423  0.1021E-09  0.1219E-13  0.7603E-17  0.1000E-09  0.0000E+00  0.9448E+16
   -0.206239    0.49351  0.8476E-10  0.1219E-13  0.7603E-17  0.1000E-09  0.0000E+00  0.8654E+16
   -0.274987    0.64647  0.8090E-10  0.1219E-13  0.7603E-17  0.1000E-09  0.0000E+00  0.7920E+16
   -0.343735    0.79323  0.8021E-10  0.1219E-13  0.7603E-17  0.1000E-09  0.0000E+00  0.7332E+16
   -0.412484    0.93576  0.8011E-10  0.1219E-13  0.7603E-17  0.1000E-09  0.0000E+00  0.6787E+16
   -0.481233    1.07422  0.8009E-10  0.1219E-13  0.7603E-17  0.1000E-09  0.0000E+00  0.6282E+16
   -0.549983    1.20886  0.8009E-10  0.5068E-13  0.7603E-17  0.1000E-09  0.0000E+00  0.5882E+16
   -0.618733    1.34142  0.8009E-10  0.1377E-12  0.1384E-16  0.1000E-09  0.0000E+00  0.5576E+16
   -0.687483    1.47382  0.8009E-10  0.3132E-12  0.2834E-16  0.1000E-09  0.0000E+00  0.5299E+16
   -0.756234    1.60677  0.8009E-10  0.6697E-12  0.5813E-16  0.1000E-09  0.0000E+00  0.5112E+16
   -0.824985    1.74279  0.8008E-10  0.1398E-11  0.1180E-15  0.1000E-09  0.0000E+00  0.4925E+16
   -0.893736    1.88246  0.8006E-10  0.2880E-11  0.2373E-15  0.1000E-09  0.0000E+00  0.4732E+16
   -0.962488    2.02637  0.8001E-10  0.5878E-11  0.4732E-15  0.1000E-09  0.0000E+00  0.4527E+16
   -1.031240    2.17508  0.7988E-10  0.1190E-10  0.9365E-15  0.1000E-09  0.0000E+00  0.4299E+16
   -1.099992    2.32901  0.7965E-10  0.2400E-10  0.1846E-14  0.1000E-09  0.0000E+00  0.4035E+16
   -1.168744    2.48821  0.7932E-10  0.4810E-10  0.3618E-14  0.1000E-09  0.0000E+00  0.3742E+16
   -1.237496    2.65320  0.7892E-10  0.9579E-10  0.7045E-14  0.1000E-09  0.0000E+00  0.3413E+16
   -1.306248    2.82441  0.7854E-10  0.1894E-09  0.1363E-13  0.1000E-09  0.0000E+00  0.3038E+16
   -1.375000    3.00211  0.7821E-10  0.3721E-09  0.2620E-13  0.1000E-09  0.0000E+00  0.2621E+16
   -1.443753    3.18708  0.7789E-10  0.7262E-09  0.5005E-13  0.1185E-09  0.0000E+00  0.2150E+16
   -1.512505    3.38027  0.7749E-10  0.1408E-08  0.9498E-13  0.3020E-09  0.0000E+00  0.1601E+16
   -1.581257    3.58071  0.7697E-10  0.2711E-08  0.1791E-12  0.9296E-09  0.0000E+00  0.9809E+15
   -1.650009    3.78656  0.7638E-10  0.5176E-08  0.3350E-12  0.5449E-08  0.0000E+00  0.3130E+15
   -1.718761    3.99071  0.7610E-10  0.5820E-08  0.3787E-12  0.2401E-04  0.0000E+00 -0.9857E+11
   -1.787513    3.99196  0.7610E-10  0.6152E-08  0.4067E-12  0.2728E-04  0.0000E+00 -0.1086E+12
   -1.856265    3.99307  0.7610E-10  0.6466E-08  0.4385E-12  0.2966E-04  0.0000E+00 -0.1188E+12
   -1.925016    3.99411  0.7610E-10  0.6759E-08  0.4741E-12  0.3124E-04  0.0000E+00 -0.1302E+12
   -1.993767    3.99511  0.7610E-10  0.7028E-08  0.5139E-12  0.3211E-04  0.0000E+00 -0.1439E+12
   -2.062518    3.99610  0.7610E-10  0.7273E-08  0.5589E-12  0.3230E-04  0.0000E+00 -0.1608E+12
   -2.131268    3.99710  0.7610E-10  0.7502E-08  0.6133E-12  0.3175E-04  0.0000E+00 -0.1833E+12
   -2.200018    3.99813  0.7610E-10  0.7712E-08  0.6802E-12  0.3045E-04  0.0000E+00 -0.2141E+12
   -2.268768    3.99924  0.7610E-10  0.7895E-08  0.7655E-12  0.2837E-04  0.0000E+00 -0.2588E+12
   -2.337517    4.00046  0.7610E-10  0.8042E-08  0.8791E-12  0.2547E-04  0.0000E+00 -0.3279E+12
   -2.406266    4.00186  0.7610E-10  0.8132E-08  0.1041E-11  0.2171E-04  0.0000E+00 -0.4466E+12
   -2.475014    4.00360  0.7610E-10  0.8123E-08  0.1296E-11  0.1701E-04  0.0000E+00 -0.6854E+12
   -2.543762    4.00597  0.7610E-10  0.7901E-08  0.1777E-11  0.1116E-04  0.0000E+00 -0.1322E+13
   -2.612509    4.00987  0.7610E-10  0.7153E-08  0.2921E-11  0.5048E-05  0.0000E+00 -0.4095E+13
   -2.681255    4.01914  0.7610E-10  0.4583E-08  0.8457E-11  0.6289E-06  0.0000E+00 -0.7550E+14
   -2.750001    4.08988  0.7610E-10  0.0000E+00  0.0000E+00  0.0000E+00  0.0000E+00  0.0000E+00
