 1 - depth, m
 2 - temperature, C
 3 - salinity, kg/kg
 4 - turbulent kinetic energy, m**2/s**2
 5 - dissipation rate, m**2/s**3
 6 - kinematic heat conductance, m**2/s
 7 - modulus of horizontal velocity, m/s
 8 - Richardson number, n/d
   -0.000000   -0.00000  0.1595E-09  0.1219E-13  0.7603E-17  0.1000E-09  0.0000E+00  0.9226E+16
   -0.068746    0.14107  0.1812E-09  0.1219E-13  0.7603E-17  0.1000E-09  0.0000E+00  0.8953E+16
   -0.137493    0.28345  0.1642E-09  0.1219E-13  0.7603E-17  0.1000E-09  0.0000E+00  0.8582E+16
   -0.206240    0.42562  0.1345E-09  0.1219E-13  0.7603E-17  0.1000E-09  0.0000E+00  0.8193E+16
   -0.274987    0.56720  0.1085E-09  0.1219E-13  0.7603E-17  0.1000E-09  0.0000E+00  0.7795E+16
   -0.343736    0.70792  0.9251E-10  0.1219E-13  0.7603E-17  0.1000E-09  0.0000E+00  0.7402E+16
   -0.412485    0.84771  0.8477E-10  0.1219E-13  0.7603E-17  0.1000E-09  0.0000E+00  0.7006E+16
   -0.481234    0.98635  0.8165E-10  0.1219E-13  0.7603E-17  0.1000E-09  0.0000E+00  0.6610E+16
   -0.549984    1.12361  0.8055E-10  0.1219E-13  0.7603E-17  0.1000E-09  0.0000E+00  0.6222E+16
   -0.618734    1.25944  0.8019E-10  0.1219E-13  0.7603E-17  0.1000E-09  0.0000E+00  0.5844E+16
   -0.687485    1.39381  0.8006E-10  0.1219E-13  0.7603E-17  0.1000E-09  0.0000E+00  0.5473E+16
   -0.756235    1.52659  0.7997E-10  0.1219E-13  0.7603E-17  0.1000E-09  0.0000E+00  0.5120E+16
   -0.824987    1.65793  0.7988E-10  0.1219E-13  0.7603E-17  0.1000E-09  0.0000E+00  0.4772E+16
   -0.893738    1.78771  0.7974E-10  0.1219E-13  0.7603E-17  0.1000E-09  0.0000E+00  0.4431E+16
   -0.962490    1.91577  0.7956E-10  0.1219E-13  0.7603E-17  0.1000E-09  0.0000E+00  0.4099E+16
   -1.031242    2.04197  0.7932E-10  0.1219E-13  0.7603E-17  0.1000E-09  0.0000E+00  0.3774E+16
   -1.099994    2.16617  0.7904E-10  0.1219E-13  0.7603E-17  0.1000E-09  0.0000E+00  0.3458E+16
   -1.168746    2.28816  0.7871E-10  0.1219E-13  0.7603E-17  0.1000E-09  0.0000E+00  0.3151E+16
   -1.237499    2.40778  0.7835E-10  0.1219E-13  0.7603E-17  0.1000E-09  0.0000E+00  0.2857E+16
   -1.306251    2.52487  0.7796E-10  0.1219E-13  0.7603E-17  0.1000E-09  0.0000E+00  0.2574E+16
   -1.375003    2.63928  0.7756E-10  0.1219E-13  0.7603E-17  0.1000E-09  0.0000E+00  0.2308E+16
   -1.443756    2.75106  0.7718E-10  0.1219E-13  0.7603E-17  0.1000E-09  0.0000E+00  0.2061E+16
   -1.512508    2.86041  0.7685E-10  0.1219E-13  0.7603E-17  0.1000E-09  0.0000E+00  0.1825E+16
   -1.581261    2.96720  0.7658E-10  0.1219E-13  0.7603E-17  0.1000E-09  0.0000E+00  0.1602E+16
   -1.650013    3.07131  0.7640E-10  0.3948E-13  0.9209E-17  0.1000E-09  0.0000E+00  0.1391E+16
   -1.718765    3.17263  0.7629E-10  0.1252E-12  0.2335E-16  0.1000E-09  0.0000E+00  0.1193E+16
   -1.787517    3.27103  0.7623E-10  0.3589E-12  0.6331E-16  0.1000E-09  0.0000E+00  0.1008E+16
   -1.856269    3.36642  0.7621E-10  0.9940E-12  0.1696E-15  0.1000E-09  0.0000E+00  0.8368E+15
   -1.925020    3.45868  0.7619E-10  0.2706E-11  0.4478E-15  0.1000E-09  0.0000E+00  0.6790E+15
   -1.993771    3.54772  0.7619E-10  0.7264E-11  0.1168E-14  0.1000E-09  0.0000E+00  0.5346E+15
   -2.062522    3.63343  0.7619E-10  0.1939E-10  0.3030E-14  0.1000E-09  0.0000E+00  0.4161E+15
   -2.131273    3.71861  0.7619E-10  0.5238E-10  0.7957E-14  0.1327E-09  0.0000E+00  0.3047E+15
   -2.200023    3.80493  0.7619E-10  0.1409E-09  0.2083E-13  0.5586E-09  0.0000E+00  0.1893E+15
   -2.268773    3.89261  0.7619E-10  0.3767E-09  0.5427E-13  0.4018E-08  0.0000E+00  0.6848E+14
   -2.337522    3.98008  0.7619E-10  0.8820E-09  0.1259E-12  0.9267E-06  0.0000E+00 -0.2954E+11
   -2.406271    3.99392  0.7619E-10  0.1452E-08  0.2401E-12  0.2897E-05  0.0000E+00 -0.7305E+12
   -2.475019    3.99861  0.7619E-10  0.1895E-08  0.3827E-12  0.3218E-05  0.0000E+00 -0.1113E+13
   -2.543767    4.00344  0.7619E-10  0.2244E-08  0.6196E-12  0.2752E-05  0.0000E+00 -0.2067E+13
   -2.612514    4.00992  0.7619E-10  0.2351E-08  0.1109E-11  0.1591E-05  0.0000E+00 -0.5833E+13
   -2.681261    4.02240  0.7619E-10  0.1827E-08  0.2882E-11  0.3135E-06  0.0000E+00 -0.5832E+14
   -2.750007    4.07988  0.7619E-10  0.0000E+00  0.0000E+00  0.0000E+00  0.0000E+00  0.0000E+00
