 1 - depth, m
 2 - temperature, C
 3 - salinity, kg/kg
 4 - turbulent kinetic energy, m**2/s**2
 5 - dissipation rate, m**2/s**3
 6 - kinematic heat conductance, m**2/s
 7 - modulus of horizontal velocity, m/s
 8 - Richardson number, n/d
   -0.000000   -0.00000  0.1822E-08  0.4365E-09  0.4158E-12  0.1000E-09  0.0000E+00  0.4706E+17
   -0.068745    0.78848  0.0000E+00  0.3060E-08  0.3961E-12  0.1000E-09  0.0000E+00  0.3414E+17
   -0.137491    1.52382  0.9314E-10  0.8238E-08  0.6789E-12  0.1454E-09  0.0000E+00  0.2377E+17
   -0.206237    2.21665  0.6177E-10  0.1780E-07  0.1297E-11  0.4358E-09  0.0000E+00  0.1515E+17
   -0.274984    2.87178  0.6816E-10  0.3571E-07  0.2482E-11  0.1606E-08  0.0000E+00  0.7875E+16
   -0.343731    3.48607  0.6637E-10  0.6906E-07  0.4672E-11  0.1215E-07  0.0000E+00  0.1961E+16
   -0.412479    4.02205  0.6618E-10  0.6963E-07  0.4713E-11  0.3552E-03  0.0000E+00 -0.1243E+12
   -0.481227    4.02227  0.6618E-10  0.6989E-07  0.4736E-11  0.3469E-03  0.0000E+00 -0.1268E+12
   -0.549976    4.02249  0.6618E-10  0.7014E-07  0.4762E-11  0.3471E-03  0.0000E+00 -0.1266E+12
   -0.618726    4.02271  0.6618E-10  0.7036E-07  0.4791E-11  0.3473E-03  0.0000E+00 -0.1265E+12
   -0.687475    4.02294  0.6618E-10  0.7056E-07  0.4823E-11  0.3471E-03  0.0000E+00 -0.1266E+12
   -0.756225    4.02316  0.6618E-10  0.7073E-07  0.4857E-11  0.3466E-03  0.0000E+00 -0.1268E+12
   -0.824975    4.02337  0.6618E-10  0.7088E-07  0.4894E-11  0.3456E-03  0.0000E+00 -0.1273E+12
   -0.893726    4.02359  0.6618E-10  0.7101E-07  0.4935E-11  0.3442E-03  0.0000E+00 -0.1281E+12
   -0.962477    4.02381  0.6618E-10  0.7111E-07  0.4979E-11  0.3425E-03  0.0000E+00 -0.1290E+12
   -1.031228    4.02403  0.6618E-10  0.7119E-07  0.5026E-11  0.3404E-03  0.0000E+00 -0.1303E+12
   -1.099979    4.02425  0.6618E-10  0.7125E-07  0.5078E-11  0.3378E-03  0.0000E+00 -0.1320E+12
   -1.168730    4.02447  0.6618E-10  0.7129E-07  0.5135E-11  0.3348E-03  0.0000E+00 -0.1340E+12
   -1.237482    4.02470  0.6618E-10  0.7130E-07  0.5196E-11  0.3313E-03  0.0000E+00 -0.1363E+12
   -1.306233    4.02492  0.6618E-10  0.7129E-07  0.5264E-11  0.3275E-03  0.0000E+00 -0.1389E+12
   -1.374985    4.02515  0.6618E-10  0.7125E-07  0.5338E-11  0.3232E-03  0.0000E+00 -0.1418E+12
   -1.443736    4.02538  0.6618E-10  0.7119E-07  0.5418E-11  0.3184E-03  0.0000E+00 -0.1447E+12
   -1.512488    4.02562  0.6618E-10  0.7110E-07  0.5506E-11  0.3133E-03  0.0000E+00 -0.1480E+12
   -1.581239    4.02586  0.6618E-10  0.7099E-07  0.5603E-11  0.3076E-03  0.0000E+00 -0.1517E+12
   -1.649990    4.02610  0.6618E-10  0.7084E-07  0.5709E-11  0.3015E-03  0.0000E+00 -0.1559E+12
   -1.718742    4.02635  0.6618E-10  0.7067E-07  0.5826E-11  0.2949E-03  0.0000E+00 -0.1606E+12
   -1.787493    4.02661  0.6618E-10  0.7047E-07  0.5955E-11  0.2878E-03  0.0000E+00 -0.1659E+12
   -1.856243    4.02687  0.6618E-10  0.7024E-07  0.6098E-11  0.2802E-03  0.0000E+00 -0.1718E+12
   -1.924994    4.02714  0.6618E-10  0.6997E-07  0.6258E-11  0.2720E-03  0.0000E+00 -0.1785E+12
   -1.993744    4.02742  0.6618E-10  0.6967E-07  0.6435E-11  0.2635E-03  0.0000E+00 -0.1860E+12
   -2.062494    4.02771  0.6618E-10  0.6933E-07  0.6637E-11  0.2541E-03  0.0000E+00 -0.1946E+12
   -2.131244    4.02801  0.6618E-10  0.6892E-07  0.6881E-11  0.2435E-03  0.0000E+00 -0.2052E+12
   -2.199993    4.02832  0.6618E-10  0.6844E-07  0.7180E-11  0.2315E-03  0.0000E+00 -0.2183E+12
   -2.268742    4.02865  0.6618E-10  0.6786E-07  0.7555E-11  0.2177E-03  0.0000E+00 -0.2351E+12
   -2.337490    4.02900  0.6618E-10  0.6714E-07  0.8039E-11  0.2028E-03  0.0000E+00 -0.2563E+12
   -2.406238    4.02938  0.6618E-10  0.6610E-07  0.8791E-11  0.1706E-03  0.0000E+00 -0.3101E+12
   -2.474986    4.02984  0.6618E-10  0.6432E-07  0.1020E-10  0.1059E-03  0.0000E+00 -0.5128E+12
   -2.543733    4.03059  0.6618E-10  0.6121E-07  0.1295E-10  0.6474E-04  0.0000E+00 -0.8724E+12
   -2.612479    4.03183  0.6618E-10  0.5541E-07  0.1919E-10  0.3097E-04  0.0000E+00 -0.1935E+13
   -2.681224    4.03447  0.6618E-10  0.2708E-07  0.6422E-10  0.1726E-05  0.0000E+00 -0.5002E+14
   -2.749969    4.07963  0.6618E-10  0.0000E+00  0.0000E+00  0.0000E+00  0.0000E+00  0.0000E+00
