 1 - depth, m
 2 - temperature, C
 3 - salinity, kg/kg
 4 - turbulent kinetic energy, m**2/s**2
 5 - dissipation rate, m**2/s**3
 6 - kinematic heat conductance, m**2/s
 7 - modulus of horizontal velocity, m/s
 8 - Richardson number, n/d
   -0.000000   -0.00000  0.1886E-09  0.1219E-13  0.7604E-17  0.1000E-09  0.0000E+00  0.1008E+17
   -0.068746    0.15437  0.1917E-09  0.1219E-13  0.7604E-17  0.1000E-09  0.0000E+00  0.9566E+16
   -0.137492    0.30730  0.1675E-09  0.1219E-13  0.7604E-17  0.1000E-09  0.0000E+00  0.9038E+16
   -0.206239    0.45827  0.1281E-09  0.1219E-13  0.7604E-17  0.1000E-09  0.0000E+00  0.8543E+16
   -0.274986    0.60756  0.1006E-09  0.1219E-13  0.7604E-17  0.1000E-09  0.0000E+00  0.8071E+16
   -0.343735    0.75530  0.8740E-10  0.1219E-13  0.7604E-17  0.1000E-09  0.0000E+00  0.7622E+16
   -0.412483    0.90167  0.8236E-10  0.1219E-13  0.7604E-17  0.1000E-09  0.0000E+00  0.7181E+16
   -0.481232    1.04660  0.8072E-10  0.1219E-13  0.7604E-17  0.1000E-09  0.0000E+00  0.6747E+16
   -0.549982    1.18995  0.8024E-10  0.1219E-13  0.7604E-17  0.1000E-09  0.0000E+00  0.6325E+16
   -0.618732    1.33172  0.8010E-10  0.1219E-13  0.7604E-17  0.1000E-09  0.0000E+00  0.5917E+16
   -0.687482    1.47189  0.8004E-10  0.1219E-13  0.7604E-17  0.1000E-09  0.0000E+00  0.5517E+16
   -0.756233    1.61036  0.7998E-10  0.1219E-13  0.7604E-17  0.1000E-09  0.0000E+00  0.5139E+16
   -0.824984    1.74734  0.7989E-10  0.1219E-13  0.7604E-17  0.1000E-09  0.0000E+00  0.4767E+16
   -0.893735    1.88267  0.7975E-10  0.1219E-13  0.7604E-17  0.1000E-09  0.0000E+00  0.4402E+16
   -0.962486    2.01618  0.7956E-10  0.1219E-13  0.7604E-17  0.1000E-09  0.0000E+00  0.4045E+16
   -1.031238    2.14769  0.7932E-10  0.1219E-13  0.7604E-17  0.1000E-09  0.0000E+00  0.3697E+16
   -1.099990    2.27702  0.7903E-10  0.1219E-13  0.7604E-17  0.1000E-09  0.0000E+00  0.3360E+16
   -1.168742    2.40398  0.7869E-10  0.1219E-13  0.7604E-17  0.1000E-09  0.0000E+00  0.3035E+16
   -1.237494    2.52837  0.7833E-10  0.1219E-13  0.7604E-17  0.1000E-09  0.0000E+00  0.2722E+16
   -1.306246    2.65000  0.7793E-10  0.1219E-13  0.7604E-17  0.1000E-09  0.0000E+00  0.2423E+16
   -1.374998    2.76868  0.7752E-10  0.1219E-13  0.7604E-17  0.1000E-09  0.0000E+00  0.2143E+16
   -1.443750    2.88446  0.7713E-10  0.4883E-13  0.9867E-17  0.1000E-09  0.0000E+00  0.1882E+16
   -1.512503    2.99752  0.7678E-10  0.1491E-12  0.2411E-16  0.1000E-09  0.0000E+00  0.1635E+16
   -1.581255    3.10768  0.7652E-10  0.4053E-12  0.6184E-16  0.1000E-09  0.0000E+00  0.1402E+16
   -1.650007    3.21478  0.7635E-10  0.1061E-11  0.1566E-15  0.1000E-09  0.0000E+00  0.1184E+16
   -1.718758    3.31863  0.7626E-10  0.2730E-11  0.3910E-15  0.1000E-09  0.0000E+00  0.9808E+15
   -1.787510    3.41903  0.7621E-10  0.6933E-11  0.9645E-15  0.1000E-09  0.0000E+00  0.7930E+15
   -1.856262    3.51579  0.7620E-10  0.1739E-10  0.2352E-14  0.1000E-09  0.0000E+00  0.6214E+15
   -1.925013    3.60871  0.7619E-10  0.4312E-10  0.5670E-14  0.1000E-09  0.0000E+00  0.4664E+15
   -1.993764    3.69761  0.7619E-10  0.1057E-09  0.1352E-13  0.2093E-09  0.0000E+00  0.3281E+15
   -2.062514    3.78229  0.7619E-10  0.2579E-09  0.3210E-13  0.7680E-09  0.0000E+00  0.2120E+15
   -2.131265    3.86537  0.7619E-10  0.6356E-09  0.7702E-13  0.3794E-08  0.0000E+00  0.1027E+15
   -2.200015    3.94719  0.7619E-10  0.1502E-08  0.1783E-12  0.8320E-07  0.0000E+00  0.1033E+14
   -2.268764    4.00090  0.7619E-10  0.2362E-08  0.2839E-12  0.7357E-05  0.0000E+00 -0.4120E+12
   -2.337513    4.00260  0.7619E-10  0.2776E-08  0.3566E-12  0.7863E-05  0.0000E+00 -0.4644E+12
   -2.406262    4.00433  0.7619E-10  0.3109E-08  0.4494E-12  0.7674E-05  0.0000E+00 -0.5823E+12
   -2.475010    4.00629  0.7619E-10  0.3358E-08  0.5850E-12  0.6773E-05  0.0000E+00 -0.8392E+12
   -2.543757    4.00881  0.7619E-10  0.3472E-08  0.8229E-12  0.4960E-05  0.0000E+00 -0.1522E+13
   -2.612504    4.01278  0.7619E-10  0.3267E-08  0.1346E-11  0.2458E-05  0.0000E+00 -0.4371E+13
   -2.681251    4.02179  0.7619E-10  0.2190E-08  0.3466E-11  0.3589E-06  0.0000E+00 -0.5675E+14
   -2.749996    4.07857  0.7619E-10  0.0000E+00  0.0000E+00  0.0000E+00  0.0000E+00  0.0000E+00
