 1 - depth, m
 2 - temperature, C
 3 - salinity, kg/kg
 4 - turbulent kinetic energy, m**2/s**2
 5 - dissipation rate, m**2/s**3
 6 - kinematic heat conductance, m**2/s
 7 - modulus of horizontal velocity, m/s
 8 - Richardson number, n/d
   -0.000000   12.70098  0.6819E-10  0.4630E-04  0.1043E-04  0.5582E-04  0.4932E-01 -0.6854E-01
   -0.068746   12.75087  0.6820E-10  0.2590E-04  0.2126E-05  0.8321E-04  0.2048E-01 -0.1404E+00
   -0.137493   12.76483  0.6820E-10  0.1966E-04  0.7471E-06  0.1368E-03  0.1485E-01 -0.1472E+00
   -0.206240   12.77370  0.6820E-10  0.1609E-04  0.3357E-06  0.2370E-03  0.1159E-01  0.5360E+02
   -0.274988   12.78007  0.6820E-10  0.1396E-04  0.1809E-06  0.3175E-03  0.9412E-02  0.2837E+02
   -0.343736   12.78488  0.6820E-10  0.1271E-04  0.1126E-06  0.4014E-03  0.7909E-02  0.9445E+01
   -0.412485   12.78853  0.6820E-10  0.1195E-04  0.7786E-07  0.5083E-03  0.6808E-02  0.5229E+01
   -0.481234   12.79124  0.6820E-10  0.1151E-04  0.5869E-07  0.6718E-03  0.6008E-02  0.7611E+02
   -0.549984   12.79312  0.6820E-10  0.1129E-04  0.4766E-07  0.9039E-03  0.5433E-02  0.3203E+02
   -0.618734   12.79433  0.6820E-10  0.1122E-04  0.4076E-07  0.1071E-02  0.5005E-02  0.7898E+01
   -0.687485   12.79525  0.6820E-10  0.1122E-04  0.3582E-07  0.1191E-02  0.4627E-02  0.5457E+01
   -0.756236   12.79605  0.6820E-10  0.1125E-04  0.3204E-07  0.1279E-02  0.4275E-02  0.3172E+02
   -0.824987   12.79678  0.6820E-10  0.1131E-04  0.2904E-07  0.1348E-02  0.3945E-02  0.4400E+01
   -0.893738   12.79747  0.6820E-10  0.1138E-04  0.2662E-07  0.1408E-02  0.3632E-02  0.4561E+01
   -0.962490   12.79812  0.6820E-10  0.1143E-04  0.2460E-07  0.1463E-02  0.3334E-02  0.4785E+01
   -1.031242   12.79875  0.6820E-10  0.1147E-04  0.2290E-07  0.1517E-02  0.3049E-02  0.4826E+01
   -1.099994   12.79935  0.6820E-10  0.1149E-04  0.2144E-07  0.1586E-02  0.2777E-02  0.4205E+01
   -1.168747   12.79993  0.6820E-10  0.1149E-04  0.2020E-07  0.1653E-02  0.2527E-02  0.3746E+01
   -1.237499   12.80048  0.6820E-10  0.1146E-04  0.1913E-07  0.1714E-02  0.2297E-02  0.3391E+01
   -1.306251   12.80100  0.6820E-10  0.1142E-04  0.1823E-07  0.1770E-02  0.2085E-02  0.3100E+01
   -1.375004   12.80151  0.6820E-10  0.1135E-04  0.1747E-07  0.1818E-02  0.1890E-02  0.2856E+01
   -1.443756   12.80200  0.6820E-10  0.1126E-04  0.1684E-07  0.1857E-02  0.1709E-02  0.2642E+01
   -1.512509   12.80249  0.6820E-10  0.1115E-04  0.1633E-07  0.1885E-02  0.1543E-02  0.2455E+01
   -1.581261   12.80296  0.6820E-10  0.1102E-04  0.1593E-07  0.1904E-02  0.1390E-02  0.2287E+01
   -1.650013   12.80342  0.6820E-10  0.1087E-04  0.1564E-07  0.1914E-02  0.1249E-02  0.2135E+01
   -1.718765   12.80389  0.6820E-10  0.1070E-04  0.1545E-07  0.1917E-02  0.1120E-02  0.1997E+01
   -1.787517   12.80434  0.6820E-10  0.1052E-04  0.1537E-07  0.1913E-02  0.1001E-02  0.1870E+01
   -1.856269   12.80480  0.6820E-10  0.1033E-04  0.1539E-07  0.1903E-02  0.8906E-03  0.1754E+01
   -1.925021   12.80526  0.6820E-10  0.1013E-04  0.1551E-07  0.1885E-02  0.7891E-03  0.1645E+01
   -1.993772   12.80573  0.6820E-10  0.9924E-05  0.1573E-07  0.1856E-02  0.6949E-03  0.1544E+01
   -2.062523   12.80620  0.6820E-10  0.9717E-05  0.1607E-07  0.1782E-02  0.6081E-03  0.1363E+01
   -2.131273   12.80669  0.6820E-10  0.9506E-05  0.1652E-07  0.1669E-02  0.5336E-03  0.1248E+01
   -2.200024   12.80721  0.6820E-10  0.9296E-05  0.1712E-07  0.1542E-02  0.4720E-03  0.1237E+01
   -2.268773   12.80778  0.6820E-10  0.9085E-05  0.1789E-07  0.1423E-02  0.4217E-03  0.1377E+01
   -2.337523   12.80840  0.6820E-10  0.8854E-05  0.1895E-07  0.1300E-02  0.3806E-03  0.1938E+01
   -2.406272   12.80907  0.6820E-10  0.8573E-05  0.2055E-07  0.1149E-02  0.3434E-03  0.3339E+01
   -2.475020   12.80984  0.6820E-10  0.8202E-05  0.2322E-07  0.9368E-03  0.3084E-03  0.7143E+01
   -2.543768   12.81081  0.6820E-10  0.7663E-05  0.2826E-07  0.7714E-03  0.2749E-03  0.8595E+02
   -2.612515   12.81196  0.6820E-10  0.6714E-05  0.4206E-07  0.4161E-03  0.2470E-03  0.1172E-01
   -2.681262   12.81600  0.6820E-10  0.3254E-05  0.1286E-06  0.3914E-04  0.2070E-03 -0.1001E+05
   -2.750008   12.84170  0.6820E-10  0.0000E+00  0.0000E+00  0.0000E+00  0.2165E-03  0.0000E+00
