 1 - depth, m
 2 - temperature, C
 3 - salinity, kg/kg
 4 - turbulent kinetic energy, m**2/s**2
 5 - dissipation rate, m**2/s**3
 6 - kinematic heat conductance, m**2/s
 7 - modulus of horizontal velocity, m/s
 8 - Richardson number, n/d
   -0.000000   -0.00000  0.3882E-09  0.1618E-12  0.2423E-16  0.1000E-09  0.0000E+00  0.1534E+17
   -0.068746    0.23760  0.1822E-09  0.3165E-12  0.2893E-16  0.1000E-09  0.0000E+00  0.1428E+17
   -0.137492    0.47429  0.9857E-10  0.6602E-12  0.4953E-16  0.1000E-09  0.0000E+00  0.1315E+17
   -0.206239    0.70820  0.7748E-10  0.1330E-11  0.9282E-16  0.1000E-09  0.0000E+00  0.1204E+17
   -0.274987    0.93901  0.7273E-10  0.2611E-11  0.1759E-15  0.1000E-09  0.0000E+00  0.1096E+17
   -0.343735    1.16647  0.7164E-10  0.5042E-11  0.3309E-15  0.1000E-09  0.0000E+00  0.9936E+16
   -0.412483    1.39068  0.7139E-10  0.9627E-11  0.6178E-15  0.1000E-09  0.0000E+00  0.8944E+16
   -0.481232    1.61139  0.7133E-10  0.1824E-10  0.1145E-14  0.1000E-09  0.0000E+00  0.7989E+16
   -0.549982    1.82836  0.7132E-10  0.3430E-10  0.2108E-14  0.1000E-09  0.0000E+00  0.7086E+16
   -0.618732    2.04174  0.7131E-10  0.6386E-10  0.3842E-14  0.1000E-09  0.0000E+00  0.6233E+16
   -0.687482    2.25174  0.7129E-10  0.1180E-09  0.6954E-14  0.1000E-09  0.0000E+00  0.5419E+16
   -0.756233    2.45835  0.7124E-10  0.2166E-09  0.1250E-13  0.1000E-09  0.0000E+00  0.4669E+16
   -0.824984    2.66268  0.7113E-10  0.3951E-09  0.2234E-13  0.1000E-09  0.0000E+00  0.3945E+16
   -0.893735    2.86466  0.7091E-10  0.7162E-09  0.3967E-13  0.1000E-09  0.0000E+00  0.3247E+16
   -0.962487    3.06423  0.7051E-10  0.1290E-08  0.7004E-13  0.1384E-09  0.0000E+00  0.2576E+16
   -1.031239    3.26132  0.6991E-10  0.2311E-08  0.1229E-12  0.3240E-09  0.0000E+00  0.1931E+16
   -1.099990    3.45576  0.6925E-10  0.4124E-08  0.2151E-12  0.8331E-09  0.0000E+00  0.1314E+16
   -1.168742    3.64740  0.6880E-10  0.7323E-08  0.3744E-12  0.2640E-08  0.0000E+00  0.7221E+15
   -1.237495    3.83455  0.6863E-10  0.1283E-07  0.6442E-12  0.1835E-07  0.0000E+00  0.1789E+15
   -1.306247    4.00146  0.6861E-10  0.1323E-07  0.6654E-12  0.1003E-03  0.0000E+00 -0.6315E+11
   -1.374999    4.00172  0.6861E-10  0.1340E-07  0.6761E-12  0.1038E-03  0.0000E+00 -0.6204E+11
   -1.443751    4.00197  0.6861E-10  0.1354E-07  0.6865E-12  0.1039E-03  0.0000E+00 -0.6306E+11
   -1.512503    4.00223  0.6861E-10  0.1366E-07  0.6975E-12  0.1041E-03  0.0000E+00 -0.6408E+11
   -1.581256    4.00248  0.6861E-10  0.1376E-07  0.7094E-12  0.1039E-03  0.0000E+00 -0.6530E+11
   -1.650008    4.00274  0.6861E-10  0.1385E-07  0.7225E-12  0.1034E-03  0.0000E+00 -0.6676E+11
   -1.718759    4.00300  0.6861E-10  0.1393E-07  0.7369E-12  0.1026E-03  0.0000E+00 -0.6847E+11
   -1.787511    4.00326  0.6861E-10  0.1399E-07  0.7529E-12  0.1014E-03  0.0000E+00 -0.7050E+11
   -1.856263    4.00352  0.6861E-10  0.1404E-07  0.7712E-12  0.9983E-04  0.0000E+00 -0.7292E+11
   -1.925014    4.00379  0.6861E-10  0.1408E-07  0.7925E-12  0.9775E-04  0.0000E+00 -0.7583E+11
   -1.993765    4.00406  0.6861E-10  0.1410E-07  0.8177E-12  0.9514E-04  0.0000E+00 -0.7937E+11
   -2.062516    4.00435  0.6861E-10  0.1409E-07  0.8480E-12  0.8845E-04  0.0000E+00 -0.8729E+11
   -2.131266    4.00465  0.6861E-10  0.1406E-07  0.8863E-12  0.7963E-04  0.0000E+00 -0.9955E+11
   -2.200016    4.00500  0.6861E-10  0.1399E-07  0.9353E-12  0.7071E-04  0.0000E+00 -0.1156E+12
   -2.268766    4.00539  0.6861E-10  0.1388E-07  0.9998E-12  0.6248E-04  0.0000E+00 -0.1357E+12
   -2.337515    4.00584  0.6861E-10  0.1371E-07  0.1088E-11  0.5426E-04  0.0000E+00 -0.1633E+12
   -2.406263    4.00636  0.6861E-10  0.1344E-07  0.1215E-11  0.4511E-04  0.0000E+00 -0.2077E+12
   -2.475011    4.00701  0.6861E-10  0.1301E-07  0.1417E-11  0.3459E-04  0.0000E+00 -0.2920E+12
   -2.543759    4.00790  0.6861E-10  0.1226E-07  0.1797E-11  0.2237E-04  0.0000E+00 -0.4991E+12
   -2.612506    4.00932  0.6861E-10  0.1077E-07  0.2686E-11  0.1011E-04  0.0000E+00 -0.1279E+13
   -2.681252    4.01263  0.6861E-10  0.5107E-08  0.7995E-11  0.6186E-06  0.0000E+00 -0.3822E+14
   -2.749998    4.06098  0.6861E-10  0.0000E+00  0.0000E+00  0.0000E+00  0.0000E+00  0.0000E+00
