 1 - depth, m
 2 - temperature, C
 3 - salinity, kg/kg
 4 - turbulent kinetic energy, m**2/s**2
 5 - dissipation rate, m**2/s**3
 6 - kinematic heat conductance, m**2/s
 7 - modulus of horizontal velocity, m/s
 8 - Richardson number, n/d
   -0.000000   17.45651  0.7213E-10  0.5907E-04  0.1556E-03  0.6226E-04  0.5759E-01  0.5334E-01
   -0.068746   17.51847  0.7213E-10  0.3443E-04  0.5536E-04  0.8904E-04  0.2385E-01 -0.4120E+00
   -0.137492   17.53600  0.7213E-10  0.2612E-04  0.1950E-04  0.1274E-03  0.1733E-01 -0.1088E+00
   -0.206239   17.54728  0.7213E-10  0.2108E-04  0.5139E-05  0.1819E-03  0.1356E-01 -0.1826E+00
   -0.274987   17.55528  0.7213E-10  0.1810E-04  0.9693E-06  0.2832E-03  0.1109E-01  0.2348E+00
   -0.343735   17.56070  0.7213E-10  0.1661E-04  0.2175E-06  0.5467E-03  0.9454E-02  0.4793E+03
   -0.412483   17.56415  0.7213E-10  0.1590E-04  0.1145E-06  0.7402E-03  0.8362E-02  0.1544E+03
   -0.481232   17.56634  0.7213E-10  0.1557E-04  0.8743E-07  0.9201E-03  0.7582E-02  0.1841E+02
   -0.549982   17.56788  0.7213E-10  0.1546E-04  0.7271E-07  0.1079E-02  0.6973E-02  0.2634E+03
   -0.618732   17.56908  0.7213E-10  0.1547E-04  0.6272E-07  0.1181E-02  0.6448E-02  0.5626E+01
   -0.687482   17.57013  0.7213E-10  0.1553E-04  0.5526E-07  0.1256E-02  0.5962E-02  0.1100E+02
   -0.756233   17.57107  0.7213E-10  0.1563E-04  0.4945E-07  0.1318E-02  0.5508E-02  0.4661E+01
   -0.824984   17.57194  0.7213E-10  0.1572E-04  0.4475E-07  0.1378E-02  0.5080E-02  0.4627E+01
   -0.893735   17.57275  0.7213E-10  0.1579E-04  0.4088E-07  0.1438E-02  0.4674E-02  0.4743E+01
   -0.962487   17.57351  0.7213E-10  0.1583E-04  0.3760E-07  0.1497E-02  0.4287E-02  0.4903E+01
   -1.031238   17.57421  0.7213E-10  0.1583E-04  0.3478E-07  0.1557E-02  0.3915E-02  0.4912E+01
   -1.099990   17.57487  0.7213E-10  0.1578E-04  0.3232E-07  0.1629E-02  0.3559E-02  0.4372E+01
   -1.168742   17.57549  0.7213E-10  0.1567E-04  0.3017E-07  0.1697E-02  0.3232E-02  0.3943E+01
   -1.237494   17.57606  0.7213E-10  0.1552E-04  0.2830E-07  0.1758E-02  0.2932E-02  0.3590E+01
   -1.306246   17.57660  0.7213E-10  0.1533E-04  0.2667E-07  0.1813E-02  0.2655E-02  0.3290E+01
   -1.374999   17.57712  0.7213E-10  0.1509E-04  0.2525E-07  0.1859E-02  0.2400E-02  0.3030E+01
   -1.443751   17.57761  0.7213E-10  0.1482E-04  0.2404E-07  0.1898E-02  0.2166E-02  0.2798E+01
   -1.512503   17.57807  0.7213E-10  0.1451E-04  0.2301E-07  0.1930E-02  0.1951E-02  0.2591E+01
   -1.581255   17.57852  0.7213E-10  0.1416E-04  0.2216E-07  0.1955E-02  0.1754E-02  0.2401E+01
   -1.650007   17.57895  0.7213E-10  0.1380E-04  0.2149E-07  0.1976E-02  0.1573E-02  0.2225E+01
   -1.718759   17.57936  0.7213E-10  0.1341E-04  0.2098E-07  0.1995E-02  0.1407E-02  0.2061E+01
   -1.787511   17.57976  0.7213E-10  0.1301E-04  0.2063E-07  0.2013E-02  0.1255E-02  0.1907E+01
   -1.856262   17.58014  0.7213E-10  0.1259E-04  0.2046E-07  0.2030E-02  0.1116E-02  0.1762E+01
   -1.925014   17.58051  0.7213E-10  0.1218E-04  0.2046E-07  0.2023E-02  0.9879E-03  0.1621E+01
   -1.993765   17.58087  0.7213E-10  0.1178E-04  0.2063E-07  0.1971E-02  0.8695E-03  0.1485E+01
   -2.062515   17.58122  0.7213E-10  0.1139E-04  0.2100E-07  0.1860E-02  0.7609E-03  0.1268E+01
   -2.131266   17.58159  0.7213E-10  0.1101E-04  0.2157E-07  0.1702E-02  0.6680E-03  0.1064E+01
   -2.200015   17.58198  0.7213E-10  0.1066E-04  0.2236E-07  0.1543E-02  0.5921E-03  0.9171E+00
   -2.268765   17.58241  0.7213E-10  0.1031E-04  0.2346E-07  0.1421E-02  0.5308E-03  0.9293E+00
   -2.337514   17.58287  0.7213E-10  0.9928E-05  0.2524E-07  0.1265E-02  0.4801E-03  0.9594E+01
   -2.406263   17.58339  0.7213E-10  0.9451E-05  0.2833E-07  0.1123E-02  0.4317E-03  0.1342E+03
   -2.475011   17.58398  0.7213E-10  0.8771E-05  0.3486E-07  0.8606E-03  0.3859E-03  0.7409E+02
   -2.543758   17.58507  0.7213E-10  0.7697E-05  0.4854E-07  0.6747E-03  0.3313E-03  0.3859E+05
   -2.612505   17.58594  0.7213E-10  0.6060E-05  0.8792E-07  0.3396E-03  0.2920E-03  0.3997E+04
   -2.681252   17.59103  0.7213E-10  0.2982E-05  0.2726E-06  0.6616E-04  0.2264E-03 -0.5416E+04
   -2.749997   17.60107  0.7213E-10  0.0000E+00  0.0000E+00  0.0000E+00  0.2654E-03  0.0000E+00
