 1 - depth, m
 2 - temperature, C
 3 - salinity, kg/kg
 4 - turbulent kinetic energy, m**2/s**2
 5 - dissipation rate, m**2/s**3
 6 - kinematic heat conductance, m**2/s
 7 - modulus of horizontal velocity, m/s
 8 - Richardson number, n/d
   -0.000000   -0.00001  0.1363E-06  0.2556E-08  0.3824E-11  0.3024E-09  0.0000E+00  0.6429E+17
   -0.068746    1.13717  0.1033E-08  0.2653E-07  0.4185E-11  0.5262E-09  0.0000E+00  0.4051E+17
   -0.137492    2.21488  0.8048E-10  0.7778E-07  0.8457E-11  0.2103E-08  0.0000E+00  0.2049E+17
   -0.206239    3.22655  0.6696E-10  0.1816E-06  0.1808E-10  0.2056E-07  0.0000E+00  0.4490E+16
   -0.274986    4.07914  0.6627E-10  0.1828E-06  0.1820E-10  0.6001E-03  0.0000E+00 -0.3233E+12
   -0.343734    4.07936  0.6627E-10  0.1833E-06  0.1826E-10  0.5906E-03  0.0000E+00 -0.3204E+12
   -0.412483    4.07958  0.6627E-10  0.1837E-06  0.1834E-10  0.5914E-03  0.0000E+00 -0.3141E+12
   -0.481232    4.07980  0.6627E-10  0.1841E-06  0.1841E-10  0.5916E-03  0.0000E+00 -0.3091E+12
   -0.549981    4.08001  0.6627E-10  0.1844E-06  0.1850E-10  0.5913E-03  0.0000E+00 -0.3048E+12
   -0.618731    4.08022  0.6627E-10  0.1846E-06  0.1859E-10  0.5903E-03  0.0000E+00 -0.3012E+12
   -0.687481    4.08042  0.6627E-10  0.1847E-06  0.1869E-10  0.5886E-03  0.0000E+00 -0.2985E+12
   -0.756232    4.08062  0.6627E-10  0.1848E-06  0.1880E-10  0.5863E-03  0.0000E+00 -0.2964E+12
   -0.824983    4.08082  0.6627E-10  0.1848E-06  0.1891E-10  0.5833E-03  0.0000E+00 -0.2950E+12
   -0.893734    4.08102  0.6627E-10  0.1848E-06  0.1904E-10  0.5797E-03  0.0000E+00 -0.2943E+12
   -0.962485    4.08122  0.6627E-10  0.1847E-06  0.1918E-10  0.5755E-03  0.0000E+00 -0.2942E+12
   -1.031237    4.08142  0.6627E-10  0.1845E-06  0.1933E-10  0.5706E-03  0.0000E+00 -0.2948E+12
   -1.099988    4.08162  0.6627E-10  0.1843E-06  0.1950E-10  0.5651E-03  0.0000E+00 -0.2962E+12
   -1.168740    4.08182  0.6627E-10  0.1840E-06  0.1968E-10  0.5588E-03  0.0000E+00 -0.2982E+12
   -1.237492    4.08202  0.6627E-10  0.1836E-06  0.1989E-10  0.5519E-03  0.0000E+00 -0.3008E+12
   -1.306244    4.08222  0.6627E-10  0.1832E-06  0.2011E-10  0.5442E-03  0.0000E+00 -0.3042E+12
   -1.374997    4.08242  0.6627E-10  0.1828E-06  0.2036E-10  0.5359E-03  0.0000E+00 -0.3080E+12
   -1.443749    4.08262  0.6627E-10  0.1823E-06  0.2063E-10  0.5269E-03  0.0000E+00 -0.3125E+12
   -1.512501    4.08283  0.6627E-10  0.1817E-06  0.2093E-10  0.5171E-03  0.0000E+00 -0.3176E+12
   -1.581253    4.08304  0.6627E-10  0.1810E-06  0.2126E-10  0.5067E-03  0.0000E+00 -0.3236E+12
   -1.650005    4.08326  0.6627E-10  0.1803E-06  0.2163E-10  0.4955E-03  0.0000E+00 -0.3303E+12
   -1.718756    4.08347  0.6627E-10  0.1796E-06  0.2205E-10  0.4835E-03  0.0000E+00 -0.3381E+12
   -1.787508    4.08369  0.6627E-10  0.1787E-06  0.2250E-10  0.4708E-03  0.0000E+00 -0.3468E+12
   -1.856259    4.08392  0.6627E-10  0.1779E-06  0.2302E-10  0.4574E-03  0.0000E+00 -0.3568E+12
   -1.925011    4.08416  0.6627E-10  0.1769E-06  0.2359E-10  0.4432E-03  0.0000E+00 -0.3680E+12
   -1.993761    4.08440  0.6627E-10  0.1759E-06  0.2424E-10  0.4284E-03  0.0000E+00 -0.3806E+12
   -2.062512    4.08464  0.6627E-10  0.1748E-06  0.2498E-10  0.4125E-03  0.0000E+00 -0.3958E+12
   -2.131262    4.08490  0.6627E-10  0.1735E-06  0.2588E-10  0.3945E-03  0.0000E+00 -0.4146E+12
   -2.200012    4.08517  0.6627E-10  0.1721E-06  0.2700E-10  0.3745E-03  0.0000E+00 -0.4380E+12
   -2.268762    4.08545  0.6627E-10  0.1705E-06  0.2840E-10  0.3519E-03  0.0000E+00 -0.4679E+12
   -2.337510    4.08575  0.6627E-10  0.1685E-06  0.3023E-10  0.3261E-03  0.0000E+00 -0.5076E+12
   -2.406259    4.08608  0.6627E-10  0.1661E-06  0.3269E-10  0.2989E-03  0.0000E+00 -0.5576E+12
   -2.475007    4.08644  0.6627E-10  0.1625E-06  0.3686E-10  0.2262E-03  0.0000E+00 -0.7444E+12
   -2.543754    4.08691  0.6627E-10  0.1555E-06  0.4611E-10  0.1131E-03  0.0000E+00 -0.1513E+13
   -2.612501    4.08787  0.6627E-10  0.1420E-06  0.6778E-10  0.5381E-04  0.0000E+00 -0.3254E+13
   -2.681248    4.08990  0.6627E-10  0.6685E-07  0.2421E-09  0.2569E-05  0.0000E+00 -0.7963E+14
   -2.749993    4.13094  0.6627E-10  0.0000E+00  0.0000E+00  0.0000E+00  0.0000E+00  0.0000E+00
