 1 - depth, m
 2 - temperature, C
 3 - salinity, kg/kg
 4 - turbulent kinetic energy, m**2/s**2
 5 - dissipation rate, m**2/s**3
 6 - kinematic heat conductance, m**2/s
 7 - modulus of horizontal velocity, m/s
 8 - Richardson number, n/d
   -0.000000   -0.00000  0.1019E-10  0.1219E-13  0.7603E-17  0.1000E-09  0.0000E+00  0.7746E+16
   -0.068746    0.11807  0.1268E-09  0.1219E-13  0.7603E-17  0.1000E-09  0.0000E+00  0.7738E+16
   -0.137493    0.23997  0.1639E-09  0.1219E-13  0.7603E-17  0.1000E-09  0.0000E+00  0.7635E+16
   -0.206240    0.36454  0.1532E-09  0.1219E-13  0.7603E-17  0.1000E-09  0.0000E+00  0.7489E+16
   -0.274988    0.49132  0.1284E-09  0.1219E-13  0.7603E-17  0.1000E-09  0.0000E+00  0.7300E+16
   -0.343737    0.61976  0.1065E-09  0.1219E-13  0.7603E-17  0.1000E-09  0.0000E+00  0.7088E+16
   -0.412486    0.74965  0.9242E-10  0.1219E-13  0.7603E-17  0.1000E-09  0.0000E+00  0.6835E+16
   -0.481235    0.88034  0.8515E-10  0.1219E-13  0.7603E-17  0.1000E-09  0.0000E+00  0.6548E+16
   -0.549985    1.01120  0.8194E-10  0.1219E-13  0.7603E-17  0.1000E-09  0.0000E+00  0.6248E+16
   -0.618736    1.14197  0.8069E-10  0.1219E-13  0.7603E-17  0.1000E-09  0.0000E+00  0.5943E+16
   -0.687486    1.27249  0.8024E-10  0.1219E-13  0.7603E-17  0.1000E-09  0.0000E+00  0.5626E+16
   -0.756237    1.40239  0.8006E-10  0.1219E-13  0.7603E-17  0.1000E-09  0.0000E+00  0.5309E+16
   -0.824989    1.53155  0.7996E-10  0.1219E-13  0.7603E-17  0.1000E-09  0.0000E+00  0.4989E+16
   -0.893740    1.65973  0.7985E-10  0.1219E-13  0.7603E-17  0.1000E-09  0.0000E+00  0.4669E+16
   -0.962492    1.78673  0.7970E-10  0.1219E-13  0.7603E-17  0.1000E-09  0.0000E+00  0.4353E+16
   -1.031245    1.91240  0.7950E-10  0.1219E-13  0.7603E-17  0.1000E-09  0.0000E+00  0.4039E+16
   -1.099997    2.03650  0.7926E-10  0.1219E-13  0.7603E-17  0.1000E-09  0.0000E+00  0.3721E+16
   -1.168749    2.15851  0.7896E-10  0.1219E-13  0.7603E-17  0.1000E-09  0.0000E+00  0.3411E+16
   -1.237502    2.27825  0.7863E-10  0.1219E-13  0.7603E-17  0.1000E-09  0.0000E+00  0.3112E+16
   -1.306254    2.39555  0.7826E-10  0.1219E-13  0.7603E-17  0.1000E-09  0.0000E+00  0.2824E+16
   -1.375007    2.51026  0.7788E-10  0.1219E-13  0.7603E-17  0.1000E-09  0.0000E+00  0.2553E+16
   -1.443760    2.62246  0.7749E-10  0.1219E-13  0.7603E-17  0.1000E-09  0.0000E+00  0.2303E+16
   -1.512512    2.73245  0.7712E-10  0.1219E-13  0.7603E-17  0.1000E-09  0.0000E+00  0.2063E+16
   -1.581265    2.84011  0.7680E-10  0.1219E-13  0.7603E-17  0.1000E-09  0.0000E+00  0.1834E+16
   -1.650017    2.94532  0.7656E-10  0.1219E-13  0.7603E-17  0.1000E-09  0.0000E+00  0.1616E+16
   -1.718770    3.04796  0.7639E-10  0.1261E-13  0.7603E-17  0.1000E-09  0.0000E+00  0.1411E+16
   -1.787522    3.14791  0.7629E-10  0.5350E-13  0.1392E-16  0.1000E-09  0.0000E+00  0.1217E+16
   -1.856274    3.24507  0.7623E-10  0.1837E-12  0.4191E-16  0.1000E-09  0.0000E+00  0.1037E+16
   -1.925025    3.33936  0.7621E-10  0.5829E-12  0.1273E-15  0.1000E-09  0.0000E+00  0.8689E+15
   -1.993777    3.43074  0.7620E-10  0.1800E-11  0.3798E-15  0.1000E-09  0.0000E+00  0.7143E+15
   -2.062528    3.51918  0.7619E-10  0.5501E-11  0.1123E-14  0.1000E-09  0.0000E+00  0.5894E+15
   -2.131278    3.60755  0.7619E-10  0.1695E-10  0.3349E-14  0.1000E-09  0.0000E+00  0.4741E+15
   -2.200029    3.69779  0.7619E-10  0.5180E-10  0.9914E-14  0.1419E-09  0.0000E+00  0.3544E+15
   -2.268779    3.79094  0.7619E-10  0.1569E-09  0.2912E-13  0.6584E-09  0.0000E+00  0.2240E+15
   -2.337528    3.88811  0.7619E-10  0.4708E-09  0.8480E-13  0.5634E-08  0.0000E+00  0.7559E+14
   -2.406277    3.98814  0.7619E-10  0.1165E-08  0.2081E-12  0.1799E-05  0.0000E+00 -0.7544E+12
   -2.475026    3.99639  0.7619E-10  0.1710E-08  0.3656E-12  0.2720E-05  0.0000E+00 -0.1243E+13
   -2.543774    4.00245  0.7619E-10  0.2133E-08  0.6118E-12  0.2537E-05  0.0000E+00 -0.2241E+13
   -2.612521    4.00969  0.7619E-10  0.2294E-08  0.1102E-11  0.1537E-05  0.0000E+00 -0.6081E+13
   -2.681268    4.02268  0.7619E-10  0.1802E-08  0.2842E-11  0.3101E-06  0.0000E+00 -0.5837E+14
   -2.750014    4.08002  0.7619E-10  0.0000E+00  0.0000E+00  0.0000E+00  0.0000E+00  0.0000E+00
