 1 - depth, m
 2 - temperature, C
 3 - salinity, kg/kg
 4 - turbulent kinetic energy, m**2/s**2
 5 - dissipation rate, m**2/s**3
 6 - kinematic heat conductance, m**2/s
 7 - modulus of horizontal velocity, m/s
 8 - Richardson number, n/d
   -0.000000   -0.00000  0.2001E-09  0.1219E-13  0.7603E-17  0.1000E-09  0.0000E+00  0.9752E+16
   -0.068746    0.14927  0.1890E-09  0.1219E-13  0.7603E-17  0.1000E-09  0.0000E+00  0.9385E+16
   -0.137492    0.29901  0.1639E-09  0.1219E-13  0.7603E-17  0.1000E-09  0.0000E+00  0.8941E+16
   -0.206239    0.44795  0.1288E-09  0.1219E-13  0.7603E-17  0.1000E-09  0.0000E+00  0.8489E+16
   -0.274987    0.59580  0.1024E-09  0.1219E-13  0.7603E-17  0.1000E-09  0.0000E+00  0.8035E+16
   -0.343735    0.74230  0.8860E-10  0.1219E-13  0.7603E-17  0.1000E-09  0.0000E+00  0.7591E+16
   -0.412484    0.88742  0.8291E-10  0.1219E-13  0.7603E-17  0.1000E-09  0.0000E+00  0.7148E+16
   -0.481233    1.03094  0.8092E-10  0.1219E-13  0.7603E-17  0.1000E-09  0.0000E+00  0.6711E+16
   -0.549983    1.17268  0.8030E-10  0.1219E-13  0.7603E-17  0.1000E-09  0.0000E+00  0.6287E+16
   -0.618733    1.31261  0.8012E-10  0.1219E-13  0.7603E-17  0.1000E-09  0.0000E+00  0.5879E+16
   -0.687483    1.45077  0.8004E-10  0.1219E-13  0.7603E-17  0.1000E-09  0.0000E+00  0.5481E+16
   -0.756234    1.58704  0.7997E-10  0.1219E-13  0.7603E-17  0.1000E-09  0.0000E+00  0.5107E+16
   -0.824985    1.72169  0.7987E-10  0.1219E-13  0.7603E-17  0.1000E-09  0.0000E+00  0.4741E+16
   -0.893737    1.85460  0.7974E-10  0.1219E-13  0.7603E-17  0.1000E-09  0.0000E+00  0.4384E+16
   -0.962488    1.98564  0.7954E-10  0.1219E-13  0.7603E-17  0.1000E-09  0.0000E+00  0.4037E+16
   -1.031240    2.11468  0.7930E-10  0.1219E-13  0.7603E-17  0.1000E-09  0.0000E+00  0.3700E+16
   -1.099992    2.24158  0.7901E-10  0.1219E-13  0.7603E-17  0.1000E-09  0.0000E+00  0.3373E+16
   -1.168744    2.36615  0.7867E-10  0.1219E-13  0.7603E-17  0.1000E-09  0.0000E+00  0.3057E+16
   -1.237496    2.48823  0.7831E-10  0.1219E-13  0.7603E-17  0.1000E-09  0.0000E+00  0.2753E+16
   -1.306249    2.60765  0.7791E-10  0.1219E-13  0.7603E-17  0.1000E-09  0.0000E+00  0.2463E+16
   -1.375001    2.72424  0.7751E-10  0.1219E-13  0.7603E-17  0.1000E-09  0.0000E+00  0.2190E+16
   -1.443753    2.83802  0.7712E-10  0.1246E-13  0.7603E-17  0.1000E-09  0.0000E+00  0.1936E+16
   -1.512506    2.94921  0.7679E-10  0.5097E-13  0.9819E-17  0.1000E-09  0.0000E+00  0.1696E+16
   -1.581258    3.05763  0.7653E-10  0.1519E-12  0.2327E-16  0.1000E-09  0.0000E+00  0.1468E+16
   -1.650010    3.16317  0.7636E-10  0.4006E-12  0.5781E-16  0.1000E-09  0.0000E+00  0.1255E+16
   -1.718762    3.26569  0.7626E-10  0.1016E-11  0.1417E-15  0.1000E-09  0.0000E+00  0.1056E+16
   -1.787514    3.36506  0.7622E-10  0.2531E-11  0.3429E-15  0.1000E-09  0.0000E+00  0.8709E+15
   -1.856265    3.46118  0.7620E-10  0.6224E-11  0.8195E-15  0.1000E-09  0.0000E+00  0.7010E+15
   -1.925017    3.55394  0.7619E-10  0.1512E-10  0.1937E-14  0.1000E-09  0.0000E+00  0.5458E+15
   -1.993768    3.64324  0.7619E-10  0.3634E-10  0.4528E-14  0.1000E-09  0.0000E+00  0.4052E+15
   -2.062519    3.72900  0.7619E-10  0.8694E-10  0.1054E-13  0.1868E-09  0.0000E+00  0.2870E+15
   -2.131269    3.81400  0.7619E-10  0.2105E-09  0.2486E-13  0.7261E-09  0.0000E+00  0.1741E+15
   -2.200019    3.89966  0.7619E-10  0.5073E-09  0.5841E-13  0.5057E-08  0.0000E+00  0.5880E+14
   -2.268769    3.98406  0.7619E-10  0.1013E-08  0.1160E-12  0.1642E-05  0.0000E+00 -0.1517E+12
   -2.337518    3.99195  0.7619E-10  0.1463E-08  0.1885E-12  0.3541E-05  0.0000E+00 -0.4301E+12
   -2.406267    3.99562  0.7619E-10  0.1849E-08  0.2790E-12  0.4075E-05  0.0000E+00 -0.6122E+12
   -2.475015    3.99915  0.7619E-10  0.2193E-08  0.4128E-12  0.3952E-05  0.0000E+00 -0.9624E+12
   -2.543763    4.00327  0.7619E-10  0.2460E-08  0.6476E-12  0.3123E-05  0.0000E+00 -0.1867E+13
   -2.612510    4.00924  0.7619E-10  0.2499E-08  0.1153E-11  0.1705E-05  0.0000E+00 -0.5538E+13
   -2.681256    4.02142  0.7619E-10  0.1913E-08  0.3039E-11  0.3246E-06  0.0000E+00 -0.5900E+14
   -2.750002    4.07997  0.7619E-10  0.0000E+00  0.0000E+00  0.0000E+00  0.0000E+00  0.0000E+00
