 1 - depth, m
 2 - temperature, C
 3 - salinity, kg/kg
 4 - turbulent kinetic energy, m**2/s**2
 5 - dissipation rate, m**2/s**3
 6 - kinematic heat conductance, m**2/s
 7 - modulus of horizontal velocity, m/s
 8 - Richardson number, n/d
   -0.000000   -0.00000  0.1000E-09  0.1021E-12  0.4500E-16  0.1000E-09  0.2174E-06  0.7945E+16
   -0.068746    0.30354  0.9987E-10  0.3133E-12  0.1204E-15  0.1000E-09  0.2147E-06  0.8951E+16
   -0.137492    0.61453  0.9996E-10  0.1096E-11  0.4220E-15  0.1000E-09  0.2115E-06  0.9633E+16
   -0.206239    0.93043  0.9999E-10  0.3791E-11  0.1501E-14  0.1000E-09  0.2092E-06  0.1067E+17
   -0.274987    1.24931  0.1000E-09  0.1285E-10  0.5249E-14  0.1000E-09  0.2199E-06  0.8536E+16
   -0.343735    1.57198  0.1000E-09  0.4256E-10  0.1783E-13  0.1000E-09  0.2695E-06  0.6776E+16
   -0.412484    1.88909  0.1000E-09  0.1380E-09  0.5855E-13  0.1000E-09  0.2794E-06  0.5264E+16
   -0.481233    2.20342  0.1000E-09  0.4387E-09  0.1843E-12  0.1047E-09  0.2936E-06  0.3963E+16
   -0.549983    2.51693  0.1000E-09  0.1368E-08  0.5512E-12  0.2259E-09  0.3724E-06  0.2909E+16
   -0.618733    2.81961  0.1000E-09  0.4167E-08  0.1546E-11  0.8345E-09  0.4813E-06  0.2208E+16
   -0.687483    3.09538  0.1000E-09  0.1241E-07  0.4009E-11  0.3554E-08  0.5109E-06  0.1903E+16
   -0.756234    3.33449  0.1000E-09  0.3580E-07  0.9132E-11  0.1502E-07  0.5147E-06  0.9580E+15
   -0.824985    3.56072  0.1000E-09  0.9441E-07  0.2016E-10  0.8721E-07  0.5071E-06  0.3975E+15
   -0.893736    3.73548  0.1000E-09  0.1396E-06  0.2959E-10  0.5714E-05  0.4847E-06  0.1562E+14
   -0.962488    3.78798  0.1000E-09  0.1512E-06  0.3235E-10  0.5487E-04  0.4296E-06  0.6183E+12
   -1.031240    3.80183  0.1000E-09  0.1583E-06  0.3411E-10  0.1039E-03  0.3348E-06  0.4317E+11
   -1.099992    3.80699  0.1000E-09  0.1650E-06  0.3568E-10  0.1467E-03  0.2320E-06 -0.1402E+12
   -1.168744    3.80864  0.1000E-09  0.1715E-06  0.3731E-10  0.2422E-03  0.2048E-06 -0.1897E+12
   -1.237496    3.80883  0.1000E-09  0.1771E-06  0.3884E-10  0.3321E-03  0.1906E-06 -0.2021E+12
   -1.306248    3.80855  0.1000E-09  0.1822E-06  0.4034E-10  0.3410E-03  0.1784E-06 -0.2625E+12
   -1.375000    3.80804  0.1000E-09  0.1873E-06  0.4198E-10  0.3458E-03  0.1665E-06 -0.3396E+12
   -1.443753    3.80738  0.1000E-09  0.1926E-06  0.4378E-10  0.3473E-03  0.1548E-06 -0.4149E+12
   -1.512505    3.80672  0.1000E-09  0.1981E-06  0.4580E-10  0.3476E-03  0.1433E-06 -0.4928E+12
   -1.581257    3.80597  0.1000E-09  0.2036E-06  0.4802E-10  0.3481E-03  0.1321E-06 -0.5690E+12
   -1.650009    3.80513  0.1000E-09  0.2092E-06  0.5044E-10  0.3478E-03  0.1213E-06 -0.6512E+12
   -1.718761    3.80422  0.1000E-09  0.2146E-06  0.5304E-10  0.3473E-03  0.1108E-06 -0.7324E+12
   -1.787513    3.80322  0.1000E-09  0.2198E-06  0.5577E-10  0.3458E-03  0.1007E-06 -0.8227E+12
   -1.856265    3.80215  0.1000E-09  0.2247E-06  0.5863E-10  0.3437E-03  0.9083E-07 -0.9144E+12
   -1.925016    3.80096  0.1000E-09  0.2290E-06  0.6155E-10  0.3411E-03  0.8082E-07 -0.1018E+13
   -1.993767    3.79951  0.1000E-09  0.2326E-06  0.6443E-10  0.3609E-03  0.6752E-07 -0.1162E+13
   -2.062518    3.79478  0.1000E-09  0.2353E-06  0.6719E-10  0.3541E-03  0.2974E-07 -0.1266E+13
   -2.131268    3.79119  0.1000E-09  0.2373E-06  0.7001E-10  0.3250E-03  0.1832E-07 -0.1237E+13
   -2.200018    3.78888  0.1000E-09  0.2383E-06  0.7295E-10  0.3154E-03  0.1435E-07 -0.2482E+13
   -2.268768    3.78644  0.1000E-09  0.2382E-06  0.7597E-10  0.3040E-03  0.1125E-07 -0.4142E+13
   -2.337517    3.78375  0.1000E-09  0.2368E-06  0.7909E-10  0.2903E-03  0.8610E-08 -0.5454E+13
   -2.406266    3.78077  0.1000E-09  0.2336E-06  0.8237E-10  0.2732E-03  0.6379E-08 -0.6630E+13
   -2.475014    3.77751  0.1000E-09  0.2282E-06  0.8591E-10  0.2554E-03  0.4561E-08 -0.4492E+13
   -2.543762    3.77547  0.1000E-09  0.2182E-06  0.9304E-10  0.1279E-03  0.3598E-08 -0.1230E+13
   -2.612509    3.77553  0.1000E-09  0.1966E-06  0.1162E-09  0.4525E-04  0.3389E-08  0.1643E+11
   -2.681255    3.77283  0.1000E-09  0.8244E-07  0.3292E-09  0.2020E-05  0.3433E-08  0.1233E+15
   -2.750001    3.84198  0.1000E-09  0.0000E+00  0.0000E+00  0.0000E+00  0.4605E-07  0.0000E+00
