 1 - depth, m
 2 - temperature, C
 3 - salinity, kg/kg
 4 - turbulent kinetic energy, m**2/s**2
 5 - dissipation rate, m**2/s**3
 6 - kinematic heat conductance, m**2/s
 7 - modulus of horizontal velocity, m/s
 8 - Richardson number, n/d
   -0.000000   -0.00000  0.7489E-09  0.1363E-09  0.9794E-13  0.1000E-09  0.0000E+00  0.3550E+17
   -0.068746    0.57679  0.1282E-09  0.7594E-09  0.1017E-12  0.1000E-09  0.0000E+00  0.2919E+17
   -0.137492    1.14332  0.8389E-10  0.2045E-08  0.1864E-12  0.1000E-09  0.0000E+00  0.2310E+17
   -0.206239    1.69436  0.6751E-10  0.4548E-08  0.3740E-12  0.1089E-09  0.0000E+00  0.1748E+17
   -0.274986    2.22745  0.6798E-10  0.9490E-08  0.7482E-12  0.3080E-09  0.0000E+00  0.1237E+17
   -0.343734    2.74045  0.6752E-10  0.1926E-07  0.1477E-11  0.9634E-09  0.0000E+00  0.7810E+16
   -0.412483    3.23062  0.6668E-10  0.3846E-07  0.2882E-11  0.3842E-08  0.0000E+00  0.3823E+16
   -0.481232    3.69089  0.6620E-10  0.7453E-07  0.5473E-11  0.4233E-07  0.0000E+00  0.6640E+15
   -0.549982    4.03995  0.6616E-10  0.7519E-07  0.5524E-11  0.3531E-03  0.0000E+00 -0.1504E+12
   -0.618731    4.04012  0.6616E-10  0.7549E-07  0.5553E-11  0.3449E-03  0.0000E+00 -0.1529E+12
   -0.687482    4.04031  0.6616E-10  0.7576E-07  0.5585E-11  0.3452E-03  0.0000E+00 -0.1520E+12
   -0.756232    4.04049  0.6616E-10  0.7600E-07  0.5619E-11  0.3453E-03  0.0000E+00 -0.1517E+12
   -0.824983    4.04066  0.6616E-10  0.7620E-07  0.5657E-11  0.3451E-03  0.0000E+00 -0.1516E+12
   -0.893734    4.04084  0.6616E-10  0.7638E-07  0.5698E-11  0.3444E-03  0.0000E+00 -0.1518E+12
   -0.962486    4.04102  0.6616E-10  0.7652E-07  0.5743E-11  0.3433E-03  0.0000E+00 -0.1522E+12
   -1.031238    4.04120  0.6616E-10  0.7664E-07  0.5792E-11  0.3417E-03  0.0000E+00 -0.1531E+12
   -1.099989    4.04138  0.6616E-10  0.7673E-07  0.5845E-11  0.3396E-03  0.0000E+00 -0.1545E+12
   -1.168741    4.04155  0.6616E-10  0.7678E-07  0.5904E-11  0.3371E-03  0.0000E+00 -0.1563E+12
   -1.237493    4.04174  0.6616E-10  0.7681E-07  0.5968E-11  0.3342E-03  0.0000E+00 -0.1584E+12
   -1.306246    4.04192  0.6616E-10  0.7681E-07  0.6038E-11  0.3308E-03  0.0000E+00 -0.1609E+12
   -1.374998    4.04210  0.6616E-10  0.7678E-07  0.6115E-11  0.3269E-03  0.0000E+00 -0.1634E+12
   -1.443750    4.04229  0.6616E-10  0.7672E-07  0.6199E-11  0.3225E-03  0.0000E+00 -0.1659E+12
   -1.512502    4.04248  0.6616E-10  0.7662E-07  0.6291E-11  0.3177E-03  0.0000E+00 -0.1688E+12
   -1.581254    4.04267  0.6616E-10  0.7650E-07  0.6392E-11  0.3124E-03  0.0000E+00 -0.1721E+12
   -1.650006    4.04286  0.6616E-10  0.7634E-07  0.6504E-11  0.3066E-03  0.0000E+00 -0.1759E+12
   -1.718758    4.04306  0.6616E-10  0.7614E-07  0.6628E-11  0.3002E-03  0.0000E+00 -0.1802E+12
   -1.787510    4.04327  0.6616E-10  0.7591E-07  0.6765E-11  0.2934E-03  0.0000E+00 -0.1850E+12
   -1.856261    4.04347  0.6616E-10  0.7565E-07  0.6917E-11  0.2859E-03  0.0000E+00 -0.1905E+12
   -1.925012    4.04369  0.6616E-10  0.7535E-07  0.7086E-11  0.2780E-03  0.0000E+00 -0.1968E+12
   -1.993763    4.04390  0.6616E-10  0.7501E-07  0.7277E-11  0.2695E-03  0.0000E+00 -0.2038E+12
   -2.062514    4.04413  0.6616E-10  0.7463E-07  0.7493E-11  0.2603E-03  0.0000E+00 -0.2122E+12
   -2.131264    4.04436  0.6616E-10  0.7418E-07  0.7756E-11  0.2496E-03  0.0000E+00 -0.2226E+12
   -2.200014    4.04461  0.6616E-10  0.7364E-07  0.8079E-11  0.2376E-03  0.0000E+00 -0.2357E+12
   -2.268764    4.04487  0.6616E-10  0.7300E-07  0.8484E-11  0.2238E-03  0.0000E+00 -0.2526E+12
   -2.337513    4.04514  0.6616E-10  0.7222E-07  0.9009E-11  0.2088E-03  0.0000E+00 -0.2742E+12
   -2.406261    4.04544  0.6616E-10  0.7108E-07  0.9824E-11  0.1775E-03  0.0000E+00 -0.3277E+12
   -2.475009    4.04579  0.6616E-10  0.6915E-07  0.1134E-10  0.1098E-03  0.0000E+00 -0.5427E+12
   -2.543757    4.04637  0.6616E-10  0.6580E-07  0.1433E-10  0.6725E-04  0.0000E+00 -0.9166E+12
   -2.612504    4.04734  0.6616E-10  0.5958E-07  0.2105E-10  0.3244E-04  0.0000E+00 -0.1991E+13
   -2.681250    4.04939  0.6616E-10  0.2888E-07  0.7003E-10  0.1750E-05  0.0000E+00 -0.4676E+14
   -2.749996    4.08610  0.6616E-10  0.0000E+00  0.0000E+00  0.0000E+00  0.0000E+00  0.0000E+00
