 1 - depth, m
 2 - temperature, C
 3 - salinity, kg/kg
 4 - turbulent kinetic energy, m**2/s**2
 5 - dissipation rate, m**2/s**3
 6 - kinematic heat conductance, m**2/s
 7 - modulus of horizontal velocity, m/s
 8 - Richardson number, n/d
   -0.000000   -0.00000  0.4316E-07  0.2144E-09  0.1704E-12  0.1000E-09  0.0000E+00  0.4445E+17
   -0.068745    0.74011  0.0000E+00  0.1295E-08  0.1584E-12  0.1000E-09  0.0000E+00  0.3297E+17
   -0.137491    1.43247  0.9184E-10  0.3415E-08  0.2626E-12  0.1000E-09  0.0000E+00  0.2317E+17
   -0.206238    2.07092  0.5198E-10  0.7275E-08  0.4920E-12  0.1651E-09  0.0000E+00  0.1516E+17
   -0.274985    2.65082  0.7146E-10  0.1441E-07  0.9305E-12  0.5309E-09  0.0000E+00  0.8909E+16
   -0.343733    3.17030  0.6583E-10  0.2767E-07  0.1744E-11  0.2069E-08  0.0000E+00  0.4281E+16
   -0.412481    3.63299  0.6626E-10  0.5200E-07  0.3222E-11  0.1683E-07  0.0000E+00  0.9729E+15
   -0.481230    4.01968  0.6626E-10  0.5249E-07  0.3255E-11  0.2986E-03  0.0000E+00 -0.1035E+12
   -0.549979    4.01988  0.6626E-10  0.5273E-07  0.3274E-11  0.2910E-03  0.0000E+00 -0.1053E+12
   -0.618729    4.02008  0.6626E-10  0.5295E-07  0.3295E-11  0.2913E-03  0.0000E+00 -0.1049E+12
   -0.687479    4.02028  0.6626E-10  0.5315E-07  0.3318E-11  0.2915E-03  0.0000E+00 -0.1047E+12
   -0.756229    4.02047  0.6626E-10  0.5333E-07  0.3344E-11  0.2914E-03  0.0000E+00 -0.1052E+12
   -0.824980    4.02067  0.6626E-10  0.5350E-07  0.3372E-11  0.2908E-03  0.0000E+00 -0.1059E+12
   -0.893731    4.02087  0.6626E-10  0.5365E-07  0.3403E-11  0.2900E-03  0.0000E+00 -0.1069E+12
   -0.962482    4.02106  0.6626E-10  0.5378E-07  0.3436E-11  0.2888E-03  0.0000E+00 -0.1082E+12
   -1.031233    4.02126  0.6626E-10  0.5390E-07  0.3472E-11  0.2872E-03  0.0000E+00 -0.1097E+12
   -1.099985    4.02146  0.6626E-10  0.5400E-07  0.3512E-11  0.2853E-03  0.0000E+00 -0.1115E+12
   -1.168736    4.02167  0.6626E-10  0.5408E-07  0.3555E-11  0.2830E-03  0.0000E+00 -0.1135E+12
   -1.237488    4.02187  0.6626E-10  0.5415E-07  0.3602E-11  0.2803E-03  0.0000E+00 -0.1159E+12
   -1.306240    4.02208  0.6626E-10  0.5420E-07  0.3653E-11  0.2772E-03  0.0000E+00 -0.1185E+12
   -1.374992    4.02229  0.6626E-10  0.5423E-07  0.3709E-11  0.2738E-03  0.0000E+00 -0.1214E+12
   -1.443744    4.02250  0.6626E-10  0.5424E-07  0.3771E-11  0.2700E-03  0.0000E+00 -0.1245E+12
   -1.512496    4.02272  0.6626E-10  0.5423E-07  0.3838E-11  0.2657E-03  0.0000E+00 -0.1280E+12
   -1.581247    4.02295  0.6626E-10  0.5420E-07  0.3911E-11  0.2611E-03  0.0000E+00 -0.1318E+12
   -1.649999    4.02318  0.6626E-10  0.5415E-07  0.3991E-11  0.2560E-03  0.0000E+00 -0.1362E+12
   -1.718751    4.02341  0.6626E-10  0.5408E-07  0.4079E-11  0.2505E-03  0.0000E+00 -0.1410E+12
   -1.787502    4.02365  0.6626E-10  0.5398E-07  0.4176E-11  0.2446E-03  0.0000E+00 -0.1464E+12
   -1.856253    4.02390  0.6626E-10  0.5385E-07  0.4283E-11  0.2382E-03  0.0000E+00 -0.1525E+12
   -1.925004    4.02416  0.6626E-10  0.5369E-07  0.4401E-11  0.2313E-03  0.0000E+00 -0.1594E+12
   -1.993755    4.02443  0.6626E-10  0.5351E-07  0.4533E-11  0.2241E-03  0.0000E+00 -0.1671E+12
   -2.062505    4.02471  0.6626E-10  0.5329E-07  0.4683E-11  0.2161E-03  0.0000E+00 -0.1758E+12
   -2.131255    4.02500  0.6626E-10  0.5301E-07  0.4863E-11  0.2070E-03  0.0000E+00 -0.1863E+12
   -2.200005    4.02531  0.6626E-10  0.5267E-07  0.5083E-11  0.1967E-03  0.0000E+00 -0.1993E+12
   -2.268754    4.02563  0.6626E-10  0.5225E-07  0.5358E-11  0.1848E-03  0.0000E+00 -0.2159E+12
   -2.337502    4.02598  0.6626E-10  0.5172E-07  0.5713E-11  0.1718E-03  0.0000E+00 -0.2371E+12
   -2.406251    4.02636  0.6626E-10  0.5094E-07  0.6265E-11  0.1435E-03  0.0000E+00 -0.2911E+12
   -2.474999    4.02683  0.6626E-10  0.4957E-07  0.7286E-11  0.9215E-04  0.0000E+00 -0.4686E+12
   -2.543746    4.02756  0.6626E-10  0.4717E-07  0.9272E-11  0.5678E-04  0.0000E+00 -0.7972E+12
   -2.612492    4.02878  0.6626E-10  0.4265E-07  0.1377E-10  0.2687E-04  0.0000E+00 -0.1807E+13
   -2.681238    4.03142  0.6626E-10  0.2123E-07  0.4519E-10  0.1563E-05  0.0000E+00 -0.4541E+14
   -2.749984    4.07485  0.6626E-10  0.0000E+00  0.0000E+00  0.0000E+00  0.0000E+00  0.0000E+00
