 1 - depth, m
 2 - temperature, C
 3 - salinity, kg/kg
 4 - turbulent kinetic energy, m**2/s**2
 5 - dissipation rate, m**2/s**3
 6 - kinematic heat conductance, m**2/s
 7 - modulus of horizontal velocity, m/s
 8 - Richardson number, n/d
   -0.000000   -0.00000  0.2553E-09  0.1219E-13  0.7603E-17  0.1000E-09  0.0000E+00  0.8289E+16
   -0.068746    0.12650  0.1715E-09  0.1219E-13  0.7603E-17  0.1000E-09  0.0000E+00  0.7860E+16
   -0.137492    0.25067  0.1127E-09  0.1219E-13  0.7603E-17  0.1000E-09  0.0000E+00  0.7348E+16
   -0.206239    0.37084  0.9196E-10  0.1219E-13  0.7603E-17  0.1000E-09  0.0000E+00  0.6848E+16
   -0.274987    0.48680  0.8676E-10  0.1219E-13  0.7603E-17  0.1000E-09  0.0000E+00  0.6371E+16
   -0.343735    0.59846  0.8573E-10  0.1219E-13  0.7603E-17  0.1000E-09  0.0000E+00  0.5971E+16
   -0.412483    0.70677  0.8556E-10  0.1219E-13  0.7603E-17  0.1000E-09  0.0000E+00  0.5588E+16
   -0.481232    0.81165  0.8554E-10  0.1219E-13  0.7603E-17  0.1000E-09  0.0000E+00  0.5222E+16
   -0.549982    0.91309  0.8553E-10  0.1219E-13  0.7603E-17  0.1000E-09  0.0000E+00  0.4916E+16
   -0.618732    1.01190  0.8553E-10  0.1219E-13  0.7603E-17  0.1000E-09  0.0000E+00  0.4666E+16
   -0.687482    1.10900  0.8553E-10  0.1219E-13  0.7603E-17  0.1000E-09  0.0000E+00  0.4437E+16
   -0.756233    1.20462  0.8553E-10  0.1219E-13  0.7603E-17  0.1000E-09  0.0000E+00  0.4275E+16
   -0.824984    1.30013  0.8553E-10  0.1219E-13  0.7603E-17  0.1000E-09  0.0000E+00  0.4120E+16
   -0.893735    1.39566  0.8552E-10  0.1219E-13  0.7603E-17  0.1000E-09  0.0000E+00  0.3972E+16
   -0.962487    1.49136  0.8551E-10  0.1219E-13  0.7603E-17  0.1000E-09  0.0000E+00  0.3826E+16
   -1.031238    1.58733  0.8547E-10  0.1219E-13  0.7603E-17  0.1000E-09  0.0000E+00  0.3680E+16
   -1.099990    1.68356  0.8538E-10  0.1219E-13  0.7603E-17  0.1000E-09  0.0000E+00  0.3525E+16
   -1.168742    1.77980  0.8522E-10  0.1219E-13  0.7603E-17  0.1000E-09  0.0000E+00  0.3370E+16
   -1.237495    1.87606  0.8494E-10  0.1219E-13  0.7603E-17  0.1000E-09  0.0000E+00  0.3214E+16
   -1.306247    1.97232  0.8456E-10  0.1219E-13  0.7603E-17  0.1000E-09  0.0000E+00  0.3058E+16
   -1.374999    2.06854  0.8411E-10  0.1219E-13  0.7603E-17  0.1000E-09  0.0000E+00  0.2917E+16
   -1.443751    2.16522  0.8366E-10  0.1219E-13  0.7603E-17  0.1000E-09  0.0000E+00  0.2799E+16
   -1.512503    2.26324  0.8323E-10  0.1219E-13  0.7603E-17  0.1000E-09  0.0000E+00  0.2673E+16
   -1.581256    2.36250  0.8280E-10  0.1219E-13  0.7603E-17  0.1000E-09  0.0000E+00  0.2537E+16
   -1.650008    2.46286  0.8235E-10  0.1219E-13  0.7603E-17  0.1000E-09  0.0000E+00  0.2392E+16
   -1.718759    2.56411  0.8192E-10  0.1219E-13  0.7603E-17  0.1000E-09  0.0000E+00  0.2238E+16
   -1.787511    2.66604  0.8160E-10  0.1219E-13  0.7603E-17  0.1000E-09  0.0000E+00  0.2076E+16
   -1.856263    2.76839  0.8141E-10  0.1219E-13  0.7603E-17  0.1000E-09  0.0000E+00  0.1908E+16
   -1.925014    2.87086  0.8132E-10  0.1219E-13  0.7603E-17  0.1000E-09  0.0000E+00  0.1734E+16
   -1.993765    2.97314  0.8126E-10  0.1219E-13  0.7603E-17  0.1000E-09  0.0000E+00  0.1557E+16
   -2.062516    3.07489  0.8122E-10  0.1301E-13  0.7974E-17  0.1000E-09  0.0000E+00  0.1428E+16
   -2.131266    3.17953  0.8121E-10  0.6022E-13  0.3478E-16  0.1000E-09  0.0000E+00  0.1310E+16
   -2.200016    3.28945  0.8121E-10  0.3414E-12  0.1888E-15  0.1000E-09  0.0000E+00  0.1175E+16
   -2.268765    3.40574  0.8121E-10  0.1908E-11  0.1012E-14  0.1000E-09  0.0000E+00  0.1018E+16
   -2.337515    3.53005  0.8121E-10  0.1046E-10  0.5332E-14  0.1000E-09  0.0000E+00  0.8262E+15
   -2.406263    3.66484  0.8121E-10  0.5649E-10  0.2769E-13  0.2391E-09  0.0000E+00  0.5789E+15
   -2.475011    3.81390  0.8121E-10  0.3013E-09  0.1423E-12  0.2997E-08  0.0000E+00  0.2330E+15
   -2.543759    3.98085  0.8121E-10  0.1437E-08  0.6677E-12  0.7827E-06  0.0000E+00 -0.4720E+13
   -2.612506    4.01181  0.8121E-10  0.2797E-08  0.1996E-11  0.1285E-05  0.0000E+00 -0.1356E+14
   -2.681252    4.03512  0.8121E-10  0.3090E-08  0.5947E-11  0.4604E-06  0.0000E+00 -0.9065E+14
   -2.749998    4.10451  0.8121E-10  0.0000E+00  0.0000E+00  0.0000E+00  0.0000E+00  0.0000E+00
