 1 - depth, m
 2 - temperature, C
 3 - salinity, kg/kg
 4 - turbulent kinetic energy, m**2/s**2
 5 - dissipation rate, m**2/s**3
 6 - kinematic heat conductance, m**2/s
 7 - modulus of horizontal velocity, m/s
 8 - Richardson number, n/d
   -0.000000   -0.00000  0.3211E-09  0.1219E-13  0.7603E-17  0.1000E-09  0.0000E+00  0.1015E+17
   -0.068746    0.15548  0.1380E-09  0.1219E-13  0.7603E-17  0.1000E-09  0.0000E+00  0.9247E+16
   -0.137492    0.30325  0.9270E-10  0.1219E-13  0.7603E-17  0.1000E-09  0.0000E+00  0.8171E+16
   -0.206239    0.43927  0.8629E-10  0.1219E-13  0.7603E-17  0.1000E-09  0.0000E+00  0.7110E+16
   -0.274987    0.56230  0.8561E-10  0.1219E-13  0.7603E-17  0.1000E-09  0.0000E+00  0.6106E+16
   -0.343735    0.67181  0.8554E-10  0.1219E-13  0.7603E-17  0.1000E-09  0.0000E+00  0.5285E+16
   -0.412484    0.76978  0.8553E-10  0.1219E-13  0.7603E-17  0.1000E-09  0.0000E+00  0.4523E+16
   -0.481233    0.85620  0.8553E-10  0.1219E-13  0.7603E-17  0.1000E-09  0.0000E+00  0.3830E+16
   -0.549982    0.93140  0.8553E-10  0.1219E-13  0.7603E-17  0.1000E-09  0.0000E+00  0.3309E+16
   -0.618732    0.99796  0.8553E-10  0.1219E-13  0.7603E-17  0.1000E-09  0.0000E+00  0.2963E+16
   -0.687483    1.05892  0.8553E-10  0.1219E-13  0.7603E-17  0.1000E-09  0.0000E+00  0.2708E+16
   -0.756234    1.11583  0.8553E-10  0.1219E-13  0.7603E-17  0.1000E-09  0.0000E+00  0.2632E+16
   -0.824985    1.17228  0.8553E-10  0.1219E-13  0.7603E-17  0.1000E-09  0.0000E+00  0.2630E+16
   -0.893736    1.22991  0.8553E-10  0.1219E-13  0.7603E-17  0.1000E-09  0.0000E+00  0.2699E+16
   -0.962488    1.29040  0.8553E-10  0.1219E-13  0.7603E-17  0.1000E-09  0.0000E+00  0.2829E+16
   -1.031239    1.35537  0.8551E-10  0.1219E-13  0.7603E-17  0.1000E-09  0.0000E+00  0.2991E+16
   -1.099991    1.42590  0.8546E-10  0.1219E-13  0.7603E-17  0.1000E-09  0.0000E+00  0.3130E+16
   -1.168743    1.50196  0.8535E-10  0.1219E-13  0.7603E-17  0.1000E-09  0.0000E+00  0.3291E+16
   -1.237496    1.58464  0.8512E-10  0.1219E-13  0.7603E-17  0.1000E-09  0.0000E+00  0.3457E+16
   -1.306248    1.67479  0.8473E-10  0.1219E-13  0.7603E-17  0.1000E-09  0.0000E+00  0.3608E+16
   -1.375000    1.77295  0.8423E-10  0.1219E-13  0.7603E-17  0.1000E-09  0.0000E+00  0.3764E+16
   -1.443752    1.88040  0.8373E-10  0.1219E-13  0.7603E-17  0.1000E-09  0.0000E+00  0.3923E+16
   -1.512505    1.99880  0.8335E-10  0.1219E-13  0.7603E-17  0.1000E-09  0.0000E+00  0.4001E+16
   -1.581257    2.12757  0.8296E-10  0.1219E-13  0.7603E-17  0.1000E-09  0.0000E+00  0.3986E+16
   -1.650009    2.26573  0.8247E-10  0.1219E-13  0.7603E-17  0.1000E-09  0.0000E+00  0.3873E+16
   -1.718761    2.41189  0.8195E-10  0.2149E-13  0.8144E-17  0.1000E-09  0.0000E+00  0.3665E+16
   -1.787513    2.56434  0.8156E-10  0.8306E-13  0.2715E-16  0.1000E-09  0.0000E+00  0.3371E+16
   -1.856264    2.72110  0.8138E-10  0.3192E-12  0.9940E-16  0.1000E-09  0.0000E+00  0.3009E+16
   -1.925016    2.88009  0.8132E-10  0.1195E-11  0.3577E-15  0.1000E-09  0.0000E+00  0.2601E+16
   -1.993767    3.03918  0.8125E-10  0.4373E-11  0.1260E-14  0.1000E-09  0.0000E+00  0.2168E+16
   -2.062517    3.19638  0.8121E-10  0.1579E-10  0.4379E-14  0.1000E-09  0.0000E+00  0.1788E+16
   -2.131268    3.35524  0.8121E-10  0.5722E-10  0.1528E-13  0.1000E-09  0.0000E+00  0.1413E+16
   -2.200018    3.51795  0.8121E-10  0.2045E-09  0.5265E-13  0.2640E-09  0.0000E+00  0.1013E+16
   -2.268767    3.68496  0.8121E-10  0.7205E-09  0.1789E-12  0.1563E-08  0.0000E+00  0.5814E+15
   -2.337517    3.85653  0.8121E-10  0.2473E-08  0.5941E-12  0.2373E-07  0.0000E+00  0.1266E+15
   -2.406265    4.01317  0.8121E-10  0.4992E-08  0.1210E-11  0.7588E-05  0.0000E+00 -0.1661E+13
   -2.475013    4.01687  0.8121E-10  0.6017E-08  0.1648E-11  0.7882E-05  0.0000E+00 -0.2094E+13
   -2.543761    4.02098  0.8121E-10  0.6693E-08  0.2344E-11  0.6612E-05  0.0000E+00 -0.3362E+13
   -2.612508    4.02671  0.8121E-10  0.6729E-08  0.3788E-11  0.3796E-05  0.0000E+00 -0.8283E+13
   -2.681254    4.03818  0.8121E-10  0.4995E-08  0.9996E-11  0.6669E-06  0.0000E+00 -0.9292E+14
   -2.750000    4.10701  0.8121E-10  0.0000E+00  0.0000E+00  0.0000E+00  0.0000E+00  0.0000E+00
