 1 - depth, m
 2 - temperature, C
 3 - salinity, kg/kg
 4 - turbulent kinetic energy, m**2/s**2
 5 - dissipation rate, m**2/s**3
 6 - kinematic heat conductance, m**2/s
 7 - modulus of horizontal velocity, m/s
 8 - Richardson number, n/d
   -0.000000   -0.00000  0.1454E-07  0.1278E-08  0.1620E-11  0.1572E-09  0.0000E+00  0.5234E+17
   -0.068746    0.89019  0.2556E-07  0.1158E-07  0.1945E-11  0.2642E-09  0.0000E+00  0.3747E+17
   -0.137493    1.74941  0.1185E-07  0.3472E-07  0.4252E-11  0.8754E-09  0.0000E+00  0.2474E+17
   -0.206240    2.59510  0.3301E-08  0.8582E-07  0.9784E-11  0.3857E-08  0.0000E+00  0.1298E+17
   -0.274988    3.43451  0.5413E-09  0.1958E-06  0.2172E-10  0.5098E-07  0.0000E+00  0.2318E+16
   -0.343737    4.09704  0.9092E-10  0.1972E-06  0.2189E-10  0.5854E-03  0.0000E+00 -0.3685E+12
   -0.412486    4.09725  0.9088E-10  0.1978E-06  0.2199E-10  0.5758E-03  0.0000E+00 -0.3650E+12
   -0.481235    4.09746  0.9084E-10  0.1984E-06  0.2209E-10  0.5766E-03  0.0000E+00 -0.3573E+12
   -0.549985    4.09767  0.9080E-10  0.1989E-06  0.2221E-10  0.5768E-03  0.0000E+00 -0.3525E+12
   -0.618736    4.09787  0.9077E-10  0.1994E-06  0.2235E-10  0.5765E-03  0.0000E+00 -0.3498E+12
   -0.687486    4.09807  0.9073E-10  0.1998E-06  0.2250E-10  0.5752E-03  0.0000E+00 -0.3492E+12
   -0.756237    4.09827  0.9069E-10  0.2001E-06  0.2266E-10  0.5734E-03  0.0000E+00 -0.3496E+12
   -0.824989    4.09847  0.9066E-10  0.2004E-06  0.2284E-10  0.5708E-03  0.0000E+00 -0.3518E+12
   -0.893741    4.09867  0.9063E-10  0.2006E-06  0.2304E-10  0.5675E-03  0.0000E+00 -0.3549E+12
   -0.962492    4.09887  0.9060E-10  0.2008E-06  0.2326E-10  0.5635E-03  0.0000E+00 -0.3595E+12
   -1.031245    4.09908  0.9057E-10  0.2009E-06  0.2350E-10  0.5589E-03  0.0000E+00 -0.3646E+12
   -1.099997    4.09929  0.9054E-10  0.2010E-06  0.2376E-10  0.5536E-03  0.0000E+00 -0.3704E+12
   -1.168749    4.09950  0.9051E-10  0.2010E-06  0.2404E-10  0.5476E-03  0.0000E+00 -0.3769E+12
   -1.237502    4.09971  0.9048E-10  0.2010E-06  0.2436E-10  0.5409E-03  0.0000E+00 -0.3850E+12
   -1.306255    4.09993  0.9046E-10  0.2009E-06  0.2471E-10  0.5334E-03  0.0000E+00 -0.3939E+12
   -1.375007    4.10015  0.9043E-10  0.2007E-06  0.2508E-10  0.5252E-03  0.0000E+00 -0.4044E+12
   -1.443760    4.10037  0.9041E-10  0.2005E-06  0.2550E-10  0.5162E-03  0.0000E+00 -0.4157E+12
   -1.512512    4.10061  0.9039E-10  0.2002E-06  0.2596E-10  0.5065E-03  0.0000E+00 -0.4288E+12
   -1.581265    4.10085  0.9036E-10  0.1998E-06  0.2646E-10  0.4960E-03  0.0000E+00 -0.4430E+12
   -1.650017    4.10109  0.9034E-10  0.1994E-06  0.2701E-10  0.4847E-03  0.0000E+00 -0.4595E+12
   -1.718770    4.10135  0.9032E-10  0.1989E-06  0.2763E-10  0.4727E-03  0.0000E+00 -0.4774E+12
   -1.787522    4.10161  0.9030E-10  0.1983E-06  0.2830E-10  0.4598E-03  0.0000E+00 -0.4980E+12
   -1.856274    4.10189  0.9029E-10  0.1976E-06  0.2905E-10  0.4462E-03  0.0000E+00 -0.5207E+12
   -1.925025    4.10218  0.9027E-10  0.1968E-06  0.2989E-10  0.4317E-03  0.0000E+00 -0.5467E+12
   -1.993777    4.10248  0.9025E-10  0.1959E-06  0.3083E-10  0.4166E-03  0.0000E+00 -0.5753E+12
   -2.062528    4.10280  0.9024E-10  0.1949E-06  0.3189E-10  0.4003E-03  0.0000E+00 -0.6065E+12
   -2.131279    4.10313  0.9023E-10  0.1937E-06  0.3318E-10  0.3821E-03  0.0000E+00 -0.6425E+12
   -2.200029    4.10348  0.9021E-10  0.1922E-06  0.3476E-10  0.3617E-03  0.0000E+00 -0.6869E+12
   -2.268779    4.10385  0.9020E-10  0.1905E-06  0.3676E-10  0.3387E-03  0.0000E+00 -0.7426E+12
   -2.337529    4.10426  0.9019E-10  0.1883E-06  0.3935E-10  0.3124E-03  0.0000E+00 -0.8160E+12
   -2.406278    4.10470  0.9018E-10  0.1856E-06  0.4286E-10  0.2821E-03  0.0000E+00 -0.9170E+12
   -2.475026    4.10519  0.9017E-10  0.1820E-06  0.4794E-10  0.2500E-03  0.0000E+00 -0.1052E+13
   -2.543774    4.10576  0.9016E-10  0.1756E-06  0.5807E-10  0.1402E-03  0.0000E+00 -0.1914E+13
   -2.612521    4.10678  0.9015E-10  0.1612E-06  0.8464E-10  0.6106E-04  0.0000E+00 -0.4538E+13
   -2.681268    4.10917  0.9013E-10  0.7687E-07  0.3037E-09  0.2830E-05  0.0000E+00 -0.1168E+15
   -2.750014    4.15964  0.8998E-10  0.0000E+00  0.0000E+00  0.0000E+00  0.0000E+00  0.0000E+00
