 1 - depth, m
 2 - temperature, C
 3 - salinity, kg/kg
 4 - turbulent kinetic energy, m**2/s**2
 5 - dissipation rate, m**2/s**3
 6 - kinematic heat conductance, m**2/s
 7 - modulus of horizontal velocity, m/s
 8 - Richardson number, n/d
   -0.000000   -0.00000  0.3499E-09  0.1219E-13  0.7603E-17  0.1000E-09  0.0000E+00  0.1287E+17
   -0.068746    0.19837  0.2137E-09  0.1219E-13  0.7603E-17  0.1000E-09  0.0000E+00  0.1218E+17
   -0.137492    0.39687  0.1224E-09  0.1219E-13  0.7603E-17  0.1000E-09  0.0000E+00  0.1139E+17
   -0.206239    0.59367  0.8860E-10  0.1219E-13  0.7603E-17  0.1000E-09  0.0000E+00  0.1060E+17
   -0.274987    0.78831  0.7880E-10  0.1219E-13  0.7603E-17  0.1000E-09  0.0000E+00  0.9818E+16
   -0.343735    0.98044  0.7630E-10  0.2889E-13  0.7603E-17  0.1000E-09  0.0000E+00  0.9066E+16
   -0.412484    1.17009  0.7570E-10  0.9447E-13  0.9933E-17  0.1000E-09  0.0000E+00  0.8329E+16
   -0.481233    1.35696  0.7556E-10  0.2247E-12  0.1856E-16  0.1000E-09  0.0000E+00  0.7611E+16
   -0.549983    1.54075  0.7552E-10  0.4759E-12  0.3650E-16  0.1000E-09  0.0000E+00  0.6928E+16
   -0.618733    1.72155  0.7550E-10  0.9614E-12  0.7127E-16  0.1000E-09  0.0000E+00  0.6281E+16
   -0.687483    1.89949  0.7546E-10  0.1905E-11  0.1378E-15  0.1000E-09  0.0000E+00  0.5659E+16
   -0.756234    2.07446  0.7540E-10  0.3735E-11  0.2645E-15  0.1000E-09  0.0000E+00  0.5084E+16
   -0.824985    2.24712  0.7530E-10  0.7267E-11  0.5041E-15  0.1000E-09  0.0000E+00  0.4529E+16
   -0.893736    2.41733  0.7514E-10  0.1405E-10  0.9549E-15  0.1000E-09  0.0000E+00  0.3993E+16
   -0.962488    2.58496  0.7490E-10  0.2698E-10  0.1798E-14  0.1000E-09  0.0000E+00  0.3478E+16
   -1.031240    2.74979  0.7459E-10  0.5152E-10  0.3364E-14  0.1000E-09  0.0000E+00  0.2983E+16
   -1.099992    2.91154  0.7418E-10  0.9810E-10  0.6279E-14  0.1000E-09  0.0000E+00  0.2507E+16
   -1.168744    3.06974  0.7368E-10  0.1860E-09  0.1167E-13  0.1000E-09  0.0000E+00  0.2052E+16
   -1.237496    3.22372  0.7313E-10  0.3508E-09  0.2159E-13  0.1000E-09  0.0000E+00  0.1623E+16
   -1.306248    3.37260  0.7265E-10  0.6581E-09  0.3972E-13  0.1652E-09  0.0000E+00  0.1224E+16
   -1.375000    3.51541  0.7233E-10  0.1228E-08  0.7268E-13  0.4269E-09  0.0000E+00  0.8664E+15
   -1.443753    3.65189  0.7219E-10  0.2277E-08  0.1322E-12  0.1216E-08  0.0000E+00  0.5533E+15
   -1.512505    3.78256  0.7215E-10  0.4192E-08  0.2389E-12  0.4399E-08  0.0000E+00  0.2764E+15
   -1.581257    3.90682  0.7214E-10  0.7521E-08  0.4219E-12  0.4520E-07  0.0000E+00  0.4740E+14
   -1.650009    4.00279  0.7214E-10  0.7994E-08  0.4499E-12  0.5218E-04  0.0000E+00 -0.8951E+11
   -1.718761    4.00314  0.7214E-10  0.8208E-08  0.4653E-12  0.5291E-04  0.0000E+00 -0.9058E+11
   -1.787513    4.00348  0.7214E-10  0.8394E-08  0.4818E-12  0.5311E-04  0.0000E+00 -0.9259E+11
   -1.856265    4.00382  0.7214E-10  0.8555E-08  0.4999E-12  0.5278E-04  0.0000E+00 -0.9559E+11
   -1.925016    4.00416  0.7214E-10  0.8691E-08  0.5197E-12  0.5191E-04  0.0000E+00 -0.9970E+11
   -1.993767    4.00452  0.7214E-10  0.8801E-08  0.5419E-12  0.5053E-04  0.0000E+00 -0.1051E+12
   -2.062518    4.00488  0.7214E-10  0.8887E-08  0.5673E-12  0.4888E-04  0.0000E+00 -0.1126E+12
   -2.131268    4.00526  0.7214E-10  0.8949E-08  0.5983E-12  0.4670E-04  0.0000E+00 -0.1231E+12
   -2.200018    4.00567  0.7214E-10  0.8985E-08  0.6371E-12  0.4381E-04  0.0000E+00 -0.1378E+12
   -2.268768    4.00612  0.7214E-10  0.8987E-08  0.6871E-12  0.4015E-04  0.0000E+00 -0.1593E+12
   -2.337517    4.00663  0.7214E-10  0.8943E-08  0.7545E-12  0.3563E-04  0.0000E+00 -0.1923E+12
   -2.406266    4.00723  0.7214E-10  0.8831E-08  0.8512E-12  0.3013E-04  0.0000E+00 -0.2479E+12
   -2.475014    4.00797  0.7214E-10  0.8605E-08  0.1004E-11  0.2350E-04  0.0000E+00 -0.3566E+12
   -2.543762    4.00900  0.7214E-10  0.8141E-08  0.1290E-11  0.1537E-04  0.0000E+00 -0.6323E+12
   -2.612509    4.01071  0.7214E-10  0.7122E-08  0.1962E-11  0.6820E-05  0.0000E+00 -0.1742E+13
   -2.681255    4.01491  0.7214E-10  0.3596E-08  0.5540E-11  0.5014E-06  0.0000E+00 -0.4434E+14
   -2.750001    4.06682  0.7214E-10  0.0000E+00  0.0000E+00  0.0000E+00  0.0000E+00  0.0000E+00
