 1 - depth, m
 2 - temperature, C
 3 - salinity, kg/kg
 4 - turbulent kinetic energy, m**2/s**2
 5 - dissipation rate, m**2/s**3
 6 - kinematic heat conductance, m**2/s
 7 - modulus of horizontal velocity, m/s
 8 - Richardson number, n/d
   -0.000000   -0.00000  0.2541E-09  0.1219E-13  0.7603E-17  0.1000E-09  0.0000E+00  0.1144E+17
   -0.068746    0.17574  0.1576E-09  0.1219E-13  0.7603E-17  0.1000E-09  0.0000E+00  0.1066E+17
   -0.137492    0.34762  0.1066E-09  0.1219E-13  0.7603E-17  0.1000E-09  0.0000E+00  0.9802E+16
   -0.206239    0.51368  0.8690E-10  0.1219E-13  0.7603E-17  0.1000E-09  0.0000E+00  0.9004E+16
   -0.274986    0.67401  0.8150E-10  0.1219E-13  0.7603E-17  0.1000E-09  0.0000E+00  0.8276E+16
   -0.343735    0.82896  0.8034E-10  0.1219E-13  0.7603E-17  0.1000E-09  0.0000E+00  0.7678E+16
   -0.412483    0.98025  0.8013E-10  0.1219E-13  0.7603E-17  0.1000E-09  0.0000E+00  0.7126E+16
   -0.481232    1.12820  0.8010E-10  0.1836E-13  0.7603E-17  0.1000E-09  0.0000E+00  0.6615E+16
   -0.549982    1.27311  0.8009E-10  0.7312E-13  0.9650E-17  0.1000E-09  0.0000E+00  0.6188E+16
   -0.618732    1.41642  0.8009E-10  0.1895E-12  0.1928E-16  0.1000E-09  0.0000E+00  0.5834E+16
   -0.687482    1.55959  0.8009E-10  0.4289E-12  0.4060E-16  0.1000E-09  0.0000E+00  0.5501E+16
   -0.756233    1.70315  0.8009E-10  0.9275E-12  0.8481E-16  0.1000E-09  0.0000E+00  0.5239E+16
   -0.824984    1.84918  0.8008E-10  0.1968E-11  0.1753E-15  0.1000E-09  0.0000E+00  0.4971E+16
   -0.893735    1.99800  0.8005E-10  0.4127E-11  0.3588E-15  0.1000E-09  0.0000E+00  0.4691E+16
   -0.962486    2.14985  0.7998E-10  0.8578E-11  0.7286E-15  0.1000E-09  0.0000E+00  0.4394E+16
   -1.031238    2.30491  0.7983E-10  0.1769E-10  0.1468E-14  0.1000E-09  0.0000E+00  0.4077E+16
   -1.099990    2.46324  0.7959E-10  0.3630E-10  0.2944E-14  0.1000E-09  0.0000E+00  0.3733E+16
   -1.168742    2.62472  0.7926E-10  0.7406E-10  0.5871E-14  0.1000E-09  0.0000E+00  0.3367E+16
   -1.237494    2.78932  0.7888E-10  0.1500E-09  0.1163E-13  0.1000E-09  0.0000E+00  0.2975E+16
   -1.306246    2.95691  0.7851E-10  0.3018E-09  0.2288E-13  0.1000E-09  0.0000E+00  0.2558E+16
   -1.374998    3.12729  0.7817E-10  0.6030E-09  0.4471E-13  0.1071E-09  0.0000E+00  0.2124E+16
   -1.443750    3.30073  0.7782E-10  0.1196E-08  0.8679E-13  0.2645E-09  0.0000E+00  0.1670E+16
   -1.512503    3.47759  0.7737E-10  0.2356E-08  0.1673E-12  0.7183E-09  0.0000E+00  0.1186E+16
   -1.581255    3.65704  0.7679E-10  0.4606E-08  0.3202E-12  0.2407E-08  0.0000E+00  0.6772E+15
   -1.650007    3.83697  0.7625E-10  0.8869E-08  0.6045E-12  0.1776E-07  0.0000E+00  0.1732E+15
   -1.718759    4.00126  0.7613E-10  0.9529E-08  0.6519E-12  0.4848E-04  0.0000E+00 -0.1287E+12
   -1.787510    4.00180  0.7613E-10  0.9831E-08  0.6787E-12  0.4977E-04  0.0000E+00 -0.1314E+12
   -1.856262    4.00234  0.7613E-10  0.1010E-07  0.7082E-12  0.5044E-04  0.0000E+00 -0.1358E+12
   -1.925013    4.00287  0.7613E-10  0.1033E-07  0.7409E-12  0.5047E-04  0.0000E+00 -0.1420E+12
   -1.993764    4.00341  0.7613E-10  0.1053E-07  0.7774E-12  0.4988E-04  0.0000E+00 -0.1504E+12
   -2.062515    4.00396  0.7613E-10  0.1069E-07  0.8190E-12  0.4876E-04  0.0000E+00 -0.1618E+12
   -2.131265    4.00453  0.7613E-10  0.1083E-07  0.8697E-12  0.4694E-04  0.0000E+00 -0.1776E+12
   -2.200015    4.00515  0.7613E-10  0.1093E-07  0.9330E-12  0.4434E-04  0.0000E+00 -0.2000E+12
   -2.268764    4.00581  0.7613E-10  0.1099E-07  0.1014E-11  0.4088E-04  0.0000E+00 -0.2326E+12
   -2.337513    4.00656  0.7613E-10  0.1100E-07  0.1124E-11  0.3648E-04  0.0000E+00 -0.2832E+12
   -2.406262    4.00743  0.7613E-10  0.1093E-07  0.1281E-11  0.3102E-04  0.0000E+00 -0.3689E+12
   -2.475010    4.00852  0.7613E-10  0.1072E-07  0.1528E-11  0.2436E-04  0.0000E+00 -0.5374E+12
   -2.543758    4.01001  0.7613E-10  0.1023E-07  0.1991E-11  0.1609E-04  0.0000E+00 -0.9675E+12
   -2.612505    4.01249  0.7613E-10  0.9080E-08  0.3078E-11  0.7311E-05  0.0000E+00 -0.2710E+13
   -2.681251    4.01843  0.7613E-10  0.5046E-08  0.8846E-11  0.6654E-06  0.0000E+00 -0.6238E+14
   -2.749997    4.08119  0.7613E-10  0.0000E+00  0.0000E+00  0.0000E+00  0.0000E+00  0.0000E+00
