 1 - depth, m
 2 - temperature, C
 3 - salinity, kg/kg
 4 - turbulent kinetic energy, m**2/s**2
 5 - dissipation rate, m**2/s**3
 6 - kinematic heat conductance, m**2/s
 7 - modulus of horizontal velocity, m/s
 8 - Richardson number, n/d
   -0.000000   -0.00000  0.1559E-09  0.1219E-13  0.7603E-17  0.1000E-09  0.0000E+00  0.1090E+17
   -0.068746    0.16732  0.1694E-09  0.1219E-13  0.7603E-17  0.1000E-09  0.0000E+00  0.1042E+17
   -0.137492    0.33494  0.1535E-09  0.1219E-13  0.7603E-17  0.1000E-09  0.0000E+00  0.9873E+16
   -0.206239    0.50158  0.1255E-09  0.1219E-13  0.7603E-17  0.1000E-09  0.0000E+00  0.9320E+16
   -0.274987    0.66705  0.1012E-09  0.1219E-13  0.7603E-17  0.1000E-09  0.0000E+00  0.8771E+16
   -0.343735    0.83115  0.8652E-10  0.1219E-13  0.7603E-17  0.1000E-09  0.0000E+00  0.8239E+16
   -0.412484    0.99393  0.7959E-10  0.1219E-13  0.7603E-17  0.1000E-09  0.0000E+00  0.7709E+16
   -0.481233    1.15514  0.7685E-10  0.1219E-13  0.7603E-17  0.1000E-09  0.0000E+00  0.7184E+16
   -0.549982    1.31456  0.7591E-10  0.1219E-13  0.7603E-17  0.1000E-09  0.0000E+00  0.6676E+16
   -0.618732    1.47217  0.7560E-10  0.1219E-13  0.7603E-17  0.1000E-09  0.0000E+00  0.6185E+16
   -0.687483    1.62799  0.7548E-10  0.1219E-13  0.7603E-17  0.1000E-09  0.0000E+00  0.5705E+16
   -0.756234    1.78187  0.7540E-10  0.2666E-13  0.7603E-17  0.1000E-09  0.0000E+00  0.5248E+16
   -0.824985    1.93397  0.7530E-10  0.8940E-13  0.1005E-16  0.1000E-09  0.0000E+00  0.4801E+16
   -0.893736    2.08413  0.7515E-10  0.2162E-12  0.1920E-16  0.1000E-09  0.0000E+00  0.4365E+16
   -0.962488    2.23217  0.7494E-10  0.4652E-12  0.3844E-16  0.1000E-09  0.0000E+00  0.3943E+16
   -1.031239    2.37791  0.7466E-10  0.9588E-12  0.7650E-16  0.1000E-09  0.0000E+00  0.3533E+16
   -1.099991    2.52112  0.7431E-10  0.1945E-11  0.1512E-15  0.1000E-09  0.0000E+00  0.3136E+16
   -1.168743    2.66145  0.7389E-10  0.3909E-11  0.2966E-15  0.1000E-09  0.0000E+00  0.2755E+16
   -1.237496    2.79868  0.7343E-10  0.7788E-11  0.5773E-15  0.1000E-09  0.0000E+00  0.2394E+16
   -1.306248    2.93261  0.7300E-10  0.1540E-10  0.1115E-14  0.1000E-09  0.0000E+00  0.2052E+16
   -1.375000    3.06307  0.7265E-10  0.3021E-10  0.2140E-14  0.1000E-09  0.0000E+00  0.1737E+16
   -1.443752    3.19030  0.7240E-10  0.5885E-10  0.4075E-14  0.1000E-09  0.0000E+00  0.1448E+16
   -1.512505    3.31483  0.7226E-10  0.1138E-09  0.7708E-14  0.1000E-09  0.0000E+00  0.1176E+16
   -1.581257    3.43662  0.7218E-10  0.2186E-09  0.1448E-13  0.1000E-09  0.0000E+00  0.9210E+15
   -1.650009    3.55563  0.7215E-10  0.4168E-09  0.2702E-13  0.2016E-09  0.0000E+00  0.6821E+15
   -1.718761    3.67181  0.7214E-10  0.7893E-09  0.5007E-13  0.5551E-09  0.0000E+00  0.4592E+15
   -1.787513    3.78499  0.7214E-10  0.1484E-08  0.9212E-13  0.1861E-08  0.0000E+00  0.2521E+15
   -1.856264    3.89455  0.7214E-10  0.2754E-08  0.1675E-12  0.1303E-07  0.0000E+00  0.6556E+14
   -1.925016    3.99392  0.7214E-10  0.3207E-08  0.1962E-12  0.1827E-04  0.0000E+00 -0.1029E+12
   -1.993767    3.99474  0.7214E-10  0.3415E-08  0.2127E-12  0.1913E-04  0.0000E+00 -0.1068E+12
   -2.062517    3.99552  0.7214E-10  0.3593E-08  0.2310E-12  0.1961E-04  0.0000E+00 -0.1141E+12
   -2.131268    3.99628  0.7214E-10  0.3752E-08  0.2525E-12  0.1964E-04  0.0000E+00 -0.1253E+12
   -2.200018    3.99705  0.7214E-10  0.3891E-08  0.2787E-12  0.1912E-04  0.0000E+00 -0.1420E+12
   -2.268768    3.99787  0.7214E-10  0.4006E-08  0.3117E-12  0.1804E-04  0.0000E+00 -0.1671E+12
   -2.337517    3.99876  0.7214E-10  0.4094E-08  0.3555E-12  0.1637E-04  0.0000E+00 -0.2072E+12
   -2.406265    3.99978  0.7214E-10  0.4142E-08  0.4177E-12  0.1406E-04  0.0000E+00 -0.2773E+12
   -2.475014    4.00103  0.7214E-10  0.4126E-08  0.5158E-12  0.1104E-04  0.0000E+00 -0.4212E+12
   -2.543761    4.00276  0.7214E-10  0.3973E-08  0.7007E-12  0.7168E-05  0.0000E+00 -0.8149E+12
   -2.612508    4.00567  0.7214E-10  0.3495E-08  0.1141E-11  0.3086E-05  0.0000E+00 -0.2617E+13
   -2.681255    4.01293  0.7214E-10  0.2071E-08  0.3076E-11  0.3432E-06  0.0000E+00 -0.4762E+14
   -2.750000    4.06873  0.7214E-10  0.0000E+00  0.0000E+00  0.0000E+00  0.0000E+00  0.0000E+00
