 1 - depth, m
 2 - temperature, C
 3 - salinity, kg/kg
 4 - turbulent kinetic energy, m**2/s**2
 5 - dissipation rate, m**2/s**3
 6 - kinematic heat conductance, m**2/s
 7 - modulus of horizontal velocity, m/s
 8 - Richardson number, n/d
   -0.000000   14.08481  0.7181E-10  0.1209E-03  0.3725E-04  0.1099E-03  0.1027E+00 -0.5238E-02
   -0.068746   14.10894  0.7181E-10  0.6318E-04  0.8171E-05  0.1179E-03  0.3828E-01 -0.9547E-02
   -0.137492   14.11283  0.7181E-10  0.4439E-04  0.3037E-05  0.1185E-03  0.2907E-01 -0.1041E-01
   -0.206239   14.11572  0.7181E-10  0.3306E-04  0.1323E-05  0.1302E-03  0.2360E-01 -0.1595E-01
   -0.274987   14.11808  0.7181E-10  0.2587E-04  0.6482E-06  0.1474E-03  0.1959E-01 -0.2308E-01
   -0.343735   14.12006  0.7181E-10  0.2141E-04  0.3580E-06  0.1654E-03  0.1653E-01 -0.2897E-01
   -0.412484   14.12174  0.7181E-10  0.1838E-04  0.2187E-06  0.1876E-03  0.1405E-01 -0.3790E-01
   -0.481233   14.12316  0.7181E-10  0.1625E-04  0.1452E-06  0.2149E-03  0.1207E-01 -0.5139E-01
   -0.549983   14.12436  0.7181E-10  0.1477E-04  0.1036E-06  0.2451E-03  0.1052E-01 -0.6626E-01
   -0.618733   14.12539  0.7181E-10  0.1372E-04  0.7851E-07  0.2774E-03  0.9255E-02 -0.8080E-01
   -0.687483   14.12630  0.7181E-10  0.1290E-04  0.6203E-07  0.3143E-03  0.8188E-02 -0.9766E-01
   -0.756234   14.12711  0.7181E-10  0.1224E-04  0.5059E-07  0.3589E-03  0.7282E-02  0.2025E+00
   -0.824985   14.12783  0.7181E-10  0.1169E-04  0.4230E-07  0.4216E-03  0.6508E-02  0.1162E+01
   -0.893736   14.12847  0.7181E-10  0.1122E-04  0.3612E-07  0.5269E-03  0.5843E-02  0.1123E+02
   -0.962488   14.12902  0.7181E-10  0.1082E-04  0.3141E-07  0.6853E-03  0.5269E-02  0.1699E+03
   -1.031240   14.12948  0.7181E-10  0.1047E-04  0.2776E-07  0.9031E-03  0.4770E-02  0.6623E+03
   -1.099992   14.12984  0.7181E-10  0.1017E-04  0.2488E-07  0.1144E-02  0.4334E-02  0.1689E+03
   -1.168744   14.13012  0.7181E-10  0.9912E-05  0.2254E-07  0.1279E-02  0.3960E-02  0.1345E+03
   -1.237496   14.13036  0.7181E-10  0.9677E-05  0.2058E-07  0.1316E-02  0.3620E-02  0.5650E+01
   -1.306249   14.13060  0.7181E-10  0.9460E-05  0.1889E-07  0.1334E-02  0.3303E-02  0.4926E+01
   -1.375001   14.13085  0.7181E-10  0.9259E-05  0.1745E-07  0.1349E-02  0.3007E-02  0.4468E+01
   -1.443753   14.13110  0.7181E-10  0.9070E-05  0.1621E-07  0.1362E-02  0.2731E-02  0.4121E+01
   -1.512506   14.13136  0.7181E-10  0.8890E-05  0.1517E-07  0.1373E-02  0.2472E-02  0.3844E+01
   -1.581258   14.13162  0.7181E-10  0.8717E-05  0.1428E-07  0.1383E-02  0.2230E-02  0.3611E+01
   -1.650010   14.13190  0.7181E-10  0.8547E-05  0.1355E-07  0.1391E-02  0.2002E-02  0.3407E+01
   -1.718762   14.13218  0.7181E-10  0.8379E-05  0.1295E-07  0.1398E-02  0.1788E-02  0.3223E+01
   -1.787514   14.13247  0.7181E-10  0.8209E-05  0.1248E-07  0.1402E-02  0.1586E-02  0.3057E+01
   -1.856265   14.13277  0.7181E-10  0.8035E-05  0.1213E-07  0.1403E-02  0.1395E-02  0.2908E+01
   -1.925017   14.13308  0.7181E-10  0.7855E-05  0.1191E-07  0.1400E-02  0.1215E-02  0.2773E+01
   -1.993768   14.13340  0.7181E-10  0.7667E-05  0.1180E-07  0.1401E-02  0.1044E-02  0.2639E+01
   -2.062519   14.13373  0.7181E-10  0.7475E-05  0.1181E-07  0.1441E-02  0.8827E-03  0.2156E+01
   -2.131269   14.13407  0.7181E-10  0.7278E-05  0.1195E-07  0.1367E-02  0.7431E-03  0.1691E+01
   -2.200019   14.13443  0.7181E-10  0.7084E-05  0.1221E-07  0.1262E-02  0.6293E-03  0.1351E+01
   -2.268769   14.13482  0.7181E-10  0.6901E-05  0.1261E-07  0.1157E-02  0.5393E-03  0.1094E+01
   -2.337518   14.13526  0.7181E-10  0.6725E-05  0.1314E-07  0.1070E-02  0.4699E-03  0.1000E+01
   -2.406267   14.13575  0.7181E-10  0.6532E-05  0.1393E-07  0.9757E-03  0.4167E-03  0.1560E+01
   -2.475015   14.13629  0.7181E-10  0.6288E-05  0.1525E-07  0.8402E-03  0.3681E-03  0.3198E+01
   -2.543762   14.13694  0.7181E-10  0.5948E-05  0.1766E-07  0.6555E-03  0.3247E-03  0.9414E+01
   -2.612510   14.13778  0.7181E-10  0.5461E-05  0.2241E-07  0.4982E-03  0.2864E-03  0.4530E+02
   -2.681256   14.13893  0.7181E-10  0.2712E-05  0.6537E-07  0.1784E-04  0.2566E-03 -0.8330E+04
   -2.750002   14.17172  0.7181E-10  0.0000E+00  0.0000E+00  0.0000E+00  0.2555E-03  0.0000E+00
