 1 - depth, m
 2 - temperature, C
 3 - salinity, kg/kg
 4 - turbulent kinetic energy, m**2/s**2
 5 - dissipation rate, m**2/s**3
 6 - kinematic heat conductance, m**2/s
 7 - modulus of horizontal velocity, m/s
 8 - Richardson number, n/d
   -0.000000   -0.00001  0.1247E-06  0.3022E-08  0.4731E-11  0.3545E-09  0.0000E+00  0.6784E+17
   -0.068745    1.21400  0.0000E+00  0.3251E-07  0.5448E-11  0.6827E-09  0.0000E+00  0.4064E+17
   -0.137491    2.34867  0.7679E-10  0.9717E-07  0.1153E-10  0.3171E-08  0.0000E+00  0.1854E+17
   -0.206238    3.38733  0.6635E-10  0.2291E-06  0.2511E-10  0.4826E-07  0.0000E+00  0.2694E+16
   -0.274985    4.11871  0.6623E-10  0.2305E-06  0.2527E-10  0.6811E-03  0.0000E+00 -0.4058E+12
   -0.343733    4.11890  0.6623E-10  0.2311E-06  0.2536E-10  0.6713E-03  0.0000E+00 -0.4025E+12
   -0.412481    4.11910  0.6623E-10  0.2316E-06  0.2545E-10  0.6721E-03  0.0000E+00 -0.3950E+12
   -0.481230    4.11929  0.6623E-10  0.2320E-06  0.2554E-10  0.6722E-03  0.0000E+00 -0.3891E+12
   -0.549979    4.11947  0.6623E-10  0.2322E-06  0.2565E-10  0.6716E-03  0.0000E+00 -0.3832E+12
   -0.618728    4.11966  0.6623E-10  0.2324E-06  0.2576E-10  0.6703E-03  0.0000E+00 -0.3777E+12
   -0.687478    4.11984  0.6623E-10  0.2325E-06  0.2588E-10  0.6683E-03  0.0000E+00 -0.3729E+12
   -0.756228    4.12002  0.6623E-10  0.2324E-06  0.2600E-10  0.6655E-03  0.0000E+00 -0.3687E+12
   -0.824979    4.12019  0.6623E-10  0.2323E-06  0.2614E-10  0.6621E-03  0.0000E+00 -0.3649E+12
   -0.893730    4.12037  0.6623E-10  0.2321E-06  0.2630E-10  0.6579E-03  0.0000E+00 -0.3621E+12
   -0.962481    4.12054  0.6623E-10  0.2318E-06  0.2646E-10  0.6530E-03  0.0000E+00 -0.3596E+12
   -1.031232    4.12071  0.6623E-10  0.2315E-06  0.2664E-10  0.6474E-03  0.0000E+00 -0.3582E+12
   -1.099984    4.12088  0.6623E-10  0.2310E-06  0.2684E-10  0.6410E-03  0.0000E+00 -0.3579E+12
   -1.168735    4.12105  0.6623E-10  0.2305E-06  0.2706E-10  0.6338E-03  0.0000E+00 -0.3585E+12
   -1.237487    4.12122  0.6623E-10  0.2299E-06  0.2731E-10  0.6259E-03  0.0000E+00 -0.3594E+12
   -1.306239    4.12139  0.6623E-10  0.2292E-06  0.2758E-10  0.6172E-03  0.0000E+00 -0.3612E+12
   -1.374991    4.12156  0.6623E-10  0.2285E-06  0.2788E-10  0.6077E-03  0.0000E+00 -0.3634E+12
   -1.443743    4.12174  0.6623E-10  0.2276E-06  0.2822E-10  0.5974E-03  0.0000E+00 -0.3662E+12
   -1.512494    4.12191  0.6623E-10  0.2267E-06  0.2859E-10  0.5863E-03  0.0000E+00 -0.3695E+12
   -1.581246    4.12208  0.6623E-10  0.2258E-06  0.2900E-10  0.5744E-03  0.0000E+00 -0.3737E+12
   -1.649998    4.12226  0.6623E-10  0.2247E-06  0.2946E-10  0.5618E-03  0.0000E+00 -0.3784E+12
   -1.718749    4.12244  0.6623E-10  0.2236E-06  0.2998E-10  0.5482E-03  0.0000E+00 -0.3843E+12
   -1.787501    4.12262  0.6623E-10  0.2224E-06  0.3056E-10  0.5339E-03  0.0000E+00 -0.3908E+12
   -1.856252    4.12280  0.6623E-10  0.2211E-06  0.3121E-10  0.5188E-03  0.0000E+00 -0.3985E+12
   -1.925002    4.12299  0.6623E-10  0.2198E-06  0.3195E-10  0.5028E-03  0.0000E+00 -0.4072E+12
   -1.993753    4.12318  0.6623E-10  0.2184E-06  0.3278E-10  0.4861E-03  0.0000E+00 -0.4172E+12
   -2.062503    4.12337  0.6623E-10  0.2169E-06  0.3373E-10  0.4683E-03  0.0000E+00 -0.4305E+12
   -2.131253    4.12357  0.6623E-10  0.2152E-06  0.3490E-10  0.4481E-03  0.0000E+00 -0.4484E+12
   -2.200003    4.12378  0.6623E-10  0.2134E-06  0.3635E-10  0.4256E-03  0.0000E+00 -0.4707E+12
   -2.268752    4.12400  0.6623E-10  0.2112E-06  0.3819E-10  0.4001E-03  0.0000E+00 -0.5000E+12
   -2.337501    4.12423  0.6623E-10  0.2088E-06  0.4057E-10  0.3711E-03  0.0000E+00 -0.5391E+12
   -2.406249    4.12448  0.6623E-10  0.2058E-06  0.4380E-10  0.3411E-03  0.0000E+00 -0.5881E+12
   -2.474997    4.12475  0.6623E-10  0.2013E-06  0.4927E-10  0.2543E-03  0.0000E+00 -0.7937E+12
   -2.543744    4.12512  0.6623E-10  0.1926E-06  0.6153E-10  0.1247E-03  0.0000E+00 -0.1635E+13
   -2.612490    4.12587  0.6623E-10  0.1760E-06  0.9033E-10  0.5966E-04  0.0000E+00 -0.3469E+13
   -2.681236    4.12745  0.6623E-10  0.8196E-07  0.3262E-09  0.2792E-05  0.0000E+00 -0.8050E+14
   -2.749982    4.16010  0.6623E-10  0.0000E+00  0.0000E+00  0.0000E+00  0.0000E+00  0.0000E+00
