 1 - depth, m
 2 - temperature, C
 3 - salinity, kg/kg
 4 - turbulent kinetic energy, m**2/s**2
 5 - dissipation rate, m**2/s**3
 6 - kinematic heat conductance, m**2/s
 7 - modulus of horizontal velocity, m/s
 8 - Richardson number, n/d
   -0.000000   -0.00000  0.3139E-08  0.5318E-08  0.9517E-11  0.6411E-09  0.0000E+00  0.7547E+17
   -0.068746    1.38511  0.1420E-07  0.6393E-07  0.9771E-11  0.1174E-08  0.0000E+00  0.4243E+17
   -0.137493    2.75374  0.7084E-08  0.1873E-06  0.1882E-10  0.8003E-08  0.0000E+00  0.1201E+17
   -0.206240    4.05408  0.1105E-08  0.1886E-06  0.1894E-10  0.6132E-03  0.0000E+00 -0.3329E+12
   -0.274988    4.05439  0.1105E-08  0.1892E-06  0.1900E-10  0.6038E-03  0.0000E+00 -0.3274E+12
   -0.343737    4.05470  0.1105E-08  0.1897E-06  0.1907E-10  0.6050E-03  0.0000E+00 -0.3200E+12
   -0.412486    4.05500  0.1104E-08  0.1901E-06  0.1915E-10  0.6057E-03  0.0000E+00 -0.3140E+12
   -0.481235    4.05529  0.1104E-08  0.1904E-06  0.1923E-10  0.6056E-03  0.0000E+00 -0.3092E+12
   -0.549985    4.05558  0.1104E-08  0.1906E-06  0.1932E-10  0.6050E-03  0.0000E+00 -0.3052E+12
   -0.618735    4.05586  0.1104E-08  0.1908E-06  0.1942E-10  0.6037E-03  0.0000E+00 -0.3021E+12
   -0.687486    4.05613  0.1104E-08  0.1910E-06  0.1952E-10  0.6017E-03  0.0000E+00 -0.2998E+12
   -0.756237    4.05641  0.1104E-08  0.1910E-06  0.1964E-10  0.5991E-03  0.0000E+00 -0.2981E+12
   -0.824988    4.05668  0.1104E-08  0.1910E-06  0.1977E-10  0.5958E-03  0.0000E+00 -0.2972E+12
   -0.893740    4.05695  0.1104E-08  0.1909E-06  0.1991E-10  0.5918E-03  0.0000E+00 -0.2969E+12
   -0.962492    4.05722  0.1104E-08  0.1908E-06  0.2006E-10  0.5873E-03  0.0000E+00 -0.2973E+12
   -1.031244    4.05748  0.1104E-08  0.1906E-06  0.2022E-10  0.5821E-03  0.0000E+00 -0.2984E+12
   -1.099996    4.05775  0.1103E-08  0.1904E-06  0.2040E-10  0.5762E-03  0.0000E+00 -0.3002E+12
   -1.168749    4.05802  0.1103E-08  0.1901E-06  0.2060E-10  0.5696E-03  0.0000E+00 -0.3027E+12
   -1.237501    4.05829  0.1103E-08  0.1897E-06  0.2082E-10  0.5624E-03  0.0000E+00 -0.3058E+12
   -1.306254    4.05856  0.1103E-08  0.1893E-06  0.2106E-10  0.5544E-03  0.0000E+00 -0.3097E+12
   -1.375006    4.05883  0.1103E-08  0.1889E-06  0.2133E-10  0.5457E-03  0.0000E+00 -0.3142E+12
   -1.443759    4.05911  0.1103E-08  0.1883E-06  0.2162E-10  0.5363E-03  0.0000E+00 -0.3193E+12
   -1.512511    4.05939  0.1103E-08  0.1877E-06  0.2194E-10  0.5262E-03  0.0000E+00 -0.3252E+12
   -1.581264    4.05967  0.1103E-08  0.1871E-06  0.2230E-10  0.5154E-03  0.0000E+00 -0.3320E+12
   -1.650016    4.05996  0.1103E-08  0.1864E-06  0.2270E-10  0.5038E-03  0.0000E+00 -0.3397E+12
   -1.718769    4.06026  0.1103E-08  0.1856E-06  0.2314E-10  0.4914E-03  0.0000E+00 -0.3484E+12
   -1.787521    4.06056  0.1103E-08  0.1848E-06  0.2364E-10  0.4784E-03  0.0000E+00 -0.3583E+12
   -1.856273    4.06086  0.1103E-08  0.1838E-06  0.2418E-10  0.4645E-03  0.0000E+00 -0.3694E+12
   -1.925024    4.06118  0.1103E-08  0.1829E-06  0.2480E-10  0.4499E-03  0.0000E+00 -0.3819E+12
   -1.993775    4.06151  0.1103E-08  0.1818E-06  0.2549E-10  0.4347E-03  0.0000E+00 -0.3960E+12
   -2.062527    4.06184  0.1103E-08  0.1807E-06  0.2629E-10  0.4184E-03  0.0000E+00 -0.4127E+12
   -2.131277    4.06219  0.1103E-08  0.1794E-06  0.2725E-10  0.4000E-03  0.0000E+00 -0.4332E+12
   -2.200028    4.06255  0.1103E-08  0.1780E-06  0.2844E-10  0.3795E-03  0.0000E+00 -0.4585E+12
   -2.268778    4.06294  0.1103E-08  0.1763E-06  0.2994E-10  0.3564E-03  0.0000E+00 -0.4907E+12
   -2.337527    4.06335  0.1103E-08  0.1743E-06  0.3189E-10  0.3300E-03  0.0000E+00 -0.5332E+12
   -2.406276    4.06379  0.1103E-08  0.1718E-06  0.3452E-10  0.3021E-03  0.0000E+00 -0.5868E+12
   -2.475024    4.06427  0.1102E-08  0.1681E-06  0.3895E-10  0.2364E-03  0.0000E+00 -0.7574E+12
   -2.543772    4.06489  0.1102E-08  0.1609E-06  0.4872E-10  0.1157E-03  0.0000E+00 -0.1574E+13
   -2.612520    4.06616  0.1102E-08  0.1470E-06  0.7176E-10  0.5468E-04  0.0000E+00 -0.3430E+13
   -2.681266    4.06886  0.1102E-08  0.6941E-07  0.2576E-09  0.2647E-05  0.0000E+00 -0.9184E+14
   -2.750012    4.12255  0.1102E-08  0.0000E+00  0.0000E+00  0.0000E+00  0.0000E+00  0.0000E+00
