 1 - depth, m
 2 - temperature, C
 3 - salinity, kg/kg
 4 - turbulent kinetic energy, m**2/s**2
 5 - dissipation rate, m**2/s**3
 6 - kinematic heat conductance, m**2/s
 7 - modulus of horizontal velocity, m/s
 8 - Richardson number, n/d
   -0.000000    9.85891  0.6560E-10  0.1365E-03  0.5330E-04  0.7174E-04  0.9858E-01  0.3545E+00
   -0.068746    9.91810  0.6560E-10  0.7637E-04  0.1293E-04  0.1559E-03  0.3407E-01 -0.3523E-01
   -0.137492    9.93070  0.6560E-10  0.5546E-04  0.5482E-05  0.1645E-03  0.2590E-01 -0.7101E-01
   -0.206239    9.93893  0.6560E-10  0.4224E-04  0.2586E-05  0.1920E-03  0.2133E-01  0.1935E+02
   -0.274987    9.94496  0.6560E-10  0.3332E-04  0.1309E-05  0.2375E-03  0.1809E-01  0.1167E+02
   -0.343735    9.94972  0.6560E-10  0.2742E-04  0.7171E-06  0.2854E-03  0.1564E-01  0.1436E+02
   -0.412484    9.95367  0.6561E-10  0.2333E-04  0.4255E-06  0.3403E-03  0.1363E-01  0.8432E+01
   -0.481233    9.95698  0.6561E-10  0.2047E-04  0.2727E-06  0.4021E-03  0.1199E-01  0.2524E+02
   -0.549983    9.95976  0.6561E-10  0.1850E-04  0.1875E-06  0.4660E-03  0.1067E-01  0.8625E+01
   -0.618733    9.96212  0.6561E-10  0.1712E-04  0.1372E-06  0.5369E-03  0.9574E-02  0.3033E+01
   -0.687483    9.96415  0.6561E-10  0.1609E-04  0.1055E-06  0.6085E-03  0.8619E-02  0.6671E+01
   -0.756234    9.96590  0.6561E-10  0.1528E-04  0.8431E-07  0.6814E-03  0.7786E-02  0.4847E+01
   -0.824985    9.96743  0.6561E-10  0.1462E-04  0.6948E-07  0.7584E-03  0.7054E-02  0.2720E+01
   -0.893736    9.96876  0.6561E-10  0.1405E-04  0.5865E-07  0.8458E-03  0.6404E-02  0.6422E+01
   -0.962488    9.96991  0.6561E-10  0.1355E-04  0.5042E-07  0.9339E-03  0.5824E-02  0.3970E+02
   -1.031240    9.97093  0.6561E-10  0.1309E-04  0.4396E-07  0.1034E-02  0.5297E-02  0.2603E+03
   -1.099992    9.97181  0.6561E-10  0.1266E-04  0.3874E-07  0.1160E-02  0.4819E-02  0.5510E+02
   -1.168744    9.97255  0.6561E-10  0.1226E-04  0.3450E-07  0.1279E-02  0.4398E-02  0.2139E+03
   -1.237496    9.97319  0.6561E-10  0.1188E-04  0.3099E-07  0.1382E-02  0.4021E-02  0.1384E+03
   -1.306249    9.97373  0.6561E-10  0.1153E-04  0.2805E-07  0.1469E-02  0.3677E-02  0.5466E+02
   -1.375001    9.97422  0.6561E-10  0.1120E-04  0.2554E-07  0.1509E-02  0.3362E-02  0.7812E+01
   -1.443753    9.97469  0.6561E-10  0.1087E-04  0.2337E-07  0.1537E-02  0.3067E-02  0.5522E+01
   -1.512505    9.97514  0.6561E-10  0.1055E-04  0.2149E-07  0.1553E-02  0.2792E-02  0.4463E+01
   -1.581258    9.97557  0.6561E-10  0.1024E-04  0.1986E-07  0.1563E-02  0.2535E-02  0.4020E+01
   -1.650010    9.97599  0.6561E-10  0.9942E-05  0.1845E-07  0.1568E-02  0.2294E-02  0.3688E+01
   -1.718762    9.97641  0.6561E-10  0.9643E-05  0.1723E-07  0.1567E-02  0.2067E-02  0.3431E+01
   -1.787514    9.97682  0.6561E-10  0.9349E-05  0.1619E-07  0.1559E-02  0.1853E-02  0.3224E+01
   -1.856265    9.97722  0.6561E-10  0.9058E-05  0.1531E-07  0.1544E-02  0.1650E-02  0.3055E+01
   -1.925017    9.97761  0.6561E-10  0.8770E-05  0.1458E-07  0.1518E-02  0.1458E-02  0.2919E+01
   -1.993768    9.97801  0.6561E-10  0.8484E-05  0.1399E-07  0.1482E-02  0.1274E-02  0.2820E+01
   -2.062518    9.97841  0.6561E-10  0.8200E-05  0.1355E-07  0.1460E-02  0.1097E-02  0.2165E+01
   -2.131269    9.97880  0.6561E-10  0.7910E-05  0.1323E-07  0.1432E-02  0.9383E-03  0.1665E+01
   -2.200019    9.97920  0.6561E-10  0.7622E-05  0.1308E-07  0.1401E-02  0.8012E-03  0.1409E+01
   -2.268769    9.97961  0.6561E-10  0.7339E-05  0.1312E-07  0.1318E-02  0.6847E-03  0.1347E+01
   -2.337518    9.98004  0.6561E-10  0.7065E-05  0.1338E-07  0.1198E-02  0.5877E-03  0.1525E+01
   -2.406267    9.98050  0.6561E-10  0.6801E-05  0.1392E-07  0.1071E-02  0.5093E-03  0.2196E+01
   -2.475015    9.98101  0.6561E-10  0.6530E-05  0.1486E-07  0.9394E-03  0.4492E-03  0.4171E+01
   -2.543762    9.98159  0.6561E-10  0.6200E-05  0.1661E-07  0.8079E-03  0.4024E-03  0.1182E+02
   -2.612509    9.98227  0.6561E-10  0.5686E-05  0.2065E-07  0.4870E-03  0.3648E-03  0.2387E+03
   -2.681256    9.98335  0.6561E-10  0.2652E-05  0.6156E-07  0.1635E-04  0.3205E-03 -0.1454E+05
   -2.750002   10.01475  0.6561E-10  0.0000E+00  0.0000E+00  0.0000E+00  0.3176E-03  0.0000E+00
