 1 - depth, m
 2 - temperature, C
 3 - salinity, kg/kg
 4 - turbulent kinetic energy, m**2/s**2
 5 - dissipation rate, m**2/s**3
 6 - kinematic heat conductance, m**2/s
 7 - modulus of horizontal velocity, m/s
 8 - Richardson number, n/d
   -0.000000   -0.00000  0.8691E-08  0.6520E-09  0.6988E-12  0.1044E-09  0.0000E+00  0.5087E+17
   -0.068745    0.86168  0.0000E+00  0.5100E-08  0.7694E-12  0.1137E-09  0.0000E+00  0.3554E+17
   -0.137491    1.65753  0.1028E-09  0.1488E-07  0.1589E-11  0.3449E-09  0.0000E+00  0.2341E+17
   -0.206238    2.39644  0.5048E-10  0.3593E-07  0.3551E-11  0.1303E-08  0.0000E+00  0.1379E+17
   -0.274985    3.09113  0.7020E-10  0.8182E-07  0.7854E-11  0.7026E-08  0.0000E+00  0.5849E+16
   -0.343732    3.76010  0.6625E-10  0.1418E-06  0.1329E-10  0.7084E-04  0.0000E+00  0.4407E+15
   -0.412481    4.07062  0.6618E-10  0.1428E-06  0.1339E-10  0.5056E-03  0.0000E+00 -0.2796E+12
   -0.481229    4.07083  0.6618E-10  0.1433E-06  0.1345E-10  0.4975E-03  0.0000E+00 -0.2788E+12
   -0.549978    4.07105  0.6618E-10  0.1437E-06  0.1351E-10  0.4979E-03  0.0000E+00 -0.2753E+12
   -0.618728    4.07126  0.6618E-10  0.1441E-06  0.1359E-10  0.4981E-03  0.0000E+00 -0.2726E+12
   -0.687478    4.07147  0.6618E-10  0.1444E-06  0.1366E-10  0.4976E-03  0.0000E+00 -0.2706E+12
   -0.756228    4.07168  0.6618E-10  0.1446E-06  0.1375E-10  0.4966E-03  0.0000E+00 -0.2689E+12
   -0.824978    4.07188  0.6618E-10  0.1448E-06  0.1384E-10  0.4949E-03  0.0000E+00 -0.2679E+12
   -0.893729    4.07208  0.6618E-10  0.1449E-06  0.1393E-10  0.4927E-03  0.0000E+00 -0.2674E+12
   -0.962480    4.07228  0.6618E-10  0.1449E-06  0.1404E-10  0.4899E-03  0.0000E+00 -0.2674E+12
   -1.031231    4.07248  0.6618E-10  0.1450E-06  0.1416E-10  0.4865E-03  0.0000E+00 -0.2680E+12
   -1.099983    4.07268  0.6618E-10  0.1449E-06  0.1428E-10  0.4824E-03  0.0000E+00 -0.2695E+12
   -1.168734    4.07288  0.6618E-10  0.1448E-06  0.1442E-10  0.4778E-03  0.0000E+00 -0.2715E+12
   -1.237486    4.07308  0.6618E-10  0.1447E-06  0.1457E-10  0.4725E-03  0.0000E+00 -0.2741E+12
   -1.306238    4.07329  0.6618E-10  0.1445E-06  0.1474E-10  0.4666E-03  0.0000E+00 -0.2773E+12
   -1.374990    4.07349  0.6618E-10  0.1442E-06  0.1492E-10  0.4600E-03  0.0000E+00 -0.2809E+12
   -1.443741    4.07370  0.6618E-10  0.1439E-06  0.1512E-10  0.4528E-03  0.0000E+00 -0.2849E+12
   -1.512493    4.07391  0.6618E-10  0.1436E-06  0.1535E-10  0.4450E-03  0.0000E+00 -0.2896E+12
   -1.581245    4.07412  0.6618E-10  0.1432E-06  0.1559E-10  0.4365E-03  0.0000E+00 -0.2949E+12
   -1.649996    4.07433  0.6618E-10  0.1427E-06  0.1587E-10  0.4273E-03  0.0000E+00 -0.3011E+12
   -1.718748    4.07455  0.6618E-10  0.1422E-06  0.1617E-10  0.4175E-03  0.0000E+00 -0.3080E+12
   -1.787499    4.07477  0.6618E-10  0.1416E-06  0.1650E-10  0.4069E-03  0.0000E+00 -0.3160E+12
   -1.856250    4.07500  0.6618E-10  0.1410E-06  0.1688E-10  0.3957E-03  0.0000E+00 -0.3250E+12
   -1.925001    4.07524  0.6618E-10  0.1403E-06  0.1730E-10  0.3838E-03  0.0000E+00 -0.3352E+12
   -1.993751    4.07548  0.6618E-10  0.1395E-06  0.1777E-10  0.3713E-03  0.0000E+00 -0.3467E+12
   -2.062502    4.07573  0.6618E-10  0.1387E-06  0.1832E-10  0.3578E-03  0.0000E+00 -0.3605E+12
   -2.131251    4.07598  0.6618E-10  0.1378E-06  0.1897E-10  0.3425E-03  0.0000E+00 -0.3777E+12
   -2.200001    4.07625  0.6618E-10  0.1367E-06  0.1979E-10  0.3254E-03  0.0000E+00 -0.3992E+12
   -2.268750    4.07653  0.6618E-10  0.1354E-06  0.2081E-10  0.3059E-03  0.0000E+00 -0.4269E+12
   -2.337499    4.07684  0.6618E-10  0.1339E-06  0.2214E-10  0.2838E-03  0.0000E+00 -0.4635E+12
   -2.406247    4.07716  0.6618E-10  0.1319E-06  0.2398E-10  0.2543E-03  0.0000E+00 -0.5185E+12
   -2.474994    4.07753  0.6618E-10  0.1289E-06  0.2714E-10  0.1885E-03  0.0000E+00 -0.7095E+12
   -2.543742    4.07802  0.6618E-10  0.1233E-06  0.3399E-10  0.9999E-04  0.0000E+00 -0.1365E+13
   -2.612488    4.07897  0.6618E-10  0.1124E-06  0.4984E-10  0.4747E-04  0.0000E+00 -0.2951E+13
   -2.681234    4.08099  0.6618E-10  0.5334E-07  0.1747E-09  0.2321E-05  0.0000E+00 -0.7111E+14
   -2.749979    4.12068  0.6618E-10  0.0000E+00  0.0000E+00  0.0000E+00  0.0000E+00  0.0000E+00
