 1 - depth, m
 2 - temperature, C
 3 - salinity, kg/kg
 4 - turbulent kinetic energy, m**2/s**2
 5 - dissipation rate, m**2/s**3
 6 - kinematic heat conductance, m**2/s
 7 - modulus of horizontal velocity, m/s
 8 - Richardson number, n/d
   -0.000000   -0.00000  0.4075E-09  0.1219E-13  0.7603E-17  0.1000E-09  0.0000E+00  0.1336E+17
   -0.068746    0.20610  0.1986E-09  0.1219E-13  0.7603E-17  0.1000E-09  0.0000E+00  0.1255E+17
   -0.137492    0.41133  0.1107E-09  0.1219E-13  0.7603E-17  0.1000E-09  0.0000E+00  0.1167E+17
   -0.206239    0.61395  0.8423E-10  0.1219E-13  0.7603E-17  0.1000E-09  0.0000E+00  0.1080E+17
   -0.274987    0.81364  0.7757E-10  0.5098E-13  0.7603E-17  0.1000E-09  0.0000E+00  0.9949E+16
   -0.343735    1.01016  0.7599E-10  0.1391E-12  0.1252E-16  0.1000E-09  0.0000E+00  0.9144E+16
   -0.412483    1.20365  0.7562E-10  0.3087E-12  0.2423E-16  0.1000E-09  0.0000E+00  0.8366E+16
   -0.481233    1.39392  0.7554E-10  0.6358E-12  0.4744E-16  0.1000E-09  0.0000E+00  0.7616E+16
   -0.549982    1.58078  0.7552E-10  0.1271E-11  0.9211E-16  0.1000E-09  0.0000E+00  0.6906E+16
   -0.618732    1.76436  0.7550E-10  0.2497E-11  0.1766E-15  0.1000E-09  0.0000E+00  0.6237E+16
   -0.687482    1.94484  0.7547E-10  0.4852E-11  0.3355E-15  0.1000E-09  0.0000E+00  0.5596E+16
   -0.756233    2.12213  0.7541E-10  0.9352E-11  0.6327E-15  0.1000E-09  0.0000E+00  0.5007E+16
   -0.824984    2.29699  0.7531E-10  0.1790E-10  0.1185E-14  0.1000E-09  0.0000E+00  0.4438E+16
   -0.893735    2.46923  0.7516E-10  0.3402E-10  0.2204E-14  0.1000E-09  0.0000E+00  0.3891E+16
   -0.962487    2.63872  0.7493E-10  0.6423E-10  0.4074E-14  0.1000E-09  0.0000E+00  0.3366E+16
   -1.031239    2.80528  0.7462E-10  0.1205E-09  0.7481E-14  0.1000E-09  0.0000E+00  0.2866E+16
   -1.099991    2.96881  0.7421E-10  0.2252E-09  0.1369E-13  0.1000E-09  0.0000E+00  0.2391E+16
   -1.168743    3.12925  0.7370E-10  0.4189E-09  0.2495E-13  0.1000E-09  0.0000E+00  0.1942E+16
   -1.237495    3.28652  0.7313E-10  0.7751E-09  0.4523E-13  0.1518E-09  0.0000E+00  0.1517E+16
   -1.306247    3.44046  0.7262E-10  0.1425E-08  0.8150E-13  0.3713E-09  0.0000E+00  0.1117E+16
   -1.374999    3.59089  0.7230E-10  0.2605E-08  0.1460E-12  0.9976E-09  0.0000E+00  0.7448E+15
   -1.443751    3.73782  0.7218E-10  0.4727E-08  0.2597E-12  0.3332E-08  0.0000E+00  0.3968E+15
   -1.512504    3.88033  0.7214E-10  0.8427E-08  0.4546E-12  0.2683E-07  0.0000E+00  0.8629E+14
   -1.581256    4.00137  0.7214E-10  0.8876E-08  0.4802E-12  0.5898E-04  0.0000E+00 -0.8183E+11
   -1.650008    4.00171  0.7214E-10  0.9080E-08  0.4942E-12  0.5980E-04  0.0000E+00 -0.8272E+11
   -1.718760    4.00205  0.7214E-10  0.9260E-08  0.5094E-12  0.6010E-04  0.0000E+00 -0.8434E+11
   -1.787511    4.00239  0.7214E-10  0.9415E-08  0.5259E-12  0.5988E-04  0.0000E+00 -0.8671E+11
   -1.856263    4.00273  0.7214E-10  0.9548E-08  0.5440E-12  0.5915E-04  0.0000E+00 -0.8994E+11
   -1.925014    4.00307  0.7214E-10  0.9657E-08  0.5640E-12  0.5791E-04  0.0000E+00 -0.9415E+11
   -1.993765    4.00343  0.7214E-10  0.9742E-08  0.5865E-12  0.5615E-04  0.0000E+00 -0.9955E+11
   -2.062516    4.00379  0.7214E-10  0.9803E-08  0.6124E-12  0.5408E-04  0.0000E+00 -0.1068E+12
   -2.131266    4.00418  0.7214E-10  0.9841E-08  0.6440E-12  0.5144E-04  0.0000E+00 -0.1167E+12
   -2.200016    4.00459  0.7214E-10  0.9850E-08  0.6837E-12  0.4806E-04  0.0000E+00 -0.1306E+12
   -2.268766    4.00504  0.7214E-10  0.9823E-08  0.7351E-12  0.4387E-04  0.0000E+00 -0.1507E+12
   -2.337515    4.00555  0.7214E-10  0.9748E-08  0.8047E-12  0.3878E-04  0.0000E+00 -0.1816E+12
   -2.406264    4.00614  0.7214E-10  0.9601E-08  0.9048E-12  0.3266E-04  0.0000E+00 -0.2335E+12
   -2.475012    4.00688  0.7214E-10  0.9331E-08  0.1064E-11  0.2537E-04  0.0000E+00 -0.3347E+12
   -2.543759    4.00789  0.7214E-10  0.8808E-08  0.1362E-11  0.1654E-04  0.0000E+00 -0.5904E+12
   -2.612506    4.00958  0.7214E-10  0.7701E-08  0.2066E-11  0.7350E-05  0.0000E+00 -0.1613E+13
   -2.681253    4.01364  0.7214E-10  0.3830E-08  0.5915E-11  0.5216E-06  0.0000E+00 -0.4332E+14
   -2.749998    4.06557  0.7214E-10  0.0000E+00  0.0000E+00  0.0000E+00  0.0000E+00  0.0000E+00
