 1 - depth, m
 2 - temperature, C
 3 - salinity, kg/kg
 4 - turbulent kinetic energy, m**2/s**2
 5 - dissipation rate, m**2/s**3
 6 - kinematic heat conductance, m**2/s
 7 - modulus of horizontal velocity, m/s
 8 - Richardson number, n/d
   -0.000000   -0.00000  0.5558E-08  0.6764E-08  0.1290E-10  0.8508E-09  0.0000E+00  0.7708E+17
   -0.068746    1.42325  0.1829E-07  0.8507E-07  0.1432E-10  0.1733E-08  0.0000E+00  0.4211E+17
   -0.137493    2.82096  0.9305E-08  0.2577E-06  0.2990E-10  0.1432E-07  0.0000E+00  0.1067E+17
   -0.206240    4.09398  0.8109E-09  0.2593E-06  0.3008E-10  0.7218E-03  0.0000E+00 -0.4554E+12
   -0.274988    4.09425  0.8107E-09  0.2600E-06  0.3017E-10  0.7120E-03  0.0000E+00 -0.4476E+12
   -0.343736    4.09451  0.8105E-09  0.2606E-06  0.3028E-10  0.7132E-03  0.0000E+00 -0.4371E+12
   -0.412485    4.09477  0.8103E-09  0.2611E-06  0.3039E-10  0.7137E-03  0.0000E+00 -0.4285E+12
   -0.481234    4.09502  0.8101E-09  0.2615E-06  0.3052E-10  0.7134E-03  0.0000E+00 -0.4217E+12
   -0.549984    4.09527  0.8099E-09  0.2617E-06  0.3065E-10  0.7123E-03  0.0000E+00 -0.4159E+12
   -0.618735    4.09552  0.8097E-09  0.2619E-06  0.3080E-10  0.7104E-03  0.0000E+00 -0.4111E+12
   -0.687485    4.09576  0.8095E-09  0.2619E-06  0.3096E-10  0.7078E-03  0.0000E+00 -0.4074E+12
   -0.756236    4.09599  0.8093E-09  0.2619E-06  0.3113E-10  0.7044E-03  0.0000E+00 -0.4044E+12
   -0.824987    4.09623  0.8092E-09  0.2618E-06  0.3132E-10  0.7002E-03  0.0000E+00 -0.4022E+12
   -0.893739    4.09646  0.8090E-09  0.2616E-06  0.3153E-10  0.6953E-03  0.0000E+00 -0.4012E+12
   -0.962491    4.09670  0.8089E-09  0.2613E-06  0.3175E-10  0.6897E-03  0.0000E+00 -0.4008E+12
   -1.031243    4.09693  0.8087E-09  0.2610E-06  0.3200E-10  0.6832E-03  0.0000E+00 -0.4015E+12
   -1.099995    4.09716  0.8086E-09  0.2605E-06  0.3227E-10  0.6760E-03  0.0000E+00 -0.4033E+12
   -1.168747    4.09739  0.8085E-09  0.2600E-06  0.3257E-10  0.6680E-03  0.0000E+00 -0.4060E+12
   -1.237500    4.09762  0.8083E-09  0.2594E-06  0.3291E-10  0.6591E-03  0.0000E+00 -0.4094E+12
   -1.306252    4.09786  0.8082E-09  0.2588E-06  0.3328E-10  0.6494E-03  0.0000E+00 -0.4139E+12
   -1.375005    4.09810  0.8081E-09  0.2580E-06  0.3368E-10  0.6389E-03  0.0000E+00 -0.4191E+12
   -1.443757    4.09834  0.8080E-09  0.2572E-06  0.3413E-10  0.6275E-03  0.0000E+00 -0.4252E+12
   -1.512510    4.09858  0.8078E-09  0.2563E-06  0.3463E-10  0.6153E-03  0.0000E+00 -0.4323E+12
   -1.581262    4.09882  0.8077E-09  0.2553E-06  0.3519E-10  0.6023E-03  0.0000E+00 -0.4405E+12
   -1.650014    4.09907  0.8076E-09  0.2542E-06  0.3580E-10  0.5884E-03  0.0000E+00 -0.4498E+12
   -1.718767    4.09933  0.8075E-09  0.2530E-06  0.3649E-10  0.5736E-03  0.0000E+00 -0.4605E+12
   -1.787519    4.09959  0.8074E-09  0.2517E-06  0.3725E-10  0.5579E-03  0.0000E+00 -0.4726E+12
   -1.856270    4.09986  0.8073E-09  0.2504E-06  0.3811E-10  0.5414E-03  0.0000E+00 -0.4864E+12
   -1.925022    4.10013  0.8073E-09  0.2490E-06  0.3908E-10  0.5240E-03  0.0000E+00 -0.5019E+12
   -1.993773    4.10041  0.8072E-09  0.2474E-06  0.4016E-10  0.5058E-03  0.0000E+00 -0.5194E+12
   -2.062524    4.10070  0.8071E-09  0.2458E-06  0.4141E-10  0.4864E-03  0.0000E+00 -0.5402E+12
   -2.131275    4.10100  0.8071E-09  0.2440E-06  0.4293E-10  0.4647E-03  0.0000E+00 -0.5662E+12
   -2.200025    4.10132  0.8070E-09  0.2419E-06  0.4482E-10  0.4405E-03  0.0000E+00 -0.5983E+12
   -2.268775    4.10165  0.8069E-09  0.2395E-06  0.4720E-10  0.4132E-03  0.0000E+00 -0.6394E+12
   -2.337524    4.10201  0.8069E-09  0.2367E-06  0.5030E-10  0.3822E-03  0.0000E+00 -0.6936E+12
   -2.406273    4.10239  0.8068E-09  0.2333E-06  0.5449E-10  0.3482E-03  0.0000E+00 -0.7651E+12
   -2.475022    4.10281  0.8068E-09  0.2285E-06  0.6110E-10  0.3081E-03  0.0000E+00 -0.8705E+12
   -2.543769    4.10329  0.8067E-09  0.2196E-06  0.7515E-10  0.1440E-03  0.0000E+00 -0.1883E+13
   -2.612517    4.10431  0.8066E-09  0.2012E-06  0.1103E-09  0.6580E-04  0.0000E+00 -0.4199E+13
   -2.681263    4.10657  0.8065E-09  0.9413E-07  0.4034E-09  0.3033E-05  0.0000E+00 -0.1065E+15
   -2.750009    4.15390  0.8057E-09  0.0000E+00  0.0000E+00  0.0000E+00  0.0000E+00  0.0000E+00
