 1 - depth, m
 2 - temperature, C
 3 - salinity, kg/kg
 4 - turbulent kinetic energy, m**2/s**2
 5 - dissipation rate, m**2/s**3
 6 - kinematic heat conductance, m**2/s
 7 - modulus of horizontal velocity, m/s
 8 - Richardson number, n/d
   -0.000000   16.39410  0.7201E-10  0.8027E-04  0.2166E-04  0.8283E-04  0.7467E-01 -0.2129E+00
   -0.068746   16.44429  0.7201E-10  0.4335E-04  0.4701E-05  0.9607E-04  0.2969E-01 -0.7646E-01
   -0.137492   16.45624  0.7201E-10  0.3158E-04  0.1713E-05  0.1162E-03  0.2190E-01 -0.5526E-01
   -0.206239   16.46480  0.7201E-10  0.2472E-04  0.7550E-06  0.1483E-03  0.1731E-01 -0.8868E-01
   -0.274987   16.47126  0.7201E-10  0.2052E-04  0.3850E-06  0.1900E-03  0.1414E-01 -0.1270E+00
   -0.343735   16.47630  0.7201E-10  0.1797E-04  0.2243E-06  0.2478E-03  0.1186E-01  0.5616E-01
   -0.412484   16.48019  0.7201E-10  0.1635E-04  0.1457E-06  0.3749E-03  0.1014E-01  0.1204E+02
   -0.481233   16.48307  0.7201E-10  0.1535E-04  0.1040E-06  0.5413E-03  0.8895E-02  0.1371E+03
   -0.549982   16.48512  0.7201E-10  0.1476E-04  0.8033E-07  0.7609E-03  0.7987E-02  0.3811E+02
   -0.618732   16.48651  0.7201E-10  0.1445E-04  0.6615E-07  0.9921E-03  0.7299E-02  0.1936E+03
   -0.687483   16.48744  0.7201E-10  0.1430E-04  0.5677E-07  0.1137E-02  0.6732E-02  0.1525E+02
   -0.756233   16.48818  0.7201E-10  0.1424E-04  0.4992E-07  0.1222E-02  0.6220E-02  0.1444E+02
   -0.824984   16.48884  0.7201E-10  0.1423E-04  0.4464E-07  0.1286E-02  0.5744E-02  0.1136E+02
   -0.893736   16.48945  0.7201E-10  0.1425E-04  0.4041E-07  0.1334E-02  0.5295E-02  0.6576E+01
   -0.962487   16.49005  0.7201E-10  0.1427E-04  0.3693E-07  0.1381E-02  0.4868E-02  0.6870E+01
   -1.031239   16.49062  0.7201E-10  0.1428E-04  0.3401E-07  0.1427E-02  0.4459E-02  0.6900E+01
   -1.099991   16.49117  0.7201E-10  0.1427E-04  0.3151E-07  0.1489E-02  0.4068E-02  0.5798E+01
   -1.168743   16.49170  0.7201E-10  0.1424E-04  0.2937E-07  0.1546E-02  0.3707E-02  0.5036E+01
   -1.237495   16.49221  0.7201E-10  0.1419E-04  0.2754E-07  0.1602E-02  0.3373E-02  0.4473E+01
   -1.306247   16.49270  0.7201E-10  0.1411E-04  0.2597E-07  0.1653E-02  0.3064E-02  0.4028E+01
   -1.375000   16.49317  0.7201E-10  0.1400E-04  0.2464E-07  0.1700E-02  0.2776E-02  0.3661E+01
   -1.443752   16.49364  0.7201E-10  0.1387E-04  0.2353E-07  0.1743E-02  0.2510E-02  0.3348E+01
   -1.512504   16.49410  0.7201E-10  0.1372E-04  0.2261E-07  0.1780E-02  0.2262E-02  0.3076E+01
   -1.581256   16.49455  0.7201E-10  0.1353E-04  0.2188E-07  0.1811E-02  0.2033E-02  0.2837E+01
   -1.650008   16.49499  0.7201E-10  0.1332E-04  0.2133E-07  0.1837E-02  0.1821E-02  0.2624E+01
   -1.718760   16.49543  0.7201E-10  0.1308E-04  0.2095E-07  0.1858E-02  0.1626E-02  0.2434E+01
   -1.787512   16.49587  0.7201E-10  0.1282E-04  0.2074E-07  0.1878E-02  0.1445E-02  0.2262E+01
   -1.856264   16.49631  0.7201E-10  0.1255E-04  0.2070E-07  0.1894E-02  0.1278E-02  0.2108E+01
   -1.925015   16.49675  0.7201E-10  0.1225E-04  0.2082E-07  0.1883E-02  0.1123E-02  0.1963E+01
   -1.993766   16.49720  0.7201E-10  0.1194E-04  0.2112E-07  0.1854E-02  0.9793E-03  0.1827E+01
   -2.062517   16.49766  0.7201E-10  0.1163E-04  0.2159E-07  0.1845E-02  0.8467E-03  0.1575E+01
   -2.131267   16.49812  0.7201E-10  0.1131E-04  0.2226E-07  0.1726E-02  0.7334E-03  0.1320E+01
   -2.200017   16.49861  0.7201E-10  0.1101E-04  0.2313E-07  0.1567E-02  0.6411E-03  0.1110E+01
   -2.268767   16.49916  0.7201E-10  0.1071E-04  0.2421E-07  0.1428E-02  0.5680E-03  0.1017E+01
   -2.337516   16.49976  0.7201E-10  0.1040E-04  0.2564E-07  0.1301E-02  0.5101E-03  0.1229E+01
   -2.406265   16.50043  0.7201E-10  0.1004E-04  0.2779E-07  0.1155E-02  0.4608E-03  0.2086E+01
   -2.475013   16.50119  0.7201E-10  0.9562E-05  0.3142E-07  0.9125E-03  0.4145E-03  0.4652E+01
   -2.543760   16.50216  0.7201E-10  0.8869E-05  0.3836E-07  0.8018E-03  0.3697E-03  0.1195E+02
   -2.612507   16.50326  0.7201E-10  0.7564E-05  0.5957E-07  0.3255E-03  0.3343E-03 -0.5615E+02
   -2.681254   16.50836  0.7201E-10  0.3669E-05  0.1758E-06  0.5372E-04  0.2721E-03 -0.1937E+04
   -2.749999   16.52514  0.7201E-10  0.0000E+00  0.0000E+00  0.0000E+00  0.2882E-03  0.0000E+00
