 1 - depth, m
 2 - temperature, C
 3 - salinity, kg/kg
 4 - turbulent kinetic energy, m**2/s**2
 5 - dissipation rate, m**2/s**3
 6 - kinematic heat conductance, m**2/s
 7 - modulus of horizontal velocity, m/s
 8 - Richardson number, n/d
   -0.000000   -0.00000  0.2842E-09  0.1219E-13  0.7603E-17  0.1000E-09  0.0000E+00  0.8448E+16
   -0.068746    0.12895  0.1655E-09  0.1219E-13  0.7603E-17  0.1000E-09  0.0000E+00  0.7994E+16
   -0.137492    0.25536  0.1061E-09  0.1219E-13  0.7603E-17  0.1000E-09  0.0000E+00  0.7435E+16
   -0.206239    0.37716  0.8959E-10  0.1219E-13  0.7603E-17  0.1000E-09  0.0000E+00  0.6883E+16
   -0.274987    0.49394  0.8619E-10  0.1219E-13  0.7603E-17  0.1000E-09  0.0000E+00  0.6354E+16
   -0.343735    0.60554  0.8562E-10  0.1219E-13  0.7603E-17  0.1000E-09  0.0000E+00  0.5914E+16
   -0.412484    0.71304  0.8554E-10  0.1219E-13  0.7603E-17  0.1000E-09  0.0000E+00  0.5494E+16
   -0.481233    0.81636  0.8553E-10  0.1219E-13  0.7603E-17  0.1000E-09  0.0000E+00  0.5096E+16
   -0.549983    0.91547  0.8553E-10  0.1219E-13  0.7603E-17  0.1000E-09  0.0000E+00  0.4771E+16
   -0.618733    1.01140  0.8553E-10  0.1219E-13  0.7603E-17  0.1000E-09  0.0000E+00  0.4518E+16
   -0.687483    1.10535  0.8553E-10  0.1219E-13  0.7603E-17  0.1000E-09  0.0000E+00  0.4291E+16
   -0.756234    1.19765  0.8553E-10  0.1219E-13  0.7603E-17  0.1000E-09  0.0000E+00  0.4146E+16
   -0.824985    1.28997  0.8553E-10  0.1219E-13  0.7603E-17  0.1000E-09  0.0000E+00  0.4012E+16
   -0.893736    1.38257  0.8553E-10  0.1219E-13  0.7603E-17  0.1000E-09  0.0000E+00  0.3889E+16
   -0.962488    1.47573  0.8551E-10  0.1219E-13  0.7603E-17  0.1000E-09  0.0000E+00  0.3772E+16
   -1.031240    1.56966  0.8548E-10  0.1219E-13  0.7603E-17  0.1000E-09  0.0000E+00  0.3654E+16
   -1.099992    1.66443  0.8540E-10  0.1219E-13  0.7603E-17  0.1000E-09  0.0000E+00  0.3522E+16
   -1.168744    1.75974  0.8524E-10  0.1219E-13  0.7603E-17  0.1000E-09  0.0000E+00  0.3391E+16
   -1.237496    1.85567  0.8496E-10  0.1219E-13  0.7603E-17  0.1000E-09  0.0000E+00  0.3258E+16
   -1.306248    1.95227  0.8457E-10  0.1219E-13  0.7603E-17  0.1000E-09  0.0000E+00  0.3122E+16
   -1.375001    2.04951  0.8411E-10  0.1219E-13  0.7603E-17  0.1000E-09  0.0000E+00  0.3001E+16
   -1.443753    2.14798  0.8365E-10  0.1219E-13  0.7603E-17  0.1000E-09  0.0000E+00  0.2902E+16
   -1.512505    2.24866  0.8324E-10  0.1219E-13  0.7603E-17  0.1000E-09  0.0000E+00  0.2789E+16
   -1.581257    2.35143  0.8281E-10  0.1219E-13  0.7603E-17  0.1000E-09  0.0000E+00  0.2661E+16
   -1.650009    2.45610  0.8234E-10  0.1219E-13  0.7603E-17  0.1000E-09  0.0000E+00  0.2518E+16
   -1.718761    2.56239  0.8190E-10  0.1219E-13  0.7603E-17  0.1000E-09  0.0000E+00  0.2360E+16
   -1.787513    2.66998  0.8158E-10  0.1219E-13  0.7603E-17  0.1000E-09  0.0000E+00  0.2189E+16
   -1.856265    2.77848  0.8140E-10  0.1219E-13  0.7603E-17  0.1000E-09  0.0000E+00  0.2005E+16
   -1.925016    2.88745  0.8131E-10  0.1219E-13  0.7603E-17  0.1000E-09  0.0000E+00  0.1812E+16
   -1.993767    2.99640  0.8125E-10  0.1314E-13  0.7732E-17  0.1000E-09  0.0000E+00  0.1613E+16
   -2.062518    3.10480  0.8122E-10  0.6400E-13  0.3483E-16  0.1000E-09  0.0000E+00  0.1458E+16
   -2.131268    3.21606  0.8121E-10  0.3494E-12  0.1818E-15  0.1000E-09  0.0000E+00  0.1313E+16
   -2.200018    3.33246  0.8121E-10  0.1871E-11  0.9336E-15  0.1000E-09  0.0000E+00  0.1149E+16
   -2.268768    3.45506  0.8121E-10  0.9812E-11  0.4697E-14  0.1000E-09  0.0000E+00  0.9595E+15
   -2.337517    3.58553  0.8121E-10  0.5050E-10  0.2321E-13  0.1590E-09  0.0000E+00  0.7333E+15
   -2.406266    3.72651  0.8121E-10  0.2557E-09  0.1130E-12  0.1272E-08  0.0000E+00  0.4437E+15
   -2.475014    3.88134  0.8121E-10  0.1258E-08  0.5373E-12  0.3350E-07  0.0000E+00  0.7400E+14
   -2.543762    4.02622  0.8121E-10  0.4272E-08  0.1867E-11  0.3652E-05  0.0000E+00 -0.5441E+13
   -2.612509    4.03414  0.8121E-10  0.5050E-08  0.3166E-11  0.2698E-05  0.0000E+00 -0.1059E+14
   -2.681255    4.04665  0.8121E-10  0.4048E-08  0.7896E-11  0.5660E-06  0.0000E+00 -0.8973E+14
   -2.750001    4.10924  0.8121E-10  0.0000E+00  0.0000E+00  0.0000E+00  0.0000E+00  0.0000E+00
