 1 - depth, m
 2 - temperature, C
 3 - salinity, kg/kg
 4 - turbulent kinetic energy, m**2/s**2
 5 - dissipation rate, m**2/s**3
 6 - kinematic heat conductance, m**2/s
 7 - modulus of horizontal velocity, m/s
 8 - Richardson number, n/d
   -0.000000   -0.00000  0.2566E-09  0.1219E-13  0.7603E-17  0.1000E-09  0.0000E+00  0.8306E+16
   -0.068746    0.12676  0.1713E-09  0.1219E-13  0.7603E-17  0.1000E-09  0.0000E+00  0.7860E+16
   -0.137492    0.25094  0.1132E-09  0.1219E-13  0.7603E-17  0.1000E-09  0.0000E+00  0.7344E+16
   -0.206239    0.37106  0.9222E-10  0.1219E-13  0.7603E-17  0.1000E-09  0.0000E+00  0.6845E+16
   -0.274986    0.48698  0.8684E-10  0.1219E-13  0.7603E-17  0.1000E-09  0.0000E+00  0.6373E+16
   -0.343734    0.59869  0.8575E-10  0.1219E-13  0.7603E-17  0.1000E-09  0.0000E+00  0.5977E+16
   -0.412483    0.70711  0.8556E-10  0.1219E-13  0.7603E-17  0.1000E-09  0.0000E+00  0.5597E+16
   -0.481232    0.81219  0.8554E-10  0.1219E-13  0.7603E-17  0.1000E-09  0.0000E+00  0.5236E+16
   -0.549982    0.91391  0.8553E-10  0.1219E-13  0.7603E-17  0.1000E-09  0.0000E+00  0.4931E+16
   -0.618732    1.01306  0.8553E-10  0.1219E-13  0.7603E-17  0.1000E-09  0.0000E+00  0.4682E+16
   -0.687482    1.11053  0.8553E-10  0.1219E-13  0.7603E-17  0.1000E-09  0.0000E+00  0.4452E+16
   -0.756232    1.20653  0.8553E-10  0.1219E-13  0.7603E-17  0.1000E-09  0.0000E+00  0.4288E+16
   -0.824983    1.30239  0.8553E-10  0.1219E-13  0.7603E-17  0.1000E-09  0.0000E+00  0.4130E+16
   -0.893735    1.39825  0.8552E-10  0.1219E-13  0.7603E-17  0.1000E-09  0.0000E+00  0.3978E+16
   -0.962486    1.49422  0.8551E-10  0.1219E-13  0.7603E-17  0.1000E-09  0.0000E+00  0.3830E+16
   -1.031238    1.59038  0.8547E-10  0.1219E-13  0.7603E-17  0.1000E-09  0.0000E+00  0.3680E+16
   -1.099990    1.68673  0.8538E-10  0.1219E-13  0.7603E-17  0.1000E-09  0.0000E+00  0.3522E+16
   -1.168742    1.78303  0.8521E-10  0.1219E-13  0.7603E-17  0.1000E-09  0.0000E+00  0.3364E+16
   -1.237494    1.87928  0.8494E-10  0.1219E-13  0.7603E-17  0.1000E-09  0.0000E+00  0.3206E+16
   -1.306246    1.97546  0.8455E-10  0.1219E-13  0.7603E-17  0.1000E-09  0.0000E+00  0.3048E+16
   -1.374998    2.07150  0.8410E-10  0.1219E-13  0.7603E-17  0.1000E-09  0.0000E+00  0.2905E+16
   -1.443750    2.16791  0.8365E-10  0.1219E-13  0.7603E-17  0.1000E-09  0.0000E+00  0.2785E+16
   -1.512502    2.26556  0.8323E-10  0.1219E-13  0.7603E-17  0.1000E-09  0.0000E+00  0.2656E+16
   -1.581254    2.36434  0.8280E-10  0.1219E-13  0.7603E-17  0.1000E-09  0.0000E+00  0.2520E+16
   -1.650006    2.46411  0.8234E-10  0.1219E-13  0.7603E-17  0.1000E-09  0.0000E+00  0.2374E+16
   -1.718758    2.56470  0.8192E-10  0.1219E-13  0.7603E-17  0.1000E-09  0.0000E+00  0.2221E+16
   -1.787510    2.66588  0.8160E-10  0.1219E-13  0.7603E-17  0.1000E-09  0.0000E+00  0.2061E+16
   -1.856261    2.76741  0.8141E-10  0.1219E-13  0.7603E-17  0.1000E-09  0.0000E+00  0.1894E+16
   -1.925013    2.86901  0.8132E-10  0.1219E-13  0.7603E-17  0.1000E-09  0.0000E+00  0.1723E+16
   -1.993764    2.97037  0.8126E-10  0.1219E-13  0.7603E-17  0.1000E-09  0.0000E+00  0.1548E+16
   -2.062514    3.07117  0.8122E-10  0.1219E-13  0.7603E-17  0.1000E-09  0.0000E+00  0.1421E+16
   -2.131264    3.17481  0.8121E-10  0.3484E-13  0.2143E-16  0.1000E-09  0.0000E+00  0.1306E+16
   -2.200014    3.28363  0.8121E-10  0.2013E-12  0.1185E-15  0.1000E-09  0.0000E+00  0.1175E+16
   -2.268764    3.39867  0.8121E-10  0.1175E-11  0.6639E-15  0.1000E-09  0.0000E+00  0.1021E+16
   -2.337513    3.52146  0.8121E-10  0.6733E-11  0.3652E-14  0.1000E-09  0.0000E+00  0.8343E+15
   -2.406262    3.65429  0.8121E-10  0.3796E-10  0.1980E-13  0.1656E-09  0.0000E+00  0.5963E+15
   -2.475010    3.80080  0.8121E-10  0.2114E-09  0.1062E-12  0.1950E-08  0.0000E+00  0.2666E+15
   -2.543757    3.96545  0.8121E-10  0.1096E-08  0.5391E-12  0.4057E-06  0.0000E+00 -0.3368E+13
   -2.612504    4.01599  0.8121E-10  0.2841E-08  0.2082E-11  0.1304E-05  0.0000E+00 -0.1450E+14
   -2.681250    4.03860  0.8121E-10  0.3137E-08  0.6069E-11  0.4653E-06  0.0000E+00 -0.9154E+14
   -2.749996    4.10647  0.8121E-10  0.0000E+00  0.0000E+00  0.0000E+00  0.0000E+00  0.0000E+00
