 1 - depth, m
 2 - temperature, C
 3 - salinity, kg/kg
 4 - turbulent kinetic energy, m**2/s**2
 5 - dissipation rate, m**2/s**3
 6 - kinematic heat conductance, m**2/s
 7 - modulus of horizontal velocity, m/s
 8 - Richardson number, n/d
   -0.000000   -0.00000  0.1433E-09  0.1219E-13  0.7603E-17  0.1000E-09  0.0000E+00  0.1067E+17
   -0.068746    0.16367  0.1666E-09  0.1219E-13  0.7603E-17  0.1000E-09  0.0000E+00  0.1028E+17
   -0.137493    0.32871  0.1535E-09  0.1219E-13  0.7603E-17  0.1000E-09  0.0000E+00  0.9772E+16
   -0.206240    0.49330  0.1271E-09  0.1219E-13  0.7603E-17  0.1000E-09  0.0000E+00  0.9246E+16
   -0.274987    0.65697  0.1030E-09  0.1219E-13  0.7603E-17  0.1000E-09  0.0000E+00  0.8715E+16
   -0.343736    0.81944  0.8772E-10  0.1219E-13  0.7603E-17  0.1000E-09  0.0000E+00  0.8196E+16
   -0.412485    0.98069  0.8020E-10  0.1219E-13  0.7603E-17  0.1000E-09  0.0000E+00  0.7678E+16
   -0.481234    1.14047  0.7711E-10  0.1219E-13  0.7603E-17  0.1000E-09  0.0000E+00  0.7163E+16
   -0.549984    1.29851  0.7600E-10  0.1219E-13  0.7603E-17  0.1000E-09  0.0000E+00  0.6664E+16
   -0.618734    1.45481  0.7563E-10  0.1219E-13  0.7603E-17  0.1000E-09  0.0000E+00  0.6183E+16
   -0.687485    1.60939  0.7549E-10  0.1219E-13  0.7603E-17  0.1000E-09  0.0000E+00  0.5710E+16
   -0.756235    1.76207  0.7540E-10  0.1219E-13  0.7603E-17  0.1000E-09  0.0000E+00  0.5260E+16
   -0.824987    1.91305  0.7530E-10  0.1308E-13  0.7603E-17  0.1000E-09  0.0000E+00  0.4820E+16
   -0.893738    2.06214  0.7515E-10  0.3482E-13  0.7696E-17  0.1000E-09  0.0000E+00  0.4391E+16
   -0.962490    2.20917  0.7495E-10  0.1035E-12  0.1129E-16  0.1000E-09  0.0000E+00  0.3974E+16
   -1.031242    2.35399  0.7467E-10  0.2410E-12  0.2215E-16  0.1000E-09  0.0000E+00  0.3570E+16
   -1.099994    2.49638  0.7432E-10  0.5167E-12  0.4519E-16  0.1000E-09  0.0000E+00  0.3177E+16
   -1.168746    2.63599  0.7391E-10  0.1080E-11  0.9223E-16  0.1000E-09  0.0000E+00  0.2801E+16
   -1.237499    2.77264  0.7346E-10  0.2238E-11  0.1877E-15  0.1000E-09  0.0000E+00  0.2443E+16
   -1.306251    2.90617  0.7303E-10  0.4623E-11  0.3813E-15  0.1000E-09  0.0000E+00  0.2105E+16
   -1.375003    3.03644  0.7267E-10  0.9535E-11  0.7731E-15  0.1000E-09  0.0000E+00  0.1791E+16
   -1.443756    3.16367  0.7242E-10  0.1963E-10  0.1564E-14  0.1000E-09  0.0000E+00  0.1502E+16
   -1.512508    3.28828  0.7227E-10  0.4030E-10  0.3154E-14  0.1000E-09  0.0000E+00  0.1228E+16
   -1.581261    3.41007  0.7219E-10  0.8250E-10  0.6340E-14  0.1000E-09  0.0000E+00  0.9676E+15
   -1.650013    3.52858  0.7216E-10  0.1683E-09  0.1270E-13  0.1036E-09  0.0000E+00  0.7219E+15
   -1.718765    3.64290  0.7214E-10  0.3418E-09  0.2531E-13  0.2607E-09  0.0000E+00  0.4932E+15
   -1.787517    3.75130  0.7214E-10  0.6907E-09  0.5021E-13  0.8737E-09  0.0000E+00  0.2905E+15
   -1.856269    3.85123  0.7214E-10  0.1386E-08  0.9890E-13  0.3926E-08  0.0000E+00  0.1265E+15
   -1.925020    3.93987  0.7214E-10  0.2689E-08  0.1889E-12  0.5998E-07  0.0000E+00  0.1569E+14
   -1.993771    3.99925  0.7214E-10  0.3235E-08  0.2291E-12  0.1745E-04  0.0000E+00 -0.1436E+12
   -2.062522    3.99994  0.7214E-10  0.3485E-08  0.2524E-12  0.1816E-04  0.0000E+00 -0.1496E+12
   -2.131273    4.00063  0.7214E-10  0.3707E-08  0.2792E-12  0.1844E-04  0.0000E+00 -0.1616E+12
   -2.200023    4.00134  0.7214E-10  0.3902E-08  0.3110E-12  0.1818E-04  0.0000E+00 -0.1806E+12
   -2.268773    4.00209  0.7214E-10  0.4070E-08  0.3505E-12  0.1736E-04  0.0000E+00 -0.2101E+12
   -2.337522    4.00293  0.7214E-10  0.4207E-08  0.4019E-12  0.1596E-04  0.0000E+00 -0.2576E+12
   -2.406271    4.00389  0.7214E-10  0.4300E-08  0.4739E-12  0.1390E-04  0.0000E+00 -0.3403E+12
   -2.475019    4.00510  0.7214E-10  0.4325E-08  0.5849E-12  0.1113E-04  0.0000E+00 -0.5075E+12
   -2.543767    4.00675  0.7214E-10  0.4206E-08  0.7889E-12  0.7407E-05  0.0000E+00 -0.9505E+12
   -2.612514    4.00954  0.7214E-10  0.3739E-08  0.1259E-11  0.3291E-05  0.0000E+00 -0.2869E+13
   -2.681261    4.01641  0.7214E-10  0.2203E-08  0.3316E-11  0.3589E-06  0.0000E+00 -0.4887E+14
   -2.750007    4.07086  0.7214E-10  0.0000E+00  0.0000E+00  0.0000E+00  0.0000E+00  0.0000E+00
