 1 - depth, m
 2 - temperature, C
 3 - salinity, kg/kg
 4 - turbulent kinetic energy, m**2/s**2
 5 - dissipation rate, m**2/s**3
 6 - kinematic heat conductance, m**2/s
 7 - modulus of horizontal velocity, m/s
 8 - Richardson number, n/d
   -0.000000   -0.00000  0.3921E-09  0.2164E-12  0.3233E-16  0.1000E-09  0.0000E+00  0.1538E+17
   -0.068746    0.23837  0.1841E-09  0.4220E-12  0.3483E-16  0.1000E-09  0.0000E+00  0.1426E+17
   -0.137492    0.47465  0.1017E-09  0.8542E-12  0.5442E-16  0.1000E-09  0.0000E+00  0.1308E+17
   -0.206239    0.70735  0.7848E-10  0.1643E-11  0.9498E-16  0.1000E-09  0.0000E+00  0.1196E+17
   -0.274986    0.93648  0.7296E-10  0.3054E-11  0.1689E-15  0.1000E-09  0.0000E+00  0.1088E+17
   -0.343734    1.16205  0.7169E-10  0.5561E-11  0.2991E-15  0.1000E-09  0.0000E+00  0.9871E+16
   -0.412483    1.38433  0.7140E-10  0.9999E-11  0.5258E-15  0.1000E-09  0.0000E+00  0.8896E+16
   -0.481232    1.60319  0.7134E-10  0.1783E-10  0.9181E-15  0.1000E-09  0.0000E+00  0.7961E+16
   -0.549982    1.81850  0.7132E-10  0.3157E-10  0.1593E-14  0.1000E-09  0.0000E+00  0.7075E+16
   -0.618732    2.03042  0.7131E-10  0.5539E-10  0.2739E-14  0.1000E-09  0.0000E+00  0.6236E+16
   -0.687482    2.23912  0.7128E-10  0.9648E-10  0.4678E-14  0.1000E-09  0.0000E+00  0.5435E+16
   -0.756233    2.44461  0.7122E-10  0.1670E-09  0.7941E-14  0.1000E-09  0.0000E+00  0.4693E+16
   -0.824983    2.64790  0.7109E-10  0.2875E-09  0.1340E-13  0.1000E-09  0.0000E+00  0.3975E+16
   -0.893735    2.84888  0.7085E-10  0.4921E-09  0.2250E-13  0.1000E-09  0.0000E+00  0.3283E+16
   -0.962486    3.04743  0.7043E-10  0.8376E-09  0.3757E-13  0.1000E-09  0.0000E+00  0.2616E+16
   -1.031238    3.24342  0.6983E-10  0.1418E-08  0.6238E-13  0.1607E-09  0.0000E+00  0.1977E+16
   -1.099990    3.43666  0.6921E-10  0.2393E-08  0.1033E-12  0.3852E-09  0.0000E+00  0.1365E+16
   -1.168742    3.62703  0.6880E-10  0.4024E-08  0.1704E-12  0.1111E-08  0.0000E+00  0.7809E+15
   -1.237494    3.81365  0.6864E-10  0.6718E-08  0.2793E-12  0.6092E-08  0.0000E+00  0.2337E+15
   -1.306246    3.99112  0.6861E-10  0.7046E-08  0.2937E-12  0.4836E-04  0.0000E+00 -0.4229E+11
   -1.374998    3.99166  0.6861E-10  0.7210E-08  0.3022E-12  0.5124E-04  0.0000E+00 -0.4402E+11
   -1.443750    3.99216  0.6861E-10  0.7367E-08  0.3118E-12  0.5356E-04  0.0000E+00 -0.4585E+11
   -1.512502    3.99265  0.6861E-10  0.7516E-08  0.3224E-12  0.5534E-04  0.0000E+00 -0.4787E+11
   -1.581255    3.99311  0.6861E-10  0.7656E-08  0.3340E-12  0.5659E-04  0.0000E+00 -0.5014E+11
   -1.650007    3.99357  0.6861E-10  0.7787E-08  0.3467E-12  0.5734E-04  0.0000E+00 -0.5273E+11
   -1.718758    3.99402  0.6861E-10  0.7907E-08  0.3605E-12  0.5760E-04  0.0000E+00 -0.5571E+11
   -1.787510    3.99447  0.6861E-10  0.8017E-08  0.3756E-12  0.5739E-04  0.0000E+00 -0.5919E+11
   -1.856262    3.99492  0.6861E-10  0.8113E-08  0.3923E-12  0.5669E-04  0.0000E+00 -0.6327E+11
   -1.925013    3.99538  0.6861E-10  0.8196E-08  0.4106E-12  0.5553E-04  0.0000E+00 -0.6812E+11
   -1.993764    3.99585  0.6861E-10  0.8264E-08  0.4311E-12  0.5390E-04  0.0000E+00 -0.7394E+11
   -2.062514    3.99633  0.6861E-10  0.8315E-08  0.4543E-12  0.5184E-04  0.0000E+00 -0.8119E+11
   -2.131265    3.99683  0.6861E-10  0.8348E-08  0.4824E-12  0.4913E-04  0.0000E+00 -0.9076E+11
   -2.200015    3.99737  0.6861E-10  0.8359E-08  0.5174E-12  0.4567E-04  0.0000E+00 -0.1038E+12
   -2.268764    3.99796  0.6861E-10  0.8341E-08  0.5623E-12  0.4139E-04  0.0000E+00 -0.1224E+12
   -2.337513    3.99861  0.6861E-10  0.8283E-08  0.6229E-12  0.3623E-04  0.0000E+00 -0.1509E+12
   -2.406262    3.99937  0.6861E-10  0.8162E-08  0.7099E-12  0.3008E-04  0.0000E+00 -0.1990E+12
   -2.475010    4.00031  0.6861E-10  0.7935E-08  0.8487E-12  0.2286E-04  0.0000E+00 -0.2938E+12
   -2.543757    4.00159  0.6861E-10  0.7484E-08  0.1114E-11  0.1445E-04  0.0000E+00 -0.5429E+12
   -2.612504    4.00371  0.6861E-10  0.6510E-08  0.1754E-11  0.6158E-05  0.0000E+00 -0.1621E+13
   -2.681251    4.00889  0.6861E-10  0.3349E-08  0.5139E-11  0.4799E-06  0.0000E+00 -0.4521E+14
   -2.749996    4.06559  0.6861E-10  0.0000E+00  0.0000E+00  0.0000E+00  0.0000E+00  0.0000E+00
