 1 - depth, m
 2 - temperature, C
 3 - salinity, kg/kg
 4 - turbulent kinetic energy, m**2/s**2
 5 - dissipation rate, m**2/s**3
 6 - kinematic heat conductance, m**2/s
 7 - modulus of horizontal velocity, m/s
 8 - Richardson number, n/d
   -0.000000   -0.00001  0.1310E-06  0.2375E-08  0.3483E-11  0.2801E-09  0.0000E+00  0.6322E+17
   -0.068746    1.11404  0.3818E-08  0.2425E-07  0.3703E-11  0.4653E-09  0.0000E+00  0.4053E+17
   -0.137492    2.17806  0.1460E-09  0.7025E-07  0.7264E-11  0.1759E-08  0.0000E+00  0.2104E+17
   -0.206239    3.18540  0.6909E-10  0.1618E-06  0.1521E-10  0.1549E-07  0.0000E+00  0.5019E+16
   -0.274986    4.06434  0.6631E-10  0.1629E-06  0.1532E-10  0.5684E-03  0.0000E+00 -0.2877E+12
   -0.343734    4.06457  0.6631E-10  0.1633E-06  0.1537E-10  0.5590E-03  0.0000E+00 -0.2854E+12
   -0.412483    4.06480  0.6631E-10  0.1637E-06  0.1543E-10  0.5597E-03  0.0000E+00 -0.2800E+12
   -0.481232    4.06503  0.6631E-10  0.1641E-06  0.1550E-10  0.5600E-03  0.0000E+00 -0.2757E+12
   -0.549981    4.06526  0.6631E-10  0.1643E-06  0.1557E-10  0.5597E-03  0.0000E+00 -0.2718E+12
   -0.618731    4.06548  0.6631E-10  0.1645E-06  0.1564E-10  0.5588E-03  0.0000E+00 -0.2686E+12
   -0.687482    4.06569  0.6631E-10  0.1646E-06  0.1573E-10  0.5573E-03  0.0000E+00 -0.2660E+12
   -0.756232    4.06591  0.6631E-10  0.1647E-06  0.1582E-10  0.5552E-03  0.0000E+00 -0.2640E+12
   -0.824983    4.06612  0.6631E-10  0.1647E-06  0.1591E-10  0.5524E-03  0.0000E+00 -0.2625E+12
   -0.893734    4.06633  0.6631E-10  0.1646E-06  0.1602E-10  0.5491E-03  0.0000E+00 -0.2616E+12
   -0.962486    4.06654  0.6631E-10  0.1645E-06  0.1613E-10  0.5452E-03  0.0000E+00 -0.2612E+12
   -1.031237    4.06675  0.6631E-10  0.1644E-06  0.1626E-10  0.5406E-03  0.0000E+00 -0.2614E+12
   -1.099989    4.06695  0.6631E-10  0.1642E-06  0.1640E-10  0.5355E-03  0.0000E+00 -0.2624E+12
   -1.168741    4.06716  0.6631E-10  0.1639E-06  0.1655E-10  0.5296E-03  0.0000E+00 -0.2640E+12
   -1.237493    4.06737  0.6631E-10  0.1636E-06  0.1671E-10  0.5231E-03  0.0000E+00 -0.2660E+12
   -1.306245    4.06758  0.6631E-10  0.1632E-06  0.1690E-10  0.5160E-03  0.0000E+00 -0.2686E+12
   -1.374997    4.06779  0.6631E-10  0.1628E-06  0.1710E-10  0.5082E-03  0.0000E+00 -0.2717E+12
   -1.443750    4.06800  0.6631E-10  0.1623E-06  0.1733E-10  0.4997E-03  0.0000E+00 -0.2752E+12
   -1.512502    4.06822  0.6631E-10  0.1618E-06  0.1757E-10  0.4906E-03  0.0000E+00 -0.2793E+12
   -1.581254    4.06844  0.6631E-10  0.1612E-06  0.1785E-10  0.4808E-03  0.0000E+00 -0.2841E+12
   -1.650006    4.06866  0.6631E-10  0.1606E-06  0.1815E-10  0.4703E-03  0.0000E+00 -0.2896E+12
   -1.718758    4.06888  0.6631E-10  0.1599E-06  0.1849E-10  0.4591E-03  0.0000E+00 -0.2959E+12
   -1.787509    4.06911  0.6631E-10  0.1591E-06  0.1887E-10  0.4472E-03  0.0000E+00 -0.3030E+12
   -1.856261    4.06934  0.6631E-10  0.1583E-06  0.1929E-10  0.4346E-03  0.0000E+00 -0.3111E+12
   -1.925012    4.06958  0.6631E-10  0.1575E-06  0.1977E-10  0.4212E-03  0.0000E+00 -0.3202E+12
   -1.993763    4.06983  0.6631E-10  0.1566E-06  0.2030E-10  0.4073E-03  0.0000E+00 -0.3306E+12
   -2.062513    4.07008  0.6631E-10  0.1556E-06  0.2092E-10  0.3923E-03  0.0000E+00 -0.3432E+12
   -2.131264    4.07034  0.6631E-10  0.1545E-06  0.2166E-10  0.3754E-03  0.0000E+00 -0.3592E+12
   -2.200014    4.07062  0.6631E-10  0.1532E-06  0.2258E-10  0.3565E-03  0.0000E+00 -0.3789E+12
   -2.268763    4.07090  0.6631E-10  0.1517E-06  0.2375E-10  0.3351E-03  0.0000E+00 -0.4044E+12
   -2.337512    4.07121  0.6631E-10  0.1500E-06  0.2526E-10  0.3106E-03  0.0000E+00 -0.4383E+12
   -2.406261    4.07154  0.6631E-10  0.1479E-06  0.2729E-10  0.2854E-03  0.0000E+00 -0.4800E+12
   -2.475009    4.07190  0.6631E-10  0.1446E-06  0.3081E-10  0.1963E-03  0.0000E+00 -0.7050E+12
   -2.543756    4.07242  0.6631E-10  0.1382E-06  0.3876E-10  0.1038E-03  0.0000E+00 -0.1356E+13
   -2.612503    4.07342  0.6631E-10  0.1260E-06  0.5711E-10  0.4989E-04  0.0000E+00 -0.2891E+13
   -2.681249    4.07552  0.6631E-10  0.5941E-07  0.2029E-09  0.2424E-05  0.0000E+00 -0.7139E+14
   -2.749995    4.11704  0.6631E-10  0.0000E+00  0.0000E+00  0.0000E+00  0.0000E+00  0.0000E+00
