 1 - depth, m
 2 - temperature, C
 3 - salinity, kg/kg
 4 - turbulent kinetic energy, m**2/s**2
 5 - dissipation rate, m**2/s**3
 6 - kinematic heat conductance, m**2/s
 7 - modulus of horizontal velocity, m/s
 8 - Richardson number, n/d
   -0.000000    7.29182  0.7821E-10  0.1862E-03  0.7196E-04  0.1270E-03  0.1364E+00 -0.2703E-01
   -0.068746    7.36226  0.7822E-10  0.1002E-03  0.1772E-04  0.1727E-03  0.4695E-01 -0.8484E-01
   -0.137493    7.37218  0.7822E-10  0.7085E-04  0.7118E-05  0.1633E-03  0.3613E-01 -0.1070E-01
   -0.206240    7.38040  0.7822E-10  0.5276E-04  0.3204E-05  0.1683E-03  0.2988E-01 -0.1457E-01
   -0.274988    7.38731  0.7822E-10  0.4107E-04  0.1581E-05  0.1831E-03  0.2532E-01 -0.2123E-01
   -0.343737    7.39333  0.7822E-10  0.3356E-04  0.8557E-06  0.2005E-03  0.2180E-01 -0.2580E-01
   -0.412486    7.39863  0.7822E-10  0.2841E-04  0.5054E-06  0.2235E-03  0.1887E-01 -0.3310E-01
   -0.481235    7.40324  0.7823E-10  0.2479E-04  0.3233E-06  0.2521E-03  0.1650E-01 -0.4410E-01
   -0.549985    7.40723  0.7823E-10  0.2229E-04  0.2229E-06  0.2827E-03  0.1460E-01 -0.5479E-01
   -0.618736    7.41070  0.7823E-10  0.2051E-04  0.1639E-06  0.3135E-03  0.1302E-01 -0.6317E-01
   -0.687486    7.41376  0.7823E-10  0.1916E-04  0.1266E-06  0.3467E-03  0.1166E-01 -0.7317E-01
   -0.756237    7.41646  0.7823E-10  0.1805E-04  0.1014E-06  0.3811E-03  0.1047E-01 -0.8430E-01
   -0.824989    7.41887  0.7823E-10  0.1711E-04  0.8362E-07  0.4157E-03  0.9426E-02 -0.9527E-01
   -0.893740    7.42104  0.7823E-10  0.1628E-04  0.7039E-07  0.4514E-03  0.8505E-02 -0.5540E-01
   -0.962492    7.42300  0.7823E-10  0.1551E-04  0.6017E-07  0.4890E-03  0.7681E-02  0.2201E+00
   -1.031244    7.42478  0.7823E-10  0.1479E-04  0.5199E-07  0.5443E-03  0.6934E-02  0.4528E+02
   -1.099997    7.42638  0.7823E-10  0.1409E-04  0.4528E-07  0.6434E-03  0.6262E-02  0.9359E+02
   -1.168749    7.42777  0.7823E-10  0.1345E-04  0.3981E-07  0.7979E-03  0.5679E-02  0.2458E+03
   -1.237502    7.42893  0.7823E-10  0.1287E-04  0.3532E-07  0.9920E-03  0.5170E-02  0.5107E+02
   -1.306254    7.42988  0.7823E-10  0.1233E-04  0.3160E-07  0.1162E-02  0.4720E-02  0.1198E+03
   -1.375007    7.43065  0.7823E-10  0.1184E-04  0.2848E-07  0.1311E-02  0.4313E-02  0.1512E+03
   -1.443760    7.43129  0.7823E-10  0.1139E-04  0.2582E-07  0.1409E-02  0.3941E-02  0.7954E+02
   -1.512512    7.43185  0.7823E-10  0.1096E-04  0.2353E-07  0.1452E-02  0.3595E-02  0.1154E+02
   -1.581265    7.43238  0.7823E-10  0.1055E-04  0.2154E-07  0.1461E-02  0.3270E-02  0.5177E+01
   -1.650017    7.43289  0.7823E-10  0.1015E-04  0.1980E-07  0.1461E-02  0.2963E-02  0.4166E+01
   -1.718769    7.43340  0.7823E-10  0.9775E-05  0.1829E-07  0.1455E-02  0.2673E-02  0.3929E+01
   -1.787522    7.43390  0.7823E-10  0.9409E-05  0.1698E-07  0.1446E-02  0.2397E-02  0.3751E+01
   -1.856273    7.43440  0.7823E-10  0.9054E-05  0.1586E-07  0.1432E-02  0.2134E-02  0.3623E+01
   -1.925025    7.43489  0.7823E-10  0.8707E-05  0.1490E-07  0.1415E-02  0.1883E-02  0.3544E+01
   -1.993777    7.43538  0.7823E-10  0.8367E-05  0.1410E-07  0.1390E-02  0.1640E-02  0.3508E+01
   -2.062528    7.43588  0.7823E-10  0.8031E-05  0.1346E-07  0.1394E-02  0.1404E-02  0.2575E+01
   -2.131278    7.43636  0.7823E-10  0.7691E-05  0.1296E-07  0.1403E-02  0.1191E-02  0.1805E+01
   -2.200029    7.43684  0.7823E-10  0.7357E-05  0.1264E-07  0.1371E-02  0.1007E-02  0.1313E+01
   -2.268779    7.43733  0.7823E-10  0.7037E-05  0.1251E-07  0.1267E-02  0.8506E-03  0.9613E+00
   -2.337528    7.43785  0.7823E-10  0.6739E-05  0.1260E-07  0.1147E-02  0.7219E-03  0.7009E+00
   -2.406277    7.43842  0.7823E-10  0.6473E-05  0.1293E-07  0.1041E-02  0.6203E-03  0.5384E+00
   -2.475026    7.43904  0.7823E-10  0.6213E-05  0.1356E-07  0.9341E-03  0.5466E-03  0.7114E+00
   -2.543774    7.43973  0.7823E-10  0.5911E-05  0.1481E-07  0.8489E-03  0.4879E-03  0.1689E+01
   -2.612521    7.44049  0.7823E-10  0.5417E-05  0.1807E-07  0.3823E-03  0.4426E-03  0.6201E+02
   -2.681268    7.44215  0.7823E-10  0.2439E-05  0.5317E-07  0.1514E-04  0.3807E-03 -0.7742E+04
   -2.750014    7.48354  0.7823E-10  0.0000E+00  0.0000E+00  0.0000E+00  0.3782E-03  0.0000E+00
