 1 - depth, m
 2 - temperature, C
 3 - salinity, kg/kg
 4 - turbulent kinetic energy, m**2/s**2
 5 - dissipation rate, m**2/s**3
 6 - kinematic heat conductance, m**2/s
 7 - modulus of horizontal velocity, m/s
 8 - Richardson number, n/d
   -0.000000    4.57019  0.8262E-10  0.6541E-04  0.1773E-04  0.7648E-04  0.6267E-01 -0.9699E-02
   -0.068746    4.62362  0.8262E-10  0.3477E-04  0.3836E-05  0.8030E-04  0.2560E-01 -0.6371E-01
   -0.137492    4.64043  0.8262E-10  0.2463E-04  0.1396E-05  0.9385E-04  0.1918E-01 -0.1367E+00
   -0.206239    4.65205  0.8263E-10  0.1834E-04  0.5984E-06  0.1172E-03  0.1530E-01  0.1842E+02
   -0.274987    4.66132  0.8263E-10  0.1432E-04  0.2937E-06  0.1402E-03  0.1252E-01  0.3700E+01
   -0.343735    4.66906  0.8263E-10  0.1179E-04  0.1637E-06  0.1633E-03  0.1046E-01  0.4736E+01
   -0.412484    4.67569  0.8263E-10  0.1002E-04  0.1003E-06  0.1885E-03  0.8822E-02  0.8521E+02
   -0.481233    4.68137  0.8263E-10  0.8730E-05  0.6625E-07  0.2163E-03  0.7540E-02  0.5230E+02
   -0.549983    4.68625  0.8263E-10  0.7811E-05  0.4683E-07  0.2443E-03  0.6548E-02  0.3676E+02
   -0.618733    4.69050  0.8263E-10  0.7141E-05  0.3509E-07  0.2717E-03  0.5743E-02  0.9382E+01
   -0.687484    4.69427  0.8263E-10  0.6612E-05  0.2739E-07  0.2993E-03  0.5053E-02  0.1035E+02
   -0.756234    4.69762  0.8263E-10  0.6173E-05  0.2206E-07  0.3268E-03  0.4457E-02  0.8050E+01
   -0.824986    4.70063  0.8263E-10  0.5794E-05  0.1818E-07  0.3531E-03  0.3939E-02  0.3320E+02
   -0.893737    4.70336  0.8263E-10  0.5456E-05  0.1525E-07  0.3784E-03  0.3483E-02  0.4063E+02
   -0.962489    4.70587  0.8263E-10  0.5145E-05  0.1295E-07  0.4014E-03  0.3075E-02  0.3263E+01
   -1.031240    4.70820  0.8263E-10  0.4850E-05  0.1107E-07  0.4246E-03  0.2705E-02  0.5311E+01
   -1.099992    4.71037  0.8263E-10  0.4567E-05  0.9504E-08  0.4496E-03  0.2372E-02  0.5418E+01
   -1.168745    4.71238  0.8263E-10  0.4304E-05  0.8214E-08  0.4734E-03  0.2085E-02  0.2346E+02
   -1.237497    4.71426  0.8263E-10  0.4063E-05  0.7146E-08  0.4967E-03  0.1837E-02  0.6047E+01
   -1.306249    4.71602  0.8263E-10  0.3843E-05  0.6260E-08  0.5227E-03  0.1620E-02  0.1291E+03
   -1.375002    4.71767  0.8263E-10  0.3643E-05  0.5521E-08  0.5469E-03  0.1429E-02  0.1188E+03
   -1.443754    4.71921  0.8263E-10  0.3462E-05  0.4904E-08  0.5695E-03  0.1261E-02  0.3309E+01
   -1.512506    4.72068  0.8263E-10  0.3297E-05  0.4386E-08  0.5921E-03  0.1111E-02  0.3191E+01
   -1.581258    4.72206  0.8263E-10  0.3148E-05  0.3952E-08  0.6190E-03  0.9776E-03  0.3853E+02
   -1.650011    4.72335  0.8263E-10  0.3014E-05  0.3589E-08  0.6653E-03  0.8581E-03  0.2260E+02
   -1.718763    4.72452  0.8263E-10  0.2894E-05  0.3291E-08  0.7323E-03  0.7518E-03  0.8236E+02
   -1.787515    4.72554  0.8263E-10  0.2789E-05  0.3050E-08  0.7902E-03  0.6583E-03  0.4346E+03
   -1.856266    4.72647  0.8263E-10  0.2694E-05  0.2855E-08  0.8250E-03  0.5752E-03  0.3023E+02
   -1.925018    4.72734  0.8263E-10  0.2609E-05  0.2697E-08  0.8404E-03  0.4996E-03  0.1003E+03
   -1.993769    4.72817  0.8263E-10  0.2530E-05  0.2571E-08  0.8401E-03  0.4293E-03  0.2065E+02
   -2.062520    4.72898  0.8263E-10  0.2459E-05  0.2475E-08  0.8266E-03  0.3632E-03  0.2066E+02
   -2.131270    4.72981  0.8263E-10  0.2391E-05  0.2404E-08  0.8047E-03  0.3060E-03  0.1495E+02
   -2.200020    4.73065  0.8263E-10  0.2328E-05  0.2361E-08  0.7757E-03  0.2584E-03  0.8742E+01
   -2.268770    4.73152  0.8263E-10  0.2269E-05  0.2345E-08  0.7415E-03  0.2193E-03  0.1264E+02
   -2.337519    4.73243  0.8263E-10  0.2210E-05  0.2359E-08  0.7008E-03  0.1872E-03  0.3938E+02
   -2.406268    4.73339  0.8263E-10  0.2148E-05  0.2411E-08  0.6514E-03  0.1600E-03  0.9408E+02
   -2.475016    4.73442  0.8263E-10  0.2073E-05  0.2527E-08  0.5787E-03  0.1364E-03  0.8885E+02
   -2.543764    4.73560  0.8263E-10  0.1961E-05  0.2795E-08  0.3843E-03  0.1146E-03  0.2557E+05
   -2.612511    4.73737  0.8263E-10  0.1769E-05  0.3520E-08  0.1816E-03  0.9240E-04 -0.1799E+03
   -2.681257    4.74109  0.8263E-10  0.7956E-06  0.1018E-07  0.8738E-05  0.7026E-04 -0.4116E+06
   -2.750003    4.81704  0.8264E-10  0.0000E+00  0.0000E+00  0.0000E+00  0.6991E-04  0.0000E+00
