 1 - depth, m
 2 - temperature, C
 3 - salinity, kg/kg
 4 - turbulent kinetic energy, m**2/s**2
 5 - dissipation rate, m**2/s**3
 6 - kinematic heat conductance, m**2/s
 7 - modulus of horizontal velocity, m/s
 8 - Richardson number, n/d
   -0.000000   -0.00000  0.4908E-09  0.1367E-12  0.2038E-16  0.1000E-09  0.0000E+00  0.1597E+17
   -0.068746    0.24782  0.1356E-09  0.2654E-12  0.2511E-16  0.1000E-09  0.0000E+00  0.1479E+17
   -0.137492    0.49403  0.8412E-10  0.5552E-12  0.4394E-16  0.1000E-09  0.0000E+00  0.1353E+17
   -0.206239    0.73653  0.7454E-10  0.1128E-11  0.8380E-16  0.1000E-09  0.0000E+00  0.1230E+17
   -0.274987    0.97500  0.7208E-10  0.2244E-11  0.1616E-15  0.1000E-09  0.0000E+00  0.1113E+17
   -0.343735    1.20930  0.7148E-10  0.4400E-11  0.3098E-15  0.1000E-09  0.0000E+00  0.1003E+17
   -0.412483    1.43979  0.7135E-10  0.8551E-11  0.5904E-15  0.1000E-09  0.0000E+00  0.8984E+16
   -0.481232    1.66643  0.7133E-10  0.1652E-10  0.1119E-14  0.1000E-09  0.0000E+00  0.7985E+16
   -0.549982    1.88919  0.7132E-10  0.3173E-10  0.2110E-14  0.1000E-09  0.0000E+00  0.7046E+16
   -0.618732    2.10838  0.7132E-10  0.6045E-10  0.3946E-14  0.1000E-09  0.0000E+00  0.6157E+16
   -0.687482    2.32424  0.7130E-10  0.1145E-09  0.7335E-14  0.1000E-09  0.0000E+00  0.5305E+16
   -0.756233    2.53655  0.7126E-10  0.2156E-09  0.1357E-13  0.1000E-09  0.0000E+00  0.4509E+16
   -0.824984    2.74598  0.7118E-10  0.4041E-09  0.2497E-13  0.1000E-09  0.0000E+00  0.3731E+16
   -0.893735    2.95159  0.7101E-10  0.7538E-09  0.4573E-13  0.1000E-09  0.0000E+00  0.2979E+16
   -0.962487    3.15209  0.7067E-10  0.1399E-08  0.8334E-13  0.1872E-09  0.0000E+00  0.2266E+16
   -1.031239    3.34601  0.7009E-10  0.2583E-08  0.1511E-12  0.4774E-09  0.0000E+00  0.1611E+16
   -1.099990    3.53230  0.6932E-10  0.4758E-08  0.2735E-12  0.1356E-08  0.0000E+00  0.1026E+16
   -1.168742    3.71084  0.6875E-10  0.8720E-08  0.4925E-12  0.4925E-08  0.0000E+00  0.5087E+15
   -1.237495    3.88071  0.6861E-10  0.1554E-07  0.8651E-12  0.5260E-07  0.0000E+00  0.8363E+14
   -1.306247    4.00830  0.6859E-10  0.1601E-07  0.8927E-12  0.1134E-03  0.0000E+00 -0.7563E+11
   -1.374999    4.00852  0.6859E-10  0.1620E-07  0.9067E-12  0.1121E-03  0.0000E+00 -0.7787E+11
   -1.443751    4.00874  0.6859E-10  0.1637E-07  0.9206E-12  0.1124E-03  0.0000E+00 -0.7912E+11
   -1.512503    4.00896  0.6859E-10  0.1652E-07  0.9360E-12  0.1126E-03  0.0000E+00 -0.8052E+11
   -1.581256    4.00919  0.6859E-10  0.1665E-07  0.9528E-12  0.1124E-03  0.0000E+00 -0.8221E+11
   -1.650008    4.00942  0.6859E-10  0.1676E-07  0.9712E-12  0.1119E-03  0.0000E+00 -0.8421E+11
   -1.718760    4.00965  0.6859E-10  0.1686E-07  0.9914E-12  0.1110E-03  0.0000E+00 -0.8656E+11
   -1.787511    4.00989  0.6859E-10  0.1695E-07  0.1014E-11  0.1098E-03  0.0000E+00 -0.8931E+11
   -1.856263    4.01013  0.6859E-10  0.1701E-07  0.1038E-11  0.1082E-03  0.0000E+00 -0.9252E+11
   -1.925014    4.01037  0.6859E-10  0.1706E-07  0.1065E-11  0.1062E-03  0.0000E+00 -0.9625E+11
   -1.993765    4.01063  0.6859E-10  0.1709E-07  0.1095E-11  0.1038E-03  0.0000E+00 -0.1006E+12
   -2.062516    4.01089  0.6859E-10  0.1709E-07  0.1130E-11  0.1009E-03  0.0000E+00 -0.1059E+12
   -2.131266    4.01116  0.6859E-10  0.1707E-07  0.1175E-11  0.9711E-04  0.0000E+00 -0.1130E+12
   -2.200016    4.01145  0.6859E-10  0.1700E-07  0.1237E-11  0.8804E-04  0.0000E+00 -0.1283E+12
   -2.268766    4.01178  0.6859E-10  0.1689E-07  0.1321E-11  0.7506E-04  0.0000E+00 -0.1558E+12
   -2.337515    4.01216  0.6859E-10  0.1669E-07  0.1436E-11  0.6331E-04  0.0000E+00 -0.1926E+12
   -2.406263    4.01264  0.6859E-10  0.1639E-07  0.1603E-11  0.5222E-04  0.0000E+00 -0.2464E+12
   -2.475011    4.01323  0.6859E-10  0.1590E-07  0.1866E-11  0.4014E-04  0.0000E+00 -0.3447E+12
   -2.543759    4.01403  0.6859E-10  0.1503E-07  0.2358E-11  0.2617E-04  0.0000E+00 -0.5809E+12
   -2.612506    4.01534  0.6859E-10  0.1331E-07  0.3488E-11  0.1206E-04  0.0000E+00 -0.1434E+13
   -2.681252    4.01834  0.6859E-10  0.6368E-08  0.1039E-10  0.7241E-06  0.0000E+00 -0.3997E+14
   -2.749998    4.06462  0.6859E-10  0.0000E+00  0.0000E+00  0.0000E+00  0.0000E+00  0.0000E+00
