 1 - depth, m
 2 - temperature, C
 3 - salinity, kg/kg
 4 - turbulent kinetic energy, m**2/s**2
 5 - dissipation rate, m**2/s**3
 6 - kinematic heat conductance, m**2/s
 7 - modulus of horizontal velocity, m/s
 8 - Richardson number, n/d
   -0.000000   -0.00000  0.3152E-09  0.1223E-13  0.7603E-17  0.1000E-09  0.0000E+00  0.1430E+17
   -0.068746    0.22109  0.1017E-09  0.1270E-13  0.7603E-17  0.1000E-09  0.0000E+00  0.1258E+17
   -0.137492    0.42759  0.7732E-10  0.1436E-13  0.7603E-17  0.1000E-09  0.0000E+00  0.1051E+17
   -0.206239    0.61053  0.7570E-10  0.1733E-13  0.7604E-17  0.1000E-09  0.0000E+00  0.8459E+16
   -0.274987    0.76571  0.7556E-10  0.2115E-13  0.7627E-17  0.1000E-09  0.0000E+00  0.6523E+16
   -0.343735    0.89097  0.7553E-10  0.2513E-13  0.7680E-17  0.1000E-09  0.0000E+00  0.4973E+16
   -0.412484    0.99018  0.7553E-10  0.2858E-13  0.7747E-17  0.1000E-09  0.0000E+00  0.3599E+16
   -0.481233    1.06418  0.7552E-10  0.3098E-13  0.7809E-17  0.1000E-09  0.0000E+00  0.2419E+16
   -0.549983    1.11504  0.7552E-10  0.3197E-13  0.7850E-17  0.1000E-09  0.0000E+00  0.1613E+16
   -0.618733    1.14949  0.7552E-10  0.3144E-13  0.7865E-17  0.1000E-09  0.0000E+00  0.1180E+16
   -0.687483    1.17498  0.7552E-10  0.2964E-13  0.7858E-17  0.1000E-09  0.0000E+00  0.9420E+15
   -0.756234    1.19550  0.7552E-10  0.2721E-13  0.7853E-17  0.1000E-09  0.0000E+00  0.9969E+15
   -0.824985    1.21740  0.7552E-10  0.2540E-13  0.7909E-17  0.1000E-09  0.0000E+00  0.1216E+16
   -0.893736    1.24436  0.7552E-10  0.3866E-13  0.8376E-17  0.1000E-09  0.0000E+00  0.1594E+16
   -0.962488    1.28013  0.7551E-10  0.9877E-13  0.1783E-16  0.1000E-09  0.0000E+00  0.2126E+16
   -1.031240    1.32860  0.7543E-10  0.2674E-12  0.4620E-16  0.1000E-09  0.0000E+00  0.2753E+16
   -1.099992    1.39278  0.7522E-10  0.7287E-12  0.1223E-15  0.1000E-09  0.0000E+00  0.3349E+16
   -1.168744    1.47316  0.7488E-10  0.1974E-11  0.3222E-15  0.1000E-09  0.0000E+00  0.4059E+16
   -1.237496    1.57431  0.7444E-10  0.5296E-11  0.8403E-15  0.1000E-09  0.0000E+00  0.4831E+16
   -1.306248    1.70078  0.7403E-10  0.1405E-10  0.2168E-14  0.1000E-09  0.0000E+00  0.5581E+16
   -1.375001    1.85654  0.7377E-10  0.3685E-10  0.5530E-14  0.1000E-09  0.0000E+00  0.6271E+16
   -1.443753    2.04696  0.7361E-10  0.9558E-10  0.1396E-13  0.1000E-09  0.0000E+00  0.6766E+16
   -1.512505    2.27684  0.7339E-10  0.2452E-09  0.3484E-13  0.1000E-09  0.0000E+00  0.6748E+16
   -1.581257    2.54320  0.7302E-10  0.6224E-09  0.8608E-13  0.1000E-09  0.0000E+00  0.6125E+16
   -1.650010    2.83873  0.7250E-10  0.1563E-08  0.2104E-12  0.2174E-09  0.0000E+00  0.4945E+16
   -1.718762    3.15221  0.7199E-10  0.3882E-08  0.5090E-12  0.7611E-09  0.0000E+00  0.3408E+16
   -1.787513    3.47123  0.7164E-10  0.9523E-08  0.1217E-11  0.3493E-08  0.0000E+00  0.1772E+16
   -1.856265    3.78521  0.7156E-10  0.2252E-07  0.2813E-11  0.4745E-07  0.0000E+00  0.3023E+15
   -1.925016    4.03021  0.7156E-10  0.2427E-07  0.3044E-11  0.7626E-04  0.0000E+00 -0.4264E+12
   -1.993767    4.03082  0.7156E-10  0.2498E-07  0.3165E-11  0.8022E-04  0.0000E+00 -0.4189E+12
   -2.062518    4.03142  0.7156E-10  0.2552E-07  0.3291E-11  0.8018E-04  0.0000E+00 -0.4330E+12
   -2.131269    4.03203  0.7156E-10  0.2596E-07  0.3439E-11  0.7928E-04  0.0000E+00 -0.4535E+12
   -2.200019    4.03266  0.7156E-10  0.2631E-07  0.3624E-11  0.7662E-04  0.0000E+00 -0.4880E+12
   -2.268768    4.03333  0.7156E-10  0.2655E-07  0.3863E-11  0.6997E-04  0.0000E+00 -0.5586E+12
   -2.337517    4.03409  0.7156E-10  0.2664E-07  0.4184E-11  0.6161E-04  0.0000E+00 -0.6688E+12
   -2.406266    4.03497  0.7156E-10  0.2652E-07  0.4637E-11  0.5276E-04  0.0000E+00 -0.8342E+12
   -2.475014    4.03606  0.7156E-10  0.2607E-07  0.5335E-11  0.4262E-04  0.0000E+00 -0.1126E+13
   -2.543762    4.03749  0.7156E-10  0.2499E-07  0.6590E-11  0.2971E-04  0.0000E+00 -0.1803E+13
   -2.612509    4.03969  0.7156E-10  0.2255E-07  0.9354E-11  0.1502E-04  0.0000E+00 -0.4100E+13
   -2.681255    4.04440  0.7156E-10  0.1237E-07  0.2527E-10  0.1276E-05  0.0000E+00 -0.7594E+14
   -2.750001    4.10071  0.7156E-10  0.0000E+00  0.0000E+00  0.0000E+00  0.0000E+00  0.0000E+00
