 1 - depth, m
 2 - temperature, C
 3 - salinity, kg/kg
 4 - turbulent kinetic energy, m**2/s**2
 5 - dissipation rate, m**2/s**3
 6 - kinematic heat conductance, m**2/s
 7 - modulus of horizontal velocity, m/s
 8 - Richardson number, n/d
   -0.000000   -0.00001  0.1103E-06  0.1090E-08  0.1315E-11  0.1228E-09  0.0000E+00  0.5445E+17
   -0.068745    0.93371  0.0000E+00  0.9402E-08  0.1378E-11  0.1858E-09  0.0000E+00  0.3777E+17
   -0.137492    1.81896  0.8429E-10  0.2665E-07  0.2635E-11  0.5711E-09  0.0000E+00  0.2350E+17
   -0.206238    2.65146  0.6150E-10  0.6087E-07  0.5447E-11  0.2380E-08  0.0000E+00  0.1167E+17
   -0.274986    3.42428  0.6606E-10  0.1286E-06  0.1106E-10  0.2313E-07  0.0000E+00  0.2447E+16
   -0.343734    4.06011  0.6632E-10  0.1295E-06  0.1114E-10  0.4992E-03  0.0000E+00 -0.2342E+12
   -0.412482    4.06031  0.6632E-10  0.1299E-06  0.1118E-10  0.4901E-03  0.0000E+00 -0.2341E+12
   -0.481231    4.06051  0.6632E-10  0.1302E-06  0.1123E-10  0.4906E-03  0.0000E+00 -0.2307E+12
   -0.549980    4.06071  0.6632E-10  0.1305E-06  0.1128E-10  0.4908E-03  0.0000E+00 -0.2275E+12
   -0.618730    4.06091  0.6632E-10  0.1307E-06  0.1134E-10  0.4906E-03  0.0000E+00 -0.2247E+12
   -0.687480    4.06110  0.6632E-10  0.1309E-06  0.1140E-10  0.4897E-03  0.0000E+00 -0.2224E+12
   -0.756231    4.06129  0.6632E-10  0.1310E-06  0.1146E-10  0.4884E-03  0.0000E+00 -0.2207E+12
   -0.824981    4.06148  0.6632E-10  0.1310E-06  0.1153E-10  0.4864E-03  0.0000E+00 -0.2193E+12
   -0.893732    4.06166  0.6632E-10  0.1310E-06  0.1160E-10  0.4839E-03  0.0000E+00 -0.2185E+12
   -0.962484    4.06185  0.6632E-10  0.1310E-06  0.1169E-10  0.4809E-03  0.0000E+00 -0.2179E+12
   -1.031235    4.06203  0.6632E-10  0.1309E-06  0.1178E-10  0.4774E-03  0.0000E+00 -0.2179E+12
   -1.099987    4.06222  0.6632E-10  0.1308E-06  0.1187E-10  0.4732E-03  0.0000E+00 -0.2186E+12
   -1.168739    4.06240  0.6632E-10  0.1306E-06  0.1198E-10  0.4685E-03  0.0000E+00 -0.2198E+12
   -1.237491    4.06258  0.6632E-10  0.1304E-06  0.1210E-10  0.4632E-03  0.0000E+00 -0.2213E+12
   -1.306243    4.06277  0.6632E-10  0.1302E-06  0.1223E-10  0.4572E-03  0.0000E+00 -0.2233E+12
   -1.374995    4.06296  0.6632E-10  0.1299E-06  0.1237E-10  0.4507E-03  0.0000E+00 -0.2255E+12
   -1.443747    4.06314  0.6632E-10  0.1295E-06  0.1253E-10  0.4436E-03  0.0000E+00 -0.2282E+12
   -1.512499    4.06333  0.6632E-10  0.1291E-06  0.1271E-10  0.4360E-03  0.0000E+00 -0.2312E+12
   -1.581251    4.06353  0.6632E-10  0.1287E-06  0.1290E-10  0.4276E-03  0.0000E+00 -0.2348E+12
   -1.650002    4.06372  0.6632E-10  0.1282E-06  0.1312E-10  0.4187E-03  0.0000E+00 -0.2390E+12
   -1.718754    4.06392  0.6632E-10  0.1277E-06  0.1335E-10  0.4091E-03  0.0000E+00 -0.2437E+12
   -1.787506    4.06412  0.6632E-10  0.1271E-06  0.1362E-10  0.3989E-03  0.0000E+00 -0.2491E+12
   -1.856257    4.06432  0.6632E-10  0.1265E-06  0.1392E-10  0.3880E-03  0.0000E+00 -0.2553E+12
   -1.925008    4.06453  0.6632E-10  0.1258E-06  0.1425E-10  0.3765E-03  0.0000E+00 -0.2623E+12
   -1.993759    4.06474  0.6632E-10  0.1251E-06  0.1463E-10  0.3644E-03  0.0000E+00 -0.2703E+12
   -2.062509    4.06496  0.6632E-10  0.1244E-06  0.1506E-10  0.3514E-03  0.0000E+00 -0.2802E+12
   -2.131259    4.06519  0.6632E-10  0.1235E-06  0.1559E-10  0.3365E-03  0.0000E+00 -0.2929E+12
   -2.200009    4.06543  0.6632E-10  0.1225E-06  0.1623E-10  0.3200E-03  0.0000E+00 -0.3087E+12
   -2.268758    4.06568  0.6632E-10  0.1214E-06  0.1705E-10  0.3011E-03  0.0000E+00 -0.3291E+12
   -2.337507    4.06594  0.6632E-10  0.1200E-06  0.1811E-10  0.2799E-03  0.0000E+00 -0.3558E+12
   -2.406256    4.06623  0.6632E-10  0.1182E-06  0.1962E-10  0.2562E-03  0.0000E+00 -0.3915E+12
   -2.475004    4.06654  0.6632E-10  0.1154E-06  0.2233E-10  0.1578E-03  0.0000E+00 -0.6437E+12
   -2.543751    4.06705  0.6632E-10  0.1100E-06  0.2818E-10  0.8985E-04  0.0000E+00 -0.1153E+13
   -2.612498    4.06796  0.6632E-10  0.1001E-06  0.4149E-10  0.4355E-04  0.0000E+00 -0.2444E+13
   -2.681244    4.06985  0.6632E-10  0.4740E-07  0.1448E-09  0.2170E-05  0.0000E+00 -0.5809E+14
   -2.749989    4.10635  0.6632E-10  0.0000E+00  0.0000E+00  0.0000E+00  0.0000E+00  0.0000E+00
