 1 - depth, m
 2 - temperature, C
 3 - salinity, kg/kg
 4 - turbulent kinetic energy, m**2/s**2
 5 - dissipation rate, m**2/s**3
 6 - kinematic heat conductance, m**2/s
 7 - modulus of horizontal velocity, m/s
 8 - Richardson number, n/d
   -0.000000   -0.00000  0.9256E-09  0.2264E-09  0.1833E-12  0.1000E-09  0.0000E+00  0.3449E+17
   -0.068746    0.55894  0.6278E-10  0.1395E-08  0.1772E-12  0.1000E-09  0.0000E+00  0.2926E+17
   -0.137493    1.12322  0.8718E-10  0.3718E-08  0.3032E-12  0.1000E-09  0.0000E+00  0.2399E+17
   -0.206241    1.69280  0.6452E-10  0.8012E-08  0.5764E-12  0.1567E-09  0.0000E+00  0.1873E+17
   -0.274989    2.27033  0.6840E-10  0.1603E-07  0.1096E-11  0.4174E-09  0.0000E+00  0.1337E+17
   -0.343737    2.85652  0.6781E-10  0.3102E-07  0.2054E-11  0.1339E-08  0.0000E+00  0.7819E+16
   -0.412487    3.44610  0.6704E-10  0.5873E-07  0.3785E-11  0.8466E-08  0.0000E+00  0.2294E+16
   -0.481236    4.01207  0.6614E-10  0.5924E-07  0.3820E-11  0.3219E-03  0.0000E+00 -0.1066E+12
   -0.549986    4.01233  0.6614E-10  0.5947E-07  0.3839E-11  0.3142E-03  0.0000E+00 -0.1089E+12
   -0.618737    4.01260  0.6614E-10  0.5969E-07  0.3861E-11  0.3144E-03  0.0000E+00 -0.1088E+12
   -0.687488    4.01287  0.6614E-10  0.5988E-07  0.3884E-11  0.3146E-03  0.0000E+00 -0.1087E+12
   -0.756239    4.01313  0.6614E-10  0.6005E-07  0.3910E-11  0.3144E-03  0.0000E+00 -0.1088E+12
   -0.824990    4.01339  0.6614E-10  0.6020E-07  0.3938E-11  0.3139E-03  0.0000E+00 -0.1090E+12
   -0.893742    4.01365  0.6614E-10  0.6033E-07  0.3968E-11  0.3130E-03  0.0000E+00 -0.1095E+12
   -0.962494    4.01390  0.6614E-10  0.6043E-07  0.4001E-11  0.3118E-03  0.0000E+00 -0.1100E+12
   -1.031247    4.01416  0.6614E-10  0.6051E-07  0.4036E-11  0.3102E-03  0.0000E+00 -0.1108E+12
   -1.099999    4.01441  0.6614E-10  0.6058E-07  0.4075E-11  0.3082E-03  0.0000E+00 -0.1122E+12
   -1.168752    4.01467  0.6614E-10  0.6062E-07  0.4117E-11  0.3057E-03  0.0000E+00 -0.1138E+12
   -1.237504    4.01493  0.6614E-10  0.6064E-07  0.4163E-11  0.3029E-03  0.0000E+00 -0.1156E+12
   -1.306257    4.01518  0.6614E-10  0.6063E-07  0.4213E-11  0.2997E-03  0.0000E+00 -0.1177E+12
   -1.375010    4.01544  0.6614E-10  0.6061E-07  0.4268E-11  0.2961E-03  0.0000E+00 -0.1198E+12
   -1.443763    4.01571  0.6614E-10  0.6056E-07  0.4328E-11  0.2921E-03  0.0000E+00 -0.1219E+12
   -1.512515    4.01597  0.6614E-10  0.6048E-07  0.4393E-11  0.2877E-03  0.0000E+00 -0.1241E+12
   -1.581268    4.01624  0.6614E-10  0.6039E-07  0.4465E-11  0.2828E-03  0.0000E+00 -0.1267E+12
   -1.650021    4.01651  0.6614E-10  0.6026E-07  0.4543E-11  0.2775E-03  0.0000E+00 -0.1296E+12
   -1.718773    4.01678  0.6614E-10  0.6011E-07  0.4630E-11  0.2717E-03  0.0000E+00 -0.1329E+12
   -1.787525    4.01706  0.6614E-10  0.5994E-07  0.4726E-11  0.2655E-03  0.0000E+00 -0.1365E+12
   -1.856277    4.01735  0.6614E-10  0.5973E-07  0.4832E-11  0.2588E-03  0.0000E+00 -0.1407E+12
   -1.925029    4.01764  0.6614E-10  0.5950E-07  0.4950E-11  0.2516E-03  0.0000E+00 -0.1453E+12
   -1.993781    4.01793  0.6614E-10  0.5924E-07  0.5083E-11  0.2440E-03  0.0000E+00 -0.1506E+12
   -2.062532    4.01824  0.6614E-10  0.5895E-07  0.5233E-11  0.2356E-03  0.0000E+00 -0.1569E+12
   -2.131283    4.01855  0.6614E-10  0.5860E-07  0.5415E-11  0.2260E-03  0.0000E+00 -0.1649E+12
   -2.200033    4.01887  0.6614E-10  0.5818E-07  0.5638E-11  0.2152E-03  0.0000E+00 -0.1749E+12
   -2.268783    4.01922  0.6614E-10  0.5769E-07  0.5918E-11  0.2031E-03  0.0000E+00 -0.1874E+12
   -2.337533    4.01958  0.6614E-10  0.5702E-07  0.6312E-11  0.1851E-03  0.0000E+00 -0.2083E+12
   -2.406282    4.01998  0.6614E-10  0.5600E-07  0.6966E-11  0.1309E-03  0.0000E+00 -0.3006E+12
   -2.475031    4.02055  0.6614E-10  0.5436E-07  0.8117E-11  0.8877E-04  0.0000E+00 -0.4571E+12
   -2.543779    4.02140  0.6614E-10  0.5160E-07  0.1032E-10  0.5629E-04  0.0000E+00 -0.7546E+12
   -2.612526    4.02275  0.6614E-10  0.4653E-07  0.1529E-10  0.2700E-04  0.0000E+00 -0.1689E+13
   -2.681273    4.02561  0.6614E-10  0.2289E-07  0.5030E-10  0.1597E-05  0.0000E+00 -0.4468E+14
   -2.750020    4.07150  0.6614E-10  0.0000E+00  0.0000E+00  0.0000E+00  0.0000E+00  0.0000E+00
