 1 - depth, m
 2 - temperature, C
 3 - salinity, kg/kg
 4 - turbulent kinetic energy, m**2/s**2
 5 - dissipation rate, m**2/s**3
 6 - kinematic heat conductance, m**2/s
 7 - modulus of horizontal velocity, m/s
 8 - Richardson number, n/d
   -0.000000    4.63478  0.7763E-10  0.6478E-04  0.1418E-04  0.6959E-04  0.7121E-01 -0.2535E-02
   -0.068746    4.67607  0.7763E-10  0.3421E-04  0.2864E-05  0.7112E-04  0.3068E-01 -0.2882E-02
   -0.137492    4.68974  0.7764E-10  0.2431E-04  0.9925E-06  0.8479E-04  0.2293E-01 -0.3774E-02
   -0.206239    4.70014  0.7764E-10  0.1840E-04  0.4265E-06  0.9933E-04  0.1805E-01 -0.6356E-02
   -0.274987    4.70897  0.7764E-10  0.1465E-04  0.2170E-06  0.1141E-03  0.1458E-01 -0.1046E-01
   -0.343735    4.71657  0.7764E-10  0.1226E-04  0.1275E-06  0.1281E-03  0.1207E-01 -0.1500E-01
   -0.412484    4.72321  0.7764E-10  0.1051E-04  0.8209E-07  0.1434E-03  0.1013E-01 -0.2199E-01
   -0.481233    4.72902  0.7764E-10  0.9195E-05  0.5644E-07  0.1608E-03  0.8626E-02 -0.3280E-01
   -0.549983    4.73411  0.7764E-10  0.8231E-05  0.4116E-07  0.1781E-03  0.7476E-02 -0.4455E-01
   -0.618733    4.73862  0.7764E-10  0.7512E-05  0.3153E-07  0.1941E-03  0.6546E-02 -0.5444E-01
   -0.687483    4.74269  0.7764E-10  0.6934E-05  0.2498E-07  0.2109E-03  0.5747E-02 -0.6601E-01
   -0.756234    4.74637  0.7764E-10  0.6447E-05  0.2030E-07  0.2277E-03  0.5056E-02 -0.7907E-01
   -0.824985    4.74974  0.7764E-10  0.6024E-05  0.1683E-07  0.2441E-03  0.4452E-02 -0.9334E-01
   -0.893736    4.75283  0.7764E-10  0.5646E-05  0.1415E-07  0.2599E-03  0.3918E-02 -0.1084E+00
   -0.962488    4.75571  0.7764E-10  0.5298E-05  0.1203E-07  0.2747E-03  0.3440E-02 -0.1238E+00
   -1.031240    4.75839  0.7764E-10  0.4969E-05  0.1029E-07  0.2899E-03  0.3007E-02 -0.1435E+00
   -1.099992    4.76091  0.7764E-10  0.4657E-05  0.8837E-08  0.3092E-03  0.2617E-02 -0.1811E+00
   -1.168744    4.76324  0.7764E-10  0.4367E-05  0.7633E-08  0.3297E-03  0.2283E-02 -0.2173E+00
   -1.237496    4.76542  0.7764E-10  0.4102E-05  0.6633E-08  0.3617E-03  0.1993E-02 -0.1540E+00
   -1.306248    4.76740  0.7764E-10  0.3863E-05  0.5805E-08  0.4417E-03  0.1742E-02  0.2303E+03
   -1.375001    4.76911  0.7764E-10  0.3652E-05  0.5129E-08  0.5394E-03  0.1525E-02  0.5096E+03
   -1.443753    4.77057  0.7764E-10  0.3465E-05  0.4574E-08  0.6145E-03  0.1342E-02  0.1275E+03
   -1.512505    4.77183  0.7764E-10  0.3301E-05  0.4120E-08  0.7385E-03  0.1181E-02  0.6234E+03
   -1.581258    4.77284  0.7764E-10  0.3162E-05  0.3759E-08  0.8539E-03  0.1044E-02  0.9569E+02
   -1.650010    4.77365  0.7764E-10  0.3040E-05  0.3467E-08  0.8911E-03  0.9275E-03  0.9310E+02
   -1.718762    4.77442  0.7764E-10  0.2929E-05  0.3219E-08  0.8913E-03  0.8228E-03  0.1534E+01
   -1.787513    4.77518  0.7764E-10  0.2826E-05  0.3010E-08  0.8847E-03  0.7260E-03  0.1471E+01
   -1.856265    4.77595  0.7764E-10  0.2732E-05  0.2835E-08  0.8751E-03  0.6361E-03  0.1419E+01
   -1.925016    4.77671  0.7764E-10  0.2644E-05  0.2691E-08  0.8621E-03  0.5524E-03  0.1372E+01
   -1.993768    4.77749  0.7764E-10  0.2564E-05  0.2577E-08  0.8449E-03  0.4738E-03  0.1332E+01
   -2.062518    4.77827  0.7764E-10  0.2491E-05  0.2492E-08  0.8230E-03  0.3998E-03  0.1089E+01
   -2.131269    4.77907  0.7764E-10  0.2424E-05  0.2433E-08  0.7973E-03  0.3366E-03  0.8635E+00
   -2.200019    4.77990  0.7764E-10  0.2364E-05  0.2399E-08  0.7708E-03  0.2858E-03  0.7943E+00
   -2.268768    4.78075  0.7764E-10  0.2306E-05  0.2390E-08  0.7407E-03  0.2450E-03  0.1018E+01
   -2.337518    4.78163  0.7764E-10  0.2246E-05  0.2409E-08  0.7013E-03  0.2093E-03  0.1558E+01
   -2.406266    4.78257  0.7764E-10  0.2181E-05  0.2467E-08  0.6502E-03  0.1777E-03  0.2703E+01
   -2.475015    4.78357  0.7764E-10  0.2107E-05  0.2586E-08  0.5915E-03  0.1501E-03  0.5805E+01
   -2.543762    4.78468  0.7764E-10  0.2006E-05  0.2846E-08  0.4911E-03  0.1276E-03  0.5260E+02
   -2.612509    4.78601  0.7764E-10  0.1822E-05  0.3566E-08  0.1769E-03  0.1058E-03 -0.6216E+02
   -2.681256    4.78972  0.7764E-10  0.8189E-06  0.1047E-07  0.8871E-05  0.8060E-04 -0.1026E+06
   -2.750001    4.86270  0.7764E-10  0.0000E+00  0.0000E+00  0.0000E+00  0.8041E-04  0.0000E+00
