 1 - depth, m
 2 - temperature, C
 3 - salinity, kg/kg
 4 - turbulent kinetic energy, m**2/s**2
 5 - dissipation rate, m**2/s**3
 6 - kinematic heat conductance, m**2/s
 7 - modulus of horizontal velocity, m/s
 8 - Richardson number, n/d
   -0.000000   -0.00000  0.2243E-09  0.1219E-13  0.7603E-17  0.1000E-09  0.0000E+00  0.1042E+17
   -0.068746    0.15972  0.2413E-09  0.1219E-13  0.7603E-17  0.1000E-09  0.0000E+00  0.1005E+17
   -0.137492    0.32082  0.1566E-09  0.1219E-13  0.7603E-17  0.1000E-09  0.0000E+00  0.9592E+16
   -0.206239    0.48191  0.1064E-09  0.1219E-13  0.7603E-17  0.1000E-09  0.0000E+00  0.9117E+16
   -0.274987    0.64267  0.8763E-10  0.1219E-13  0.7603E-17  0.1000E-09  0.0000E+00  0.8627E+16
   -0.343735    0.80270  0.8203E-10  0.1219E-13  0.7603E-17  0.1000E-09  0.0000E+00  0.8139E+16
   -0.412484    0.96187  0.8055E-10  0.1219E-13  0.7603E-17  0.1000E-09  0.0000E+00  0.7638E+16
   -0.481233    1.11968  0.8019E-10  0.1219E-13  0.7603E-17  0.1000E-09  0.0000E+00  0.7128E+16
   -0.549983    1.27566  0.8010E-10  0.1219E-13  0.7603E-17  0.1000E-09  0.0000E+00  0.6629E+16
   -0.618733    1.42965  0.8007E-10  0.1219E-13  0.7603E-17  0.1000E-09  0.0000E+00  0.6145E+16
   -0.687484    1.58159  0.8004E-10  0.1219E-13  0.7603E-17  0.1000E-09  0.0000E+00  0.5670E+16
   -0.756235    1.73124  0.7999E-10  0.1219E-13  0.7603E-17  0.1000E-09  0.0000E+00  0.5226E+16
   -0.824986    1.87891  0.7990E-10  0.1219E-13  0.7603E-17  0.1000E-09  0.0000E+00  0.4792E+16
   -0.893737    2.02442  0.7975E-10  0.1219E-13  0.7603E-17  0.1000E-09  0.0000E+00  0.4369E+16
   -0.962489    2.16757  0.7956E-10  0.1219E-13  0.7603E-17  0.1000E-09  0.0000E+00  0.3961E+16
   -1.031241    2.30820  0.7930E-10  0.2887E-13  0.7603E-17  0.1000E-09  0.0000E+00  0.3568E+16
   -1.099993    2.44613  0.7899E-10  0.9437E-13  0.1217E-16  0.1000E-09  0.0000E+00  0.3188E+16
   -1.168745    2.58110  0.7864E-10  0.2388E-12  0.2619E-16  0.1000E-09  0.0000E+00  0.2825E+16
   -1.237497    2.71293  0.7826E-10  0.5533E-12  0.5758E-16  0.1000E-09  0.0000E+00  0.2481E+16
   -1.306250    2.84142  0.7785E-10  0.1242E-11  0.1252E-15  0.1000E-09  0.0000E+00  0.2156E+16
   -1.375002    2.96639  0.7743E-10  0.2743E-11  0.2695E-15  0.1000E-09  0.0000E+00  0.1854E+16
   -1.443754    3.08793  0.7701E-10  0.5995E-11  0.5742E-15  0.1000E-09  0.0000E+00  0.1578E+16
   -1.512507    3.20636  0.7666E-10  0.1298E-10  0.1213E-14  0.1000E-09  0.0000E+00  0.1317E+16
   -1.581259    3.32142  0.7641E-10  0.2786E-10  0.2539E-14  0.1000E-09  0.0000E+00  0.1073E+16
   -1.650011    3.43282  0.7628E-10  0.5927E-10  0.5272E-14  0.1000E-09  0.0000E+00  0.8480E+15
   -1.718763    3.54029  0.7622E-10  0.1250E-09  0.1086E-13  0.1000E-09  0.0000E+00  0.6421E+15
   -1.787515    3.64358  0.7620E-10  0.2615E-09  0.2217E-13  0.2471E-09  0.0000E+00  0.4566E+15
   -1.856267    3.74251  0.7619E-10  0.5425E-09  0.4492E-13  0.7837E-09  0.0000E+00  0.2917E+15
   -1.925018    3.83695  0.7619E-10  0.1115E-08  0.9019E-13  0.3130E-08  0.0000E+00  0.1467E+15
   -1.993769    3.92614  0.7619E-10  0.2236E-08  0.1772E-12  0.3286E-07  0.0000E+00  0.2743E+14
   -2.062520    3.99747  0.7619E-10  0.2844E-08  0.2270E-12  0.1280E-04  0.0000E+00 -0.1781E+12
   -2.131271    3.99845  0.7619E-10  0.3136E-08  0.2583E-12  0.1359E-04  0.0000E+00 -0.1889E+12
   -2.200021    3.99940  0.7619E-10  0.3393E-08  0.2949E-12  0.1382E-04  0.0000E+00 -0.2097E+12
   -2.268771    4.00039  0.7619E-10  0.3618E-08  0.3403E-12  0.1350E-04  0.0000E+00 -0.2444E+12
   -2.337520    4.00146  0.7619E-10  0.3812E-08  0.3998E-12  0.1264E-04  0.0000E+00 -0.3024E+12
   -2.406269    4.00268  0.7619E-10  0.3968E-08  0.4839E-12  0.1120E-04  0.0000E+00 -0.4067E+12
   -2.475017    4.00420  0.7619E-10  0.4064E-08  0.6156E-12  0.9120E-05  0.0000E+00 -0.6235E+12
   -2.543765    4.00630  0.7619E-10  0.4033E-08  0.8603E-12  0.6182E-05  0.0000E+00 -0.1211E+13
   -2.612512    4.00985  0.7619E-10  0.3678E-08  0.1429E-11  0.2832E-05  0.0000E+00 -0.3799E+13
   -2.681258    4.01855  0.7619E-10  0.2407E-08  0.3857E-11  0.3861E-06  0.0000E+00 -0.5766E+14
   -2.750004    4.07800  0.7619E-10  0.0000E+00  0.0000E+00  0.0000E+00  0.0000E+00  0.0000E+00
