 1 - depth, m
 2 - temperature, C
 3 - salinity, kg/kg
 4 - turbulent kinetic energy, m**2/s**2
 5 - dissipation rate, m**2/s**3
 6 - kinematic heat conductance, m**2/s
 7 - modulus of horizontal velocity, m/s
 8 - Richardson number, n/d
   -0.000000   -0.00000  0.3083E-09  0.1219E-13  0.7603E-17  0.1000E-09  0.0000E+00  0.1250E+17
   -0.068746    0.19241  0.1221E-09  0.1219E-13  0.7603E-17  0.1000E-09  0.0000E+00  0.1110E+17
   -0.137492    0.37250  0.8461E-10  0.1219E-13  0.7603E-17  0.1000E-09  0.0000E+00  0.9504E+16
   -0.206239    0.53462  0.8051E-10  0.1219E-13  0.7603E-17  0.1000E-09  0.0000E+00  0.7977E+16
   -0.274986    0.67720  0.8015E-10  0.1219E-13  0.7603E-17  0.1000E-09  0.0000E+00  0.6572E+16
   -0.343735    0.79973  0.8010E-10  0.1219E-13  0.7603E-17  0.1000E-09  0.0000E+00  0.5475E+16
   -0.412483    0.90573  0.8009E-10  0.1219E-13  0.7603E-17  0.1000E-09  0.0000E+00  0.4486E+16
   -0.481232    0.99553  0.8009E-10  0.1219E-13  0.7603E-17  0.1000E-09  0.0000E+00  0.3615E+16
   -0.549982    1.07002  0.8009E-10  0.1219E-13  0.7603E-17  0.1000E-09  0.0000E+00  0.3014E+16
   -0.618732    1.13368  0.8009E-10  0.1219E-13  0.7603E-17  0.1000E-09  0.0000E+00  0.2686E+16
   -0.687482    1.19168  0.8009E-10  0.1219E-13  0.7603E-17  0.1000E-09  0.0000E+00  0.2498E+16
   -0.756233    1.24680  0.8009E-10  0.1219E-13  0.7603E-17  0.1000E-09  0.0000E+00  0.2559E+16
   -0.824984    1.30448  0.8009E-10  0.1219E-13  0.7603E-17  0.1000E-09  0.0000E+00  0.2738E+16
   -0.893735    1.36769  0.8009E-10  0.3422E-13  0.7890E-17  0.1000E-09  0.0000E+00  0.3024E+16
   -0.962486    1.43940  0.8007E-10  0.1065E-12  0.1901E-16  0.1000E-09  0.0000E+00  0.3395E+16
   -1.031238    1.52250  0.8000E-10  0.2997E-12  0.5028E-16  0.1000E-09  0.0000E+00  0.3793E+16
   -1.099990    1.61891  0.7980E-10  0.8163E-12  0.1322E-15  0.1000E-09  0.0000E+00  0.4119E+16
   -1.168742    1.72847  0.7948E-10  0.2185E-11  0.3429E-15  0.1000E-09  0.0000E+00  0.4441E+16
   -1.237494    1.85312  0.7904E-10  0.5765E-11  0.8779E-15  0.1000E-09  0.0000E+00  0.4716E+16
   -1.306246    1.99433  0.7859E-10  0.1501E-10  0.2219E-14  0.1000E-09  0.0000E+00  0.4901E+16
   -1.374998    2.15295  0.7826E-10  0.3860E-10  0.5541E-14  0.1000E-09  0.0000E+00  0.5008E+16
   -1.443750    2.33118  0.7803E-10  0.9804E-10  0.1367E-13  0.1000E-09  0.0000E+00  0.5009E+16
   -1.512503    2.53180  0.7772E-10  0.2460E-09  0.3332E-13  0.1000E-09  0.0000E+00  0.4775E+16
   -1.581255    2.75385  0.7725E-10  0.6100E-09  0.8032E-13  0.1000E-09  0.0000E+00  0.4288E+16
   -1.650007    2.99576  0.7668E-10  0.1495E-08  0.1914E-12  0.2749E-09  0.0000E+00  0.3547E+16
   -1.718759    3.25513  0.7625E-10  0.3622E-08  0.4511E-12  0.8935E-09  0.0000E+00  0.2572E+16
   -1.787510    3.52861  0.7606E-10  0.8659E-08  0.1050E-11  0.3815E-08  0.0000E+00  0.1402E+16
   -1.856262    3.80893  0.7601E-10  0.1991E-07  0.2358E-11  0.5155E-07  0.0000E+00  0.2341E+15
   -1.925013    4.02728  0.7601E-10  0.2151E-07  0.2557E-11  0.6976E-04  0.0000E+00 -0.3918E+12
   -1.993764    4.02788  0.7601E-10  0.2217E-07  0.2663E-11  0.7298E-04  0.0000E+00 -0.3854E+12
   -2.062515    4.02847  0.7601E-10  0.2269E-07  0.2777E-11  0.7280E-04  0.0000E+00 -0.3982E+12
   -2.131265    4.02907  0.7601E-10  0.2311E-07  0.2910E-11  0.7121E-04  0.0000E+00 -0.4215E+12
   -2.200015    4.02970  0.7601E-10  0.2343E-07  0.3074E-11  0.6787E-04  0.0000E+00 -0.4600E+12
   -2.268764    4.03037  0.7601E-10  0.2365E-07  0.3285E-11  0.6237E-04  0.0000E+00 -0.5237E+12
   -2.337513    4.03112  0.7601E-10  0.2374E-07  0.3565E-11  0.5589E-04  0.0000E+00 -0.6178E+12
   -2.406262    4.03199  0.7601E-10  0.2363E-07  0.3959E-11  0.4843E-04  0.0000E+00 -0.7649E+12
   -2.475010    4.03305  0.7601E-10  0.2323E-07  0.4565E-11  0.3930E-04  0.0000E+00 -0.1036E+13
   -2.543758    4.03444  0.7601E-10  0.2227E-07  0.5657E-11  0.2742E-04  0.0000E+00 -0.1672E+13
   -2.612504    4.03661  0.7601E-10  0.2006E-07  0.8070E-11  0.1379E-04  0.0000E+00 -0.3856E+13
   -2.681251    4.04129  0.7601E-10  0.1095E-07  0.2186E-10  0.1165E-05  0.0000E+00 -0.7345E+14
   -2.749996    4.09772  0.7601E-10  0.0000E+00  0.0000E+00  0.0000E+00  0.0000E+00  0.0000E+00
