 1 - depth, m
 2 - temperature, C
 3 - salinity, kg/kg
 4 - turbulent kinetic energy, m**2/s**2
 5 - dissipation rate, m**2/s**3
 6 - kinematic heat conductance, m**2/s
 7 - modulus of horizontal velocity, m/s
 8 - Richardson number, n/d
   -0.000000   -0.00001  0.1313E-06  0.2686E-08  0.4070E-11  0.3118E-09  0.0000E+00  0.6635E+17
   -0.068745    1.18146  0.0000E+00  0.2812E-07  0.4459E-11  0.5616E-09  0.0000E+00  0.4044E+17
   -0.137491    2.28599  0.7693E-10  0.8238E-07  0.9006E-11  0.2381E-08  0.0000E+00  0.1930E+17
   -0.206238    3.29615  0.6644E-10  0.1913E-06  0.1914E-10  0.2689E-07  0.0000E+00  0.3676E+16
   -0.274985    4.09144  0.6624E-10  0.1925E-06  0.1926E-10  0.6262E-03  0.0000E+00 -0.3380E+12
   -0.343733    4.09165  0.6624E-10  0.1930E-06  0.1933E-10  0.6167E-03  0.0000E+00 -0.3357E+12
   -0.412481    4.09185  0.6624E-10  0.1934E-06  0.1940E-10  0.6174E-03  0.0000E+00 -0.3296E+12
   -0.481230    4.09205  0.6624E-10  0.1937E-06  0.1947E-10  0.6176E-03  0.0000E+00 -0.3247E+12
   -0.549979    4.09225  0.6624E-10  0.1940E-06  0.1955E-10  0.6171E-03  0.0000E+00 -0.3198E+12
   -0.618729    4.09244  0.6624E-10  0.1941E-06  0.1963E-10  0.6160E-03  0.0000E+00 -0.3153E+12
   -0.687479    4.09263  0.6624E-10  0.1942E-06  0.1972E-10  0.6142E-03  0.0000E+00 -0.3112E+12
   -0.756229    4.09282  0.6624E-10  0.1942E-06  0.1982E-10  0.6118E-03  0.0000E+00 -0.3076E+12
   -0.824980    4.09300  0.6624E-10  0.1941E-06  0.1993E-10  0.6087E-03  0.0000E+00 -0.3044E+12
   -0.893731    4.09318  0.6624E-10  0.1939E-06  0.2004E-10  0.6050E-03  0.0000E+00 -0.3019E+12
   -0.962482    4.09337  0.6624E-10  0.1937E-06  0.2017E-10  0.6006E-03  0.0000E+00 -0.2997E+12
   -1.031233    4.09354  0.6624E-10  0.1934E-06  0.2030E-10  0.5955E-03  0.0000E+00 -0.2984E+12
   -1.099985    4.09372  0.6624E-10  0.1930E-06  0.2045E-10  0.5898E-03  0.0000E+00 -0.2980E+12
   -1.168737    4.09390  0.6624E-10  0.1926E-06  0.2062E-10  0.5833E-03  0.0000E+00 -0.2983E+12
   -1.237488    4.09408  0.6624E-10  0.1921E-06  0.2080E-10  0.5761E-03  0.0000E+00 -0.2989E+12
   -1.306240    4.09426  0.6624E-10  0.1915E-06  0.2101E-10  0.5682E-03  0.0000E+00 -0.3002E+12
   -1.374992    4.09443  0.6624E-10  0.1909E-06  0.2123E-10  0.5596E-03  0.0000E+00 -0.3018E+12
   -1.443744    4.09461  0.6624E-10  0.1902E-06  0.2149E-10  0.5503E-03  0.0000E+00 -0.3038E+12
   -1.512496    4.09479  0.6624E-10  0.1895E-06  0.2177E-10  0.5402E-03  0.0000E+00 -0.3062E+12
   -1.581248    4.09497  0.6624E-10  0.1886E-06  0.2208E-10  0.5294E-03  0.0000E+00 -0.3093E+12
   -1.649999    4.09516  0.6624E-10  0.1878E-06  0.2242E-10  0.5179E-03  0.0000E+00 -0.3130E+12
   -1.718751    4.09534  0.6624E-10  0.1868E-06  0.2281E-10  0.5056E-03  0.0000E+00 -0.3173E+12
   -1.787502    4.09553  0.6624E-10  0.1858E-06  0.2325E-10  0.4926E-03  0.0000E+00 -0.3223E+12
   -1.856254    4.09572  0.6624E-10  0.1848E-06  0.2374E-10  0.4788E-03  0.0000E+00 -0.3282E+12
   -1.925004    4.09591  0.6624E-10  0.1836E-06  0.2429E-10  0.4643E-03  0.0000E+00 -0.3349E+12
   -1.993755    4.09610  0.6624E-10  0.1825E-06  0.2492E-10  0.4491E-03  0.0000E+00 -0.3426E+12
   -2.062505    4.09630  0.6624E-10  0.1812E-06  0.2563E-10  0.4328E-03  0.0000E+00 -0.3531E+12
   -2.131256    4.09651  0.6624E-10  0.1799E-06  0.2651E-10  0.4143E-03  0.0000E+00 -0.3673E+12
   -2.200005    4.09672  0.6624E-10  0.1783E-06  0.2760E-10  0.3937E-03  0.0000E+00 -0.3851E+12
   -2.268754    4.09695  0.6624E-10  0.1766E-06  0.2898E-10  0.3703E-03  0.0000E+00 -0.4085E+12
   -2.337503    4.09718  0.6624E-10  0.1745E-06  0.3077E-10  0.3436E-03  0.0000E+00 -0.4399E+12
   -2.406251    4.09744  0.6624E-10  0.1720E-06  0.3319E-10  0.3168E-03  0.0000E+00 -0.4779E+12
   -2.474999    4.09771  0.6624E-10  0.1682E-06  0.3742E-10  0.2083E-03  0.0000E+00 -0.7307E+12
   -2.543746    4.09813  0.6624E-10  0.1607E-06  0.4709E-10  0.1104E-03  0.0000E+00 -0.1393E+13
   -2.612493    4.09893  0.6624E-10  0.1465E-06  0.6934E-10  0.5355E-04  0.0000E+00 -0.2915E+13
   -2.681239    4.10058  0.6624E-10  0.6843E-07  0.2487E-09  0.2555E-05  0.0000E+00 -0.6781E+14
   -2.749984    4.13380  0.6624E-10  0.0000E+00  0.0000E+00  0.0000E+00  0.0000E+00  0.0000E+00
