 1 - depth, m
 2 - temperature, C
 3 - salinity, kg/kg
 4 - turbulent kinetic energy, m**2/s**2
 5 - dissipation rate, m**2/s**3
 6 - kinematic heat conductance, m**2/s
 7 - modulus of horizontal velocity, m/s
 8 - Richardson number, n/d
   -0.000000   -0.00001  0.9198E-07  0.1270E-08  0.1600E-11  0.1430E-09  0.0000E+00  0.5690E+17
   -0.068745    0.98262  0.0000E+00  0.1136E-07  0.1810E-11  0.2422E-09  0.0000E+00  0.3804E+17
   -0.137491    1.89760  0.8622E-10  0.3316E-07  0.3732E-11  0.8296E-09  0.0000E+00  0.2291E+17
   -0.206238    2.75496  0.5954E-10  0.7890E-07  0.8164E-11  0.3948E-08  0.0000E+00  0.1054E+17
   -0.274985    3.55050  0.6641E-10  0.1713E-06  0.1716E-10  0.6245E-07  0.0000E+00  0.1407E+16
   -0.343732    4.09297  0.6634E-10  0.1725E-06  0.1728E-10  0.5662E-03  0.0000E+00 -0.3135E+12
   -0.412481    4.09316  0.6634E-10  0.1730E-06  0.1735E-10  0.5567E-03  0.0000E+00 -0.3127E+12
   -0.481229    4.09335  0.6634E-10  0.1735E-06  0.1743E-10  0.5573E-03  0.0000E+00 -0.3081E+12
   -0.549978    4.09353  0.6634E-10  0.1739E-06  0.1751E-10  0.5575E-03  0.0000E+00 -0.3042E+12
   -0.618728    4.09371  0.6634E-10  0.1742E-06  0.1760E-10  0.5571E-03  0.0000E+00 -0.3011E+12
   -0.687478    4.09389  0.6634E-10  0.1744E-06  0.1770E-10  0.5560E-03  0.0000E+00 -0.2989E+12
   -0.756228    4.09407  0.6634E-10  0.1746E-06  0.1780E-10  0.5543E-03  0.0000E+00 -0.2972E+12
   -0.824979    4.09425  0.6634E-10  0.1747E-06  0.1792E-10  0.5520E-03  0.0000E+00 -0.2962E+12
   -0.893729    4.09442  0.6634E-10  0.1748E-06  0.1805E-10  0.5490E-03  0.0000E+00 -0.2960E+12
   -0.962481    4.09460  0.6634E-10  0.1748E-06  0.1818E-10  0.5454E-03  0.0000E+00 -0.2964E+12
   -1.031232    4.09477  0.6634E-10  0.1747E-06  0.1833E-10  0.5412E-03  0.0000E+00 -0.2975E+12
   -1.099983    4.09495  0.6634E-10  0.1746E-06  0.1850E-10  0.5362E-03  0.0000E+00 -0.2994E+12
   -1.168735    4.09512  0.6634E-10  0.1744E-06  0.1868E-10  0.5307E-03  0.0000E+00 -0.3020E+12
   -1.237487    4.09530  0.6634E-10  0.1742E-06  0.1888E-10  0.5244E-03  0.0000E+00 -0.3052E+12
   -1.306238    4.09548  0.6634E-10  0.1739E-06  0.1910E-10  0.5175E-03  0.0000E+00 -0.3092E+12
   -1.374990    4.09566  0.6634E-10  0.1736E-06  0.1934E-10  0.5098E-03  0.0000E+00 -0.3137E+12
   -1.443742    4.09584  0.6634E-10  0.1731E-06  0.1961E-10  0.5015E-03  0.0000E+00 -0.3188E+12
   -1.512494    4.09603  0.6634E-10  0.1727E-06  0.1990E-10  0.4925E-03  0.0000E+00 -0.3247E+12
   -1.581245    4.09622  0.6634E-10  0.1722E-06  0.2023E-10  0.4827E-03  0.0000E+00 -0.3315E+12
   -1.649997    4.09641  0.6634E-10  0.1716E-06  0.2059E-10  0.4723E-03  0.0000E+00 -0.3392E+12
   -1.718748    4.09661  0.6634E-10  0.1709E-06  0.2099E-10  0.4611E-03  0.0000E+00 -0.3480E+12
   -1.787500    4.09681  0.6634E-10  0.1702E-06  0.2143E-10  0.4491E-03  0.0000E+00 -0.3578E+12
   -1.856251    4.09702  0.6634E-10  0.1694E-06  0.2193E-10  0.4365E-03  0.0000E+00 -0.3690E+12
   -1.925002    4.09723  0.6634E-10  0.1686E-06  0.2248E-10  0.4230E-03  0.0000E+00 -0.3817E+12
   -1.993752    4.09745  0.6634E-10  0.1677E-06  0.2311E-10  0.4090E-03  0.0000E+00 -0.3959E+12
   -2.062502    4.09768  0.6634E-10  0.1667E-06  0.2382E-10  0.3939E-03  0.0000E+00 -0.4125E+12
   -2.131252    4.09791  0.6634E-10  0.1655E-06  0.2469E-10  0.3768E-03  0.0000E+00 -0.4329E+12
   -2.200002    4.09816  0.6634E-10  0.1642E-06  0.2576E-10  0.3577E-03  0.0000E+00 -0.4583E+12
   -2.268751    4.09842  0.6634E-10  0.1626E-06  0.2712E-10  0.3361E-03  0.0000E+00 -0.4907E+12
   -2.337500    4.09870  0.6634E-10  0.1608E-06  0.2887E-10  0.3113E-03  0.0000E+00 -0.5338E+12
   -2.406248    4.09901  0.6634E-10  0.1585E-06  0.3124E-10  0.2849E-03  0.0000E+00 -0.5892E+12
   -2.474995    4.09934  0.6634E-10  0.1551E-06  0.3520E-10  0.2259E-03  0.0000E+00 -0.7529E+12
   -2.543743    4.09976  0.6634E-10  0.1485E-06  0.4389E-10  0.1119E-03  0.0000E+00 -0.1550E+13
   -2.612489    4.10064  0.6634E-10  0.1356E-06  0.6431E-10  0.5297E-04  0.0000E+00 -0.3361E+13
   -2.681235    4.10250  0.6634E-10  0.6404E-07  0.2276E-09  0.2528E-05  0.0000E+00 -0.8025E+14
   -2.749980    4.14047  0.6634E-10  0.0000E+00  0.0000E+00  0.0000E+00  0.0000E+00  0.0000E+00
