 1 - depth, m
 2 - temperature, C
 3 - salinity, kg/kg
 4 - turbulent kinetic energy, m**2/s**2
 5 - dissipation rate, m**2/s**3
 6 - kinematic heat conductance, m**2/s
 7 - modulus of horizontal velocity, m/s
 8 - Richardson number, n/d
   -0.000000   -0.00000  0.7136E-08  0.5497E-08  0.1034E-10  0.7653E-09  0.0000E+00  0.6804E+17
   -0.068746    1.21606  0.2080E-07  0.6784E-07  0.1283E-10  0.1497E-08  0.0000E+00  0.4303E+17
   -0.137493    2.45040  0.1269E-07  0.2176E-06  0.3017E-10  0.9202E-08  0.0000E+00  0.1782E+17
   -0.206240    3.73444  0.1048E-08  0.3422E-06  0.4579E-10  0.2921E-03  0.0000E+00  0.8828E+15
   -0.274988    4.13867  0.5220E-09  0.3439E-06  0.4604E-10  0.8222E-03  0.0000E+00 -0.6279E+12
   -0.343737    4.13894  0.5218E-09  0.3447E-06  0.4619E-10  0.8157E-03  0.0000E+00 -0.6028E+12
   -0.412486    4.13919  0.5215E-09  0.3454E-06  0.4636E-10  0.8164E-03  0.0000E+00 -0.5904E+12
   -0.481235    4.13945  0.5213E-09  0.3459E-06  0.4653E-10  0.8162E-03  0.0000E+00 -0.5806E+12
   -0.549985    4.13969  0.5211E-09  0.3462E-06  0.4672E-10  0.8151E-03  0.0000E+00 -0.5714E+12
   -0.618735    4.13994  0.5209E-09  0.3464E-06  0.4693E-10  0.8132E-03  0.0000E+00 -0.5633E+12
   -0.687486    4.14018  0.5207E-09  0.3465E-06  0.4715E-10  0.8102E-03  0.0000E+00 -0.5565E+12
   -0.756237    4.14041  0.5205E-09  0.3464E-06  0.4739E-10  0.8065E-03  0.0000E+00 -0.5505E+12
   -0.824988    4.14064  0.5203E-09  0.3461E-06  0.4765E-10  0.8018E-03  0.0000E+00 -0.5456E+12
   -0.893740    4.14087  0.5202E-09  0.3458E-06  0.4793E-10  0.7962E-03  0.0000E+00 -0.5419E+12
   -0.962492    4.14110  0.5200E-09  0.3453E-06  0.4824E-10  0.7898E-03  0.0000E+00 -0.5391E+12
   -1.031244    4.14132  0.5198E-09  0.3448E-06  0.4858E-10  0.7825E-03  0.0000E+00 -0.5378E+12
   -1.099996    4.14155  0.5197E-09  0.3441E-06  0.4896E-10  0.7742E-03  0.0000E+00 -0.5381E+12
   -1.168749    4.14177  0.5195E-09  0.3432E-06  0.4938E-10  0.7650E-03  0.0000E+00 -0.5395E+12
   -1.237501    4.14200  0.5194E-09  0.3423E-06  0.4984E-10  0.7548E-03  0.0000E+00 -0.5419E+12
   -1.306254    4.14222  0.5192E-09  0.3413E-06  0.5036E-10  0.7436E-03  0.0000E+00 -0.5454E+12
   -1.375006    4.14245  0.5191E-09  0.3401E-06  0.5093E-10  0.7315E-03  0.0000E+00 -0.5499E+12
   -1.443759    4.14267  0.5190E-09  0.3389E-06  0.5156E-10  0.7184E-03  0.0000E+00 -0.5553E+12
   -1.512511    4.14290  0.5189E-09  0.3375E-06  0.5227E-10  0.7043E-03  0.0000E+00 -0.5620E+12
   -1.581264    4.14313  0.5187E-09  0.3360E-06  0.5306E-10  0.6892E-03  0.0000E+00 -0.5699E+12
   -1.650016    4.14337  0.5186E-09  0.3344E-06  0.5393E-10  0.6732E-03  0.0000E+00 -0.5791E+12
   -1.718769    4.14360  0.5185E-09  0.3327E-06  0.5492E-10  0.6561E-03  0.0000E+00 -0.5899E+12
   -1.787521    4.14384  0.5184E-09  0.3308E-06  0.5602E-10  0.6380E-03  0.0000E+00 -0.6022E+12
   -1.856273    4.14409  0.5183E-09  0.3289E-06  0.5726E-10  0.6189E-03  0.0000E+00 -0.6164E+12
   -1.925024    4.14434  0.5182E-09  0.3269E-06  0.5866E-10  0.5989E-03  0.0000E+00 -0.6325E+12
   -1.993776    4.14460  0.5181E-09  0.3247E-06  0.6024E-10  0.5780E-03  0.0000E+00 -0.6508E+12
   -2.062527    4.14486  0.5181E-09  0.3224E-06  0.6207E-10  0.5556E-03  0.0000E+00 -0.6740E+12
   -2.131277    4.14513  0.5180E-09  0.3199E-06  0.6431E-10  0.5306E-03  0.0000E+00 -0.7039E+12
   -2.200028    4.14541  0.5179E-09  0.3170E-06  0.6709E-10  0.5028E-03  0.0000E+00 -0.7412E+12
   -2.268778    4.14571  0.5179E-09  0.3138E-06  0.7061E-10  0.4715E-03  0.0000E+00 -0.7894E+12
   -2.337527    4.14603  0.5178E-09  0.3099E-06  0.7521E-10  0.4360E-03  0.0000E+00 -0.8533E+12
   -2.406276    4.14637  0.5177E-09  0.3053E-06  0.8147E-10  0.3965E-03  0.0000E+00 -0.9409E+12
   -2.475025    4.14674  0.5177E-09  0.2991E-06  0.9100E-10  0.3373E-03  0.0000E+00 -0.1097E+13
   -2.543772    4.14718  0.5176E-09  0.2880E-06  0.1109E-09  0.1738E-03  0.0000E+00 -0.2139E+13
   -2.612520    4.14804  0.5176E-09  0.2645E-06  0.1620E-09  0.7647E-04  0.0000E+00 -0.4901E+13
   -2.681267    4.14997  0.5174E-09  0.1228E-06  0.6023E-09  0.3414E-05  0.0000E+00 -0.1204E+15
   -2.750013    4.19177  0.5165E-09  0.0000E+00  0.0000E+00  0.0000E+00  0.0000E+00  0.0000E+00
