 1 - depth, m
 2 - temperature, C
 3 - salinity, kg/kg
 4 - turbulent kinetic energy, m**2/s**2
 5 - dissipation rate, m**2/s**3
 6 - kinematic heat conductance, m**2/s
 7 - modulus of horizontal velocity, m/s
 8 - Richardson number, n/d
   -0.000000   11.89743  0.8651E-10  0.1237E-03  0.3726E-04  0.1215E-03  0.1011E+00  0.8085E-02
   -0.068746   11.96349  0.8651E-10  0.6522E-04  0.8371E-05  0.1265E-03  0.3688E-01 -0.1815E-01
   -0.137492   11.97579  0.8651E-10  0.4649E-04  0.3235E-05  0.1309E-03  0.2783E-01 -0.3019E-01
   -0.206239   11.98503  0.8651E-10  0.3518E-04  0.1458E-05  0.1486E-03  0.2258E-01 -0.4857E-01
   -0.274987   11.99266  0.8651E-10  0.2801E-04  0.7347E-06  0.1746E-03  0.1878E-01 -0.7240E-01
   -0.343735   11.99907  0.8651E-10  0.2351E-04  0.4131E-06  0.2050E-03  0.1592E-01 -0.7580E-01
   -0.412483   12.00444  0.8650E-10  0.2050E-04  0.2552E-06  0.2449E-03  0.1362E-01 -0.7254E-01
   -0.481232   12.00886  0.8650E-10  0.1844E-04  0.1712E-06  0.3006E-03  0.1182E-01  0.9108E+00
   -0.549982   12.01243  0.8650E-10  0.1705E-04  0.1235E-06  0.3974E-03  0.1043E-01  0.7031E+01
   -0.618732   12.01522  0.8650E-10  0.1611E-04  0.9498E-07  0.5401E-03  0.9334E-02  0.2820E+03
   -0.687482   12.01736  0.8650E-10  0.1543E-04  0.7663E-07  0.6903E-03  0.8436E-02  0.1997E+03
   -0.756233   12.01902  0.8650E-10  0.1493E-04  0.6416E-07  0.8842E-03  0.7681E-02  0.5274E+02
   -0.824984   12.02026  0.8650E-10  0.1455E-04  0.5531E-07  0.1068E-02  0.7037E-02  0.1097E+03
   -0.893735   12.02120  0.8650E-10  0.1425E-04  0.4866E-07  0.1183E-02  0.6468E-02  0.2664E+03
   -0.962487   12.02199  0.8650E-10  0.1398E-04  0.4339E-07  0.1257E-02  0.5942E-02  0.2491E+04
   -1.031238   12.02269  0.8650E-10  0.1373E-04  0.3903E-07  0.1303E-02  0.5445E-02  0.1007E+03
   -1.099990   12.02335  0.8650E-10  0.1347E-04  0.3530E-07  0.1347E-02  0.4974E-02  0.1129E+02
   -1.168742   12.02398  0.8650E-10  0.1321E-04  0.3210E-07  0.1385E-02  0.4542E-02  0.8277E+01
   -1.237494   12.02458  0.8650E-10  0.1295E-04  0.2934E-07  0.1419E-02  0.4143E-02  0.6764E+01
   -1.306246   12.02515  0.8650E-10  0.1269E-04  0.2693E-07  0.1451E-02  0.3774E-02  0.5795E+01
   -1.374999   12.02571  0.8650E-10  0.1242E-04  0.2484E-07  0.1479E-02  0.3432E-02  0.5107E+01
   -1.443751   12.02624  0.8650E-10  0.1214E-04  0.2303E-07  0.1505E-02  0.3113E-02  0.4578E+01
   -1.512503   12.02676  0.8650E-10  0.1186E-04  0.2145E-07  0.1528E-02  0.2817E-02  0.4153E+01
   -1.581255   12.02726  0.8650E-10  0.1157E-04  0.2008E-07  0.1547E-02  0.2540E-02  0.3799E+01
   -1.650007   12.02775  0.8650E-10  0.1127E-04  0.1891E-07  0.1561E-02  0.2281E-02  0.3496E+01
   -1.718759   12.02822  0.8650E-10  0.1097E-04  0.1792E-07  0.1572E-02  0.2040E-02  0.3230E+01
   -1.787511   12.02869  0.8650E-10  0.1066E-04  0.1710E-07  0.1577E-02  0.1813E-02  0.2994E+01
   -1.856262   12.02914  0.8650E-10  0.1034E-04  0.1645E-07  0.1579E-02  0.1601E-02  0.2781E+01
   -1.925014   12.02959  0.8650E-10  0.1002E-04  0.1596E-07  0.1575E-02  0.1401E-02  0.2587E+01
   -1.993765   12.03003  0.8650E-10  0.9692E-05  0.1563E-07  0.1572E-02  0.1212E-02  0.2410E+01
   -2.062515   12.03047  0.8650E-10  0.9368E-05  0.1548E-07  0.1605E-02  0.1033E-02  0.1952E+01
   -2.131266   12.03089  0.8650E-10  0.9044E-05  0.1550E-07  0.1588E-02  0.8772E-03  0.1538E+01
   -2.200016   12.03132  0.8650E-10  0.8731E-05  0.1571E-07  0.1488E-02  0.7474E-03  0.1220E+01
   -2.268765   12.03176  0.8650E-10  0.8437E-05  0.1613E-07  0.1348E-02  0.6424E-03  0.9670E+00
   -2.337514   12.03226  0.8650E-10  0.8166E-05  0.1675E-07  0.1226E-02  0.5598E-03  0.8100E+00
   -2.406263   12.03279  0.8650E-10  0.7897E-05  0.1768E-07  0.1116E-02  0.4967E-03  0.1005E+01
   -2.475011   12.03338  0.8650E-10  0.7583E-05  0.1923E-07  0.9716E-03  0.4445E-03  0.1894E+01
   -2.543758   12.03406  0.8650E-10  0.7162E-05  0.2210E-07  0.7763E-03  0.3979E-03  0.5311E+01
   -2.612505   12.03492  0.8650E-10  0.6556E-05  0.2814E-07  0.5644E-03  0.3574E-03  0.6167E+03
   -2.681252   12.03617  0.8650E-10  0.3177E-05  0.8452E-07  0.2006E-04  0.3215E-03 -0.6599E+04
   -2.749997   12.07020  0.8650E-10  0.0000E+00  0.0000E+00  0.0000E+00  0.3206E-03  0.0000E+00
