 1 - depth, m
 2 - temperature, C
 3 - salinity, kg/kg
 4 - turbulent kinetic energy, m**2/s**2
 5 - dissipation rate, m**2/s**3
 6 - kinematic heat conductance, m**2/s
 7 - modulus of horizontal velocity, m/s
 8 - Richardson number, n/d
   -0.000000   -0.00000  0.5165E-09  0.1219E-13  0.7603E-17  0.1000E-09  0.0000E+00  0.1413E+17
   -0.068746    0.21839  0.1328E-09  0.1219E-13  0.7603E-17  0.1000E-09  0.0000E+00  0.1311E+17
   -0.137492    0.43372  0.8874E-10  0.1219E-13  0.7603E-17  0.1000E-09  0.0000E+00  0.1204E+17
   -0.206239    0.64442  0.7906E-10  0.4796E-13  0.7603E-17  0.1000E-09  0.0000E+00  0.1102E+17
   -0.274986    0.85050  0.7635E-10  0.1332E-12  0.1306E-16  0.1000E-09  0.0000E+00  0.1007E+17
   -0.343734    1.05204  0.7569E-10  0.3031E-12  0.2621E-16  0.1000E-09  0.0000E+00  0.9191E+16
   -0.412483    1.24967  0.7555E-10  0.6425E-12  0.5302E-16  0.1000E-09  0.0000E+00  0.8363E+16
   -0.481232    1.44346  0.7553E-10  0.1325E-11  0.1062E-15  0.1000E-09  0.0000E+00  0.7579E+16
   -0.549981    1.63346  0.7552E-10  0.2694E-11  0.2109E-15  0.1000E-09  0.0000E+00  0.6853E+16
   -0.618731    1.82017  0.7552E-10  0.5408E-11  0.4137E-15  0.1000E-09  0.0000E+00  0.6180E+16
   -0.687481    2.00413  0.7550E-10  0.1076E-10  0.8047E-15  0.1000E-09  0.0000E+00  0.5539E+16
   -0.756232    2.18547  0.7547E-10  0.2124E-10  0.1554E-14  0.1000E-09  0.0000E+00  0.4961E+16
   -0.824983    2.36558  0.7540E-10  0.4163E-10  0.2979E-14  0.1000E-09  0.0000E+00  0.4396E+16
   -0.893734    2.54442  0.7528E-10  0.8102E-10  0.5674E-14  0.1000E-09  0.0000E+00  0.3845E+16
   -0.962485    2.72194  0.7509E-10  0.1566E-09  0.1073E-13  0.1000E-09  0.0000E+00  0.3307E+16
   -1.031237    2.89807  0.7483E-10  0.3007E-09  0.2017E-13  0.1000E-09  0.0000E+00  0.2785E+16
   -1.099989    3.07287  0.7448E-10  0.5753E-09  0.3779E-13  0.1000E-09  0.0000E+00  0.2280E+16
   -1.168741    3.24663  0.7403E-10  0.1095E-08  0.7046E-13  0.2010E-09  0.0000E+00  0.1784E+16
   -1.237493    3.41914  0.7343E-10  0.2073E-08  0.1306E-12  0.5117E-09  0.0000E+00  0.1299E+16
   -1.306245    3.59001  0.7276E-10  0.3898E-08  0.2407E-12  0.1482E-08  0.0000E+00  0.8265E+15
   -1.374997    3.75813  0.7227E-10  0.7267E-08  0.4398E-12  0.5994E-08  0.0000E+00  0.3734E+15
   -1.443749    3.91916  0.7213E-10  0.1277E-07  0.7627E-12  0.1221E-06  0.0000E+00  0.3167E+14
   -1.512501    4.00794  0.7212E-10  0.1331E-07  0.7965E-12  0.8477E-04  0.0000E+00 -0.9397E+11
   -1.581253    4.00821  0.7212E-10  0.1355E-07  0.8146E-12  0.8999E-04  0.0000E+00 -0.9026E+11
   -1.650005    4.00847  0.7212E-10  0.1374E-07  0.8329E-12  0.9005E-04  0.0000E+00 -0.9195E+11
   -1.718757    4.00874  0.7212E-10  0.1391E-07  0.8524E-12  0.9008E-04  0.0000E+00 -0.9375E+11
   -1.787509    4.00900  0.7212E-10  0.1406E-07  0.8738E-12  0.8968E-04  0.0000E+00 -0.9606E+11
   -1.856260    4.00927  0.7212E-10  0.1418E-07  0.8978E-12  0.8881E-04  0.0000E+00 -0.9900E+11
   -1.925011    4.00955  0.7212E-10  0.1428E-07  0.9252E-12  0.8751E-04  0.0000E+00 -0.1026E+12
   -1.993762    4.00983  0.7212E-10  0.1435E-07  0.9569E-12  0.8379E-04  0.0000E+00 -0.1095E+12
   -2.062513    4.01012  0.7212E-10  0.1440E-07  0.9940E-12  0.7801E-04  0.0000E+00 -0.1206E+12
   -2.131263    4.01044  0.7212E-10  0.1442E-07  0.1040E-11  0.7152E-04  0.0000E+00 -0.1357E+12
   -2.200013    4.01080  0.7212E-10  0.1440E-07  0.1099E-11  0.6488E-04  0.0000E+00 -0.1551E+12
   -2.268763    4.01120  0.7212E-10  0.1433E-07  0.1175E-11  0.5834E-04  0.0000E+00 -0.1799E+12
   -2.337512    4.01166  0.7212E-10  0.1419E-07  0.1279E-11  0.5134E-04  0.0000E+00 -0.2154E+12
   -2.406260    4.01219  0.7212E-10  0.1396E-07  0.1428E-11  0.4324E-04  0.0000E+00 -0.2733E+12
   -2.475008    4.01286  0.7212E-10  0.1356E-07  0.1663E-11  0.3371E-04  0.0000E+00 -0.3835E+12
   -2.543756    4.01377  0.7212E-10  0.1282E-07  0.2099E-11  0.2224E-04  0.0000E+00 -0.6523E+12
   -2.612502    4.01524  0.7212E-10  0.1131E-07  0.3106E-11  0.1027E-04  0.0000E+00 -0.1649E+13
   -2.681249    4.01868  0.7212E-10  0.5526E-08  0.8993E-11  0.6699E-06  0.0000E+00 -0.4399E+14
   -2.749994    4.06797  0.7212E-10  0.0000E+00  0.0000E+00  0.0000E+00  0.0000E+00  0.0000E+00
