 1 - depth, m
 2 - temperature, C
 3 - salinity, kg/kg
 4 - turbulent kinetic energy, m**2/s**2
 5 - dissipation rate, m**2/s**3
 6 - kinematic heat conductance, m**2/s
 7 - modulus of horizontal velocity, m/s
 8 - Richardson number, n/d
   -0.000000   16.80704  0.7533E-10  0.2036E-04  0.1788E-05  0.3216E-04  0.2867E-01 -0.3364E-01
   -0.068746   16.83216  0.7533E-10  0.1482E-04  0.4395E-06  0.7426E-04  0.1474E-01 -0.1093E+00
   -0.137492   16.84066  0.7533E-10  0.1236E-04  0.1934E-06  0.1348E-03  0.1045E-01  0.1684E-02
   -0.206239   16.84540  0.7533E-10  0.1084E-04  0.1082E-06  0.2057E-03  0.7971E-02  0.8391E+01
   -0.274986   16.84840  0.7533E-10  0.9862E-05  0.6949E-07  0.2737E-03  0.6401E-02  0.3114E+03
   -0.343735   16.85039  0.7533E-10  0.9277E-05  0.4946E-07  0.3893E-03  0.5357E-02  0.3255E+02
   -0.412483   16.85170  0.7533E-10  0.8935E-05  0.3792E-07  0.5079E-03  0.4626E-02  0.3238E+02
   -0.481232   16.85264  0.7533E-10  0.8759E-05  0.3077E-07  0.6486E-03  0.4097E-02  0.4729E+02
   -0.549982   16.85331  0.7533E-10  0.8705E-05  0.2619E-07  0.8596E-03  0.3703E-02  0.6209E+02
   -0.618732   16.85378  0.7533E-10  0.8737E-05  0.2324E-07  0.1113E-02  0.3401E-02  0.2854E+01
   -0.687482   16.85413  0.7533E-10  0.8827E-05  0.2111E-07  0.1210E-02  0.3156E-02  0.2198E+01
   -0.756233   16.85445  0.7533E-10  0.8955E-05  0.1941E-07  0.1299E-02  0.2913E-02  0.2440E+01
   -0.824984   16.85477  0.7533E-10  0.9107E-05  0.1810E-07  0.1370E-02  0.2688E-02  0.2615E+01
   -0.893735   16.85508  0.7533E-10  0.9276E-05  0.1707E-07  0.1437E-02  0.2472E-02  0.2796E+01
   -0.962486   16.85539  0.7533E-10  0.9452E-05  0.1627E-07  0.1496E-02  0.2266E-02  0.2965E+01
   -1.031238   16.85570  0.7533E-10  0.9628E-05  0.1564E-07  0.1556E-02  0.2068E-02  0.3019E+01
   -1.099990   16.85602  0.7533E-10  0.9796E-05  0.1517E-07  0.1630E-02  0.1878E-02  0.2779E+01
   -1.168742   16.85633  0.7533E-10  0.9954E-05  0.1483E-07  0.1701E-02  0.1704E-02  0.2567E+01
   -1.237494   16.85664  0.7533E-10  0.1010E-04  0.1461E-07  0.1768E-02  0.1544E-02  0.2385E+01
   -1.306246   16.85696  0.7533E-10  0.1022E-04  0.1450E-07  0.1828E-02  0.1398E-02  0.2228E+01
   -1.374998   16.85727  0.7533E-10  0.1033E-04  0.1449E-07  0.1882E-02  0.1264E-02  0.2091E+01
   -1.443750   16.85759  0.7533E-10  0.1043E-04  0.1457E-07  0.1929E-02  0.1143E-02  0.1971E+01
   -1.512503   16.85792  0.7533E-10  0.1050E-04  0.1474E-07  0.1971E-02  0.1033E-02  0.1865E+01
   -1.581255   16.85825  0.7533E-10  0.1055E-04  0.1499E-07  0.2008E-02  0.9335E-03  0.1775E+01
   -1.650007   16.85858  0.7533E-10  0.1058E-04  0.1530E-07  0.2040E-02  0.8435E-03  0.1697E+01
   -1.718759   16.85893  0.7533E-10  0.1059E-04  0.1568E-07  0.2067E-02  0.7621E-03  0.1631E+01
   -1.787510   16.85929  0.7533E-10  0.1058E-04  0.1612E-07  0.2081E-02  0.6886E-03  0.1571E+01
   -1.856262   16.85966  0.7533E-10  0.1055E-04  0.1663E-07  0.2033E-02  0.6219E-03  0.1514E+01
   -1.925013   16.86006  0.7533E-10  0.1050E-04  0.1719E-07  0.1953E-02  0.5612E-03  0.1470E+01
   -1.993764   16.86049  0.7533E-10  0.1044E-04  0.1781E-07  0.1860E-02  0.5055E-03  0.1475E+01
   -2.062515   16.86096  0.7533E-10  0.1036E-04  0.1850E-07  0.1760E-02  0.4545E-03  0.1470E+01
   -2.131265   16.86147  0.7533E-10  0.1026E-04  0.1929E-07  0.1654E-02  0.4100E-03  0.1546E+01
   -2.200015   16.86203  0.7533E-10  0.1014E-04  0.2021E-07  0.1556E-02  0.3723E-03  0.1816E+01
   -2.268764   16.86264  0.7533E-10  0.9998E-05  0.2138E-07  0.1445E-02  0.3399E-03  0.2550E+01
   -2.337513   16.86331  0.7533E-10  0.9803E-05  0.2299E-07  0.1299E-02  0.3091E-03  0.3980E+01
   -2.406262   16.86407  0.7533E-10  0.9536E-05  0.2534E-07  0.1132E-02  0.2793E-03  0.7177E+01
   -2.475010   16.86496  0.7533E-10  0.9155E-05  0.2909E-07  0.8961E-03  0.2508E-03  0.1625E+02
   -2.543758   16.86611  0.7533E-10  0.8571E-05  0.3594E-07  0.7715E-03  0.2232E-03  0.4640E+02
   -2.612505   16.86749  0.7533E-10  0.7448E-05  0.5552E-07  0.3353E-03  0.2011E-03 -0.1643E+03
   -2.681251   16.87296  0.7533E-10  0.3687E-05  0.1660E-06  0.4905E-04  0.1654E-03 -0.1170E+05
   -2.749997   16.89640  0.7533E-10  0.0000E+00  0.0000E+00  0.0000E+00  0.1732E-03  0.0000E+00
