 1 - depth, m
 2 - temperature, C
 3 - salinity, kg/kg
 4 - turbulent kinetic energy, m**2/s**2
 5 - dissipation rate, m**2/s**3
 6 - kinematic heat conductance, m**2/s
 7 - modulus of horizontal velocity, m/s
 8 - Richardson number, n/d
   -0.000000   12.63152  0.7199E-10  0.6721E-05  0.2733E-06  0.2230E-04  0.1162E-01 -0.1896E+01
   -0.068746   12.64569  0.7199E-10  0.5634E-05  0.8823E-07  0.7990E-04  0.6293E-02 -0.1281E+02
   -0.137492   12.64999  0.7199E-10  0.4918E-05  0.4461E-07  0.1510E-03  0.4314E-02  0.2867E+03
   -0.206239   12.65244  0.7199E-10  0.4444E-05  0.2697E-07  0.2165E-03  0.3212E-02  0.2395E+03
   -0.274987   12.65402  0.7199E-10  0.4142E-05  0.1816E-07  0.2924E-03  0.2527E-02  0.1568E+03
   -0.343735   12.65509  0.7199E-10  0.3965E-05  0.1333E-07  0.3929E-03  0.2080E-02  0.1361E+03
   -0.412484   12.65582  0.7199E-10  0.3865E-05  0.1049E-07  0.4920E-03  0.1770E-02  0.9888E+02
   -0.481233   12.65633  0.7199E-10  0.3822E-05  0.8765E-08  0.6225E-03  0.1553E-02  0.4357E+02
   -0.549982   12.65668  0.7199E-10  0.3817E-05  0.7659E-08  0.7237E-03  0.1398E-02  0.2786E+02
   -0.618733   12.65696  0.7199E-10  0.3836E-05  0.6882E-08  0.7967E-03  0.1277E-02  0.2679E+02
   -0.687483   12.65721  0.7199E-10  0.3872E-05  0.6298E-08  0.8728E-03  0.1170E-02  0.5389E+02
   -0.756234   12.65744  0.7199E-10  0.3919E-05  0.5855E-08  0.9480E-03  0.1075E-02  0.2521E+02
   -0.824985   12.65765  0.7199E-10  0.3974E-05  0.5512E-08  0.1011E-02  0.9890E-03  0.2163E+02
   -0.893736   12.65785  0.7199E-10  0.4031E-05  0.5238E-08  0.1065E-02  0.9081E-03  0.2263E+02
   -0.962488   12.65805  0.7199E-10  0.4090E-05  0.5020E-08  0.1115E-02  0.8313E-03  0.2398E+02
   -1.031239   12.65824  0.7199E-10  0.4147E-05  0.4846E-08  0.1161E-02  0.7582E-03  0.2574E+02
   -1.099991   12.65844  0.7199E-10  0.4202E-05  0.4709E-08  0.1206E-02  0.6891E-03  0.2778E+02
   -1.168743   12.65863  0.7199E-10  0.4254E-05  0.4606E-08  0.1248E-02  0.6265E-03  0.3071E+02
   -1.237496   12.65882  0.7199E-10  0.4302E-05  0.4532E-08  0.1283E-02  0.5698E-03  0.3423E+02
   -1.306248   12.65901  0.7199E-10  0.4347E-05  0.4484E-08  0.1314E-02  0.5184E-03  0.3841E+02
   -1.375000   12.65921  0.7199E-10  0.4387E-05  0.4460E-08  0.1339E-02  0.4717E-03  0.4335E+02
   -1.443752   12.65941  0.7199E-10  0.4423E-05  0.4457E-08  0.1358E-02  0.4292E-03  0.4916E+02
   -1.512505   12.65961  0.7199E-10  0.4455E-05  0.4474E-08  0.1371E-02  0.3906E-03  0.5602E+02
   -1.581257   12.65982  0.7199E-10  0.4482E-05  0.4509E-08  0.1377E-02  0.3553E-03  0.6410E+02
   -1.650009   12.66004  0.7199E-10  0.4504E-05  0.4561E-08  0.1376E-02  0.3231E-03  0.7363E+02
   -1.718761   12.66026  0.7199E-10  0.4521E-05  0.4631E-08  0.1368E-02  0.2936E-03  0.8490E+02
   -1.787513   12.66050  0.7198E-10  0.4533E-05  0.4718E-08  0.1353E-02  0.2664E-03  0.9822E+02
   -1.856264   12.66075  0.7198E-10  0.4540E-05  0.4822E-08  0.1330E-02  0.2412E-03  0.1140E+03
   -1.925016   12.66101  0.7198E-10  0.4541E-05  0.4944E-08  0.1297E-02  0.2177E-03  0.1328E+03
   -1.993767   12.66128  0.7198E-10  0.4535E-05  0.5085E-08  0.1257E-02  0.1956E-03  0.1603E+03
   -2.062517   12.66158  0.7198E-10  0.4523E-05  0.5249E-08  0.1212E-02  0.1747E-03  0.1961E+03
   -2.131268   12.66190  0.7198E-10  0.4503E-05  0.5448E-08  0.1159E-02  0.1559E-03  0.2555E+03
   -2.200018   12.66224  0.7198E-10  0.4473E-05  0.5695E-08  0.1097E-02  0.1391E-03  0.3588E+03
   -2.268768   12.66260  0.7198E-10  0.4430E-05  0.6010E-08  0.1024E-02  0.1240E-03  0.5332E+03
   -2.337517   12.66300  0.7198E-10  0.4369E-05  0.6431E-08  0.9363E-03  0.1100E-03  0.8599E+03
   -2.406265   12.66345  0.7198E-10  0.4282E-05  0.7022E-08  0.8309E-03  0.9688E-04  0.1581E+04
   -2.475014   12.66396  0.7198E-10  0.4157E-05  0.7917E-08  0.7056E-03  0.8467E-04  0.3525E+04
   -2.543761   12.66458  0.7198E-10  0.3965E-05  0.9450E-08  0.5456E-03  0.7376E-04  0.1147E+05
   -2.612508   12.66540  0.7198E-10  0.3666E-05  0.1233E-07  0.4068E-03  0.6415E-04  0.6752E+05
   -2.681255   12.66653  0.7198E-10  0.1851E-05  0.3748E-07  0.1495E-04  0.5662E-04 -0.2418E+08
   -2.750000   12.69786  0.7198E-10  0.0000E+00  0.0000E+00  0.0000E+00  0.5664E-04  0.0000E+00
