 1 - depth, m
 2 - temperature, C
 3 - salinity, kg/kg
 4 - turbulent kinetic energy, m**2/s**2
 5 - dissipation rate, m**2/s**3
 6 - kinematic heat conductance, m**2/s
 7 - modulus of horizontal velocity, m/s
 8 - Richardson number, n/d
   -0.000000   -0.00000  0.2654E-09  0.1219E-13  0.7604E-17  0.1000E-09  0.0000E+00  0.1247E+17
   -0.068746    0.19203  0.1247E-09  0.1219E-13  0.7604E-17  0.1000E-09  0.0000E+00  0.1128E+17
   -0.137492    0.37505  0.8221E-10  0.1219E-13  0.7604E-17  0.1000E-09  0.0000E+00  0.1003E+17
   -0.206239    0.54652  0.7297E-10  0.1219E-13  0.7604E-17  0.1000E-09  0.0000E+00  0.8914E+16
   -0.274986    0.70688  0.7153E-10  0.1521E-13  0.7604E-17  0.1000E-09  0.0000E+00  0.7940E+16
   -0.343734    0.85702  0.7135E-10  0.4643E-13  0.9275E-17  0.1000E-09  0.0000E+00  0.7220E+16
   -0.412482    1.00048  0.7133E-10  0.1364E-12  0.1795E-16  0.1000E-09  0.0000E+00  0.6590E+16
   -0.481231    1.13804  0.7132E-10  0.3501E-12  0.4196E-16  0.1000E-09  0.0000E+00  0.6044E+16
   -0.549981    1.27062  0.7132E-10  0.8525E-12  0.9828E-16  0.1000E-09  0.0000E+00  0.5667E+16
   -0.618731    1.40140  0.7132E-10  0.2021E-11  0.2262E-15  0.1000E-09  0.0000E+00  0.5440E+16
   -0.687481    1.53379  0.7132E-10  0.4717E-11  0.5137E-15  0.1000E-09  0.0000E+00  0.5264E+16
   -0.756231    1.66939  0.7132E-10  0.1087E-10  0.1152E-14  0.1000E-09  0.0000E+00  0.5219E+16
   -0.824982    1.81251  0.7132E-10  0.2476E-10  0.2555E-14  0.1000E-09  0.0000E+00  0.5169E+16
   -0.893733    1.96459  0.7131E-10  0.5575E-10  0.5603E-14  0.1000E-09  0.0000E+00  0.5094E+16
   -0.962485    2.12705  0.7127E-10  0.1241E-09  0.1215E-13  0.1000E-09  0.0000E+00  0.4975E+16
   -1.031236    2.30125  0.7117E-10  0.2733E-09  0.2607E-13  0.1000E-09  0.0000E+00  0.4786E+16
   -1.099988    2.48842  0.7098E-10  0.5974E-09  0.5553E-13  0.1000E-09  0.0000E+00  0.4503E+16
   -1.168740    2.68962  0.7069E-10  0.1294E-08  0.1172E-12  0.1451E-09  0.0000E+00  0.4123E+16
   -1.237492    2.90708  0.7033E-10  0.2774E-08  0.2450E-12  0.3442E-09  0.0000E+00  0.3623E+16
   -1.306244    3.14430  0.6998E-10  0.5885E-08  0.5068E-12  0.8725E-09  0.0000E+00  0.2953E+16
   -1.374996    3.40676  0.6964E-10  0.1234E-07  0.1036E-11  0.2613E-08  0.0000E+00  0.2006E+16
   -1.443748    3.70093  0.6896E-10  0.2539E-07  0.2082E-11  0.1652E-07  0.0000E+00  0.6431E+15
   -1.512500    4.00890  0.6808E-10  0.2655E-07  0.2184E-11  0.1199E-03  0.0000E+00  0.1437E+12
   -1.581252    4.01116  0.6808E-10  0.2693E-07  0.2223E-11  0.1251E-03  0.0000E+00 -0.1621E+12
   -1.650004    4.01157  0.6808E-10  0.2722E-07  0.2261E-11  0.1252E-03  0.0000E+00 -0.1659E+12
   -1.718756    4.01199  0.6808E-10  0.2747E-07  0.2303E-11  0.1252E-03  0.0000E+00 -0.1694E+12
   -1.787507    4.01240  0.6808E-10  0.2768E-07  0.2348E-11  0.1246E-03  0.0000E+00 -0.1735E+12
   -1.856258    4.01282  0.6808E-10  0.2785E-07  0.2397E-11  0.1236E-03  0.0000E+00 -0.1784E+12
   -1.925010    4.01324  0.6808E-10  0.2798E-07  0.2452E-11  0.1221E-03  0.0000E+00 -0.1842E+12
   -1.993760    4.01367  0.6808E-10  0.2807E-07  0.2513E-11  0.1200E-03  0.0000E+00 -0.1910E+12
   -2.062511    4.01411  0.6808E-10  0.2810E-07  0.2581E-11  0.1171E-03  0.0000E+00 -0.1992E+12
   -2.131261    4.01456  0.6808E-10  0.2809E-07  0.2665E-11  0.1131E-03  0.0000E+00 -0.2101E+12
   -2.200011    4.01503  0.6808E-10  0.2802E-07  0.2775E-11  0.1073E-03  0.0000E+00 -0.2258E+12
   -2.268760    4.01553  0.6808E-10  0.2785E-07  0.2928E-11  0.9663E-04  0.0000E+00 -0.2566E+12
   -2.337509    4.01608  0.6808E-10  0.2755E-07  0.3146E-11  0.8029E-04  0.0000E+00 -0.3175E+12
   -2.406258    4.01675  0.6808E-10  0.2706E-07  0.3468E-11  0.6539E-04  0.0000E+00 -0.4054E+12
   -2.475006    4.01759  0.6808E-10  0.2627E-07  0.3980E-11  0.5039E-04  0.0000E+00 -0.5547E+12
   -2.543753    4.01871  0.6808E-10  0.2486E-07  0.4932E-11  0.3348E-04  0.0000E+00 -0.8977E+12
   -2.612500    4.02043  0.6808E-10  0.2217E-07  0.7098E-11  0.1610E-04  0.0000E+00 -0.2076E+13
   -2.681246    4.02413  0.6808E-10  0.1114E-07  0.2071E-10  0.1096E-05  0.0000E+00 -0.5036E+14
   -2.749992    4.07501  0.6807E-10  0.0000E+00  0.0000E+00  0.0000E+00  0.0000E+00  0.0000E+00
