 1 - depth, m
 2 - temperature, C
 3 - salinity, kg/kg
 4 - turbulent kinetic energy, m**2/s**2
 5 - dissipation rate, m**2/s**3
 6 - kinematic heat conductance, m**2/s
 7 - modulus of horizontal velocity, m/s
 8 - Richardson number, n/d
   -0.000000    4.78112  0.6492E-10  0.6590E-04  0.1737E-04  0.7398E-04  0.6274E-01 -0.3365E-01
   -0.068746    4.83593  0.6492E-10  0.3487E-04  0.3803E-05  0.8250E-04  0.2532E-01 -0.8750E-01
   -0.137492    4.85247  0.6492E-10  0.2467E-04  0.1406E-05  0.9995E-04  0.1904E-01 -0.1308E+00
   -0.206239    4.86393  0.6492E-10  0.1837E-04  0.6022E-06  0.1260E-03  0.1523E-01  0.6688E+01
   -0.274987    4.87310  0.6492E-10  0.1438E-04  0.2932E-06  0.1518E-03  0.1248E-01  0.3449E+01
   -0.343735    4.88079  0.6493E-10  0.1189E-04  0.1624E-06  0.1778E-03  0.1042E-01  0.3541E+02
   -0.412484    4.88737  0.6493E-10  0.1016E-04  0.9944E-07  0.2065E-03  0.8778E-02  0.4559E+01
   -0.481233    4.89302  0.6493E-10  0.8915E-05  0.6593E-07  0.2378E-03  0.7492E-02  0.5298E+01
   -0.549983    4.89785  0.6493E-10  0.8029E-05  0.4693E-07  0.2701E-03  0.6499E-02  0.7433E+01
   -0.618733    4.90204  0.6493E-10  0.7384E-05  0.3544E-07  0.3015E-03  0.5696E-02  0.1396E+02
   -0.687484    4.90572  0.6493E-10  0.6875E-05  0.2788E-07  0.3337E-03  0.5012E-02  0.2157E+02
   -0.756234    4.90899  0.6493E-10  0.6452E-05  0.2261E-07  0.3654E-03  0.4425E-02  0.2814E+02
   -0.824986    4.91191  0.6493E-10  0.6086E-05  0.1875E-07  0.3963E-03  0.3915E-02  0.1095E+02
   -0.893737    4.91456  0.6493E-10  0.5759E-05  0.1582E-07  0.4256E-03  0.3467E-02  0.6818E+01
   -0.962489    4.91698  0.6493E-10  0.5458E-05  0.1351E-07  0.4543E-03  0.3068E-02  0.4784E+02
   -1.031240    4.91921  0.6493E-10  0.5173E-05  0.1162E-07  0.4825E-03  0.2706E-02  0.5299E+01
   -1.099992    4.92128  0.6493E-10  0.4901E-05  0.1005E-07  0.5136E-03  0.2381E-02  0.3221E+01
   -1.168745    4.92319  0.6493E-10  0.4648E-05  0.8759E-08  0.5449E-03  0.2101E-02  0.2495E+01
   -1.237497    4.92495  0.6493E-10  0.4416E-05  0.7686E-08  0.5784E-03  0.1858E-02  0.4175E+01
   -1.306249    4.92659  0.6493E-10  0.4204E-05  0.6791E-08  0.6071E-03  0.1645E-02  0.2786E+01
   -1.375002    4.92812  0.6493E-10  0.4010E-05  0.6043E-08  0.6428E-03  0.1458E-02  0.5309E+01
   -1.443754    4.92954  0.6493E-10  0.3835E-05  0.5418E-08  0.6995E-03  0.1292E-02  0.5858E+02
   -1.512506    4.93079  0.6493E-10  0.3679E-05  0.4904E-08  0.8024E-03  0.1146E-02  0.1078E+03
   -1.581258    4.93185  0.6493E-10  0.3541E-05  0.4485E-08  0.8909E-03  0.1020E-02  0.2029E+03
   -1.650011    4.93277  0.6493E-10  0.3419E-05  0.4140E-08  0.9467E-03  0.9092E-03  0.5210E+02
   -1.718763    4.93360  0.6493E-10  0.3307E-05  0.3853E-08  0.9724E-03  0.8092E-03  0.9893E+02
   -1.787514    4.93439  0.6493E-10  0.3203E-05  0.3611E-08  0.9765E-03  0.7174E-03  0.5289E+01
   -1.856266    4.93517  0.6493E-10  0.3106E-05  0.3409E-08  0.9683E-03  0.6319E-03  0.3637E+01
   -1.925018    4.93594  0.6493E-10  0.3015E-05  0.3241E-08  0.9547E-03  0.5515E-03  0.3285E+01
   -1.993769    4.93672  0.6493E-10  0.2929E-05  0.3107E-08  0.9351E-03  0.4754E-03  0.3622E+01
   -2.062519    4.93751  0.6493E-10  0.2848E-05  0.3006E-08  0.9099E-03  0.4029E-03  0.3922E+01
   -2.131270    4.93832  0.6493E-10  0.2771E-05  0.2936E-08  0.8786E-03  0.3397E-03  0.4612E+01
   -2.200020    4.93915  0.6493E-10  0.2699E-05  0.2898E-08  0.8422E-03  0.2870E-03  0.6113E+01
   -2.268770    4.94000  0.6493E-10  0.2631E-05  0.2895E-08  0.8014E-03  0.2439E-03  0.8705E+01
   -2.337519    4.94090  0.6493E-10  0.2564E-05  0.2929E-08  0.7557E-03  0.2091E-03  0.1376E+02
   -2.406268    4.94185  0.6493E-10  0.2493E-05  0.3013E-08  0.6985E-03  0.1798E-03  0.2468E+02
   -2.475016    4.94287  0.6493E-10  0.2411E-05  0.3174E-08  0.6325E-03  0.1542E-03  0.5294E+02
   -2.543764    4.94401  0.6493E-10  0.2296E-05  0.3511E-08  0.4937E-03  0.1332E-03  0.1807E+03
   -2.612511    4.94543  0.6493E-10  0.2088E-05  0.4422E-08  0.2148E-03  0.1114E-03  0.4096E+04
   -2.681257    4.94873  0.6493E-10  0.9454E-06  0.1310E-07  0.9553E-05  0.8711E-04 -0.2583E+06
   -2.750003    5.02021  0.6493E-10  0.0000E+00  0.0000E+00  0.0000E+00  0.8663E-04  0.0000E+00
