 1 - depth, m
 2 - temperature, C
 3 - salinity, kg/kg
 4 - turbulent kinetic energy, m**2/s**2
 5 - dissipation rate, m**2/s**3
 6 - kinematic heat conductance, m**2/s
 7 - modulus of horizontal velocity, m/s
 8 - Richardson number, n/d
   -0.000000   -0.00000  0.5434E-09  0.1219E-13  0.7604E-17  0.1000E-09  0.0000E+00  0.1276E+17
   -0.068746    0.19665  0.1260E-09  0.1219E-13  0.7604E-17  0.1000E-09  0.0000E+00  0.1186E+17
   -0.137492    0.38971  0.9414E-10  0.1219E-13  0.7604E-17  0.1000E-09  0.0000E+00  0.1091E+17
   -0.206239    0.57756  0.8390E-10  0.1219E-13  0.7604E-17  0.1000E-09  0.0000E+00  0.1002E+17
   -0.274986    0.76017  0.8095E-10  0.1219E-13  0.7604E-17  0.1000E-09  0.0000E+00  0.9181E+16
   -0.343734    0.93770  0.8026E-10  0.1219E-13  0.7604E-17  0.1000E-09  0.0000E+00  0.8431E+16
   -0.412483    1.11089  0.8012E-10  0.1219E-13  0.7604E-17  0.1000E-09  0.0000E+00  0.7732E+16
   -0.481232    1.27995  0.8010E-10  0.3892E-13  0.7604E-17  0.1000E-09  0.0000E+00  0.7080E+16
   -0.549981    1.44504  0.8009E-10  0.1146E-12  0.1170E-16  0.1000E-09  0.0000E+00  0.6489E+16
   -0.618731    1.60685  0.8009E-10  0.2649E-12  0.2288E-16  0.1000E-09  0.0000E+00  0.5952E+16
   -0.687481    1.76604  0.8008E-10  0.5612E-12  0.4582E-16  0.1000E-09  0.0000E+00  0.5447E+16
   -0.756232    1.92288  0.8005E-10  0.1150E-11  0.9099E-16  0.1000E-09  0.0000E+00  0.5006E+16
   -0.824983    2.07880  0.8000E-10  0.2318E-11  0.1789E-15  0.1000E-09  0.0000E+00  0.4577E+16
   -0.893734    2.23386  0.7991E-10  0.4627E-11  0.3489E-15  0.1000E-09  0.0000E+00  0.4157E+16
   -0.962485    2.38808  0.7974E-10  0.9159E-11  0.6752E-15  0.1000E-09  0.0000E+00  0.3745E+16
   -1.031237    2.54143  0.7950E-10  0.1799E-10  0.1297E-14  0.1000E-09  0.0000E+00  0.3342E+16
   -1.099989    2.69392  0.7919E-10  0.3520E-10  0.2481E-14  0.1000E-09  0.0000E+00  0.2949E+16
   -1.168741    2.84569  0.7884E-10  0.6848E-10  0.4722E-14  0.1000E-09  0.0000E+00  0.2561E+16
   -1.237493    2.99656  0.7847E-10  0.1324E-09  0.8931E-14  0.1000E-09  0.0000E+00  0.2178E+16
   -1.306245    3.14633  0.7808E-10  0.2542E-09  0.1678E-13  0.1000E-09  0.0000E+00  0.1802E+16
   -1.374997    3.29475  0.7766E-10  0.4850E-09  0.3134E-13  0.1109E-09  0.0000E+00  0.1438E+16
   -1.443749    3.44184  0.7716E-10  0.9191E-09  0.5815E-13  0.2727E-09  0.0000E+00  0.1085E+16
   -1.512501    3.58767  0.7666E-10  0.1730E-08  0.1072E-12  0.7367E-09  0.0000E+00  0.7406E+15
   -1.581253    3.73166  0.7631E-10  0.3234E-08  0.1963E-12  0.2452E-08  0.0000E+00  0.4074E+15
   -1.650005    3.87232  0.7620E-10  0.5958E-08  0.3546E-12  0.1789E-07  0.0000E+00  0.1008E+15
   -1.718757    3.99781  0.7619E-10  0.6470E-08  0.3867E-12  0.3735E-04  0.0000E+00 -0.9780E+11
   -1.787509    3.99834  0.7619E-10  0.6706E-08  0.4048E-12  0.3846E-04  0.0000E+00 -0.9997E+11
   -1.856260    3.99886  0.7619E-10  0.6916E-08  0.4248E-12  0.3901E-04  0.0000E+00 -0.1035E+12
   -1.925011    3.99937  0.7619E-10  0.7099E-08  0.4469E-12  0.3901E-04  0.0000E+00 -0.1086E+12
   -1.993762    3.99989  0.7619E-10  0.7258E-08  0.4716E-12  0.3848E-04  0.0000E+00 -0.1155E+12
   -2.062513    4.00043  0.7619E-10  0.7393E-08  0.5000E-12  0.3761E-04  0.0000E+00 -0.1251E+12
   -2.131263    4.00098  0.7619E-10  0.7508E-08  0.5348E-12  0.3621E-04  0.0000E+00 -0.1386E+12
   -2.200013    4.00157  0.7619E-10  0.7601E-08  0.5783E-12  0.3418E-04  0.0000E+00 -0.1578E+12
   -2.268762    4.00222  0.7619E-10  0.7666E-08  0.6346E-12  0.3147E-04  0.0000E+00 -0.1862E+12
   -2.337511    4.00295  0.7619E-10  0.7693E-08  0.7108E-12  0.2801E-04  0.0000E+00 -0.2306E+12
   -2.406260    4.00381  0.7619E-10  0.7663E-08  0.8207E-12  0.2372E-04  0.0000E+00 -0.3073E+12
   -2.475008    4.00490  0.7619E-10  0.7536E-08  0.9954E-12  0.1850E-04  0.0000E+00 -0.4618E+12
   -2.543755    4.00642  0.7619E-10  0.7198E-08  0.1326E-11  0.1204E-04  0.0000E+00 -0.8713E+12
   -2.612502    4.00902  0.7619E-10  0.6355E-08  0.2117E-11  0.5280E-05  0.0000E+00 -0.2648E+13
   -2.681249    4.01553  0.7619E-10  0.3639E-08  0.6052E-11  0.5234E-06  0.0000E+00 -0.5815E+14
   -2.749994    4.07733  0.7619E-10  0.0000E+00  0.0000E+00  0.0000E+00  0.0000E+00  0.0000E+00
