 1 - depth, m
 2 - temperature, C
 3 - salinity, kg/kg
 4 - turbulent kinetic energy, m**2/s**2
 5 - dissipation rate, m**2/s**3
 6 - kinematic heat conductance, m**2/s
 7 - modulus of horizontal velocity, m/s
 8 - Richardson number, n/d
   -0.000000   -0.00000  0.4270E-09  0.1769E-11  0.4459E-15  0.1000E-09  0.0000E+00  0.1946E+17
   -0.068746    0.30433  0.1104E-09  0.4606E-11  0.5011E-15  0.1000E-09  0.0000E+00  0.1765E+17
   -0.137492    0.60552  0.8094E-10  0.1070E-10  0.8816E-15  0.1000E-09  0.0000E+00  0.1579E+17
   -0.206239    0.90144  0.7226E-10  0.2256E-10  0.1703E-14  0.1000E-09  0.0000E+00  0.1403E+17
   -0.274986    1.19188  0.6963E-10  0.4556E-10  0.3309E-14  0.1000E-09  0.0000E+00  0.1236E+17
   -0.343734    1.47682  0.6896E-10  0.9003E-10  0.6370E-14  0.1000E-09  0.0000E+00  0.1079E+17
   -0.412483    1.75660  0.6882E-10  0.1757E-09  0.1215E-13  0.1000E-09  0.0000E+00  0.9311E+16
   -0.481232    2.03127  0.6878E-10  0.3401E-09  0.2302E-13  0.1000E-09  0.0000E+00  0.7916E+16
   -0.549981    2.30091  0.6877E-10  0.6538E-09  0.4331E-13  0.1000E-09  0.0000E+00  0.6608E+16
   -0.618731    2.56586  0.6872E-10  0.1244E-08  0.8069E-13  0.1000E-09  0.0000E+00  0.5377E+16
   -0.687482    2.82649  0.6858E-10  0.2348E-08  0.1492E-12  0.1804E-09  0.0000E+00  0.4210E+16
   -0.756232    3.08276  0.6819E-10  0.4404E-08  0.2742E-12  0.4477E-09  0.0000E+00  0.3118E+16
   -0.824983    3.33570  0.6740E-10  0.8205E-08  0.5005E-12  0.1232E-08  0.0000E+00  0.2068E+16
   -0.893734    3.58439  0.6648E-10  0.1516E-07  0.9066E-12  0.4328E-08  0.0000E+00  0.1066E+16
   -0.962486    3.82494  0.6605E-10  0.2733E-07  0.1606E-11  0.4128E-07  0.0000E+00  0.1980E+15
   -1.031237    4.01462  0.6600E-10  0.2775E-07  0.1632E-11  0.1777E-03  0.0000E+00 -0.8618E+11
   -1.099989    4.01482  0.6600E-10  0.2795E-07  0.1647E-11  0.1734E-03  0.0000E+00 -0.8932E+11
   -1.168741    4.01502  0.6600E-10  0.2813E-07  0.1663E-11  0.1736E-03  0.0000E+00 -0.9035E+11
   -1.237493    4.01522  0.6600E-10  0.2829E-07  0.1682E-11  0.1737E-03  0.0000E+00 -0.9143E+11
   -1.306245    4.01542  0.6600E-10  0.2844E-07  0.1702E-11  0.1735E-03  0.0000E+00 -0.9271E+11
   -1.374997    4.01562  0.6600E-10  0.2857E-07  0.1723E-11  0.1729E-03  0.0000E+00 -0.9408E+11
   -1.443750    4.01582  0.6600E-10  0.2868E-07  0.1747E-11  0.1720E-03  0.0000E+00 -0.9546E+11
   -1.512502    4.01603  0.6600E-10  0.2877E-07  0.1773E-11  0.1707E-03  0.0000E+00 -0.9707E+11
   -1.581254    4.01624  0.6600E-10  0.2884E-07  0.1802E-11  0.1691E-03  0.0000E+00 -0.9894E+11
   -1.650006    4.01645  0.6600E-10  0.2889E-07  0.1833E-11  0.1671E-03  0.0000E+00 -0.1011E+12
   -1.718758    4.01666  0.6600E-10  0.2893E-07  0.1867E-11  0.1647E-03  0.0000E+00 -0.1036E+12
   -1.787509    4.01688  0.6600E-10  0.2894E-07  0.1905E-11  0.1619E-03  0.0000E+00 -0.1065E+12
   -1.856261    4.01710  0.6600E-10  0.2893E-07  0.1946E-11  0.1587E-03  0.0000E+00 -0.1097E+12
   -1.925012    4.01733  0.6600E-10  0.2890E-07  0.1993E-11  0.1550E-03  0.0000E+00 -0.1135E+12
   -1.993763    4.01756  0.6600E-10  0.2884E-07  0.2044E-11  0.1510E-03  0.0000E+00 -0.1178E+12
   -2.062513    4.01780  0.6600E-10  0.2876E-07  0.2102E-11  0.1464E-03  0.0000E+00 -0.1230E+12
   -2.131264    4.01805  0.6600E-10  0.2864E-07  0.2173E-11  0.1410E-03  0.0000E+00 -0.1296E+12
   -2.200013    4.01831  0.6600E-10  0.2848E-07  0.2259E-11  0.1347E-03  0.0000E+00 -0.1378E+12
   -2.268763    4.01858  0.6600E-10  0.2825E-07  0.2378E-11  0.1271E-03  0.0000E+00 -0.1488E+12
   -2.337512    4.01887  0.6600E-10  0.2789E-07  0.2560E-11  0.1015E-03  0.0000E+00 -0.1906E+12
   -2.406261    4.01925  0.6600E-10  0.2734E-07  0.2840E-11  0.7739E-04  0.0000E+00 -0.2577E+12
   -2.475009    4.01974  0.6600E-10  0.2650E-07  0.3294E-11  0.5770E-04  0.0000E+00 -0.3606E+12
   -2.543756    4.02042  0.6600E-10  0.2508E-07  0.4141E-11  0.3738E-04  0.0000E+00 -0.5892E+12
   -2.612503    4.02151  0.6600E-10  0.2240E-07  0.6066E-11  0.1762E-04  0.0000E+00 -0.1354E+13
   -2.681249    4.02388  0.6600E-10  0.1073E-07  0.1875E-10  0.1002E-05  0.0000E+00 -0.3475E+14
   -2.749995    4.06281  0.6600E-10  0.0000E+00  0.0000E+00  0.0000E+00  0.0000E+00  0.0000E+00
