 1 - depth, m
 2 - temperature, C
 3 - salinity, kg/kg
 4 - turbulent kinetic energy, m**2/s**2
 5 - dissipation rate, m**2/s**3
 6 - kinematic heat conductance, m**2/s
 7 - modulus of horizontal velocity, m/s
 8 - Richardson number, n/d
   -0.000000   -0.00000  0.1361E-09  0.3617E-12  0.6204E-16  0.1000E-09  0.0000E+00  0.1527E+17
   -0.068746    0.23648  0.1856E-09  0.7582E-12  0.6880E-16  0.1000E-09  0.0000E+00  0.1442E+17
   -0.137492    0.47541  0.1366E-09  0.1606E-11  0.1130E-15  0.1000E-09  0.0000E+00  0.1343E+17
   -0.206240    0.71463  0.9602E-10  0.3200E-11  0.2058E-15  0.1000E-09  0.0000E+00  0.1242E+17
   -0.274987    0.95357  0.7771E-10  0.6157E-11  0.3801E-15  0.1000E-09  0.0000E+00  0.1139E+17
   -0.343736    1.19162  0.7135E-10  0.1161E-10  0.6976E-15  0.1000E-09  0.0000E+00  0.1037E+17
   -0.412484    1.42856  0.6945E-10  0.2162E-10  0.1270E-14  0.1000E-09  0.0000E+00  0.9345E+16
   -0.481234    1.66359  0.6891E-10  0.3992E-10  0.2296E-14  0.1000E-09  0.0000E+00  0.8319E+16
   -0.549983    1.89587  0.6871E-10  0.7324E-10  0.4126E-14  0.1000E-09  0.0000E+00  0.7319E+16
   -0.618734    2.12495  0.6853E-10  0.1330E-09  0.7342E-14  0.1000E-09  0.0000E+00  0.6353E+16
   -0.687484    2.35047  0.6822E-10  0.2399E-09  0.1297E-13  0.1000E-09  0.0000E+00  0.5420E+16
   -0.756235    2.57187  0.6775E-10  0.4299E-09  0.2278E-13  0.1000E-09  0.0000E+00  0.4546E+16
   -0.824986    2.78954  0.6717E-10  0.7657E-09  0.3977E-13  0.1000E-09  0.0000E+00  0.3712E+16
   -0.893738    3.00321  0.6664E-10  0.1356E-08  0.6902E-13  0.1202E-09  0.0000E+00  0.2925E+16
   -0.962489    3.21282  0.6629E-10  0.2386E-08  0.1191E-12  0.2777E-09  0.0000E+00  0.2184E+16
   -1.031241    3.41846  0.6611E-10  0.4175E-08  0.2043E-12  0.6994E-09  0.0000E+00  0.1488E+16
   -1.099993    3.62033  0.6604E-10  0.7278E-08  0.3493E-12  0.2143E-08  0.0000E+00  0.8303E+15
   -1.168745    3.81777  0.6603E-10  0.1256E-07  0.5918E-12  0.1362E-07  0.0000E+00  0.2216E+15
   -1.237498    3.99930  0.6602E-10  0.1292E-07  0.6097E-12  0.1048E-03  0.0000E+00 -0.5485E+11
   -1.306250    3.99957  0.6602E-10  0.1307E-07  0.6185E-12  0.1074E-03  0.0000E+00 -0.5424E+11
   -1.375002    3.99983  0.6602E-10  0.1320E-07  0.6272E-12  0.1075E-03  0.0000E+00 -0.5498E+11
   -1.443755    4.00008  0.6602E-10  0.1330E-07  0.6365E-12  0.1077E-03  0.0000E+00 -0.5587E+11
   -1.512507    4.00034  0.6602E-10  0.1340E-07  0.6466E-12  0.1076E-03  0.0000E+00 -0.5692E+11
   -1.581260    4.00060  0.6602E-10  0.1349E-07  0.6576E-12  0.1072E-03  0.0000E+00 -0.5814E+11
   -1.650012    4.00085  0.6602E-10  0.1356E-07  0.6696E-12  0.1065E-03  0.0000E+00 -0.5954E+11
   -1.718764    4.00111  0.6602E-10  0.1362E-07  0.6828E-12  0.1055E-03  0.0000E+00 -0.6117E+11
   -1.787516    4.00137  0.6602E-10  0.1367E-07  0.6973E-12  0.1041E-03  0.0000E+00 -0.6304E+11
   -1.856267    4.00164  0.6602E-10  0.1370E-07  0.7137E-12  0.1024E-03  0.0000E+00 -0.6524E+11
   -1.925019    4.00191  0.6602E-10  0.1373E-07  0.7328E-12  0.1001E-03  0.0000E+00 -0.6786E+11
   -1.993770    4.00218  0.6602E-10  0.1373E-07  0.7555E-12  0.9736E-04  0.0000E+00 -0.7105E+11
   -2.062521    4.00247  0.6602E-10  0.1371E-07  0.7830E-12  0.9090E-04  0.0000E+00 -0.7771E+11
   -2.131271    4.00277  0.6602E-10  0.1367E-07  0.8178E-12  0.8151E-04  0.0000E+00 -0.8880E+11
   -2.200022    4.00311  0.6602E-10  0.1360E-07  0.8624E-12  0.7203E-04  0.0000E+00 -0.1034E+12
   -2.268771    4.00350  0.6602E-10  0.1348E-07  0.9212E-12  0.6336E-04  0.0000E+00 -0.1215E+12
   -2.337521    4.00395  0.6602E-10  0.1329E-07  0.1001E-11  0.5482E-04  0.0000E+00 -0.1461E+12
   -2.406269    4.00447  0.6602E-10  0.1302E-07  0.1118E-11  0.4538E-04  0.0000E+00 -0.1854E+12
   -2.475018    4.00511  0.6602E-10  0.1259E-07  0.1302E-11  0.3459E-04  0.0000E+00 -0.2598E+12
   -2.543765    4.00597  0.6602E-10  0.1185E-07  0.1652E-11  0.2220E-04  0.0000E+00 -0.4425E+12
   -2.612513    4.00736  0.6602E-10  0.1039E-07  0.2473E-11  0.9952E-05  0.0000E+00 -0.1132E+13
   -2.681259    4.01055  0.6602E-10  0.4845E-08  0.7412E-11  0.5870E-06  0.0000E+00 -0.3508E+14
   -2.750005    4.05751  0.6602E-10  0.0000E+00  0.0000E+00  0.0000E+00  0.0000E+00  0.0000E+00
