 1 - depth, m
 2 - temperature, C
 3 - salinity, kg/kg
 4 - turbulent kinetic energy, m**2/s**2
 5 - dissipation rate, m**2/s**3
 6 - kinematic heat conductance, m**2/s
 7 - modulus of horizontal velocity, m/s
 8 - Richardson number, n/d
   -0.000000   -0.00000  0.3188E-09  0.1219E-13  0.7603E-17  0.1000E-09  0.0000E+00  0.1350E+17
   -0.068746    0.20839  0.1144E-09  0.1219E-13  0.7603E-17  0.1000E-09  0.0000E+00  0.1190E+17
   -0.137492    0.40269  0.8291E-10  0.1219E-13  0.7603E-17  0.1000E-09  0.0000E+00  0.1004E+17
   -0.206239    0.57581  0.8035E-10  0.1219E-13  0.7603E-17  0.1000E-09  0.0000E+00  0.8223E+16
   -0.274987    0.72485  0.8013E-10  0.1219E-13  0.7603E-17  0.1000E-09  0.0000E+00  0.6518E+16
   -0.343735    0.84831  0.8010E-10  0.1219E-13  0.7603E-17  0.1000E-09  0.0000E+00  0.5149E+16
   -0.412483    0.94958  0.8009E-10  0.1219E-13  0.7603E-17  0.1000E-09  0.0000E+00  0.3912E+16
   -0.481233    1.02896  0.8009E-10  0.1219E-13  0.7603E-17  0.1000E-09  0.0000E+00  0.2826E+16
   -0.549982    1.08772  0.8009E-10  0.1219E-13  0.7603E-17  0.1000E-09  0.0000E+00  0.2064E+16
   -0.618732    1.13145  0.8009E-10  0.1219E-13  0.7603E-17  0.1000E-09  0.0000E+00  0.1636E+16
   -0.687482    1.16660  0.8009E-10  0.1219E-13  0.7603E-17  0.1000E-09  0.0000E+00  0.1389E+16
   -0.756233    1.19681  0.8009E-10  0.1219E-13  0.7603E-17  0.1000E-09  0.0000E+00  0.1433E+16
   -0.824984    1.22836  0.8009E-10  0.1219E-13  0.7603E-17  0.1000E-09  0.0000E+00  0.1644E+16
   -0.893735    1.26501  0.8009E-10  0.3451E-13  0.7839E-17  0.1000E-09  0.0000E+00  0.2013E+16
   -0.962487    1.31062  0.8008E-10  0.1068E-12  0.1868E-16  0.1000E-09  0.0000E+00  0.2528E+16
   -1.031239    1.36906  0.8001E-10  0.2980E-12  0.4895E-16  0.1000E-09  0.0000E+00  0.3127E+16
   -1.099991    1.44328  0.7983E-10  0.8042E-12  0.1275E-15  0.1000E-09  0.0000E+00  0.3688E+16
   -1.168743    1.53384  0.7951E-10  0.2133E-11  0.3280E-15  0.1000E-09  0.0000E+00  0.4308E+16
   -1.237495    1.64424  0.7906E-10  0.5580E-11  0.8326E-15  0.1000E-09  0.0000E+00  0.4924E+16
   -1.306247    1.77742  0.7860E-10  0.1441E-10  0.2087E-14  0.1000E-09  0.0000E+00  0.5454E+16
   -1.374999    1.93539  0.7827E-10  0.3674E-10  0.5170E-14  0.1000E-09  0.0000E+00  0.5880E+16
   -1.443752    2.12113  0.7804E-10  0.9256E-10  0.1266E-13  0.1000E-09  0.0000E+00  0.6127E+16
   -1.512504    2.33753  0.7775E-10  0.2304E-09  0.3062E-13  0.1000E-09  0.0000E+00  0.5992E+16
   -1.581256    2.58199  0.7728E-10  0.5671E-09  0.7328E-13  0.1000E-09  0.0000E+00  0.5452E+16
   -1.650008    2.85046  0.7670E-10  0.1380E-08  0.1734E-12  0.1946E-09  0.0000E+00  0.4540E+16
   -1.718760    3.13794  0.7625E-10  0.3320E-08  0.4060E-12  0.6212E-09  0.0000E+00  0.3329E+16
   -1.787512    3.43903  0.7606E-10  0.7892E-08  0.9395E-12  0.2507E-08  0.0000E+00  0.1909E+16
   -1.856263    3.74666  0.7601E-10  0.1831E-07  0.2126E-11  0.2450E-07  0.0000E+00  0.4422E+15
   -1.925014    4.02005  0.7601E-10  0.1987E-07  0.2317E-11  0.6376E-04  0.0000E+00 -0.3822E+12
   -1.993765    4.02077  0.7601E-10  0.2052E-07  0.2420E-11  0.6578E-04  0.0000E+00 -0.3835E+12
   -2.062516    4.02147  0.7601E-10  0.2104E-07  0.2532E-11  0.6612E-04  0.0000E+00 -0.3957E+12
   -2.131266    4.02218  0.7601E-10  0.2148E-07  0.2665E-11  0.6471E-04  0.0000E+00 -0.4210E+12
   -2.200016    4.02293  0.7601E-10  0.2182E-07  0.2828E-11  0.6175E-04  0.0000E+00 -0.4616E+12
   -2.268766    4.02372  0.7601E-10  0.2206E-07  0.3035E-11  0.5745E-04  0.0000E+00 -0.5225E+12
   -2.337515    4.02460  0.7601E-10  0.2217E-07  0.3309E-11  0.5207E-04  0.0000E+00 -0.6135E+12
   -2.406264    4.02561  0.7601E-10  0.2210E-07  0.3694E-11  0.4531E-04  0.0000E+00 -0.7620E+12
   -2.475012    4.02683  0.7601E-10  0.2176E-07  0.4288E-11  0.3673E-04  0.0000E+00 -0.1042E+13
   -2.543760    4.02844  0.7601E-10  0.2089E-07  0.5362E-11  0.2552E-04  0.0000E+00 -0.1708E+13
   -2.612507    4.03096  0.7601E-10  0.1884E-07  0.7757E-11  0.1272E-04  0.0000E+00 -0.4057E+13
   -2.681253    4.03643  0.7601E-10  0.1053E-07  0.2127E-10  0.1147E-05  0.0000E+00 -0.7842E+14
   -2.749999    4.09827  0.7601E-10  0.0000E+00  0.0000E+00  0.0000E+00  0.0000E+00  0.0000E+00
