 1 - depth, m
 2 - temperature, C
 3 - salinity, kg/kg
 4 - turbulent kinetic energy, m**2/s**2
 5 - dissipation rate, m**2/s**3
 6 - kinematic heat conductance, m**2/s
 7 - modulus of horizontal velocity, m/s
 8 - Richardson number, n/d
   -0.000000   -0.00000  0.4258E-09  0.1763E-11  0.4441E-15  0.1000E-09  0.0000E+00  0.1954E+17
   -0.068746    0.30552  0.1083E-09  0.4586E-11  0.4998E-15  0.1000E-09  0.0000E+00  0.1768E+17
   -0.137492    0.60732  0.8103E-10  0.1066E-10  0.8802E-15  0.1000E-09  0.0000E+00  0.1579E+17
   -0.206239    0.90335  0.7229E-10  0.2248E-10  0.1702E-14  0.1000E-09  0.0000E+00  0.1401E+17
   -0.274986    1.19358  0.6963E-10  0.4543E-10  0.3309E-14  0.1000E-09  0.0000E+00  0.1233E+17
   -0.343734    1.47813  0.6896E-10  0.8984E-10  0.6375E-14  0.1000E-09  0.0000E+00  0.1077E+17
   -0.412483    1.75747  0.6882E-10  0.1755E-09  0.1217E-13  0.1000E-09  0.0000E+00  0.9295E+16
   -0.481232    2.03178  0.6878E-10  0.3399E-09  0.2308E-13  0.1000E-09  0.0000E+00  0.7907E+16
   -0.549981    2.30117  0.6877E-10  0.6539E-09  0.4346E-13  0.1000E-09  0.0000E+00  0.6604E+16
   -0.618731    2.56603  0.6873E-10  0.1245E-08  0.8103E-13  0.1000E-09  0.0000E+00  0.5377E+16
   -0.687481    2.82670  0.6859E-10  0.2353E-08  0.1500E-12  0.1813E-09  0.0000E+00  0.4212E+16
   -0.756232    3.08313  0.6822E-10  0.4417E-08  0.2759E-12  0.4503E-09  0.0000E+00  0.3118E+16
   -0.824983    3.33629  0.6745E-10  0.8236E-08  0.5041E-12  0.1242E-08  0.0000E+00  0.2067E+16
   -0.893734    3.58520  0.6650E-10  0.1523E-07  0.9140E-12  0.4375E-08  0.0000E+00  0.1064E+16
   -0.962486    3.82589  0.6604E-10  0.2748E-07  0.1620E-11  0.4217E-07  0.0000E+00  0.1955E+15
   -1.031237    4.01481  0.6600E-10  0.2790E-07  0.1647E-11  0.1781E-03  0.0000E+00 -0.8666E+11
   -1.099989    4.01501  0.6600E-10  0.2810E-07  0.1662E-11  0.1738E-03  0.0000E+00 -0.8985E+11
   -1.168741    4.01521  0.6600E-10  0.2828E-07  0.1678E-11  0.1739E-03  0.0000E+00 -0.9091E+11
   -1.237493    4.01541  0.6600E-10  0.2845E-07  0.1697E-11  0.1740E-03  0.0000E+00 -0.9202E+11
   -1.306245    4.01561  0.6600E-10  0.2859E-07  0.1717E-11  0.1738E-03  0.0000E+00 -0.9334E+11
   -1.374997    4.01581  0.6600E-10  0.2872E-07  0.1739E-11  0.1732E-03  0.0000E+00 -0.9475E+11
   -1.443749    4.01601  0.6600E-10  0.2884E-07  0.1763E-11  0.1723E-03  0.0000E+00 -0.9616E+11
   -1.512502    4.01622  0.6600E-10  0.2893E-07  0.1789E-11  0.1710E-03  0.0000E+00 -0.9781E+11
   -1.581254    4.01643  0.6600E-10  0.2900E-07  0.1818E-11  0.1694E-03  0.0000E+00 -0.9972E+11
   -1.650006    4.01664  0.6600E-10  0.2906E-07  0.1850E-11  0.1674E-03  0.0000E+00 -0.1019E+12
   -1.718757    4.01685  0.6600E-10  0.2909E-07  0.1884E-11  0.1650E-03  0.0000E+00 -0.1045E+12
   -1.787509    4.01707  0.6600E-10  0.2910E-07  0.1923E-11  0.1622E-03  0.0000E+00 -0.1074E+12
   -1.856260    4.01729  0.6600E-10  0.2909E-07  0.1965E-11  0.1589E-03  0.0000E+00 -0.1107E+12
   -1.925012    4.01752  0.6600E-10  0.2906E-07  0.2012E-11  0.1553E-03  0.0000E+00 -0.1145E+12
   -1.993763    4.01775  0.6600E-10  0.2901E-07  0.2064E-11  0.1513E-03  0.0000E+00 -0.1189E+12
   -2.062513    4.01799  0.6600E-10  0.2892E-07  0.2123E-11  0.1467E-03  0.0000E+00 -0.1242E+12
   -2.131263    4.01824  0.6600E-10  0.2881E-07  0.2194E-11  0.1412E-03  0.0000E+00 -0.1309E+12
   -2.200013    4.01850  0.6600E-10  0.2865E-07  0.2281E-11  0.1350E-03  0.0000E+00 -0.1391E+12
   -2.268763    4.01878  0.6600E-10  0.2842E-07  0.2401E-11  0.1273E-03  0.0000E+00 -0.1503E+12
   -2.337512    4.01907  0.6600E-10  0.2806E-07  0.2585E-11  0.1022E-03  0.0000E+00 -0.1916E+12
   -2.406260    4.01944  0.6600E-10  0.2751E-07  0.2867E-11  0.7779E-04  0.0000E+00 -0.2594E+12
   -2.475008    4.01994  0.6600E-10  0.2667E-07  0.3325E-11  0.5795E-04  0.0000E+00 -0.3633E+12
   -2.543756    4.02062  0.6600E-10  0.2524E-07  0.4181E-11  0.3754E-04  0.0000E+00 -0.5937E+12
   -2.612503    4.02171  0.6600E-10  0.2255E-07  0.6123E-11  0.1770E-04  0.0000E+00 -0.1364E+13
   -2.681249    4.02409  0.6600E-10  0.1081E-07  0.1893E-10  0.1008E-05  0.0000E+00 -0.3493E+14
   -2.749995    4.06306  0.6600E-10  0.0000E+00  0.0000E+00  0.0000E+00  0.0000E+00  0.0000E+00
