 1 - depth, m
 2 - temperature, C
 3 - salinity, kg/kg
 4 - turbulent kinetic energy, m**2/s**2
 5 - dissipation rate, m**2/s**3
 6 - kinematic heat conductance, m**2/s
 7 - modulus of horizontal velocity, m/s
 8 - Richardson number, n/d
   -0.000000   -0.00000  0.3057E-09  0.1219E-13  0.7603E-17  0.1000E-09  0.0000E+00  0.1185E+17
   -0.068746    0.18214  0.1526E-09  0.1219E-13  0.7603E-17  0.1000E-09  0.0000E+00  0.1102E+17
   -0.137492    0.36041  0.1049E-09  0.1219E-13  0.7603E-17  0.1000E-09  0.0000E+00  0.1014E+17
   -0.206239    0.53311  0.8683E-10  0.1219E-13  0.7603E-17  0.1000E-09  0.0000E+00  0.9327E+16
   -0.274986    0.70038  0.8158E-10  0.1219E-13  0.7603E-17  0.1000E-09  0.0000E+00  0.8577E+16
   -0.343734    0.86256  0.8037E-10  0.1219E-13  0.7603E-17  0.1000E-09  0.0000E+00  0.7941E+16
   -0.412483    1.02104  0.8014E-10  0.1219E-13  0.7603E-17  0.1000E-09  0.0000E+00  0.7351E+16
   -0.481232    1.17612  0.8010E-10  0.2079E-13  0.7603E-17  0.1000E-09  0.0000E+00  0.6803E+16
   -0.549981    1.32809  0.8009E-10  0.7802E-13  0.1013E-16  0.1000E-09  0.0000E+00  0.6329E+16
   -0.618731    1.47811  0.8009E-10  0.1999E-12  0.2049E-16  0.1000E-09  0.0000E+00  0.5918E+16
   -0.687481    1.62738  0.8009E-10  0.4525E-12  0.4334E-16  0.1000E-09  0.0000E+00  0.5530E+16
   -0.756232    1.77633  0.8008E-10  0.9815E-12  0.9089E-16  0.1000E-09  0.0000E+00  0.5208E+16
   -0.824983    1.92681  0.8007E-10  0.2090E-11  0.1885E-15  0.1000E-09  0.0000E+00  0.4881E+16
   -0.893734    2.07900  0.8003E-10  0.4401E-11  0.3874E-15  0.1000E-09  0.0000E+00  0.4548E+16
   -0.962485    2.23304  0.7994E-10  0.9184E-11  0.7894E-15  0.1000E-09  0.0000E+00  0.4204E+16
   -1.031237    2.38899  0.7977E-10  0.1900E-10  0.1595E-14  0.1000E-09  0.0000E+00  0.3847E+16
   -1.099989    2.54685  0.7951E-10  0.3914E-10  0.3210E-14  0.1000E-09  0.0000E+00  0.3476E+16
   -1.168741    2.70658  0.7917E-10  0.8010E-10  0.6420E-14  0.1000E-09  0.0000E+00  0.3091E+16
   -1.237493    2.86804  0.7880E-10  0.1628E-09  0.1275E-13  0.1000E-09  0.0000E+00  0.2692E+16
   -1.306245    3.03107  0.7843E-10  0.3283E-09  0.2515E-13  0.1000E-09  0.0000E+00  0.2279E+16
   -1.374997    3.19541  0.7808E-10  0.6575E-09  0.4924E-13  0.1348E-09  0.0000E+00  0.1860E+16
   -1.443749    3.36120  0.7769E-10  0.1307E-08  0.9577E-13  0.3403E-09  0.0000E+00  0.1432E+16
   -1.512501    3.52863  0.7719E-10  0.2580E-08  0.1849E-12  0.9505E-09  0.0000E+00  0.9903E+15
   -1.581253    3.69684  0.7659E-10  0.5050E-08  0.3543E-12  0.3342E-08  0.0000E+00  0.5396E+15
   -1.650005    3.86325  0.7621E-10  0.9681E-08  0.6661E-12  0.2918E-07  0.0000E+00  0.1160E+15
   -1.718757    4.00488  0.7616E-10  0.1035E-07  0.7144E-12  0.5344E-04  0.0000E+00 -0.1328E+12
   -1.787509    4.00533  0.7616E-10  0.1065E-07  0.7414E-12  0.5445E-04  0.0000E+00 -0.1349E+12
   -1.856260    4.00577  0.7616E-10  0.1091E-07  0.7708E-12  0.5482E-04  0.0000E+00 -0.1387E+12
   -1.925011    4.00622  0.7616E-10  0.1113E-07  0.8032E-12  0.5455E-04  0.0000E+00 -0.1443E+12
   -1.993762    4.00668  0.7616E-10  0.1132E-07  0.8393E-12  0.5366E-04  0.0000E+00 -0.1520E+12
   -2.062513    4.00715  0.7616E-10  0.1147E-07  0.8806E-12  0.5228E-04  0.0000E+00 -0.1626E+12
   -2.131263    4.00764  0.7616E-10  0.1159E-07  0.9310E-12  0.5024E-04  0.0000E+00 -0.1774E+12
   -2.200013    4.00817  0.7616E-10  0.1168E-07  0.9938E-12  0.4740E-04  0.0000E+00 -0.1985E+12
   -2.268762    4.00874  0.7616E-10  0.1172E-07  0.1075E-11  0.4369E-04  0.0000E+00 -0.2292E+12
   -2.337511    4.00938  0.7616E-10  0.1170E-07  0.1184E-11  0.3902E-04  0.0000E+00 -0.2767E+12
   -2.406260    4.01014  0.7616E-10  0.1160E-07  0.1339E-11  0.3324E-04  0.0000E+00 -0.3569E+12
   -2.475008    4.01107  0.7616E-10  0.1136E-07  0.1584E-11  0.2621E-04  0.0000E+00 -0.5131E+12
   -2.543755    4.01236  0.7616E-10  0.1081E-07  0.2040E-11  0.1743E-04  0.0000E+00 -0.9057E+12
   -2.612502    4.01450  0.7616E-10  0.9582E-08  0.3099E-11  0.8001E-05  0.0000E+00 -0.2447E+13
   -2.681249    4.01958  0.7616E-10  0.5134E-08  0.8830E-11  0.6669E-06  0.0000E+00 -0.5786E+14
   -2.749994    4.07851  0.7616E-10  0.0000E+00  0.0000E+00  0.0000E+00  0.0000E+00  0.0000E+00
