 1 - depth, m
 2 - temperature, C
 3 - salinity, kg/kg
 4 - turbulent kinetic energy, m**2/s**2
 5 - dissipation rate, m**2/s**3
 6 - kinematic heat conductance, m**2/s
 7 - modulus of horizontal velocity, m/s
 8 - Richardson number, n/d
   -0.000000   -0.00000  0.1524E-09  0.8258E-13  0.1110E-16  0.1000E-09  0.0000E+00  0.1489E+17
   -0.068746    0.23041  0.1434E-09  0.1534E-12  0.1381E-16  0.1000E-09  0.0000E+00  0.1387E+17
   -0.137492    0.45948  0.1341E-09  0.3141E-12  0.2400E-16  0.1000E-09  0.0000E+00  0.1278E+17
   -0.206239    0.68545  0.1082E-09  0.6320E-12  0.4535E-16  0.1000E-09  0.0000E+00  0.1172E+17
   -0.274987    0.90819  0.8717E-10  0.1247E-11  0.8661E-16  0.1000E-09  0.0000E+00  0.1071E+17
   -0.343735    1.12772  0.7587E-10  0.2427E-11  0.1644E-15  0.1000E-09  0.0000E+00  0.9756E+16
   -0.412483    1.34431  0.7115E-10  0.4673E-11  0.3096E-15  0.1000E-09  0.0000E+00  0.8836E+16
   -0.481232    1.55788  0.6945E-10  0.8929E-11  0.5791E-15  0.1000E-09  0.0000E+00  0.7948E+16
   -0.549982    1.76825  0.6884E-10  0.1695E-10  0.1076E-14  0.1000E-09  0.0000E+00  0.7102E+16
   -0.618732    1.97549  0.6852E-10  0.3185E-10  0.1981E-14  0.1000E-09  0.0000E+00  0.6294E+16
   -0.687482    2.17963  0.6819E-10  0.5943E-10  0.3620E-14  0.1000E-09  0.0000E+00  0.5517E+16
   -0.756233    2.38049  0.6776E-10  0.1102E-09  0.6575E-14  0.1000E-09  0.0000E+00  0.4786E+16
   -0.824984    2.57840  0.6726E-10  0.2029E-09  0.1187E-13  0.1000E-09  0.0000E+00  0.4083E+16
   -0.893735    2.77316  0.6679E-10  0.3717E-09  0.2131E-13  0.1000E-09  0.0000E+00  0.3411E+16
   -0.962487    2.96458  0.6642E-10  0.6766E-09  0.3803E-13  0.1000E-09  0.0000E+00  0.2772E+16
   -1.031238    3.15254  0.6620E-10  0.1225E-08  0.6748E-13  0.1586E-09  0.0000E+00  0.2166E+16
   -1.099990    3.33682  0.6609E-10  0.2210E-08  0.1194E-12  0.3816E-09  0.0000E+00  0.1593E+16
   -1.168742    3.51699  0.6604E-10  0.3973E-08  0.2105E-12  0.1015E-08  0.0000E+00  0.1056E+16
   -1.237494    3.69253  0.6603E-10  0.7095E-08  0.3689E-12  0.3378E-08  0.0000E+00  0.5560E+15
   -1.306246    3.86153  0.6602E-10  0.1246E-07  0.6365E-12  0.2707E-07  0.0000E+00  0.1197E+15
   -1.374999    4.00383  0.6602E-10  0.1286E-07  0.6584E-12  0.9883E-04  0.0000E+00 -0.6624E+11
   -1.443751    4.00407  0.6602E-10  0.1303E-07  0.6691E-12  0.9991E-04  0.0000E+00 -0.6648E+11
   -1.512503    4.00431  0.6602E-10  0.1316E-07  0.6794E-12  0.1001E-03  0.0000E+00 -0.6734E+11
   -1.581255    4.00455  0.6602E-10  0.1328E-07  0.6905E-12  0.1001E-03  0.0000E+00 -0.6827E+11
   -1.650007    4.00478  0.6602E-10  0.1338E-07  0.7026E-12  0.9989E-04  0.0000E+00 -0.6942E+11
   -1.718759    4.00502  0.6602E-10  0.1346E-07  0.7158E-12  0.9931E-04  0.0000E+00 -0.7084E+11
   -1.787511    4.00526  0.6602E-10  0.1353E-07  0.7303E-12  0.9838E-04  0.0000E+00 -0.7256E+11
   -1.856262    4.00550  0.6602E-10  0.1358E-07  0.7467E-12  0.9704E-04  0.0000E+00 -0.7465E+11
   -1.925014    4.00575  0.6602E-10  0.1362E-07  0.7657E-12  0.9523E-04  0.0000E+00 -0.7721E+11
   -1.993765    4.00600  0.6602E-10  0.1364E-07  0.7883E-12  0.9299E-04  0.0000E+00 -0.8029E+11
   -2.062515    4.00626  0.6602E-10  0.1364E-07  0.8155E-12  0.8777E-04  0.0000E+00 -0.8662E+11
   -2.131266    4.00654  0.6602E-10  0.1361E-07  0.8499E-12  0.7923E-04  0.0000E+00 -0.9804E+11
   -2.200016    4.00684  0.6602E-10  0.1354E-07  0.8940E-12  0.7036E-04  0.0000E+00 -0.1132E+12
   -2.268765    4.00719  0.6602E-10  0.1343E-07  0.9520E-12  0.6214E-04  0.0000E+00 -0.1320E+12
   -2.337514    4.00759  0.6602E-10  0.1326E-07  0.1031E-11  0.5399E-04  0.0000E+00 -0.1575E+12
   -2.406263    4.00806  0.6602E-10  0.1299E-07  0.1145E-11  0.4493E-04  0.0000E+00 -0.1981E+12
   -2.475011    4.00863  0.6602E-10  0.1257E-07  0.1326E-11  0.3448E-04  0.0000E+00 -0.2743E+12
   -2.543758    4.00940  0.6602E-10  0.1183E-07  0.1667E-11  0.2233E-04  0.0000E+00 -0.4595E+12
   -2.612505    4.01064  0.6602E-10  0.1038E-07  0.2461E-11  0.1011E-04  0.0000E+00 -0.1142E+13
   -2.681252    4.01347  0.6602E-10  0.4782E-08  0.7239E-11  0.5746E-06  0.0000E+00 -0.3316E+14
   -2.749997    4.05683  0.6602E-10  0.0000E+00  0.0000E+00  0.0000E+00  0.0000E+00  0.0000E+00
