 1 - depth, m
 2 - temperature, C
 3 - salinity, kg/kg
 4 - turbulent kinetic energy, m**2/s**2
 5 - dissipation rate, m**2/s**3
 6 - kinematic heat conductance, m**2/s
 7 - modulus of horizontal velocity, m/s
 8 - Richardson number, n/d
   -0.000000   -0.00000  0.2038E-09  0.6860E-12  0.1467E-15  0.1000E-09  0.0000E+00  0.1646E+17
   -0.068746    0.25569  0.1293E-09  0.1619E-11  0.1851E-15  0.1000E-09  0.0000E+00  0.1513E+17
   -0.137492    0.50837  0.9088E-10  0.3750E-11  0.3501E-15  0.1000E-09  0.0000E+00  0.1378E+17
   -0.206239    0.75672  0.7491E-10  0.8160E-11  0.7133E-15  0.1000E-09  0.0000E+00  0.1254E+17
   -0.274986    1.00165  0.7016E-10  0.1722E-10  0.1456E-14  0.1000E-09  0.0000E+00  0.1140E+17
   -0.343734    1.24422  0.6905E-10  0.3569E-10  0.2944E-14  0.1000E-09  0.0000E+00  0.1038E+17
   -0.412483    1.48652  0.6883E-10  0.7317E-10  0.5897E-14  0.1000E-09  0.0000E+00  0.9403E+16
   -0.481232    1.72943  0.6879E-10  0.1488E-09  0.1172E-13  0.1000E-09  0.0000E+00  0.8453E+16
   -0.549981    1.97367  0.6878E-10  0.3002E-09  0.2314E-13  0.1000E-09  0.0000E+00  0.7535E+16
   -0.618731    2.22068  0.6878E-10  0.5994E-09  0.4521E-13  0.1000E-09  0.0000E+00  0.6622E+16
   -0.687482    2.47175  0.6877E-10  0.1187E-08  0.8764E-13  0.1000E-09  0.0000E+00  0.5675E+16
   -0.756232    2.72722  0.6875E-10  0.2335E-08  0.1687E-12  0.1823E-09  0.0000E+00  0.4710E+16
   -0.824983    2.98898  0.6866E-10  0.4561E-08  0.3226E-12  0.4479E-09  0.0000E+00  0.3668E+16
   -0.893734    3.25635  0.6834E-10  0.8846E-08  0.6128E-12  0.1223E-08  0.0000E+00  0.2551E+16
   -0.962486    3.52778  0.6740E-10  0.1701E-07  0.1155E-11  0.4271E-08  0.0000E+00  0.1377E+16
   -1.031237    3.79817  0.6607E-10  0.3189E-07  0.2126E-11  0.4020E-07  0.0000E+00  0.2700E+15
   -1.099989    4.01811  0.6585E-10  0.3242E-07  0.2163E-11  0.1823E-03  0.0000E+00 -0.1096E+12
   -1.168741    4.01833  0.6585E-10  0.3267E-07  0.2185E-11  0.1780E-03  0.0000E+00 -0.1141E+12
   -1.237493    4.01856  0.6585E-10  0.3289E-07  0.2208E-11  0.1782E-03  0.0000E+00 -0.1159E+12
   -1.306245    4.01879  0.6585E-10  0.3310E-07  0.2235E-11  0.1790E-03  0.0000E+00 -0.1175E+12
   -1.374998    4.01902  0.6585E-10  0.3328E-07  0.2264E-11  0.1901E-03  0.0000E+00 -0.1123E+12
   -1.443750    4.01924  0.6585E-10  0.3345E-07  0.2295E-11  0.1897E-03  0.0000E+00 -0.1140E+12
   -1.512502    4.01946  0.6585E-10  0.3359E-07  0.2331E-11  0.1770E-03  0.0000E+00 -0.1236E+12
   -1.581254    4.01969  0.6585E-10  0.3371E-07  0.2369E-11  0.1749E-03  0.0000E+00 -0.1267E+12
   -1.650006    4.01994  0.6585E-10  0.3380E-07  0.2412E-11  0.1730E-03  0.0000E+00 -0.1297E+12
   -1.718758    4.02018  0.6585E-10  0.3387E-07  0.2458E-11  0.1707E-03  0.0000E+00 -0.1332E+12
   -1.787509    4.02043  0.6585E-10  0.3391E-07  0.2509E-11  0.1679E-03  0.0000E+00 -0.1371E+12
   -1.856261    4.02069  0.6585E-10  0.3392E-07  0.2566E-11  0.1648E-03  0.0000E+00 -0.1417E+12
   -1.925012    4.02095  0.6585E-10  0.3391E-07  0.2629E-11  0.1611E-03  0.0000E+00 -0.1469E+12
   -1.993763    4.02122  0.6585E-10  0.3386E-07  0.2698E-11  0.1571E-03  0.0000E+00 -0.1529E+12
   -2.062514    4.02150  0.6585E-10  0.3379E-07  0.2778E-11  0.1524E-03  0.0000E+00 -0.1599E+12
   -2.131264    4.02179  0.6585E-10  0.3367E-07  0.2873E-11  0.1468E-03  0.0000E+00 -0.1686E+12
   -2.200014    4.02209  0.6585E-10  0.3349E-07  0.2989E-11  0.1402E-03  0.0000E+00 -0.1795E+12
   -2.268763    4.02241  0.6585E-10  0.3326E-07  0.3136E-11  0.1327E-03  0.0000E+00 -0.1934E+12
   -2.337512    4.02275  0.6585E-10  0.3290E-07  0.3350E-11  0.1187E-03  0.0000E+00 -0.2213E+12
   -2.406261    4.02313  0.6585E-10  0.3230E-07  0.3706E-11  0.8759E-04  0.0000E+00 -0.3089E+12
   -2.475009    4.02367  0.6585E-10  0.3135E-07  0.4289E-11  0.6373E-04  0.0000E+00 -0.4425E+12
   -2.543756    4.02441  0.6585E-10  0.2972E-07  0.5384E-11  0.4126E-04  0.0000E+00 -0.7226E+12
   -2.612503    4.02561  0.6585E-10  0.2664E-07  0.7856E-11  0.1961E-04  0.0000E+00 -0.1644E+13
   -2.681250    4.02819  0.6585E-10  0.1312E-07  0.2413E-10  0.1180E-05  0.0000E+00 -0.3967E+14
   -2.749995    4.06892  0.6585E-10  0.0000E+00  0.0000E+00  0.0000E+00  0.0000E+00  0.0000E+00
