 1 - depth, m
 2 - temperature, C
 3 - salinity, kg/kg
 4 - turbulent kinetic energy, m**2/s**2
 5 - dissipation rate, m**2/s**3
 6 - kinematic heat conductance, m**2/s
 7 - modulus of horizontal velocity, m/s
 8 - Richardson number, n/d
   -0.000000   -0.00000  0.1910E-09  0.2661E-12  0.4945E-16  0.1000E-09  0.0000E+00  0.1458E+17
   -0.068746    0.22545  0.1311E-09  0.5806E-12  0.6825E-16  0.1000E-09  0.0000E+00  0.1353E+17
   -0.137492    0.44836  0.8718E-10  0.1337E-11  0.1351E-15  0.1000E-09  0.0000E+00  0.1239E+17
   -0.206239    0.66644  0.7288E-10  0.2971E-11  0.2848E-15  0.1000E-09  0.0000E+00  0.1134E+17
   -0.274987    0.88022  0.6954E-10  0.6459E-11  0.6007E-15  0.1000E-09  0.0000E+00  0.1039E+17
   -0.343735    1.09072  0.6891E-10  0.1383E-10  0.1254E-14  0.1000E-09  0.0000E+00  0.9611E+16
   -0.412483    1.30088  0.6880E-10  0.2930E-10  0.2595E-14  0.1000E-09  0.0000E+00  0.8890E+16
   -0.481232    1.51186  0.6879E-10  0.6155E-10  0.5326E-14  0.1000E-09  0.0000E+00  0.8212E+16
   -0.549982    1.72496  0.6878E-10  0.1283E-09  0.1085E-13  0.1000E-09  0.0000E+00  0.7608E+16
   -0.618732    1.94295  0.6878E-10  0.2643E-09  0.2185E-13  0.1000E-09  0.0000E+00  0.7041E+16
   -0.687482    2.16867  0.6878E-10  0.5401E-09  0.4366E-13  0.1000E-09  0.0000E+00  0.6430E+16
   -0.756233    2.40362  0.6877E-10  0.1095E-08  0.8661E-13  0.1000E-09  0.0000E+00  0.5801E+16
   -0.824984    2.65163  0.6873E-10  0.2205E-08  0.1706E-12  0.1728E-09  0.0000E+00  0.5027E+16
   -0.893735    2.91309  0.6859E-10  0.4408E-08  0.3337E-12  0.4159E-09  0.0000E+00  0.4086E+16
   -0.962487    3.18760  0.6825E-10  0.8746E-08  0.6481E-12  0.1112E-08  0.0000E+00  0.2968E+16
   -1.031238    3.47349  0.6747E-10  0.1721E-07  0.1249E-11  0.3768E-08  0.0000E+00  0.1689E+16
   -1.099990    3.76556  0.6608E-10  0.3321E-07  0.2365E-11  0.3224E-07  0.0000E+00  0.3748E+15
   -1.168742    4.01818  0.6569E-10  0.3379E-07  0.2409E-11  0.1784E-03  0.0000E+00 -0.1242E+12
   -1.237494    4.01843  0.6569E-10  0.3407E-07  0.2434E-11  0.1743E-03  0.0000E+00 -0.1297E+12
   -1.306246    4.01869  0.6569E-10  0.3432E-07  0.2463E-11  0.1745E-03  0.0000E+00 -0.1322E+12
   -1.374999    4.01895  0.6569E-10  0.3455E-07  0.2495E-11  0.1745E-03  0.0000E+00 -0.1345E+12
   -1.443751    4.01921  0.6569E-10  0.3476E-07  0.2530E-11  0.1742E-03  0.0000E+00 -0.1367E+12
   -1.512503    4.01947  0.6569E-10  0.3494E-07  0.2569E-11  0.1735E-03  0.0000E+00 -0.1393E+12
   -1.581255    4.01974  0.6569E-10  0.3510E-07  0.2611E-11  0.1723E-03  0.0000E+00 -0.1423E+12
   -1.650007    4.02001  0.6569E-10  0.3523E-07  0.2658E-11  0.1707E-03  0.0000E+00 -0.1457E+12
   -1.718759    4.02029  0.6569E-10  0.3533E-07  0.2709E-11  0.1687E-03  0.0000E+00 -0.1497E+12
   -1.787511    4.02057  0.6569E-10  0.3540E-07  0.2766E-11  0.1662E-03  0.0000E+00 -0.1543E+12
   -1.856262    4.02085  0.6569E-10  0.3544E-07  0.2829E-11  0.1633E-03  0.0000E+00 -0.1596E+12
   -1.925013    4.02115  0.6569E-10  0.3545E-07  0.2898E-11  0.1599E-03  0.0000E+00 -0.1656E+12
   -1.993764    4.02145  0.6569E-10  0.3542E-07  0.2976E-11  0.1560E-03  0.0000E+00 -0.1726E+12
   -2.062515    4.02176  0.6569E-10  0.3536E-07  0.3064E-11  0.1515E-03  0.0000E+00 -0.1806E+12
   -2.131265    4.02209  0.6569E-10  0.3525E-07  0.3169E-11  0.1460E-03  0.0000E+00 -0.1905E+12
   -2.200015    4.02242  0.6569E-10  0.3508E-07  0.3298E-11  0.1396E-03  0.0000E+00 -0.2029E+12
   -2.268765    4.02278  0.6569E-10  0.3485E-07  0.3460E-11  0.1321E-03  0.0000E+00 -0.2189E+12
   -2.337514    4.02316  0.6569E-10  0.3449E-07  0.3695E-11  0.1221E-03  0.0000E+00 -0.2425E+12
   -2.406263    4.02358  0.6569E-10  0.3388E-07  0.4081E-11  0.8989E-04  0.0000E+00 -0.3395E+12
   -2.475011    4.02416  0.6569E-10  0.3290E-07  0.4717E-11  0.6494E-04  0.0000E+00 -0.4901E+12
   -2.543758    4.02498  0.6569E-10  0.3121E-07  0.5910E-11  0.4208E-04  0.0000E+00 -0.8006E+12
   -2.612505    4.02628  0.6569E-10  0.2799E-07  0.8605E-11  0.2008E-04  0.0000E+00 -0.1819E+13
   -2.681252    4.02909  0.6569E-10  0.1398E-07  0.2624E-10  0.1252E-05  0.0000E+00 -0.4311E+14
   -2.749997    4.07197  0.6569E-10  0.0000E+00  0.0000E+00  0.0000E+00  0.0000E+00  0.0000E+00
