 1 - depth, m
 2 - temperature, C
 3 - salinity, kg/kg
 4 - turbulent kinetic energy, m**2/s**2
 5 - dissipation rate, m**2/s**3
 6 - kinematic heat conductance, m**2/s
 7 - modulus of horizontal velocity, m/s
 8 - Richardson number, n/d
   -0.000000   -0.00000  0.1091E-09  0.1620E-12  0.2438E-16  0.1000E-09  0.0000E+00  0.1491E+17
   -0.068746    0.23075  0.1663E-09  0.3174E-12  0.2923E-16  0.1000E-09  0.0000E+00  0.1405E+17
   -0.137492    0.46294  0.1423E-09  0.6629E-12  0.5019E-16  0.1000E-09  0.0000E+00  0.1307E+17
   -0.206239    0.69451  0.1047E-09  0.1337E-11  0.9431E-16  0.1000E-09  0.0000E+00  0.1208E+17
   -0.274987    0.92503  0.8252E-10  0.2631E-11  0.1792E-15  0.1000E-09  0.0000E+00  0.1109E+17
   -0.343735    1.15413  0.7323E-10  0.5091E-11  0.3383E-15  0.1000E-09  0.0000E+00  0.1013E+17
   -0.412484    1.38183  0.7006E-10  0.9750E-11  0.6339E-15  0.1000E-09  0.0000E+00  0.9176E+16
   -0.481233    1.60767  0.6909E-10  0.1853E-10  0.1180E-14  0.1000E-09  0.0000E+00  0.8229E+16
   -0.549983    1.83110  0.6876E-10  0.3500E-10  0.2184E-14  0.1000E-09  0.0000E+00  0.7309E+16
   -0.618733    2.05191  0.6855E-10  0.6546E-10  0.4003E-14  0.1000E-09  0.0000E+00  0.6417E+16
   -0.687484    2.26983  0.6825E-10  0.1216E-09  0.7288E-14  0.1000E-09  0.0000E+00  0.5546E+16
   -0.756235    2.48423  0.6781E-10  0.2245E-09  0.1319E-13  0.1000E-09  0.0000E+00  0.4717E+16
   -0.824986    2.69505  0.6727E-10  0.4121E-09  0.2374E-13  0.1000E-09  0.0000E+00  0.3917E+16
   -0.893737    2.90156  0.6675E-10  0.7521E-09  0.4249E-13  0.1000E-09  0.0000E+00  0.3156E+16
   -0.962489    3.10315  0.6636E-10  0.1365E-08  0.7564E-13  0.1575E-09  0.0000E+00  0.2444E+16
   -1.031241    3.29941  0.6615E-10  0.2463E-08  0.1339E-12  0.3821E-09  0.0000E+00  0.1784E+16
   -1.099993    3.49013  0.6606E-10  0.4433E-08  0.2364E-12  0.1022E-08  0.0000E+00  0.1178E+16
   -1.168745    3.67514  0.6603E-10  0.7938E-08  0.4155E-12  0.3399E-08  0.0000E+00  0.6224E+15
   -1.237497    3.85339  0.6602E-10  0.1398E-07  0.7192E-12  0.2695E-07  0.0000E+00  0.1359E+15
   -1.306249    4.00468  0.6602E-10  0.1438E-07  0.7410E-12  0.1113E-03  0.0000E+00 -0.6571E+11
   -1.375002    4.00491  0.6602E-10  0.1454E-07  0.7518E-12  0.1094E-03  0.0000E+00 -0.6743E+11
   -1.443754    4.00514  0.6602E-10  0.1468E-07  0.7626E-12  0.1096E-03  0.0000E+00 -0.6822E+11
   -1.512507    4.00537  0.6602E-10  0.1480E-07  0.7743E-12  0.1097E-03  0.0000E+00 -0.6912E+11
   -1.581259    4.00560  0.6602E-10  0.1491E-07  0.7870E-12  0.1095E-03  0.0000E+00 -0.7023E+11
   -1.650011    4.00583  0.6602E-10  0.1500E-07  0.8009E-12  0.1090E-03  0.0000E+00 -0.7159E+11
   -1.718763    4.00606  0.6602E-10  0.1508E-07  0.8160E-12  0.1081E-03  0.0000E+00 -0.7320E+11
   -1.787515    4.00630  0.6602E-10  0.1514E-07  0.8326E-12  0.1069E-03  0.0000E+00 -0.7512E+11
   -1.856267    4.00654  0.6602E-10  0.1518E-07  0.8508E-12  0.1053E-03  0.0000E+00 -0.7736E+11
   -1.925018    4.00678  0.6602E-10  0.1521E-07  0.8709E-12  0.1034E-03  0.0000E+00 -0.8001E+11
   -1.993769    4.00703  0.6602E-10  0.1522E-07  0.8943E-12  0.1010E-03  0.0000E+00 -0.8317E+11
   -2.062520    4.00728  0.6602E-10  0.1521E-07  0.9231E-12  0.9794E-04  0.0000E+00 -0.8727E+11
   -2.131270    4.00755  0.6602E-10  0.1517E-07  0.9609E-12  0.9093E-04  0.0000E+00 -0.9594E+11
   -2.200021    4.00783  0.6602E-10  0.1509E-07  0.1010E-11  0.7952E-04  0.0000E+00 -0.1123E+12
   -2.268770    4.00816  0.6602E-10  0.1496E-07  0.1076E-11  0.6871E-04  0.0000E+00 -0.1337E+12
   -2.337520    4.00855  0.6602E-10  0.1476E-07  0.1166E-11  0.5893E-04  0.0000E+00 -0.1615E+12
   -2.406268    4.00901  0.6602E-10  0.1446E-07  0.1296E-11  0.4881E-04  0.0000E+00 -0.2037E+12
   -2.475017    4.00957  0.6602E-10  0.1400E-07  0.1503E-11  0.3738E-04  0.0000E+00 -0.2823E+12
   -2.543764    4.01034  0.6602E-10  0.1319E-07  0.1892E-11  0.2420E-04  0.0000E+00 -0.4720E+12
   -2.612511    4.01156  0.6602E-10  0.1161E-07  0.2794E-11  0.1102E-04  0.0000E+00 -0.1163E+13
   -2.681258    4.01435  0.6602E-10  0.5376E-08  0.8318E-11  0.6243E-06  0.0000E+00 -0.3384E+14
   -2.750004    4.05779  0.6602E-10  0.0000E+00  0.0000E+00  0.0000E+00  0.0000E+00  0.0000E+00
