 1 - depth, m
 2 - temperature, C
 3 - salinity, kg/kg
 4 - turbulent kinetic energy, m**2/s**2
 5 - dissipation rate, m**2/s**3
 6 - kinematic heat conductance, m**2/s
 7 - modulus of horizontal velocity, m/s
 8 - Richardson number, n/d
   -0.000000   -0.00000  0.1764E-09  0.1219E-13  0.7603E-17  0.1000E-09  0.0000E+00  0.1253E+17
   -0.068746    0.19302  0.1694E-09  0.1219E-13  0.7603E-17  0.1000E-09  0.0000E+00  0.1188E+17
   -0.137492    0.38622  0.1442E-09  0.1219E-13  0.7603E-17  0.1000E-09  0.0000E+00  0.1116E+17
   -0.206239    0.57819  0.1147E-09  0.1219E-13  0.7603E-17  0.1000E-09  0.0000E+00  0.1043E+17
   -0.274987    0.76868  0.9213E-10  0.1219E-13  0.7603E-17  0.1000E-09  0.0000E+00  0.9715E+16
   -0.343735    0.95744  0.7967E-10  0.4127E-13  0.7603E-17  0.1000E-09  0.0000E+00  0.9019E+16
   -0.412483    1.14446  0.7422E-10  0.1194E-12  0.1138E-16  0.1000E-09  0.0000E+00  0.8330E+16
   -0.481233    1.32946  0.7222E-10  0.2715E-12  0.2169E-16  0.1000E-09  0.0000E+00  0.7652E+16
   -0.549982    1.51214  0.7156E-10  0.5647E-12  0.4249E-16  0.1000E-09  0.0000E+00  0.6999E+16
   -0.618732    1.69248  0.7135E-10  0.1130E-11  0.8236E-16  0.1000E-09  0.0000E+00  0.6370E+16
   -0.687482    1.87050  0.7125E-10  0.2222E-11  0.1581E-15  0.1000E-09  0.0000E+00  0.5760E+16
   -0.756233    2.04598  0.7115E-10  0.4327E-11  0.3009E-15  0.1000E-09  0.0000E+00  0.5179E+16
   -0.824984    2.21911  0.7099E-10  0.8357E-11  0.5688E-15  0.1000E-09  0.0000E+00  0.4616E+16
   -0.893735    2.38964  0.7074E-10  0.1603E-10  0.1068E-14  0.1000E-09  0.0000E+00  0.4071E+16
   -0.962487    2.55731  0.7038E-10  0.3053E-10  0.1991E-14  0.1000E-09  0.0000E+00  0.3547E+16
   -1.031239    2.72187  0.6995E-10  0.5778E-10  0.3690E-14  0.1000E-09  0.0000E+00  0.3045E+16
   -1.099991    2.88296  0.6951E-10  0.1090E-09  0.6815E-14  0.1000E-09  0.0000E+00  0.2564E+16
   -1.168743    3.04008  0.6913E-10  0.2046E-09  0.1253E-13  0.1000E-09  0.0000E+00  0.2112E+16
   -1.237495    3.19295  0.6887E-10  0.3820E-09  0.2293E-13  0.1000E-09  0.0000E+00  0.1692E+16
   -1.306247    3.34140  0.6872E-10  0.7091E-09  0.4170E-13  0.1628E-09  0.0000E+00  0.1303E+16
   -1.374999    3.48531  0.6865E-10  0.1308E-08  0.7541E-13  0.4035E-09  0.0000E+00  0.9512E+15
   -1.443752    3.62521  0.6862E-10  0.2399E-08  0.1356E-12  0.1096E-08  0.0000E+00  0.6299E+15
   -1.512504    3.76192  0.6862E-10  0.4368E-08  0.2420E-12  0.3750E-08  0.0000E+00  0.3285E+15
   -1.581256    3.89403  0.6861E-10  0.7791E-08  0.4242E-12  0.3334E-07  0.0000E+00  0.6475E+14
   -1.650008    4.00234  0.6861E-10  0.8237E-08  0.4498E-12  0.5617E-04  0.0000E+00 -0.8483E+11
   -1.718760    4.00267  0.6861E-10  0.8435E-08  0.4636E-12  0.5675E-04  0.0000E+00 -0.8564E+11
   -1.787512    4.00300  0.6861E-10  0.8606E-08  0.4784E-12  0.5680E-04  0.0000E+00 -0.8725E+11
   -1.856263    4.00333  0.6861E-10  0.8750E-08  0.4942E-12  0.5632E-04  0.0000E+00 -0.8971E+11
   -1.925014    4.00367  0.6861E-10  0.8868E-08  0.5116E-12  0.5531E-04  0.0000E+00 -0.9311E+11
   -1.993765    4.00401  0.6861E-10  0.8960E-08  0.5308E-12  0.5378E-04  0.0000E+00 -0.9763E+11
   -2.062516    4.00436  0.6861E-10  0.9026E-08  0.5527E-12  0.5195E-04  0.0000E+00 -0.1038E+12
   -2.131267    4.00472  0.6861E-10  0.9067E-08  0.5794E-12  0.4956E-04  0.0000E+00 -0.1125E+12
   -2.200017    4.00511  0.6861E-10  0.9078E-08  0.6126E-12  0.4644E-04  0.0000E+00 -0.1247E+12
   -2.268766    4.00552  0.6861E-10  0.9054E-08  0.6554E-12  0.4250E-04  0.0000E+00 -0.1423E+12
   -2.337515    4.00599  0.6861E-10  0.8981E-08  0.7130E-12  0.3765E-04  0.0000E+00 -0.1693E+12
   -2.406264    4.00653  0.6861E-10  0.8838E-08  0.7957E-12  0.3177E-04  0.0000E+00 -0.2143E+12
   -2.475012    4.00720  0.6861E-10  0.8577E-08  0.9266E-12  0.2469E-04  0.0000E+00 -0.3013E+12
   -2.543760    4.00810  0.6861E-10  0.8075E-08  0.1172E-11  0.1609E-04  0.0000E+00 -0.5190E+12
   -2.612507    4.00957  0.6861E-10  0.7026E-08  0.1750E-11  0.7143E-05  0.0000E+00 -0.1376E+13
   -2.681253    4.01308  0.6861E-10  0.3357E-08  0.4915E-11  0.4628E-06  0.0000E+00 -0.3683E+14
   -2.749999    4.05994  0.6861E-10  0.0000E+00  0.0000E+00  0.0000E+00  0.0000E+00  0.0000E+00
