 1 - depth, m
 2 - temperature, C
 3 - salinity, kg/kg
 4 - turbulent kinetic energy, m**2/s**2
 5 - dissipation rate, m**2/s**3
 6 - kinematic heat conductance, m**2/s
 7 - modulus of horizontal velocity, m/s
 8 - Richardson number, n/d
   -0.000000   -0.00000  0.3155E-09  0.1219E-13  0.7603E-17  0.1000E-09  0.0000E+00  0.1134E+17
   -0.068746    0.17422  0.1384E-09  0.1219E-13  0.7603E-17  0.1000E-09  0.0000E+00  0.1041E+17
   -0.137492    0.34189  0.9221E-10  0.1219E-13  0.7603E-17  0.1000E-09  0.0000E+00  0.9351E+16
   -0.206239    0.49986  0.8199E-10  0.1219E-13  0.7603E-17  0.1000E-09  0.0000E+00  0.8372E+16
   -0.274987    0.64801  0.8034E-10  0.1219E-13  0.7603E-17  0.1000E-09  0.0000E+00  0.7497E+16
   -0.343735    0.78684  0.8012E-10  0.1219E-13  0.7603E-17  0.1000E-09  0.0000E+00  0.6831E+16
   -0.412484    0.91911  0.8010E-10  0.1219E-13  0.7603E-17  0.1000E-09  0.0000E+00  0.6239E+16
   -0.481233    1.04539  0.8009E-10  0.1219E-13  0.7603E-17  0.1000E-09  0.0000E+00  0.5716E+16
   -0.549982    1.16630  0.8009E-10  0.1219E-13  0.7603E-17  0.1000E-09  0.0000E+00  0.5336E+16
   -0.618732    1.28428  0.8009E-10  0.1626E-13  0.7603E-17  0.1000E-09  0.0000E+00  0.5084E+16
   -0.687483    1.40193  0.8009E-10  0.6847E-13  0.1084E-16  0.1000E-09  0.0000E+00  0.4877E+16
   -0.756233    1.52030  0.8009E-10  0.1896E-12  0.2427E-16  0.1000E-09  0.0000E+00  0.4784E+16
   -0.824984    1.64246  0.8009E-10  0.4649E-12  0.5615E-16  0.1000E-09  0.0000E+00  0.4699E+16
   -0.893736    1.76926  0.8007E-10  0.1097E-11  0.1283E-15  0.1000E-09  0.0000E+00  0.4613E+16
   -0.962487    1.90153  0.8002E-10  0.2547E-11  0.2898E-15  0.1000E-09  0.0000E+00  0.4517E+16
   -1.031239    2.04003  0.7989E-10  0.5842E-11  0.6477E-15  0.1000E-09  0.0000E+00  0.4392E+16
   -1.099991    2.18525  0.7966E-10  0.1331E-10  0.1439E-14  0.1000E-09  0.0000E+00  0.4216E+16
   -1.168743    2.33702  0.7932E-10  0.3010E-10  0.3172E-14  0.1000E-09  0.0000E+00  0.4006E+16
   -1.237495    2.49587  0.7891E-10  0.6746E-10  0.6932E-14  0.1000E-09  0.0000E+00  0.3750E+16
   -1.306247    2.66220  0.7851E-10  0.1498E-09  0.1502E-13  0.1000E-09  0.0000E+00  0.3439E+16
   -1.375000    2.83617  0.7819E-10  0.3299E-09  0.3227E-13  0.1000E-09  0.0000E+00  0.3080E+16
   -1.443752    3.01876  0.7789E-10  0.7203E-09  0.6877E-13  0.1314E-09  0.0000E+00  0.2664E+16
   -1.512504    3.21127  0.7752E-10  0.1559E-08  0.1453E-12  0.3437E-09  0.0000E+00  0.2153E+16
   -1.581256    3.41294  0.7703E-10  0.3346E-08  0.3047E-12  0.1001E-08  0.0000E+00  0.1549E+16
   -1.650008    3.62235  0.7650E-10  0.7110E-08  0.6326E-12  0.3733E-08  0.0000E+00  0.8633E+15
   -1.718760    3.83556  0.7612E-10  0.1470E-07  0.1281E-11  0.3794E-07  0.0000E+00  0.1725E+15
   -1.787512    4.01366  0.7605E-10  0.1569E-07  0.1373E-11  0.6562E-04  0.0000E+00 -0.2120E+12
   -1.856264    4.01415  0.7605E-10  0.1613E-07  0.1423E-11  0.6818E-04  0.0000E+00 -0.2114E+12
   -1.925015    4.01463  0.7605E-10  0.1649E-07  0.1477E-11  0.6898E-04  0.0000E+00 -0.2163E+12
   -1.993766    4.01512  0.7605E-10  0.1679E-07  0.1536E-11  0.6844E-04  0.0000E+00 -0.2257E+12
   -2.062517    4.01561  0.7605E-10  0.1703E-07  0.1603E-11  0.6695E-04  0.0000E+00 -0.2392E+12
   -2.131267    4.01613  0.7605E-10  0.1722E-07  0.1684E-11  0.6441E-04  0.0000E+00 -0.2588E+12
   -2.200017    4.01668  0.7605E-10  0.1736E-07  0.1786E-11  0.6042E-04  0.0000E+00 -0.2884E+12
   -2.268767    4.01728  0.7605E-10  0.1743E-07  0.1918E-11  0.5547E-04  0.0000E+00 -0.3309E+12
   -2.337516    4.01796  0.7605E-10  0.1741E-07  0.2093E-11  0.4963E-04  0.0000E+00 -0.3937E+12
   -2.406265    4.01874  0.7605E-10  0.1726E-07  0.2342E-11  0.4261E-04  0.0000E+00 -0.4963E+12
   -2.475013    4.01970  0.7605E-10  0.1690E-07  0.2730E-11  0.3398E-04  0.0000E+00 -0.6909E+12
   -2.543760    4.02100  0.7605E-10  0.1613E-07  0.3441E-11  0.2308E-04  0.0000E+00 -0.1161E+13
   -2.612507    4.02308  0.7605E-10  0.1441E-07  0.5052E-11  0.1110E-04  0.0000E+00 -0.2873E+13
   -2.681254    4.02777  0.7605E-10  0.7686E-08  0.1419E-10  0.8942E-06  0.0000E+00 -0.6364E+14
   -2.749999    4.08557  0.7605E-10  0.0000E+00  0.0000E+00  0.0000E+00  0.0000E+00  0.0000E+00
