 1 - depth, m
 2 - temperature, C
 3 - salinity, kg/kg
 4 - turbulent kinetic energy, m**2/s**2
 5 - dissipation rate, m**2/s**3
 6 - kinematic heat conductance, m**2/s
 7 - modulus of horizontal velocity, m/s
 8 - Richardson number, n/d
   -0.000000   -0.00000  0.3473E-09  0.1107E-11  0.2458E-15  0.1000E-09  0.0000E+00  0.1829E+17
   -0.068746    0.28522  0.1647E-09  0.2670E-11  0.2668E-15  0.1000E-09  0.0000E+00  0.1683E+17
   -0.137492    0.57006  0.9259E-10  0.5967E-11  0.4467E-15  0.1000E-09  0.0000E+00  0.1527E+17
   -0.206239    0.85231  0.7449E-10  0.1219E-10  0.8297E-15  0.1000E-09  0.0000E+00  0.1375E+17
   -0.274987    1.13149  0.7019E-10  0.2384E-10  0.1559E-14  0.1000E-09  0.0000E+00  0.1226E+17
   -0.343735    1.40717  0.6911E-10  0.4564E-10  0.2909E-14  0.1000E-09  0.0000E+00  0.1083E+17
   -0.412483    1.67908  0.6885E-10  0.8630E-10  0.5386E-14  0.1000E-09  0.0000E+00  0.9432E+16
   -0.481233    1.94657  0.6878E-10  0.1620E-09  0.9910E-14  0.1000E-09  0.0000E+00  0.8083E+16
   -0.549982    2.20877  0.6872E-10  0.3022E-09  0.1813E-13  0.1000E-09  0.0000E+00  0.6795E+16
   -0.618732    2.46490  0.6860E-10  0.5587E-09  0.3289E-13  0.1000E-09  0.0000E+00  0.5574E+16
   -0.687483    2.71401  0.6831E-10  0.1026E-08  0.5928E-13  0.1000E-09  0.0000E+00  0.4428E+16
   -0.756233    2.95497  0.6776E-10  0.1875E-08  0.1063E-12  0.1597E-09  0.0000E+00  0.3388E+16
   -0.824984    3.18792  0.6701E-10  0.3406E-08  0.1895E-12  0.3955E-09  0.0000E+00  0.2439E+16
   -0.893736    3.41230  0.6639E-10  0.6153E-08  0.3361E-12  0.1077E-08  0.0000E+00  0.1588E+16
   -0.962487    3.62821  0.6610E-10  0.1104E-07  0.5924E-12  0.3640E-08  0.0000E+00  0.8283E+15
   -1.031239    3.83488  0.6603E-10  0.1946E-07  0.1027E-11  0.2965E-07  0.0000E+00  0.1763E+15
   -1.099991    4.00773  0.6602E-10  0.1981E-07  0.1047E-11  0.1449E-03  0.0000E+00 -0.6861E+11
   -1.168743    4.00793  0.6602E-10  0.1997E-07  0.1058E-11  0.1417E-03  0.0000E+00 -0.7100E+11
   -1.237495    4.00814  0.6602E-10  0.2013E-07  0.1070E-11  0.1420E-03  0.0000E+00 -0.7182E+11
   -1.306247    4.00835  0.6602E-10  0.2026E-07  0.1083E-11  0.1421E-03  0.0000E+00 -0.7269E+11
   -1.374999    4.00856  0.6602E-10  0.2039E-07  0.1098E-11  0.1419E-03  0.0000E+00 -0.7373E+11
   -1.443752    4.00877  0.6602E-10  0.2050E-07  0.1114E-11  0.1415E-03  0.0000E+00 -0.7495E+11
   -1.512504    4.00898  0.6602E-10  0.2060E-07  0.1132E-11  0.1407E-03  0.0000E+00 -0.7638E+11
   -1.581256    4.00920  0.6602E-10  0.2068E-07  0.1151E-11  0.1396E-03  0.0000E+00 -0.7804E+11
   -1.650008    4.00941  0.6602E-10  0.2074E-07  0.1172E-11  0.1381E-03  0.0000E+00 -0.7994E+11
   -1.718760    4.00963  0.6602E-10  0.2079E-07  0.1195E-11  0.1363E-03  0.0000E+00 -0.8213E+11
   -1.787512    4.00986  0.6602E-10  0.2083E-07  0.1220E-11  0.1341E-03  0.0000E+00 -0.8463E+11
   -1.856263    4.01009  0.6602E-10  0.2085E-07  0.1248E-11  0.1316E-03  0.0000E+00 -0.8750E+11
   -1.925015    4.01032  0.6602E-10  0.2085E-07  0.1278E-11  0.1287E-03  0.0000E+00 -0.9081E+11
   -1.993766    4.01056  0.6602E-10  0.2083E-07  0.1312E-11  0.1255E-03  0.0000E+00 -0.9458E+11
   -2.062516    4.01081  0.6602E-10  0.2078E-07  0.1351E-11  0.1217E-03  0.0000E+00 -0.9915E+11
   -2.131267    4.01106  0.6602E-10  0.2072E-07  0.1397E-11  0.1173E-03  0.0000E+00 -0.1049E+12
   -2.200017    4.01133  0.6602E-10  0.2061E-07  0.1459E-11  0.1118E-03  0.0000E+00 -0.1122E+12
   -2.268766    4.01162  0.6602E-10  0.2043E-07  0.1549E-11  0.9575E-04  0.0000E+00 -0.1343E+12
   -2.337515    4.01195  0.6602E-10  0.2016E-07  0.1679E-11  0.7731E-04  0.0000E+00 -0.1714E+12
   -2.406264    4.01238  0.6602E-10  0.1976E-07  0.1870E-11  0.6198E-04  0.0000E+00 -0.2223E+12
   -2.475012    4.01292  0.6602E-10  0.1914E-07  0.2175E-11  0.4699E-04  0.0000E+00 -0.3093E+12
   -2.543760    4.01365  0.6602E-10  0.1808E-07  0.2745E-11  0.3036E-04  0.0000E+00 -0.5138E+12
   -2.612507    4.01482  0.6602E-10  0.1605E-07  0.4053E-11  0.1404E-04  0.0000E+00 -0.1230E+13
   -2.681253    4.01746  0.6602E-10  0.7549E-08  0.1241E-10  0.7907E-06  0.0000E+00 -0.3500E+14
   -2.749999    4.06008  0.6602E-10  0.0000E+00  0.0000E+00  0.0000E+00  0.0000E+00  0.0000E+00
