 1 - depth, m
 2 - temperature, C
 3 - salinity, kg/kg
 4 - turbulent kinetic energy, m**2/s**2
 5 - dissipation rate, m**2/s**3
 6 - kinematic heat conductance, m**2/s
 7 - modulus of horizontal velocity, m/s
 8 - Richardson number, n/d
   -0.000000    2.34612  0.6609E-10  0.3894E-03  0.2507E-03  0.1167E-03  0.2139E+00  0.9663E-02
   -0.068746    2.38915  0.6610E-10  0.2134E-03  0.6672E-04  0.3146E-03  0.6951E-01  0.2078E-01
   -0.137492    2.40418  0.6612E-10  0.1535E-03  0.2887E-04  0.2745E-03  0.5526E-01  0.4931E-01
   -0.206239    2.41825  0.6613E-10  0.1134E-03  0.1316E-04  0.2537E-03  0.4721E-01  0.1544E+00
   -0.274987    2.43254  0.6615E-10  0.8613E-04  0.6443E-05  0.2462E-03  0.4141E-01  0.4973E-01
   -0.343735    2.44880  0.6617E-10  0.6782E-04  0.3401E-05  0.2428E-03  0.3693E-01  0.6742E-01
   -0.412483    2.46887  0.6620E-10  0.5471E-04  0.1932E-05  0.2456E-03  0.3294E-01  0.9639E-01
   -0.481232    2.49809  0.6623E-10  0.4520E-04  0.1183E-05  0.2534E-03  0.2948E-01  0.1843E+00
   -0.549982    2.56903  0.6632E-10  0.3850E-04  0.7774E-06  0.2629E-03  0.2637E-01  0.2228E+00
   -0.618732    2.82268  0.6661E-10  0.3388E-04  0.5423E-06  0.2730E-03  0.2315E-01  0.1442E+00
   -0.687482    3.05313  0.6688E-10  0.3049E-04  0.3965E-06  0.2862E-03  0.2027E-01  0.8845E-01
   -0.756233    3.15539  0.6701E-10  0.2786E-04  0.3018E-06  0.3017E-03  0.1803E-01  0.3008E-01
   -0.824984    3.22841  0.6710E-10  0.2574E-04  0.2377E-06  0.3182E-03  0.1610E-01 -0.5898E-01
   -0.893735    3.29087  0.6718E-10  0.2396E-04  0.1925E-06  0.3363E-03  0.1439E-01  0.6093E+00
   -0.962487    3.34217  0.6724E-10  0.2238E-04  0.1591E-06  0.3542E-03  0.1286E-01  0.2136E+03
   -1.031238    3.38173  0.6729E-10  0.2087E-04  0.1331E-06  0.3661E-03  0.1148E-01  0.7075E+03
   -1.099990    3.41474  0.6733E-10  0.1934E-04  0.1114E-06  0.3807E-03  0.1021E-01  0.4078E+02
   -1.168742    3.44832  0.6737E-10  0.1791E-04  0.9395E-07  0.3912E-03  0.9101E-02  0.4097E+02
   -1.237494    3.48725  0.6742E-10  0.1658E-04  0.7971E-07  0.4016E-03  0.8114E-02  0.3632E+03
   -1.306247    3.52697  0.6747E-10  0.1536E-04  0.6799E-07  0.4098E-03  0.7253E-02  0.1056E+04
   -1.374999    3.56841  0.6752E-10  0.1423E-04  0.5833E-07  0.4177E-03  0.6483E-02  0.1297E+04
   -1.443751    3.59725  0.6755E-10  0.1319E-04  0.5030E-07  0.4246E-03  0.5792E-02  0.1285E+04
   -1.512503    3.62529  0.6758E-10  0.1224E-04  0.4356E-07  0.4259E-03  0.5162E-02  0.5981E+04
   -1.581255    3.65295  0.6762E-10  0.1137E-04  0.3792E-07  0.4282E-03  0.4592E-02  0.8342E+04
   -1.650007    3.67884  0.6764E-10  0.1058E-04  0.3318E-07  0.4221E-03  0.4075E-02  0.8520E+02
   -1.718759    3.70496  0.6767E-10  0.9848E-05  0.2918E-07  0.4203E-03  0.3598E-02  0.3100E+03
   -1.787511    3.73079  0.6770E-10  0.9184E-05  0.2581E-07  0.4177E-03  0.3159E-02  0.1343E+03
   -1.856262    3.75569  0.6772E-10  0.8574E-05  0.2297E-07  0.4131E-03  0.2750E-02  0.2593E+03
   -1.925014    3.78256  0.6774E-10  0.8010E-05  0.2055E-07  0.4073E-03  0.2357E-02  0.2201E+03
   -1.993765    3.81380  0.6777E-10  0.7490E-05  0.1846E-07  0.3991E-03  0.1978E-02  0.2467E+03
   -2.062515    3.84084  0.6779E-10  0.7001E-05  0.1664E-07  0.3970E-03  0.1624E-02  0.1165E+04
   -2.131266    3.85931  0.6780E-10  0.6539E-05  0.1509E-07  0.3937E-03  0.1346E-02  0.9778E+03
   -2.200016    3.87515  0.6780E-10  0.6103E-05  0.1378E-07  0.3856E-03  0.1120E-02  0.1533E+05
   -2.268765    3.89113  0.6781E-10  0.5691E-05  0.1271E-07  0.3727E-03  0.9322E-03  0.1987E+05
   -2.337514    3.90608  0.6782E-10  0.5297E-05  0.1189E-07  0.3538E-03  0.7759E-03  0.2005E+05
   -2.406263    3.91942  0.6782E-10  0.4907E-05  0.1134E-07  0.3269E-03  0.6446E-03  0.6660E+05
   -2.475011    3.93250  0.6783E-10  0.4503E-05  0.1115E-07  0.2881E-03  0.5344E-03  0.1274E+06
   -2.543759    3.94557  0.6783E-10  0.4038E-05  0.1160E-07  0.2340E-03  0.4446E-03  0.2645E+07
   -2.612505    3.95948  0.6783E-10  0.3457E-05  0.1365E-07  0.1377E-03  0.3715E-03 -0.2512E+05
   -2.681252    3.97945  0.6783E-10  0.1457E-05  0.3343E-07  0.9982E-05  0.3086E-03 -0.1616E+08
   -2.749998    4.19042  0.6784E-10  0.0000E+00  0.0000E+00  0.0000E+00  0.3035E-03  0.0000E+00
