 1 - depth, m
 2 - temperature, C
 3 - salinity, kg/kg
 4 - turbulent kinetic energy, m**2/s**2
 5 - dissipation rate, m**2/s**3
 6 - kinematic heat conductance, m**2/s
 7 - modulus of horizontal velocity, m/s
 8 - Richardson number, n/d
   -0.000000   -0.00000  0.3345E-09  0.1807E-11  0.4550E-15  0.1000E-09  0.0000E+00  0.1900E+17
   -0.068746    0.29681  0.1174E-09  0.4697E-11  0.5035E-15  0.1000E-09  0.0000E+00  0.1717E+17
   -0.137492    0.58873  0.8504E-10  0.1085E-10  0.8735E-15  0.1000E-09  0.0000E+00  0.1537E+17
   -0.206239    0.87469  0.7352E-10  0.2271E-10  0.1669E-14  0.1000E-09  0.0000E+00  0.1371E+17
   -0.274986    1.15545  0.6993E-10  0.4547E-10  0.3214E-14  0.1000E-09  0.0000E+00  0.1217E+17
   -0.343734    1.43172  0.6902E-10  0.8904E-10  0.6132E-14  0.1000E-09  0.0000E+00  0.1074E+17
   -0.412482    1.70452  0.6883E-10  0.1722E-09  0.1160E-13  0.1000E-09  0.0000E+00  0.9391E+16
   -0.481231    1.97428  0.6879E-10  0.3305E-09  0.2180E-13  0.1000E-09  0.0000E+00  0.8097E+16
   -0.549981    2.24125  0.6878E-10  0.6299E-09  0.4070E-13  0.1000E-09  0.0000E+00  0.6862E+16
   -0.618730    2.50594  0.6876E-10  0.1189E-08  0.7527E-13  0.1000E-09  0.0000E+00  0.5674E+16
   -0.687481    2.76869  0.6871E-10  0.2228E-08  0.1382E-12  0.1558E-09  0.0000E+00  0.4518E+16
   -0.756231    3.02936  0.6853E-10  0.4149E-08  0.2523E-12  0.3771E-09  0.0000E+00  0.3406E+16
   -0.824982    3.28878  0.6800E-10  0.7677E-08  0.4578E-12  0.1008E-08  0.0000E+00  0.2312E+16
   -0.893733    3.54573  0.6697E-10  0.1410E-07  0.8249E-12  0.3373E-08  0.0000E+00  0.1245E+16
   -0.962484    3.79665  0.6610E-10  0.2545E-07  0.1462E-11  0.2682E-07  0.0000E+00  0.2777E+15
   -1.031236    4.01059  0.6597E-10  0.2585E-07  0.1487E-11  0.1700E-03  0.0000E+00 -0.8013E+11
   -1.099988    4.01080  0.6597E-10  0.2604E-07  0.1501E-11  0.1661E-03  0.0000E+00 -0.8327E+11
   -1.168739    4.01101  0.6597E-10  0.2622E-07  0.1517E-11  0.1663E-03  0.0000E+00 -0.8454E+11
   -1.237491    4.01123  0.6597E-10  0.2638E-07  0.1534E-11  0.1665E-03  0.0000E+00 -0.8590E+11
   -1.306243    4.01145  0.6597E-10  0.2653E-07  0.1554E-11  0.1663E-03  0.0000E+00 -0.8745E+11
   -1.374996    4.01167  0.6597E-10  0.2666E-07  0.1575E-11  0.1658E-03  0.0000E+00 -0.8908E+11
   -1.443748    4.01189  0.6597E-10  0.2678E-07  0.1598E-11  0.1649E-03  0.0000E+00 -0.9067E+11
   -1.512500    4.01212  0.6597E-10  0.2688E-07  0.1623E-11  0.1637E-03  0.0000E+00 -0.9250E+11
   -1.581252    4.01235  0.6597E-10  0.2696E-07  0.1650E-11  0.1621E-03  0.0000E+00 -0.9459E+11
   -1.650003    4.01258  0.6597E-10  0.2702E-07  0.1680E-11  0.1602E-03  0.0000E+00 -0.9698E+11
   -1.718755    4.01281  0.6597E-10  0.2706E-07  0.1713E-11  0.1579E-03  0.0000E+00 -0.9970E+11
   -1.787507    4.01305  0.6597E-10  0.2709E-07  0.1749E-11  0.1552E-03  0.0000E+00 -0.1028E+12
   -1.856258    4.01330  0.6597E-10  0.2709E-07  0.1789E-11  0.1522E-03  0.0000E+00 -0.1063E+12
   -1.925009    4.01355  0.6597E-10  0.2707E-07  0.1834E-11  0.1487E-03  0.0000E+00 -0.1104E+12
   -1.993760    4.01380  0.6597E-10  0.2703E-07  0.1883E-11  0.1448E-03  0.0000E+00 -0.1150E+12
   -2.062510    4.01407  0.6597E-10  0.2697E-07  0.1939E-11  0.1404E-03  0.0000E+00 -0.1205E+12
   -2.131261    4.01435  0.6597E-10  0.2687E-07  0.2006E-11  0.1351E-03  0.0000E+00 -0.1273E+12
   -2.200010    4.01463  0.6597E-10  0.2673E-07  0.2087E-11  0.1291E-03  0.0000E+00 -0.1358E+12
   -2.268760    4.01494  0.6597E-10  0.2652E-07  0.2201E-11  0.1216E-03  0.0000E+00 -0.1472E+12
   -2.337509    4.01526  0.6597E-10  0.2619E-07  0.2375E-11  0.9680E-04  0.0000E+00 -0.1898E+12
   -2.406257    4.01568  0.6597E-10  0.2568E-07  0.2641E-11  0.7429E-04  0.0000E+00 -0.2558E+12
   -2.475005    4.01623  0.6597E-10  0.2490E-07  0.3069E-11  0.5548E-04  0.0000E+00 -0.3590E+12
   -2.543753    4.01699  0.6597E-10  0.2356E-07  0.3870E-11  0.3587E-04  0.0000E+00 -0.5913E+12
   -2.612499    4.01819  0.6597E-10  0.2103E-07  0.5695E-11  0.1681E-04  0.0000E+00 -0.1382E+13
   -2.681246    4.02085  0.6597E-10  0.1011E-07  0.1761E-10  0.9752E-06  0.0000E+00 -0.3712E+14
   -2.749991    4.06335  0.6597E-10  0.0000E+00  0.0000E+00  0.0000E+00  0.0000E+00  0.0000E+00
