 1 - depth, m
 2 - temperature, C
 3 - salinity, kg/kg
 4 - turbulent kinetic energy, m**2/s**2
 5 - dissipation rate, m**2/s**3
 6 - kinematic heat conductance, m**2/s
 7 - modulus of horizontal velocity, m/s
 8 - Richardson number, n/d
   -0.000000   -0.00000  0.7154E-10  0.1732E-13  0.7603E-17  0.1000E-09  0.0000E+00  0.1219E+17
   -0.068746    0.18751  0.1342E-09  0.4939E-13  0.7603E-17  0.1000E-09  0.0000E+00  0.1211E+17
   -0.137494    0.38410  0.1324E-09  0.1280E-12  0.9878E-17  0.1000E-09  0.0000E+00  0.1168E+17
   -0.206241    0.58518  0.1156E-09  0.2672E-12  0.1639E-16  0.1000E-09  0.0000E+00  0.1108E+17
   -0.274990    0.78828  0.9686E-10  0.5069E-12  0.2870E-16  0.1000E-09  0.0000E+00  0.1037E+17
   -0.343739    0.99162  0.8285E-10  0.9206E-12  0.5020E-16  0.1000E-09  0.0000E+00  0.9638E+16
   -0.412488    1.19454  0.7484E-10  0.1637E-11  0.8706E-16  0.1000E-09  0.0000E+00  0.8873E+16
   -0.481238    1.39606  0.7103E-10  0.2875E-11  0.1498E-15  0.1000E-09  0.0000E+00  0.8097E+16
   -0.549988    1.59542  0.6943E-10  0.5012E-11  0.2563E-15  0.1000E-09  0.0000E+00  0.7343E+16
   -0.618739    1.79248  0.6872E-10  0.8652E-11  0.4346E-15  0.1000E-09  0.0000E+00  0.6617E+16
   -0.687490    1.98729  0.6829E-10  0.1484E-10  0.7330E-15  0.1000E-09  0.0000E+00  0.5909E+16
   -0.756242    2.17956  0.6787E-10  0.2533E-10  0.1231E-14  0.1000E-09  0.0000E+00  0.5234E+16
   -0.824993    2.36948  0.6742E-10  0.4305E-10  0.2061E-14  0.1000E-09  0.0000E+00  0.4583E+16
   -0.893746    2.55694  0.6697E-10  0.7293E-10  0.3443E-14  0.1000E-09  0.0000E+00  0.3957E+16
   -0.962498    2.74190  0.6660E-10  0.1233E-09  0.5746E-14  0.1000E-09  0.0000E+00  0.3358E+16
   -1.031250    2.92443  0.6633E-10  0.2080E-09  0.9587E-14  0.1000E-09  0.0000E+00  0.2784E+16
   -1.100003    3.10447  0.6616E-10  0.3519E-09  0.1605E-13  0.1000E-09  0.0000E+00  0.2227E+16
   -1.168756    3.28139  0.6608E-10  0.5968E-09  0.2698E-13  0.1007E-09  0.0000E+00  0.1695E+16
   -1.237509    3.45471  0.6604E-10  0.1014E-08  0.4550E-13  0.1954E-09  0.0000E+00  0.1185E+16
   -1.306262    3.62257  0.6603E-10  0.1728E-08  0.7704E-13  0.5546E-09  0.0000E+00  0.7041E+15
   -1.375015    3.78007  0.6602E-10  0.2953E-08  0.1309E-12  0.2255E-08  0.0000E+00  0.2923E+15
   -1.443768    3.91733  0.6602E-10  0.4879E-08  0.2166E-12  0.5832E-06  0.0000E+00  0.4500E+14
   -1.512521    3.99460  0.6602E-10  0.5207E-08  0.2322E-12  0.3934E-04  0.0000E+00 -0.5037E+11
   -1.581274    3.99505  0.6602E-10  0.5376E-08  0.2418E-12  0.4139E-04  0.0000E+00 -0.5272E+11
   -1.650026    3.99547  0.6602E-10  0.5536E-08  0.2523E-12  0.4294E-04  0.0000E+00 -0.5520E+11
   -1.718779    3.99589  0.6602E-10  0.5685E-08  0.2639E-12  0.4400E-04  0.0000E+00 -0.5810E+11
   -1.787532    3.99630  0.6602E-10  0.5823E-08  0.2766E-12  0.4459E-04  0.0000E+00 -0.6152E+11
   -1.856284    3.99671  0.6602E-10  0.5949E-08  0.2905E-12  0.4473E-04  0.0000E+00 -0.6560E+11
   -1.925036    3.99713  0.6602E-10  0.6061E-08  0.3058E-12  0.4442E-04  0.0000E+00 -0.7050E+11
   -1.993788    3.99755  0.6602E-10  0.6159E-08  0.3227E-12  0.4363E-04  0.0000E+00 -0.7646E+11
   -2.062539    3.99800  0.6602E-10  0.6240E-08  0.3416E-12  0.4236E-04  0.0000E+00 -0.8385E+11
   -2.131290    3.99847  0.6602E-10  0.6306E-08  0.3644E-12  0.4045E-04  0.0000E+00 -0.9358E+11
   -2.200041    3.99896  0.6602E-10  0.6354E-08  0.3925E-12  0.3786E-04  0.0000E+00 -0.1068E+12
   -2.268792    3.99951  0.6602E-10  0.6378E-08  0.4281E-12  0.3453E-04  0.0000E+00 -0.1258E+12
   -2.337541    4.00012  0.6602E-10  0.6367E-08  0.4755E-12  0.3038E-04  0.0000E+00 -0.1547E+12
   -2.406291    4.00083  0.6602E-10  0.6304E-08  0.5429E-12  0.2532E-04  0.0000E+00 -0.2032E+12
   -2.475040    4.00172  0.6602E-10  0.6153E-08  0.6493E-12  0.1927E-04  0.0000E+00 -0.2990E+12
   -2.543788    4.00293  0.6602E-10  0.5817E-08  0.8506E-12  0.1215E-04  0.0000E+00 -0.5513E+12
   -2.612536    4.00496  0.6602E-10  0.5047E-08  0.1334E-11  0.5107E-05  0.0000E+00 -0.1657E+13
   -2.681283    4.01000  0.6602E-10  0.2593E-08  0.3762E-11  0.3955E-06  0.0000E+00 -0.4082E+14
   -2.750029    4.06230  0.6602E-10  0.0000E+00  0.0000E+00  0.0000E+00  0.0000E+00  0.0000E+00
