 1 - depth, m
 2 - temperature, C
 3 - salinity, kg/kg
 4 - turbulent kinetic energy, m**2/s**2
 5 - dissipation rate, m**2/s**3
 6 - kinematic heat conductance, m**2/s
 7 - modulus of horizontal velocity, m/s
 8 - Richardson number, n/d
   -0.000000   -0.00000  0.3936E-09  0.1219E-13  0.7604E-17  0.1000E-09  0.0000E+00  0.1371E+17
   -0.068746    0.21163  0.1337E-09  0.1219E-13  0.7604E-17  0.1000E-09  0.0000E+00  0.1262E+17
   -0.137492    0.41833  0.9403E-10  0.1219E-13  0.7604E-17  0.1000E-09  0.0000E+00  0.1152E+17
   -0.206239    0.61883  0.8067E-10  0.2388E-13  0.7604E-17  0.1000E-09  0.0000E+00  0.1052E+17
   -0.274986    0.81359  0.7671E-10  0.8446E-13  0.1043E-16  0.1000E-09  0.0000E+00  0.9610E+16
   -0.343734    1.00319  0.7576E-10  0.2125E-12  0.2099E-16  0.1000E-09  0.0000E+00  0.8813E+16
   -0.412482    1.18894  0.7556E-10  0.4760E-12  0.4400E-16  0.1000E-09  0.0000E+00  0.8074E+16
   -0.481231    1.37125  0.7553E-10  0.1024E-11  0.9152E-16  0.1000E-09  0.0000E+00  0.7385E+16
   -0.549981    1.55048  0.7552E-10  0.2162E-11  0.1884E-15  0.1000E-09  0.0000E+00  0.6765E+16
   -0.618730    1.72763  0.7552E-10  0.4501E-11  0.3828E-15  0.1000E-09  0.0000E+00  0.6199E+16
   -0.687481    1.90369  0.7552E-10  0.9278E-11  0.7708E-15  0.1000E-09  0.0000E+00  0.5659E+16
   -0.756231    2.07905  0.7550E-10  0.1897E-10  0.1540E-14  0.1000E-09  0.0000E+00  0.5179E+16
   -0.824982    2.25559  0.7547E-10  0.3847E-10  0.3052E-14  0.1000E-09  0.0000E+00  0.4695E+16
   -0.893733    2.43341  0.7539E-10  0.7742E-10  0.6005E-14  0.1000E-09  0.0000E+00  0.4204E+16
   -0.962484    2.61256  0.7526E-10  0.1547E-09  0.1173E-13  0.1000E-09  0.0000E+00  0.3704E+16
   -1.031236    2.79304  0.7504E-10  0.3067E-09  0.2275E-13  0.1000E-09  0.0000E+00  0.3195E+16
   -1.099988    2.97486  0.7475E-10  0.6059E-09  0.4395E-13  0.1000E-09  0.0000E+00  0.2681E+16
   -1.168739    3.15826  0.7438E-10  0.1190E-08  0.8448E-13  0.1997E-09  0.0000E+00  0.2153E+16
   -1.237491    3.34294  0.7393E-10  0.2323E-08  0.1614E-12  0.5089E-09  0.0000E+00  0.1614E+16
   -1.306243    3.52842  0.7330E-10  0.4501E-08  0.3061E-12  0.1461E-08  0.0000E+00  0.1066E+16
   -1.374996    3.71366  0.7253E-10  0.8643E-08  0.5757E-12  0.5659E-08  0.0000E+00  0.5178E+15
   -1.443748    3.89446  0.7212E-10  0.1585E-07  0.1039E-11  0.8663E-07  0.0000E+00  0.6109E+14
   -1.512500    4.01181  0.7209E-10  0.1647E-07  0.1082E-11  0.9793E-04  0.0000E+00 -0.1092E+12
   -1.581252    4.01208  0.7209E-10  0.1672E-07  0.1103E-11  0.9978E-04  0.0000E+00 -0.1091E+12
   -1.650003    4.01235  0.7209E-10  0.1692E-07  0.1124E-11  0.9995E-04  0.0000E+00 -0.1108E+12
   -1.718755    4.01262  0.7209E-10  0.1709E-07  0.1146E-11  0.9996E-04  0.0000E+00 -0.1129E+12
   -1.787507    4.01289  0.7209E-10  0.1724E-07  0.1171E-11  0.9957E-04  0.0000E+00 -0.1155E+12
   -1.856258    4.01316  0.7209E-10  0.1736E-07  0.1198E-11  0.9875E-04  0.0000E+00 -0.1187E+12
   -1.925009    4.01345  0.7209E-10  0.1746E-07  0.1229E-11  0.9745E-04  0.0000E+00 -0.1226E+12
   -1.993760    4.01373  0.7209E-10  0.1754E-07  0.1264E-11  0.9562E-04  0.0000E+00 -0.1275E+12
   -2.062510    4.01403  0.7209E-10  0.1758E-07  0.1307E-11  0.9316E-04  0.0000E+00 -0.1339E+12
   -2.131261    4.01433  0.7209E-10  0.1759E-07  0.1363E-11  0.8810E-04  0.0000E+00 -0.1454E+12
   -2.200010    4.01466  0.7209E-10  0.1756E-07  0.1435E-11  0.7828E-04  0.0000E+00 -0.1687E+12
   -2.268760    4.01504  0.7209E-10  0.1747E-07  0.1530E-11  0.6830E-04  0.0000E+00 -0.2007E+12
   -2.337509    4.01548  0.7209E-10  0.1730E-07  0.1661E-11  0.5905E-04  0.0000E+00 -0.2431E+12
   -2.406257    4.01601  0.7209E-10  0.1701E-07  0.1848E-11  0.4952E-04  0.0000E+00 -0.3075E+12
   -2.475005    4.01666  0.7209E-10  0.1653E-07  0.2143E-11  0.3863E-04  0.0000E+00 -0.4272E+12
   -2.543753    4.01755  0.7209E-10  0.1564E-07  0.2690E-11  0.2563E-04  0.0000E+00 -0.7146E+12
   -2.612499    4.01898  0.7209E-10  0.1387E-07  0.3938E-11  0.1204E-04  0.0000E+00 -0.1745E+13
   -2.681245    4.02223  0.7209E-10  0.6786E-08  0.1143E-10  0.7726E-06  0.0000E+00 -0.4505E+14
   -2.749991    4.07025  0.7209E-10  0.0000E+00  0.0000E+00  0.0000E+00  0.0000E+00  0.0000E+00
