 1 - depth, m
 2 - temperature, C
 3 - salinity, kg/kg
 4 - turbulent kinetic energy, m**2/s**2
 5 - dissipation rate, m**2/s**3
 6 - kinematic heat conductance, m**2/s
 7 - modulus of horizontal velocity, m/s
 8 - Richardson number, n/d
   -0.000000   -0.00000  0.3272E-09  0.1169E-11  0.2609E-15  0.1000E-09  0.0000E+00  0.1800E+17
   -0.068746    0.28062  0.1718E-09  0.2831E-11  0.2784E-15  0.1000E-09  0.0000E+00  0.1656E+17
   -0.137492    0.56027  0.9777E-10  0.6310E-11  0.4593E-15  0.1000E-09  0.0000E+00  0.1503E+17
   -0.206239    0.83682  0.7599E-10  0.1281E-10  0.8436E-15  0.1000E-09  0.0000E+00  0.1353E+17
   -0.274987    1.10980  0.7055E-10  0.2486E-10  0.1568E-14  0.1000E-09  0.0000E+00  0.1208E+17
   -0.343735    1.37874  0.6920E-10  0.4714E-10  0.2893E-14  0.1000E-09  0.0000E+00  0.1068E+17
   -0.412483    1.64347  0.6887E-10  0.8822E-10  0.5293E-14  0.1000E-09  0.0000E+00  0.9341E+16
   -0.481232    1.90351  0.6878E-10  0.1637E-09  0.9614E-14  0.1000E-09  0.0000E+00  0.8057E+16
   -0.549982    2.15842  0.6871E-10  0.3017E-09  0.1735E-13  0.1000E-09  0.0000E+00  0.6846E+16
   -0.618732    2.40815  0.6856E-10  0.5504E-09  0.3102E-13  0.1000E-09  0.0000E+00  0.5710E+16
   -0.687482    2.65275  0.6825E-10  0.9973E-09  0.5508E-13  0.1000E-09  0.0000E+00  0.4642E+16
   -0.756233    2.89222  0.6770E-10  0.1795E-08  0.9720E-13  0.1353E-09  0.0000E+00  0.3658E+16
   -0.824984    3.12767  0.6699E-10  0.3213E-08  0.1705E-12  0.3186E-09  0.0000E+00  0.2724E+16
   -0.893735    3.35897  0.6640E-10  0.5714E-08  0.2973E-12  0.8220E-09  0.0000E+00  0.1841E+16
   -0.962487    3.58582  0.6612E-10  0.1009E-07  0.5150E-12  0.2602E-08  0.0000E+00  0.1008E+16
   -1.031239    3.80651  0.6603E-10  0.1759E-07  0.8813E-12  0.1786E-07  0.0000E+00  0.2514E+15
   -1.099990    4.00344  0.6602E-10  0.1791E-07  0.8983E-12  0.1385E-03  0.0000E+00 -0.6074E+11
   -1.168742    4.00367  0.6602E-10  0.1806E-07  0.9077E-12  0.1356E-03  0.0000E+00 -0.6282E+11
   -1.237495    4.00390  0.6602E-10  0.1820E-07  0.9181E-12  0.1359E-03  0.0000E+00 -0.6356E+11
   -1.306247    4.00413  0.6602E-10  0.1832E-07  0.9295E-12  0.1360E-03  0.0000E+00 -0.6436E+11
   -1.374999    4.00435  0.6602E-10  0.1843E-07  0.9420E-12  0.1359E-03  0.0000E+00 -0.6528E+11
   -1.443751    4.00458  0.6602E-10  0.1853E-07  0.9555E-12  0.1355E-03  0.0000E+00 -0.6634E+11
   -1.512503    4.00481  0.6602E-10  0.1862E-07  0.9703E-12  0.1347E-03  0.0000E+00 -0.6757E+11
   -1.581256    4.00505  0.6602E-10  0.1869E-07  0.9864E-12  0.1337E-03  0.0000E+00 -0.6899E+11
   -1.650008    4.00528  0.6602E-10  0.1875E-07  0.1004E-11  0.1323E-03  0.0000E+00 -0.7062E+11
   -1.718760    4.00552  0.6602E-10  0.1879E-07  0.1023E-11  0.1305E-03  0.0000E+00 -0.7249E+11
   -1.787511    4.00576  0.6602E-10  0.1882E-07  0.1044E-11  0.1285E-03  0.0000E+00 -0.7463E+11
   -1.856263    4.00600  0.6602E-10  0.1883E-07  0.1068E-11  0.1261E-03  0.0000E+00 -0.7709E+11
   -1.925014    4.00625  0.6602E-10  0.1883E-07  0.1093E-11  0.1233E-03  0.0000E+00 -0.7991E+11
   -1.993765    4.00650  0.6602E-10  0.1881E-07  0.1122E-11  0.1202E-03  0.0000E+00 -0.8313E+11
   -2.062516    4.00676  0.6602E-10  0.1877E-07  0.1154E-11  0.1166E-03  0.0000E+00 -0.8708E+11
   -2.131266    4.00703  0.6602E-10  0.1870E-07  0.1196E-11  0.1122E-03  0.0000E+00 -0.9223E+11
   -2.200016    4.00731  0.6602E-10  0.1859E-07  0.1254E-11  0.1018E-03  0.0000E+00 -0.1037E+12
   -2.268766    4.00763  0.6602E-10  0.1841E-07  0.1336E-11  0.8483E-04  0.0000E+00 -0.1277E+12
   -2.337515    4.00801  0.6602E-10  0.1816E-07  0.1449E-11  0.7017E-04  0.0000E+00 -0.1593E+12
   -2.406263    4.00847  0.6602E-10  0.1778E-07  0.1615E-11  0.5715E-04  0.0000E+00 -0.2036E+12
   -2.475011    4.00905  0.6602E-10  0.1721E-07  0.1879E-11  0.4341E-04  0.0000E+00 -0.2832E+12
   -2.543759    4.00983  0.6602E-10  0.1623E-07  0.2376E-11  0.2796E-04  0.0000E+00 -0.4733E+12
   -2.612506    4.01108  0.6602E-10  0.1436E-07  0.3525E-11  0.1282E-04  0.0000E+00 -0.1153E+13
   -2.681252    4.01389  0.6602E-10  0.6705E-08  0.1079E-10  0.7276E-06  0.0000E+00 -0.3452E+14
   -2.749998    4.05822  0.6602E-10  0.0000E+00  0.0000E+00  0.0000E+00  0.0000E+00  0.0000E+00
