 1 - depth, m
 2 - temperature, C
 3 - salinity, kg/kg
 4 - turbulent kinetic energy, m**2/s**2
 5 - dissipation rate, m**2/s**3
 6 - kinematic heat conductance, m**2/s
 7 - modulus of horizontal velocity, m/s
 8 - Richardson number, n/d
   -0.000000   -0.00000  0.4993E-09  0.1812E-12  0.2694E-16  0.1000E-09  0.0000E+00  0.1606E+17
   -0.068746    0.24923  0.1305E-09  0.3484E-12  0.2984E-16  0.1000E-09  0.0000E+00  0.1484E+17
   -0.137492    0.49629  0.8352E-10  0.7014E-12  0.4743E-16  0.1000E-09  0.0000E+00  0.1354E+17
   -0.206239    0.73919  0.7445E-10  0.1350E-11  0.8397E-16  0.1000E-09  0.0000E+00  0.1230E+17
   -0.274987    0.97773  0.7205E-10  0.2525E-11  0.1520E-15  0.1000E-09  0.0000E+00  0.1112E+17
   -0.343735    1.21190  0.7147E-10  0.4654E-11  0.2757E-15  0.1000E-09  0.0000E+00  0.1001E+17
   -0.412483    1.44216  0.7135E-10  0.8532E-11  0.4996E-15  0.1000E-09  0.0000E+00  0.8967E+16
   -0.481232    1.66858  0.7133E-10  0.1562E-10  0.9060E-15  0.1000E-09  0.0000E+00  0.7973E+16
   -0.549982    1.89120  0.7132E-10  0.2862E-10  0.1645E-14  0.1000E-09  0.0000E+00  0.7040E+16
   -0.618732    2.11045  0.7132E-10  0.5231E-10  0.2978E-14  0.1000E-09  0.0000E+00  0.6161E+16
   -0.687482    2.32672  0.7130E-10  0.9560E-10  0.5389E-14  0.1000E-09  0.0000E+00  0.5321E+16
   -0.756233    2.54011  0.7127E-10  0.1747E-09  0.9753E-14  0.1000E-09  0.0000E+00  0.4538E+16
   -0.824984    2.75165  0.7119E-10  0.3194E-09  0.1764E-13  0.1000E-09  0.0000E+00  0.3770E+16
   -0.893735    2.96083  0.7102E-10  0.5834E-09  0.3188E-13  0.1000E-09  0.0000E+00  0.3016E+16
   -0.962486    3.16646  0.7069E-10  0.1065E-08  0.5754E-13  0.1321E-09  0.0000E+00  0.2278E+16
   -1.031238    3.36618  0.7011E-10  0.1940E-08  0.1036E-12  0.3352E-09  0.0000E+00  0.1575E+16
   -1.099990    3.55603  0.6934E-10  0.3536E-08  0.1867E-12  0.1002E-08  0.0000E+00  0.9445E+15
   -1.168742    3.73097  0.6875E-10  0.6432E-08  0.3356E-12  0.3884E-08  0.0000E+00  0.4345E+15
   -1.237494    3.88646  0.6860E-10  0.1146E-07  0.5921E-12  0.3912E-07  0.0000E+00  0.7601E+14
   -1.306246    4.00363  0.6859E-10  0.1191E-07  0.6165E-12  0.8578E-04  0.0000E+00 -0.6840E+11
   -1.374999    4.00389  0.6859E-10  0.1211E-07  0.6298E-12  0.9085E-04  0.0000E+00 -0.6675E+11
   -1.443751    4.00413  0.6859E-10  0.1229E-07  0.6435E-12  0.9217E-04  0.0000E+00 -0.6797E+11
   -1.512503    4.00437  0.6859E-10  0.1245E-07  0.6581E-12  0.9291E-04  0.0000E+00 -0.6969E+11
   -1.581255    4.00462  0.6859E-10  0.1259E-07  0.6740E-12  0.9313E-04  0.0000E+00 -0.7189E+11
   -1.650007    4.00487  0.6859E-10  0.1273E-07  0.6912E-12  0.9296E-04  0.0000E+00 -0.7450E+11
   -1.718759    4.00513  0.6859E-10  0.1285E-07  0.7099E-12  0.9238E-04  0.0000E+00 -0.7755E+11
   -1.787511    4.00539  0.6859E-10  0.1296E-07  0.7304E-12  0.9147E-04  0.0000E+00 -0.8106E+11
   -1.856262    4.00566  0.6859E-10  0.1305E-07  0.7529E-12  0.9018E-04  0.0000E+00 -0.8512E+11
   -1.925013    4.00594  0.6859E-10  0.1313E-07  0.7778E-12  0.8853E-04  0.0000E+00 -0.8981E+11
   -1.993764    4.00624  0.6859E-10  0.1319E-07  0.8061E-12  0.8643E-04  0.0000E+00 -0.9535E+11
   -2.062515    4.00654  0.6859E-10  0.1323E-07  0.8394E-12  0.8354E-04  0.0000E+00 -0.1023E+12
   -2.131265    4.00687  0.6859E-10  0.1325E-07  0.8818E-12  0.7909E-04  0.0000E+00 -0.1125E+12
   -2.200015    4.00722  0.6859E-10  0.1324E-07  0.9368E-12  0.7055E-04  0.0000E+00 -0.1314E+12
   -2.268765    4.00762  0.6859E-10  0.1319E-07  0.1009E-11  0.6143E-04  0.0000E+00 -0.1579E+12
   -2.337514    4.00809  0.6859E-10  0.1308E-07  0.1106E-11  0.5277E-04  0.0000E+00 -0.1942E+12
   -2.406263    4.00866  0.6859E-10  0.1287E-07  0.1246E-11  0.4374E-04  0.0000E+00 -0.2509E+12
   -2.475011    4.00937  0.6859E-10  0.1252E-07  0.1467E-11  0.3352E-04  0.0000E+00 -0.3581E+12
   -2.543758    4.01035  0.6859E-10  0.1185E-07  0.1879E-11  0.2164E-04  0.0000E+00 -0.6239E+12
   -2.612505    4.01196  0.6859E-10  0.1047E-07  0.2837E-11  0.9719E-05  0.0000E+00 -0.1645E+13
   -2.681251    4.01579  0.6859E-10  0.5175E-08  0.8382E-11  0.6443E-06  0.0000E+00 -0.4517E+14
   -2.749997    4.06778  0.6859E-10  0.0000E+00  0.0000E+00  0.0000E+00  0.0000E+00  0.0000E+00
