 1 - depth, m
 2 - temperature, C
 3 - salinity, kg/kg
 4 - turbulent kinetic energy, m**2/s**2
 5 - dissipation rate, m**2/s**3
 6 - kinematic heat conductance, m**2/s
 7 - modulus of horizontal velocity, m/s
 8 - Richardson number, n/d
   -0.000000   -0.00000  0.1380E-09  0.1219E-13  0.7603E-17  0.1000E-09  0.0000E+00  0.1352E+17
   -0.068746    0.20862  0.1415E-09  0.5394E-13  0.7603E-17  0.1000E-09  0.0000E+00  0.1293E+17
   -0.137493    0.42036  0.1294E-09  0.1457E-12  0.1191E-16  0.1000E-09  0.0000E+00  0.1216E+17
   -0.206240    0.63238  0.1102E-09  0.3166E-12  0.2217E-16  0.1000E-09  0.0000E+00  0.1132E+17
   -0.274988    0.84348  0.9167E-10  0.6350E-12  0.4199E-16  0.1000E-09  0.0000E+00  0.1046E+17
   -0.343736    1.05278  0.7933E-10  0.1230E-11  0.7880E-16  0.1000E-09  0.0000E+00  0.9615E+16
   -0.412485    1.25996  0.7295E-10  0.2341E-11  0.1464E-15  0.1000E-09  0.0000E+00  0.8773E+16
   -0.481234    1.46454  0.7019E-10  0.4410E-11  0.2697E-15  0.1000E-09  0.0000E+00  0.7949E+16
   -0.549984    1.66612  0.6907E-10  0.8246E-11  0.4935E-15  0.1000E-09  0.0000E+00  0.7160E+16
   -0.618734    1.86471  0.6856E-10  0.1526E-10  0.8939E-15  0.1000E-09  0.0000E+00  0.6409E+16
   -0.687485    2.06042  0.6817E-10  0.2801E-10  0.1607E-14  0.1000E-09  0.0000E+00  0.5685E+16
   -0.756236    2.25306  0.6775E-10  0.5109E-10  0.2870E-14  0.1000E-09  0.0000E+00  0.5002E+16
   -0.824987    2.44291  0.6729E-10  0.9257E-10  0.5093E-14  0.1000E-09  0.0000E+00  0.4345E+16
   -0.893739    2.62983  0.6685E-10  0.1667E-09  0.8982E-14  0.1000E-09  0.0000E+00  0.3716E+16
   -0.962490    2.81369  0.6650E-10  0.2982E-09  0.1574E-13  0.1000E-09  0.0000E+00  0.3118E+16
   -1.031242    2.99444  0.6626E-10  0.5304E-09  0.2743E-13  0.1000E-09  0.0000E+00  0.2548E+16
   -1.099995    3.17200  0.6612E-10  0.9402E-09  0.4765E-13  0.1209E-09  0.0000E+00  0.2007E+16
   -1.168747    3.34610  0.6606E-10  0.1659E-08  0.8242E-13  0.2805E-09  0.0000E+00  0.1497E+16
   -1.237499    3.51677  0.6603E-10  0.2913E-08  0.1418E-12  0.7099E-09  0.0000E+00  0.1018E+16
   -1.306252    3.68406  0.6603E-10  0.5081E-08  0.2425E-12  0.2182E-08  0.0000E+00  0.5663E+15
   -1.375004    3.84734  0.6602E-10  0.8759E-08  0.4102E-12  0.1392E-07  0.0000E+00  0.1505E+15
   -1.443757    3.99747  0.6602E-10  0.9121E-08  0.4281E-12  0.6906E-04  0.0000E+00 -0.5987E+11
   -1.512509    3.99781  0.6602E-10  0.9287E-08  0.4378E-12  0.7194E-04  0.0000E+00 -0.5906E+11
   -1.581262    3.99814  0.6602E-10  0.9432E-08  0.4481E-12  0.7313E-04  0.0000E+00 -0.5955E+11
   -1.650014    3.99845  0.6602E-10  0.9557E-08  0.4591E-12  0.7317E-04  0.0000E+00 -0.6091E+11
   -1.718766    3.99877  0.6602E-10  0.9666E-08  0.4709E-12  0.7271E-04  0.0000E+00 -0.6272E+11
   -1.787518    3.99909  0.6602E-10  0.9757E-08  0.4837E-12  0.7176E-04  0.0000E+00 -0.6501E+11
   -1.856270    3.99941  0.6602E-10  0.9832E-08  0.4980E-12  0.7030E-04  0.0000E+00 -0.6790E+11
   -1.925021    3.99974  0.6602E-10  0.9890E-08  0.5140E-12  0.6823E-04  0.0000E+00 -0.7160E+11
   -1.993773    4.00007  0.6602E-10  0.9930E-08  0.5321E-12  0.6549E-04  0.0000E+00 -0.7636E+11
   -2.062524    4.00042  0.6602E-10  0.9949E-08  0.5531E-12  0.6211E-04  0.0000E+00 -0.8270E+11
   -2.131274    4.00079  0.6602E-10  0.9945E-08  0.5789E-12  0.5819E-04  0.0000E+00 -0.9102E+11
   -2.200024    4.00119  0.6602E-10  0.9913E-08  0.6113E-12  0.5375E-04  0.0000E+00 -0.1020E+12
   -2.268774    4.00162  0.6602E-10  0.9846E-08  0.6533E-12  0.4866E-04  0.0000E+00 -0.1171E+12
   -2.337524    4.00210  0.6602E-10  0.9730E-08  0.7102E-12  0.4267E-04  0.0000E+00 -0.1398E+12
   -2.406272    4.00266  0.6602E-10  0.9540E-08  0.7922E-12  0.3557E-04  0.0000E+00 -0.1774E+12
   -2.475021    4.00334  0.6602E-10  0.9228E-08  0.9230E-12  0.2723E-04  0.0000E+00 -0.2496E+12
   -2.543769    4.00425  0.6602E-10  0.8663E-08  0.1171E-11  0.1746E-04  0.0000E+00 -0.4303E+12
   -2.612516    4.00572  0.6602E-10  0.7527E-08  0.1760E-11  0.7660E-05  0.0000E+00 -0.1145E+13
   -2.681263    4.00918  0.6602E-10  0.3518E-08  0.5105E-11  0.4711E-06  0.0000E+00 -0.3417E+14
   -2.750008    4.05623  0.6602E-10  0.0000E+00  0.0000E+00  0.0000E+00  0.0000E+00  0.0000E+00
