 1 - depth, m
 2 - temperature, C
 3 - salinity, kg/kg
 4 - turbulent kinetic energy, m**2/s**2
 5 - dissipation rate, m**2/s**3
 6 - kinematic heat conductance, m**2/s
 7 - modulus of horizontal velocity, m/s
 8 - Richardson number, n/d
   -0.000000   -0.00000  0.4322E-09  0.1958E-11  0.4976E-15  0.1000E-09  0.0000E+00  0.1920E+17
   -0.068746    0.29998  0.1269E-09  0.5126E-11  0.5359E-15  0.1000E-09  0.0000E+00  0.1750E+17
   -0.137492    0.59807  0.8147E-10  0.1179E-10  0.9083E-15  0.1000E-09  0.0000E+00  0.1573E+17
   -0.206239    0.89186  0.7221E-10  0.2440E-10  0.1706E-14  0.1000E-09  0.0000E+00  0.1401E+17
   -0.274987    1.18097  0.6964E-10  0.4823E-10  0.3233E-14  0.1000E-09  0.0000E+00  0.1238E+17
   -0.343735    1.46514  0.6897E-10  0.9308E-10  0.6074E-14  0.1000E-09  0.0000E+00  0.1083E+17
   -0.412483    1.74448  0.6882E-10  0.1773E-09  0.1131E-13  0.1000E-09  0.0000E+00  0.9357E+16
   -0.481232    2.01886  0.6878E-10  0.3350E-09  0.2091E-13  0.1000E-09  0.0000E+00  0.7962E+16
   -0.549982    2.28815  0.6875E-10  0.6284E-09  0.3842E-13  0.1000E-09  0.0000E+00  0.6649E+16
   -0.618732    2.55249  0.6866E-10  0.1167E-08  0.6988E-13  0.1000E-09  0.0000E+00  0.5415E+16
   -0.687482    2.81209  0.6843E-10  0.2152E-08  0.1262E-12  0.1513E-09  0.0000E+00  0.4248E+16
   -0.756233    3.06685  0.6791E-10  0.3941E-08  0.2266E-12  0.3649E-09  0.0000E+00  0.3160E+16
   -0.824984    3.31772  0.6710E-10  0.7171E-08  0.4041E-12  0.9690E-09  0.0000E+00  0.2123E+16
   -0.893735    3.56399  0.6636E-10  0.1295E-07  0.7156E-12  0.3197E-08  0.0000E+00  0.1140E+16
   -0.962487    3.80302  0.6605E-10  0.2301E-07  0.1248E-11  0.2448E-07  0.0000E+00  0.2597E+15
   -1.031238    4.00857  0.6601E-10  0.2337E-07  0.1269E-11  0.1638E-03  0.0000E+00 -0.7243E+11
   -1.099990    4.00878  0.6601E-10  0.2354E-07  0.1281E-11  0.1600E-03  0.0000E+00 -0.7501E+11
   -1.168742    4.00899  0.6601E-10  0.2370E-07  0.1294E-11  0.1602E-03  0.0000E+00 -0.7588E+11
   -1.237494    4.00921  0.6601E-10  0.2384E-07  0.1308E-11  0.1603E-03  0.0000E+00 -0.7679E+11
   -1.306247    4.00942  0.6601E-10  0.2397E-07  0.1324E-11  0.1601E-03  0.0000E+00 -0.7786E+11
   -1.374999    4.00963  0.6601E-10  0.2409E-07  0.1341E-11  0.1596E-03  0.0000E+00 -0.7904E+11
   -1.443751    4.00985  0.6601E-10  0.2418E-07  0.1360E-11  0.1588E-03  0.0000E+00 -0.8026E+11
   -1.512503    4.01007  0.6601E-10  0.2426E-07  0.1381E-11  0.1576E-03  0.0000E+00 -0.8167E+11
   -1.581255    4.01028  0.6601E-10  0.2433E-07  0.1403E-11  0.1561E-03  0.0000E+00 -0.8331E+11
   -1.650007    4.01050  0.6601E-10  0.2438E-07  0.1428E-11  0.1543E-03  0.0000E+00 -0.8519E+11
   -1.718759    4.01073  0.6601E-10  0.2441E-07  0.1454E-11  0.1520E-03  0.0000E+00 -0.8734E+11
   -1.787511    4.01096  0.6601E-10  0.2442E-07  0.1484E-11  0.1495E-03  0.0000E+00 -0.8981E+11
   -1.856262    4.01119  0.6601E-10  0.2442E-07  0.1517E-11  0.1465E-03  0.0000E+00 -0.9265E+11
   -1.925014    4.01142  0.6601E-10  0.2440E-07  0.1553E-11  0.1432E-03  0.0000E+00 -0.9589E+11
   -1.993765    4.01167  0.6601E-10  0.2435E-07  0.1593E-11  0.1394E-03  0.0000E+00 -0.9960E+11
   -2.062515    4.01192  0.6601E-10  0.2429E-07  0.1638E-11  0.1352E-03  0.0000E+00 -0.1041E+12
   -2.131266    4.01217  0.6601E-10  0.2419E-07  0.1693E-11  0.1302E-03  0.0000E+00 -0.1098E+12
   -2.200016    4.01244  0.6601E-10  0.2405E-07  0.1764E-11  0.1243E-03  0.0000E+00 -0.1170E+12
   -2.268765    4.01273  0.6601E-10  0.2384E-07  0.1865E-11  0.1101E-03  0.0000E+00 -0.1348E+12
   -2.337514    4.01305  0.6601E-10  0.2352E-07  0.2017E-11  0.8699E-04  0.0000E+00 -0.1750E+12
   -2.406263    4.01347  0.6601E-10  0.2304E-07  0.2244E-11  0.6851E-04  0.0000E+00 -0.2298E+12
   -2.475011    4.01400  0.6601E-10  0.2231E-07  0.2607E-11  0.5166E-04  0.0000E+00 -0.3193E+12
   -2.543758    4.01473  0.6601E-10  0.2109E-07  0.3287E-11  0.3338E-04  0.0000E+00 -0.5261E+12
   -2.612505    4.01589  0.6601E-10  0.1877E-07  0.4842E-11  0.1556E-04  0.0000E+00 -0.1236E+13
   -2.681252    4.01844  0.6601E-10  0.8869E-08  0.1497E-10  0.8785E-06  0.0000E+00 -0.3438E+14
   -2.749997    4.05997  0.6601E-10  0.0000E+00  0.0000E+00  0.0000E+00  0.0000E+00  0.0000E+00
