 1 - depth, m
 2 - temperature, C
 3 - salinity, kg/kg
 4 - turbulent kinetic energy, m**2/s**2
 5 - dissipation rate, m**2/s**3
 6 - kinematic heat conductance, m**2/s
 7 - modulus of horizontal velocity, m/s
 8 - Richardson number, n/d
   -0.000000    1.97799  0.6595E-10  0.4895E-03  0.3230E-03  0.1315E-03  0.2333E+00 -0.2630E-01
   -0.068746    2.04491  0.6595E-10  0.2808E-03  0.1019E-03  0.4100E-03  0.6703E-01  0.9335E-02
   -0.137492    2.05436  0.6595E-10  0.2103E-03  0.5245E-04  0.3651E-03  0.5367E-01  0.6956E-02
   -0.206239    2.06113  0.6595E-10  0.1616E-03  0.2949E-04  0.3380E-03  0.4662E-01  0.6840E-02
   -0.274987    2.06646  0.6595E-10  0.1273E-03  0.1682E-04  0.3259E-03  0.4148E-01  0.1556E-01
   -0.343735    2.07102  0.6595E-10  0.1019E-03  0.9491E-05  0.3191E-03  0.3753E-01  0.1349E-01
   -0.412484    2.07523  0.6595E-10  0.8308E-04  0.5324E-05  0.3262E-03  0.3382E-01  0.1957E-01
   -0.481233    2.07921  0.6595E-10  0.6951E-04  0.3087E-05  0.3404E-03  0.3064E-01  0.2645E-01
   -0.549982    2.08298  0.6595E-10  0.5984E-04  0.1888E-05  0.3549E-03  0.2799E-01  0.3520E-01
   -0.618732    2.08665  0.6595E-10  0.5296E-04  0.1236E-05  0.3667E-03  0.2565E-01  0.4112E-01
   -0.687483    2.09029  0.6595E-10  0.4784E-04  0.8619E-06  0.3809E-03  0.2348E-01  0.4955E-01
   -0.756234    2.09389  0.6595E-10  0.4393E-04  0.6359E-06  0.3949E-03  0.2153E-01  0.6026E-01
   -0.824985    2.09750  0.6595E-10  0.4082E-04  0.4913E-06  0.4077E-03  0.1977E-01  0.7324E-01
   -0.893736    2.10120  0.6595E-10  0.3823E-04  0.3936E-06  0.4183E-03  0.1815E-01  0.8799E-01
   -0.962487    2.10508  0.6595E-10  0.3596E-04  0.3240E-06  0.4251E-03  0.1663E-01  0.1015E+00
   -1.031239    2.10934  0.6595E-10  0.3383E-04  0.2716E-06  0.4297E-03  0.1520E-01  0.1225E+00
   -1.099991    2.11429  0.6596E-10  0.3175E-04  0.2301E-06  0.4397E-03  0.1383E-01  0.2321E+00
   -1.168743    2.12073  0.6596E-10  0.2978E-04  0.1969E-06  0.4450E-03  0.1260E-01  0.6859E+00
   -1.237495    2.13674  0.6596E-10  0.2794E-04  0.1700E-06  0.4476E-03  0.1147E-01  0.5519E+01
   -1.306248    2.15770  0.6596E-10  0.2622E-04  0.1479E-06  0.4477E-03  0.1046E-01  0.7354E+02
   -1.375000    2.17600  0.6596E-10  0.2462E-04  0.1295E-06  0.4457E-03  0.9548E-02  0.1242E+04
   -1.443752    2.19103  0.6597E-10  0.2313E-04  0.1140E-06  0.4419E-03  0.8721E-02  0.2884E+05
   -1.512504    2.20433  0.6597E-10  0.2173E-04  0.1010E-06  0.4362E-03  0.7962E-02  0.7884E+06
   -1.581257    2.21696  0.6597E-10  0.2043E-04  0.8986E-07  0.4288E-03  0.7259E-02  0.2515E+08
   -1.650009    2.23000  0.6597E-10  0.1920E-04  0.8036E-07  0.4198E-03  0.6601E-02  0.9285E+09
   -1.718761    2.24378  0.6597E-10  0.1806E-04  0.7222E-07  0.4093E-03  0.5983E-02  0.4066E+11
   -1.787512    2.25908  0.6598E-10  0.1699E-04  0.6520E-07  0.3972E-03  0.5401E-02  0.2297E+13
   -1.856264    2.28030  0.6598E-10  0.1597E-04  0.5914E-07  0.3837E-03  0.4838E-02  0.1621E+15
   -1.925015    2.31808  0.6598E-10  0.1500E-04  0.5388E-07  0.3686E-03  0.4274E-02  0.5503E+15
   -1.993766    2.39386  0.6598E-10  0.1406E-04  0.4927E-07  0.3512E-03  0.3689E-02  0.1130E+16
   -2.062517    2.53899  0.6598E-10  0.1304E-04  0.4415E-07  0.3452E-03  0.3031E-02  0.1474E+16
   -2.131267    2.74268  0.6599E-10  0.1215E-04  0.3989E-07  0.3429E-03  0.2513E-02  0.1165E+16
   -2.200017    2.92788  0.6599E-10  0.1131E-04  0.3642E-07  0.3338E-03  0.2148E-02  0.4703E+15
   -2.268767    3.09488  0.6599E-10  0.1050E-04  0.3348E-07  0.3202E-03  0.1832E-02 -0.2435E+15
   -2.337516    3.30410  0.6599E-10  0.9719E-05  0.3120E-07  0.3012E-03  0.1559E-02 -0.1304E+16
   -2.406265    3.51093  0.6599E-10  0.8948E-05  0.2973E-07  0.2757E-03  0.1332E-02 -0.2862E+16
   -2.475013    3.71810  0.6599E-10  0.8142E-05  0.2960E-07  0.2403E-03  0.1135E-02 -0.4372E+16
   -2.543761    3.93140  0.6599E-10  0.7209E-05  0.3187E-07  0.1895E-03  0.9696E-03 -0.5962E+16
   -2.612508    4.14956  0.6599E-10  0.6073E-05  0.3959E-07  0.1214E-03  0.8296E-03 -0.8747E+16
   -2.681254    4.41114  0.6599E-10  0.2490E-05  0.9176E-07  0.1026E-04  0.7109E-03 -0.1060E+17
   -2.750000    4.71548  0.6599E-10  0.0000E+00  0.0000E+00  0.0000E+00  0.6968E-03  0.0000E+00
