 1 - depth, m
 2 - temperature, C
 3 - salinity, kg/kg
 4 - turbulent kinetic energy, m**2/s**2
 5 - dissipation rate, m**2/s**3
 6 - kinematic heat conductance, m**2/s
 7 - modulus of horizontal velocity, m/s
 8 - Richardson number, n/d
   -0.000000   14.14598  0.8639E-10  0.9557E-04  0.3091E-04  0.8326E-04  0.8284E-01 -0.1727E-02
   -0.068746   14.16558  0.8639E-10  0.5192E-04  0.7099E-05  0.1067E-03  0.3274E-01 -0.2225E-01
   -0.137492   14.17006  0.8639E-10  0.3706E-04  0.2701E-05  0.1160E-03  0.2466E-01 -0.2401E-01
   -0.206239   14.17315  0.8639E-10  0.2806E-04  0.1189E-05  0.1314E-03  0.1986E-01 -0.3714E-01
   -0.274987   14.17548  0.8639E-10  0.2227E-04  0.5846E-06  0.1519E-03  0.1642E-01 -0.5595E-01
   -0.343735   14.17731  0.8639E-10  0.1859E-04  0.3229E-06  0.1742E-03  0.1385E-01 -0.7491E-01
   -0.412484   14.17880  0.8639E-10  0.1606E-04  0.1968E-06  0.2018E-03  0.1179E-01 -0.9977E-01
   -0.481233   14.18001  0.8639E-10  0.1426E-04  0.1302E-06  0.2409E-03  0.1017E-01 -0.9149E-01
   -0.549982   14.18098  0.8639E-10  0.1301E-04  0.9258E-07  0.3279E-03  0.8907E-02  0.7381E+02
   -0.618732   14.18176  0.8639E-10  0.1212E-04  0.6993E-07  0.3785E-03  0.7891E-02  0.3058E+01
   -0.687483   14.18243  0.8639E-10  0.1144E-04  0.5515E-07  0.4275E-03  0.7026E-02  0.1977E+01
   -0.756233   14.18303  0.8639E-10  0.1088E-04  0.4493E-07  0.4860E-03  0.6281E-02  0.5592E+01
   -0.824984   14.18357  0.8639E-10  0.1042E-04  0.3755E-07  0.5590E-03  0.5637E-02  0.5456E+01
   -0.893736   14.18405  0.8639E-10  0.1003E-04  0.3202E-07  0.6478E-03  0.5074E-02  0.1811E+02
   -0.962487   14.18449  0.8639E-10  0.9681E-05  0.2778E-07  0.7624E-03  0.4578E-02  0.2351E+02
   -1.031239   14.18487  0.8639E-10  0.9376E-05  0.2444E-07  0.8948E-03  0.4138E-02  0.8081E+02
   -1.099991   14.18521  0.8639E-10  0.9103E-05  0.2177E-07  0.1019E-02  0.3748E-02  0.1609E+03
   -1.168743   14.18549  0.8639E-10  0.8864E-05  0.1962E-07  0.1170E-02  0.3408E-02  0.8310E+02
   -1.237495   14.18573  0.8639E-10  0.8657E-05  0.1789E-07  0.1291E-02  0.3110E-02  0.3464E+02
   -1.306247   14.18595  0.8639E-10  0.8471E-05  0.1645E-07  0.1344E-02  0.2840E-02  0.7466E+01
   -1.375000   14.18616  0.8639E-10  0.8299E-05  0.1522E-07  0.1373E-02  0.2589E-02  0.3895E+01
   -1.443752   14.18637  0.8639E-10  0.8139E-05  0.1418E-07  0.1389E-02  0.2355E-02  0.3600E+01
   -1.512504   14.18659  0.8639E-10  0.7987E-05  0.1329E-07  0.1402E-02  0.2136E-02  0.3382E+01
   -1.581256   14.18681  0.8639E-10  0.7842E-05  0.1255E-07  0.1410E-02  0.1931E-02  0.3201E+01
   -1.650008   14.18704  0.8639E-10  0.7700E-05  0.1193E-07  0.1415E-02  0.1738E-02  0.3046E+01
   -1.718760   14.18728  0.8639E-10  0.7560E-05  0.1143E-07  0.1415E-02  0.1556E-02  0.2910E+01
   -1.787512   14.18752  0.8639E-10  0.7419E-05  0.1103E-07  0.1408E-02  0.1385E-02  0.2787E+01
   -1.856263   14.18778  0.8639E-10  0.7275E-05  0.1074E-07  0.1395E-02  0.1224E-02  0.2676E+01
   -1.925015   14.18805  0.8639E-10  0.7127E-05  0.1055E-07  0.1375E-02  0.1071E-02  0.2577E+01
   -1.993766   14.18834  0.8639E-10  0.6972E-05  0.1045E-07  0.1351E-02  0.9250E-03  0.2473E+01
   -2.062517   14.18864  0.8639E-10  0.6813E-05  0.1045E-07  0.1340E-02  0.7862E-03  0.2015E+01
   -2.131267   14.18895  0.8639E-10  0.6648E-05  0.1056E-07  0.1306E-02  0.6657E-03  0.1622E+01
   -2.200017   14.18928  0.8639E-10  0.6483E-05  0.1078E-07  0.1223E-02  0.5660E-03  0.1437E+01
   -2.268766   14.18963  0.8639E-10  0.6321E-05  0.1113E-07  0.1126E-02  0.4856E-03  0.1442E+01
   -2.337516   14.19003  0.8639E-10  0.6161E-05  0.1163E-07  0.1032E-02  0.4214E-03  0.1766E+01
   -2.406264   14.19048  0.8639E-10  0.5987E-05  0.1237E-07  0.9320E-03  0.3709E-03  0.2917E+01
   -2.475012   14.19099  0.8639E-10  0.5769E-05  0.1357E-07  0.8029E-03  0.3267E-03  0.6208E+01
   -2.543760   14.19160  0.8639E-10  0.5464E-05  0.1577E-07  0.6260E-03  0.2875E-03  0.1916E+02
   -2.612507   14.19241  0.8639E-10  0.5022E-05  0.2007E-07  0.4730E-03  0.2530E-03  0.1012E+03
   -2.681253   14.19354  0.8639E-10  0.2504E-05  0.5875E-07  0.1724E-04  0.2259E-03 -0.1678E+05
   -2.749999   14.22598  0.8639E-10  0.0000E+00  0.0000E+00  0.0000E+00  0.2251E-03  0.0000E+00
