 1 - depth, m
 2 - temperature, C
 3 - salinity, kg/kg
 4 - turbulent kinetic energy, m**2/s**2
 5 - dissipation rate, m**2/s**3
 6 - kinematic heat conductance, m**2/s
 7 - modulus of horizontal velocity, m/s
 8 - Richardson number, n/d
   -0.000000   12.27475  0.7095E-10  0.6712E-04  0.1725E-04  0.6414E-04  0.6358E-01 -0.4586E-01
   -0.068746   12.32265  0.7095E-10  0.3707E-04  0.3843E-05  0.9283E-04  0.2548E-01 -0.7664E-01
   -0.137492   12.33487  0.7095E-10  0.2731E-04  0.1479E-05  0.1276E-03  0.1888E-01 -0.1155E+00
   -0.206239   12.34329  0.7095E-10  0.2152E-04  0.6724E-06  0.1899E-03  0.1499E-01  0.3557E+02
   -0.274987   12.34967  0.7095E-10  0.1789E-04  0.3472E-06  0.2482E-03  0.1229E-01  0.2155E+02
   -0.343735   12.35468  0.7095E-10  0.1563E-04  0.2025E-06  0.3107E-03  0.1036E-01  0.2974E+02
   -0.412484   12.35865  0.7095E-10  0.1413E-04  0.1307E-06  0.3866E-03  0.8881E-02  0.3128E+01
   -0.481233   12.36178  0.7095E-10  0.1311E-04  0.9169E-07  0.4890E-03  0.7760E-02  0.3008E+01
   -0.549982   12.36418  0.7095E-10  0.1244E-04  0.6925E-07  0.6468E-03  0.6915E-02  0.4162E+02
   -0.618732   12.36593  0.7095E-10  0.1201E-04  0.5555E-07  0.8104E-03  0.6265E-02  0.1697E+02
   -0.687483   12.36724  0.7095E-10  0.1172E-04  0.4649E-07  0.9618E-03  0.5726E-02  0.2094E+02
   -0.756233   12.36825  0.7095E-10  0.1152E-04  0.4008E-07  0.1087E-02  0.5257E-02  0.3028E+02
   -0.824984   12.36907  0.7095E-10  0.1137E-04  0.3530E-07  0.1183E-02  0.4837E-02  0.4163E+02
   -0.893736   12.36978  0.7095E-10  0.1124E-04  0.3157E-07  0.1255E-02  0.4449E-02  0.5054E+02
   -0.962487   12.37041  0.7095E-10  0.1113E-04  0.2852E-07  0.1303E-02  0.4085E-02  0.1360E+02
   -1.031239   12.37100  0.7095E-10  0.1101E-04  0.2595E-07  0.1345E-02  0.3738E-02  0.1895E+02
   -1.099991   12.37156  0.7095E-10  0.1087E-04  0.2374E-07  0.1396E-02  0.3408E-02  0.6828E+01
   -1.168743   12.37209  0.7095E-10  0.1073E-04  0.2183E-07  0.1443E-02  0.3106E-02  0.5482E+01
   -1.237495   12.37260  0.7095E-10  0.1058E-04  0.2017E-07  0.1487E-02  0.2827E-02  0.4690E+01
   -1.306248   12.37308  0.7095E-10  0.1042E-04  0.1873E-07  0.1526E-02  0.2571E-02  0.4138E+01
   -1.375000   12.37354  0.7095E-10  0.1024E-04  0.1748E-07  0.1562E-02  0.2334E-02  0.3719E+01
   -1.443752   12.37398  0.7095E-10  0.1006E-04  0.1640E-07  0.1593E-02  0.2114E-02  0.3381E+01
   -1.512504   12.37441  0.7095E-10  0.9868E-05  0.1546E-07  0.1619E-02  0.1911E-02  0.3099E+01
   -1.581256   12.37482  0.7095E-10  0.9666E-05  0.1465E-07  0.1640E-02  0.1722E-02  0.2857E+01
   -1.650009   12.37522  0.7095E-10  0.9456E-05  0.1397E-07  0.1656E-02  0.1547E-02  0.2643E+01
   -1.718760   12.37560  0.7095E-10  0.9238E-05  0.1340E-07  0.1666E-02  0.1384E-02  0.2453E+01
   -1.787512   12.37598  0.7095E-10  0.9014E-05  0.1294E-07  0.1669E-02  0.1233E-02  0.2279E+01
   -1.856264   12.37634  0.7095E-10  0.8786E-05  0.1259E-07  0.1667E-02  0.1092E-02  0.2121E+01
   -1.925015   12.37670  0.7095E-10  0.8554E-05  0.1235E-07  0.1657E-02  0.9609E-03  0.1972E+01
   -1.993766   12.37705  0.7095E-10  0.8321E-05  0.1222E-07  0.1643E-02  0.8372E-03  0.1847E+01
   -2.062517   12.37740  0.7095E-10  0.8092E-05  0.1219E-07  0.1608E-02  0.7212E-03  0.1563E+01
   -2.131267   12.37775  0.7095E-10  0.7864E-05  0.1229E-07  0.1541E-02  0.6204E-03  0.1333E+01
   -2.200017   12.37811  0.7095E-10  0.7642E-05  0.1251E-07  0.1449E-02  0.5364E-03  0.1201E+01
   -2.268767   12.37848  0.7095E-10  0.7429E-05  0.1287E-07  0.1336E-02  0.4679E-03  0.1185E+01
   -2.337516   12.37888  0.7095E-10  0.7221E-05  0.1341E-07  0.1226E-02  0.4130E-03  0.1421E+01
   -2.406265   12.37931  0.7095E-10  0.6999E-05  0.1422E-07  0.1107E-02  0.3682E-03  0.2234E+01
   -2.475013   12.37979  0.7095E-10  0.6733E-05  0.1555E-07  0.9536E-03  0.3296E-03  0.4419E+01
   -2.543760   12.38033  0.7095E-10  0.6375E-05  0.1797E-07  0.7681E-03  0.2950E-03  0.1256E+02
   -2.612507   12.38100  0.7095E-10  0.5840E-05  0.2316E-07  0.5463E-03  0.2654E-03  0.6420E+04
   -2.681254   12.38202  0.7095E-10  0.2811E-05  0.7184E-07  0.1917E-04  0.2366E-03 -0.1266E+05
   -2.750000   12.40833  0.7095E-10  0.0000E+00  0.0000E+00  0.0000E+00  0.2369E-03  0.0000E+00
