 1 - depth, m
 2 - temperature, C
 3 - salinity, kg/kg
 4 - turbulent kinetic energy, m**2/s**2
 5 - dissipation rate, m**2/s**3
 6 - kinematic heat conductance, m**2/s
 7 - modulus of horizontal velocity, m/s
 8 - Richardson number, n/d
   -0.000000   -0.00000  0.1789E-09  0.1219E-13  0.7603E-17  0.1000E-09  0.0000E+00  0.1343E+17
   -0.068746    0.20725  0.2105E-09  0.4798E-13  0.7603E-17  0.1000E-09  0.0000E+00  0.1277E+17
   -0.137492    0.41625  0.1434E-09  0.1335E-12  0.1133E-16  0.1000E-09  0.0000E+00  0.1200E+17
   -0.206239    0.62514  0.9764E-10  0.2940E-12  0.2091E-16  0.1000E-09  0.0000E+00  0.1121E+17
   -0.274987    0.83350  0.7924E-10  0.5931E-12  0.3963E-16  0.1000E-09  0.0000E+00  0.1041E+17
   -0.343735    1.04092  0.7342E-10  0.1152E-11  0.7450E-16  0.1000E-09  0.0000E+00  0.9622E+16
   -0.412484    1.24732  0.7184E-10  0.2198E-11  0.1387E-15  0.1000E-09  0.0000E+00  0.8828E+16
   -0.481234    1.45215  0.7144E-10  0.4149E-11  0.2560E-15  0.1000E-09  0.0000E+00  0.8034E+16
   -0.549983    1.65484  0.7134E-10  0.7772E-11  0.4693E-15  0.1000E-09  0.0000E+00  0.7259E+16
   -0.618733    1.85519  0.7131E-10  0.1441E-10  0.8518E-15  0.1000E-09  0.0000E+00  0.6507E+16
   -0.687484    2.05304  0.7127E-10  0.2651E-10  0.1535E-14  0.1000E-09  0.0000E+00  0.5773E+16
   -0.756235    2.24798  0.7120E-10  0.4844E-10  0.2747E-14  0.1000E-09  0.0000E+00  0.5077E+16
   -0.824986    2.44023  0.7107E-10  0.8797E-10  0.4886E-14  0.1000E-09  0.0000E+00  0.4403E+16
   -0.893737    2.62942  0.7083E-10  0.1588E-09  0.8640E-14  0.1000E-09  0.0000E+00  0.3754E+16
   -0.962489    2.81522  0.7045E-10  0.2847E-09  0.1518E-13  0.1000E-09  0.0000E+00  0.3136E+16
   -1.031241    2.99741  0.6993E-10  0.5077E-09  0.2653E-13  0.1000E-09  0.0000E+00  0.2551E+16
   -1.099993    3.17582  0.6939E-10  0.9024E-09  0.4622E-13  0.1177E-09  0.0000E+00  0.1999E+16
   -1.168745    3.35026  0.6897E-10  0.1597E-08  0.8020E-13  0.2752E-09  0.0000E+00  0.1484E+16
   -1.237497    3.52072  0.6874E-10  0.2812E-08  0.1384E-12  0.7026E-09  0.0000E+00  0.1003E+16
   -1.306250    3.68724  0.6865E-10  0.4921E-08  0.2376E-12  0.2180E-08  0.0000E+00  0.5552E+15
   -1.375002    3.84916  0.6862E-10  0.8511E-08  0.4033E-12  0.1403E-07  0.0000E+00  0.1466E+15
   -1.443754    3.99725  0.6861E-10  0.8884E-08  0.4220E-12  0.6493E-04  0.0000E+00 -0.6149E+11
   -1.512507    3.99760  0.6861E-10  0.9057E-08  0.4323E-12  0.6685E-04  0.0000E+00 -0.6161E+11
   -1.581259    3.99794  0.6861E-10  0.9212E-08  0.4434E-12  0.6805E-04  0.0000E+00 -0.6234E+11
   -1.650011    3.99828  0.6861E-10  0.9348E-08  0.4554E-12  0.6838E-04  0.0000E+00 -0.6381E+11
   -1.718763    3.99862  0.6861E-10  0.9468E-08  0.4685E-12  0.6809E-04  0.0000E+00 -0.6586E+11
   -1.787515    3.99895  0.6861E-10  0.9571E-08  0.4827E-12  0.6732E-04  0.0000E+00 -0.6846E+11
   -1.856267    3.99930  0.6861E-10  0.9657E-08  0.4985E-12  0.6605E-04  0.0000E+00 -0.7172E+11
   -1.925018    3.99964  0.6861E-10  0.9725E-08  0.5161E-12  0.6426E-04  0.0000E+00 -0.7579E+11
   -1.993769    4.00000  0.6861E-10  0.9775E-08  0.5360E-12  0.6188E-04  0.0000E+00 -0.8096E+11
   -2.062520    4.00037  0.6861E-10  0.9805E-08  0.5589E-12  0.5901E-04  0.0000E+00 -0.8768E+11
   -2.131271    4.00077  0.6861E-10  0.9812E-08  0.5870E-12  0.5560E-04  0.0000E+00 -0.9658E+11
   -2.200021    4.00119  0.6861E-10  0.9793E-08  0.6223E-12  0.5156E-04  0.0000E+00 -0.1086E+12
   -2.268771    4.00165  0.6861E-10  0.9739E-08  0.6680E-12  0.4676E-04  0.0000E+00 -0.1255E+12
   -2.337520    4.00216  0.6861E-10  0.9638E-08  0.7299E-12  0.4104E-04  0.0000E+00 -0.1512E+12
   -2.406269    4.00276  0.6861E-10  0.9465E-08  0.8192E-12  0.3426E-04  0.0000E+00 -0.1942E+12
   -2.475017    4.00350  0.6861E-10  0.9172E-08  0.9615E-12  0.2629E-04  0.0000E+00 -0.2775E+12
   -2.543765    4.00450  0.6861E-10  0.8628E-08  0.1231E-11  0.1688E-04  0.0000E+00 -0.4887E+12
   -2.612512    4.00614  0.6861E-10  0.7511E-08  0.1874E-11  0.7390E-05  0.0000E+00 -0.1342E+13
   -2.681258    4.01007  0.6861E-10  0.3637E-08  0.5450E-11  0.4949E-06  0.0000E+00 -0.3914E+14
   -2.750004    4.06091  0.6861E-10  0.0000E+00  0.0000E+00  0.0000E+00  0.0000E+00  0.0000E+00
