 1 - depth, m
 2 - temperature, C
 3 - salinity, kg/kg
 4 - turbulent kinetic energy, m**2/s**2
 5 - dissipation rate, m**2/s**3
 6 - kinematic heat conductance, m**2/s
 7 - modulus of horizontal velocity, m/s
 8 - Richardson number, n/d
   -0.000000    0.00000  0.0000E+00  0.1219E-13  0.7603E-17  0.1000E-09  0.0000E+00  0.1138E+17
   -0.068746    0.17484  0.8996E-10  0.1219E-13  0.7603E-17  0.1000E-09  0.0000E+00  0.1102E+17
   -0.137493    0.35268  0.1270E-09  0.3104E-13  0.7603E-17  0.1000E-09  0.0000E+00  0.1062E+17
   -0.206241    0.53333  0.1247E-09  0.9873E-13  0.9463E-17  0.1000E-09  0.0000E+00  0.1021E+17
   -0.274989    0.71687  0.1087E-09  0.2281E-12  0.1679E-16  0.1000E-09  0.0000E+00  0.9743E+16
   -0.343737    0.90282  0.9218E-10  0.4662E-12  0.3160E-16  0.1000E-09  0.0000E+00  0.9271E+16
   -0.412487    1.09145  0.8052E-10  0.9082E-12  0.5941E-16  0.1000E-09  0.0000E+00  0.8726E+16
   -0.481236    1.28159  0.7392E-10  0.1734E-11  0.1109E-15  0.1000E-09  0.0000E+00  0.8121E+16
   -0.549986    1.47204  0.7073E-10  0.3277E-11  0.2056E-15  0.1000E-09  0.0000E+00  0.7505E+16
   -0.618737    1.66254  0.6931E-10  0.6132E-11  0.3781E-15  0.1000E-09  0.0000E+00  0.6891E+16
   -0.687488    1.85299  0.6863E-10  0.1141E-10  0.6917E-15  0.1000E-09  0.0000E+00  0.6258E+16
   -0.756239    2.04264  0.6817E-10  0.2112E-10  0.1260E-14  0.1000E-09  0.0000E+00  0.5623E+16
   -0.824991    2.23105  0.6773E-10  0.3894E-10  0.2287E-14  0.1000E-09  0.0000E+00  0.4992E+16
   -0.893742    2.41778  0.6727E-10  0.7155E-10  0.4139E-14  0.1000E-09  0.0000E+00  0.4374E+16
   -0.962495    2.60252  0.6685E-10  0.1310E-09  0.7471E-14  0.1000E-09  0.0000E+00  0.3775E+16
   -1.031247    2.78515  0.6651E-10  0.2393E-09  0.1345E-13  0.1000E-09  0.0000E+00  0.3192E+16
   -1.099999    2.96535  0.6628E-10  0.4372E-09  0.2425E-13  0.1000E-09  0.0000E+00  0.2620E+16
   -1.168752    3.14203  0.6614E-10  0.7983E-09  0.4371E-13  0.1079E-09  0.0000E+00  0.2085E+16
   -1.237505    3.31568  0.6607E-10  0.1456E-08  0.7874E-13  0.2525E-09  0.0000E+00  0.1585E+16
   -1.306257    3.48702  0.6604E-10  0.2652E-08  0.1417E-12  0.6474E-09  0.0000E+00  0.1112E+16
   -1.375010    3.65727  0.6603E-10  0.4822E-08  0.2549E-12  0.1971E-08  0.0000E+00  0.6567E+15
   -1.443763    3.82895  0.6602E-10  0.8712E-08  0.4562E-12  0.1204E-07  0.0000E+00  0.1933E+15
   -1.512516    3.99725  0.6602E-10  0.9158E-08  0.4812E-12  0.6193E-04  0.0000E+00 -0.7440E+11
   -1.581268    3.99768  0.6602E-10  0.9369E-08  0.4955E-12  0.6518E-04  0.0000E+00 -0.7432E+11
   -1.650021    3.99809  0.6602E-10  0.9559E-08  0.5110E-12  0.6722E-04  0.0000E+00 -0.7558E+11
   -1.718773    3.99850  0.6602E-10  0.9731E-08  0.5278E-12  0.6805E-04  0.0000E+00 -0.7812E+11
   -1.787526    3.99891  0.6602E-10  0.9883E-08  0.5460E-12  0.6819E-04  0.0000E+00 -0.8150E+11
   -1.856278    3.99932  0.6602E-10  0.1002E-07  0.5659E-12  0.6779E-04  0.0000E+00 -0.8564E+11
   -1.925029    3.99974  0.6602E-10  0.1013E-07  0.5879E-12  0.6691E-04  0.0000E+00 -0.9062E+11
   -1.993781    4.00017  0.6602E-10  0.1022E-07  0.6123E-12  0.6548E-04  0.0000E+00 -0.9672E+11
   -2.062532    4.00061  0.6602E-10  0.1029E-07  0.6402E-12  0.6330E-04  0.0000E+00 -0.1045E+12
   -2.131283    4.00107  0.6602E-10  0.1034E-07  0.6743E-12  0.5995E-04  0.0000E+00 -0.1152E+12
   -2.200034    4.00156  0.6602E-10  0.1036E-07  0.7170E-12  0.5527E-04  0.0000E+00 -0.1309E+12
   -2.268784    4.00210  0.6602E-10  0.1034E-07  0.7719E-12  0.4978E-04  0.0000E+00 -0.1528E+12
   -2.337533    4.00271  0.6602E-10  0.1027E-07  0.8457E-12  0.4358E-04  0.0000E+00 -0.1846E+12
   -2.406283    4.00342  0.6602E-10  0.1012E-07  0.9512E-12  0.3634E-04  0.0000E+00 -0.2364E+12
   -2.475031    4.00428  0.6602E-10  0.9845E-08  0.1118E-11  0.2780E-04  0.0000E+00 -0.3356E+12
   -2.543779    4.00543  0.6602E-10  0.9301E-08  0.1432E-11  0.1778E-04  0.0000E+00 -0.5854E+12
   -2.612527    4.00730  0.6602E-10  0.8149E-08  0.2178E-11  0.7798E-05  0.0000E+00 -0.1588E+13
   -2.681274    4.01168  0.6602E-10  0.4064E-08  0.6348E-11  0.5456E-06  0.0000E+00 -0.4388E+14
   -2.750020    4.06536  0.6602E-10  0.0000E+00  0.0000E+00  0.0000E+00  0.0000E+00  0.0000E+00
