 1 - depth, m
 2 - temperature, C
 3 - salinity, kg/kg
 4 - turbulent kinetic energy, m**2/s**2
 5 - dissipation rate, m**2/s**3
 6 - kinematic heat conductance, m**2/s
 7 - modulus of horizontal velocity, m/s
 8 - Richardson number, n/d
   -0.000000   -0.00000  0.4285E-09  0.1801E-11  0.4545E-15  0.1000E-09  0.0000E+00  0.1940E+17
   -0.068746    0.30326  0.1147E-09  0.4691E-11  0.5074E-15  0.1000E-09  0.0000E+00  0.1760E+17
   -0.137492    0.60351  0.8090E-10  0.1088E-10  0.8878E-15  0.1000E-09  0.0000E+00  0.1577E+17
   -0.206239    0.89883  0.7223E-10  0.2288E-10  0.1708E-14  0.1000E-09  0.0000E+00  0.1403E+17
   -0.274986    1.18903  0.6963E-10  0.4606E-10  0.3306E-14  0.1000E-09  0.0000E+00  0.1237E+17
   -0.343734    1.47404  0.6896E-10  0.9069E-10  0.6341E-14  0.1000E-09  0.0000E+00  0.1081E+17
   -0.412483    1.75405  0.6882E-10  0.1764E-09  0.1205E-13  0.1000E-09  0.0000E+00  0.9332E+16
   -0.481232    2.02903  0.6878E-10  0.3401E-09  0.2275E-13  0.1000E-09  0.0000E+00  0.7933E+16
   -0.549981    2.29893  0.6876E-10  0.6513E-09  0.4264E-13  0.1000E-09  0.0000E+00  0.6620E+16
   -0.618731    2.56403  0.6871E-10  0.1234E-08  0.7914E-13  0.1000E-09  0.0000E+00  0.5385E+16
   -0.687481    2.82465  0.6854E-10  0.2322E-08  0.1458E-12  0.1761E-09  0.0000E+00  0.4216E+16
   -0.756232    3.08076  0.6812E-10  0.4339E-08  0.2669E-12  0.4352E-09  0.0000E+00  0.3122E+16
   -0.824983    3.33338  0.6731E-10  0.8053E-08  0.4854E-12  0.1192E-08  0.0000E+00  0.2074E+16
   -0.893734    3.58160  0.6644E-10  0.1483E-07  0.8762E-12  0.4146E-08  0.0000E+00  0.1076E+16
   -0.962486    3.82168  0.6605E-10  0.2667E-07  0.1548E-11  0.3812E-07  0.0000E+00  0.2067E+15
   -1.031237    4.01378  0.6600E-10  0.2708E-07  0.1574E-11  0.1758E-03  0.0000E+00 -0.8407E+11
   -1.099989    4.01398  0.6600E-10  0.2727E-07  0.1588E-11  0.1716E-03  0.0000E+00 -0.8712E+11
   -1.168741    4.01418  0.6600E-10  0.2745E-07  0.1604E-11  0.1717E-03  0.0000E+00 -0.8809E+11
   -1.237493    4.01438  0.6600E-10  0.2761E-07  0.1621E-11  0.1718E-03  0.0000E+00 -0.8912E+11
   -1.306245    4.01458  0.6600E-10  0.2775E-07  0.1641E-11  0.1716E-03  0.0000E+00 -0.9034E+11
   -1.374997    4.01479  0.6600E-10  0.2788E-07  0.1662E-11  0.1711E-03  0.0000E+00 -0.9166E+11
   -1.443749    4.01499  0.6600E-10  0.2799E-07  0.1685E-11  0.1701E-03  0.0000E+00 -0.9300E+11
   -1.512501    4.01520  0.6600E-10  0.2808E-07  0.1710E-11  0.1689E-03  0.0000E+00 -0.9456E+11
   -1.581253    4.01541  0.6600E-10  0.2815E-07  0.1737E-11  0.1673E-03  0.0000E+00 -0.9638E+11
   -1.650005    4.01562  0.6600E-10  0.2820E-07  0.1767E-11  0.1653E-03  0.0000E+00 -0.9847E+11
   -1.718757    4.01583  0.6600E-10  0.2823E-07  0.1800E-11  0.1629E-03  0.0000E+00 -0.1009E+12
   -1.787509    4.01605  0.6600E-10  0.2824E-07  0.1836E-11  0.1601E-03  0.0000E+00 -0.1037E+12
   -1.856260    4.01627  0.6600E-10  0.2823E-07  0.1876E-11  0.1570E-03  0.0000E+00 -0.1068E+12
   -1.925011    4.01650  0.6600E-10  0.2820E-07  0.1921E-11  0.1534E-03  0.0000E+00 -0.1105E+12
   -1.993762    4.01673  0.6600E-10  0.2815E-07  0.1970E-11  0.1494E-03  0.0000E+00 -0.1147E+12
   -2.062513    4.01697  0.6600E-10  0.2807E-07  0.2026E-11  0.1449E-03  0.0000E+00 -0.1198E+12
   -2.131263    4.01722  0.6600E-10  0.2795E-07  0.2094E-11  0.1395E-03  0.0000E+00 -0.1262E+12
   -2.200013    4.01748  0.6600E-10  0.2780E-07  0.2177E-11  0.1333E-03  0.0000E+00 -0.1341E+12
   -2.268763    4.01775  0.6600E-10  0.2757E-07  0.2292E-11  0.1257E-03  0.0000E+00 -0.1449E+12
   -2.337512    4.01804  0.6600E-10  0.2721E-07  0.2471E-11  0.9918E-04  0.0000E+00 -0.1879E+12
   -2.406260    4.01842  0.6600E-10  0.2667E-07  0.2742E-11  0.7599E-04  0.0000E+00 -0.2528E+12
   -2.475008    4.01892  0.6600E-10  0.2585E-07  0.3180E-11  0.5679E-04  0.0000E+00 -0.3532E+12
   -2.543756    4.01960  0.6600E-10  0.2446E-07  0.3999E-11  0.3678E-04  0.0000E+00 -0.5775E+12
   -2.612502    4.02069  0.6600E-10  0.2183E-07  0.5861E-11  0.1731E-04  0.0000E+00 -0.1330E+13
   -2.681249    4.02308  0.6600E-10  0.1043E-07  0.1812E-10  0.9816E-06  0.0000E+00 -0.3452E+14
   -2.749994    4.06222  0.6600E-10  0.0000E+00  0.0000E+00  0.0000E+00  0.0000E+00  0.0000E+00
