 1 - depth, m
 2 - temperature, C
 3 - salinity, kg/kg
 4 - turbulent kinetic energy, m**2/s**2
 5 - dissipation rate, m**2/s**3
 6 - kinematic heat conductance, m**2/s
 7 - modulus of horizontal velocity, m/s
 8 - Richardson number, n/d
   -0.000000    1.59337  0.7293E-10  0.1160E-03  0.3875E-04  0.8151E-04  0.9645E-01  0.2655E-02
   -0.068746    1.62574  0.7293E-10  0.6447E-04  0.9587E-05  0.1230E-03  0.3832E-01  0.5866E-02
   -0.137492    1.63385  0.7293E-10  0.4599E-04  0.3981E-05  0.1223E-03  0.2969E-01  0.8586E-02
   -0.206240    1.63985  0.7293E-10  0.3406E-04  0.1840E-05  0.1249E-03  0.2447E-01  0.1233E-01
   -0.274987    1.64494  0.7293E-10  0.2594E-04  0.9237E-06  0.1295E-03  0.2069E-01  0.2013E-01
   -0.343736    1.64945  0.7293E-10  0.2051E-04  0.5040E-06  0.1317E-03  0.1787E-01  0.2771E-01
   -0.412484    1.65364  0.7293E-10  0.1658E-04  0.2958E-06  0.1337E-03  0.1554E-01  0.3983E-01
   -0.481234    1.65758  0.7293E-10  0.1367E-04  0.1847E-06  0.1360E-03  0.1364E-01  0.6133E-01
   -0.549983    1.66130  0.7293E-10  0.1159E-04  0.1226E-06  0.1364E-03  0.1213E-01  0.8553E-01
   -0.618734    1.66489  0.7294E-10  0.1010E-04  0.8653E-07  0.1343E-03  0.1086E-01  0.1015E+00
   -0.687484    1.66849  0.7294E-10  0.8937E-05  0.6402E-07  0.1321E-03  0.9699E-02  0.1220E+00
   -0.756235    1.67213  0.7294E-10  0.7988E-05  0.4920E-07  0.1291E-03  0.8650E-02  0.1473E+00
   -0.824986    1.67588  0.7294E-10  0.7178E-05  0.3896E-07  0.1250E-03  0.7691E-02  0.1775E+00
   -0.893738    1.67984  0.7294E-10  0.6464E-05  0.3156E-07  0.1193E-03  0.6805E-02  0.2113E+00
   -0.962489    1.68417  0.7294E-10  0.5807E-05  0.2595E-07  0.1113E-03  0.5970E-02  0.2410E+00
   -1.031241    1.68920  0.7294E-10  0.5156E-05  0.2134E-07  0.1017E-03  0.5153E-02  0.2968E+00
   -1.099993    1.69575  0.7294E-10  0.4489E-05  0.1734E-07  0.9474E-04  0.4349E-02  0.8137E+00
   -1.168746    1.70424  0.7294E-10  0.3868E-05  0.1405E-07  0.8526E-04  0.3690E-02  0.5811E+01
   -1.237498    1.71415  0.7294E-10  0.3294E-05  0.1132E-07  0.7476E-04  0.3134E-02  0.8081E+02
   -1.306250    1.72933  0.7294E-10  0.2772E-05  0.9071E-08  0.6422E-04  0.2640E-02  0.1437E+04
   -1.375003    1.75095  0.7294E-10  0.2313E-05  0.7231E-08  0.5420E-04  0.2195E-02  0.3049E+05
   -1.443755    1.77506  0.7294E-10  0.1912E-05  0.5728E-08  0.4473E-04  0.1824E-02  0.7321E+06
   -1.512508    1.79568  0.7294E-10  0.1557E-05  0.4488E-08  0.3584E-04  0.1516E-02  0.1669E+08
   -1.581260    1.81470  0.7294E-10  0.1248E-05  0.3470E-08  0.2768E-04  0.1251E-02  0.3996E+09
   -1.650012    1.83230  0.7294E-10  0.9753E-06  0.2629E-08  0.2025E-04  0.1025E-02  0.1115E+11
   -1.718764    1.85091  0.7294E-10  0.7387E-06  0.1941E-08  0.1374E-04  0.8221E-03  0.3877E+12
   -1.787516    1.87275  0.7294E-10  0.5368E-06  0.1382E-08  0.8343E-05  0.6445E-03  0.1874E+14
   -1.856268    1.90010  0.7294E-10  0.3632E-06  0.9207E-09  0.4065E-05  0.4921E-03  0.1762E+15
   -1.925019    1.94602  0.7294E-10  0.2108E-06  0.5357E-09  0.9872E-06  0.3507E-03  0.7143E+15
   -1.993770    2.03919  0.7294E-10  0.7288E-07  0.1930E-09  0.8099E-07  0.2032E-03  0.1730E+16
   -2.062521    2.25624  0.7295E-10  0.8451E-08  0.2314E-10  0.1249E-07  0.3269E-04  0.2571E+16
   -2.131272    2.52708  0.7295E-10  0.5854E-09  0.2381E-11  0.1575E-08  0.2340E-05  0.2558E+16
   -2.200022    2.76260  0.7295E-10  0.2529E-10  0.1006E-11  0.1768E-09  0.1271E-06  0.2413E+16
   -2.268772    2.98763  0.7295E-10  0.4419E-11  0.1000E-11  0.1000E-09  0.6058E-08  0.2359E+16
   -2.337521    3.23057  0.7295E-10  0.4419E-11  0.1000E-11  0.1000E-09  0.2561E-09  0.2066E+16
   -2.406270    3.50005  0.7295E-10  0.4419E-11  0.1000E-11  0.1000E-09  0.9438E-11  0.1444E+16
   -2.475018    3.78097  0.7295E-10  0.4419E-11  0.1000E-11  0.1000E-09  0.2954E-12  0.2863E+14
   -2.543766    4.10433  0.7295E-10  0.4419E-11  0.1000E-11  0.1000E-09  0.8856E-14 -0.2075E+16
   -2.612513    4.47822  0.7295E-10  0.4419E-11  0.1000E-11  0.1000E-09  0.2862E-15 -0.6629E+16
   -2.681260    5.03148  0.7295E-10  0.4419E-11  0.1000E-11  0.1000E-09  0.7778E-17 -0.1374E+17
   -2.750005    5.69094  0.7295E-10  0.0000E+00  0.0000E+00  0.0000E+00  0.7668E-17  0.0000E+00
