 1 - depth, m
 2 - temperature, C
 3 - salinity, kg/kg
 4 - turbulent kinetic energy, m**2/s**2
 5 - dissipation rate, m**2/s**3
 6 - kinematic heat conductance, m**2/s
 7 - modulus of horizontal velocity, m/s
 8 - Richardson number, n/d
   -0.000000    2.00459  0.6587E-10  0.1668E-03  0.6421E-04  0.9855E-04  0.1237E+00  0.5181E-02
   -0.068746    2.04489  0.6587E-10  0.8927E-04  0.1477E-04  0.1532E-03  0.4489E-01  0.3711E-02
   -0.137492    2.05326  0.6587E-10  0.6337E-04  0.6119E-05  0.1451E-03  0.3483E-01  0.4903E-02
   -0.206239    2.05964  0.6587E-10  0.4690E-04  0.2937E-05  0.1451E-03  0.2894E-01  0.8049E-02
   -0.274987    2.06511  0.6588E-10  0.3598E-04  0.1531E-05  0.1504E-03  0.2463E-01  0.1223E-01
   -0.343735    2.06993  0.6588E-10  0.2878E-04  0.8567E-06  0.1558E-03  0.2133E-01  0.1565E-01
   -0.412484    2.07430  0.6588E-10  0.2364E-04  0.5096E-06  0.1634E-03  0.1857E-01  0.2145E-01
   -0.481233    2.07825  0.6588E-10  0.1990E-04  0.3213E-06  0.1729E-03  0.1633E-01  0.3150E-01
   -0.549983    2.08182  0.6588E-10  0.1725E-04  0.2152E-06  0.1811E-03  0.1453E-01  0.4224E-01
   -0.618733    2.08510  0.6588E-10  0.1536E-04  0.1529E-06  0.1869E-03  0.1303E-01  0.4962E-01
   -0.687483    2.08818  0.6588E-10  0.1392E-04  0.1141E-06  0.1927E-03  0.1167E-01  0.5873E-01
   -0.756234    2.09110  0.6588E-10  0.1276E-04  0.8866E-07  0.1975E-03  0.1047E-01  0.6918E-01
   -0.824985    2.09388  0.6588E-10  0.1178E-04  0.7114E-07  0.2008E-03  0.9380E-02  0.8046E-01
   -0.893737    2.09656  0.6588E-10  0.1092E-04  0.5849E-07  0.2017E-03  0.8393E-02  0.9156E-01
   -0.962488    2.09918  0.6588E-10  0.1012E-04  0.4890E-07  0.1993E-03  0.7481E-02  0.1001E+00
   -1.031240    2.10183  0.6588E-10  0.9330E-05  0.4116E-07  0.1945E-03  0.6617E-02  0.1114E+00
   -1.099992    2.10455  0.6588E-10  0.8519E-05  0.3462E-07  0.1936E-03  0.5797E-02  0.1567E+00
   -1.168744    2.10725  0.6588E-10  0.7745E-05  0.2921E-07  0.1892E-03  0.5090E-02  0.2183E+00
   -1.237497    2.11005  0.6588E-10  0.7020E-05  0.2472E-07  0.1826E-03  0.4468E-02  0.3095E+00
   -1.306249    2.11309  0.6588E-10  0.6349E-05  0.2098E-07  0.1747E-03  0.3912E-02  0.4587E+00
   -1.375001    2.11661  0.6588E-10  0.5734E-05  0.1787E-07  0.1660E-03  0.3413E-02  0.7564E+00
   -1.443754    2.12134  0.6588E-10  0.5177E-05  0.1527E-07  0.1571E-03  0.2958E-02  0.2095E+01
   -1.512506    2.13017  0.6588E-10  0.4684E-05  0.1311E-07  0.1483E-03  0.2547E-02  0.1960E+02
   -1.581258    2.14124  0.6588E-10  0.4246E-05  0.1131E-07  0.1393E-03  0.2200E-02  0.2946E+03
   -1.650010    2.15171  0.6588E-10  0.3853E-05  0.9797E-08  0.1302E-03  0.1905E-02  0.5634E+04
   -1.718762    2.16176  0.6589E-10  0.3498E-05  0.8516E-08  0.1210E-03  0.1646E-02  0.1293E+06
   -1.787514    2.17159  0.6589E-10  0.3177E-05  0.7429E-08  0.1117E-03  0.1416E-02  0.3893E+07
   -1.856266    2.18234  0.6589E-10  0.2885E-05  0.6502E-08  0.1021E-03  0.1207E-02  0.1664E+09
   -1.925017    2.19667  0.6589E-10  0.2616E-05  0.5705E-08  0.9217E-04  0.1014E-02  0.9425E+10
   -1.993768    2.22143  0.6589E-10  0.2363E-05  0.5000E-08  0.8112E-04  0.8299E-03  0.5055E+12
   -2.062519    2.27329  0.6589E-10  0.2120E-05  0.4361E-08  0.7529E-04  0.6379E-03  0.8028E+14
   -2.131270    2.33300  0.6589E-10  0.1894E-05  0.3794E-08  0.7002E-04  0.4869E-03  0.4645E+15
   -2.200020    2.38948  0.6590E-10  0.1689E-05  0.3305E-08  0.6375E-04  0.3735E-03  0.6734E+15
   -2.268769    2.45173  0.6590E-10  0.1502E-05  0.2890E-08  0.5687E-04  0.2855E-03  0.8817E+15
   -2.337519    2.52389  0.6590E-10  0.1330E-05  0.2540E-08  0.4959E-04  0.2160E-03  0.1129E+16
   -2.406267    2.61044  0.6590E-10  0.1167E-05  0.2250E-08  0.4199E-04  0.1609E-03  0.1264E+16
   -2.475016    2.71292  0.6590E-10  0.1011E-05  0.2028E-08  0.3407E-04  0.1179E-03  0.1105E+16
   -2.543763    2.81495  0.6590E-10  0.8487E-06  0.1897E-08  0.2503E-04  0.8636E-04  0.1146E+16
   -2.612510    2.94368  0.6590E-10  0.6622E-06  0.1958E-08  0.1487E-04  0.6330E-04  0.1499E+16
   -2.681257    3.25592  0.6590E-10  0.2362E-06  0.3845E-08  0.1348E-05  0.4486E-04 -0.2907E+16
   -2.750003    3.93733  0.6591E-10  0.0000E+00  0.0000E+00  0.0000E+00  0.4649E-04  0.0000E+00
