 1 - depth, m
 2 - temperature, C
 3 - salinity, kg/kg
 4 - turbulent kinetic energy, m**2/s**2
 5 - dissipation rate, m**2/s**3
 6 - kinematic heat conductance, m**2/s
 7 - modulus of horizontal velocity, m/s
 8 - Richardson number, n/d
   -0.000000    9.83628  0.6650E-10  0.1459E-04  0.6666E-06  0.3483E-04  0.2042E-01 -0.4815E-01
   -0.068746    9.88050  0.6650E-10  0.1230E-04  0.2284E-06  0.8751E-04  0.1148E-01 -0.1687E+00
   -0.137492    9.89754  0.6650E-10  0.1089E-04  0.1202E-06  0.1755E-03  0.8150E-02  0.1276E+03
   -0.206239    9.90709  0.6650E-10  0.9965E-05  0.7559E-07  0.2777E-03  0.6336E-02  0.5909E+02
   -0.274987    9.91318  0.6650E-10  0.9386E-05  0.5315E-07  0.3855E-03  0.5241E-02  0.2537E+02
   -0.343735    9.91732  0.6650E-10  0.9060E-05  0.4077E-07  0.5544E-03  0.4537E-02  0.1329E+02
   -0.412483    9.91982  0.6650E-10  0.8914E-05  0.3395E-07  0.8019E-03  0.4058E-02  0.2447E+01
   -0.481232    9.92140  0.6650E-10  0.8873E-05  0.2949E-07  0.8891E-03  0.3748E-02  0.2249E+01
   -0.549982    9.92279  0.6650E-10  0.8878E-05  0.2595E-07  0.9987E-03  0.3452E-02  0.2402E+01
   -0.618732    9.92399  0.6650E-10  0.8916E-05  0.2323E-07  0.1110E-02  0.3191E-02  0.2618E+01
   -0.687482    9.92505  0.6650E-10  0.8971E-05  0.2105E-07  0.1207E-02  0.2946E-02  0.2791E+01
   -0.756233    9.92601  0.6650E-10  0.9033E-05  0.1928E-07  0.1283E-02  0.2716E-02  0.2906E+01
   -0.824984    9.92690  0.6650E-10  0.9092E-05  0.1781E-07  0.1352E-02  0.2499E-02  0.2993E+01
   -0.893735    9.92772  0.6650E-10  0.9142E-05  0.1658E-07  0.1413E-02  0.2294E-02  0.3065E+01
   -0.962487    9.92850  0.6650E-10  0.9180E-05  0.1552E-07  0.1469E-02  0.2098E-02  0.3133E+01
   -1.031239    9.92923  0.6650E-10  0.9202E-05  0.1462E-07  0.1524E-02  0.1912E-02  0.3123E+01
   -1.099990    9.92992  0.6650E-10  0.9204E-05  0.1383E-07  0.1592E-02  0.1735E-02  0.2868E+01
   -1.168742    9.93058  0.6650E-10  0.9187E-05  0.1316E-07  0.1658E-02  0.1573E-02  0.2656E+01
   -1.237495    9.93120  0.6650E-10  0.9152E-05  0.1258E-07  0.1719E-02  0.1426E-02  0.2474E+01
   -1.306247    9.93179  0.6650E-10  0.9101E-05  0.1210E-07  0.1776E-02  0.1291E-02  0.2314E+01
   -1.374999    9.93235  0.6650E-10  0.9033E-05  0.1169E-07  0.1827E-02  0.1169E-02  0.2172E+01
   -1.443751    9.93288  0.6650E-10  0.8952E-05  0.1135E-07  0.1871E-02  0.1058E-02  0.2042E+01
   -1.512503    9.93340  0.6650E-10  0.8857E-05  0.1108E-07  0.1907E-02  0.9562E-03  0.1924E+01
   -1.581256    9.93390  0.6650E-10  0.8752E-05  0.1088E-07  0.1934E-02  0.8639E-03  0.1812E+01
   -1.650008    9.93438  0.6650E-10  0.8637E-05  0.1073E-07  0.1953E-02  0.7798E-03  0.1710E+01
   -1.718760    9.93485  0.6650E-10  0.8514E-05  0.1064E-07  0.1963E-02  0.7032E-03  0.1612E+01
   -1.787511    9.93531  0.6650E-10  0.8386E-05  0.1061E-07  0.1963E-02  0.6333E-03  0.1521E+01
   -1.856263    9.93576  0.6650E-10  0.8255E-05  0.1063E-07  0.1941E-02  0.5694E-03  0.1433E+01
   -1.925014    9.93621  0.6650E-10  0.8121E-05  0.1071E-07  0.1887E-02  0.5106E-03  0.1352E+01
   -1.993765    9.93667  0.6650E-10  0.7987E-05  0.1085E-07  0.1802E-02  0.4564E-03  0.1281E+01
   -2.062516    9.93714  0.6650E-10  0.7855E-05  0.1104E-07  0.1711E-02  0.4065E-03  0.1186E+01
   -2.131266    9.93763  0.6650E-10  0.7722E-05  0.1131E-07  0.1616E-02  0.3633E-03  0.1144E+01
   -2.200016    9.93814  0.6650E-10  0.7588E-05  0.1165E-07  0.1522E-02  0.3268E-03  0.1232E+01
   -2.268766    9.93868  0.6650E-10  0.7447E-05  0.1211E-07  0.1426E-02  0.2960E-03  0.1535E+01
   -2.337515    9.93925  0.6650E-10  0.7285E-05  0.1276E-07  0.1310E-02  0.2686E-03  0.2252E+01
   -2.406263    9.93986  0.6650E-10  0.7088E-05  0.1373E-07  0.1164E-02  0.2426E-03  0.3764E+01
   -2.475011    9.94055  0.6650E-10  0.6835E-05  0.1527E-07  0.9912E-03  0.2180E-03  0.7562E+01
   -2.543759    9.94135  0.6650E-10  0.6483E-05  0.1799E-07  0.7633E-03  0.1956E-03  0.2143E+02
   -2.612506    9.94238  0.6650E-10  0.5977E-05  0.2325E-07  0.5821E-03  0.1754E-03  0.9683E+02
   -2.681252    9.94371  0.6650E-10  0.2945E-05  0.7260E-07  0.1797E-04  0.1594E-03 -0.1905E+05
   -2.749998    9.98593  0.6650E-10  0.0000E+00  0.0000E+00  0.0000E+00  0.1588E-03  0.0000E+00
