 1 - depth, m
 2 - temperature, C
 3 - salinity, kg/kg
 4 - turbulent kinetic energy, m**2/s**2
 5 - dissipation rate, m**2/s**3
 6 - kinematic heat conductance, m**2/s
 7 - modulus of horizontal velocity, m/s
 8 - Richardson number, n/d
   -0.000000    7.01541  0.6908E-10  0.2183E-03  0.8909E-04  0.1263E-03  0.1472E+00 -0.7632E-04
   -0.068746    7.08680  0.6909E-10  0.1185E-03  0.2220E-04  0.2040E-03  0.4911E-01 -0.1423E-01
   -0.137492    7.09844  0.6909E-10  0.8473E-04  0.9380E-05  0.1906E-03  0.3800E-01 -0.1414E-01
   -0.206239    7.10710  0.6910E-10  0.6327E-04  0.4336E-05  0.1918E-03  0.3170E-01 -0.1401E-01
   -0.274987    7.11402  0.6910E-10  0.4912E-04  0.2167E-05  0.2050E-03  0.2713E-01 -0.2048E-01
   -0.343735    7.11996  0.6910E-10  0.3991E-04  0.1179E-05  0.2210E-03  0.2360E-01 -0.2379E-01
   -0.412483    7.12521  0.6910E-10  0.3357E-04  0.6957E-06  0.2428E-03  0.2061E-01 -0.2979E-01
   -0.481233    7.12981  0.6910E-10  0.2912E-04  0.4423E-06  0.2703E-03  0.1816E-01 -0.3882E-01
   -0.549982    7.13381  0.6910E-10  0.2603E-04  0.3017E-06  0.2996E-03  0.1617E-01 -0.4721E-01
   -0.618732    7.13732  0.6910E-10  0.2384E-04  0.2192E-06  0.3289E-03  0.1449E-01 -0.5341E-01
   -0.687483    7.14044  0.6910E-10  0.2219E-04  0.1673E-06  0.3607E-03  0.1302E-01 -0.6097E-01
   -0.756233    7.14321  0.6910E-10  0.2086E-04  0.1328E-06  0.3935E-03  0.1174E-01 -0.6942E-01
   -0.824984    7.14569  0.6910E-10  0.1974E-04  0.1086E-06  0.4262E-03  0.1060E-01 -0.7841E-01
   -0.893736    7.14792  0.6910E-10  0.1875E-04  0.9091E-07  0.4578E-03  0.9586E-02 -0.8740E-01
   -0.962487    7.14996  0.6910E-10  0.1785E-04  0.7735E-07  0.4885E-03  0.8674E-02 -0.9156E-01
   -1.031239    7.15182  0.6910E-10  0.1699E-04  0.6655E-07  0.5246E-03  0.7842E-02  0.4791E+00
   -1.099991    7.15352  0.6910E-10  0.1616E-04  0.5770E-07  0.5831E-03  0.7086E-02  0.1649E+01
   -1.168743    7.15505  0.6910E-10  0.1538E-04  0.5045E-07  0.6780E-03  0.6425E-02  0.2122E+02
   -1.237495    7.15640  0.6910E-10  0.1465E-04  0.4446E-07  0.7909E-03  0.5842E-02  0.8237E+02
   -1.306247    7.15758  0.6910E-10  0.1399E-04  0.3949E-07  0.9301E-03  0.5323E-02  0.1451E+03
   -1.374999    7.15859  0.6910E-10  0.1338E-04  0.3533E-07  0.1077E-02  0.4858E-02  0.4383E+02
   -1.443752    7.15944  0.6910E-10  0.1281E-04  0.3181E-07  0.1204E-02  0.4436E-02  0.8268E+03
   -1.512504    7.16017  0.6910E-10  0.1228E-04  0.2882E-07  0.1307E-02  0.4049E-02  0.1750E+02
   -1.581256    7.16081  0.6910E-10  0.1179E-04  0.2624E-07  0.1384E-02  0.3689E-02  0.3934E+02
   -1.650008    7.16139  0.6910E-10  0.1132E-04  0.2402E-07  0.1446E-02  0.3352E-02  0.3331E+02
   -1.718760    7.16192  0.6910E-10  0.1088E-04  0.2210E-07  0.1479E-02  0.3034E-02  0.4541E+02
   -1.787512    7.16242  0.6910E-10  0.1045E-04  0.2043E-07  0.1496E-02  0.2732E-02  0.5611E+03
   -1.856263    7.16290  0.6910E-10  0.1004E-04  0.1899E-07  0.1497E-02  0.2444E-02  0.1627E+02
   -1.925015    7.16336  0.6910E-10  0.9642E-05  0.1775E-07  0.1485E-02  0.2168E-02  0.5752E+01
   -1.993766    7.16381  0.6910E-10  0.9255E-05  0.1670E-07  0.1463E-02  0.1902E-02  0.3833E+01
   -2.062516    7.16425  0.6910E-10  0.8876E-05  0.1583E-07  0.1464E-02  0.1642E-02  0.4238E+01
   -2.131267    7.16469  0.6910E-10  0.8493E-05  0.1512E-07  0.1467E-02  0.1407E-02  0.1756E+01
   -2.200017    7.16512  0.6910E-10  0.8113E-05  0.1458E-07  0.1442E-02  0.1199E-02  0.1245E+01
   -2.268766    7.16555  0.6910E-10  0.7745E-05  0.1426E-07  0.1364E-02  0.1020E-02  0.8958E+00
   -2.337515    7.16600  0.6910E-10  0.7396E-05  0.1419E-07  0.1249E-02  0.8696E-03  0.6391E+00
   -2.406264    7.16648  0.6910E-10  0.7080E-05  0.1440E-07  0.1128E-02  0.7475E-03  0.4632E+00
   -2.475012    7.16700  0.6910E-10  0.6785E-05  0.1494E-07  0.1026E-02  0.6568E-03  0.2228E+01
   -2.543760    7.16758  0.6910E-10  0.6419E-05  0.1619E-07  0.8466E-03  0.5899E-03  0.5590E+02
   -2.612507    7.16827  0.6910E-10  0.5797E-05  0.1985E-07  0.3075E-03  0.5256E-03  0.2885E+04
   -2.681253    7.17010  0.6910E-10  0.2547E-05  0.5649E-07  0.1509E-04  0.4465E-03 -0.7784E+04
   -2.749999    7.20602  0.6910E-10  0.0000E+00  0.0000E+00  0.0000E+00  0.4430E-03  0.0000E+00
