 1 - depth, m
 2 - temperature, C
 3 - salinity, kg/kg
 4 - turbulent kinetic energy, m**2/s**2
 5 - dissipation rate, m**2/s**3
 6 - kinematic heat conductance, m**2/s
 7 - modulus of horizontal velocity, m/s
 8 - Richardson number, n/d
   -0.000000   -0.00000  0.4434E-09  0.1219E-13  0.7603E-17  0.1000E-09  0.0000E+00  0.1174E+17
   -0.068746    0.18046  0.2107E-09  0.1219E-13  0.7603E-17  0.1000E-09  0.0000E+00  0.1111E+17
   -0.137492    0.36015  0.1164E-09  0.1219E-13  0.7603E-17  0.1000E-09  0.0000E+00  0.1041E+17
   -0.206239    0.53752  0.8890E-10  0.1219E-13  0.7603E-17  0.1000E-09  0.0000E+00  0.9719E+16
   -0.274987    0.71226  0.8213E-10  0.1219E-13  0.7603E-17  0.1000E-09  0.0000E+00  0.9040E+16
   -0.343735    0.88413  0.8055E-10  0.1219E-13  0.7603E-17  0.1000E-09  0.0000E+00  0.8393E+16
   -0.412483    1.05320  0.8019E-10  0.1219E-13  0.7603E-17  0.1000E-09  0.0000E+00  0.7766E+16
   -0.481232    1.21931  0.8011E-10  0.1219E-13  0.7603E-17  0.1000E-09  0.0000E+00  0.7159E+16
   -0.549982    1.38226  0.8009E-10  0.1219E-13  0.7603E-17  0.1000E-09  0.0000E+00  0.6586E+16
   -0.618732    1.54217  0.8007E-10  0.1219E-13  0.7603E-17  0.1000E-09  0.0000E+00  0.6045E+16
   -0.687482    1.69920  0.8004E-10  0.1219E-13  0.7603E-17  0.1000E-09  0.0000E+00  0.5528E+16
   -0.756233    1.85329  0.7999E-10  0.1275E-13  0.7603E-17  0.1000E-09  0.0000E+00  0.5057E+16
   -0.824984    2.00512  0.7989E-10  0.6154E-13  0.8630E-17  0.1000E-09  0.0000E+00  0.4602E+16
   -0.893735    2.15459  0.7974E-10  0.1655E-12  0.1689E-16  0.1000E-09  0.0000E+00  0.4164E+16
   -0.962487    2.30158  0.7953E-10  0.3773E-12  0.3540E-16  0.1000E-09  0.0000E+00  0.3742E+16
   -1.031239    2.44594  0.7926E-10  0.8153E-12  0.7370E-16  0.1000E-09  0.0000E+00  0.3338E+16
   -1.099991    2.58758  0.7893E-10  0.1730E-11  0.1522E-15  0.1000E-09  0.0000E+00  0.2952E+16
   -1.168743    2.72638  0.7857E-10  0.3632E-11  0.3118E-15  0.1000E-09  0.0000E+00  0.2584E+16
   -1.237495    2.86213  0.7819E-10  0.7558E-11  0.6335E-15  0.1000E-09  0.0000E+00  0.2232E+16
   -1.306247    2.99458  0.7777E-10  0.1560E-10  0.1277E-14  0.1000E-09  0.0000E+00  0.1899E+16
   -1.374999    3.12341  0.7733E-10  0.3195E-10  0.2556E-14  0.1000E-09  0.0000E+00  0.1590E+16
   -1.443751    3.24867  0.7690E-10  0.6493E-10  0.5076E-14  0.1000E-09  0.0000E+00  0.1307E+16
   -1.512504    3.37063  0.7655E-10  0.1310E-09  0.1001E-13  0.1000E-09  0.0000E+00  0.1042E+16
   -1.581256    3.48907  0.7633E-10  0.2623E-09  0.1959E-13  0.1252E-09  0.0000E+00  0.7963E+15
   -1.650008    3.60383  0.7623E-10  0.5213E-09  0.3809E-13  0.3394E-09  0.0000E+00  0.5712E+15
   -1.718760    3.71476  0.7620E-10  0.1029E-08  0.7352E-13  0.1021E-08  0.0000E+00  0.3664E+15
   -1.787511    3.82163  0.7619E-10  0.2011E-08  0.1407E-12  0.3946E-08  0.0000E+00  0.1815E+15
   -1.856263    3.92314  0.7619E-10  0.3825E-08  0.2627E-12  0.4481E-07  0.0000E+00  0.2979E+14
   -1.925014    4.00016  0.7619E-10  0.4395E-08  0.3035E-12  0.2332E-04  0.0000E+00 -0.1346E+12
   -1.993765    4.00077  0.7619E-10  0.4649E-08  0.3265E-12  0.2373E-04  0.0000E+00 -0.1378E+12
   -2.062516    4.00136  0.7619E-10  0.4866E-08  0.3520E-12  0.2388E-04  0.0000E+00 -0.1455E+12
   -2.131266    4.00197  0.7619E-10  0.5058E-08  0.3824E-12  0.2364E-04  0.0000E+00 -0.1585E+12
   -2.200016    4.00260  0.7619E-10  0.5225E-08  0.4198E-12  0.2284E-04  0.0000E+00 -0.1784E+12
   -2.268766    4.00329  0.7619E-10  0.5366E-08  0.4674E-12  0.2147E-04  0.0000E+00 -0.2089E+12
   -2.337515    4.00405  0.7619E-10  0.5474E-08  0.5311E-12  0.1948E-04  0.0000E+00 -0.2578E+12
   -2.406264    4.00496  0.7619E-10  0.5537E-08  0.6220E-12  0.1681E-04  0.0000E+00 -0.3436E+12
   -2.475012    4.00610  0.7619E-10  0.5522E-08  0.7653E-12  0.1338E-04  0.0000E+00 -0.5184E+12
   -2.543759    4.00771  0.7619E-10  0.5341E-08  0.1033E-11  0.8862E-05  0.0000E+00 -0.9840E+12
   -2.612506    4.01046  0.7619E-10  0.4752E-08  0.1663E-11  0.3930E-05  0.0000E+00 -0.3015E+13
   -2.681253    4.01743  0.7619E-10  0.2838E-08  0.4560E-11  0.4355E-06  0.0000E+00 -0.5584E+14
   -2.749998    4.07633  0.7619E-10  0.0000E+00  0.0000E+00  0.0000E+00  0.0000E+00  0.0000E+00
