 1 - depth, m
 2 - temperature, C
 3 - salinity, kg/kg
 4 - turbulent kinetic energy, m**2/s**2
 5 - dissipation rate, m**2/s**3
 6 - kinematic heat conductance, m**2/s
 7 - modulus of horizontal velocity, m/s
 8 - Richardson number, n/d
   -0.000000   -0.00000  0.8075E-11  0.1219E-13  0.7603E-17  0.1000E-09  0.0000E+00  0.1031E+17
   -0.068746    0.15799  0.1157E-09  0.1219E-13  0.7603E-17  0.1000E-09  0.0000E+00  0.1006E+17
   -0.137493    0.31916  0.1489E-09  0.1219E-13  0.7603E-17  0.1000E-09  0.0000E+00  0.9710E+16
   -0.206240    0.48221  0.1366E-09  0.1219E-13  0.7603E-17  0.1000E-09  0.0000E+00  0.9338E+16
   -0.274988    0.64698  0.1135E-09  0.1219E-13  0.7603E-17  0.1000E-09  0.0000E+00  0.8939E+16
   -0.343736    0.81319  0.9416E-10  0.1219E-13  0.7603E-17  0.1000E-09  0.0000E+00  0.8535E+16
   -0.412485    0.98093  0.8200E-10  0.1219E-13  0.7603E-17  0.1000E-09  0.0000E+00  0.8092E+16
   -0.481235    1.14961  0.7572E-10  0.1219E-13  0.7603E-17  0.1000E-09  0.0000E+00  0.7615E+16
   -0.549985    1.31854  0.7294E-10  0.4136E-13  0.7603E-17  0.1000E-09  0.0000E+00  0.7128E+16
   -0.618735    1.48748  0.7185E-10  0.1192E-12  0.1191E-16  0.1000E-09  0.0000E+00  0.6637E+16
   -0.687486    1.65626  0.7144E-10  0.2734E-12  0.2334E-16  0.1000E-09  0.0000E+00  0.6132E+16
   -0.756237    1.82436  0.7126E-10  0.5776E-12  0.4673E-16  0.1000E-09  0.0000E+00  0.5625E+16
   -0.824988    1.99147  0.7112E-10  0.1182E-11  0.9286E-16  0.1000E-09  0.0000E+00  0.5118E+16
   -0.893740    2.15719  0.7093E-10  0.2383E-11  0.1829E-15  0.1000E-09  0.0000E+00  0.4616E+16
   -0.962492    2.32120  0.7066E-10  0.4762E-11  0.3576E-15  0.1000E-09  0.0000E+00  0.4124E+16
   -1.031244    2.48323  0.7030E-10  0.9444E-11  0.6944E-15  0.1000E-09  0.0000E+00  0.3641E+16
   -1.099996    2.64287  0.6989E-10  0.1867E-10  0.1344E-14  0.1000E-09  0.0000E+00  0.3161E+16
   -1.168748    2.79917  0.6948E-10  0.3672E-10  0.2589E-14  0.1000E-09  0.0000E+00  0.2703E+16
   -1.237501    2.95181  0.6914E-10  0.7180E-10  0.4960E-14  0.1000E-09  0.0000E+00  0.2269E+16
   -1.306253    3.10035  0.6889E-10  0.1396E-09  0.9447E-14  0.1000E-09  0.0000E+00  0.1859E+16
   -1.375006    3.24426  0.6875E-10  0.2698E-09  0.1789E-13  0.1000E-09  0.0000E+00  0.1484E+16
   -1.443759    3.38369  0.6867E-10  0.5183E-09  0.3370E-13  0.1496E-09  0.0000E+00  0.1146E+16
   -1.512511    3.51938  0.6863E-10  0.9901E-09  0.6310E-13  0.3856E-09  0.0000E+00  0.8326E+15
   -1.581264    3.65103  0.6862E-10  0.1880E-08  0.1175E-12  0.1095E-08  0.0000E+00  0.5457E+15
   -1.650016    3.77884  0.6861E-10  0.3543E-08  0.2172E-12  0.3907E-08  0.0000E+00  0.2829E+15
   -1.718768    3.90248  0.6861E-10  0.6526E-08  0.3933E-12  0.3773E-07  0.0000E+00  0.5294E+14
   -1.787520    4.00291  0.6861E-10  0.7031E-08  0.4255E-12  0.4479E-04  0.0000E+00 -0.1058E+12
   -1.856272    4.00331  0.6861E-10  0.7252E-08  0.4427E-12  0.4516E-04  0.0000E+00 -0.1070E+12
   -1.925024    4.00371  0.6861E-10  0.7436E-08  0.4609E-12  0.4493E-04  0.0000E+00 -0.1095E+12
   -1.993775    4.00411  0.6861E-10  0.7587E-08  0.4806E-12  0.4412E-04  0.0000E+00 -0.1135E+12
   -2.062526    4.00451  0.6861E-10  0.7706E-08  0.5026E-12  0.4310E-04  0.0000E+00 -0.1198E+12
   -2.131277    4.00492  0.6861E-10  0.7797E-08  0.5290E-12  0.4158E-04  0.0000E+00 -0.1291E+12
   -2.200027    4.00536  0.6861E-10  0.7858E-08  0.5615E-12  0.3935E-04  0.0000E+00 -0.1424E+12
   -2.268777    4.00583  0.6861E-10  0.7883E-08  0.6028E-12  0.3635E-04  0.0000E+00 -0.1619E+12
   -2.337527    4.00635  0.6861E-10  0.7861E-08  0.6579E-12  0.3247E-04  0.0000E+00 -0.1920E+12
   -2.406275    4.00696  0.6861E-10  0.7771E-08  0.7362E-12  0.2761E-04  0.0000E+00 -0.2426E+12
   -2.475024    4.00769  0.6861E-10  0.7572E-08  0.8593E-12  0.2162E-04  0.0000E+00 -0.3407E+12
   -2.543772    4.00869  0.6861E-10  0.7150E-08  0.1089E-11  0.1417E-04  0.0000E+00 -0.5880E+12
   -2.612519    4.01031  0.6861E-10  0.6220E-08  0.1628E-11  0.6281E-05  0.0000E+00 -0.1577E+13
   -2.681266    4.01419  0.6861E-10  0.3052E-08  0.4469E-11  0.4383E-06  0.0000E+00 -0.3897E+14
   -2.750012    4.06218  0.6861E-10  0.0000E+00  0.0000E+00  0.0000E+00  0.0000E+00  0.0000E+00
