 1 - depth, m
 2 - temperature, C
 3 - salinity, kg/kg
 4 - turbulent kinetic energy, m**2/s**2
 5 - dissipation rate, m**2/s**3
 6 - kinematic heat conductance, m**2/s
 7 - modulus of horizontal velocity, m/s
 8 - Richardson number, n/d
   -0.000000    5.01531  0.6591E-10  0.3724E-03  0.3272E-03  0.1144E-03  0.2017E+00  0.2036E-04
   -0.068746    5.12210  0.6590E-10  0.1969E-03  0.8173E-04  0.2837E-03  0.6266E-01 -0.9032E-01
   -0.137492    5.14335  0.6590E-10  0.1406E-03  0.3401E-04  0.2539E-03  0.4764E-01 -0.2470E-01
   -0.206239    5.15866  0.6590E-10  0.1043E-03  0.1668E-04  0.2451E-03  0.3977E-01 -0.1349E-01
   -0.274986    5.17021  0.6590E-10  0.8063E-04  0.8546E-05  0.2494E-03  0.3416E-01 -0.2140E-01
   -0.343734    5.17976  0.6590E-10  0.6484E-04  0.4517E-05  0.2588E-03  0.2992E-01 -0.1433E-01
   -0.412483    5.18805  0.6590E-10  0.5360E-04  0.2469E-05  0.2777E-03  0.2623E-01 -0.2065E-01
   -0.481232    5.19508  0.6590E-10  0.4573E-04  0.1426E-05  0.3044E-03  0.2320E-01 -0.2631E-01
   -0.549982    5.20112  0.6590E-10  0.4029E-04  0.8841E-06  0.3331E-03  0.2076E-01 -0.3343E-01
   -0.618732    5.20637  0.6590E-10  0.3651E-04  0.5933E-06  0.3616E-03  0.1872E-01 -0.3874E-01
   -0.687482    5.21099  0.6590E-10  0.3371E-04  0.4266E-06  0.3933E-03  0.1693E-01 -0.2965E-01
   -0.756232    5.21508  0.6590E-10  0.3153E-04  0.3243E-06  0.4267E-03  0.1536E-01  0.2073E-01
   -0.824983    5.21874  0.6590E-10  0.2974E-04  0.2571E-06  0.4601E-03  0.1398E-01  0.2059E+00
   -0.893735    5.22204  0.6590E-10  0.2821E-04  0.2103E-06  0.4925E-03  0.1273E-01  0.1110E-01
   -0.962486    5.22505  0.6590E-10  0.2683E-04  0.1760E-06  0.5238E-03  0.1161E-01  0.5913E-01
   -1.031238    5.22780  0.6590E-10  0.2553E-04  0.1495E-06  0.5689E-03  0.1057E-01  0.4001E+01
   -1.099990    5.23030  0.6590E-10  0.2427E-04  0.1284E-06  0.6335E-03  0.9624E-02  0.1615E+02
   -1.168742    5.23255  0.6590E-10  0.2309E-04  0.1113E-06  0.6851E-03  0.8786E-02  0.7685E+02
   -1.237494    5.23460  0.6590E-10  0.2198E-04  0.9724E-07  0.7325E-03  0.8035E-02  0.9006E+01
   -1.306246    5.23649  0.6590E-10  0.2094E-04  0.8562E-07  0.7772E-03  0.7357E-02  0.2913E+01
   -1.374998    5.23825  0.6590E-10  0.1997E-04  0.7590E-07  0.8198E-03  0.6740E-02  0.1125E+02
   -1.443750    5.23988  0.6590E-10  0.1906E-04  0.6771E-07  0.8523E-03  0.6176E-02  0.4236E+01
   -1.512502    5.24141  0.6590E-10  0.1822E-04  0.6075E-07  0.8855E-03  0.5656E-02  0.2800E+02
   -1.581254    5.24286  0.6590E-10  0.1743E-04  0.5482E-07  0.9158E-03  0.5176E-02  0.3190E+01
   -1.650006    5.24423  0.6590E-10  0.1669E-04  0.4975E-07  0.9443E-03  0.4729E-02  0.7320E+01
   -1.718758    5.24553  0.6590E-10  0.1599E-04  0.4540E-07  0.9634E-03  0.4312E-02  0.6088E+01
   -1.787510    5.24677  0.6590E-10  0.1534E-04  0.4165E-07  0.9786E-03  0.3919E-02  0.3044E+02
   -1.856261    5.24796  0.6590E-10  0.1472E-04  0.3843E-07  0.9916E-03  0.3548E-02  0.4203E+02
   -1.925013    5.24911  0.6590E-10  0.1413E-04  0.3565E-07  0.9940E-03  0.3193E-02  0.6688E+01
   -1.993764    5.25022  0.6590E-10  0.1356E-04  0.3326E-07  0.9849E-03  0.2852E-02  0.4955E+01
   -2.062514    5.25131  0.6590E-10  0.1300E-04  0.3121E-07  0.9839E-03  0.2520E-02  0.3561E+02
   -2.131265    5.25237  0.6590E-10  0.1245E-04  0.2943E-07  0.9737E-03  0.2217E-02  0.1985E+02
   -2.200014    5.25342  0.6590E-10  0.1190E-04  0.2795E-07  0.9484E-03  0.1948E-02  0.1176E+01
   -2.268764    5.25448  0.6590E-10  0.1135E-04  0.2679E-07  0.9068E-03  0.1708E-02  0.8833E+00
   -2.337513    5.25556  0.6590E-10  0.1079E-04  0.2600E-07  0.8496E-03  0.1495E-02  0.1671E+01
   -2.406262    5.25669  0.6590E-10  0.1021E-04  0.2570E-07  0.7754E-03  0.1306E-02  0.7808E+02
   -2.475010    5.25791  0.6590E-10  0.9563E-05  0.2616E-07  0.6749E-03  0.1139E-02  0.4037E+01
   -2.543757    5.25929  0.6590E-10  0.8761E-05  0.2816E-07  0.5191E-03  0.9925E-03  0.8603E+02
   -2.612504    5.26107  0.6590E-10  0.7659E-05  0.3417E-07  0.2716E-03  0.8638E-03  0.2216E+04
   -2.681250    5.26425  0.6590E-10  0.3269E-05  0.8870E-07  0.1611E-04  0.7427E-03 -0.1324E+05
   -2.749996    5.31767  0.6590E-10  0.0000E+00  0.0000E+00  0.0000E+00  0.7313E-03  0.0000E+00
