 1 - depth, m
 2 - temperature, C
 3 - salinity, kg/kg
 4 - turbulent kinetic energy, m**2/s**2
 5 - dissipation rate, m**2/s**3
 6 - kinematic heat conductance, m**2/s
 7 - modulus of horizontal velocity, m/s
 8 - Richardson number, n/d
   -0.000000    5.37250  0.6591E-10  0.6505E-04  0.1439E-04  0.6778E-04  0.7085E-01 -0.5598E-02
   -0.068746    5.41876  0.6591E-10  0.3456E-04  0.2917E-05  0.7214E-04  0.3037E-01 -0.4961E-02
   -0.137492    5.43362  0.6591E-10  0.2471E-04  0.1019E-05  0.8698E-04  0.2259E-01 -0.8360E-02
   -0.206239    5.44490  0.6591E-10  0.1886E-04  0.4399E-06  0.1035E-03  0.1774E-01 -0.1390E-01
   -0.274987    5.45434  0.6591E-10  0.1516E-04  0.2247E-06  0.1211E-03  0.1429E-01 -0.2249E-01
   -0.343735    5.46231  0.6591E-10  0.1283E-04  0.1329E-06  0.1387E-03  0.1181E-01 -0.3183E-01
   -0.412484    5.46914  0.6591E-10  0.1115E-04  0.8655E-07  0.1588E-03  0.9885E-02 -0.4576E-01
   -0.481233    5.47499  0.6591E-10  0.9888E-05  0.6039E-07  0.1820E-03  0.8409E-02 -0.6657E-01
   -0.549983    5.47999  0.6591E-10  0.8969E-05  0.4469E-07  0.2063E-03  0.7279E-02 -0.8873E-01
   -0.618733    5.48432  0.6591E-10  0.8283E-05  0.3469E-07  0.2305E-03  0.6371E-02 -0.1077E+00
   -0.687483    5.48813  0.6591E-10  0.7731E-05  0.2782E-07  0.2565E-03  0.5599E-02 -0.1296E+00
   -0.756234    5.49151  0.6591E-10  0.7268E-05  0.2288E-07  0.2837E-03  0.4938E-02 -0.1538E+00
   -0.824985    5.49452  0.6591E-10  0.6867E-05  0.1917E-07  0.3125E-03  0.4365E-02 -0.1768E+00
   -0.893736    5.49722  0.6591E-10  0.6510E-05  0.1630E-07  0.3503E-03  0.3863E-02 -0.1522E+00
   -0.962488    5.49961  0.6591E-10  0.6187E-05  0.1404E-07  0.4369E-03  0.3421E-02  0.7446E+03
   -1.031240    5.50163  0.6591E-10  0.5896E-05  0.1223E-07  0.5690E-03  0.3031E-02  0.1019E+03
   -1.099992    5.50328  0.6591E-10  0.5631E-05  0.1076E-07  0.6881E-03  0.2695E-02  0.4956E+03
   -1.168744    5.50462  0.6591E-10  0.5395E-05  0.9581E-08  0.8677E-03  0.2407E-02  0.2775E+03
   -1.237496    5.50561  0.6591E-10  0.5192E-05  0.8636E-08  0.1019E-02  0.2166E-02  0.9971E+02
   -1.306248    5.50640  0.6591E-10  0.5007E-05  0.7843E-08  0.1062E-02  0.1957E-02  0.4949E+01
   -1.375001    5.50715  0.6591E-10  0.4834E-05  0.7155E-08  0.1081E-02  0.1764E-02  0.3265E+01
   -1.443753    5.50788  0.6591E-10  0.4673E-05  0.6562E-08  0.1095E-02  0.1587E-02  0.2965E+01
   -1.512505    5.50859  0.6591E-10  0.4522E-05  0.6051E-08  0.1106E-02  0.1424E-02  0.2727E+01
   -1.581257    5.50930  0.6591E-10  0.4380E-05  0.5613E-08  0.1114E-02  0.1274E-02  0.2530E+01
   -1.650009    5.50999  0.6591E-10  0.4246E-05  0.5240E-08  0.1118E-02  0.1136E-02  0.2363E+01
   -1.718761    5.51068  0.6591E-10  0.4120E-05  0.4924E-08  0.1116E-02  0.1009E-02  0.2219E+01
   -1.787513    5.51136  0.6591E-10  0.4001E-05  0.4660E-08  0.1109E-02  0.8907E-03  0.2092E+01
   -1.856265    5.51205  0.6591E-10  0.3887E-05  0.4444E-08  0.1095E-02  0.7812E-03  0.1980E+01
   -1.925016    5.51275  0.6591E-10  0.3779E-05  0.4273E-08  0.1075E-02  0.6791E-03  0.1878E+01
   -1.993767    5.51345  0.6591E-10  0.3675E-05  0.4145E-08  0.1047E-02  0.5832E-03  0.1784E+01
   -2.062518    5.51417  0.6591E-10  0.3579E-05  0.4060E-08  0.1011E-02  0.4932E-03  0.1458E+01
   -2.131268    5.51491  0.6591E-10  0.3487E-05  0.4016E-08  0.9688E-03  0.4163E-03  0.1158E+01
   -2.200019    5.51568  0.6591E-10  0.3402E-05  0.4013E-08  0.9240E-03  0.3537E-03  0.9392E+00
   -2.268768    5.51649  0.6592E-10  0.3324E-05  0.4050E-08  0.8809E-03  0.3046E-03  0.9220E+00
   -2.337517    5.51733  0.6592E-10  0.3243E-05  0.4137E-08  0.8300E-03  0.2649E-03  0.1313E+01
   -2.406266    5.51823  0.6592E-10  0.3152E-05  0.4301E-08  0.7615E-03  0.2290E-03  0.2239E+01
   -2.475014    5.51920  0.6592E-10  0.3044E-05  0.4590E-08  0.6715E-03  0.1970E-03  0.4479E+01
   -2.543762    5.52030  0.6592E-10  0.2906E-05  0.5120E-08  0.5846E-03  0.1695E-03  0.1278E+02
   -2.612509    5.52157  0.6592E-10  0.2675E-05  0.6399E-08  0.2937E-03  0.1481E-03  0.2297E+06
   -2.681255    5.52408  0.6592E-10  0.1235E-05  0.1944E-07  0.1111E-04  0.1211E-03 -0.3521E+05
   -2.750001    5.58966  0.6592E-10  0.0000E+00  0.0000E+00  0.0000E+00  0.1208E-03  0.0000E+00
