 1 - depth, m
 2 - temperature, C
 3 - salinity, kg/kg
 4 - turbulent kinetic energy, m**2/s**2
 5 - dissipation rate, m**2/s**3
 6 - kinematic heat conductance, m**2/s
 7 - modulus of horizontal velocity, m/s
 8 - Richardson number, n/d
   -0.000000   -0.00000  0.3203E-09  0.1823E-11  0.4591E-15  0.1000E-09  0.0000E+00  0.1885E+17
   -0.068746    0.29436  0.1194E-09  0.4739E-11  0.5056E-15  0.1000E-09  0.0000E+00  0.1704E+17
   -0.137492    0.58383  0.8572E-10  0.1093E-10  0.8732E-15  0.1000E-09  0.0000E+00  0.1528E+17
   -0.206239    0.86756  0.7373E-10  0.2283E-10  0.1663E-14  0.1000E-09  0.0000E+00  0.1366E+17
   -0.274986    1.14640  0.6999E-10  0.4559E-10  0.3193E-14  0.1000E-09  0.0000E+00  0.1215E+17
   -0.343734    1.42115  0.6903E-10  0.8902E-10  0.6075E-14  0.1000E-09  0.0000E+00  0.1075E+17
   -0.412482    1.69282  0.6883E-10  0.1717E-09  0.1146E-13  0.1000E-09  0.0000E+00  0.9420E+16
   -0.481231    1.96185  0.6879E-10  0.3286E-09  0.2148E-13  0.1000E-09  0.0000E+00  0.8142E+16
   -0.549981    2.22848  0.6878E-10  0.6245E-09  0.3999E-13  0.1000E-09  0.0000E+00  0.6919E+16
   -0.618730    2.49323  0.6877E-10  0.1175E-08  0.7376E-13  0.1000E-09  0.0000E+00  0.5738E+16
   -0.687481    2.75647  0.6872E-10  0.2197E-08  0.1351E-12  0.1501E-09  0.0000E+00  0.4584E+16
   -0.756231    3.01807  0.6856E-10  0.4080E-08  0.2460E-12  0.3610E-09  0.0000E+00  0.3469E+16
   -0.824982    3.27887  0.6808E-10  0.7531E-08  0.4453E-12  0.9585E-09  0.0000E+00  0.2365E+16
   -0.893733    3.53763  0.6706E-10  0.1380E-07  0.8005E-12  0.3174E-08  0.0000E+00  0.1284E+16
   -0.962484    3.79081  0.6612E-10  0.2488E-07  0.1417E-11  0.2441E-07  0.0000E+00  0.2958E+15
   -1.031236    4.00956  0.6597E-10  0.2527E-07  0.1442E-11  0.1678E-03  0.0000E+00 -0.7832E+11
   -1.099988    4.00977  0.6597E-10  0.2546E-07  0.1455E-11  0.1641E-03  0.0000E+00 -0.8142E+11
   -1.168739    4.00999  0.6597E-10  0.2564E-07  0.1471E-11  0.1643E-03  0.0000E+00 -0.8272E+11
   -1.237491    4.01021  0.6597E-10  0.2580E-07  0.1488E-11  0.1644E-03  0.0000E+00 -0.8410E+11
   -1.306243    4.01044  0.6597E-10  0.2594E-07  0.1507E-11  0.1643E-03  0.0000E+00 -0.8568E+11
   -1.374995    4.01066  0.6597E-10  0.2608E-07  0.1527E-11  0.1638E-03  0.0000E+00 -0.8733E+11
   -1.443747    4.01089  0.6597E-10  0.2619E-07  0.1550E-11  0.1629E-03  0.0000E+00 -0.8894E+11
   -1.512500    4.01112  0.6597E-10  0.2629E-07  0.1574E-11  0.1617E-03  0.0000E+00 -0.9079E+11
   -1.581251    4.01135  0.6597E-10  0.2637E-07  0.1601E-11  0.1602E-03  0.0000E+00 -0.9290E+11
   -1.650003    4.01159  0.6597E-10  0.2643E-07  0.1631E-11  0.1583E-03  0.0000E+00 -0.9530E+11
   -1.718755    4.01183  0.6597E-10  0.2648E-07  0.1663E-11  0.1560E-03  0.0000E+00 -0.9803E+11
   -1.787507    4.01207  0.6597E-10  0.2651E-07  0.1698E-11  0.1534E-03  0.0000E+00 -0.1011E+12
   -1.856258    4.01232  0.6597E-10  0.2651E-07  0.1738E-11  0.1503E-03  0.0000E+00 -0.1047E+12
   -1.925009    4.01258  0.6597E-10  0.2650E-07  0.1781E-11  0.1469E-03  0.0000E+00 -0.1087E+12
   -1.993760    4.01284  0.6597E-10  0.2646E-07  0.1829E-11  0.1430E-03  0.0000E+00 -0.1134E+12
   -2.062510    4.01311  0.6597E-10  0.2640E-07  0.1883E-11  0.1387E-03  0.0000E+00 -0.1188E+12
   -2.131261    4.01339  0.6597E-10  0.2630E-07  0.1949E-11  0.1334E-03  0.0000E+00 -0.1257E+12
   -2.200010    4.01369  0.6597E-10  0.2617E-07  0.2029E-11  0.1275E-03  0.0000E+00 -0.1341E+12
   -2.268760    4.01400  0.6597E-10  0.2597E-07  0.2140E-11  0.1201E-03  0.0000E+00 -0.1455E+12
   -2.337509    4.01433  0.6597E-10  0.2564E-07  0.2312E-11  0.9510E-04  0.0000E+00 -0.1887E+12
   -2.406257    4.01476  0.6597E-10  0.2514E-07  0.2571E-11  0.7318E-04  0.0000E+00 -0.2539E+12
   -2.475005    4.01532  0.6597E-10  0.2438E-07  0.2990E-11  0.5471E-04  0.0000E+00 -0.3562E+12
   -2.543752    4.01610  0.6597E-10  0.2307E-07  0.3773E-11  0.3535E-04  0.0000E+00 -0.5880E+12
   -2.612499    4.01733  0.6597E-10  0.2058E-07  0.5560E-11  0.1654E-04  0.0000E+00 -0.1380E+13
   -2.681245    4.02005  0.6597E-10  0.9894E-08  0.1720E-10  0.9633E-06  0.0000E+00 -0.3754E+14
   -2.749991    4.06335  0.6597E-10  0.0000E+00  0.0000E+00  0.0000E+00  0.0000E+00  0.0000E+00
