 1 - depth, m
 2 - temperature, C
 3 - salinity, kg/kg
 4 - turbulent kinetic energy, m**2/s**2
 5 - dissipation rate, m**2/s**3
 6 - kinematic heat conductance, m**2/s
 7 - modulus of horizontal velocity, m/s
 8 - Richardson number, n/d
   -0.000000   -0.00000  0.1797E-09  0.1219E-13  0.7603E-17  0.1000E-09  0.0000E+00  0.1160E+17
   -0.068746    0.17831  0.1764E-09  0.1219E-13  0.7603E-17  0.1000E-09  0.0000E+00  0.1098E+17
   -0.137492    0.35561  0.1562E-09  0.1219E-13  0.7603E-17  0.1000E-09  0.0000E+00  0.1029E+17
   -0.206239    0.53059  0.1208E-09  0.1219E-13  0.7603E-17  0.1000E-09  0.0000E+00  0.9628E+16
   -0.274987    0.70327  0.9534E-10  0.1219E-13  0.7603E-17  0.1000E-09  0.0000E+00  0.8994E+16
   -0.343735    0.87373  0.8274E-10  0.1219E-13  0.7603E-17  0.1000E-09  0.0000E+00  0.8398E+16
   -0.412483    1.04228  0.7782E-10  0.1219E-13  0.7603E-17  0.1000E-09  0.0000E+00  0.7821E+16
   -0.481232    1.20891  0.7618E-10  0.1219E-13  0.7603E-17  0.1000E-09  0.0000E+00  0.7259E+16
   -0.549982    1.37353  0.7568E-10  0.1219E-13  0.7603E-17  0.1000E-09  0.0000E+00  0.6720E+16
   -0.618732    1.53621  0.7554E-10  0.1326E-13  0.7603E-17  0.1000E-09  0.0000E+00  0.6203E+16
   -0.687482    1.69705  0.7547E-10  0.6258E-13  0.8313E-17  0.1000E-09  0.0000E+00  0.5698E+16
   -0.756233    1.85589  0.7540E-10  0.1650E-12  0.1562E-16  0.1000E-09  0.0000E+00  0.5219E+16
   -0.824984    2.01302  0.7531E-10  0.3673E-12  0.3173E-16  0.1000E-09  0.0000E+00  0.4751E+16
   -0.893735    2.16822  0.7516E-10  0.7723E-12  0.6416E-16  0.1000E-09  0.0000E+00  0.4294E+16
   -0.962487    2.32128  0.7495E-10  0.1587E-11  0.1283E-15  0.1000E-09  0.0000E+00  0.3849E+16
   -1.031238    2.47198  0.7467E-10  0.3222E-11  0.2544E-15  0.1000E-09  0.0000E+00  0.3418E+16
   -1.099990    2.62005  0.7430E-10  0.6503E-11  0.5017E-15  0.1000E-09  0.0000E+00  0.3001E+16
   -1.168742    2.76512  0.7387E-10  0.1304E-10  0.9836E-15  0.1000E-09  0.0000E+00  0.2602E+16
   -1.237495    2.90691  0.7339E-10  0.2598E-10  0.1916E-14  0.1000E-09  0.0000E+00  0.2223E+16
   -1.306247    3.04513  0.7294E-10  0.5138E-10  0.3706E-14  0.1000E-09  0.0000E+00  0.1866E+16
   -1.374999    3.17951  0.7258E-10  0.1009E-09  0.7120E-14  0.1000E-09  0.0000E+00  0.1536E+16
   -1.443751    3.31025  0.7234E-10  0.1969E-09  0.1359E-13  0.1000E-09  0.0000E+00  0.1236E+16
   -1.512503    3.43787  0.7222E-10  0.3815E-09  0.2577E-13  0.1374E-09  0.0000E+00  0.9547E+15
   -1.581256    3.56225  0.7217E-10  0.7343E-09  0.4856E-13  0.3566E-09  0.0000E+00  0.6930E+15
   -1.650008    3.68322  0.7215E-10  0.1404E-08  0.9088E-13  0.1026E-08  0.0000E+00  0.4508E+15
   -1.718759    3.80048  0.7214E-10  0.2662E-08  0.1688E-12  0.3761E-08  0.0000E+00  0.2284E+15
   -1.787511    3.91260  0.7214E-10  0.4928E-08  0.3069E-12  0.3815E-07  0.0000E+00  0.4089E+14
   -1.856263    4.00108  0.7214E-10  0.5439E-08  0.3402E-12  0.3286E-04  0.0000E+00 -0.1121E+12
   -1.925014    4.00156  0.7214E-10  0.5662E-08  0.3584E-12  0.3325E-04  0.0000E+00 -0.1138E+12
   -1.993765    4.00203  0.7214E-10  0.5849E-08  0.3777E-12  0.3306E-04  0.0000E+00 -0.1175E+12
   -2.062516    4.00250  0.7214E-10  0.6003E-08  0.3992E-12  0.3263E-04  0.0000E+00 -0.1240E+12
   -2.131266    4.00298  0.7214E-10  0.6132E-08  0.4248E-12  0.3177E-04  0.0000E+00 -0.1341E+12
   -2.200016    4.00349  0.7214E-10  0.6234E-08  0.4562E-12  0.3030E-04  0.0000E+00 -0.1490E+12
   -2.268765    4.00403  0.7214E-10  0.6304E-08  0.4960E-12  0.2818E-04  0.0000E+00 -0.1712E+12
   -2.337515    4.00464  0.7214E-10  0.6335E-08  0.5491E-12  0.2532E-04  0.0000E+00 -0.2062E+12
   -2.406263    4.00534  0.7214E-10  0.6310E-08  0.6245E-12  0.2166E-04  0.0000E+00 -0.2661E+12
   -2.475011    4.00621  0.7214E-10  0.6192E-08  0.7430E-12  0.1705E-04  0.0000E+00 -0.3851E+12
   -2.543759    4.00741  0.7214E-10  0.5884E-08  0.9639E-12  0.1120E-04  0.0000E+00 -0.6936E+12
   -2.612506    4.00942  0.7214E-10  0.5131E-08  0.1484E-11  0.4904E-05  0.0000E+00 -0.1993E+13
   -2.681252    4.01439  0.7214E-10  0.2703E-08  0.4034E-11  0.4112E-06  0.0000E+00 -0.4433E+14
   -2.749998    4.06664  0.7214E-10  0.0000E+00  0.0000E+00  0.0000E+00  0.0000E+00  0.0000E+00
