 1 - depth, m
 2 - temperature, C
 3 - salinity, kg/kg
 4 - turbulent kinetic energy, m**2/s**2
 5 - dissipation rate, m**2/s**3
 6 - kinematic heat conductance, m**2/s
 7 - modulus of horizontal velocity, m/s
 8 - Richardson number, n/d
   -0.000000   -0.00000  0.3296E-09  0.1219E-13  0.7604E-17  0.1000E-09  0.0000E+00  0.1321E+17
   -0.068746    0.20367  0.1402E-09  0.1219E-13  0.7604E-17  0.1000E-09  0.0000E+00  0.1221E+17
   -0.137492    0.40291  0.9702E-10  0.1219E-13  0.7604E-17  0.1000E-09  0.0000E+00  0.1117E+17
   -0.206239    0.59619  0.8149E-10  0.2606E-13  0.7604E-17  0.1000E-09  0.0000E+00  0.1023E+17
   -0.274986    0.78389  0.7688E-10  0.8878E-13  0.1059E-16  0.1000E-09  0.0000E+00  0.9362E+16
   -0.343734    0.96653  0.7578E-10  0.2198E-12  0.2115E-16  0.1000E-09  0.0000E+00  0.8621E+16
   -0.412483    1.14563  0.7557E-10  0.4871E-12  0.4392E-16  0.1000E-09  0.0000E+00  0.7934E+16
   -0.481232    1.32163  0.7553E-10  0.1037E-11  0.9052E-16  0.1000E-09  0.0000E+00  0.7296E+16
   -0.549981    1.49492  0.7552E-10  0.2171E-11  0.1847E-15  0.1000E-09  0.0000E+00  0.6730E+16
   -0.618731    1.66672  0.7552E-10  0.4480E-11  0.3723E-15  0.1000E-09  0.0000E+00  0.6223E+16
   -0.687481    1.83828  0.7552E-10  0.9159E-11  0.7438E-15  0.1000E-09  0.0000E+00  0.5736E+16
   -0.756232    2.01007  0.7551E-10  0.1857E-10  0.1475E-14  0.1000E-09  0.0000E+00  0.5311E+16
   -0.824983    2.18417  0.7549E-10  0.3738E-10  0.2903E-14  0.1000E-09  0.0000E+00  0.4873E+16
   -0.893734    2.36076  0.7543E-10  0.7470E-10  0.5673E-14  0.1000E-09  0.0000E+00  0.4418E+16
   -0.962485    2.53993  0.7531E-10  0.1482E-09  0.1101E-13  0.1000E-09  0.0000E+00  0.3944E+16
   -1.031237    2.72168  0.7512E-10  0.2920E-09  0.2123E-13  0.1000E-09  0.0000E+00  0.3449E+16
   -1.099989    2.90597  0.7485E-10  0.5732E-09  0.4079E-13  0.1000E-09  0.0000E+00  0.2936E+16
   -1.168741    3.09292  0.7450E-10  0.1120E-08  0.7800E-13  0.1655E-09  0.0000E+00  0.2398E+16
   -1.237493    3.28218  0.7411E-10  0.2173E-08  0.1483E-12  0.4105E-09  0.0000E+00  0.1839E+16
   -1.306245    3.47316  0.7360E-10  0.4191E-08  0.2800E-12  0.1130E-08  0.0000E+00  0.1261E+16
   -1.374997    3.66480  0.7283E-10  0.8018E-08  0.5250E-12  0.3960E-08  0.0000E+00  0.6749E+15
   -1.443749    3.85389  0.7216E-10  0.1499E-07  0.9636E-12  0.3674E-07  0.0000E+00  0.1336E+15
   -1.512501    4.00888  0.7207E-10  0.1559E-07  0.1005E-11  0.9197E-04  0.0000E+00 -0.1065E+12
   -1.581253    4.00918  0.7207E-10  0.1585E-07  0.1026E-11  0.9668E-04  0.0000E+00 -0.1035E+12
   -1.650005    4.00946  0.7207E-10  0.1606E-07  0.1048E-11  0.9678E-04  0.0000E+00 -0.1057E+12
   -1.718757    4.00975  0.7207E-10  0.1624E-07  0.1070E-11  0.9683E-04  0.0000E+00 -0.1080E+12
   -1.787508    4.01005  0.7207E-10  0.1639E-07  0.1095E-11  0.9646E-04  0.0000E+00 -0.1110E+12
   -1.856260    4.01034  0.7207E-10  0.1652E-07  0.1123E-11  0.9563E-04  0.0000E+00 -0.1145E+12
   -1.925011    4.01064  0.7207E-10  0.1663E-07  0.1154E-11  0.9432E-04  0.0000E+00 -0.1189E+12
   -1.993762    4.01095  0.7207E-10  0.1671E-07  0.1191E-11  0.9248E-04  0.0000E+00 -0.1243E+12
   -2.062512    4.01127  0.7207E-10  0.1676E-07  0.1234E-11  0.9008E-04  0.0000E+00 -0.1309E+12
   -2.131263    4.01161  0.7207E-10  0.1678E-07  0.1289E-11  0.8317E-04  0.0000E+00 -0.1460E+12
   -2.200013    4.01197  0.7207E-10  0.1676E-07  0.1360E-11  0.7412E-04  0.0000E+00 -0.1695E+12
   -2.268762    4.01239  0.7207E-10  0.1668E-07  0.1453E-11  0.6522E-04  0.0000E+00 -0.2006E+12
   -2.337511    4.01288  0.7207E-10  0.1652E-07  0.1580E-11  0.5672E-04  0.0000E+00 -0.2424E+12
   -2.406259    4.01345  0.7207E-10  0.1625E-07  0.1762E-11  0.4763E-04  0.0000E+00 -0.3074E+12
   -2.475007    4.01417  0.7207E-10  0.1580E-07  0.2050E-11  0.3711E-04  0.0000E+00 -0.4293E+12
   -2.543755    4.01513  0.7207E-10  0.1495E-07  0.2583E-11  0.2454E-04  0.0000E+00 -0.7243E+12
   -2.612502    4.01670  0.7207E-10  0.1325E-07  0.3807E-11  0.1145E-04  0.0000E+00 -0.1800E+13
   -2.681248    4.02027  0.7207E-10  0.6554E-08  0.1108E-10  0.7621E-06  0.0000E+00 -0.4721E+14
   -2.749994    4.07108  0.7207E-10  0.0000E+00  0.0000E+00  0.0000E+00  0.0000E+00  0.0000E+00
