 1 - depth, m
 2 - temperature, C
 3 - salinity, kg/kg
 4 - turbulent kinetic energy, m**2/s**2
 5 - dissipation rate, m**2/s**3
 6 - kinematic heat conductance, m**2/s
 7 - modulus of horizontal velocity, m/s
 8 - Richardson number, n/d
   -0.000000   -0.00000  0.3392E-09  0.1219E-13  0.7603E-17  0.1000E-09  0.0000E+00  0.8965E+16
   -0.068746    0.13701  0.1477E-09  0.1219E-13  0.7603E-17  0.1000E-09  0.0000E+00  0.8347E+16
   -0.137492    0.26941  0.9869E-10  0.1219E-13  0.7603E-17  0.1000E-09  0.0000E+00  0.7616E+16
   -0.206239    0.39475  0.8763E-10  0.1219E-13  0.7603E-17  0.1000E-09  0.0000E+00  0.6913E+16
   -0.274987    0.51268  0.8581E-10  0.1219E-13  0.7603E-17  0.1000E-09  0.0000E+00  0.6263E+16
   -0.343735    0.62330  0.8556E-10  0.1219E-13  0.7603E-17  0.1000E-09  0.0000E+00  0.5741E+16
   -0.412484    0.72820  0.8554E-10  0.1219E-13  0.7603E-17  0.1000E-09  0.0000E+00  0.5261E+16
   -0.481233    0.82757  0.8553E-10  0.1219E-13  0.7603E-17  0.1000E-09  0.0000E+00  0.4823E+16
   -0.549982    0.92164  0.8553E-10  0.1219E-13  0.7603E-17  0.1000E-09  0.0000E+00  0.4483E+16
   -0.618732    1.01189  0.8553E-10  0.1219E-13  0.7603E-17  0.1000E-09  0.0000E+00  0.4236E+16
   -0.687483    1.09988  0.8553E-10  0.1219E-13  0.7603E-17  0.1000E-09  0.0000E+00  0.4025E+16
   -0.756233    1.18620  0.8553E-10  0.1219E-13  0.7603E-17  0.1000E-09  0.0000E+00  0.3913E+16
   -0.824984    1.27285  0.8553E-10  0.1219E-13  0.7603E-17  0.1000E-09  0.0000E+00  0.3818E+16
   -0.893736    1.36028  0.8553E-10  0.1219E-13  0.7603E-17  0.1000E-09  0.0000E+00  0.3736E+16
   -0.962487    1.44890  0.8552E-10  0.1219E-13  0.7603E-17  0.1000E-09  0.0000E+00  0.3665E+16
   -1.031239    1.53907  0.8548E-10  0.1219E-13  0.7603E-17  0.1000E-09  0.0000E+00  0.3592E+16
   -1.099991    1.63095  0.8541E-10  0.1219E-13  0.7603E-17  0.1000E-09  0.0000E+00  0.3501E+16
   -1.168743    1.72422  0.8525E-10  0.1219E-13  0.7603E-17  0.1000E-09  0.0000E+00  0.3410E+16
   -1.237495    1.81906  0.8498E-10  0.1219E-13  0.7603E-17  0.1000E-09  0.0000E+00  0.3315E+16
   -1.306247    1.91559  0.8458E-10  0.1219E-13  0.7603E-17  0.1000E-09  0.0000E+00  0.3214E+16
   -1.375000    2.01383  0.8410E-10  0.1219E-13  0.7603E-17  0.1000E-09  0.0000E+00  0.3126E+16
   -1.443752    2.11450  0.8364E-10  0.1219E-13  0.7603E-17  0.1000E-09  0.0000E+00  0.3059E+16
   -1.512504    2.21872  0.8323E-10  0.1219E-13  0.7603E-17  0.1000E-09  0.0000E+00  0.2968E+16
   -1.581256    2.32629  0.8281E-10  0.1219E-13  0.7603E-17  0.1000E-09  0.0000E+00  0.2854E+16
   -1.650008    2.43695  0.8233E-10  0.1219E-13  0.7603E-17  0.1000E-09  0.0000E+00  0.2715E+16
   -1.718760    2.55032  0.8188E-10  0.1219E-13  0.7603E-17  0.1000E-09  0.0000E+00  0.2552E+16
   -1.787512    2.66595  0.8155E-10  0.1219E-13  0.7603E-17  0.1000E-09  0.0000E+00  0.2366E+16
   -1.856264    2.78330  0.8138E-10  0.1219E-13  0.7603E-17  0.1000E-09  0.0000E+00  0.2162E+16
   -1.925015    2.90178  0.8131E-10  0.1996E-13  0.9165E-17  0.1000E-09  0.0000E+00  0.1942E+16
   -1.993766    3.02078  0.8125E-10  0.8545E-13  0.3385E-16  0.1000E-09  0.0000E+00  0.1711E+16
   -2.062517    3.13961  0.8122E-10  0.3691E-12  0.1394E-15  0.1000E-09  0.0000E+00  0.1523E+16
   -2.131267    3.26186  0.8121E-10  0.1590E-11  0.5771E-15  0.1000E-09  0.0000E+00  0.1338E+16
   -2.200017    3.38986  0.8121E-10  0.6731E-11  0.2349E-14  0.1000E-09  0.0000E+00  0.1125E+16
   -2.268767    3.52443  0.8121E-10  0.2803E-10  0.9414E-14  0.1000E-09  0.0000E+00  0.8771E+15
   -2.337516    3.66688  0.8121E-10  0.1151E-09  0.3723E-13  0.3234E-09  0.0000E+00  0.5823E+15
   -2.406264    3.81904  0.8121E-10  0.4665E-09  0.1456E-12  0.3351E-08  0.0000E+00  0.2192E+15
   -2.475013    3.98114  0.8121E-10  0.1610E-08  0.4944E-12  0.1168E-05  0.0000E+00 -0.1701E+13
   -2.543760    4.00285  0.8121E-10  0.2939E-08  0.1201E-11  0.2377E-05  0.0000E+00 -0.4477E+13
   -2.612507    4.01538  0.8121E-10  0.3776E-08  0.2478E-11  0.1851E-05  0.0000E+00 -0.1134E+14
   -2.681254    4.03420  0.8121E-10  0.3616E-08  0.7084E-11  0.5199E-06  0.0000E+00 -0.9268E+14
   -2.749999    4.10522  0.8121E-10  0.0000E+00  0.0000E+00  0.0000E+00  0.0000E+00  0.0000E+00
