 1 - depth, m
 2 - temperature, C
 3 - salinity, kg/kg
 4 - turbulent kinetic energy, m**2/s**2
 5 - dissipation rate, m**2/s**3
 6 - kinematic heat conductance, m**2/s
 7 - modulus of horizontal velocity, m/s
 8 - Richardson number, n/d
   -0.000000   -0.00000  0.1026E-09  0.1791E-12  0.2702E-16  0.1000E-09  0.0000E+00  0.1474E+17
   -0.068746    0.22802  0.1588E-09  0.3518E-12  0.3160E-16  0.1000E-09  0.0000E+00  0.1389E+17
   -0.137492    0.45729  0.1426E-09  0.7314E-12  0.5325E-16  0.1000E-09  0.0000E+00  0.1293E+17
   -0.206239    0.68584  0.1077E-09  0.1462E-11  0.9861E-16  0.1000E-09  0.0000E+00  0.1196E+17
   -0.274987    0.91326  0.8457E-10  0.2845E-11  0.1849E-15  0.1000E-09  0.0000E+00  0.1099E+17
   -0.343735    1.13914  0.7417E-10  0.5439E-11  0.3444E-15  0.1000E-09  0.0000E+00  0.1005E+17
   -0.412484    1.36346  0.7040E-10  0.1028E-10  0.6364E-15  0.1000E-09  0.0000E+00  0.9107E+16
   -0.481233    1.58572  0.6919E-10  0.1928E-10  0.1168E-14  0.1000E-09  0.0000E+00  0.8179E+16
   -0.549983    1.80540  0.6879E-10  0.3590E-10  0.2129E-14  0.1000E-09  0.0000E+00  0.7281E+16
   -0.618733    2.02232  0.6856E-10  0.6618E-10  0.3845E-14  0.1000E-09  0.0000E+00  0.6415E+16
   -0.687484    2.23639  0.6826E-10  0.1211E-09  0.6893E-14  0.1000E-09  0.0000E+00  0.5576E+16
   -0.756234    2.44723  0.6783E-10  0.2202E-09  0.1228E-13  0.1000E-09  0.0000E+00  0.4784E+16
   -0.824985    2.65521  0.6730E-10  0.3980E-09  0.2174E-13  0.1000E-09  0.0000E+00  0.4021E+16
   -0.893737    2.86006  0.6678E-10  0.7148E-09  0.3826E-13  0.1000E-09  0.0000E+00  0.3292E+16
   -0.962489    3.06166  0.6640E-10  0.1276E-08  0.6695E-13  0.1312E-09  0.0000E+00  0.2599E+16
   -1.031240    3.25999  0.6617E-10  0.2265E-08  0.1165E-12  0.3057E-09  0.0000E+00  0.1940E+16
   -1.099992    3.45496  0.6607E-10  0.4006E-08  0.2020E-12  0.7823E-09  0.0000E+00  0.1315E+16
   -1.168745    3.64625  0.6603E-10  0.7053E-08  0.3487E-12  0.2453E-08  0.0000E+00  0.7239E+15
   -1.237497    3.83273  0.6602E-10  0.1227E-07  0.5954E-12  0.1655E-07  0.0000E+00  0.1834E+15
   -1.306249    4.00062  0.6602E-10  0.1264E-07  0.6147E-12  0.1001E-03  0.0000E+00 -0.5926E+11
   -1.375001    4.00088  0.6602E-10  0.1280E-07  0.6243E-12  0.1027E-03  0.0000E+00 -0.5851E+11
   -1.443754    4.00114  0.6602E-10  0.1292E-07  0.6336E-12  0.1029E-03  0.0000E+00 -0.5940E+11
   -1.512506    4.00139  0.6602E-10  0.1303E-07  0.6435E-12  0.1030E-03  0.0000E+00 -0.6030E+11
   -1.581258    4.00164  0.6602E-10  0.1313E-07  0.6542E-12  0.1028E-03  0.0000E+00 -0.6139E+11
   -1.650011    4.00190  0.6602E-10  0.1322E-07  0.6659E-12  0.1024E-03  0.0000E+00 -0.6268E+11
   -1.718763    4.00215  0.6602E-10  0.1329E-07  0.6787E-12  0.1015E-03  0.0000E+00 -0.6420E+11
   -1.787514    4.00241  0.6602E-10  0.1334E-07  0.6930E-12  0.1004E-03  0.0000E+00 -0.6600E+11
   -1.856266    4.00267  0.6602E-10  0.1339E-07  0.7093E-12  0.9880E-04  0.0000E+00 -0.6814E+11
   -1.925017    4.00293  0.6602E-10  0.1342E-07  0.7283E-12  0.9676E-04  0.0000E+00 -0.7073E+11
   -1.993769    4.00320  0.6602E-10  0.1343E-07  0.7507E-12  0.9404E-04  0.0000E+00 -0.7399E+11
   -2.062519    4.00348  0.6602E-10  0.1342E-07  0.7777E-12  0.8720E-04  0.0000E+00 -0.8141E+11
   -2.131270    4.00378  0.6602E-10  0.1338E-07  0.8116E-12  0.7849E-04  0.0000E+00 -0.9260E+11
   -2.200020    4.00411  0.6602E-10  0.1331E-07  0.8550E-12  0.6979E-04  0.0000E+00 -0.1070E+12
   -2.268770    4.00449  0.6602E-10  0.1320E-07  0.9121E-12  0.6173E-04  0.0000E+00 -0.1249E+12
   -2.337519    4.00493  0.6602E-10  0.1302E-07  0.9900E-12  0.5359E-04  0.0000E+00 -0.1495E+12
   -2.406268    4.00543  0.6602E-10  0.1276E-07  0.1102E-11  0.4449E-04  0.0000E+00 -0.1890E+12
   -2.475016    4.00605  0.6602E-10  0.1234E-07  0.1282E-11  0.3400E-04  0.0000E+00 -0.2636E+12
   -2.543764    4.00689  0.6602E-10  0.1161E-07  0.1620E-11  0.2190E-04  0.0000E+00 -0.4464E+12
   -2.612511    4.00823  0.6602E-10  0.1017E-07  0.2412E-11  0.9840E-05  0.0000E+00 -0.1132E+13
   -2.681257    4.01131  0.6602E-10  0.4720E-08  0.7166E-11  0.5739E-06  0.0000E+00 -0.3429E+14
   -2.750003    4.05706  0.6602E-10  0.0000E+00  0.0000E+00  0.0000E+00  0.0000E+00  0.0000E+00
