 1 - depth, m
 2 - temperature, C
 3 - salinity, kg/kg
 4 - turbulent kinetic energy, m**2/s**2
 5 - dissipation rate, m**2/s**3
 6 - kinematic heat conductance, m**2/s
 7 - modulus of horizontal velocity, m/s
 8 - Richardson number, n/d
   -0.000000   -0.00000  0.1250E-09  0.7702E-13  0.1035E-16  0.1000E-09  0.0000E+00  0.1468E+17
   -0.068746    0.22707  0.1446E-09  0.1430E-12  0.1307E-16  0.1000E-09  0.0000E+00  0.1373E+17
   -0.137492    0.45357  0.1372E-09  0.2940E-12  0.2295E-16  0.1000E-09  0.0000E+00  0.1272E+17
   -0.206239    0.67802  0.1101E-09  0.5951E-12  0.4375E-16  0.1000E-09  0.0000E+00  0.1173E+17
   -0.274986    0.90028  0.8786E-10  0.1183E-11  0.8424E-16  0.1000E-09  0.0000E+00  0.1076E+17
   -0.343734    1.12020  0.7607E-10  0.2319E-11  0.1611E-15  0.1000E-09  0.0000E+00  0.9832E+16
   -0.412483    1.33790  0.7120E-10  0.4501E-11  0.3058E-15  0.1000E-09  0.0000E+00  0.8924E+16
   -0.481232    1.55310  0.6946E-10  0.8667E-11  0.5764E-15  0.1000E-09  0.0000E+00  0.8038E+16
   -0.549981    1.76549  0.6886E-10  0.1658E-10  0.1080E-14  0.1000E-09  0.0000E+00  0.7185E+16
   -0.618731    1.97500  0.6855E-10  0.3140E-10  0.2002E-14  0.1000E-09  0.0000E+00  0.6366E+16
   -0.687481    2.18156  0.6823E-10  0.5902E-10  0.3687E-14  0.1000E-09  0.0000E+00  0.5572E+16
   -0.756232    2.38481  0.6781E-10  0.1102E-09  0.6747E-14  0.1000E-09  0.0000E+00  0.4820E+16
   -0.824983    2.58487  0.6731E-10  0.2046E-09  0.1227E-13  0.1000E-09  0.0000E+00  0.4096E+16
   -0.893734    2.78136  0.6682E-10  0.3775E-09  0.2219E-13  0.1000E-09  0.0000E+00  0.3404E+16
   -0.962485    2.97396  0.6644E-10  0.6925E-09  0.3990E-13  0.1000E-09  0.0000E+00  0.2751E+16
   -1.031237    3.16246  0.6621E-10  0.1263E-08  0.7133E-13  0.1700E-09  0.0000E+00  0.2136E+16
   -1.099989    3.34667  0.6609E-10  0.2296E-08  0.1272E-12  0.4149E-09  0.0000E+00  0.1560E+16
   -1.168741    3.52623  0.6604E-10  0.4156E-08  0.2258E-12  0.1120E-08  0.0000E+00  0.1026E+16
   -1.237493    3.70084  0.6603E-10  0.7475E-08  0.3984E-12  0.3816E-08  0.0000E+00  0.5316E+15
   -1.306245    3.86860  0.6602E-10  0.1318E-07  0.6906E-12  0.3322E-07  0.0000E+00  0.1058E+15
   -1.374997    4.00544  0.6602E-10  0.1360E-07  0.7140E-12  0.1035E-03  0.0000E+00 -0.6881E+11
   -1.443749    4.00567  0.6602E-10  0.1377E-07  0.7253E-12  0.1026E-03  0.0000E+00 -0.7034E+11
   -1.512501    4.00590  0.6602E-10  0.1391E-07  0.7364E-12  0.1028E-03  0.0000E+00 -0.7115E+11
   -1.581253    4.00613  0.6602E-10  0.1403E-07  0.7484E-12  0.1029E-03  0.0000E+00 -0.7209E+11
   -1.650005    4.00636  0.6602E-10  0.1413E-07  0.7614E-12  0.1026E-03  0.0000E+00 -0.7327E+11
   -1.718757    4.00659  0.6602E-10  0.1422E-07  0.7756E-12  0.1020E-03  0.0000E+00 -0.7474E+11
   -1.787509    4.00683  0.6602E-10  0.1429E-07  0.7911E-12  0.1011E-03  0.0000E+00 -0.7651E+11
   -1.856260    4.00706  0.6602E-10  0.1435E-07  0.8081E-12  0.9975E-04  0.0000E+00 -0.7863E+11
   -1.925011    4.00730  0.6602E-10  0.1439E-07  0.8277E-12  0.9799E-04  0.0000E+00 -0.8121E+11
   -1.993762    4.00755  0.6602E-10  0.1440E-07  0.8508E-12  0.9571E-04  0.0000E+00 -0.8438E+11
   -2.062513    4.00780  0.6602E-10  0.1440E-07  0.8791E-12  0.9286E-04  0.0000E+00 -0.8851E+11
   -2.131263    4.00806  0.6602E-10  0.1437E-07  0.9155E-12  0.8398E-04  0.0000E+00 -0.9988E+11
   -2.200013    4.00835  0.6602E-10  0.1430E-07  0.9623E-12  0.7401E-04  0.0000E+00 -0.1161E+12
   -2.268762    4.00869  0.6602E-10  0.1418E-07  0.1024E-11  0.6480E-04  0.0000E+00 -0.1364E+12
   -2.337511    4.00907  0.6602E-10  0.1400E-07  0.1108E-11  0.5607E-04  0.0000E+00 -0.1632E+12
   -2.406260    4.00953  0.6602E-10  0.1372E-07  0.1230E-11  0.4665E-04  0.0000E+00 -0.2050E+12
   -2.475008    4.01008  0.6602E-10  0.1328E-07  0.1424E-11  0.3583E-04  0.0000E+00 -0.2832E+12
   -2.543755    4.01083  0.6602E-10  0.1250E-07  0.1787E-11  0.2326E-04  0.0000E+00 -0.4722E+12
   -2.612502    4.01203  0.6602E-10  0.1099E-07  0.2629E-11  0.1060E-04  0.0000E+00 -0.1161E+13
   -2.681248    4.01477  0.6602E-10  0.5065E-08  0.7739E-11  0.5970E-06  0.0000E+00 -0.3316E+14
   -2.749994    4.05735  0.6602E-10  0.0000E+00  0.0000E+00  0.0000E+00  0.0000E+00  0.0000E+00
