 1 - depth, m
 2 - temperature, C
 3 - salinity, kg/kg
 4 - turbulent kinetic energy, m**2/s**2
 5 - dissipation rate, m**2/s**3
 6 - kinematic heat conductance, m**2/s
 7 - modulus of horizontal velocity, m/s
 8 - Richardson number, n/d
   -0.000000   -0.00000  0.3846E-09  0.7796E-13  0.1043E-16  0.1000E-09  0.0000E+00  0.1514E+17
   -0.068746    0.23448  0.1887E-09  0.1440E-12  0.1301E-16  0.1000E-09  0.0000E+00  0.1412E+17
   -0.137492    0.46822  0.1049E-09  0.2940E-12  0.2261E-16  0.1000E-09  0.0000E+00  0.1302E+17
   -0.206239    0.69931  0.7956E-10  0.5905E-12  0.4272E-16  0.1000E-09  0.0000E+00  0.1194E+17
   -0.274987    0.92738  0.7323E-10  0.1165E-11  0.8167E-16  0.1000E-09  0.0000E+00  0.1088E+17
   -0.343735    1.15215  0.7175E-10  0.2266E-11  0.1553E-15  0.1000E-09  0.0000E+00  0.9878E+16
   -0.412483    1.37370  0.7142E-10  0.4370E-11  0.2933E-15  0.1000E-09  0.0000E+00  0.8908E+16
   -0.481233    1.59184  0.7134E-10  0.8369E-11  0.5507E-15  0.1000E-09  0.0000E+00  0.7974E+16
   -0.549982    1.80637  0.7132E-10  0.1594E-10  0.1028E-14  0.1000E-09  0.0000E+00  0.7089E+16
   -0.618732    2.01738  0.7130E-10  0.3007E-10  0.1903E-14  0.1000E-09  0.0000E+00  0.6249E+16
   -0.687482    2.22495  0.7127E-10  0.5638E-10  0.3501E-14  0.1000E-09  0.0000E+00  0.5443E+16
   -0.756233    2.42886  0.7121E-10  0.1051E-09  0.6403E-14  0.1000E-09  0.0000E+00  0.4689E+16
   -0.824984    2.62954  0.7107E-10  0.1949E-09  0.1165E-13  0.1000E-09  0.0000E+00  0.3958E+16
   -0.893735    2.82635  0.7081E-10  0.3595E-09  0.2109E-13  0.1000E-09  0.0000E+00  0.3256E+16
   -0.962487    3.01844  0.7038E-10  0.6598E-09  0.3799E-13  0.1000E-09  0.0000E+00  0.2590E+16
   -1.031239    3.20488  0.6979E-10  0.1205E-08  0.6809E-13  0.1759E-09  0.0000E+00  0.1970E+16
   -1.099991    3.38479  0.6920E-10  0.2194E-08  0.1218E-12  0.4406E-09  0.0000E+00  0.1406E+16
   -1.168743    3.55765  0.6881E-10  0.3982E-08  0.2170E-12  0.1223E-08  0.0000E+00  0.9028E+15
   -1.237495    3.72337  0.6865E-10  0.7182E-08  0.3844E-12  0.4289E-08  0.0000E+00  0.4562E+15
   -1.306247    3.88104  0.6861E-10  0.1267E-07  0.6675E-12  0.4039E-07  0.0000E+00  0.8401E+14
   -1.374999    4.00545  0.6861E-10  0.1310E-07  0.6918E-12  0.9583E-04  0.0000E+00 -0.7085E+11
   -1.443751    4.00568  0.6861E-10  0.1328E-07  0.7041E-12  0.9878E-04  0.0000E+00 -0.6998E+11
   -1.512504    4.00591  0.6861E-10  0.1343E-07  0.7161E-12  0.9893E-04  0.0000E+00 -0.7114E+11
   -1.581256    4.00614  0.6861E-10  0.1356E-07  0.7288E-12  0.9904E-04  0.0000E+00 -0.7236E+11
   -1.650008    4.00637  0.6861E-10  0.1367E-07  0.7426E-12  0.9884E-04  0.0000E+00 -0.7385E+11
   -1.718760    4.00661  0.6861E-10  0.1377E-07  0.7577E-12  0.9829E-04  0.0000E+00 -0.7566E+11
   -1.787511    4.00684  0.6861E-10  0.1385E-07  0.7746E-12  0.9737E-04  0.0000E+00 -0.7783E+11
   -1.856263    4.00708  0.6861E-10  0.1392E-07  0.7937E-12  0.9604E-04  0.0000E+00 -0.8044E+11
   -1.925014    4.00733  0.6861E-10  0.1397E-07  0.8156E-12  0.9425E-04  0.0000E+00 -0.8361E+11
   -1.993765    4.00758  0.6861E-10  0.1401E-07  0.8414E-12  0.9200E-04  0.0000E+00 -0.8739E+11
   -2.062516    4.00784  0.6861E-10  0.1402E-07  0.8725E-12  0.8748E-04  0.0000E+00 -0.9406E+11
   -2.131266    4.00812  0.6861E-10  0.1400E-07  0.9118E-12  0.7921E-04  0.0000E+00 -0.1067E+12
   -2.200016    4.00843  0.6861E-10  0.1395E-07  0.9621E-12  0.7037E-04  0.0000E+00 -0.1239E+12
   -2.268766    4.00878  0.6861E-10  0.1385E-07  0.1028E-11  0.6212E-04  0.0000E+00 -0.1457E+12
   -2.337515    4.00919  0.6861E-10  0.1369E-07  0.1118E-11  0.5400E-04  0.0000E+00 -0.1753E+12
   -2.406264    4.00968  0.6861E-10  0.1344E-07  0.1248E-11  0.4504E-04  0.0000E+00 -0.2225E+12
   -2.475012    4.01028  0.6861E-10  0.1303E-07  0.1453E-11  0.3471E-04  0.0000E+00 -0.3118E+12
   -2.543759    4.01110  0.6861E-10  0.1229E-07  0.1836E-11  0.2259E-04  0.0000E+00 -0.5297E+12
   -2.612506    4.01242  0.6861E-10  0.1081E-07  0.2726E-11  0.1028E-04  0.0000E+00 -0.1338E+13
   -2.681253    4.01551  0.6861E-10  0.5124E-08  0.8021E-11  0.6195E-06  0.0000E+00 -0.3808E+14
   -2.749998    4.06192  0.6861E-10  0.0000E+00  0.0000E+00  0.0000E+00  0.0000E+00  0.0000E+00
