 1 - depth, m
 2 - temperature, C
 3 - salinity, kg/kg
 4 - turbulent kinetic energy, m**2/s**2
 5 - dissipation rate, m**2/s**3
 6 - kinematic heat conductance, m**2/s
 7 - modulus of horizontal velocity, m/s
 8 - Richardson number, n/d
   -0.000000   -0.00000  0.1316E-09  0.1219E-13  0.7603E-17  0.1000E-09  0.0000E+00  0.1388E+17
   -0.068746    0.21442  0.1424E-09  0.4296E-13  0.7603E-17  0.1000E-09  0.0000E+00  0.1314E+17
   -0.137492    0.43007  0.1315E-09  0.1229E-12  0.1115E-16  0.1000E-09  0.0000E+00  0.1228E+17
   -0.206239    0.64503  0.1105E-09  0.2757E-12  0.2080E-16  0.1000E-09  0.0000E+00  0.1141E+17
   -0.274987    0.85875  0.9081E-10  0.5647E-12  0.4005E-16  0.1000E-09  0.0000E+00  0.1054E+17
   -0.343735    1.07079  0.7841E-10  0.1114E-11  0.7653E-16  0.1000E-09  0.0000E+00  0.9688E+16
   -0.412484    1.28107  0.7239E-10  0.2158E-11  0.1449E-15  0.1000E-09  0.0000E+00  0.8844E+16
   -0.481233    1.48918  0.6993E-10  0.4143E-11  0.2723E-15  0.1000E-09  0.0000E+00  0.8013E+16
   -0.549983    1.69474  0.6899E-10  0.7897E-11  0.5085E-15  0.1000E-09  0.0000E+00  0.7213E+16
   -0.618733    1.89772  0.6855E-10  0.1491E-10  0.9409E-15  0.1000E-09  0.0000E+00  0.6445E+16
   -0.687483    2.09813  0.6819E-10  0.2794E-10  0.1729E-14  0.1000E-09  0.0000E+00  0.5699E+16
   -0.756234    2.29569  0.6777E-10  0.5207E-10  0.3159E-14  0.1000E-09  0.0000E+00  0.4986E+16
   -0.824985    2.49045  0.6730E-10  0.9646E-10  0.5740E-14  0.1000E-09  0.0000E+00  0.4295E+16
   -0.893736    2.68195  0.6684E-10  0.1777E-09  0.1037E-13  0.1000E-09  0.0000E+00  0.3628E+16
   -0.962488    2.86964  0.6648E-10  0.3257E-09  0.1864E-13  0.1000E-09  0.0000E+00  0.2991E+16
   -1.031240    3.05288  0.6624E-10  0.5935E-09  0.3333E-13  0.1000E-09  0.0000E+00  0.2387E+16
   -1.099992    3.23093  0.6611E-10  0.1079E-08  0.5946E-13  0.1661E-09  0.0000E+00  0.1822E+16
   -1.168744    3.40286  0.6605E-10  0.1955E-08  0.1057E-12  0.4112E-09  0.0000E+00  0.1309E+16
   -1.237496    3.56837  0.6603E-10  0.3523E-08  0.1870E-12  0.1123E-08  0.0000E+00  0.8480E+15
   -1.306248    3.72747  0.6602E-10  0.6310E-08  0.3289E-12  0.3837E-08  0.0000E+00  0.4364E+15
   -1.375001    3.87925  0.6602E-10  0.1108E-07  0.5682E-12  0.3305E-07  0.0000E+00  0.8748E+14
   -1.443753    4.00383  0.6602E-10  0.1149E-07  0.5905E-12  0.8670E-04  0.0000E+00 -0.6924E+11
   -1.512505    4.00408  0.6602E-10  0.1167E-07  0.6021E-12  0.9045E-04  0.0000E+00 -0.6748E+11
   -1.581257    4.00432  0.6602E-10  0.1181E-07  0.6136E-12  0.9052E-04  0.0000E+00 -0.6854E+11
   -1.650009    4.00456  0.6602E-10  0.1194E-07  0.6256E-12  0.9056E-04  0.0000E+00 -0.6963E+11
   -1.718761    4.00480  0.6602E-10  0.1204E-07  0.6388E-12  0.9026E-04  0.0000E+00 -0.7102E+11
   -1.787513    4.00504  0.6602E-10  0.1214E-07  0.6535E-12  0.8956E-04  0.0000E+00 -0.7277E+11
   -1.856265    4.00529  0.6602E-10  0.1221E-07  0.6699E-12  0.8843E-04  0.0000E+00 -0.7494E+11
   -1.925016    4.00554  0.6602E-10  0.1227E-07  0.6888E-12  0.8691E-04  0.0000E+00 -0.7755E+11
   -1.993767    4.00580  0.6602E-10  0.1230E-07  0.7108E-12  0.8302E-04  0.0000E+00 -0.8261E+11
   -2.062518    4.00607  0.6602E-10  0.1232E-07  0.7365E-12  0.7686E-04  0.0000E+00 -0.9110E+11
   -2.131268    4.00636  0.6602E-10  0.1230E-07  0.7685E-12  0.7014E-04  0.0000E+00 -0.1023E+12
   -2.200018    4.00668  0.6602E-10  0.1226E-07  0.8092E-12  0.6347E-04  0.0000E+00 -0.1163E+12
   -2.268768    4.00704  0.6602E-10  0.1217E-07  0.8622E-12  0.5691E-04  0.0000E+00 -0.1340E+12
   -2.337517    4.00745  0.6602E-10  0.1202E-07  0.9342E-12  0.4981E-04  0.0000E+00 -0.1592E+12
   -2.406266    4.00793  0.6602E-10  0.1179E-07  0.1038E-11  0.4160E-04  0.0000E+00 -0.2001E+12
   -2.475014    4.00851  0.6602E-10  0.1141E-07  0.1202E-11  0.3201E-04  0.0000E+00 -0.2777E+12
   -2.543762    4.00929  0.6602E-10  0.1073E-07  0.1511E-11  0.2076E-04  0.0000E+00 -0.4671E+12
   -2.612509    4.01056  0.6602E-10  0.9395E-08  0.2233E-11  0.9354E-05  0.0000E+00 -0.1175E+13
   -2.681255    4.01347  0.6602E-10  0.4345E-08  0.6492E-11  0.5404E-06  0.0000E+00 -0.3361E+14
   -2.750001    4.05724  0.6602E-10  0.0000E+00  0.0000E+00  0.0000E+00  0.0000E+00  0.0000E+00
