 1 - depth, m
 2 - temperature, C
 3 - salinity, kg/kg
 4 - turbulent kinetic energy, m**2/s**2
 5 - dissipation rate, m**2/s**3
 6 - kinematic heat conductance, m**2/s
 7 - modulus of horizontal velocity, m/s
 8 - Richardson number, n/d
   -0.000000   -0.00000  0.1651E-09  0.1219E-13  0.7603E-17  0.1000E-09  0.0000E+00  0.1417E+17
   -0.068746    0.21900  0.1406E-09  0.4647E-13  0.7603E-17  0.1000E-09  0.0000E+00  0.1332E+17
   -0.137493    0.43798  0.1284E-09  0.1302E-12  0.1146E-16  0.1000E-09  0.0000E+00  0.1235E+17
   -0.206240    0.65464  0.1084E-09  0.2895E-12  0.2145E-16  0.1000E-09  0.0000E+00  0.1138E+17
   -0.274988    0.86847  0.8995E-10  0.5900E-12  0.4116E-16  0.1000E-09  0.0000E+00  0.1045E+17
   -0.343736    1.07930  0.7819E-10  0.1159E-11  0.7835E-16  0.1000E-09  0.0000E+00  0.9558E+16
   -0.412485    1.28731  0.7237E-10  0.2238E-11  0.1477E-15  0.1000E-09  0.0000E+00  0.8701E+16
   -0.481234    1.49245  0.6994E-10  0.4278E-11  0.2761E-15  0.1000E-09  0.0000E+00  0.7875E+16
   -0.549984    1.69459  0.6898E-10  0.8116E-11  0.5128E-15  0.1000E-09  0.0000E+00  0.7086E+16
   -0.618734    1.89381  0.6851E-10  0.1524E-10  0.9431E-15  0.1000E-09  0.0000E+00  0.6333E+16
   -0.687485    2.09015  0.6813E-10  0.2841E-10  0.1722E-14  0.1000E-09  0.0000E+00  0.5608E+16
   -0.756236    2.28342  0.6771E-10  0.5261E-10  0.3124E-14  0.1000E-09  0.0000E+00  0.4920E+16
   -0.824987    2.47382  0.6725E-10  0.9683E-10  0.5634E-14  0.1000E-09  0.0000E+00  0.4258E+16
   -0.893738    2.66112  0.6681E-10  0.1771E-09  0.1010E-13  0.1000E-09  0.0000E+00  0.3625E+16
   -0.962490    2.84511  0.6646E-10  0.3222E-09  0.1801E-13  0.1000E-09  0.0000E+00  0.3022E+16
   -1.031242    3.02562  0.6624E-10  0.5825E-09  0.3192E-13  0.1000E-09  0.0000E+00  0.2450E+16
   -1.099994    3.20247  0.6611E-10  0.1050E-08  0.5642E-13  0.1505E-09  0.0000E+00  0.1909E+16
   -1.168747    3.37526  0.6605E-10  0.1886E-08  0.9936E-13  0.3607E-09  0.0000E+00  0.1402E+16
   -1.237499    3.54379  0.6603E-10  0.3369E-08  0.1741E-12  0.9517E-09  0.0000E+00  0.9313E+15
   -1.306251    3.70772  0.6602E-10  0.5980E-08  0.3032E-12  0.3116E-08  0.0000E+00  0.4955E+15
   -1.375004    3.86564  0.6602E-10  0.1045E-07  0.5206E-12  0.2361E-07  0.0000E+00  0.1123E+15
   -1.443756    4.00180  0.6602E-10  0.1084E-07  0.5412E-12  0.8319E-04  0.0000E+00 -0.6585E+11
   -1.512509    4.00207  0.6602E-10  0.1101E-07  0.5520E-12  0.8813E-04  0.0000E+00 -0.6322E+11
   -1.581261    4.00233  0.6602E-10  0.1116E-07  0.5630E-12  0.8814E-04  0.0000E+00 -0.6424E+11
   -1.650013    4.00258  0.6602E-10  0.1128E-07  0.5745E-12  0.8818E-04  0.0000E+00 -0.6526E+11
   -1.718766    4.00283  0.6602E-10  0.1138E-07  0.5870E-12  0.8785E-04  0.0000E+00 -0.6656E+11
   -1.787518    4.00309  0.6602E-10  0.1147E-07  0.6010E-12  0.8714E-04  0.0000E+00 -0.6819E+11
   -1.856269    4.00335  0.6602E-10  0.1154E-07  0.6167E-12  0.8580E-04  0.0000E+00 -0.7039E+11
   -1.925021    4.00361  0.6602E-10  0.1160E-07  0.6347E-12  0.8284E-04  0.0000E+00 -0.7412E+11
   -1.993772    4.00388  0.6602E-10  0.1163E-07  0.6552E-12  0.7770E-04  0.0000E+00 -0.8039E+11
   -2.062523    4.00417  0.6602E-10  0.1164E-07  0.6791E-12  0.7205E-04  0.0000E+00 -0.8854E+11
   -2.131274    4.00448  0.6602E-10  0.1163E-07  0.7088E-12  0.6628E-04  0.0000E+00 -0.9867E+11
   -2.200024    4.00483  0.6602E-10  0.1158E-07  0.7465E-12  0.6054E-04  0.0000E+00 -0.1111E+12
   -2.268774    4.00521  0.6602E-10  0.1149E-07  0.7954E-12  0.5457E-04  0.0000E+00 -0.1274E+12
   -2.337523    4.00563  0.6602E-10  0.1135E-07  0.8618E-12  0.4781E-04  0.0000E+00 -0.1513E+12
   -2.406272    4.00612  0.6602E-10  0.1113E-07  0.9577E-12  0.3992E-04  0.0000E+00 -0.1904E+12
   -2.475020    4.00673  0.6602E-10  0.1076E-07  0.1110E-11  0.3067E-04  0.0000E+00 -0.2647E+12
   -2.543768    4.00754  0.6602E-10  0.1012E-07  0.1397E-11  0.1983E-04  0.0000E+00 -0.4472E+12
   -2.612515    4.00884  0.6602E-10  0.8833E-08  0.2071E-11  0.8872E-05  0.0000E+00 -0.1138E+13
   -2.681262    4.01187  0.6602E-10  0.4077E-08  0.6018E-11  0.5165E-06  0.0000E+00 -0.3316E+14
   -2.750008    4.05623  0.6602E-10  0.0000E+00  0.0000E+00  0.0000E+00  0.0000E+00  0.0000E+00
