 1 - depth, m
 2 - temperature, C
 3 - salinity, kg/kg
 4 - turbulent kinetic energy, m**2/s**2
 5 - dissipation rate, m**2/s**3
 6 - kinematic heat conductance, m**2/s
 7 - modulus of horizontal velocity, m/s
 8 - Richardson number, n/d
   -0.000000   -0.00000  0.2839E-09  0.1219E-13  0.7603E-17  0.1000E-09  0.0000E+00  0.8355E+16
   -0.068746    0.12752  0.1680E-09  0.1219E-13  0.7603E-17  0.1000E-09  0.0000E+00  0.7905E+16
   -0.137492    0.25245  0.1134E-09  0.1219E-13  0.7603E-17  0.1000E-09  0.0000E+00  0.7389E+16
   -0.206239    0.37338  0.9272E-10  0.1219E-13  0.7603E-17  0.1000E-09  0.0000E+00  0.6894E+16
   -0.274986    0.49022  0.8703E-10  0.1219E-13  0.7603E-17  0.1000E-09  0.0000E+00  0.6427E+16
   -0.343734    0.60301  0.8580E-10  0.1219E-13  0.7603E-17  0.1000E-09  0.0000E+00  0.6030E+16
   -0.412483    0.71256  0.8557E-10  0.1219E-13  0.7603E-17  0.1000E-09  0.0000E+00  0.5653E+16
   -0.481232    0.81891  0.8554E-10  0.1219E-13  0.7603E-17  0.1000E-09  0.0000E+00  0.5297E+16
   -0.549981    0.92208  0.8553E-10  0.1219E-13  0.7603E-17  0.1000E-09  0.0000E+00  0.4992E+16
   -0.618731    1.02278  0.8553E-10  0.1219E-13  0.7603E-17  0.1000E-09  0.0000E+00  0.4737E+16
   -0.687482    1.12176  0.8553E-10  0.1219E-13  0.7603E-17  0.1000E-09  0.0000E+00  0.4500E+16
   -0.756232    1.21924  0.8553E-10  0.1219E-13  0.7603E-17  0.1000E-09  0.0000E+00  0.4324E+16
   -0.824983    1.31642  0.8553E-10  0.1219E-13  0.7603E-17  0.1000E-09  0.0000E+00  0.4154E+16
   -0.893734    1.41338  0.8552E-10  0.1219E-13  0.7603E-17  0.1000E-09  0.0000E+00  0.3988E+16
   -0.962486    1.51019  0.8550E-10  0.1219E-13  0.7603E-17  0.1000E-09  0.0000E+00  0.3824E+16
   -1.031238    1.60689  0.8545E-10  0.1219E-13  0.7603E-17  0.1000E-09  0.0000E+00  0.3661E+16
   -1.099989    1.70346  0.8535E-10  0.1219E-13  0.7603E-17  0.1000E-09  0.0000E+00  0.3493E+16
   -1.168741    1.79973  0.8517E-10  0.1219E-13  0.7603E-17  0.1000E-09  0.0000E+00  0.3327E+16
   -1.237493    1.89568  0.8488E-10  0.1219E-13  0.7603E-17  0.1000E-09  0.0000E+00  0.3160E+16
   -1.306246    1.99125  0.8449E-10  0.1219E-13  0.7603E-17  0.1000E-09  0.0000E+00  0.2994E+16
   -1.374998    2.08637  0.8405E-10  0.1219E-13  0.7603E-17  0.1000E-09  0.0000E+00  0.2843E+16
   -1.443750    2.18149  0.8360E-10  0.1219E-13  0.7603E-17  0.1000E-09  0.0000E+00  0.2715E+16
   -1.512502    2.27739  0.8318E-10  0.1219E-13  0.7603E-17  0.1000E-09  0.0000E+00  0.2580E+16
   -1.581254    2.37397  0.8274E-10  0.1219E-13  0.7603E-17  0.1000E-09  0.0000E+00  0.2439E+16
   -1.650006    2.47110  0.8230E-10  0.1219E-13  0.7603E-17  0.1000E-09  0.0000E+00  0.2293E+16
   -1.718758    2.56861  0.8189E-10  0.1219E-13  0.7603E-17  0.1000E-09  0.0000E+00  0.2141E+16
   -1.787510    2.66630  0.8159E-10  0.1219E-13  0.7603E-17  0.1000E-09  0.0000E+00  0.1984E+16
   -1.856261    2.76394  0.8141E-10  0.1219E-13  0.7603E-17  0.1000E-09  0.0000E+00  0.1823E+16
   -1.925012    2.86127  0.8131E-10  0.1219E-13  0.7603E-17  0.1000E-09  0.0000E+00  0.1659E+16
   -1.993763    2.95797  0.8125E-10  0.1219E-13  0.7603E-17  0.1000E-09  0.0000E+00  0.1494E+16
   -2.062514    3.05372  0.8122E-10  0.1219E-13  0.7603E-17  0.1000E-09  0.0000E+00  0.1377E+16
   -2.131264    3.15183  0.8121E-10  0.1219E-13  0.7760E-17  0.1000E-09  0.0000E+00  0.1276E+16
   -2.200014    3.25457  0.8121E-10  0.4910E-13  0.3871E-16  0.1000E-09  0.0000E+00  0.1162E+16
   -2.268763    3.36292  0.8121E-10  0.3471E-12  0.2650E-15  0.1000E-09  0.0000E+00  0.1033E+16
   -2.337512    3.47840  0.8121E-10  0.2458E-11  0.1805E-14  0.1000E-09  0.0000E+00  0.8785E+15
   -2.406261    3.60343  0.8121E-10  0.1712E-10  0.1210E-13  0.1000E-09  0.0000E+00  0.6842E+15
   -2.475009    3.74201  0.8121E-10  0.1177E-09  0.8033E-13  0.9471E-09  0.0000E+00  0.4106E+15
   -2.543757    3.90026  0.8121E-10  0.7899E-09  0.5255E-12  0.4841E-07  0.0000E+00  0.3620E+14
   -2.612504    4.03919  0.8121E-10  0.3694E-08  0.2768E-11  0.1765E-05  0.0000E+00 -0.1567E+14
   -2.681250    4.05558  0.8121E-10  0.3567E-08  0.7017E-11  0.5114E-06  0.0000E+00 -0.9355E+14
   -2.749995    4.11577  0.8121E-10  0.0000E+00  0.0000E+00  0.0000E+00  0.0000E+00  0.0000E+00
