 1 - depth, m
 2 - temperature, C
 3 - salinity, kg/kg
 4 - turbulent kinetic energy, m**2/s**2
 5 - dissipation rate, m**2/s**3
 6 - kinematic heat conductance, m**2/s
 7 - modulus of horizontal velocity, m/s
 8 - Richardson number, n/d
   -0.000000   -0.00000  0.3251E-09  0.1207E-11  0.2699E-15  0.1000E-09  0.0000E+00  0.1794E+17
   -0.068746    0.27952  0.1727E-09  0.2926E-11  0.2841E-15  0.1000E-09  0.0000E+00  0.1650E+17
   -0.137492    0.55815  0.9863E-10  0.6501E-11  0.4627E-15  0.1000E-09  0.0000E+00  0.1498E+17
   -0.206239    0.83370  0.7628E-10  0.1312E-10  0.8417E-15  0.1000E-09  0.0000E+00  0.1350E+17
   -0.274987    1.10567  0.7062E-10  0.2529E-10  0.1551E-14  0.1000E-09  0.0000E+00  0.1205E+17
   -0.343735    1.37363  0.6922E-10  0.4759E-10  0.2839E-14  0.1000E-09  0.0000E+00  0.1067E+17
   -0.412483    1.63742  0.6887E-10  0.8834E-10  0.5151E-14  0.1000E-09  0.0000E+00  0.9339E+16
   -0.481232    1.89663  0.6878E-10  0.1626E-09  0.9281E-14  0.1000E-09  0.0000E+00  0.8067E+16
   -0.549982    2.15088  0.6870E-10  0.2971E-09  0.1662E-13  0.1000E-09  0.0000E+00  0.6866E+16
   -0.618732    2.40014  0.6855E-10  0.5378E-09  0.2947E-13  0.1000E-09  0.0000E+00  0.5737E+16
   -0.687482    2.64452  0.6824E-10  0.9665E-09  0.5189E-13  0.1000E-09  0.0000E+00  0.4675E+16
   -0.756233    2.88400  0.6769E-10  0.1726E-08  0.9082E-13  0.1252E-09  0.0000E+00  0.3692E+16
   -0.824984    3.11970  0.6698E-10  0.3063E-08  0.1580E-12  0.2916E-09  0.0000E+00  0.2758E+16
   -0.893735    3.35145  0.6641E-10  0.5403E-08  0.2733E-12  0.7430E-09  0.0000E+00  0.1873E+16
   -0.962487    3.57894  0.6612E-10  0.9469E-08  0.4697E-12  0.2311E-08  0.0000E+00  0.1035E+16
   -1.031238    3.80068  0.6603E-10  0.1639E-07  0.7983E-12  0.1515E-07  0.0000E+00  0.2686E+15
   -1.099990    4.00161  0.6602E-10  0.1673E-07  0.8154E-12  0.1334E-03  0.0000E+00 -0.5652E+11
   -1.168742    4.00184  0.6602E-10  0.1687E-07  0.8246E-12  0.1309E-03  0.0000E+00 -0.5847E+11
   -1.237494    4.00208  0.6602E-10  0.1701E-07  0.8342E-12  0.1311E-03  0.0000E+00 -0.5925E+11
   -1.306247    4.00232  0.6602E-10  0.1712E-07  0.8448E-12  0.1313E-03  0.0000E+00 -0.6008E+11
   -1.374999    4.00256  0.6602E-10  0.1723E-07  0.8563E-12  0.1312E-03  0.0000E+00 -0.6102E+11
   -1.443751    4.00280  0.6602E-10  0.1733E-07  0.8689E-12  0.1308E-03  0.0000E+00 -0.6210E+11
   -1.512503    4.00303  0.6602E-10  0.1741E-07  0.8825E-12  0.1301E-03  0.0000E+00 -0.6334E+11
   -1.581255    4.00327  0.6602E-10  0.1748E-07  0.8975E-12  0.1291E-03  0.0000E+00 -0.6476E+11
   -1.650007    4.00352  0.6602E-10  0.1754E-07  0.9137E-12  0.1278E-03  0.0000E+00 -0.6637E+11
   -1.718759    4.00376  0.6602E-10  0.1759E-07  0.9315E-12  0.1261E-03  0.0000E+00 -0.6822E+11
   -1.787511    4.00401  0.6602E-10  0.1762E-07  0.9511E-12  0.1241E-03  0.0000E+00 -0.7032E+11
   -1.856262    4.00426  0.6602E-10  0.1763E-07  0.9725E-12  0.1218E-03  0.0000E+00 -0.7273E+11
   -1.925014    4.00452  0.6602E-10  0.1763E-07  0.9962E-12  0.1191E-03  0.0000E+00 -0.7549E+11
   -1.993765    4.00478  0.6602E-10  0.1762E-07  0.1022E-11  0.1161E-03  0.0000E+00 -0.7863E+11
   -2.062515    4.00505  0.6602E-10  0.1758E-07  0.1053E-11  0.1126E-03  0.0000E+00 -0.8255E+11
   -2.131266    4.00533  0.6602E-10  0.1752E-07  0.1094E-11  0.1081E-03  0.0000E+00 -0.8771E+11
   -2.200016    4.00562  0.6602E-10  0.1741E-07  0.1150E-11  0.9499E-04  0.0000E+00 -0.1021E+12
   -2.268765    4.00596  0.6602E-10  0.1725E-07  0.1226E-11  0.7973E-04  0.0000E+00 -0.1250E+12
   -2.337514    4.00636  0.6602E-10  0.1701E-07  0.1332E-11  0.6671E-04  0.0000E+00 -0.1545E+12
   -2.406263    4.00684  0.6602E-10  0.1665E-07  0.1486E-11  0.5458E-04  0.0000E+00 -0.1971E+12
   -2.475011    4.00745  0.6602E-10  0.1612E-07  0.1732E-11  0.4146E-04  0.0000E+00 -0.2749E+12
   -2.543758    4.00826  0.6602E-10  0.1519E-07  0.2194E-11  0.2665E-04  0.0000E+00 -0.4625E+12
   -2.612505    4.00957  0.6602E-10  0.1342E-07  0.3267E-11  0.1215E-04  0.0000E+00 -0.1143E+13
   -2.681252    4.01252  0.6602E-10  0.6267E-08  0.9989E-11  0.6974E-06  0.0000E+00 -0.3502E+14
   -2.749997    4.05815  0.6602E-10  0.0000E+00  0.0000E+00  0.0000E+00  0.0000E+00  0.0000E+00
