 1 - depth, m
 2 - temperature, C
 3 - salinity, kg/kg
 4 - turbulent kinetic energy, m**2/s**2
 5 - dissipation rate, m**2/s**3
 6 - kinematic heat conductance, m**2/s
 7 - modulus of horizontal velocity, m/s
 8 - Richardson number, n/d
   -0.000000   -0.00000  0.4095E-09  0.1764E-11  0.4445E-15  0.1000E-09  0.0000E+00  0.1956E+17
   -0.068746    0.30594  0.1084E-09  0.4588E-11  0.4998E-15  0.1000E-09  0.0000E+00  0.1763E+17
   -0.137492    0.60685  0.8172E-10  0.1066E-10  0.8796E-15  0.1000E-09  0.0000E+00  0.1572E+17
   -0.206239    0.90140  0.7250E-10  0.2246E-10  0.1700E-14  0.1000E-09  0.0000E+00  0.1394E+17
   -0.274986    1.19000  0.6968E-10  0.4537E-10  0.3303E-14  0.1000E-09  0.0000E+00  0.1229E+17
   -0.343734    1.47303  0.6897E-10  0.8967E-10  0.6361E-14  0.1000E-09  0.0000E+00  0.1075E+17
   -0.412482    1.75112  0.6882E-10  0.1751E-09  0.1214E-13  0.1000E-09  0.0000E+00  0.9296E+16
   -0.481231    2.02451  0.6879E-10  0.3389E-09  0.2301E-13  0.1000E-09  0.0000E+00  0.7925E+16
   -0.549981    2.29337  0.6877E-10  0.6517E-09  0.4331E-13  0.1000E-09  0.0000E+00  0.6636E+16
   -0.618730    2.55812  0.6874E-10  0.1240E-08  0.8074E-13  0.1000E-09  0.0000E+00  0.5416E+16
   -0.687481    2.81909  0.6863E-10  0.2344E-08  0.1494E-12  0.1788E-09  0.0000E+00  0.4254E+16
   -0.756231    3.07623  0.6830E-10  0.4399E-08  0.2748E-12  0.4430E-09  0.0000E+00  0.3158E+16
   -0.824982    3.33047  0.6757E-10  0.8200E-08  0.5020E-12  0.1218E-08  0.0000E+00  0.2098E+16
   -0.893733    3.58070  0.6658E-10  0.1517E-07  0.9103E-12  0.4273E-08  0.0000E+00  0.1084E+16
   -0.962484    3.82285  0.6605E-10  0.2737E-07  0.1615E-11  0.4041E-07  0.0000E+00  0.2034E+15
   -1.031236    4.01450  0.6599E-10  0.2780E-07  0.1641E-11  0.1774E-03  0.0000E+00 -0.8626E+11
   -1.099988    4.01470  0.6599E-10  0.2800E-07  0.1656E-11  0.1731E-03  0.0000E+00 -0.8949E+11
   -1.168740    4.01490  0.6599E-10  0.2818E-07  0.1673E-11  0.1733E-03  0.0000E+00 -0.9062E+11
   -1.237492    4.01510  0.6599E-10  0.2835E-07  0.1692E-11  0.1734E-03  0.0000E+00 -0.9182E+11
   -1.306244    4.01530  0.6599E-10  0.2850E-07  0.1712E-11  0.1732E-03  0.0000E+00 -0.9322E+11
   -1.374996    4.01551  0.6599E-10  0.2863E-07  0.1734E-11  0.1726E-03  0.0000E+00 -0.9470E+11
   -1.443748    4.01571  0.6599E-10  0.2874E-07  0.1759E-11  0.1717E-03  0.0000E+00 -0.9617E+11
   -1.512500    4.01592  0.6599E-10  0.2884E-07  0.1785E-11  0.1704E-03  0.0000E+00 -0.9788E+11
   -1.581252    4.01613  0.6599E-10  0.2891E-07  0.1814E-11  0.1688E-03  0.0000E+00 -0.9986E+11
   -1.650004    4.01634  0.6599E-10  0.2897E-07  0.1846E-11  0.1668E-03  0.0000E+00 -0.1021E+12
   -1.718755    4.01656  0.6599E-10  0.2901E-07  0.1881E-11  0.1644E-03  0.0000E+00 -0.1047E+12
   -1.787507    4.01678  0.6599E-10  0.2902E-07  0.1919E-11  0.1616E-03  0.0000E+00 -0.1077E+12
   -1.856258    4.01701  0.6599E-10  0.2902E-07  0.1962E-11  0.1584E-03  0.0000E+00 -0.1112E+12
   -1.925009    4.01724  0.6599E-10  0.2899E-07  0.2009E-11  0.1548E-03  0.0000E+00 -0.1151E+12
   -1.993760    4.01747  0.6599E-10  0.2893E-07  0.2062E-11  0.1508E-03  0.0000E+00 -0.1196E+12
   -2.062511    4.01772  0.6599E-10  0.2885E-07  0.2121E-11  0.1462E-03  0.0000E+00 -0.1250E+12
   -2.131261    4.01797  0.6599E-10  0.2874E-07  0.2193E-11  0.1407E-03  0.0000E+00 -0.1317E+12
   -2.200011    4.01823  0.6599E-10  0.2858E-07  0.2280E-11  0.1345E-03  0.0000E+00 -0.1402E+12
   -2.268760    4.01851  0.6599E-10  0.2836E-07  0.2400E-11  0.1268E-03  0.0000E+00 -0.1515E+12
   -2.337509    4.01881  0.6599E-10  0.2800E-07  0.2584E-11  0.1022E-03  0.0000E+00 -0.1924E+12
   -2.406258    4.01919  0.6599E-10  0.2745E-07  0.2867E-11  0.7778E-04  0.0000E+00 -0.2608E+12
   -2.475005    4.01969  0.6599E-10  0.2661E-07  0.3325E-11  0.5791E-04  0.0000E+00 -0.3657E+12
   -2.543753    4.02038  0.6599E-10  0.2519E-07  0.4183E-11  0.3750E-04  0.0000E+00 -0.5983E+12
   -2.612500    4.02149  0.6599E-10  0.2251E-07  0.6129E-11  0.1768E-04  0.0000E+00 -0.1377E+13
   -2.681246    4.02390  0.6599E-10  0.1080E-07  0.1895E-10  0.1010E-05  0.0000E+00 -0.3537E+14
   -2.749991    4.06333  0.6599E-10  0.0000E+00  0.0000E+00  0.0000E+00  0.0000E+00  0.0000E+00
