 1 - depth, m
 2 - temperature, C
 3 - salinity, kg/kg
 4 - turbulent kinetic energy, m**2/s**2
 5 - dissipation rate, m**2/s**3
 6 - kinematic heat conductance, m**2/s
 7 - modulus of horizontal velocity, m/s
 8 - Richardson number, n/d
   -0.000000   -0.00000  0.8722E-10  0.1219E-13  0.7603E-17  0.1000E-09  0.0000E+00  0.9842E+16
   -0.068746    0.15069  0.1561E-09  0.1219E-13  0.7603E-17  0.1000E-09  0.0000E+00  0.9771E+16
   -0.137493    0.30679  0.1554E-09  0.1219E-13  0.7603E-17  0.1000E-09  0.0000E+00  0.9458E+16
   -0.206241    0.46492  0.1330E-09  0.1219E-13  0.7603E-17  0.1000E-09  0.0000E+00  0.9053E+16
   -0.274989    0.62367  0.1087E-09  0.1219E-13  0.7603E-17  0.1000E-09  0.0000E+00  0.8600E+16
   -0.343738    0.78218  0.9155E-10  0.1219E-13  0.7603E-17  0.1000E-09  0.0000E+00  0.8141E+16
   -0.412488    0.94024  0.8218E-10  0.1219E-13  0.7603E-17  0.1000E-09  0.0000E+00  0.7664E+16
   -0.481237    1.09737  0.7796E-10  0.1219E-13  0.7603E-17  0.1000E-09  0.0000E+00  0.7178E+16
   -0.549988    1.25314  0.7632E-10  0.1219E-13  0.7603E-17  0.1000E-09  0.0000E+00  0.6703E+16
   -0.618738    1.40749  0.7574E-10  0.1219E-13  0.7603E-17  0.1000E-09  0.0000E+00  0.6243E+16
   -0.687489    1.56045  0.7553E-10  0.1219E-13  0.7603E-17  0.1000E-09  0.0000E+00  0.5786E+16
   -0.756241    1.71177  0.7543E-10  0.1219E-13  0.7603E-17  0.1000E-09  0.0000E+00  0.5347E+16
   -0.824992    1.86157  0.7533E-10  0.1219E-13  0.7603E-17  0.1000E-09  0.0000E+00  0.4916E+16
   -0.893744    2.00966  0.7519E-10  0.3988E-13  0.7603E-17  0.1000E-09  0.0000E+00  0.4495E+16
   -0.962497    2.15586  0.7500E-10  0.1163E-12  0.1267E-16  0.1000E-09  0.0000E+00  0.4085E+16
   -1.031249    2.30005  0.7474E-10  0.2743E-12  0.2600E-16  0.1000E-09  0.0000E+00  0.3685E+16
   -1.100002    2.44198  0.7440E-10  0.6017E-12  0.5426E-16  0.1000E-09  0.0000E+00  0.3291E+16
   -1.168754    2.58111  0.7400E-10  0.1284E-11  0.1123E-15  0.1000E-09  0.0000E+00  0.2913E+16
   -1.237507    2.71725  0.7356E-10  0.2699E-11  0.2300E-15  0.1000E-09  0.0000E+00  0.2552E+16
   -1.306260    2.85016  0.7313E-10  0.5616E-11  0.4670E-15  0.1000E-09  0.0000E+00  0.2209E+16
   -1.375013    2.97957  0.7276E-10  0.1158E-10  0.9401E-15  0.1000E-09  0.0000E+00  0.1892E+16
   -1.443766    3.10564  0.7248E-10  0.2369E-10  0.1877E-14  0.1000E-09  0.0000E+00  0.1601E+16
   -1.512519    3.22882  0.7231E-10  0.4805E-10  0.3718E-14  0.1000E-09  0.0000E+00  0.1327E+16
   -1.581272    3.34896  0.7221E-10  0.9668E-10  0.7306E-14  0.1000E-09  0.0000E+00  0.1071E+16
   -1.650024    3.46596  0.7217E-10  0.1930E-09  0.1425E-13  0.1000E-09  0.0000E+00  0.8327E+15
   -1.718777    3.57982  0.7215E-10  0.3822E-09  0.2757E-13  0.2295E-09  0.0000E+00  0.6125E+15
   -1.787529    3.69055  0.7214E-10  0.7509E-09  0.5293E-13  0.6593E-09  0.0000E+00  0.4098E+15
   -1.856282    3.79827  0.7214E-10  0.1463E-08  0.1008E-12  0.2315E-08  0.0000E+00  0.2228E+15
   -1.925034    3.90274  0.7214E-10  0.2802E-08  0.1890E-12  0.1810E-07  0.0000E+00  0.5414E+14
   -1.993785    3.99599  0.7214E-10  0.3316E-08  0.2249E-12  0.1788E-04  0.0000E+00 -0.1295E+12
   -2.062537    3.99682  0.7214E-10  0.3544E-08  0.2453E-12  0.1861E-04  0.0000E+00 -0.1344E+12
   -2.131288    3.99761  0.7214E-10  0.3741E-08  0.2684E-12  0.1889E-04  0.0000E+00 -0.1443E+12
   -2.200038    3.99840  0.7214E-10  0.3910E-08  0.2958E-12  0.1860E-04  0.0000E+00 -0.1600E+12
   -2.268789    3.99922  0.7214E-10  0.4048E-08  0.3297E-12  0.1771E-04  0.0000E+00 -0.1845E+12
   -2.337539    4.00011  0.7214E-10  0.4152E-08  0.3738E-12  0.1622E-04  0.0000E+00 -0.2241E+12
   -2.406288    4.00111  0.7214E-10  0.4211E-08  0.4359E-12  0.1406E-04  0.0000E+00 -0.2936E+12
   -2.475037    4.00233  0.7214E-10  0.4199E-08  0.5329E-12  0.1116E-04  0.0000E+00 -0.4357E+12
   -2.543785    4.00398  0.7214E-10  0.4044E-08  0.7141E-12  0.7325E-05  0.0000E+00 -0.8192E+12
   -2.612533    4.00673  0.7214E-10  0.3553E-08  0.1143E-11  0.3182E-05  0.0000E+00 -0.2543E+13
   -2.681280    4.01355  0.7214E-10  0.2070E-08  0.3050E-11  0.3423E-06  0.0000E+00 -0.4646E+14
   -2.750026    4.06803  0.7214E-10  0.0000E+00  0.0000E+00  0.0000E+00  0.0000E+00  0.0000E+00
