 1 - depth, m
 2 - temperature, C
 3 - salinity, kg/kg
 4 - turbulent kinetic energy, m**2/s**2
 5 - dissipation rate, m**2/s**3
 6 - kinematic heat conductance, m**2/s
 7 - modulus of horizontal velocity, m/s
 8 - Richardson number, n/d
   -0.000000   -0.00000  0.2334E-09  0.1254E-07  0.2727E-10  0.5987E-08  0.1186E-43  0.2285E+17
   -0.068745    0.36025  0.6415E-10  0.1389E-06  0.1743E-10  0.7043E-08  0.2971E-44  0.1254E+17
   -0.137490    0.57531  0.6967E-10  0.4125E-06  0.1743E-10  0.1525E-07  0.7232E-45  0.5808E+16
   -0.206236    0.67997  0.6929E-10  0.7785E-06  0.2155E-10  0.8624E-07  0.1628E-45  0.1298E+16
   -0.274983    0.70388  0.6914E-10  0.7787E-06  0.2155E-10  0.8679E-02  0.2080E-46 -0.1602E+11
   -0.343730    0.70388  0.6914E-10  0.7788E-06  0.2155E-10  0.8628E-02  0.2078E-46 -0.4249E+11
   -0.412478    0.70388  0.6914E-10  0.7789E-06  0.2155E-10  0.8622E-02  0.2076E-46 -0.6342E+11
   -0.481226    0.70388  0.6914E-10  0.7790E-06  0.2155E-10  0.8618E-02  0.2074E-46 -0.7965E+11
   -0.549975    0.70388  0.6914E-10  0.7790E-06  0.2155E-10  0.8619E-02  0.2073E-46 -0.8018E+11
   -0.618724    0.70388  0.6914E-10  0.7790E-06  0.2155E-10  0.8621E-02  0.2073E-46 -0.6556E+11
   -0.687473    0.70388  0.6914E-10  0.7789E-06  0.2155E-10  0.8629E-02  0.2073E-46 -0.4687E+11
   -0.756223    0.70388  0.6914E-10  0.7788E-06  0.2155E-10  0.8644E-02  0.2072E-46 -0.2558E+11
   -0.824973    0.70388  0.6914E-10  0.7787E-06  0.2154E-10  0.8479E-02  0.2072E-46  0.6930E+12
   -0.893724    0.70389  0.6914E-10  0.7765E-06  0.2147E-10  0.2858E-06  0.1996E-46  0.6223E+15
   -0.962474    0.71528  0.6829E-10  0.5445E-06  0.1517E-10  0.4118E-07  0.1170E-46  0.1929E+16
   -1.031225    0.75113  0.6692E-10  0.3518E-06  0.9984E-11  0.1944E-07  0.5177E-47  0.2629E+16
   -1.099976    0.80074  0.6655E-10  0.2236E-06  0.6474E-11  0.1444E-07  0.1452E-47  0.2281E+16
   -1.168727    0.84446  0.6648E-10  0.1405E-06  0.4157E-11  0.1042E-07  0.3967E-48  0.2016E+16
   -1.237479    0.88367  0.6643E-10  0.8714E-07  0.2644E-11  0.6985E-08  0.1058E-48  0.1901E+16
   -1.306230    0.92115  0.6639E-10  0.5317E-07  0.1670E-11  0.4178E-08  0.2753E-49  0.1994E+16
   -1.374981    0.96103  0.6634E-10  0.3166E-07  0.1055E-11  0.1927E-08  0.6990E-50  0.2719E+16
   -1.443733    1.01634  0.6629E-10  0.1812E-07  0.6864E-12  0.7803E-09  0.1731E-50  0.4349E+16
   -1.512484    1.10717  0.6623E-10  0.9733E-08  0.5003E-12  0.3857E-09  0.4185E-51  0.6380E+16
   -1.581235    1.24625  0.6618E-10  0.4951E-08  0.4925E-12  0.2709E-09  0.9877E-52  0.8894E+16
   -1.649986    1.45384  0.6612E-10  0.3513E-08  0.8116E-12  0.3354E-09  0.2275E-52  0.1182E+17
   -1.718737    1.76201  0.6600E-10  0.7418E-08  0.2317E-11  0.7831E-09  0.5112E-53  0.1457E+17
   -1.787488    2.22194  0.6576E-10  0.2650E-07  0.8288E-11  0.2884E-08  0.1120E-53  0.1505E+17
   -1.856239    2.91003  0.6527E-10  0.9584E-07  0.2915E-10  0.4139E-07  0.2386E-54  0.8680E+16
   -1.924989    3.77139  0.6475E-10  0.1400E-06  0.4242E-10  0.1007E-03  0.4791E-55  0.1439E+16
   -1.993739    4.13754  0.6468E-10  0.1449E-06  0.4416E-10  0.1765E-03  0.1722E-56 -0.2583E+13
   -2.062489    4.13865  0.6468E-10  0.1475E-06  0.4550E-10  0.1744E-03  0.1230E-56 -0.2706E+13
   -2.131238    4.13979  0.6468E-10  0.1495E-06  0.4709E-10  0.1730E-03  0.8478E-57 -0.2807E+13
   -2.199988    4.14096  0.6468E-10  0.1509E-06  0.4900E-10  0.1697E-03  0.5729E-57 -0.2942E+13
   -2.268736    4.14218  0.6468E-10  0.1517E-06  0.5136E-10  0.1643E-03  0.3790E-57 -0.3125E+13
   -2.337484    4.14347  0.6468E-10  0.1517E-06  0.5438E-10  0.1563E-03  0.2429E-57 -0.3388E+13
   -2.406232    4.14485  0.6468E-10  0.1508E-06  0.5846E-10  0.1447E-03  0.1504E-57 -0.3787E+13
   -2.474979    4.14638  0.6468E-10  0.1486E-06  0.6439E-10  0.1289E-03  0.8970E-58 -0.4430E+13
   -2.543726    4.14816  0.6468E-10  0.1434E-06  0.7550E-10  0.9521E-04  0.5076E-58 -0.6319E+13
   -2.612472    4.15067  0.6468E-10  0.1313E-06  0.1019E-09  0.4644E-04  0.2493E-58 -0.1383E+14
   -2.681218    4.15602  0.6468E-10  0.6768E-07  0.2844E-09  0.3064E-05  0.9514E-59 -0.2680E+15
   -2.749962    4.23778  0.6468E-10  0.0000E+00  0.0000E+00  0.0000E+00  0.1262E-58  0.0000E+00
