 1 - depth, m
 2 - temperature, C
 3 - salinity, kg/kg
 4 - turbulent kinetic energy, m**2/s**2
 5 - dissipation rate, m**2/s**3
 6 - kinematic heat conductance, m**2/s
 7 - modulus of horizontal velocity, m/s
 8 - Richardson number, n/d
   -0.000000   -0.00000  0.4205E-09  0.1763E-11  0.4442E-15  0.1000E-09  0.0000E+00  0.1959E+17
   -0.068746    0.30642  0.1074E-09  0.4585E-11  0.4998E-15  0.1000E-09  0.0000E+00  0.1767E+17
   -0.137492    0.60825  0.8127E-10  0.1065E-10  0.8802E-15  0.1000E-09  0.0000E+00  0.1576E+17
   -0.206239    0.90382  0.7236E-10  0.2246E-10  0.1701E-14  0.1000E-09  0.0000E+00  0.1398E+17
   -0.274986    1.19337  0.6964E-10  0.4540E-10  0.3308E-14  0.1000E-09  0.0000E+00  0.1230E+17
   -0.343734    1.47723  0.6896E-10  0.8976E-10  0.6373E-14  0.1000E-09  0.0000E+00  0.1075E+17
   -0.412483    1.75597  0.6882E-10  0.1753E-09  0.1217E-13  0.1000E-09  0.0000E+00  0.9288E+16
   -0.481232    2.02982  0.6879E-10  0.3396E-09  0.2307E-13  0.1000E-09  0.0000E+00  0.7909E+16
   -0.549981    2.29895  0.6877E-10  0.6533E-09  0.4345E-13  0.1000E-09  0.0000E+00  0.6612E+16
   -0.618731    2.56373  0.6873E-10  0.1244E-08  0.8102E-13  0.1000E-09  0.0000E+00  0.5389E+16
   -0.687481    2.82453  0.6861E-10  0.2351E-08  0.1500E-12  0.1807E-09  0.0000E+00  0.4225E+16
   -0.756232    3.08126  0.6826E-10  0.4414E-08  0.2759E-12  0.4486E-09  0.0000E+00  0.3130E+16
   -0.824983    3.33487  0.6751E-10  0.8231E-08  0.5042E-12  0.1237E-08  0.0000E+00  0.2075E+16
   -0.893734    3.58427  0.6654E-10  0.1523E-07  0.9146E-12  0.4358E-08  0.0000E+00  0.1068E+16
   -0.962485    3.82539  0.6605E-10  0.2747E-07  0.1622E-11  0.4194E-07  0.0000E+00  0.1968E+15
   -1.031237    4.01477  0.6599E-10  0.2790E-07  0.1648E-11  0.1778E-03  0.0000E+00 -0.8663E+11
   -1.099989    4.01496  0.6599E-10  0.2810E-07  0.1663E-11  0.1736E-03  0.0000E+00 -0.8985E+11
   -1.168740    4.01516  0.6599E-10  0.2828E-07  0.1680E-11  0.1737E-03  0.0000E+00 -0.9095E+11
   -1.237492    4.01536  0.6599E-10  0.2845E-07  0.1699E-11  0.1738E-03  0.0000E+00 -0.9211E+11
   -1.306245    4.01557  0.6599E-10  0.2860E-07  0.1719E-11  0.1736E-03  0.0000E+00 -0.9347E+11
   -1.374997    4.01577  0.6599E-10  0.2873E-07  0.1741E-11  0.1731E-03  0.0000E+00 -0.9492E+11
   -1.443749    4.01597  0.6599E-10  0.2884E-07  0.1765E-11  0.1721E-03  0.0000E+00 -0.9636E+11
   -1.512501    4.01618  0.6599E-10  0.2893E-07  0.1792E-11  0.1709E-03  0.0000E+00 -0.9804E+11
   -1.581253    4.01639  0.6599E-10  0.2901E-07  0.1821E-11  0.1692E-03  0.0000E+00 -0.9999E+11
   -1.650005    4.01660  0.6599E-10  0.2906E-07  0.1853E-11  0.1672E-03  0.0000E+00 -0.1022E+12
   -1.718757    4.01682  0.6599E-10  0.2910E-07  0.1888E-11  0.1648E-03  0.0000E+00 -0.1048E+12
   -1.787508    4.01703  0.6599E-10  0.2911E-07  0.1926E-11  0.1620E-03  0.0000E+00 -0.1078E+12
   -1.856260    4.01726  0.6599E-10  0.2911E-07  0.1969E-11  0.1588E-03  0.0000E+00 -0.1112E+12
   -1.925011    4.01749  0.6599E-10  0.2908E-07  0.2016E-11  0.1552E-03  0.0000E+00 -0.1151E+12
   -1.993762    4.01772  0.6599E-10  0.2902E-07  0.2068E-11  0.1511E-03  0.0000E+00 -0.1195E+12
   -2.062512    4.01796  0.6599E-10  0.2894E-07  0.2128E-11  0.1465E-03  0.0000E+00 -0.1248E+12
   -2.131262    4.01821  0.6599E-10  0.2882E-07  0.2199E-11  0.1411E-03  0.0000E+00 -0.1316E+12
   -2.200012    4.01848  0.6599E-10  0.2867E-07  0.2287E-11  0.1348E-03  0.0000E+00 -0.1400E+12
   -2.268762    4.01875  0.6599E-10  0.2844E-07  0.2407E-11  0.1272E-03  0.0000E+00 -0.1512E+12
   -2.337511    4.01905  0.6599E-10  0.2808E-07  0.2591E-11  0.1024E-03  0.0000E+00 -0.1922E+12
   -2.406259    4.01942  0.6599E-10  0.2753E-07  0.2874E-11  0.7790E-04  0.0000E+00 -0.2604E+12
   -2.475007    4.01992  0.6599E-10  0.2669E-07  0.3333E-11  0.5801E-04  0.0000E+00 -0.3650E+12
   -2.543755    4.02061  0.6599E-10  0.2526E-07  0.4192E-11  0.3757E-04  0.0000E+00 -0.5968E+12
   -2.612501    4.02170  0.6599E-10  0.2257E-07  0.6141E-11  0.1771E-04  0.0000E+00 -0.1372E+13
   -2.681248    4.02409  0.6599E-10  0.1083E-07  0.1898E-10  0.1011E-05  0.0000E+00 -0.3515E+14
   -2.749993    4.06324  0.6599E-10  0.0000E+00  0.0000E+00  0.0000E+00  0.0000E+00  0.0000E+00
