 1 - depth, m
 2 - temperature, C
 3 - salinity, kg/kg
 4 - turbulent kinetic energy, m**2/s**2
 5 - dissipation rate, m**2/s**3
 6 - kinematic heat conductance, m**2/s
 7 - modulus of horizontal velocity, m/s
 8 - Richardson number, n/d
   -0.000000   -0.00000  0.2000E-09  0.7081E-12  0.1516E-15  0.1000E-09  0.0000E+00  0.1628E+17
   -0.068746    0.25274  0.1297E-09  0.1672E-11  0.1891E-15  0.1000E-09  0.0000E+00  0.1499E+17
   -0.137492    0.50267  0.9088E-10  0.3860E-11  0.3545E-15  0.1000E-09  0.0000E+00  0.1366E+17
   -0.206239    0.74831  0.7483E-10  0.8355E-11  0.7172E-15  0.1000E-09  0.0000E+00  0.1244E+17
   -0.274986    0.99054  0.7013E-10  0.1752E-10  0.1455E-14  0.1000E-09  0.0000E+00  0.1132E+17
   -0.343735    1.23045  0.6904E-10  0.3610E-10  0.2923E-14  0.1000E-09  0.0000E+00  0.1033E+17
   -0.412483    1.47028  0.6883E-10  0.7355E-10  0.5821E-14  0.1000E-09  0.0000E+00  0.9389E+16
   -0.481232    1.71099  0.6879E-10  0.1486E-09  0.1150E-13  0.1000E-09  0.0000E+00  0.8470E+16
   -0.549982    1.95344  0.6878E-10  0.2982E-09  0.2258E-13  0.1000E-09  0.0000E+00  0.7582E+16
   -0.618732    2.19922  0.6878E-10  0.5919E-09  0.4387E-13  0.1000E-09  0.0000E+00  0.6697E+16
   -0.687482    2.44972  0.6878E-10  0.1166E-08  0.8458E-13  0.1000E-09  0.0000E+00  0.5770E+16
   -0.756233    2.70537  0.6875E-10  0.2281E-08  0.1620E-12  0.1711E-09  0.0000E+00  0.4819E+16
   -0.824983    2.96809  0.6867E-10  0.4431E-08  0.3082E-12  0.4154E-09  0.0000E+00  0.3778E+16
   -0.893735    3.23713  0.6838E-10  0.8549E-08  0.5825E-12  0.1119E-08  0.0000E+00  0.2652E+16
   -0.962486    3.51090  0.6751E-10  0.1636E-07  0.1093E-11  0.3813E-08  0.0000E+00  0.1460E+16
   -1.031238    3.78455  0.6612E-10  0.3065E-07  0.2010E-11  0.3279E-07  0.0000E+00  0.3127E+15
   -1.099990    4.01593  0.6584E-10  0.3116E-07  0.2045E-11  0.1786E-03  0.0000E+00 -0.1053E+12
   -1.168742    4.01615  0.6584E-10  0.3140E-07  0.2065E-11  0.1744E-03  0.0000E+00 -0.1097E+12
   -1.237494    4.01639  0.6584E-10  0.3162E-07  0.2088E-11  0.1747E-03  0.0000E+00 -0.1115E+12
   -1.306246    4.01662  0.6584E-10  0.3182E-07  0.2113E-11  0.1754E-03  0.0000E+00 -0.1131E+12
   -1.374998    4.01686  0.6584E-10  0.3200E-07  0.2142E-11  0.1862E-03  0.0000E+00 -0.1083E+12
   -1.443750    4.01709  0.6584E-10  0.3217E-07  0.2173E-11  0.1858E-03  0.0000E+00 -0.1100E+12
   -1.512503    4.01731  0.6584E-10  0.3232E-07  0.2208E-11  0.1734E-03  0.0000E+00 -0.1193E+12
   -1.581255    4.01756  0.6584E-10  0.3243E-07  0.2245E-11  0.1713E-03  0.0000E+00 -0.1224E+12
   -1.650007    4.01781  0.6584E-10  0.3253E-07  0.2285E-11  0.1695E-03  0.0000E+00 -0.1254E+12
   -1.718758    4.01806  0.6584E-10  0.3260E-07  0.2330E-11  0.1672E-03  0.0000E+00 -0.1289E+12
   -1.787510    4.01832  0.6584E-10  0.3264E-07  0.2379E-11  0.1645E-03  0.0000E+00 -0.1328E+12
   -1.856262    4.01858  0.6584E-10  0.3266E-07  0.2433E-11  0.1614E-03  0.0000E+00 -0.1373E+12
   -1.925013    4.01885  0.6584E-10  0.3265E-07  0.2493E-11  0.1579E-03  0.0000E+00 -0.1425E+12
   -1.993764    4.01913  0.6584E-10  0.3261E-07  0.2560E-11  0.1539E-03  0.0000E+00 -0.1485E+12
   -2.062514    4.01942  0.6584E-10  0.3254E-07  0.2636E-11  0.1493E-03  0.0000E+00 -0.1554E+12
   -2.131265    4.01972  0.6584E-10  0.3242E-07  0.2727E-11  0.1438E-03  0.0000E+00 -0.1640E+12
   -2.200015    4.02003  0.6584E-10  0.3226E-07  0.2838E-11  0.1373E-03  0.0000E+00 -0.1748E+12
   -2.268764    4.02036  0.6584E-10  0.3204E-07  0.2978E-11  0.1300E-03  0.0000E+00 -0.1885E+12
   -2.337513    4.02071  0.6584E-10  0.3169E-07  0.3185E-11  0.1146E-03  0.0000E+00 -0.2189E+12
   -2.406262    4.02111  0.6584E-10  0.3111E-07  0.3527E-11  0.8510E-04  0.0000E+00 -0.3041E+12
   -2.475010    4.02167  0.6584E-10  0.3020E-07  0.4085E-11  0.6220E-04  0.0000E+00 -0.4342E+12
   -2.543757    4.02244  0.6584E-10  0.2862E-07  0.5133E-11  0.4027E-04  0.0000E+00 -0.7106E+12
   -2.612504    4.02368  0.6584E-10  0.2564E-07  0.7503E-11  0.1910E-04  0.0000E+00 -0.1627E+13
   -2.681251    4.02636  0.6584E-10  0.1262E-07  0.2306E-10  0.1152E-05  0.0000E+00 -0.4018E+14
   -2.749996    4.06840  0.6584E-10  0.0000E+00  0.0000E+00  0.0000E+00  0.0000E+00  0.0000E+00
