 1 - depth, m
 2 - temperature, C
 3 - salinity, kg/kg
 4 - turbulent kinetic energy, m**2/s**2
 5 - dissipation rate, m**2/s**3
 6 - kinematic heat conductance, m**2/s
 7 - modulus of horizontal velocity, m/s
 8 - Richardson number, n/d
   -0.000000   10.52413  0.6662E-10  0.1234E-04  0.5765E-06  0.2946E-04  0.1889E-01 -0.1135E+00
   -0.068746   10.55409  0.6662E-10  0.1033E-04  0.1904E-06  0.9555E-04  0.1048E-01 -0.3475E-01
   -0.137492   10.56426  0.6662E-10  0.9010E-05  0.9815E-07  0.1702E-03  0.7398E-02  0.1533E+02
   -0.206239   10.57028  0.6662E-10  0.8103E-05  0.6019E-07  0.2416E-03  0.5658E-02  0.1097E+02
   -0.274987   10.57433  0.6662E-10  0.7504E-05  0.4102E-07  0.3218E-03  0.4565E-02  0.1027E+02
   -0.343735   10.57718  0.6662E-10  0.7134E-05  0.3030E-07  0.4140E-03  0.3845E-02  0.1997E+02
   -0.412484   10.57924  0.6662E-10  0.6913E-05  0.2393E-07  0.5749E-03  0.3335E-02  0.1218E+02
   -0.481233   10.58052  0.6662E-10  0.6809E-05  0.2021E-07  0.7907E-03  0.2984E-02  0.1602E+03
   -0.549982   10.58134  0.6662E-10  0.6780E-05  0.1778E-07  0.8972E-03  0.2750E-02  0.2257E+01
   -0.618732   10.58205  0.6662E-10  0.6789E-05  0.1592E-07  0.9857E-03  0.2542E-02  0.2444E+01
   -0.687483   10.58268  0.6662E-10  0.6822E-05  0.1445E-07  0.1079E-02  0.2346E-02  0.2614E+01
   -0.756234   10.58326  0.6662E-10  0.6871E-05  0.1327E-07  0.1167E-02  0.2162E-02  0.2754E+01
   -0.824985   10.58379  0.6662E-10  0.6927E-05  0.1231E-07  0.1235E-02  0.1989E-02  0.2862E+01
   -0.893736   10.58430  0.6662E-10  0.6986E-05  0.1153E-07  0.1291E-02  0.1826E-02  0.2953E+01
   -0.962487   10.58479  0.6662E-10  0.7043E-05  0.1088E-07  0.1342E-02  0.1670E-02  0.3044E+01
   -1.031239   10.58526  0.6662E-10  0.7095E-05  0.1033E-07  0.1391E-02  0.1521E-02  0.3062E+01
   -1.099991   10.58571  0.6662E-10  0.7138E-05  0.9874E-08  0.1450E-02  0.1380E-02  0.2853E+01
   -1.168743   10.58616  0.6662E-10  0.7172E-05  0.9496E-08  0.1507E-02  0.1252E-02  0.2693E+01
   -1.237495   10.58658  0.6662E-10  0.7196E-05  0.9190E-08  0.1560E-02  0.1135E-02  0.2568E+01
   -1.306248   10.58700  0.6662E-10  0.7211E-05  0.8945E-08  0.1610E-02  0.1028E-02  0.2471E+01
   -1.375000   10.58740  0.6662E-10  0.7215E-05  0.8757E-08  0.1655E-02  0.9308E-03  0.2399E+01
   -1.443752   10.58780  0.6662E-10  0.7211E-05  0.8619E-08  0.1697E-02  0.8425E-03  0.2348E+01
   -1.512504   10.58819  0.6662E-10  0.7196E-05  0.8529E-08  0.1733E-02  0.7621E-03  0.2319E+01
   -1.581257   10.58857  0.6662E-10  0.7173E-05  0.8483E-08  0.1766E-02  0.6890E-03  0.2311E+01
   -1.650009   10.58896  0.6662E-10  0.7142E-05  0.8479E-08  0.1793E-02  0.6225E-03  0.2324E+01
   -1.718761   10.58934  0.6662E-10  0.7103E-05  0.8513E-08  0.1799E-02  0.5619E-03  0.2358E+01
   -1.787512   10.58972  0.6662E-10  0.7056E-05  0.8586E-08  0.1780E-02  0.5067E-03  0.2414E+01
   -1.856264   10.59012  0.6662E-10  0.7003E-05  0.8696E-08  0.1733E-02  0.4561E-03  0.2496E+01
   -1.925015   10.59053  0.6662E-10  0.6944E-05  0.8844E-08  0.1677E-02  0.4096E-03  0.2609E+01
   -1.993766   10.59097  0.6662E-10  0.6879E-05  0.9031E-08  0.1610E-02  0.3665E-03  0.2816E+01
   -2.062517   10.59142  0.6662E-10  0.6810E-05  0.9258E-08  0.1538E-02  0.3267E-03  0.3064E+01
   -2.131268   10.59190  0.6662E-10  0.6735E-05  0.9539E-08  0.1460E-02  0.2921E-03  0.3558E+01
   -2.200018   10.59242  0.6662E-10  0.6653E-05  0.9887E-08  0.1383E-02  0.2629E-03  0.4548E+01
   -2.268767   10.59296  0.6662E-10  0.6556E-05  0.1034E-07  0.1296E-02  0.2378E-03  0.6386E+01
   -2.337516   10.59355  0.6662E-10  0.6437E-05  0.1097E-07  0.1185E-02  0.2144E-03  0.9779E+01
   -2.406265   10.59420  0.6662E-10  0.6283E-05  0.1189E-07  0.1051E-02  0.1922E-03  0.1700E+02
   -2.475013   10.59494  0.6662E-10  0.6076E-05  0.1330E-07  0.8928E-03  0.1712E-03  0.3557E+02
   -2.543761   10.59582  0.6662E-10  0.5776E-05  0.1578E-07  0.6862E-03  0.1522E-03  0.1065E+03
   -2.612508   10.59697  0.6662E-10  0.5332E-05  0.2047E-07  0.5202E-03  0.1351E-03  0.5172E+03
   -2.681254   10.59851  0.6662E-10  0.2654E-05  0.6312E-07  0.1759E-04  0.1218E-03 -0.8725E+05
   -2.750000   10.64425  0.6662E-10  0.0000E+00  0.0000E+00  0.0000E+00  0.1215E-03  0.0000E+00
