 1 - depth, m
 2 - temperature, C
 3 - salinity, kg/kg
 4 - turbulent kinetic energy, m**2/s**2
 5 - dissipation rate, m**2/s**3
 6 - kinematic heat conductance, m**2/s
 7 - modulus of horizontal velocity, m/s
 8 - Richardson number, n/d
   -0.000000   -0.00000  0.3238E-09  0.1219E-13  0.7603E-17  0.1000E-09  0.0000E+00  0.1041E+17
   -0.068746    0.15950  0.1359E-09  0.1219E-13  0.7603E-17  0.1000E-09  0.0000E+00  0.9425E+16
   -0.137492    0.31034  0.9203E-10  0.1219E-13  0.7603E-17  0.1000E-09  0.0000E+00  0.8283E+16
   -0.206239    0.44857  0.8619E-10  0.1219E-13  0.7603E-17  0.1000E-09  0.0000E+00  0.7165E+16
   -0.274987    0.57292  0.8560E-10  0.1219E-13  0.7603E-17  0.1000E-09  0.0000E+00  0.6106E+16
   -0.343735    0.68281  0.8554E-10  0.1219E-13  0.7603E-17  0.1000E-09  0.0000E+00  0.5237E+16
   -0.412483    0.78023  0.8553E-10  0.1219E-13  0.7603E-17  0.1000E-09  0.0000E+00  0.4430E+16
   -0.481232    0.86515  0.8553E-10  0.1219E-13  0.7603E-17  0.1000E-09  0.0000E+00  0.3697E+16
   -0.549982    0.93793  0.8553E-10  0.1219E-13  0.7603E-17  0.1000E-09  0.0000E+00  0.3145E+16
   -0.618732    1.00129  0.8553E-10  0.1219E-13  0.7603E-17  0.1000E-09  0.0000E+00  0.2778E+16
   -0.687482    1.05847  0.8553E-10  0.1219E-13  0.7603E-17  0.1000E-09  0.0000E+00  0.2510E+16
   -0.756233    1.11116  0.8553E-10  0.1219E-13  0.7603E-17  0.1000E-09  0.0000E+00  0.2430E+16
   -0.824984    1.16315  0.8553E-10  0.1219E-13  0.7603E-17  0.1000E-09  0.0000E+00  0.2435E+16
   -0.893735    1.21628  0.8553E-10  0.1219E-13  0.7603E-17  0.1000E-09  0.0000E+00  0.2519E+16
   -0.962487    1.27239  0.8553E-10  0.1219E-13  0.7603E-17  0.1000E-09  0.0000E+00  0.2674E+16
   -1.031238    1.33331  0.8551E-10  0.1219E-13  0.7603E-17  0.1000E-09  0.0000E+00  0.2867E+16
   -1.099990    1.40028  0.8546E-10  0.1219E-13  0.7603E-17  0.1000E-09  0.0000E+00  0.3041E+16
   -1.168742    1.47335  0.8536E-10  0.1219E-13  0.7603E-17  0.1000E-09  0.0000E+00  0.3243E+16
   -1.237494    1.55379  0.8513E-10  0.1219E-13  0.7603E-17  0.1000E-09  0.0000E+00  0.3453E+16
   -1.306246    1.64260  0.8474E-10  0.1219E-13  0.7603E-17  0.1000E-09  0.0000E+00  0.3649E+16
   -1.374999    1.74043  0.8423E-10  0.1219E-13  0.7603E-17  0.1000E-09  0.0000E+00  0.3850E+16
   -1.443751    1.84869  0.8374E-10  0.1219E-13  0.7603E-17  0.1000E-09  0.0000E+00  0.4053E+16
   -1.512503    1.96914  0.8335E-10  0.1219E-13  0.7603E-17  0.1000E-09  0.0000E+00  0.4164E+16
   -1.581255    2.10116  0.8297E-10  0.1219E-13  0.7603E-17  0.1000E-09  0.0000E+00  0.4168E+16
   -1.650007    2.24363  0.8248E-10  0.1219E-13  0.7603E-17  0.1000E-09  0.0000E+00  0.4059E+16
   -1.718759    2.39499  0.8195E-10  0.2268E-13  0.8641E-17  0.1000E-09  0.0000E+00  0.3841E+16
   -1.787511    2.55326  0.8156E-10  0.8863E-13  0.2938E-16  0.1000E-09  0.0000E+00  0.3524E+16
   -1.856262    2.71616  0.8138E-10  0.3436E-12  0.1086E-15  0.1000E-09  0.0000E+00  0.3130E+16
   -1.925013    2.88124  0.8133E-10  0.1298E-11  0.3945E-15  0.1000E-09  0.0000E+00  0.2683E+16
   -1.993764    3.04598  0.8124E-10  0.4793E-11  0.1402E-14  0.1000E-09  0.0000E+00  0.2211E+16
   -2.062515    3.20800  0.8121E-10  0.1747E-10  0.4919E-14  0.1000E-09  0.0000E+00  0.1796E+16
   -2.131265    3.37069  0.8121E-10  0.6389E-10  0.1733E-13  0.1000E-09  0.0000E+00  0.1392E+16
   -2.200015    3.53603  0.8121E-10  0.2304E-09  0.6025E-13  0.3152E-09  0.0000E+00  0.9704E+15
   -2.268765    3.70420  0.8121E-10  0.8191E-09  0.2066E-12  0.1984E-08  0.0000E+00  0.5282E+15
   -2.337514    3.87511  0.8121E-10  0.2813E-08  0.6873E-12  0.3854E-07  0.0000E+00  0.8934E+14
   -2.406263    4.01791  0.8121E-10  0.5529E-08  0.1367E-11  0.8376E-05  0.0000E+00 -0.1744E+13
   -2.475011    4.02126  0.8121E-10  0.6607E-08  0.1837E-11  0.8629E-05  0.0000E+00 -0.2171E+13
   -2.543758    4.02502  0.8121E-10  0.7295E-08  0.2571E-11  0.7225E-05  0.0000E+00 -0.3422E+13
   -2.612505    4.03031  0.8121E-10  0.7278E-08  0.4073E-11  0.4149E-05  0.0000E+00 -0.8212E+13
   -2.681252    4.04095  0.8121E-10  0.5262E-08  0.1058E-10  0.6937E-06  0.0000E+00 -0.9323E+14
   -2.749997    4.10839  0.8121E-10  0.0000E+00  0.0000E+00  0.0000E+00  0.0000E+00  0.0000E+00
