 1 - depth, m
 2 - temperature, C
 3 - salinity, kg/kg
 4 - turbulent kinetic energy, m**2/s**2
 5 - dissipation rate, m**2/s**3
 6 - kinematic heat conductance, m**2/s
 7 - modulus of horizontal velocity, m/s
 8 - Richardson number, n/d
   -0.000000   -0.00000  0.2468E-09  0.1219E-13  0.7603E-17  0.1000E-09  0.0000E+00  0.1393E+17
   -0.068746    0.21518  0.1033E-09  0.1219E-13  0.7603E-17  0.1000E-09  0.0000E+00  0.1230E+17
   -0.137492    0.41661  0.7285E-10  0.1219E-13  0.7603E-17  0.1000E-09  0.0000E+00  0.1049E+17
   -0.206239    0.59848  0.6927E-10  0.1219E-13  0.7603E-17  0.1000E-09  0.0000E+00  0.8814E+16
   -0.274986    0.75970  0.6887E-10  0.1219E-13  0.7603E-17  0.1000E-09  0.0000E+00  0.7322E+16
   -0.343734    0.90040  0.6880E-10  0.2082E-13  0.7603E-17  0.1000E-09  0.0000E+00  0.6219E+16
   -0.412483    1.02543  0.6879E-10  0.6875E-13  0.1236E-16  0.1000E-09  0.0000E+00  0.5269E+16
   -0.481232    1.13586  0.6878E-10  0.1994E-12  0.2977E-16  0.1000E-09  0.0000E+00  0.4477E+16
   -0.549982    1.23336  0.6878E-10  0.5312E-12  0.7527E-16  0.1000E-09  0.0000E+00  0.4004E+16
   -0.618732    1.32373  0.6878E-10  0.1365E-11  0.1872E-15  0.1000E-09  0.0000E+00  0.3841E+16
   -0.687482    1.41353  0.6878E-10  0.3442E-11  0.4587E-15  0.1000E-09  0.0000E+00  0.3832E+16
   -0.756232    1.50651  0.6878E-10  0.8562E-11  0.1109E-14  0.1000E-09  0.0000E+00  0.4104E+16
   -0.824983    1.61029  0.6878E-10  0.2101E-10  0.2646E-14  0.1000E-09  0.0000E+00  0.4459E+16
   -0.893735    1.72868  0.6874E-10  0.5089E-10  0.6230E-14  0.1000E-09  0.0000E+00  0.4858E+16
   -0.962486    1.86546  0.6857E-10  0.1216E-09  0.1447E-13  0.1000E-09  0.0000E+00  0.5249E+16
   -1.031238    2.02433  0.6809E-10  0.2866E-09  0.3315E-13  0.1000E-09  0.0000E+00  0.5552E+16
   -1.099990    2.20830  0.6731E-10  0.6684E-09  0.7512E-13  0.1000E-09  0.0000E+00  0.5680E+16
   -1.168742    2.41942  0.6673E-10  0.1538E-08  0.1679E-12  0.1521E-09  0.0000E+00  0.5621E+16
   -1.237494    2.66205  0.6647E-10  0.3491E-08  0.3700E-12  0.3561E-09  0.0000E+00  0.5288E+16
   -1.306246    2.94188  0.6636E-10  0.7809E-08  0.8032E-12  0.8989E-09  0.0000E+00  0.4545E+16
   -1.374998    3.26631  0.6627E-10  0.1721E-07  0.1719E-11  0.2775E-08  0.0000E+00  0.3158E+16
   -1.443750    3.64087  0.6587E-10  0.3708E-07  0.3601E-11  0.2005E-07  0.0000E+00  0.9384E+15
   -1.512502    4.02107  0.6524E-10  0.3803E-07  0.3697E-11  0.1501E-03  0.0000E+00 -0.2237E+12
   -1.581254    4.02148  0.6524E-10  0.3846E-07  0.3753E-11  0.1472E-03  0.0000E+00 -0.2331E+12
   -1.650006    4.02190  0.6524E-10  0.3885E-07  0.3815E-11  0.1475E-03  0.0000E+00 -0.2381E+12
   -1.718758    4.02233  0.6524E-10  0.3919E-07  0.3885E-11  0.1474E-03  0.0000E+00 -0.2440E+12
   -1.787510    4.02276  0.6524E-10  0.3948E-07  0.3963E-11  0.1468E-03  0.0000E+00 -0.2510E+12
   -1.856261    4.02319  0.6524E-10  0.3972E-07  0.4050E-11  0.1456E-03  0.0000E+00 -0.2595E+12
   -1.925013    4.02364  0.6524E-10  0.3991E-07  0.4146E-11  0.1438E-03  0.0000E+00 -0.2695E+12
   -1.993764    4.02410  0.6524E-10  0.4003E-07  0.4253E-11  0.1414E-03  0.0000E+00 -0.2812E+12
   -2.062514    4.02457  0.6524E-10  0.4009E-07  0.4373E-11  0.1382E-03  0.0000E+00 -0.2937E+12
   -2.131265    4.02506  0.6524E-10  0.4008E-07  0.4518E-11  0.1341E-03  0.0000E+00 -0.3087E+12
   -2.200014    4.02556  0.6524E-10  0.4000E-07  0.4695E-11  0.1289E-03  0.0000E+00 -0.3279E+12
   -2.268764    4.02609  0.6524E-10  0.3982E-07  0.4918E-11  0.1226E-03  0.0000E+00 -0.3530E+12
   -2.337513    4.02666  0.6524E-10  0.3948E-07  0.5234E-11  0.1135E-03  0.0000E+00 -0.3916E+12
   -2.406262    4.02727  0.6524E-10  0.3887E-07  0.5741E-11  0.8863E-04  0.0000E+00 -0.5187E+12
   -2.475010    4.02807  0.6524E-10  0.3782E-07  0.6582E-11  0.6481E-04  0.0000E+00 -0.7433E+12
   -2.543757    4.02919  0.6524E-10  0.3592E-07  0.8154E-11  0.4271E-04  0.0000E+00 -0.1202E+13
   -2.612504    4.03095  0.6524E-10  0.3227E-07  0.1168E-10  0.2087E-04  0.0000E+00 -0.2693E+13
   -2.681250    4.03465  0.6524E-10  0.1681E-07  0.3403E-10  0.1490E-05  0.0000E+00 -0.5762E+14
   -2.749996    4.08480  0.6524E-10  0.0000E+00  0.0000E+00  0.0000E+00  0.0000E+00  0.0000E+00
