 1 - depth, m
 2 - temperature, C
 3 - salinity, kg/kg
 4 - turbulent kinetic energy, m**2/s**2
 5 - dissipation rate, m**2/s**3
 6 - kinematic heat conductance, m**2/s
 7 - modulus of horizontal velocity, m/s
 8 - Richardson number, n/d
   -0.000000   -0.00000  0.3616E-09  0.1781E-11  0.4484E-15  0.1000E-09  0.0000E+00  0.1924E+17
   -0.068746    0.30076  0.1137E-09  0.4629E-11  0.5003E-15  0.1000E-09  0.0000E+00  0.1737E+17
   -0.137492    0.59658  0.8379E-10  0.1072E-10  0.8744E-15  0.1000E-09  0.0000E+00  0.1552E+17
   -0.206239    0.88622  0.7313E-10  0.2252E-10  0.1681E-14  0.1000E-09  0.0000E+00  0.1381E+17
   -0.274986    1.17028  0.6983E-10  0.4530E-10  0.3251E-14  0.1000E-09  0.0000E+00  0.1222E+17
   -0.343734    1.44934  0.6900E-10  0.8913E-10  0.6234E-14  0.1000E-09  0.0000E+00  0.1074E+17
   -0.412482    1.72426  0.6882E-10  0.1732E-09  0.1185E-13  0.1000E-09  0.0000E+00  0.9347E+16
   -0.481231    1.99542  0.6879E-10  0.3340E-09  0.2236E-13  0.1000E-09  0.0000E+00  0.8021E+16
   -0.549981    2.26307  0.6878E-10  0.6395E-09  0.4193E-13  0.1000E-09  0.0000E+00  0.6764E+16
   -0.618730    2.52766  0.6876E-10  0.1212E-08  0.7788E-13  0.1000E-09  0.0000E+00  0.5564E+16
   -0.687481    2.78956  0.6869E-10  0.2282E-08  0.1436E-12  0.1659E-09  0.0000E+00  0.4406E+16
   -0.756231    3.04865  0.6846E-10  0.4267E-08  0.2632E-12  0.4058E-09  0.0000E+00  0.3302E+16
   -0.824982    3.30583  0.6786E-10  0.7927E-08  0.4794E-12  0.1098E-08  0.0000E+00  0.2223E+16
   -0.893733    3.55993  0.6682E-10  0.1462E-07  0.8669E-12  0.3744E-08  0.0000E+00  0.1179E+16
   -0.962484    3.80723  0.6607E-10  0.2641E-07  0.1539E-11  0.3182E-07  0.0000E+00  0.2463E+15
   -1.031236    4.01238  0.6598E-10  0.2683E-07  0.1565E-11  0.1736E-03  0.0000E+00 -0.8317E+11
   -1.099988    4.01258  0.6598E-10  0.2702E-07  0.1579E-11  0.1696E-03  0.0000E+00 -0.8637E+11
   -1.168740    4.01279  0.6598E-10  0.2720E-07  0.1596E-11  0.1698E-03  0.0000E+00 -0.8760E+11
   -1.237492    4.01300  0.6598E-10  0.2737E-07  0.1614E-11  0.1699E-03  0.0000E+00 -0.8890E+11
   -1.306244    4.01322  0.6598E-10  0.2752E-07  0.1633E-11  0.1697E-03  0.0000E+00 -0.9040E+11
   -1.374996    4.01343  0.6598E-10  0.2765E-07  0.1655E-11  0.1691E-03  0.0000E+00 -0.9198E+11
   -1.443748    4.01364  0.6598E-10  0.2776E-07  0.1679E-11  0.1683E-03  0.0000E+00 -0.9353E+11
   -1.512500    4.01386  0.6598E-10  0.2786E-07  0.1705E-11  0.1670E-03  0.0000E+00 -0.9532E+11
   -1.581252    4.01408  0.6598E-10  0.2794E-07  0.1733E-11  0.1654E-03  0.0000E+00 -0.9738E+11
   -1.650004    4.01431  0.6598E-10  0.2800E-07  0.1764E-11  0.1634E-03  0.0000E+00 -0.9973E+11
   -1.718755    4.01453  0.6598E-10  0.2804E-07  0.1798E-11  0.1611E-03  0.0000E+00 -0.1024E+12
   -1.787507    4.01476  0.6598E-10  0.2806E-07  0.1836E-11  0.1584E-03  0.0000E+00 -0.1055E+12
   -1.856258    4.01500  0.6598E-10  0.2806E-07  0.1877E-11  0.1552E-03  0.0000E+00 -0.1090E+12
   -1.925009    4.01524  0.6598E-10  0.2804E-07  0.1923E-11  0.1517E-03  0.0000E+00 -0.1130E+12
   -1.993760    4.01549  0.6598E-10  0.2799E-07  0.1974E-11  0.1477E-03  0.0000E+00 -0.1176E+12
   -2.062511    4.01574  0.6598E-10  0.2792E-07  0.2032E-11  0.1432E-03  0.0000E+00 -0.1231E+12
   -2.131261    4.01601  0.6598E-10  0.2781E-07  0.2101E-11  0.1379E-03  0.0000E+00 -0.1299E+12
   -2.200011    4.01629  0.6598E-10  0.2767E-07  0.2186E-11  0.1317E-03  0.0000E+00 -0.1385E+12
   -2.268760    4.01658  0.6598E-10  0.2745E-07  0.2303E-11  0.1242E-03  0.0000E+00 -0.1499E+12
   -2.337509    4.01690  0.6598E-10  0.2711E-07  0.2483E-11  0.9962E-04  0.0000E+00 -0.1915E+12
   -2.406258    4.01729  0.6598E-10  0.2658E-07  0.2758E-11  0.7610E-04  0.0000E+00 -0.2589E+12
   -2.475005    4.01782  0.6598E-10  0.2577E-07  0.3202E-11  0.5673E-04  0.0000E+00 -0.3634E+12
   -2.543753    4.01855  0.6598E-10  0.2439E-07  0.4033E-11  0.3671E-04  0.0000E+00 -0.5966E+12
   -2.612500    4.01971  0.6598E-10  0.2178E-07  0.5922E-11  0.1725E-04  0.0000E+00 -0.1384E+13
   -2.681246    4.02226  0.6598E-10  0.1047E-07  0.1831E-10  0.9947E-06  0.0000E+00 -0.3640E+14
   -2.749991    4.06340  0.6598E-10  0.0000E+00  0.0000E+00  0.0000E+00  0.0000E+00  0.0000E+00
