 1 - depth, m
 2 - temperature, C
 3 - salinity, kg/kg
 4 - turbulent kinetic energy, m**2/s**2
 5 - dissipation rate, m**2/s**3
 6 - kinematic heat conductance, m**2/s
 7 - modulus of horizontal velocity, m/s
 8 - Richardson number, n/d
   -0.000000    7.93486  0.6637E-10  0.1871E-03  0.8021E-04  0.1153E-03  0.1366E+00  0.1502E-01
   -0.068746    8.01008  0.6637E-10  0.1002E-03  0.1970E-04  0.1709E-03  0.4729E-01 -0.7923E-02
   -0.137493    8.02303  0.6637E-10  0.7069E-04  0.7717E-05  0.1644E-03  0.3618E-01 -0.1286E-01
   -0.206240    8.03290  0.6637E-10  0.5266E-04  0.3346E-05  0.1702E-03  0.2976E-01 -0.1940E-01
   -0.274988    8.04088  0.6638E-10  0.4111E-04  0.1612E-05  0.1864E-03  0.2508E-01 -0.2813E-01
   -0.343737    8.04767  0.6638E-10  0.3371E-04  0.8649E-06  0.2059E-03  0.2152E-01 -0.3426E-01
   -0.412486    8.05352  0.6638E-10  0.2864E-04  0.5102E-06  0.2314E-03  0.1860E-01 -0.4428E-01
   -0.481235    8.05852  0.6638E-10  0.2509E-04  0.3273E-06  0.2630E-03  0.1626E-01 -0.5919E-01
   -0.549985    8.06279  0.6638E-10  0.2264E-04  0.2263E-06  0.2971E-03  0.1439E-01 -0.7357E-01
   -0.618735    8.06648  0.6638E-10  0.2090E-04  0.1669E-06  0.3324E-03  0.1285E-01 -0.8316E-01
   -0.687486    8.06970  0.6638E-10  0.1958E-04  0.1292E-06  0.3722E-03  0.1152E-01 -0.7270E-01
   -0.756237    8.07253  0.6638E-10  0.1851E-04  0.1038E-06  0.4137E-03  0.1036E-01 -0.5552E-01
   -0.824989    8.07503  0.6638E-10  0.1760E-04  0.8578E-07  0.4614E-03  0.9357E-02  0.3672E+00
   -0.893740    8.07725  0.6638E-10  0.1680E-04  0.7244E-07  0.5329E-03  0.8470E-02  0.6442E+01
   -0.962492    8.07920  0.6638E-10  0.1608E-04  0.6220E-07  0.6301E-03  0.7683E-02  0.1009E+03
   -1.031244    8.08088  0.6638E-10  0.1542E-04  0.5410E-07  0.7929E-03  0.6977E-02  0.7600E+02
   -1.099997    8.08227  0.6638E-10  0.1480E-04  0.4756E-07  0.9719E-03  0.6349E-02  0.6918E+02
   -1.168749    8.08340  0.6638E-10  0.1424E-04  0.4225E-07  0.1167E-02  0.5800E-02  0.8032E+02
   -1.237502    8.08429  0.6638E-10  0.1372E-04  0.3786E-07  0.1324E-02  0.5314E-02  0.4721E+03
   -1.306254    8.08502  0.6638E-10  0.1324E-04  0.3416E-07  0.1414E-02  0.4872E-02  0.6941E+02
   -1.375007    8.08568  0.6638E-10  0.1278E-04  0.3099E-07  0.1463E-02  0.4462E-02  0.1161E+02
   -1.443759    8.08629  0.6638E-10  0.1235E-04  0.2823E-07  0.1481E-02  0.4080E-02  0.6352E+01
   -1.512512    8.08688  0.6638E-10  0.1193E-04  0.2583E-07  0.1487E-02  0.3720E-02  0.5364E+01
   -1.581265    8.08746  0.6638E-10  0.1152E-04  0.2373E-07  0.1490E-02  0.3382E-02  0.4884E+01
   -1.650017    8.08804  0.6638E-10  0.1113E-04  0.2190E-07  0.1490E-02  0.3063E-02  0.4523E+01
   -1.718769    8.08860  0.6638E-10  0.1075E-04  0.2031E-07  0.1486E-02  0.2761E-02  0.4245E+01
   -1.787521    8.08916  0.6638E-10  0.1037E-04  0.1894E-07  0.1479E-02  0.2474E-02  0.4027E+01
   -1.856273    8.08972  0.6638E-10  0.1000E-04  0.1777E-07  0.1466E-02  0.2201E-02  0.3860E+01
   -1.925025    8.09027  0.6638E-10  0.9639E-05  0.1678E-07  0.1448E-02  0.1939E-02  0.3739E+01
   -1.993776    8.09083  0.6638E-10  0.9275E-05  0.1597E-07  0.1424E-02  0.1687E-02  0.3652E+01
   -2.062527    8.09138  0.6638E-10  0.8912E-05  0.1533E-07  0.1428E-02  0.1442E-02  0.2712E+01
   -2.131278    8.09193  0.6638E-10  0.8541E-05  0.1486E-07  0.1442E-02  0.1223E-02  0.1931E+01
   -2.200028    8.09247  0.6638E-10  0.8174E-05  0.1459E-07  0.1432E-02  0.1033E-02  0.1426E+01
   -2.268778    8.09301  0.6638E-10  0.7821E-05  0.1456E-07  0.1326E-02  0.8731E-03  0.1055E+01
   -2.337528    8.09358  0.6638E-10  0.7493E-05  0.1478E-07  0.1192E-02  0.7423E-03  0.7807E+00
   -2.406277    8.09422  0.6638E-10  0.7198E-05  0.1527E-07  0.1075E-02  0.6399E-03  0.6215E+00
   -2.475025    8.09492  0.6638E-10  0.6907E-05  0.1613E-07  0.9614E-03  0.5657E-03  0.8580E+00
   -2.543773    8.09570  0.6638E-10  0.6560E-05  0.1779E-07  0.8533E-03  0.5064E-03  0.2101E+01
   -2.612521    8.09657  0.6638E-10  0.6010E-05  0.2188E-07  0.4903E-03  0.4595E-03  0.3383E+02
   -2.681267    8.09807  0.6638E-10  0.2757E-05  0.6435E-07  0.1637E-04  0.4026E-03 -0.6611E+04
   -2.750014    8.14204  0.6638E-10  0.0000E+00  0.0000E+00  0.0000E+00  0.4000E-03  0.0000E+00
