 1 - depth, m
 2 - temperature, C
 3 - salinity, kg/kg
 4 - turbulent kinetic energy, m**2/s**2
 5 - dissipation rate, m**2/s**3
 6 - kinematic heat conductance, m**2/s
 7 - modulus of horizontal velocity, m/s
 8 - Richardson number, n/d
   -0.000000   -0.00000  0.4327E-09  0.1896E-11  0.4805E-15  0.1000E-09  0.0000E+00  0.1932E+17
   -0.068746    0.30207  0.1224E-09  0.4953E-11  0.5251E-15  0.1000E-09  0.0000E+00  0.1754E+17
   -0.137492    0.60113  0.8111E-10  0.1143E-10  0.9017E-15  0.1000E-09  0.0000E+00  0.1573E+17
   -0.206239    0.89542  0.7219E-10  0.2380E-10  0.1710E-14  0.1000E-09  0.0000E+00  0.1401E+17
   -0.274986    1.18483  0.6963E-10  0.4739E-10  0.3269E-14  0.1000E-09  0.0000E+00  0.1237E+17
   -0.343734    1.46927  0.6897E-10  0.9221E-10  0.6193E-14  0.1000E-09  0.0000E+00  0.1082E+17
   -0.412483    1.74889  0.6882E-10  0.1771E-09  0.1163E-13  0.1000E-09  0.0000E+00  0.9347E+16
   -0.481232    2.02357  0.6878E-10  0.3374E-09  0.2168E-13  0.1000E-09  0.0000E+00  0.7950E+16
   -0.549981    2.29320  0.6875E-10  0.6382E-09  0.4015E-13  0.1000E-09  0.0000E+00  0.6637E+16
   -0.618731    2.55795  0.6868E-10  0.1195E-08  0.7363E-13  0.1000E-09  0.0000E+00  0.5401E+16
   -0.687481    2.81805  0.6847E-10  0.2221E-08  0.1341E-12  0.1612E-09  0.0000E+00  0.4232E+16
   -0.756232    3.07341  0.6798E-10  0.4101E-08  0.2425E-12  0.3930E-09  0.0000E+00  0.3141E+16
   -0.824983    3.32496  0.6716E-10  0.7522E-08  0.4360E-12  0.1058E-08  0.0000E+00  0.2098E+16
   -0.893734    3.57186  0.6638E-10  0.1369E-07  0.7781E-12  0.3569E-08  0.0000E+00  0.1110E+16
   -0.962485    3.81089  0.6605E-10  0.2445E-07  0.1365E-11  0.2934E-07  0.0000E+00  0.2368E+15
   -1.031237    4.01075  0.6601E-10  0.2484E-07  0.1387E-11  0.1686E-03  0.0000E+00 -0.7709E+11
   -1.099989    4.01095  0.6601E-10  0.2502E-07  0.1400E-11  0.1646E-03  0.0000E+00 -0.7986E+11
   -1.168741    4.01116  0.6601E-10  0.2518E-07  0.1414E-11  0.1648E-03  0.0000E+00 -0.8077E+11
   -1.237493    4.01136  0.6601E-10  0.2533E-07  0.1430E-11  0.1649E-03  0.0000E+00 -0.8172E+11
   -1.306245    4.01157  0.6601E-10  0.2546E-07  0.1447E-11  0.1647E-03  0.0000E+00 -0.8285E+11
   -1.374997    4.01178  0.6601E-10  0.2558E-07  0.1466E-11  0.1642E-03  0.0000E+00 -0.8408E+11
   -1.443749    4.01199  0.6601E-10  0.2568E-07  0.1486E-11  0.1633E-03  0.0000E+00 -0.8535E+11
   -1.512501    4.01220  0.6601E-10  0.2577E-07  0.1508E-11  0.1621E-03  0.0000E+00 -0.8682E+11
   -1.581253    4.01241  0.6601E-10  0.2584E-07  0.1533E-11  0.1606E-03  0.0000E+00 -0.8853E+11
   -1.650005    4.01263  0.6601E-10  0.2589E-07  0.1559E-11  0.1586E-03  0.0000E+00 -0.9050E+11
   -1.718757    4.01285  0.6601E-10  0.2592E-07  0.1589E-11  0.1564E-03  0.0000E+00 -0.9276E+11
   -1.787509    4.01307  0.6601E-10  0.2593E-07  0.1621E-11  0.1537E-03  0.0000E+00 -0.9535E+11
   -1.856260    4.01330  0.6601E-10  0.2592E-07  0.1656E-11  0.1507E-03  0.0000E+00 -0.9833E+11
   -1.925011    4.01353  0.6601E-10  0.2590E-07  0.1696E-11  0.1472E-03  0.0000E+00 -0.1017E+12
   -1.993762    4.01376  0.6601E-10  0.2585E-07  0.1740E-11  0.1434E-03  0.0000E+00 -0.1056E+12
   -2.062513    4.01401  0.6601E-10  0.2578E-07  0.1789E-11  0.1390E-03  0.0000E+00 -0.1104E+12
   -2.131263    4.01426  0.6601E-10  0.2567E-07  0.1849E-11  0.1338E-03  0.0000E+00 -0.1164E+12
   -2.200013    4.01453  0.6601E-10  0.2553E-07  0.1923E-11  0.1279E-03  0.0000E+00 -0.1238E+12
   -2.268762    4.01481  0.6601E-10  0.2532E-07  0.2029E-11  0.1175E-03  0.0000E+00 -0.1375E+12
   -2.337511    4.01511  0.6601E-10  0.2498E-07  0.2192E-11  0.9196E-04  0.0000E+00 -0.1799E+12
   -2.406260    4.01551  0.6601E-10  0.2448E-07  0.2435E-11  0.7156E-04  0.0000E+00 -0.2388E+12
   -2.475008    4.01603  0.6601E-10  0.2371E-07  0.2827E-11  0.5378E-04  0.0000E+00 -0.3324E+12
   -2.543755    4.01673  0.6601E-10  0.2242E-07  0.3561E-11  0.3479E-04  0.0000E+00 -0.5458E+12
   -2.612502    4.01786  0.6601E-10  0.1998E-07  0.5234E-11  0.1628E-04  0.0000E+00 -0.1271E+13
   -2.681248    4.02033  0.6601E-10  0.9478E-08  0.1618E-10  0.9188E-06  0.0000E+00 -0.3434E+14
   -2.749994    4.06077  0.6601E-10  0.0000E+00  0.0000E+00  0.0000E+00  0.0000E+00  0.0000E+00
