 1 - depth, m
 2 - temperature, C
 3 - salinity, kg/kg
 4 - turbulent kinetic energy, m**2/s**2
 5 - dissipation rate, m**2/s**3
 6 - kinematic heat conductance, m**2/s
 7 - modulus of horizontal velocity, m/s
 8 - Richardson number, n/d
   -0.000000    1.27327  0.6558E-10  0.9199E-03  0.1664E-02  0.1757E-03  0.3719E+00 -0.2514E-01
   -0.068746    1.31182  0.6559E-10  0.5008E-03  0.3925E-03  0.5440E-03  0.1036E+00 -0.4257E-03
   -0.137493    1.31865  0.6559E-10  0.3623E-03  0.1736E-03  0.5080E-03  0.7952E-01  0.1304E+00
   -0.206240    1.32305  0.6560E-10  0.2740E-03  0.9568E-04  0.4840E-03  0.6751E-01  0.7601E-02
   -0.274988    1.32627  0.6560E-10  0.2162E-03  0.5563E-04  0.4723E-03  0.5944E-01 -0.2445E-02
   -0.343737    1.32888  0.6560E-10  0.1759E-03  0.3213E-04  0.4686E-03  0.5365E-01  0.6896E-02
   -0.412486    1.33124  0.6560E-10  0.1458E-03  0.1843E-04  0.4796E-03  0.4836E-01  0.6581E-02
   -0.481236    1.33342  0.6560E-10  0.1240E-03  0.1065E-04  0.5036E-03  0.4392E-01  0.1066E-01
   -0.549986    1.33547  0.6560E-10  0.1084E-03  0.6289E-05  0.5317E-03  0.4037E-01  0.1407E-01
   -0.618736    1.33741  0.6560E-10  0.9720E-04  0.3880E-05  0.5541E-03  0.3729E-01  0.1325E-01
   -0.687487    1.33932  0.6560E-10  0.8834E-04  0.2529E-05  0.5844E-03  0.3427E-01  0.1474E-01
   -0.756238    1.34115  0.6560E-10  0.8148E-04  0.1764E-05  0.6139E-03  0.3167E-01  0.1677E-01
   -0.824989    1.34294  0.6560E-10  0.7607E-04  0.1307E-05  0.6430E-03  0.2937E-01  0.1931E-01
   -0.893741    1.34470  0.6560E-10  0.7160E-04  0.1017E-05  0.6669E-03  0.2730E-01  0.2184E-01
   -0.962493    1.34646  0.6560E-10  0.6773E-04  0.8202E-06  0.6839E-03  0.2539E-01  0.2412E-01
   -1.031245    1.34826  0.6560E-10  0.6417E-04  0.6798E-06  0.6990E-03  0.2358E-01  0.2723E-01
   -1.099998    1.35011  0.6560E-10  0.6076E-04  0.5737E-06  0.7215E-03  0.2187E-01  0.3539E-01
   -1.168750    1.35200  0.6560E-10  0.5757E-04  0.4915E-06  0.7365E-03  0.2034E-01  0.4524E-01
   -1.237503    1.35398  0.6560E-10  0.5456E-04  0.4262E-06  0.7458E-03  0.1894E-01  0.5755E-01
   -1.306255    1.35607  0.6560E-10  0.5172E-04  0.3730E-06  0.7501E-03  0.1765E-01  0.7325E-01
   -1.375008    1.35834  0.6560E-10  0.4905E-04  0.3292E-06  0.7495E-03  0.1645E-01  0.9367E-01
   -1.443761    1.36082  0.6560E-10  0.4651E-04  0.2926E-06  0.7445E-03  0.1533E-01  0.1209E+00
   -1.512513    1.36359  0.6560E-10  0.4410E-04  0.2616E-06  0.7349E-03  0.1427E-01  0.1586E+00
   -1.581266    1.36677  0.6560E-10  0.4181E-04  0.2353E-06  0.7210E-03  0.1327E-01  0.2135E+00
   -1.650018    1.37054  0.6560E-10  0.3962E-04  0.2128E-06  0.7029E-03  0.1232E-01  0.2990E+00
   -1.718771    1.37524  0.6560E-10  0.3753E-04  0.1935E-06  0.6808E-03  0.1141E-01  0.4458E+00
   -1.787523    1.38154  0.6560E-10  0.3554E-04  0.1768E-06  0.6552E-03  0.1053E-01  0.7365E+00
   -1.856275    1.39144  0.6560E-10  0.3359E-04  0.1623E-06  0.6263E-03  0.9664E-02  0.1122E+01
   -1.925027    1.43852  0.6561E-10  0.3155E-04  0.1493E-06  0.5958E-03  0.8672E-02  0.1970E+01
   -1.993778    1.63847  0.6564E-10  0.2943E-04  0.1371E-06  0.5672E-03  0.7358E-02  0.7378E+01
   -2.062529    2.15090  0.6568E-10  0.2764E-04  0.1261E-06  0.5596E-03  0.5789E-02  0.2777E+03
   -2.131280    2.29098  0.6569E-10  0.2597E-04  0.1169E-06  0.5486E-03  0.5047E-02  0.4050E+06
   -2.200030    2.40299  0.6570E-10  0.2430E-04  0.1090E-06  0.5284E-03  0.4426E-02  0.2754E+07
   -2.268780    2.53918  0.6570E-10  0.2263E-04  0.1024E-06  0.5014E-03  0.3853E-02 -0.4243E+10
   -2.337530    2.69906  0.6571E-10  0.2101E-04  0.9779E-07  0.4676E-03  0.3383E-02 -0.7980E+13
   -2.406279    2.81806  0.6571E-10  0.1934E-04  0.9547E-07  0.4228E-03  0.2982E-02 -0.8287E+15
   -2.475028    2.93211  0.6572E-10  0.1756E-04  0.9719E-07  0.3622E-03  0.2635E-02 -0.1609E+16
   -2.543776    3.04010  0.6572E-10  0.1539E-04  0.1077E-06  0.2760E-03  0.2337E-02 -0.2211E+16
   -2.612523    3.15809  0.6572E-10  0.1254E-04  0.1436E-06  0.1691E-03  0.2067E-02 -0.2972E+16
   -2.681270    3.28631  0.6572E-10  0.5329E-05  0.3992E-06  0.1681E-04  0.1811E-02 -0.3327E+16
   -2.750016    3.47763  0.6572E-10  0.0000E+00  0.0000E+00  0.0000E+00  0.1795E-02  0.0000E+00
