 1 - depth, m
 2 - temperature, C
 3 - salinity, kg/kg
 4 - turbulent kinetic energy, m**2/s**2
 5 - dissipation rate, m**2/s**3
 6 - kinematic heat conductance, m**2/s
 7 - modulus of horizontal velocity, m/s
 8 - Richardson number, n/d
   -0.000000   -0.00000  0.2859E-09  0.1219E-13  0.7603E-17  0.1000E-09  0.0000E+00  0.1128E+17
   -0.068746    0.17328  0.1376E-09  0.1219E-13  0.7603E-17  0.1000E-09  0.0000E+00  0.1025E+17
   -0.137492    0.33835  0.8999E-10  0.1219E-13  0.7603E-17  0.1000E-09  0.0000E+00  0.9082E+16
   -0.206239    0.49150  0.8137E-10  0.1219E-13  0.7603E-17  0.1000E-09  0.0000E+00  0.7983E+16
   -0.274987    0.63224  0.8024E-10  0.1219E-13  0.7603E-17  0.1000E-09  0.0000E+00  0.6987E+16
   -0.343735    0.76076  0.8011E-10  0.1219E-13  0.7603E-17  0.1000E-09  0.0000E+00  0.6235E+16
   -0.412483    0.88018  0.8010E-10  0.1219E-13  0.7603E-17  0.1000E-09  0.0000E+00  0.5560E+16
   -0.481232    0.99090  0.8009E-10  0.1219E-13  0.7603E-17  0.1000E-09  0.0000E+00  0.4963E+16
   -0.549982    1.09350  0.8009E-10  0.1219E-13  0.7603E-17  0.1000E-09  0.0000E+00  0.4553E+16
   -0.618732    1.19109  0.8009E-10  0.1219E-13  0.7603E-17  0.1000E-09  0.0000E+00  0.4321E+16
   -0.687482    1.28714  0.8009E-10  0.1219E-13  0.7603E-17  0.1000E-09  0.0000E+00  0.4161E+16
   -0.756233    1.38312  0.8009E-10  0.2741E-13  0.7603E-17  0.1000E-09  0.0000E+00  0.4155E+16
   -0.824984    1.48282  0.8009E-10  0.9086E-13  0.1452E-16  0.1000E-09  0.0000E+00  0.4187E+16
   -0.893735    1.58765  0.8008E-10  0.2465E-12  0.3519E-16  0.1000E-09  0.0000E+00  0.4244E+16
   -0.962487    1.69901  0.8005E-10  0.6257E-12  0.8568E-16  0.1000E-09  0.0000E+00  0.4313E+16
   -1.031239    1.81826  0.7995E-10  0.1550E-11  0.2059E-15  0.1000E-09  0.0000E+00  0.4361E+16
   -1.099990    1.94619  0.7975E-10  0.3798E-11  0.4908E-15  0.1000E-09  0.0000E+00  0.4343E+16
   -1.168742    2.08242  0.7941E-10  0.9214E-11  0.1158E-14  0.1000E-09  0.0000E+00  0.4298E+16
   -1.237495    2.22792  0.7899E-10  0.2212E-10  0.2707E-14  0.1000E-09  0.0000E+00  0.4207E+16
   -1.306247    2.38349  0.7857E-10  0.5255E-10  0.6262E-14  0.1000E-09  0.0000E+00  0.4053E+16
   -1.374999    2.54966  0.7825E-10  0.1236E-09  0.1435E-13  0.1000E-09  0.0000E+00  0.3849E+16
   -1.443751    2.72812  0.7798E-10  0.2878E-09  0.3255E-13  0.1000E-09  0.0000E+00  0.3578E+16
   -1.512504    2.92112  0.7764E-10  0.6638E-09  0.7317E-13  0.1175E-09  0.0000E+00  0.3170E+16
   -1.581256    3.12835  0.7717E-10  0.1516E-08  0.1629E-12  0.3174E-09  0.0000E+00  0.2615E+16
   -1.650008    3.34892  0.7664E-10  0.3430E-08  0.3595E-12  0.9577E-09  0.0000E+00  0.1913E+16
   -1.718760    3.58116  0.7624E-10  0.7676E-08  0.7850E-12  0.3722E-08  0.0000E+00  0.1075E+16
   -1.787511    3.82037  0.7605E-10  0.1666E-07  0.1667E-11  0.4113E-07  0.0000E+00  0.2082E+15
   -1.856263    4.01868  0.7602E-10  0.1789E-07  0.1797E-11  0.6647E-04  0.0000E+00 -0.2805E+12
   -1.925014    4.01923  0.7602E-10  0.1841E-07  0.1867E-11  0.6930E-04  0.0000E+00 -0.2786E+12
   -1.993765    4.01976  0.7602E-10  0.1884E-07  0.1943E-11  0.6975E-04  0.0000E+00 -0.2863E+12
   -2.062516    4.02031  0.7602E-10  0.1918E-07  0.2027E-11  0.6881E-04  0.0000E+00 -0.3005E+12
   -2.131266    4.02087  0.7602E-10  0.1946E-07  0.2128E-11  0.6670E-04  0.0000E+00 -0.3223E+12
   -2.200016    4.02146  0.7602E-10  0.1967E-07  0.2254E-11  0.6306E-04  0.0000E+00 -0.3559E+12
   -2.268766    4.02210  0.7602E-10  0.1980E-07  0.2415E-11  0.5797E-04  0.0000E+00 -0.4068E+12
   -2.337515    4.02282  0.7602E-10  0.1982E-07  0.2630E-11  0.5200E-04  0.0000E+00 -0.4816E+12
   -2.406263    4.02365  0.7602E-10  0.1969E-07  0.2933E-11  0.4487E-04  0.0000E+00 -0.6018E+12
   -2.475012    4.02467  0.7602E-10  0.1932E-07  0.3403E-11  0.3607E-04  0.0000E+00 -0.8273E+12
   -2.543759    4.02602  0.7602E-10  0.1848E-07  0.4258E-11  0.2479E-04  0.0000E+00 -0.1366E+13
   -2.612506    4.02816  0.7602E-10  0.1657E-07  0.6173E-11  0.1216E-04  0.0000E+00 -0.3276E+13
   -2.681252    4.03289  0.7602E-10  0.8935E-08  0.1708E-10  0.1002E-05  0.0000E+00 -0.6801E+14
   -2.749998    4.09053  0.7602E-10  0.0000E+00  0.0000E+00  0.0000E+00  0.0000E+00  0.0000E+00
