 1 - depth, m
 2 - temperature, C
 3 - salinity, kg/kg
 4 - turbulent kinetic energy, m**2/s**2
 5 - dissipation rate, m**2/s**3
 6 - kinematic heat conductance, m**2/s
 7 - modulus of horizontal velocity, m/s
 8 - Richardson number, n/d
   -0.000000   14.34774  0.8109E-10  0.1205E-03  0.4048E-04  0.1053E-03  0.1030E+00  0.2167E-02
   -0.068746   14.37697  0.8109E-10  0.6290E-04  0.9294E-05  0.1156E-03  0.3866E-01 -0.1219E-01
   -0.137492   14.38230  0.8109E-10  0.4423E-04  0.3321E-05  0.1170E-03  0.2914E-01 -0.1343E-01
   -0.206239   14.38612  0.8109E-10  0.3297E-04  0.1388E-05  0.1306E-03  0.2350E-01 -0.2074E-01
   -0.274987   14.38922  0.8109E-10  0.2590E-04  0.6657E-06  0.1491E-03  0.1938E-01 -0.3145E-01
   -0.343735   14.39183  0.8109E-10  0.2153E-04  0.3657E-06  0.1693E-03  0.1627E-01 -0.3918E-01
   -0.412484   14.39404  0.8109E-10  0.1857E-04  0.2235E-06  0.1951E-03  0.1378E-01  0.4369E+00
   -0.481233   14.39589  0.8109E-10  0.1649E-04  0.1486E-06  0.2270E-03  0.1183E-01 -0.6511E-01
   -0.549983   14.39744  0.8109E-10  0.1504E-04  0.1062E-06  0.2629E-03  0.1031E-01  0.1498E+00
   -0.618733   14.39875  0.8109E-10  0.1401E-04  0.8043E-07  0.3023E-03  0.9093E-02  0.5776E-01
   -0.687483   14.39988  0.8109E-10  0.1322E-04  0.6357E-07  0.3489E-03  0.8067E-02  0.6312E-01
   -0.756234   14.40087  0.8109E-10  0.1259E-04  0.5193E-07  0.4157E-03  0.7202E-02  0.7465E+00
   -0.824985   14.40171  0.8109E-10  0.1208E-04  0.4362E-07  0.5414E-03  0.6469E-02  0.1998E+02
   -0.893736   14.40241  0.8109E-10  0.1166E-04  0.3752E-07  0.7200E-03  0.5847E-02  0.3832E+02
   -0.962488   14.40296  0.8109E-10  0.1131E-04  0.3294E-07  0.9631E-03  0.5314E-02  0.1714E+03
   -1.031240   14.40338  0.8109E-10  0.1102E-04  0.2941E-07  0.1175E-02  0.4849E-02  0.2464E+03
   -1.099992   14.40371  0.8109E-10  0.1077E-04  0.2653E-07  0.1257E-02  0.4431E-02  0.2740E+03
   -1.168744   14.40401  0.8109E-10  0.1053E-04  0.2411E-07  0.1304E-02  0.4048E-02  0.1366E+02
   -1.237496   14.40430  0.8109E-10  0.1032E-04  0.2205E-07  0.1332E-02  0.3696E-02  0.6052E+01
   -1.306248   14.40459  0.8109E-10  0.1011E-04  0.2029E-07  0.1354E-02  0.3369E-02  0.5229E+01
   -1.375001   14.40488  0.8109E-10  0.9920E-05  0.1878E-07  0.1374E-02  0.3065E-02  0.4684E+01
   -1.443753   14.40517  0.8109E-10  0.9736E-05  0.1749E-07  0.1391E-02  0.2781E-02  0.4267E+01
   -1.512505   14.40547  0.8109E-10  0.9557E-05  0.1640E-07  0.1407E-02  0.2516E-02  0.3934E+01
   -1.581258   14.40577  0.8109E-10  0.9381E-05  0.1547E-07  0.1421E-02  0.2268E-02  0.3655E+01
   -1.650010   14.40607  0.8109E-10  0.9205E-05  0.1470E-07  0.1433E-02  0.2035E-02  0.3414E+01
   -1.718762   14.40639  0.8109E-10  0.9026E-05  0.1408E-07  0.1442E-02  0.1816E-02  0.3201E+01
   -1.787514   14.40670  0.8109E-10  0.8844E-05  0.1360E-07  0.1448E-02  0.1611E-02  0.3011E+01
   -1.856265   14.40703  0.8109E-10  0.8655E-05  0.1324E-07  0.1451E-02  0.1418E-02  0.2840E+01
   -1.925016   14.40736  0.8109E-10  0.8458E-05  0.1302E-07  0.1450E-02  0.1236E-02  0.2687E+01
   -1.993768   14.40771  0.8109E-10  0.8253E-05  0.1292E-07  0.1452E-02  0.1063E-02  0.2540E+01
   -2.062518   14.40806  0.8109E-10  0.8042E-05  0.1295E-07  0.1494E-02  0.9004E-03  0.2087E+01
   -2.131269   14.40841  0.8109E-10  0.7827E-05  0.1312E-07  0.1435E-02  0.7601E-03  0.1654E+01
   -2.200019   14.40878  0.8109E-10  0.7616E-05  0.1343E-07  0.1321E-02  0.6455E-03  0.1329E+01
   -2.268768   14.40919  0.8109E-10  0.7415E-05  0.1389E-07  0.1207E-02  0.5548E-03  0.1079E+01
   -2.337518   14.40964  0.8109E-10  0.7225E-05  0.1449E-07  0.1115E-02  0.4846E-03  0.9726E+00
   -2.406266   14.41014  0.8109E-10  0.7017E-05  0.1537E-07  0.1017E-02  0.4311E-03  0.1491E+01
   -2.475015   14.41070  0.8109E-10  0.6755E-05  0.1684E-07  0.8759E-03  0.3824E-03  0.3029E+01
   -2.543762   14.41136  0.8109E-10  0.6389E-05  0.1952E-07  0.6821E-03  0.3388E-03  0.8845E+01
   -2.612509   14.41223  0.8109E-10  0.5868E-05  0.2479E-07  0.5199E-03  0.3002E-03  0.4177E+02
   -2.681256   14.41340  0.8109E-10  0.2909E-05  0.7263E-07  0.1849E-04  0.2702E-03 -0.8071E+04
   -2.750002   14.44717  0.8109E-10  0.0000E+00  0.0000E+00  0.0000E+00  0.2690E-03  0.0000E+00
