 1 - depth, m
 2 - temperature, C
 3 - salinity, kg/kg
 4 - turbulent kinetic energy, m**2/s**2
 5 - dissipation rate, m**2/s**3
 6 - kinematic heat conductance, m**2/s
 7 - modulus of horizontal velocity, m/s
 8 - Richardson number, n/d
   -0.000000   -0.00000  0.1040E-09  0.1693E-12  0.2550E-16  0.1000E-09  0.0000E+00  0.1478E+17
   -0.068746    0.22871  0.1611E-09  0.3323E-12  0.3027E-16  0.1000E-09  0.0000E+00  0.1393E+17
   -0.137492    0.45877  0.1427E-09  0.6930E-12  0.5160E-16  0.1000E-09  0.0000E+00  0.1297E+17
   -0.206239    0.68824  0.1068E-09  0.1394E-11  0.9641E-16  0.1000E-09  0.0000E+00  0.1200E+17
   -0.274987    0.91666  0.8393E-10  0.2730E-11  0.1822E-15  0.1000E-09  0.0000E+00  0.1103E+17
   -0.343735    1.14363  0.7386E-10  0.5258E-11  0.3421E-15  0.1000E-09  0.0000E+00  0.1008E+17
   -0.412484    1.36910  0.7028E-10  0.1002E-10  0.6372E-15  0.1000E-09  0.0000E+00  0.9132E+16
   -0.481233    1.59254  0.6916E-10  0.1893E-10  0.1179E-14  0.1000E-09  0.0000E+00  0.8196E+16
   -0.549983    1.81340  0.6878E-10  0.3553E-10  0.2166E-14  0.1000E-09  0.0000E+00  0.7288E+16
   -0.618733    2.03148  0.6855E-10  0.6603E-10  0.3942E-14  0.1000E-09  0.0000E+00  0.6412E+16
   -0.687483    2.24660  0.6826E-10  0.1218E-09  0.7124E-14  0.1000E-09  0.0000E+00  0.5562E+16
   -0.756234    2.45832  0.6783E-10  0.2232E-09  0.1279E-13  0.1000E-09  0.0000E+00  0.4759E+16
   -0.824985    2.66690  0.6729E-10  0.4066E-09  0.2283E-13  0.1000E-09  0.0000E+00  0.3986E+16
   -0.893737    2.87200  0.6677E-10  0.7363E-09  0.4052E-13  0.1000E-09  0.0000E+00  0.3250E+16
   -0.962488    3.07343  0.6639E-10  0.1325E-08  0.7148E-13  0.1425E-09  0.0000E+00  0.2554E+16
   -1.031240    3.27113  0.6617E-10  0.2371E-08  0.1254E-12  0.3365E-09  0.0000E+00  0.1897E+16
   -1.099992    3.46504  0.6607E-10  0.4228E-08  0.2193E-12  0.8744E-09  0.0000E+00  0.1277E+16
   -1.168744    3.65489  0.6603E-10  0.7504E-08  0.3816E-12  0.2800E-08  0.0000E+00  0.6941E+15
   -1.237497    3.83945  0.6602E-10  0.1313E-07  0.6560E-12  0.2000E-07  0.0000E+00  0.1672E+15
   -1.306249    4.00239  0.6602E-10  0.1352E-07  0.6766E-12  0.1071E-03  0.0000E+00 -0.6169E+11
   -1.375001    4.00264  0.6602E-10  0.1368E-07  0.6866E-12  0.1063E-03  0.0000E+00 -0.6278E+11
   -1.443754    4.00288  0.6602E-10  0.1381E-07  0.6964E-12  0.1065E-03  0.0000E+00 -0.6357E+11
   -1.512506    4.00312  0.6602E-10  0.1393E-07  0.7071E-12  0.1067E-03  0.0000E+00 -0.6444E+11
   -1.581258    4.00337  0.6602E-10  0.1403E-07  0.7187E-12  0.1065E-03  0.0000E+00 -0.6550E+11
   -1.650010    4.00361  0.6602E-10  0.1411E-07  0.7313E-12  0.1059E-03  0.0000E+00 -0.6678E+11
   -1.718762    4.00385  0.6602E-10  0.1419E-07  0.7450E-12  0.1051E-03  0.0000E+00 -0.6830E+11
   -1.787514    4.00410  0.6602E-10  0.1424E-07  0.7601E-12  0.1039E-03  0.0000E+00 -0.7009E+11
   -1.856266    4.00435  0.6602E-10  0.1429E-07  0.7767E-12  0.1024E-03  0.0000E+00 -0.7221E+11
   -1.925017    4.00460  0.6602E-10  0.1431E-07  0.7959E-12  0.1004E-03  0.0000E+00 -0.7475E+11
   -1.993768    4.00486  0.6602E-10  0.1432E-07  0.8187E-12  0.9790E-04  0.0000E+00 -0.7782E+11
   -2.062519    4.00513  0.6602E-10  0.1431E-07  0.8467E-12  0.9392E-04  0.0000E+00 -0.8260E+11
   -2.131270    4.00541  0.6602E-10  0.1427E-07  0.8826E-12  0.8445E-04  0.0000E+00 -0.9385E+11
   -2.200020    4.00572  0.6602E-10  0.1419E-07  0.9287E-12  0.7428E-04  0.0000E+00 -0.1094E+12
   -2.268769    4.00607  0.6602E-10  0.1407E-07  0.9897E-12  0.6501E-04  0.0000E+00 -0.1287E+12
   -2.337519    4.00649  0.6602E-10  0.1388E-07  0.1073E-11  0.5618E-04  0.0000E+00 -0.1544E+12
   -2.406267    4.00697  0.6602E-10  0.1360E-07  0.1194E-11  0.4660E-04  0.0000E+00 -0.1948E+12
   -2.475016    4.00756  0.6602E-10  0.1315E-07  0.1385E-11  0.3565E-04  0.0000E+00 -0.2707E+12
   -2.543763    4.00836  0.6602E-10  0.1238E-07  0.1747E-11  0.2302E-04  0.0000E+00 -0.4551E+12
   -2.612510    4.00964  0.6602E-10  0.1087E-07  0.2589E-11  0.1042E-04  0.0000E+00 -0.1136E+13
   -2.681257    4.01257  0.6602E-10  0.5032E-08  0.7702E-11  0.5972E-06  0.0000E+00 -0.3385E+14
   -2.750003    4.05712  0.6602E-10  0.0000E+00  0.0000E+00  0.0000E+00  0.0000E+00  0.0000E+00
