 1 - depth, m
 2 - temperature, C
 3 - salinity, kg/kg
 4 - turbulent kinetic energy, m**2/s**2
 5 - dissipation rate, m**2/s**3
 6 - kinematic heat conductance, m**2/s
 7 - modulus of horizontal velocity, m/s
 8 - Richardson number, n/d
   -0.000000   11.73370  0.8815E-10  0.5069E-03  0.2585E-03  0.1012E-03  0.2572E+00  0.8604E-01
   -0.068746   11.64941  0.8816E-10  0.2945E-03  0.7944E-04  0.4342E-03  0.7700E-01  0.9061E-01
   -0.137492   11.63456  0.8816E-10  0.2181E-03  0.3895E-04  0.3765E-03  0.6254E-01  0.6003E+00
   -0.206239   11.62368  0.8816E-10  0.1635E-03  0.2044E-04  0.3306E-03  0.5462E-01  0.3904E-01
   -0.274987   11.61523  0.8816E-10  0.1253E-03  0.1109E-04  0.3100E-03  0.4900E-01  0.1538E+00
   -0.343735   11.60790  0.8816E-10  0.9847E-04  0.6150E-05  0.2962E-03  0.4463E-01  0.6637E-01
   -0.412484   11.60110  0.8816E-10  0.7875E-04  0.3503E-05  0.2912E-03  0.4064E-01  0.1084E+00
   -0.481233   11.59470  0.8816E-10  0.6438E-04  0.2098E-05  0.2924E-03  0.3719E-01  0.8155E-01
   -0.549983   11.58866  0.8816E-10  0.5414E-04  0.1338E-05  0.2942E-03  0.3428E-01  0.9231E-01
   -0.618733   11.58291  0.8816E-10  0.4686E-04  0.9085E-06  0.2943E-03  0.3171E-01  0.1043E+00
   -0.687483   11.57741  0.8816E-10  0.4142E-04  0.6490E-06  0.2957E-03  0.2930E-01  0.9521E-01
   -0.756234   11.57218  0.8816E-10  0.3717E-04  0.4840E-06  0.2962E-03  0.2706E-01  0.1017E+00
   -0.824985   11.56717  0.8816E-10  0.3373E-04  0.3745E-06  0.2942E-03  0.2498E-01  0.1084E+00
   -0.893737   11.56232  0.8816E-10  0.3081E-04  0.2989E-06  0.2886E-03  0.2303E-01  0.1140E+00
   -0.962488   11.55757  0.8816E-10  0.2817E-04  0.2441E-06  0.2772E-03  0.2118E-01  0.1164E+00
   -1.031240   11.55282  0.8816E-10  0.2556E-04  0.2011E-06  0.2604E-03  0.1937E-01  0.1218E+00
   -1.099992   11.54795  0.8816E-10  0.2278E-04  0.1645E-06  0.2475E-03  0.1760E-01  0.1591E+00
   -1.168744   11.54298  0.8816E-10  0.2004E-04  0.1342E-06  0.2268E-03  0.1602E-01  0.2047E+00
   -1.237497   11.53769  0.8816E-10  0.1738E-04  0.1090E-06  0.2012E-03  0.1458E-01  0.2647E+00
   -1.306249   11.53181  0.8816E-10  0.1484E-04  0.8778E-07  0.1721E-03  0.1324E-01  0.3493E+00
   -1.375001   11.52495  0.8816E-10  0.1241E-04  0.6991E-07  0.1408E-03  0.1199E-01  0.4790E+00
   -1.443754   11.51623  0.8817E-10  0.1011E-04  0.5479E-07  0.1088E-03  0.1079E-01  0.6989E+00
   -1.512506   11.50279  0.8817E-10  0.7907E-05  0.4194E-07  0.7746E-04  0.9602E-02  0.1101E+01
   -1.581258   11.44892  0.8817E-10  0.5765E-05  0.3024E-07  0.5009E-04  0.8209E-02  0.2847E+01
   -1.650010   11.20313  0.8818E-10  0.3980E-05  0.2026E-07  0.2897E-04  0.6339E-02  0.8555E+01
   -1.718762   10.86240  0.8820E-10  0.2733E-05  0.1260E-07  0.1894E-04  0.4506E-02  0.4532E+02
   -1.787514   10.54877  0.8821E-10  0.1815E-05  0.6779E-08  0.4072E-04  0.2940E-02  0.4093E+02
   -1.856266   10.21653  0.8823E-10  0.1231E-05  0.2807E-08  0.1308E-03  0.1436E-02  0.5947E+06
   -1.925017    9.87973  0.8826E-10  0.1112E-05  0.1415E-08  0.2276E-03  0.3266E-03  0.3175E+05
   -1.993768    9.77266  0.8826E-10  0.1222E-05  0.1467E-08  0.3002E-03  0.5543E-04  0.8404E+04
   -2.062519    9.76500  0.8826E-10  0.1312E-05  0.1615E-08  0.3418E-03  0.1973E-04  0.4849E+06
   -2.131270    9.76538  0.8826E-10  0.1394E-05  0.1788E-08  0.3542E-03  0.1492E-04  0.7634E+05
   -2.200020    9.76591  0.8826E-10  0.1471E-05  0.1994E-08  0.3591E-03  0.1157E-04  0.3002E+06
   -2.268769    9.76657  0.8826E-10  0.1542E-05  0.2241E-08  0.3506E-03  0.9026E-05  0.1570E+07
   -2.337518    9.76738  0.8826E-10  0.1604E-05  0.2542E-08  0.3349E-03  0.6973E-05  0.3851E+07
   -2.406267    9.76838  0.8826E-10  0.1652E-05  0.2924E-08  0.3110E-03  0.5314E-05  0.3603E+07
   -2.475015    9.76962  0.8826E-10  0.1678E-05  0.3444E-08  0.2762E-03  0.3989E-05  0.2553E+08
   -2.543763    9.77122  0.8826E-10  0.1666E-05  0.4245E-08  0.2272E-03  0.2973E-05  0.7059E+08
   -2.612510    9.77345  0.8826E-10  0.1584E-05  0.5627E-08  0.1687E-03  0.2215E-05 -0.2162E+07
   -2.681257    9.77695  0.8826E-10  0.8950E-06  0.1471E-07  0.1187E-04  0.1667E-05 -0.2101E+10
   -2.750002    9.83495  0.8826E-10  0.0000E+00  0.0000E+00  0.0000E+00  0.1669E-05  0.0000E+00
