 1 - depth, m
 2 - temperature, C
 3 - salinity, kg/kg
 4 - turbulent kinetic energy, m**2/s**2
 5 - dissipation rate, m**2/s**3
 6 - kinematic heat conductance, m**2/s
 7 - modulus of horizontal velocity, m/s
 8 - Richardson number, n/d
   -0.000000   -0.00000  0.2084E-09  0.1219E-13  0.7603E-17  0.1000E-09  0.0000E+00  0.9924E+16
   -0.068746    0.15196  0.1895E-09  0.1219E-13  0.7603E-17  0.1000E-09  0.0000E+00  0.9523E+16
   -0.137492    0.30408  0.1643E-09  0.1219E-13  0.7603E-17  0.1000E-09  0.0000E+00  0.9044E+16
   -0.206239    0.45501  0.1275E-09  0.1219E-13  0.7603E-17  0.1000E-09  0.0000E+00  0.8560E+16
   -0.274987    0.60445  0.1010E-09  0.1219E-13  0.7603E-17  0.1000E-09  0.0000E+00  0.8080E+16
   -0.343735    0.75221  0.8778E-10  0.1219E-13  0.7603E-17  0.1000E-09  0.0000E+00  0.7617E+16
   -0.412484    0.89833  0.8255E-10  0.1219E-13  0.7603E-17  0.1000E-09  0.0000E+00  0.7162E+16
   -0.481233    1.04270  0.8079E-10  0.1219E-13  0.7603E-17  0.1000E-09  0.0000E+00  0.6717E+16
   -0.549983    1.18520  0.8026E-10  0.1219E-13  0.7603E-17  0.1000E-09  0.0000E+00  0.6289E+16
   -0.618733    1.32588  0.8011E-10  0.1219E-13  0.7603E-17  0.1000E-09  0.0000E+00  0.5879E+16
   -0.687483    1.46478  0.8004E-10  0.1219E-13  0.7603E-17  0.1000E-09  0.0000E+00  0.5479E+16
   -0.756234    1.60183  0.7997E-10  0.1219E-13  0.7603E-17  0.1000E-09  0.0000E+00  0.5103E+16
   -0.824985    1.73730  0.7988E-10  0.1219E-13  0.7603E-17  0.1000E-09  0.0000E+00  0.4736E+16
   -0.893736    1.87106  0.7974E-10  0.1219E-13  0.7603E-17  0.1000E-09  0.0000E+00  0.4376E+16
   -0.962488    2.00297  0.7955E-10  0.1219E-13  0.7603E-17  0.1000E-09  0.0000E+00  0.4026E+16
   -1.031240    2.13289  0.7930E-10  0.1219E-13  0.7603E-17  0.1000E-09  0.0000E+00  0.3686E+16
   -1.099991    2.26065  0.7901E-10  0.1219E-13  0.7603E-17  0.1000E-09  0.0000E+00  0.3356E+16
   -1.168744    2.38609  0.7867E-10  0.1219E-13  0.7603E-17  0.1000E-09  0.0000E+00  0.3037E+16
   -1.237496    2.50902  0.7830E-10  0.1219E-13  0.7603E-17  0.1000E-09  0.0000E+00  0.2730E+16
   -1.306248    2.62927  0.7791E-10  0.1219E-13  0.7603E-17  0.1000E-09  0.0000E+00  0.2437E+16
   -1.375000    2.74664  0.7750E-10  0.1219E-13  0.7603E-17  0.1000E-09  0.0000E+00  0.2161E+16
   -1.443753    2.86116  0.7711E-10  0.4143E-13  0.8594E-17  0.1000E-09  0.0000E+00  0.1905E+16
   -1.512505    2.97299  0.7677E-10  0.1261E-12  0.2027E-16  0.1000E-09  0.0000E+00  0.1662E+16
   -1.581257    3.08198  0.7652E-10  0.3416E-12  0.5154E-16  0.1000E-09  0.0000E+00  0.1433E+16
   -1.650009    3.18797  0.7635E-10  0.8898E-12  0.1297E-15  0.1000E-09  0.0000E+00  0.1217E+16
   -1.718761    3.29080  0.7626E-10  0.2276E-11  0.3218E-15  0.1000E-09  0.0000E+00  0.1017E+16
   -1.787513    3.39032  0.7622E-10  0.5741E-11  0.7883E-15  0.1000E-09  0.0000E+00  0.8319E+15
   -1.856265    3.48640  0.7620E-10  0.1431E-10  0.1909E-14  0.1000E-09  0.0000E+00  0.6622E+15
   -1.925016    3.57892  0.7619E-10  0.3523E-10  0.4569E-14  0.1000E-09  0.0000E+00  0.5082E+15
   -1.993767    3.66778  0.7619E-10  0.8574E-10  0.1081E-13  0.1487E-09  0.0000E+00  0.3695E+15
   -2.062518    3.75288  0.7619E-10  0.2076E-09  0.2548E-13  0.5116E-09  0.0000E+00  0.2530E+15
   -2.131268    3.83701  0.7619E-10  0.5084E-09  0.6070E-13  0.2173E-08  0.0000E+00  0.1417E+15
   -2.200018    3.92132  0.7619E-10  0.1226E-08  0.1428E-12  0.2230E-07  0.0000E+00  0.3221E+14
   -2.268768    3.99707  0.7619E-10  0.2013E-08  0.2360E-12  0.6144E-05  0.0000E+00 -0.3832E+12
   -2.337517    3.99915  0.7619E-10  0.2400E-08  0.3022E-12  0.6750E-05  0.0000E+00 -0.4399E+12
   -2.406266    4.00118  0.7619E-10  0.2720E-08  0.3883E-12  0.6674E-05  0.0000E+00 -0.5625E+12
   -2.475014    4.00342  0.7619E-10  0.2969E-08  0.5158E-12  0.5926E-05  0.0000E+00 -0.8285E+12
   -2.543761    4.00628  0.7619E-10  0.3104E-08  0.7423E-12  0.4353E-05  0.0000E+00 -0.1543E+13
   -2.612509    4.01072  0.7619E-10  0.2956E-08  0.1244E-11  0.2175E-05  0.0000E+00 -0.4559E+13
   -2.681255    4.02063  0.7619E-10  0.2056E-08  0.3238E-11  0.3426E-06  0.0000E+00 -0.5676E+14
   -2.750001    4.07813  0.7619E-10  0.0000E+00  0.0000E+00  0.0000E+00  0.0000E+00  0.0000E+00
