 1 - depth, m
 2 - temperature, C
 3 - salinity, kg/kg
 4 - turbulent kinetic energy, m**2/s**2
 5 - dissipation rate, m**2/s**3
 6 - kinematic heat conductance, m**2/s
 7 - modulus of horizontal velocity, m/s
 8 - Richardson number, n/d
   -0.000000   -0.00000  0.1108E-11  0.1219E-13  0.7603E-17  0.1000E-09  0.0000E+00  0.1343E+17
   -0.068746    0.20716  0.6556E-10  0.1219E-13  0.7603E-17  0.1000E-09  0.0000E+00  0.1132E+17
   -0.137493    0.39174  0.1236E-09  0.1219E-13  0.7603E-17  0.1000E-09  0.0000E+00  0.9863E+16
   -0.206240    0.56117  0.1384E-09  0.1219E-13  0.7603E-17  0.1000E-09  0.0000E+00  0.8819E+16
   -0.274988    0.72054  0.1257E-09  0.1219E-13  0.7603E-17  0.1000E-09  0.0000E+00  0.8041E+16
   -0.343737    0.87334  0.1062E-09  0.1219E-13  0.7603E-17  0.1000E-09  0.0000E+00  0.7570E+16
   -0.412486    1.02479  0.9029E-10  0.1219E-13  0.7603E-17  0.1000E-09  0.0000E+00  0.7141E+16
   -0.481235    1.17551  0.8037E-10  0.2227E-13  0.7627E-17  0.1000E-09  0.0000E+00  0.6714E+16
   -0.549985    1.32538  0.7517E-10  0.8209E-13  0.1357E-16  0.1000E-09  0.0000E+00  0.6365E+16
   -0.618735    1.47610  0.7279E-10  0.2313E-12  0.3341E-16  0.1000E-09  0.0000E+00  0.6076E+16
   -0.687486    1.62936  0.7181E-10  0.6008E-12  0.8348E-16  0.1000E-09  0.0000E+00  0.5746E+16
   -0.756237    1.78449  0.7142E-10  0.1523E-11  0.2066E-15  0.1000E-09  0.0000E+00  0.5383E+16
   -0.824988    1.94087  0.7122E-10  0.3817E-11  0.5071E-15  0.1000E-09  0.0000E+00  0.5002E+16
   -0.893740    2.09819  0.7105E-10  0.9493E-11  0.1236E-14  0.1000E-09  0.0000E+00  0.4613E+16
   -0.962492    2.25633  0.7082E-10  0.2345E-10  0.2991E-14  0.1000E-09  0.0000E+00  0.4226E+16
   -1.031244    2.41552  0.7052E-10  0.5752E-10  0.7188E-14  0.1000E-09  0.0000E+00  0.3824E+16
   -1.099996    2.57539  0.7014E-10  0.1407E-09  0.1722E-13  0.1000E-09  0.0000E+00  0.3366E+16
   -1.168749    2.73334  0.6974E-10  0.3421E-09  0.4102E-13  0.1072E-09  0.0000E+00  0.2952E+16
   -1.237501    2.89087  0.6936E-10  0.8263E-09  0.9704E-13  0.1900E-09  0.0000E+00  0.2582E+16
   -1.306254    3.05061  0.6906E-10  0.1982E-08  0.2279E-12  0.5071E-09  0.0000E+00  0.2259E+16
   -1.375006    3.21763  0.6885E-10  0.4714E-08  0.5309E-12  0.1333E-08  0.0000E+00  0.1985E+16
   -1.443759    3.40377  0.6872E-10  0.1111E-07  0.1225E-11  0.3686E-08  0.0000E+00  0.1657E+16
   -1.512512    3.63105  0.6866E-10  0.2556E-07  0.2767E-11  0.2037E-07  0.0000E+00  0.8951E+15
   -1.581264    3.90688  0.6862E-10  0.3572E-07  0.3801E-11  0.5837E-04  0.0000E+00  0.1171E+15
   -1.650016    4.02786  0.6862E-10  0.3667E-07  0.3914E-11  0.1339E-03  0.0000E+00 -0.2823E+12
   -1.718769    4.02829  0.6862E-10  0.3719E-07  0.3994E-11  0.1330E-03  0.0000E+00 -0.2938E+12
   -1.787521    4.02874  0.6862E-10  0.3763E-07  0.4081E-11  0.1331E-03  0.0000E+00 -0.3026E+12
   -1.856273    4.02919  0.6862E-10  0.3801E-07  0.4177E-11  0.1328E-03  0.0000E+00 -0.3126E+12
   -1.925024    4.02965  0.6862E-10  0.3832E-07  0.4283E-11  0.1317E-03  0.0000E+00 -0.3247E+12
   -1.993776    4.03012  0.6862E-10  0.3856E-07  0.4400E-11  0.1302E-03  0.0000E+00 -0.3387E+12
   -2.062527    4.03061  0.6862E-10  0.3872E-07  0.4531E-11  0.1277E-03  0.0000E+00 -0.3542E+12
   -2.131278    4.03112  0.6862E-10  0.3881E-07  0.4689E-11  0.1242E-03  0.0000E+00 -0.3729E+12
   -2.200028    4.03165  0.6862E-10  0.3881E-07  0.4881E-11  0.1195E-03  0.0000E+00 -0.3971E+12
   -2.268778    4.03220  0.6862E-10  0.3870E-07  0.5122E-11  0.1132E-03  0.0000E+00 -0.4301E+12
   -2.337527    4.03279  0.6862E-10  0.3845E-07  0.5447E-11  0.1047E-03  0.0000E+00 -0.4786E+12
   -2.406276    4.03345  0.6862E-10  0.3796E-07  0.5941E-11  0.8914E-04  0.0000E+00 -0.5812E+12
   -2.475025    4.03423  0.6862E-10  0.3702E-07  0.6779E-11  0.6529E-04  0.0000E+00 -0.8271E+12
   -2.543773    4.03532  0.6862E-10  0.3524E-07  0.8353E-11  0.4272E-04  0.0000E+00 -0.1336E+13
   -2.612520    4.03704  0.6862E-10  0.3172E-07  0.1188E-10  0.2088E-04  0.0000E+00 -0.2966E+13
   -2.681267    4.04065  0.6862E-10  0.1650E-07  0.3427E-10  0.1454E-05  0.0000E+00 -0.6160E+14
   -2.750013    4.09038  0.6862E-10  0.0000E+00  0.0000E+00  0.0000E+00  0.0000E+00  0.0000E+00
