 1 - depth, m
 2 - temperature, C
 3 - salinity, kg/kg
 4 - turbulent kinetic energy, m**2/s**2
 5 - dissipation rate, m**2/s**3
 6 - kinematic heat conductance, m**2/s
 7 - modulus of horizontal velocity, m/s
 8 - Richardson number, n/d
   -0.000000   15.28924  0.6845E-10  0.1097E-03  0.1824E-02  0.8987E-04  0.8208E-01 -0.1384E-01
   -0.068746   15.32208  0.6845E-10  0.6278E-04  0.1004E-02  0.1181E-03  0.3141E-01 -0.1271E+00
   -0.137492   15.32884  0.6845E-10  0.4622E-04  0.5824E-03  0.1294E-03  0.2372E-01 -0.4254E-01
   -0.206239   15.33358  0.6845E-10  0.3483E-04  0.2830E-03  0.1505E-03  0.1923E-01 -0.6921E-01
   -0.274987   15.33723  0.6845E-10  0.2650E-04  0.9615E-04  0.1804E-03  0.1603E-01 -0.1092E+00
   -0.343735   15.34015  0.6845E-10  0.2095E-04  0.1739E-04  0.2220E-03  0.1363E-01 -0.9566E-01
   -0.412483   15.34256  0.6845E-10  0.1779E-04  0.1612E-05  0.3224E-03  0.1166E-01  0.5584E+02
   -0.481233   15.34448  0.6845E-10  0.1596E-04  0.2090E-06  0.3829E-03  0.1012E-01  0.7840E+01
   -0.549982   15.34598  0.6845E-10  0.1478E-04  0.1063E-06  0.4559E-03  0.8949E-02  0.8497E+01
   -0.618732   15.34723  0.6845E-10  0.1397E-04  0.7931E-07  0.5442E-03  0.8003E-02  0.1909E+02
   -0.687482   15.34827  0.6845E-10  0.1339E-04  0.6334E-07  0.6595E-03  0.7206E-02  0.8351E+01
   -0.756233   15.34915  0.6845E-10  0.1296E-04  0.5255E-07  0.8095E-03  0.6531E-02  0.3054E+02
   -0.824984   15.34985  0.6845E-10  0.1263E-04  0.4493E-07  0.9646E-03  0.5957E-02  0.7295E+02
   -0.893735   15.35042  0.6845E-10  0.1238E-04  0.3934E-07  0.1105E-02  0.5457E-02  0.1301E+03
   -0.962487   15.35089  0.6845E-10  0.1218E-04  0.3508E-07  0.1234E-02  0.5009E-02  0.6469E+02
   -1.031239   15.35129  0.6845E-10  0.1202E-04  0.3170E-07  0.1318E-02  0.4597E-02  0.7273E+02
   -1.099991   15.35165  0.6845E-10  0.1187E-04  0.2890E-07  0.1385E-02  0.4210E-02  0.1734E+02
   -1.168743   15.35200  0.6845E-10  0.1172E-04  0.2653E-07  0.1430E-02  0.3855E-02  0.6593E+01
   -1.237495   15.35234  0.6845E-10  0.1158E-04  0.2452E-07  0.1468E-02  0.3525E-02  0.5447E+01
   -1.306247   15.35268  0.6845E-10  0.1145E-04  0.2280E-07  0.1505E-02  0.3218E-02  0.4767E+01
   -1.374999   15.35302  0.6845E-10  0.1131E-04  0.2133E-07  0.1540E-02  0.2933E-02  0.4290E+01
   -1.443752   15.35336  0.6845E-10  0.1117E-04  0.2009E-07  0.1574E-02  0.2666E-02  0.3924E+01
   -1.512504   15.35369  0.6845E-10  0.1103E-04  0.1905E-07  0.1606E-02  0.2416E-02  0.3626E+01
   -1.581256   15.35403  0.6845E-10  0.1088E-04  0.1818E-07  0.1636E-02  0.2183E-02  0.3374E+01
   -1.650008   15.35438  0.6845E-10  0.1072E-04  0.1748E-07  0.1658E-02  0.1963E-02  0.3152E+01
   -1.718760   15.35472  0.6845E-10  0.1055E-04  0.1693E-07  0.1665E-02  0.1757E-02  0.2953E+01
   -1.787512   15.35508  0.6845E-10  0.1037E-04  0.1652E-07  0.1661E-02  0.1564E-02  0.2772E+01
   -1.856263   15.35544  0.6845E-10  0.1017E-04  0.1626E-07  0.1647E-02  0.1382E-02  0.2608E+01
   -1.925014   15.35582  0.6845E-10  0.9960E-05  0.1614E-07  0.1621E-02  0.1211E-02  0.2458E+01
   -1.993765   15.35621  0.6845E-10  0.9735E-05  0.1616E-07  0.1590E-02  0.1049E-02  0.2310E+01
   -2.062516   15.35662  0.6845E-10  0.9498E-05  0.1633E-07  0.1574E-02  0.8960E-03  0.1911E+01
   -2.131266   15.35704  0.6845E-10  0.9251E-05  0.1666E-07  0.1559E-02  0.7638E-03  0.1551E+01
   -2.200016   15.35746  0.6845E-10  0.9004E-05  0.1716E-07  0.1454E-02  0.6551E-03  0.1314E+01
   -2.268766   15.35793  0.6845E-10  0.8761E-05  0.1785E-07  0.1325E-02  0.5682E-03  0.1241E+01
   -2.337515   15.35845  0.6845E-10  0.8521E-05  0.1877E-07  0.1205E-02  0.4991E-03  0.1405E+01
   -2.406264   15.35903  0.6845E-10  0.8257E-05  0.2011E-07  0.1082E-02  0.4449E-03  0.2205E+01
   -2.475012   15.35969  0.6845E-10  0.7923E-05  0.2230E-07  0.9120E-03  0.3973E-03  0.4583E+01
   -2.543759   15.36048  0.6845E-10  0.7447E-05  0.2637E-07  0.7362E-03  0.3537E-03  0.1302E+02
   -2.612506   15.36147  0.6845E-10  0.6667E-05  0.3651E-07  0.4649E-03  0.3168E-03  0.2608E+02
   -2.681253   15.36409  0.6845E-10  0.3270E-05  0.1081E-06  0.3053E-04  0.2742E-03 -0.8803E+04
   -2.749999   15.39204  0.6845E-10  0.0000E+00  0.0000E+00  0.0000E+00  0.2795E-03  0.0000E+00
