 1 - depth, m
 2 - temperature, C
 3 - salinity, kg/kg
 4 - turbulent kinetic energy, m**2/s**2
 5 - dissipation rate, m**2/s**3
 6 - kinematic heat conductance, m**2/s
 7 - modulus of horizontal velocity, m/s
 8 - Richardson number, n/d
   -0.000000   -0.00000  0.1266E-09  0.9145E-08  0.1880E-10  0.6252E-08  0.6208E-11  0.1422E+17
   -0.068744    0.22606  0.6922E-10  0.9649E-07  0.1451E-10  0.1331E-07  0.1498E-11  0.5684E+16
   -0.137489    0.31875  0.7028E-10  0.2644E-06  0.1958E-10  0.3333E-05  0.1521E-12  0.8306E+15
   -0.206235    0.33264  0.7008E-10  0.2658E-06  0.1969E-10  0.1237E-02  0.1244E-12 -0.3286E+12
   -0.274981    0.33263  0.7008E-10  0.2663E-06  0.1974E-10  0.1235E-02  0.1191E-12 -0.6075E+12
   -0.343728    0.33262  0.7008E-10  0.2666E-06  0.1974E-10  0.1215E-02  0.1163E-12 -0.6368E+12
   -0.412475    0.33261  0.7008E-10  0.2664E-06  0.1970E-10  0.1203E-02  0.1141E-12 -0.5166E+12
   -0.481223    0.33260  0.7008E-10  0.2658E-06  0.1960E-10  0.1172E-02  0.1115E-12  0.6270E+14
   -0.549971    0.33359  0.7000E-10  0.2575E-06  0.1840E-10  0.1108E-02  0.6079E-13  0.3511E+15
   -0.618720    0.33922  0.6950E-10  0.2403E-06  0.1636E-10  0.9430E-03  0.4800E-13  0.6955E+15
   -0.687468    0.35049  0.6892E-10  0.2100E-06  0.1358E-10  0.6317E-03  0.3831E-13  0.8320E+15
   -0.756218    0.36414  0.6858E-10  0.1640E-06  0.1015E-10  0.1038E-06  0.3133E-13  0.1049E+16
   -0.824967    0.38155  0.6813E-10  0.8943E-07  0.5546E-11  0.1871E-07  0.2574E-13  0.1458E+16
   -0.893717    0.40600  0.6773E-10  0.4415E-07  0.2790E-11  0.6964E-08  0.2005E-13  0.1951E+16
   -0.962467    0.43899  0.6717E-10  0.2106E-07  0.1361E-11  0.2703E-08  0.1366E-13  0.2561E+16
   -1.031218    0.48279  0.6659E-10  0.9830E-08  0.6513E-12  0.1195E-08  0.6667E-14  0.2881E+16
   -1.099968    0.53275  0.6655E-10  0.4502E-08  0.3061E-12  0.7643E-09  0.1967E-14  0.2123E+16
   -1.168719    0.57007  0.6651E-10  0.2022E-08  0.1412E-12  0.4864E-09  0.5669E-15  0.1556E+16
   -1.237470    0.59771  0.6646E-10  0.8905E-09  0.6390E-13  0.3038E-09  0.1595E-15  0.1179E+16
   -1.306221    0.61882  0.6641E-10  0.3843E-09  0.2839E-13  0.1872E-09  0.4379E-16  0.9844E+15
   -1.374971    0.63657  0.6637E-10  0.1622E-09  0.1239E-13  0.1158E-09  0.1171E-16  0.1181E+16
   -1.443722    0.65801  0.6632E-10  0.6659E-10  0.5379E-14  0.1000E-09  0.3052E-17  0.1907E+16
   -1.512473    0.69294  0.6627E-10  0.2627E-10  0.2526E-14  0.1000E-09  0.7742E-18  0.2858E+16
   -1.581224    0.74606  0.6622E-10  0.1091E-10  0.1997E-14  0.1000E-09  0.1910E-18  0.4131E+16
   -1.649974    0.82454  0.6617E-10  0.1172E-10  0.4677E-14  0.1000E-09  0.4582E-19  0.5834E+16
   -1.718725    0.93909  0.6610E-10  0.4382E-10  0.1924E-13  0.1000E-09  0.1068E-19  0.8085E+16
   -1.787475    1.10602  0.6596E-10  0.2010E-09  0.8552E-13  0.1000E-09  0.2417E-20  0.1096E+17
   -1.856225    1.35074  0.6567E-10  0.9142E-09  0.3749E-12  0.1473E-09  0.5310E-21  0.1429E+17
   -1.924975    1.71268  0.6512E-10  0.4066E-08  0.1608E-11  0.4751E-09  0.1130E-21  0.1706E+17
   -1.993725    2.24878  0.6458E-10  0.1766E-07  0.6745E-11  0.2270E-08  0.2281E-22  0.1632E+17
   -2.062474    3.02505  0.6462E-10  0.7273E-07  0.2697E-10  0.4624E-07  0.1954E-23  0.7663E+16
   -2.131223    3.93062  0.6468E-10  0.1027E-06  0.3956E-10  0.7919E-04  0.1231E-24  0.6410E+15
   -2.199972    4.14577  0.6469E-10  0.1093E-06  0.4279E-10  0.1109E-03  0.3492E-26 -0.4252E+13
   -2.268720    4.14749  0.6469E-10  0.1128E-06  0.4538E-10  0.1098E-03  0.1992E-26 -0.4469E+13
   -2.337468    4.14927  0.6469E-10  0.1153E-06  0.4848E-10  0.1072E-03  0.1166E-26 -0.4773E+13
   -2.406215    4.15115  0.6469E-10  0.1167E-06  0.5243E-10  0.1016E-03  0.6601E-27 -0.5296E+13
   -2.474962    4.15322  0.6469E-10  0.1166E-06  0.5821E-10  0.9210E-04  0.3639E-27 -0.6235E+13
   -2.543708    4.15562  0.6469E-10  0.1138E-06  0.6884E-10  0.6666E-04  0.1817E-27 -0.9315E+13
   -2.612453    4.15917  0.6469E-10  0.1049E-06  0.9219E-10  0.3592E-04  0.8224E-28 -0.1904E+14
   -2.681198    4.16618  0.6469E-10  0.5751E-07  0.2372E-09  0.2969E-05  0.2923E-28 -0.3066E+15
   -2.749943    4.25441  0.6469E-10  0.0000E+00  0.0000E+00  0.0000E+00  0.3874E-28  0.0000E+00
