 1 - depth, m
 2 - temperature, C
 3 - salinity, kg/kg
 4 - turbulent kinetic energy, m**2/s**2
 5 - dissipation rate, m**2/s**3
 6 - kinematic heat conductance, m**2/s
 7 - modulus of horizontal velocity, m/s
 8 - Richardson number, n/d
   -0.000000   -0.00000  0.2836E-09  0.1857E-11  0.4671E-15  0.1000E-09  0.0000E+00  0.1823E+17
   -0.068746    0.28422  0.1226E-09  0.4826E-11  0.5067E-15  0.1000E-09  0.0000E+00  0.1661E+17
   -0.137492    0.56508  0.8742E-10  0.1109E-10  0.8629E-15  0.1000E-09  0.0000E+00  0.1498E+17
   -0.206239    0.84116  0.7422E-10  0.2299E-10  0.1627E-14  0.1000E-09  0.0000E+00  0.1346E+17
   -0.274986    1.11319  0.7009E-10  0.4554E-10  0.3094E-14  0.1000E-09  0.0000E+00  0.1205E+17
   -0.343734    1.38197  0.6905E-10  0.8817E-10  0.5835E-14  0.1000E-09  0.0000E+00  0.1075E+17
   -0.412483    1.64884  0.6883E-10  0.1686E-09  0.1091E-13  0.1000E-09  0.0000E+00  0.9503E+16
   -0.481232    1.91442  0.6879E-10  0.3197E-09  0.2028E-13  0.1000E-09  0.0000E+00  0.8297E+16
   -0.549981    2.17914  0.6878E-10  0.6025E-09  0.3744E-13  0.1000E-09  0.0000E+00  0.7131E+16
   -0.618731    2.44372  0.6877E-10  0.1124E-08  0.6850E-13  0.1000E-09  0.0000E+00  0.5986E+16
   -0.687482    2.70866  0.6875E-10  0.2084E-08  0.1245E-12  0.1308E-09  0.0000E+00  0.4844E+16
   -0.756232    2.97383  0.6865E-10  0.3840E-08  0.2249E-12  0.3078E-09  0.0000E+00  0.3720E+16
   -0.824983    3.24008  0.6831E-10  0.7031E-08  0.4039E-12  0.7967E-09  0.0000E+00  0.2581E+16
   -0.893734    3.50614  0.6741E-10  0.1279E-07  0.7210E-12  0.2542E-08  0.0000E+00  0.1444E+16
   -0.962486    3.76890  0.6622E-10  0.2296E-07  0.1271E-11  0.1759E-07  0.0000E+00  0.3681E+15
   -1.031237    4.00593  0.6595E-10  0.2334E-07  0.1293E-11  0.1602E-03  0.0000E+00 -0.7234E+11
   -1.099989    4.00617  0.6595E-10  0.2352E-07  0.1306E-11  0.1568E-03  0.0000E+00 -0.7531E+11
   -1.168741    4.00641  0.6595E-10  0.2369E-07  0.1321E-11  0.1571E-03  0.0000E+00 -0.7670E+11
   -1.237493    4.00665  0.6595E-10  0.2384E-07  0.1336E-11  0.1572E-03  0.0000E+00 -0.7818E+11
   -1.306245    4.00689  0.6595E-10  0.2399E-07  0.1354E-11  0.1571E-03  0.0000E+00 -0.7985E+11
   -1.374997    4.00714  0.6595E-10  0.2412E-07  0.1373E-11  0.1567E-03  0.0000E+00 -0.8158E+11
   -1.443750    4.00739  0.6595E-10  0.2423E-07  0.1394E-11  0.1559E-03  0.0000E+00 -0.8328E+11
   -1.512502    4.00764  0.6595E-10  0.2433E-07  0.1417E-11  0.1547E-03  0.0000E+00 -0.8519E+11
   -1.581254    4.00789  0.6595E-10  0.2442E-07  0.1442E-11  0.1533E-03  0.0000E+00 -0.8736E+11
   -1.650006    4.00815  0.6595E-10  0.2448E-07  0.1470E-11  0.1515E-03  0.0000E+00 -0.8981E+11
   -1.718758    4.00841  0.6595E-10  0.2454E-07  0.1500E-11  0.1493E-03  0.0000E+00 -0.9259E+11
   -1.787509    4.00868  0.6595E-10  0.2457E-07  0.1533E-11  0.1468E-03  0.0000E+00 -0.9574E+11
   -1.856261    4.00895  0.6595E-10  0.2458E-07  0.1570E-11  0.1439E-03  0.0000E+00 -0.9932E+11
   -1.925012    4.00923  0.6595E-10  0.2458E-07  0.1610E-11  0.1405E-03  0.0000E+00 -0.1034E+12
   -1.993763    4.00951  0.6595E-10  0.2455E-07  0.1655E-11  0.1369E-03  0.0000E+00 -0.1080E+12
   -2.062513    4.00981  0.6595E-10  0.2450E-07  0.1705E-11  0.1327E-03  0.0000E+00 -0.1135E+12
   -2.131264    4.01011  0.6595E-10  0.2442E-07  0.1766E-11  0.1276E-03  0.0000E+00 -0.1203E+12
   -2.200014    4.01043  0.6595E-10  0.2430E-07  0.1840E-11  0.1219E-03  0.0000E+00 -0.1287E+12
   -2.268763    4.01077  0.6595E-10  0.2411E-07  0.1944E-11  0.1135E-03  0.0000E+00 -0.1416E+12
   -2.337512    4.01114  0.6595E-10  0.2381E-07  0.2106E-11  0.8923E-04  0.0000E+00 -0.1855E+12
   -2.406261    4.01161  0.6595E-10  0.2335E-07  0.2347E-11  0.6938E-04  0.0000E+00 -0.2478E+12
   -2.475009    4.01223  0.6595E-10  0.2264E-07  0.2735E-11  0.5202E-04  0.0000E+00 -0.3480E+12
   -2.543756    4.01307  0.6595E-10  0.2142E-07  0.3462E-11  0.3354E-04  0.0000E+00 -0.5790E+12
   -2.612503    4.01442  0.6595E-10  0.1909E-07  0.5128E-11  0.1559E-04  0.0000E+00 -0.1383E+13
   -2.681249    4.01740  0.6595E-10  0.9198E-08  0.1588E-10  0.9255E-06  0.0000E+00 -0.3928E+14
   -2.749995    4.06368  0.6595E-10  0.0000E+00  0.0000E+00  0.0000E+00  0.0000E+00  0.0000E+00
