 1 - depth, m
 2 - temperature, C
 3 - salinity, kg/kg
 4 - turbulent kinetic energy, m**2/s**2
 5 - dissipation rate, m**2/s**3
 6 - kinematic heat conductance, m**2/s
 7 - modulus of horizontal velocity, m/s
 8 - Richardson number, n/d
   -0.000000   -0.00000  0.3744E-09  0.2299E-11  0.5883E-15  0.1000E-09  0.0000E+00  0.1854E+17
   -0.068746    0.28924  0.1533E-09  0.6046E-11  0.5760E-15  0.1000E-09  0.0000E+00  0.1704E+17
   -0.137492    0.57812  0.8738E-10  0.1356E-10  0.8896E-15  0.1000E-09  0.0000E+00  0.1544E+17
   -0.206239    0.86439  0.7329E-10  0.2694E-10  0.1557E-14  0.1000E-09  0.0000E+00  0.1387E+17
   -0.274987    1.14756  0.6991E-10  0.5059E-10  0.2774E-14  0.1000E-09  0.0000E+00  0.1235E+17
   -0.343735    1.42719  0.6904E-10  0.9234E-10  0.4909E-14  0.1000E-09  0.0000E+00  0.1088E+17
   -0.412483    1.70314  0.6883E-10  0.1659E-09  0.8614E-14  0.1000E-09  0.0000E+00  0.9468E+16
   -0.481233    1.97506  0.6878E-10  0.2954E-09  0.1500E-13  0.1000E-09  0.0000E+00  0.8110E+16
   -0.549982    2.24263  0.6873E-10  0.5219E-09  0.2596E-13  0.1000E-09  0.0000E+00  0.6822E+16
   -0.618732    2.50589  0.6863E-10  0.9130E-09  0.4449E-13  0.1000E-09  0.0000E+00  0.5602E+16
   -0.687482    2.76499  0.6836E-10  0.1586E-08  0.7571E-13  0.1000E-09  0.0000E+00  0.4446E+16
   -0.756233    3.01994  0.6782E-10  0.2736E-08  0.1280E-12  0.1939E-09  0.0000E+00  0.3361E+16
   -0.824984    3.27183  0.6705E-10  0.4691E-08  0.2151E-12  0.4721E-09  0.0000E+00  0.2320E+16
   -0.893735    3.52035  0.6638E-10  0.7992E-08  0.3592E-12  0.1383E-08  0.0000E+00  0.1323E+16
   -0.962487    3.76449  0.6608E-10  0.1349E-07  0.5945E-12  0.7862E-08  0.0000E+00  0.3856E+15
   -1.031239    3.99548  0.6602E-10  0.1383E-07  0.6101E-12  0.1079E-03  0.0000E+00 -0.4626E+11
   -1.099991    3.99580  0.6602E-10  0.1398E-07  0.6185E-12  0.1190E-03  0.0000E+00 -0.4329E+11
   -1.168743    3.99609  0.6602E-10  0.1411E-07  0.6270E-12  0.1206E-03  0.0000E+00 -0.4401E+11
   -1.237495    3.99637  0.6602E-10  0.1422E-07  0.6358E-12  0.1209E-03  0.0000E+00 -0.4521E+11
   -1.306247    3.99665  0.6602E-10  0.1433E-07  0.6453E-12  0.1210E-03  0.0000E+00 -0.4649E+11
   -1.374999    3.99694  0.6602E-10  0.1442E-07  0.6556E-12  0.1208E-03  0.0000E+00 -0.4783E+11
   -1.443752    3.99722  0.6602E-10  0.1451E-07  0.6666E-12  0.1203E-03  0.0000E+00 -0.4924E+11
   -1.512504    3.99751  0.6602E-10  0.1459E-07  0.6787E-12  0.1196E-03  0.0000E+00 -0.5077E+11
   -1.581256    3.99779  0.6602E-10  0.1466E-07  0.6917E-12  0.1186E-03  0.0000E+00 -0.5245E+11
   -1.650008    3.99808  0.6602E-10  0.1472E-07  0.7059E-12  0.1173E-03  0.0000E+00 -0.5431E+11
   -1.718760    3.99837  0.6602E-10  0.1476E-07  0.7214E-12  0.1157E-03  0.0000E+00 -0.5637E+11
   -1.787512    3.99867  0.6602E-10  0.1480E-07  0.7384E-12  0.1138E-03  0.0000E+00 -0.5867E+11
   -1.856263    3.99897  0.6602E-10  0.1483E-07  0.7572E-12  0.1116E-03  0.0000E+00 -0.6128E+11
   -1.925014    3.99927  0.6602E-10  0.1484E-07  0.7785E-12  0.1090E-03  0.0000E+00 -0.6426E+11
   -1.993765    3.99959  0.6602E-10  0.1484E-07  0.8034E-12  0.1059E-03  0.0000E+00 -0.6774E+11
   -2.062516    3.99991  0.6602E-10  0.1481E-07  0.8338E-12  0.1012E-03  0.0000E+00 -0.7273E+11
   -2.131266    4.00025  0.6602E-10  0.1477E-07  0.8732E-12  0.9137E-04  0.0000E+00 -0.8296E+11
   -2.200016    4.00062  0.6602E-10  0.1468E-07  0.9240E-12  0.7946E-04  0.0000E+00 -0.9858E+11
   -2.268766    4.00105  0.6602E-10  0.1456E-07  0.9913E-12  0.6861E-04  0.0000E+00 -0.1186E+12
   -2.337515    4.00156  0.6602E-10  0.1436E-07  0.1083E-11  0.5866E-04  0.0000E+00 -0.1452E+12
   -2.406264    4.00216  0.6602E-10  0.1408E-07  0.1217E-11  0.4822E-04  0.0000E+00 -0.1868E+12
   -2.475012    4.00289  0.6602E-10  0.1363E-07  0.1430E-11  0.3650E-04  0.0000E+00 -0.2653E+12
   -2.543759    4.00389  0.6602E-10  0.1284E-07  0.1832E-11  0.2325E-04  0.0000E+00 -0.4597E+12
   -2.612506    4.00548  0.6602E-10  0.1129E-07  0.2781E-11  0.1038E-04  0.0000E+00 -0.1205E+13
   -2.681253    4.00915  0.6602E-10  0.5381E-08  0.8521E-11  0.6445E-06  0.0000E+00 -0.3912E+14
   -2.749999    4.06060  0.6602E-10  0.0000E+00  0.0000E+00  0.0000E+00  0.0000E+00  0.0000E+00
