 1 - depth, m
 2 - temperature, C
 3 - salinity, kg/kg
 4 - turbulent kinetic energy, m**2/s**2
 5 - dissipation rate, m**2/s**3
 6 - kinematic heat conductance, m**2/s
 7 - modulus of horizontal velocity, m/s
 8 - Richardson number, n/d
   -0.000000   -0.00000  0.2301E-09  0.7779E-12  0.1521E-15  0.1000E-09  0.0000E+00  0.1611E+17
   -0.068746    0.24995  0.1900E-09  0.1748E-11  0.1498E-15  0.1000E-09  0.0000E+00  0.1521E+17
   -0.137493    0.50362  0.1199E-09  0.3696E-11  0.2233E-15  0.1000E-09  0.0000E+00  0.1408E+17
   -0.206240    0.75715  0.8557E-10  0.7112E-11  0.3778E-15  0.1000E-09  0.0000E+00  0.1288E+17
   -0.274988    1.00915  0.7356E-10  0.1301E-10  0.6535E-15  0.1000E-09  0.0000E+00  0.1168E+17
   -0.343737    1.25868  0.7002E-10  0.2313E-10  0.1125E-14  0.1000E-09  0.0000E+00  0.1050E+17
   -0.412486    1.50544  0.6907E-10  0.4048E-10  0.1920E-14  0.1000E-09  0.0000E+00  0.9343E+16
   -0.481235    1.74883  0.6881E-10  0.7011E-10  0.3252E-14  0.1000E-09  0.0000E+00  0.8220E+16
   -0.549985    1.98833  0.6867E-10  0.1204E-09  0.5466E-14  0.1000E-09  0.0000E+00  0.7150E+16
   -0.618735    2.22389  0.6847E-10  0.2047E-09  0.9096E-14  0.1000E-09  0.0000E+00  0.6136E+16
   -0.687486    2.45560  0.6813E-10  0.3451E-09  0.1501E-13  0.1000E-09  0.0000E+00  0.5171E+16
   -0.756237    2.68334  0.6762E-10  0.5774E-09  0.2460E-13  0.1000E-09  0.0000E+00  0.4273E+16
   -0.824988    2.90814  0.6701E-10  0.9590E-09  0.4002E-13  0.1000E-09  0.0000E+00  0.3414E+16
   -0.893740    3.13003  0.6650E-10  0.1581E-08  0.6461E-13  0.1283E-09  0.0000E+00  0.2593E+16
   -0.962492    3.34911  0.6620E-10  0.2586E-08  0.1035E-12  0.2923E-09  0.0000E+00  0.1809E+16
   -1.031244    3.56551  0.6607E-10  0.4196E-08  0.1646E-12  0.7968E-09  0.0000E+00  0.1057E+16
   -1.099996    3.77931  0.6603E-10  0.6757E-08  0.2597E-12  0.3987E-08  0.0000E+00  0.3362E+15
   -1.168749    3.98686  0.6602E-10  0.7152E-08  0.2752E-12  0.3943E-04  0.0000E+00  0.2234E+12
   -1.237501    3.98947  0.6602E-10  0.7332E-08  0.2835E-12  0.4724E-04  0.0000E+00 -0.3091E+11
   -1.306254    3.99011  0.6602E-10  0.7494E-08  0.2922E-12  0.5141E-04  0.0000E+00 -0.3422E+11
   -1.375006    3.99069  0.6602E-10  0.7650E-08  0.3019E-12  0.5475E-04  0.0000E+00 -0.3683E+11
   -1.443759    3.99122  0.6602E-10  0.7800E-08  0.3125E-12  0.5744E-04  0.0000E+00 -0.3925E+11
   -1.512512    3.99172  0.6602E-10  0.7943E-08  0.3239E-12  0.5946E-04  0.0000E+00 -0.4168E+11
   -1.581264    3.99220  0.6602E-10  0.8077E-08  0.3362E-12  0.6087E-04  0.0000E+00 -0.4424E+11
   -1.650016    3.99267  0.6602E-10  0.8202E-08  0.3495E-12  0.6169E-04  0.0000E+00 -0.4704E+11
   -1.718769    3.99313  0.6602E-10  0.8317E-08  0.3638E-12  0.6197E-04  0.0000E+00 -0.5015E+11
   -1.787521    3.99359  0.6602E-10  0.8421E-08  0.3794E-12  0.6172E-04  0.0000E+00 -0.5367E+11
   -1.856273    3.99405  0.6602E-10  0.8512E-08  0.3963E-12  0.6097E-04  0.0000E+00 -0.5772E+11
   -1.925024    3.99452  0.6602E-10  0.8590E-08  0.4149E-12  0.5971E-04  0.0000E+00 -0.6246E+11
   -1.993776    3.99500  0.6602E-10  0.8652E-08  0.4355E-12  0.5795E-04  0.0000E+00 -0.6808E+11
   -2.062527    3.99549  0.6602E-10  0.8697E-08  0.4587E-12  0.5567E-04  0.0000E+00 -0.7500E+11
   -2.131277    3.99600  0.6602E-10  0.8723E-08  0.4867E-12  0.5267E-04  0.0000E+00 -0.8403E+11
   -2.200028    3.99654  0.6602E-10  0.8726E-08  0.5213E-12  0.4888E-04  0.0000E+00 -0.9618E+11
   -2.268778    3.99712  0.6602E-10  0.8698E-08  0.5656E-12  0.4425E-04  0.0000E+00 -0.1133E+12
   -2.337527    3.99777  0.6602E-10  0.8628E-08  0.6249E-12  0.3867E-04  0.0000E+00 -0.1393E+12
   -2.406276    3.99853  0.6602E-10  0.8492E-08  0.7101E-12  0.3204E-04  0.0000E+00 -0.1827E+12
   -2.475025    3.99945  0.6602E-10  0.8245E-08  0.8456E-12  0.2427E-04  0.0000E+00 -0.2675E+12
   -2.543773    4.00069  0.6602E-10  0.7766E-08  0.1104E-11  0.1528E-04  0.0000E+00 -0.4882E+12
   -2.612520    4.00272  0.6602E-10  0.6751E-08  0.1727E-11  0.6523E-05  0.0000E+00 -0.1433E+13
   -2.681267    4.00757  0.6602E-10  0.3379E-08  0.5097E-11  0.4767E-06  0.0000E+00 -0.4206E+14
   -2.750013    4.06263  0.6602E-10  0.0000E+00  0.0000E+00  0.0000E+00  0.0000E+00  0.0000E+00
