 1 - depth, m
 2 - temperature, C
 3 - salinity, kg/kg
 4 - turbulent kinetic energy, m**2/s**2
 5 - dissipation rate, m**2/s**3
 6 - kinematic heat conductance, m**2/s
 7 - modulus of horizontal velocity, m/s
 8 - Richardson number, n/d
   -0.000000   -0.00000  0.3625E-09  0.2268E-11  0.5693E-15  0.1000E-09  0.0000E+00  0.1845E+17
   -0.068746    0.28790  0.1584E-09  0.5879E-11  0.5257E-15  0.1000E-09  0.0000E+00  0.1695E+17
   -0.137492    0.57515  0.8945E-10  0.1289E-10  0.7564E-15  0.1000E-09  0.0000E+00  0.1537E+17
   -0.206239    0.85967  0.7373E-10  0.2480E-10  0.1250E-14  0.1000E-09  0.0000E+00  0.1382E+17
   -0.274987    1.14111  0.7001E-10  0.4478E-10  0.2116E-14  0.1000E-09  0.0000E+00  0.1231E+17
   -0.343735    1.41914  0.6907E-10  0.7820E-10  0.3567E-14  0.1000E-09  0.0000E+00  0.1087E+17
   -0.412483    1.69369  0.6884E-10  0.1340E-09  0.5960E-14  0.1000E-09  0.0000E+00  0.9473E+16
   -0.481232    1.96444  0.6878E-10  0.2271E-09  0.9874E-14  0.1000E-09  0.0000E+00  0.8132E+16
   -0.549982    2.23111  0.6873E-10  0.3814E-09  0.1624E-13  0.1000E-09  0.0000E+00  0.6856E+16
   -0.618732    2.49371  0.6862E-10  0.6336E-09  0.2643E-13  0.1000E-09  0.0000E+00  0.5645E+16
   -0.687482    2.75232  0.6834E-10  0.1043E-08  0.4264E-13  0.1000E-09  0.0000E+00  0.4492E+16
   -0.756233    3.00690  0.6779E-10  0.1704E-08  0.6828E-13  0.1084E-09  0.0000E+00  0.3410E+16
   -0.824984    3.25848  0.6703E-10  0.2761E-08  0.1085E-12  0.2332E-09  0.0000E+00  0.2370E+16
   -0.893735    3.50663  0.6638E-10  0.4439E-08  0.1711E-12  0.6345E-09  0.0000E+00  0.1373E+16
   -0.962487    3.75015  0.6608E-10  0.7075E-08  0.2675E-12  0.3140E-08  0.0000E+00  0.4363E+15
   -1.031239    3.98190  0.6602E-10  0.7637E-08  0.2889E-12  0.3290E-04  0.0000E+00  0.1624E+13
   -1.099990    3.98884  0.6602E-10  0.7843E-08  0.2982E-12  0.4555E-04  0.0000E+00 -0.2665E+11
   -1.168742    3.98953  0.6602E-10  0.8022E-08  0.3076E-12  0.5096E-04  0.0000E+00 -0.3077E+11
   -1.237495    3.99013  0.6602E-10  0.8199E-08  0.3181E-12  0.5541E-04  0.0000E+00 -0.3388E+11
   -1.306247    3.99069  0.6602E-10  0.8373E-08  0.3296E-12  0.5915E-04  0.0000E+00 -0.3658E+11
   -1.374999    3.99121  0.6602E-10  0.8542E-08  0.3421E-12  0.6230E-04  0.0000E+00 -0.3908E+11
   -1.443751    3.99170  0.6602E-10  0.8705E-08  0.3555E-12  0.6482E-04  0.0000E+00 -0.4155E+11
   -1.512503    3.99218  0.6602E-10  0.8861E-08  0.3699E-12  0.6674E-04  0.0000E+00 -0.4414E+11
   -1.581256    3.99265  0.6602E-10  0.9009E-08  0.3853E-12  0.6794E-04  0.0000E+00 -0.4701E+11
   -1.650008    3.99311  0.6602E-10  0.9147E-08  0.4017E-12  0.6853E-04  0.0000E+00 -0.5020E+11
   -1.718760    3.99357  0.6602E-10  0.9276E-08  0.4195E-12  0.6855E-04  0.0000E+00 -0.5379E+11
   -1.787511    3.99403  0.6602E-10  0.9393E-08  0.4386E-12  0.6809E-04  0.0000E+00 -0.5785E+11
   -1.856263    3.99450  0.6602E-10  0.9498E-08  0.4593E-12  0.6713E-04  0.0000E+00 -0.6251E+11
   -1.925014    3.99497  0.6602E-10  0.9588E-08  0.4821E-12  0.6570E-04  0.0000E+00 -0.6793E+11
   -1.993765    3.99546  0.6602E-10  0.9663E-08  0.5072E-12  0.6372E-04  0.0000E+00 -0.7438E+11
   -2.062516    3.99597  0.6602E-10  0.9719E-08  0.5356E-12  0.6111E-04  0.0000E+00 -0.8230E+11
   -2.131266    3.99650  0.6602E-10  0.9755E-08  0.5699E-12  0.5757E-04  0.0000E+00 -0.9274E+11
   -2.200016    3.99706  0.6602E-10  0.9767E-08  0.6122E-12  0.5319E-04  0.0000E+00 -0.1068E+12
   -2.268766    3.99768  0.6602E-10  0.9745E-08  0.6662E-12  0.4799E-04  0.0000E+00 -0.1266E+12
   -2.337515    3.99837  0.6602E-10  0.9677E-08  0.7385E-12  0.4186E-04  0.0000E+00 -0.1563E+12
   -2.406263    3.99917  0.6602E-10  0.9538E-08  0.8418E-12  0.3464E-04  0.0000E+00 -0.2056E+12
   -2.475011    4.00015  0.6602E-10  0.9278E-08  0.1006E-11  0.2622E-04  0.0000E+00 -0.3018E+12
   -2.543759    4.00148  0.6602E-10  0.8763E-08  0.1317E-11  0.1653E-04  0.0000E+00 -0.5510E+12
   -2.612506    4.00364  0.6602E-10  0.7662E-08  0.2065E-11  0.7119E-05  0.0000E+00 -0.1604E+13
   -2.681252    4.00878  0.6602E-10  0.3909E-08  0.6150E-11  0.5358E-06  0.0000E+00 -0.4646E+14
   -2.749998    4.06656  0.6602E-10  0.0000E+00  0.0000E+00  0.0000E+00  0.0000E+00  0.0000E+00
