 1 - depth, m
 2 - temperature, C
 3 - salinity, kg/kg
 4 - turbulent kinetic energy, m**2/s**2
 5 - dissipation rate, m**2/s**3
 6 - kinematic heat conductance, m**2/s
 7 - modulus of horizontal velocity, m/s
 8 - Richardson number, n/d
   -0.000000   -0.00000  0.4163E-09  0.1219E-13  0.7604E-17  0.1000E-09  0.0000E+00  0.8459E+16
   -0.068746    0.12913  0.1572E-09  0.1219E-13  0.7604E-17  0.1000E-09  0.0000E+00  0.8008E+16
   -0.137492    0.25578  0.1077E-09  0.1219E-13  0.7604E-17  0.1000E-09  0.0000E+00  0.7513E+16
   -0.206239    0.37890  0.9158E-10  0.1219E-13  0.7604E-17  0.1000E-09  0.0000E+00  0.7039E+16
   -0.274986    0.49844  0.8690E-10  0.1219E-13  0.7604E-17  0.1000E-09  0.0000E+00  0.6589E+16
   -0.343734    0.61441  0.8579E-10  0.1219E-13  0.7604E-17  0.1000E-09  0.0000E+00  0.6188E+16
   -0.412482    0.72730  0.8558E-10  0.1219E-13  0.7604E-17  0.1000E-09  0.0000E+00  0.5807E+16
   -0.481231    0.83712  0.8554E-10  0.1219E-13  0.7604E-17  0.1000E-09  0.0000E+00  0.5445E+16
   -0.549981    0.94390  0.8553E-10  0.1219E-13  0.7604E-17  0.1000E-09  0.0000E+00  0.5123E+16
   -0.618731    1.04808  0.8553E-10  0.1219E-13  0.7604E-17  0.1000E-09  0.0000E+00  0.4838E+16
   -0.687481    1.15016  0.8553E-10  0.1219E-13  0.7604E-17  0.1000E-09  0.0000E+00  0.4571E+16
   -0.756231    1.25029  0.8553E-10  0.1219E-13  0.7604E-17  0.1000E-09  0.0000E+00  0.4359E+16
   -0.824982    1.34947  0.8552E-10  0.1219E-13  0.7604E-17  0.1000E-09  0.0000E+00  0.4153E+16
   -0.893733    1.44774  0.8550E-10  0.1219E-13  0.7604E-17  0.1000E-09  0.0000E+00  0.3954E+16
   -0.962485    1.54512  0.8546E-10  0.1219E-13  0.7604E-17  0.1000E-09  0.0000E+00  0.3760E+16
   -1.031236    1.64163  0.8538E-10  0.1219E-13  0.7604E-17  0.1000E-09  0.0000E+00  0.3571E+16
   -1.099988    1.73727  0.8523E-10  0.1219E-13  0.7604E-17  0.1000E-09  0.0000E+00  0.3387E+16
   -1.168740    1.83208  0.8499E-10  0.1219E-13  0.7604E-17  0.1000E-09  0.0000E+00  0.3207E+16
   -1.237492    1.92599  0.8466E-10  0.1219E-13  0.7604E-17  0.1000E-09  0.0000E+00  0.3029E+16
   -1.306244    2.01894  0.8425E-10  0.1219E-13  0.7604E-17  0.1000E-09  0.0000E+00  0.2853E+16
   -1.374996    2.11086  0.8381E-10  0.1219E-13  0.7604E-17  0.1000E-09  0.0000E+00  0.2692E+16
   -1.443748    2.20208  0.8338E-10  0.1219E-13  0.7604E-17  0.1000E-09  0.0000E+00  0.2552E+16
   -1.512500    2.29320  0.8295E-10  0.1219E-13  0.7604E-17  0.1000E-09  0.0000E+00  0.2410E+16
   -1.581252    2.38413  0.8252E-10  0.1219E-13  0.7604E-17  0.1000E-09  0.0000E+00  0.2266E+16
   -1.650004    2.47477  0.8210E-10  0.1219E-13  0.7604E-17  0.1000E-09  0.0000E+00  0.2121E+16
   -1.718756    2.56498  0.8176E-10  0.1219E-13  0.7604E-17  0.1000E-09  0.0000E+00  0.1976E+16
   -1.787507    2.65463  0.8152E-10  0.1219E-13  0.7604E-17  0.1000E-09  0.0000E+00  0.1831E+16
   -1.856259    2.74357  0.8137E-10  0.1219E-13  0.7604E-17  0.1000E-09  0.0000E+00  0.1685E+16
   -1.925010    2.83163  0.8129E-10  0.1219E-13  0.7604E-17  0.1000E-09  0.0000E+00  0.1541E+16
   -1.993760    2.91863  0.8124E-10  0.1219E-13  0.7604E-17  0.1000E-09  0.0000E+00  0.1399E+16
   -2.062511    3.00437  0.8122E-10  0.1219E-13  0.7604E-17  0.1000E-09  0.0000E+00  0.1308E+16
   -2.131261    3.09206  0.8121E-10  0.1219E-13  0.7604E-17  0.1000E-09  0.0000E+00  0.1237E+16
   -2.200011    3.18389  0.8121E-10  0.1219E-13  0.7604E-17  0.1000E-09  0.0000E+00  0.1159E+16
   -2.268760    3.28085  0.8121E-10  0.1219E-13  0.1013E-16  0.1000E-09  0.0000E+00  0.1071E+16
   -2.337509    3.38432  0.8121E-10  0.5588E-13  0.6652E-16  0.1000E-09  0.0000E+00  0.9674E+15
   -2.406258    3.49646  0.8121E-10  0.5492E-12  0.6430E-15  0.1000E-09  0.0000E+00  0.8386E+15
   -2.475006    3.62079  0.8121E-10  0.5478E-11  0.6281E-14  0.1000E-09  0.0000E+00  0.6609E+15
   -2.543753    3.76356  0.8121E-10  0.5483E-10  0.6198E-13  0.7490E-09  0.0000E+00  0.3642E+15
   -2.612500    3.92945  0.8121E-10  0.5106E-09  0.5851E-12  0.7193E-07  0.0000E+00 -0.1422E+14
   -2.681246    4.05743  0.8121E-10  0.2618E-08  0.5215E-11  0.4032E-06  0.0000E+00 -0.1016E+15
   -2.749992    4.12067  0.8121E-10  0.0000E+00  0.0000E+00  0.0000E+00  0.0000E+00  0.0000E+00
