 1 - depth, m
 2 - temperature, C
 3 - salinity, kg/kg
 4 - turbulent kinetic energy, m**2/s**2
 5 - dissipation rate, m**2/s**3
 6 - kinematic heat conductance, m**2/s
 7 - modulus of horizontal velocity, m/s
 8 - Richardson number, n/d
   -0.000000    7.84345  0.6928E-10  0.4276E-03  0.3186E-03  0.1335E-03  0.2267E+00  0.3811E-01
   -0.068746    7.88208  0.6929E-10  0.2317E-03  0.8075E-04  0.3319E-03  0.6913E-01 -0.7029E-01
   -0.137492    7.88795  0.6929E-10  0.1671E-03  0.3603E-04  0.2946E-03  0.5333E-01 -0.7399E-02
   -0.206239    7.89307  0.6929E-10  0.1253E-03  0.1748E-04  0.2834E-03  0.4484E-01 -0.5014E-02
   -0.274987    7.89686  0.6929E-10  0.9804E-04  0.8998E-05  0.2891E-03  0.3892E-01 -0.9179E-02
   -0.343735    7.89986  0.6930E-10  0.7968E-04  0.4819E-05  0.3018E-03  0.3446E-01 -0.7054E-02
   -0.412484    7.90243  0.6930E-10  0.6679E-04  0.2730E-05  0.3252E-03  0.3057E-01 -0.1193E-01
   -0.481233    7.90464  0.6930E-10  0.5760E-04  0.1654E-05  0.3569E-03  0.2734E-01 -0.1528E-01
   -0.549983    7.90656  0.6930E-10  0.5114E-04  0.1078E-05  0.3902E-03  0.2470E-01 -0.1785E-01
   -0.618733    7.90824  0.6930E-10  0.4657E-04  0.7531E-06  0.4227E-03  0.2245E-01 -0.1956E-01
   -0.687483    7.90975  0.6930E-10  0.4315E-04  0.5567E-06  0.4579E-03  0.2045E-01 -0.2184E-01
   -0.756234    7.91111  0.6930E-10  0.4048E-04  0.4302E-06  0.4937E-03  0.1868E-01 -0.2446E-01
   -0.824985    7.91235  0.6930E-10  0.3829E-04  0.3442E-06  0.5289E-03  0.1709E-01 -0.2730E-01
   -0.893737    7.91349  0.6930E-10  0.3641E-04  0.2832E-06  0.5621E-03  0.1565E-01 -0.3026E-01
   -0.962488    7.91455  0.6930E-10  0.3473E-04  0.2379E-06  0.5923E-03  0.1434E-01 -0.3319E-01
   -1.031240    7.91554  0.6930E-10  0.3314E-04  0.2028E-06  0.6217E-03  0.1313E-01 -0.3690E-01
   -1.099992    7.91648  0.6930E-10  0.3161E-04  0.1747E-06  0.6579E-03  0.1201E-01 -0.4318E-01
   -1.168744    7.91736  0.6930E-10  0.3016E-04  0.1520E-06  0.6922E-03  0.1101E-01  0.2145E+02
   -1.237496    7.91819  0.6930E-10  0.2880E-04  0.1334E-06  0.7249E-03  0.1011E-01 -0.3789E-01
   -1.306249    7.91898  0.6930E-10  0.2752E-04  0.1180E-06  0.7546E-03  0.9296E-02 -0.3967E-01
   -1.375001    7.91974  0.6930E-10  0.2633E-04  0.1051E-06  0.7835E-03  0.8552E-02  0.2177E-01
   -1.443753    7.92047  0.6930E-10  0.2522E-04  0.9418E-07  0.8154E-03  0.7871E-02  0.6473E+00
   -1.512506    7.92116  0.6930E-10  0.2418E-04  0.8495E-07  0.8572E-03  0.7243E-02  0.2072E+02
   -1.581258    7.92183  0.6930E-10  0.2321E-04  0.7709E-07  0.9092E-03  0.6661E-02  0.1453E+02
   -1.650010    7.92246  0.6930E-10  0.2230E-04  0.7036E-07  0.9663E-03  0.6120E-02  0.2629E+02
   -1.718762    7.92306  0.6930E-10  0.2144E-04  0.6460E-07  0.1054E-02  0.5612E-02  0.1135E+03
   -1.787514    7.92361  0.6930E-10  0.2064E-04  0.5964E-07  0.1113E-02  0.5135E-02  0.5251E+03
   -1.856266    7.92415  0.6930E-10  0.1987E-04  0.5537E-07  0.1143E-02  0.4682E-02  0.2293E+03
   -1.925017    7.92467  0.6930E-10  0.1913E-04  0.5169E-07  0.1159E-02  0.4246E-02  0.5486E+03
   -1.993768    7.92517  0.6930E-10  0.1841E-04  0.4853E-07  0.1166E-02  0.3825E-02  0.1080E+02
   -2.062519    7.92568  0.6930E-10  0.1771E-04  0.4582E-07  0.1183E-02  0.3412E-02  0.5110E+01
   -2.131269    7.92617  0.6930E-10  0.1699E-04  0.4346E-07  0.1192E-02  0.3031E-02  0.1456E+02
   -2.200019    7.92666  0.6930E-10  0.1627E-04  0.4151E-07  0.1177E-02  0.2687E-02  0.9508E+01
   -2.268769    7.92716  0.6930E-10  0.1553E-04  0.4001E-07  0.1134E-02  0.2376E-02  0.5462E+01
   -2.337518    7.92767  0.6930E-10  0.1478E-04  0.3907E-07  0.1060E-02  0.2097E-02  0.2004E+02
   -2.406267    7.92822  0.6930E-10  0.1400E-04  0.3887E-07  0.9516E-03  0.1848E-02  0.1106E+02
   -2.475015    7.92883  0.6930E-10  0.1314E-04  0.3979E-07  0.8198E-03  0.1629E-02  0.7050E+01
   -2.543763    7.92954  0.6930E-10  0.1206E-04  0.4307E-07  0.6136E-03  0.1441E-02  0.1851E+02
   -2.612510    7.93049  0.6930E-10  0.1055E-04  0.5256E-07  0.3095E-03  0.1271E-02  0.9189E+03
   -2.681256    7.93225  0.6930E-10  0.4511E-05  0.1373E-06  0.1928E-04  0.1109E-02 -0.4722E+04
   -2.750002    7.96079  0.6930E-10  0.0000E+00  0.0000E+00  0.0000E+00  0.1093E-02  0.0000E+00
