 1 - depth, m
 2 - temperature, C
 3 - salinity, kg/kg
 4 - turbulent kinetic energy, m**2/s**2
 5 - dissipation rate, m**2/s**3
 6 - kinematic heat conductance, m**2/s
 7 - modulus of horizontal velocity, m/s
 8 - Richardson number, n/d
   -0.000000    8.73372  0.6629E-10  0.1568E-03  0.5932E-04  0.1072E-03  0.1205E+00 -0.1984E-01
   -0.068746    8.77770  0.6628E-10  0.8292E-04  0.1390E-04  0.1407E-03  0.4359E-01 -0.7396E-02
   -0.137492    8.78500  0.6628E-10  0.5849E-04  0.5507E-05  0.1390E-03  0.3327E-01 -0.9776E-02
   -0.206239    8.79098  0.6628E-10  0.4369E-04  0.2466E-05  0.1488E-03  0.2718E-01 -0.1476E-01
   -0.274987    8.79598  0.6628E-10  0.3417E-04  0.1205E-05  0.1658E-03  0.2275E-01 -0.2211E-01
   -0.343735    8.80025  0.6628E-10  0.2814E-04  0.6502E-06  0.1844E-03  0.1940E-01 -0.2793E-01
   -0.412483    8.80396  0.6628E-10  0.2401E-04  0.3863E-06  0.2078E-03  0.1665E-01 -0.3699E-01
   -0.481232    8.80717  0.6628E-10  0.2110E-04  0.2500E-06  0.2364E-03  0.1445E-01 -0.5073E-01
   -0.549982    8.80991  0.6628E-10  0.1907E-04  0.1746E-06  0.2671E-03  0.1272E-01 -0.6499E-01
   -0.618732    8.81228  0.6628E-10  0.1762E-04  0.1299E-06  0.2984E-03  0.1130E-01 -0.7719E-01
   -0.687482    8.81435  0.6628E-10  0.1650E-04  0.1012E-06  0.3324E-03  0.1008E-01 -0.9171E-01
   -0.756233    8.81618  0.6628E-10  0.1558E-04  0.8165E-07  0.3681E-03  0.9027E-02 -0.1058E+00
   -0.824984    8.81781  0.6628E-10  0.1479E-04  0.6765E-07  0.4059E-03  0.8112E-02 -0.1029E+00
   -0.893735    8.81927  0.6628E-10  0.1409E-04  0.5718E-07  0.4517E-03  0.7308E-02  0.1354E+00
   -0.962487    8.82059  0.6628E-10  0.1345E-04  0.4906E-07  0.5210E-03  0.6593E-02  0.3517E+02
   -1.031238    8.82175  0.6628E-10  0.1286E-04  0.4258E-07  0.6465E-03  0.5952E-02  0.1689E+02
   -1.099990    8.82273  0.6628E-10  0.1231E-04  0.3732E-07  0.8311E-03  0.5384E-02  0.1578E+03
   -1.168742    8.82354  0.6628E-10  0.1180E-04  0.3304E-07  0.9903E-03  0.4898E-02  0.4547E+02
   -1.237494    8.82421  0.6628E-10  0.1135E-04  0.2953E-07  0.1144E-02  0.4469E-02  0.3678E+02
   -1.306247    8.82476  0.6628E-10  0.1093E-04  0.2659E-07  0.1264E-02  0.4084E-02  0.3095E+02
   -1.374999    8.82523  0.6628E-10  0.1054E-04  0.2410E-07  0.1344E-02  0.3732E-02  0.1796E+03
   -1.443751    8.82565  0.6628E-10  0.1017E-04  0.2196E-07  0.1391E-02  0.3406E-02  0.7883E+01
   -1.512503    8.82605  0.6628E-10  0.9826E-05  0.2010E-07  0.1407E-02  0.3102E-02  0.4558E+01
   -1.581255    8.82645  0.6628E-10  0.9494E-05  0.1849E-07  0.1412E-02  0.2816E-02  0.4149E+01
   -1.650008    8.82684  0.6628E-10  0.9175E-05  0.1708E-07  0.1414E-02  0.2546E-02  0.3880E+01
   -1.718759    8.82723  0.6628E-10  0.8867E-05  0.1587E-07  0.1414E-02  0.2292E-02  0.3673E+01
   -1.787511    8.82761  0.6628E-10  0.8568E-05  0.1482E-07  0.1409E-02  0.2051E-02  0.3512E+01
   -1.856263    8.82800  0.6628E-10  0.8275E-05  0.1393E-07  0.1400E-02  0.1822E-02  0.3391E+01
   -1.925014    8.82839  0.6628E-10  0.7987E-05  0.1319E-07  0.1383E-02  0.1603E-02  0.3307E+01
   -1.993765    8.82879  0.6628E-10  0.7702E-05  0.1258E-07  0.1356E-02  0.1393E-02  0.3248E+01
   -2.062516    8.82919  0.6628E-10  0.7419E-05  0.1211E-07  0.1340E-02  0.1189E-02  0.2445E+01
   -2.131266    8.82960  0.6628E-10  0.7133E-05  0.1177E-07  0.1319E-02  0.1008E-02  0.1769E+01
   -2.200016    8.83001  0.6628E-10  0.6852E-05  0.1158E-07  0.1287E-02  0.8523E-03  0.1328E+01
   -2.268765    8.83044  0.6628E-10  0.6582E-05  0.1156E-07  0.1201E-02  0.7220E-03  0.1009E+01
   -2.337515    8.83089  0.6628E-10  0.6329E-05  0.1174E-07  0.1095E-02  0.6160E-03  0.8676E+00
   -2.406263    8.83139  0.6628E-10  0.6091E-05  0.1213E-07  0.9907E-03  0.5317E-03  0.1004E+01
   -2.475011    8.83194  0.6628E-10  0.5849E-05  0.1285E-07  0.8775E-03  0.4672E-03  0.1745E+01
   -2.543759    8.83256  0.6628E-10  0.5558E-05  0.1421E-07  0.7705E-03  0.4155E-03  0.4749E+01
   -2.612506    8.83328  0.6628E-10  0.5095E-05  0.1752E-07  0.4574E-03  0.3747E-03  0.9404E+02
   -2.681252    8.83447  0.6628E-10  0.2351E-05  0.5161E-07  0.1519E-04  0.3257E-03 -0.9465E+04
   -2.749998    8.87022  0.6628E-10  0.0000E+00  0.0000E+00  0.0000E+00  0.3234E-03  0.0000E+00
