 1 - depth, m
 2 - temperature, C
 3 - salinity, kg/kg
 4 - turbulent kinetic energy, m**2/s**2
 5 - dissipation rate, m**2/s**3
 6 - kinematic heat conductance, m**2/s
 7 - modulus of horizontal velocity, m/s
 8 - Richardson number, n/d
   -0.000000   15.77051  0.6711E-10  0.2093E-04  0.1280E-05  0.3608E-04  0.2859E-01 -0.2466E-01
   -0.068746   15.80640  0.6711E-10  0.1679E-04  0.3908E-06  0.8200E-04  0.1564E-01 -0.7722E-01
   -0.137492   15.82036  0.6711E-10  0.1454E-04  0.1947E-06  0.1340E-03  0.1113E-01 -0.1464E+00
   -0.206240   15.82849  0.6711E-10  0.1316E-04  0.1178E-06  0.2036E-03  0.8638E-02 -0.2429E+00
   -0.274987   15.83358  0.6711E-10  0.1234E-04  0.8068E-07  0.3595E-03  0.7129E-02  0.5763E+02
   -0.343735   15.83650  0.6711E-10  0.1192E-04  0.6207E-07  0.6763E-03  0.6196E-02  0.3136E+03
   -0.412484   15.83797  0.6711E-10  0.1177E-04  0.5174E-07  0.8839E-03  0.5635E-02  0.2668E+01
   -0.481234   15.83900  0.6711E-10  0.1175E-04  0.4453E-07  0.1002E-02  0.5194E-02  0.2541E+01
   -0.549983   15.83989  0.6711E-10  0.1181E-04  0.3905E-07  0.1140E-02  0.4797E-02  0.2653E+01
   -0.618733   15.84065  0.6711E-10  0.1193E-04  0.3490E-07  0.1249E-02  0.4443E-02  0.2885E+01
   -0.687484   15.84133  0.6711E-10  0.1209E-04  0.3164E-07  0.1308E-02  0.4111E-02  0.3056E+01
   -0.756235   15.84198  0.6711E-10  0.1226E-04  0.2903E-07  0.1368E-02  0.3799E-02  0.3191E+01
   -0.824986   15.84259  0.6711E-10  0.1243E-04  0.2690E-07  0.1427E-02  0.3504E-02  0.3308E+01
   -0.893737   15.84317  0.6711E-10  0.1260E-04  0.2515E-07  0.1485E-02  0.3223E-02  0.3413E+01
   -0.962489   15.84373  0.6711E-10  0.1275E-04  0.2369E-07  0.1543E-02  0.2953E-02  0.3509E+01
   -1.031241   15.84427  0.6711E-10  0.1287E-04  0.2246E-07  0.1604E-02  0.2693E-02  0.3502E+01
   -1.099993   15.84479  0.6711E-10  0.1297E-04  0.2142E-07  0.1681E-02  0.2444E-02  0.3200E+01
   -1.168745   15.84528  0.6711E-10  0.1303E-04  0.2056E-07  0.1755E-02  0.2216E-02  0.2940E+01
   -1.237497   15.84575  0.6711E-10  0.1306E-04  0.1986E-07  0.1825E-02  0.2006E-02  0.2715E+01
   -1.306250   15.84621  0.6711E-10  0.1306E-04  0.1932E-07  0.1890E-02  0.1815E-02  0.2519E+01
   -1.375002   15.84666  0.6711E-10  0.1303E-04  0.1890E-07  0.1950E-02  0.1640E-02  0.2347E+01
   -1.443754   15.84709  0.6711E-10  0.1297E-04  0.1862E-07  0.2007E-02  0.1481E-02  0.2193E+01
   -1.512507   15.84752  0.6711E-10  0.1288E-04  0.1845E-07  0.2063E-02  0.1336E-02  0.2056E+01
   -1.581259   15.84793  0.6711E-10  0.1277E-04  0.1839E-07  0.2118E-02  0.1205E-02  0.1935E+01
   -1.650011   15.84834  0.6711E-10  0.1264E-04  0.1844E-07  0.2175E-02  0.1085E-02  0.1826E+01
   -1.718763   15.84875  0.6711E-10  0.1248E-04  0.1860E-07  0.2235E-02  0.9770E-03  0.1731E+01
   -1.787515   15.84914  0.6711E-10  0.1231E-04  0.1886E-07  0.2284E-02  0.8785E-03  0.1644E+01
   -1.856267   15.84954  0.6711E-10  0.1213E-04  0.1921E-07  0.2281E-02  0.7889E-03  0.1560E+01
   -1.925018   15.84993  0.6711E-10  0.1194E-04  0.1967E-07  0.2194E-02  0.7070E-03  0.1471E+01
   -1.993769   15.85035  0.6711E-10  0.1174E-04  0.2023E-07  0.2055E-02  0.6317E-03  0.1382E+01
   -2.062520   15.85080  0.6711E-10  0.1153E-04  0.2089E-07  0.1912E-02  0.5632E-03  0.1235E+01
   -2.131271   15.85129  0.6711E-10  0.1133E-04  0.2168E-07  0.1767E-02  0.5045E-03  0.1086E+01
   -2.200021   15.85183  0.6711E-10  0.1112E-04  0.2258E-07  0.1651E-02  0.4562E-03  0.9916E+00
   -2.268771   15.85241  0.6711E-10  0.1090E-04  0.2373E-07  0.1541E-02  0.4171E-03  0.1236E+01
   -2.337520   15.85303  0.6711E-10  0.1062E-04  0.2535E-07  0.1386E-02  0.3811E-03  0.1876E+01
   -2.406269   15.85373  0.6711E-10  0.1028E-04  0.2780E-07  0.1208E-02  0.3462E-03  0.3331E+01
   -2.475017   15.85454  0.6711E-10  0.9805E-05  0.3184E-07  0.9399E-03  0.3126E-03  0.7549E+01
   -2.543765   15.85559  0.6711E-10  0.9112E-05  0.3944E-07  0.8293E-03  0.2795E-03  0.1931E+02
   -2.612512   15.85678  0.6711E-10  0.7785E-05  0.6229E-07  0.3325E-03  0.2535E-03 -0.1005E+03
   -2.681258   15.86246  0.6711E-10  0.3799E-05  0.1858E-06  0.5507E-04  0.2070E-03 -0.3063E+04
   -2.750004   15.88082  0.6711E-10  0.0000E+00  0.0000E+00  0.0000E+00  0.2192E-03  0.0000E+00
