 1 - depth, m
 2 - temperature, C
 3 - salinity, kg/kg
 4 - turbulent kinetic energy, m**2/s**2
 5 - dissipation rate, m**2/s**3
 6 - kinematic heat conductance, m**2/s
 7 - modulus of horizontal velocity, m/s
 8 - Richardson number, n/d
   -0.000000   -0.00000  0.2358E-09  0.8087E-13  0.1363E-16  0.1000E-09  0.0000E+00  0.1413E+17
   -0.068746    0.21837  0.1206E-09  0.1674E-12  0.2126E-16  0.1000E-09  0.0000E+00  0.1301E+17
   -0.137492    0.43213  0.8062E-10  0.3911E-12  0.4507E-16  0.1000E-09  0.0000E+00  0.1179E+17
   -0.206239    0.63828  0.7091E-10  0.9064E-12  0.1003E-15  0.1000E-09  0.0000E+00  0.1067E+17
   -0.274987    0.83708  0.6912E-10  0.2072E-11  0.2229E-15  0.1000E-09  0.0000E+00  0.9671E+16
   -0.343735    1.02952  0.6884E-10  0.4674E-11  0.4899E-15  0.1000E-09  0.0000E+00  0.8904E+16
   -0.412484    1.21913  0.6879E-10  0.1043E-10  0.1066E-14  0.1000E-09  0.0000E+00  0.8227E+16
   -0.481233    1.40730  0.6878E-10  0.2306E-10  0.2300E-14  0.1000E-09  0.0000E+00  0.7630E+16
   -0.549983    1.59562  0.6878E-10  0.5053E-10  0.4918E-14  0.1000E-09  0.0000E+00  0.7164E+16
   -0.618733    1.78771  0.6878E-10  0.1094E-09  0.1039E-13  0.1000E-09  0.0000E+00  0.6789E+16
   -0.687483    1.98736  0.6878E-10  0.2345E-09  0.2176E-13  0.1000E-09  0.0000E+00  0.6407E+16
   -0.756234    2.19684  0.6877E-10  0.4987E-09  0.4521E-13  0.1000E-09  0.0000E+00  0.6058E+16
   -0.824985    2.42133  0.6874E-10  0.1052E-08  0.9318E-13  0.1000E-09  0.0000E+00  0.5580E+16
   -0.893736    2.66229  0.6862E-10  0.2202E-08  0.1906E-12  0.1970E-09  0.0000E+00  0.4926E+16
   -0.962488    2.92049  0.6833E-10  0.4571E-08  0.3868E-12  0.4849E-09  0.0000E+00  0.4062E+16
   -1.031240    3.19575  0.6777E-10  0.9413E-08  0.7788E-12  0.1336E-08  0.0000E+00  0.2970E+16
   -1.099992    3.48657  0.6694E-10  0.1926E-07  0.1559E-11  0.4804E-08  0.0000E+00  0.1655E+16
   -1.168744    3.78715  0.6582E-10  0.3819E-07  0.3034E-11  0.5216E-07  0.0000E+00  0.2998E+15
   -1.237496    4.02571  0.6558E-10  0.3889E-07  0.3094E-11  0.1834E-03  0.0000E+00 -0.1572E+12
   -1.306248    4.02596  0.6558E-10  0.3922E-07  0.3128E-11  0.1791E-03  0.0000E+00 -0.1642E+12
   -1.375001    4.02623  0.6558E-10  0.3953E-07  0.3166E-11  0.1793E-03  0.0000E+00 -0.1670E+12
   -1.443753    4.02649  0.6558E-10  0.3980E-07  0.3209E-11  0.1793E-03  0.0000E+00 -0.1693E+12
   -1.512505    4.02676  0.6558E-10  0.4004E-07  0.3256E-11  0.1789E-03  0.0000E+00 -0.1722E+12
   -1.581257    4.02703  0.6558E-10  0.4024E-07  0.3309E-11  0.1780E-03  0.0000E+00 -0.1755E+12
   -1.650009    4.02731  0.6558E-10  0.4042E-07  0.3366E-11  0.1767E-03  0.0000E+00 -0.1795E+12
   -1.718761    4.02758  0.6558E-10  0.4056E-07  0.3430E-11  0.1748E-03  0.0000E+00 -0.1841E+12
   -1.787513    4.02787  0.6558E-10  0.4066E-07  0.3500E-11  0.1725E-03  0.0000E+00 -0.1894E+12
   -1.856265    4.02816  0.6558E-10  0.4073E-07  0.3578E-11  0.1697E-03  0.0000E+00 -0.1956E+12
   -1.925016    4.02846  0.6558E-10  0.4075E-07  0.3665E-11  0.1663E-03  0.0000E+00 -0.2028E+12
   -1.993767    4.02876  0.6558E-10  0.4074E-07  0.3761E-11  0.1625E-03  0.0000E+00 -0.2111E+12
   -2.062518    4.02908  0.6558E-10  0.4067E-07  0.3870E-11  0.1579E-03  0.0000E+00 -0.2205E+12
   -2.131268    4.02941  0.6558E-10  0.4056E-07  0.4002E-11  0.1524E-03  0.0000E+00 -0.2321E+12
   -2.200018    4.02975  0.6558E-10  0.4037E-07  0.4163E-11  0.1458E-03  0.0000E+00 -0.2468E+12
   -2.268768    4.03011  0.6558E-10  0.4011E-07  0.4365E-11  0.1380E-03  0.0000E+00 -0.2658E+12
   -2.337517    4.03050  0.6558E-10  0.3972E-07  0.4645E-11  0.1286E-03  0.0000E+00 -0.2919E+12
   -2.406266    4.03092  0.6558E-10  0.3906E-07  0.5094E-11  0.9979E-04  0.0000E+00 -0.3869E+12
   -2.475014    4.03147  0.6558E-10  0.3797E-07  0.5864E-11  0.7071E-04  0.0000E+00 -0.5679E+12
   -2.543762    4.03226  0.6558E-10  0.3605E-07  0.7317E-11  0.4573E-04  0.0000E+00 -0.9257E+12
   -2.612509    4.03353  0.6558E-10  0.3241E-07  0.1058E-10  0.2202E-04  0.0000E+00 -0.2068E+13
   -2.681255    4.03625  0.6558E-10  0.1645E-07  0.3193E-10  0.1411E-05  0.0000E+00 -0.4506E+14
   -2.750001    4.07716  0.6558E-10  0.0000E+00  0.0000E+00  0.0000E+00  0.0000E+00  0.0000E+00
