 1 - depth, m
 2 - temperature, C
 3 - salinity, kg/kg
 4 - turbulent kinetic energy, m**2/s**2
 5 - dissipation rate, m**2/s**3
 6 - kinematic heat conductance, m**2/s
 7 - modulus of horizontal velocity, m/s
 8 - Richardson number, n/d
   -0.000000   13.69725  0.7228E-10  0.1041E-03  0.2893E-04  0.9726E-04  0.9396E-01 -0.2007E-01
   -0.068746   13.71302  0.7228E-10  0.5419E-04  0.6340E-05  0.1002E-03  0.3674E-01 -0.4594E-02
   -0.137492   13.71594  0.7228E-10  0.3824E-04  0.2344E-05  0.1062E-03  0.2773E-01 -0.6972E-02
   -0.206239   13.71796  0.7228E-10  0.2872E-04  0.1020E-05  0.1200E-03  0.2229E-01 -0.1014E-01
   -0.274987   13.71952  0.7228E-10  0.2274E-04  0.5057E-06  0.1373E-03  0.1831E-01 -0.1406E-01
   -0.343735   13.72075  0.7228E-10  0.1902E-04  0.2846E-06  0.1551E-03  0.1532E-01 -0.1785E-01
   -0.412484   13.72176  0.7228E-10  0.1645E-04  0.1770E-06  0.1765E-03  0.1294E-01 -0.2372E-01
   -0.481233   13.72258  0.7228E-10  0.1461E-04  0.1192E-06  0.2023E-03  0.1106E-01 -0.3281E-01
   -0.549982   13.72327  0.7228E-10  0.1332E-04  0.8598E-07  0.2308E-03  0.9605E-02 -0.4439E-01
   -0.618732   13.72388  0.7228E-10  0.1239E-04  0.6558E-07  0.2616E-03  0.8426E-02 -0.5828E-01
   -0.687483   13.72444  0.7228E-10  0.1168E-04  0.5204E-07  0.2974E-03  0.7430E-02 -0.7702E-01
   -0.756234   13.72498  0.7228E-10  0.1111E-04  0.4257E-07  0.3393E-03  0.6587E-02 -0.9606E-01
   -0.824985   13.72549  0.7228E-10  0.1065E-04  0.3569E-07  0.4010E-03  0.5872E-02  0.3999E+01
   -0.893736   13.72596  0.7228E-10  0.1027E-04  0.3061E-07  0.5354E-03  0.5261E-02  0.2443E+02
   -0.962487   13.72638  0.7228E-10  0.9951E-05  0.2679E-07  0.7113E-03  0.4744E-02  0.3443E+03
   -1.031239   13.72674  0.7228E-10  0.9691E-05  0.2385E-07  0.9091E-03  0.4298E-02  0.4688E+02
   -1.099991   13.72705  0.7228E-10  0.9474E-05  0.2155E-07  0.1147E-02  0.3908E-02  0.1810E+03
   -1.168743   13.72729  0.7228E-10  0.9294E-05  0.1971E-07  0.1308E-02  0.3574E-02  0.2541E+02
   -1.237495   13.72752  0.7228E-10  0.9141E-05  0.1816E-07  0.1332E-02  0.3271E-02  0.4840E+01
   -1.306248   13.72775  0.7228E-10  0.9005E-05  0.1685E-07  0.1351E-02  0.2986E-02  0.4233E+01
   -1.375000   13.72799  0.7228E-10  0.8884E-05  0.1575E-07  0.1366E-02  0.2719E-02  0.3959E+01
   -1.443752   13.72825  0.7228E-10  0.8774E-05  0.1482E-07  0.1382E-02  0.2469E-02  0.3734E+01
   -1.512504   13.72851  0.7228E-10  0.8672E-05  0.1405E-07  0.1397E-02  0.2234E-02  0.3533E+01
   -1.581257   13.72880  0.7228E-10  0.8574E-05  0.1343E-07  0.1412E-02  0.2013E-02  0.3346E+01
   -1.650009   13.72909  0.7228E-10  0.8477E-05  0.1293E-07  0.1427E-02  0.1805E-02  0.3168E+01
   -1.718761   13.72940  0.7228E-10  0.8378E-05  0.1257E-07  0.1441E-02  0.1610E-02  0.2999E+01
   -1.787512   13.72973  0.7228E-10  0.8274E-05  0.1231E-07  0.1455E-02  0.1427E-02  0.2841E+01
   -1.856264   13.73006  0.7228E-10  0.8161E-05  0.1218E-07  0.1468E-02  0.1255E-02  0.2696E+01
   -1.925015   13.73042  0.7228E-10  0.8038E-05  0.1215E-07  0.1474E-02  0.1093E-02  0.2564E+01
   -1.993766   13.73079  0.7228E-10  0.7903E-05  0.1223E-07  0.1469E-02  0.9407E-03  0.2428E+01
   -2.062517   13.73119  0.7228E-10  0.7758E-05  0.1241E-07  0.1464E-02  0.7981E-03  0.2022E+01
   -2.131267   13.73159  0.7228E-10  0.7603E-05  0.1271E-07  0.1393E-02  0.6764E-03  0.1635E+01
   -2.200017   13.73204  0.7228E-10  0.7447E-05  0.1311E-07  0.1290E-02  0.5779E-03  0.1345E+01
   -2.268767   13.73253  0.7228E-10  0.7293E-05  0.1362E-07  0.1193E-02  0.5004E-03  0.1149E+01
   -2.337516   13.73307  0.7228E-10  0.7135E-05  0.1429E-07  0.1106E-02  0.4407E-03  0.1308E+01
   -2.406265   13.73367  0.7228E-10  0.6950E-05  0.1527E-07  0.9993E-03  0.3916E-03  0.2145E+01
   -2.475013   13.73436  0.7228E-10  0.6708E-05  0.1683E-07  0.8583E-03  0.3469E-03  0.4446E+01
   -2.543761   13.73517  0.7228E-10  0.6361E-05  0.1964E-07  0.6672E-03  0.3068E-03  0.1321E+02
   -2.612508   13.73625  0.7228E-10  0.5851E-05  0.2508E-07  0.5078E-03  0.2713E-03  0.6408E+02
   -2.681254   13.73772  0.7228E-10  0.2915E-05  0.7359E-07  0.1887E-04  0.2437E-03 -0.1120E+05
   -2.750000   13.77859  0.7228E-10  0.0000E+00  0.0000E+00  0.0000E+00  0.2429E-03  0.0000E+00
