 1 - depth, m
 2 - temperature, C
 3 - salinity, kg/kg
 4 - turbulent kinetic energy, m**2/s**2
 5 - dissipation rate, m**2/s**3
 6 - kinematic heat conductance, m**2/s
 7 - modulus of horizontal velocity, m/s
 8 - Richardson number, n/d
   -0.000000   -0.00000  0.1595E-09  0.1219E-13  0.7603E-17  0.1000E-09  0.0000E+00  0.1332E+17
   -0.068746    0.20545  0.2031E-09  0.5566E-13  0.7603E-17  0.1000E-09  0.0000E+00  0.1265E+17
   -0.137492    0.41220  0.1483E-09  0.1484E-12  0.1104E-16  0.1000E-09  0.0000E+00  0.1187E+17
   -0.206239    0.61846  0.1021E-09  0.3131E-12  0.1940E-16  0.1000E-09  0.0000E+00  0.1108E+17
   -0.274987    0.82387  0.8125E-10  0.6042E-12  0.3500E-16  0.1000E-09  0.0000E+00  0.1029E+17
   -0.343735    1.02809  0.7410E-10  0.1120E-11  0.6268E-16  0.1000E-09  0.0000E+00  0.9517E+16
   -0.412484    1.23115  0.7203E-10  0.2037E-11  0.1111E-15  0.1000E-09  0.0000E+00  0.8744E+16
   -0.481233    1.43260  0.7149E-10  0.3662E-11  0.1952E-15  0.1000E-09  0.0000E+00  0.7974E+16
   -0.549983    1.63197  0.7135E-10  0.6525E-11  0.3405E-15  0.1000E-09  0.0000E+00  0.7226E+16
   -0.618733    1.82918  0.7131E-10  0.1150E-10  0.5877E-15  0.1000E-09  0.0000E+00  0.6502E+16
   -0.687484    2.02414  0.7127E-10  0.2011E-10  0.1006E-14  0.1000E-09  0.0000E+00  0.5795E+16
   -0.756234    2.21656  0.7120E-10  0.3491E-10  0.1711E-14  0.1000E-09  0.0000E+00  0.5125E+16
   -0.824986    2.40676  0.7107E-10  0.6016E-10  0.2888E-14  0.1000E-09  0.0000E+00  0.4474E+16
   -0.893737    2.59447  0.7084E-10  0.1029E-09  0.4841E-14  0.1000E-09  0.0000E+00  0.3845E+16
   -0.962489    2.77949  0.7047E-10  0.1748E-09  0.8059E-14  0.1000E-09  0.0000E+00  0.3242E+16
   -1.031240    2.96170  0.6996E-10  0.2948E-09  0.1332E-13  0.1000E-09  0.0000E+00  0.2665E+16
   -1.099992    3.14099  0.6943E-10  0.4949E-09  0.2192E-13  0.1000E-09  0.0000E+00  0.2115E+16
   -1.168745    3.31719  0.6901E-10  0.8260E-09  0.3588E-13  0.1189E-09  0.0000E+00  0.1594E+16
   -1.237497    3.49027  0.6876E-10  0.1370E-08  0.5834E-13  0.2702E-09  0.0000E+00  0.1101E+16
   -1.306249    3.66006  0.6866E-10  0.2255E-08  0.9423E-13  0.7577E-09  0.0000E+00  0.6342E+15
   -1.375002    3.82575  0.6862E-10  0.3681E-08  0.1510E-12  0.3861E-08  0.0000E+00  0.2012E+15
   -1.443754    3.98220  0.6861E-10  0.4162E-08  0.1711E-12  0.1712E-04  0.0000E+00  0.1109E+13
   -1.512506    3.98904  0.6861E-10  0.4374E-08  0.1816E-12  0.2562E-04  0.0000E+00 -0.3585E+11
   -1.581259    3.98985  0.6861E-10  0.4551E-08  0.1919E-12  0.2909E-04  0.0000E+00 -0.4103E+11
   -1.650011    3.99056  0.6861E-10  0.4719E-08  0.2032E-12  0.3170E-04  0.0000E+00 -0.4533E+11
   -1.718763    3.99121  0.6861E-10  0.4879E-08  0.2156E-12  0.3362E-04  0.0000E+00 -0.4952E+11
   -1.787515    3.99183  0.6861E-10  0.5029E-08  0.2290E-12  0.3493E-04  0.0000E+00 -0.5397E+11
   -1.856266    3.99243  0.6861E-10  0.5169E-08  0.2437E-12  0.3569E-04  0.0000E+00 -0.5892E+11
   -1.925018    3.99302  0.6861E-10  0.5296E-08  0.2597E-12  0.3594E-04  0.0000E+00 -0.6462E+11
   -1.993769    3.99361  0.6861E-10  0.5409E-08  0.2773E-12  0.3568E-04  0.0000E+00 -0.7134E+11
   -2.062520    3.99422  0.6861E-10  0.5506E-08  0.2971E-12  0.3496E-04  0.0000E+00 -0.7958E+11
   -2.131270    3.99484  0.6861E-10  0.5591E-08  0.3207E-12  0.3364E-04  0.0000E+00 -0.9039E+11
   -2.200020    3.99549  0.6861E-10  0.5659E-08  0.3498E-12  0.3166E-04  0.0000E+00 -0.1051E+12
   -2.268770    3.99619  0.6861E-10  0.5705E-08  0.3867E-12  0.2898E-04  0.0000E+00 -0.1262E+12
   -2.337519    3.99698  0.6861E-10  0.5720E-08  0.4359E-12  0.2556E-04  0.0000E+00 -0.1586E+12
   -2.406268    3.99789  0.6861E-10  0.5688E-08  0.5061E-12  0.2133E-04  0.0000E+00 -0.2140E+12
   -2.475016    3.99901  0.6861E-10  0.5575E-08  0.6176E-12  0.1624E-04  0.0000E+00 -0.3257E+12
   -2.543764    4.00056  0.6861E-10  0.5290E-08  0.8304E-12  0.1020E-04  0.0000E+00 -0.6293E+12
   -2.612511    4.00314  0.6861E-10  0.4600E-08  0.1347E-11  0.4261E-05  0.0000E+00 -0.2028E+13
   -2.681257    4.00958  0.6861E-10  0.2542E-08  0.3825E-11  0.3974E-06  0.0000E+00 -0.4682E+14
   -2.750003    4.06708  0.6861E-10  0.0000E+00  0.0000E+00  0.0000E+00  0.0000E+00  0.0000E+00
