 1 - depth, m
 2 - temperature, C
 3 - salinity, kg/kg
 4 - turbulent kinetic energy, m**2/s**2
 5 - dissipation rate, m**2/s**3
 6 - kinematic heat conductance, m**2/s
 7 - modulus of horizontal velocity, m/s
 8 - Richardson number, n/d
   -0.000000   -0.00000  0.1630E-09  0.1219E-13  0.7603E-17  0.1000E-09  0.0000E+00  0.1101E+17
   -0.068746    0.16904  0.1726E-09  0.1219E-13  0.7603E-17  0.1000E-09  0.0000E+00  0.1054E+17
   -0.137492    0.33868  0.1540E-09  0.1219E-13  0.7603E-17  0.1000E-09  0.0000E+00  0.9988E+16
   -0.206239    0.50751  0.1242E-09  0.1219E-13  0.7603E-17  0.1000E-09  0.0000E+00  0.9428E+16
   -0.274987    0.67526  0.9949E-10  0.1219E-13  0.7603E-17  0.1000E-09  0.0000E+00  0.8866E+16
   -0.343735    0.84164  0.8533E-10  0.1219E-13  0.7603E-17  0.1000E-09  0.0000E+00  0.8318E+16
   -0.412484    1.00664  0.7899E-10  0.1219E-13  0.7603E-17  0.1000E-09  0.0000E+00  0.7771E+16
   -0.481233    1.16997  0.7661E-10  0.1219E-13  0.7603E-17  0.1000E-09  0.0000E+00  0.7229E+16
   -0.549983    1.33136  0.7582E-10  0.1219E-13  0.7603E-17  0.1000E-09  0.0000E+00  0.6705E+16
   -0.618733    1.49078  0.7557E-10  0.1219E-13  0.7603E-17  0.1000E-09  0.0000E+00  0.6200E+16
   -0.687483    1.64829  0.7548E-10  0.1219E-13  0.7603E-17  0.1000E-09  0.0000E+00  0.5707E+16
   -0.756234    1.80372  0.7540E-10  0.2809E-13  0.7603E-17  0.1000E-09  0.0000E+00  0.5241E+16
   -0.824985    1.95731  0.7530E-10  0.9242E-13  0.1076E-16  0.1000E-09  0.0000E+00  0.4786E+16
   -0.893736    2.10891  0.7515E-10  0.2256E-12  0.2137E-16  0.1000E-09  0.0000E+00  0.4344E+16
   -0.962488    2.25837  0.7494E-10  0.4956E-12  0.4405E-16  0.1000E-09  0.0000E+00  0.3916E+16
   -1.031240    2.40553  0.7466E-10  0.1047E-11  0.9010E-16  0.1000E-09  0.0000E+00  0.3501E+16
   -1.099992    2.55018  0.7430E-10  0.2183E-11  0.1830E-15  0.1000E-09  0.0000E+00  0.3099E+16
   -1.168744    2.69196  0.7388E-10  0.4509E-11  0.3691E-15  0.1000E-09  0.0000E+00  0.2713E+16
   -1.237496    2.83063  0.7342E-10  0.9236E-11  0.7386E-15  0.1000E-09  0.0000E+00  0.2346E+16
   -1.306249    2.96591  0.7298E-10  0.1877E-10  0.1467E-14  0.1000E-09  0.0000E+00  0.1998E+16
   -1.375001    3.09751  0.7263E-10  0.3788E-10  0.2894E-14  0.1000E-09  0.0000E+00  0.1676E+16
   -1.443753    3.22551  0.7238E-10  0.7586E-10  0.5667E-14  0.1000E-09  0.0000E+00  0.1380E+16
   -1.512505    3.35026  0.7224E-10  0.1508E-09  0.1102E-13  0.1000E-09  0.0000E+00  0.1103E+16
   -1.581258    3.47156  0.7218E-10  0.2979E-09  0.2129E-13  0.1279E-09  0.0000E+00  0.8468E+15
   -1.650010    3.58928  0.7215E-10  0.5840E-09  0.4084E-13  0.3403E-09  0.0000E+00  0.6107E+15
   -1.718762    3.70331  0.7214E-10  0.1137E-08  0.7781E-13  0.1003E-08  0.0000E+00  0.3949E+15
   -1.787514    3.81353  0.7214E-10  0.2195E-08  0.1471E-12  0.3771E-08  0.0000E+00  0.1985E+15
   -1.856265    3.91875  0.7214E-10  0.4131E-08  0.2717E-12  0.4042E-07  0.0000E+00  0.3416E+14
   -1.925017    4.00074  0.7214E-10  0.4665E-08  0.3085E-12  0.2689E-04  0.0000E+00 -0.1257E+12
   -1.993768    4.00129  0.7214E-10  0.4898E-08  0.3285E-12  0.2717E-04  0.0000E+00 -0.1279E+12
   -2.062518    4.00182  0.7214E-10  0.5090E-08  0.3502E-12  0.2720E-04  0.0000E+00 -0.1338E+12
   -2.131269    4.00236  0.7214E-10  0.5254E-08  0.3755E-12  0.2680E-04  0.0000E+00 -0.1438E+12
   -2.200019    4.00292  0.7214E-10  0.5390E-08  0.4061E-12  0.2582E-04  0.0000E+00 -0.1591E+12
   -2.268769    4.00352  0.7214E-10  0.5493E-08  0.4444E-12  0.2421E-04  0.0000E+00 -0.1823E+12
   -2.337518    4.00419  0.7214E-10  0.5558E-08  0.4951E-12  0.2192E-04  0.0000E+00 -0.2194E+12
   -2.406267    4.00495  0.7214E-10  0.5569E-08  0.5665E-12  0.1887E-04  0.0000E+00 -0.2833E+12
   -2.475015    4.00590  0.7214E-10  0.5494E-08  0.6781E-12  0.1494E-04  0.0000E+00 -0.4112E+12
   -2.543762    4.00720  0.7214E-10  0.5243E-08  0.8855E-12  0.9850E-05  0.0000E+00 -0.7452E+12
   -2.612509    4.00936  0.7214E-10  0.4581E-08  0.1372E-11  0.4316E-05  0.0000E+00 -0.2169E+13
   -2.681256    4.01474  0.7214E-10  0.2477E-08  0.3677E-11  0.3874E-06  0.0000E+00 -0.4497E+14
   -2.750002    4.06726  0.7214E-10  0.0000E+00  0.0000E+00  0.0000E+00  0.0000E+00  0.0000E+00
