 1 - depth, m
 2 - temperature, C
 3 - salinity, kg/kg
 4 - turbulent kinetic energy, m**2/s**2
 5 - dissipation rate, m**2/s**3
 6 - kinematic heat conductance, m**2/s
 7 - modulus of horizontal velocity, m/s
 8 - Richardson number, n/d
   -0.000000   -0.00000  0.1655E-09  0.1219E-13  0.7603E-17  0.1000E-09  0.0000E+00  0.1001E+17
   -0.068746    0.15328  0.2045E-09  0.1219E-13  0.7603E-17  0.1000E-09  0.0000E+00  0.9613E+16
   -0.137492    0.30692  0.1715E-09  0.1219E-13  0.7603E-17  0.1000E-09  0.0000E+00  0.9147E+16
   -0.206239    0.45974  0.1256E-09  0.1219E-13  0.7603E-17  0.1000E-09  0.0000E+00  0.8681E+16
   -0.274987    0.61155  0.9772E-10  0.1219E-13  0.7603E-17  0.1000E-09  0.0000E+00  0.8216E+16
   -0.343735    0.76219  0.8583E-10  0.1219E-13  0.7603E-17  0.1000E-09  0.0000E+00  0.7765E+16
   -0.412484    0.91173  0.8174E-10  0.1219E-13  0.7603E-17  0.1000E-09  0.0000E+00  0.7314E+16
   -0.481233    1.05996  0.8052E-10  0.1219E-13  0.7603E-17  0.1000E-09  0.0000E+00  0.6866E+16
   -0.549983    1.20665  0.8019E-10  0.1219E-13  0.7603E-17  0.1000E-09  0.0000E+00  0.6430E+16
   -0.618733    1.35178  0.8009E-10  0.1219E-13  0.7603E-17  0.1000E-09  0.0000E+00  0.6008E+16
   -0.687483    1.49536  0.8004E-10  0.1219E-13  0.7603E-17  0.1000E-09  0.0000E+00  0.5592E+16
   -0.756234    1.63723  0.7999E-10  0.1219E-13  0.7603E-17  0.1000E-09  0.0000E+00  0.5199E+16
   -0.824985    1.77762  0.7990E-10  0.1219E-13  0.7603E-17  0.1000E-09  0.0000E+00  0.4811E+16
   -0.893736    1.91634  0.7977E-10  0.1219E-13  0.7603E-17  0.1000E-09  0.0000E+00  0.4431E+16
   -0.962488    2.05319  0.7958E-10  0.1219E-13  0.7603E-17  0.1000E-09  0.0000E+00  0.4059E+16
   -1.031240    2.18799  0.7934E-10  0.1219E-13  0.7603E-17  0.1000E-09  0.0000E+00  0.3697E+16
   -1.099991    2.32053  0.7905E-10  0.1219E-13  0.7603E-17  0.1000E-09  0.0000E+00  0.3344E+16
   -1.168744    2.45053  0.7871E-10  0.1219E-13  0.7603E-17  0.1000E-09  0.0000E+00  0.3005E+16
   -1.237496    2.57779  0.7834E-10  0.1219E-13  0.7603E-17  0.1000E-09  0.0000E+00  0.2679E+16
   -1.306248    2.70209  0.7794E-10  0.4421E-13  0.8374E-17  0.1000E-09  0.0000E+00  0.2368E+16
   -1.375000    2.82323  0.7753E-10  0.1304E-12  0.1867E-16  0.1000E-09  0.0000E+00  0.2077E+16
   -1.443753    2.94124  0.7712E-10  0.3374E-12  0.4508E-16  0.1000E-09  0.0000E+00  0.1809E+16
   -1.512505    3.05635  0.7677E-10  0.8363E-12  0.1079E-15  0.1000E-09  0.0000E+00  0.1555E+16
   -1.581257    3.16836  0.7650E-10  0.2034E-11  0.2549E-15  0.1000E-09  0.0000E+00  0.1316E+16
   -1.650009    3.27707  0.7634E-10  0.4885E-11  0.5954E-15  0.1000E-09  0.0000E+00  0.1094E+16
   -1.718761    3.38228  0.7625E-10  0.1160E-10  0.1376E-14  0.1000E-09  0.0000E+00  0.8877E+15
   -1.787513    3.48381  0.7621E-10  0.2725E-10  0.3145E-14  0.1000E-09  0.0000E+00  0.6991E+15
   -1.856265    3.58148  0.7620E-10  0.6335E-10  0.7120E-14  0.1000E-09  0.0000E+00  0.5282E+15
   -1.925016    3.67514  0.7619E-10  0.1458E-09  0.1596E-13  0.2163E-09  0.0000E+00  0.3751E+15
   -1.993767    3.76462  0.7619E-10  0.3320E-09  0.3542E-13  0.7519E-09  0.0000E+00  0.2394E+15
   -2.062518    3.84967  0.7619E-10  0.7523E-09  0.7824E-13  0.3213E-08  0.0000E+00  0.1236E+15
   -2.131268    3.93233  0.7619E-10  0.1691E-08  0.1720E-12  0.4007E-07  0.0000E+00  0.2157E+14
   -2.200018    3.99912  0.7619E-10  0.2463E-08  0.2527E-12  0.8861E-05  0.0000E+00 -0.2980E+12
   -2.268768    4.00053  0.7619E-10  0.2829E-08  0.3052E-12  0.9487E-05  0.0000E+00 -0.3263E+12
   -2.337517    4.00193  0.7619E-10  0.3136E-08  0.3694E-12  0.9475E-05  0.0000E+00 -0.3862E+12
   -2.406266    4.00343  0.7619E-10  0.3387E-08  0.4561E-12  0.8833E-05  0.0000E+00 -0.5010E+12
   -2.475014    4.00521  0.7619E-10  0.3570E-08  0.5874E-12  0.7520E-05  0.0000E+00 -0.7429E+12
   -2.543761    4.00757  0.7619E-10  0.3626E-08  0.8241E-12  0.5326E-05  0.0000E+00 -0.1389E+13
   -2.612509    4.01140  0.7619E-10  0.3369E-08  0.1357E-11  0.2555E-05  0.0000E+00 -0.4147E+13
   -2.681255    4.02035  0.7619E-10  0.2244E-08  0.3562E-11  0.3659E-06  0.0000E+00 -0.5693E+14
   -2.750001    4.07815  0.7619E-10  0.0000E+00  0.0000E+00  0.0000E+00  0.0000E+00  0.0000E+00
