 1 - depth, m
 2 - temperature, C
 3 - salinity, kg/kg
 4 - turbulent kinetic energy, m**2/s**2
 5 - dissipation rate, m**2/s**3
 6 - kinematic heat conductance, m**2/s
 7 - modulus of horizontal velocity, m/s
 8 - Richardson number, n/d
   -0.000000    4.15845  0.6697E-10  0.4252E-03  0.2414E-03  0.1119E-03  0.2143E+00 -0.3572E-02
   -0.068746    4.20959  0.6697E-10  0.2386E-03  0.6586E-04  0.3592E-03  0.6383E-01 -0.1851E-03
   -0.137492    4.21694  0.6697E-10  0.1771E-03  0.3253E-04  0.3191E-03  0.5025E-01 -0.7181E-03
   -0.206239    4.22203  0.6697E-10  0.1345E-03  0.1725E-04  0.3001E-03  0.4294E-01 -0.6684E-03
   -0.274987    4.22573  0.6697E-10  0.1054E-03  0.9441E-05  0.3008E-03  0.3769E-01 -0.1411E-02
   -0.343735    4.22863  0.6697E-10  0.8508E-04  0.5293E-05  0.3071E-03  0.3369E-01 -0.1292E-02
   -0.412484    4.23116  0.6697E-10  0.7046E-04  0.3068E-05  0.3230E-03  0.3010E-01 -0.1721E-02
   -0.481233    4.23337  0.6697E-10  0.6000E-04  0.1879E-05  0.3465E-03  0.2705E-01 -0.2415E-02
   -0.549982    4.23531  0.6697E-10  0.5262E-04  0.1229E-05  0.3717E-03  0.2452E-01 -0.3143E-02
   -0.618732    4.23707  0.6697E-10  0.4737E-04  0.8566E-06  0.3963E-03  0.2234E-01 -0.3772E-02
   -0.687483    4.23870  0.6697E-10  0.4346E-04  0.6287E-06  0.4239E-03  0.2039E-01 -0.4555E-02
   -0.756233    4.24022  0.6697E-10  0.4044E-04  0.4810E-06  0.4522E-03  0.1866E-01 -0.5471E-02
   -0.824984    4.24166  0.6697E-10  0.3800E-04  0.3808E-06  0.4799E-03  0.1710E-01 -0.6511E-02
   -0.893736    4.24303  0.6696E-10  0.3594E-04  0.3100E-06  0.5054E-03  0.1568E-01 -0.7648E-02
   -0.962487    4.24437  0.6696E-10  0.3412E-04  0.2579E-06  0.5275E-03  0.1437E-01 -0.8838E-02
   -1.031239    4.24569  0.6696E-10  0.3243E-04  0.2180E-06  0.5482E-03  0.1315E-01 -0.1037E-01
   -1.099991    4.24699  0.6696E-10  0.3081E-04  0.1863E-06  0.5756E-03  0.1202E-01 -0.1337E-01
   -1.168743    4.24826  0.6696E-10  0.2928E-04  0.1608E-06  0.5994E-03  0.1101E-01 -0.1701E-01
   -1.237495    4.24951  0.6696E-10  0.2784E-04  0.1401E-06  0.6205E-03  0.1010E-01 -0.2146E-01
   -1.306247    4.25075  0.6696E-10  0.2651E-04  0.1230E-06  0.6394E-03  0.9275E-02 -0.2689E-01
   -1.375000    4.25199  0.6696E-10  0.2526E-04  0.1088E-06  0.6564E-03  0.8517E-02 -0.3347E-01
   -1.443752    4.25323  0.6696E-10  0.2409E-04  0.9684E-07  0.6716E-03  0.7822E-02 -0.4135E-01
   -1.512504    4.25447  0.6696E-10  0.2301E-04  0.8674E-07  0.6851E-03  0.7179E-02 -0.5075E-01
   -1.581256    4.25572  0.6696E-10  0.2199E-04  0.7816E-07  0.6968E-03  0.6584E-02 -0.6149E-01
   -1.650008    4.25699  0.6696E-10  0.2104E-04  0.7082E-07  0.7066E-03  0.6029E-02 -0.6843E-01
   -1.718760    4.25828  0.6696E-10  0.2015E-04  0.6452E-07  0.7154E-03  0.5509E-02  0.3722E+01
   -1.787512    4.25958  0.6696E-10  0.1930E-04  0.5911E-07  0.7236E-03  0.5018E-02  0.1432E+01
   -1.856264    4.26090  0.6696E-10  0.1850E-04  0.5443E-07  0.7351E-03  0.4553E-02  0.5297E+02
   -1.925015    4.26223  0.6696E-10  0.1774E-04  0.5038E-07  0.7542E-03  0.4109E-02  0.8081E+02
   -1.993766    4.26357  0.6696E-10  0.1700E-04  0.4686E-07  0.7658E-03  0.3681E-02  0.3574E+02
   -2.062517    4.26493  0.6696E-10  0.1627E-04  0.4380E-07  0.7803E-03  0.3262E-02  0.7411E+02
   -2.131267    4.26631  0.6696E-10  0.1554E-04  0.4110E-07  0.7806E-03  0.2881E-02  0.7625E+01
   -2.200017    4.26770  0.6696E-10  0.1480E-04  0.3880E-07  0.7659E-03  0.2541E-02  0.1028E+01
   -2.268767    4.26915  0.6696E-10  0.1407E-04  0.3693E-07  0.7398E-03  0.2237E-02 -0.4561E-01
   -2.337516    4.27067  0.6696E-10  0.1332E-04  0.3558E-07  0.7020E-03  0.1963E-02  0.1120E-01
   -2.406264    4.27231  0.6696E-10  0.1253E-04  0.3489E-07  0.6474E-03  0.1717E-02 -0.8791E-02
   -2.475013    4.27412  0.6696E-10  0.1165E-04  0.3523E-07  0.5657E-03  0.1497E-02  0.1814E+02
   -2.543760    4.27624  0.6696E-10  0.1058E-04  0.3764E-07  0.4108E-03  0.1304E-02  0.3291E+04
   -2.612507    4.27916  0.6696E-10  0.9148E-05  0.4531E-07  0.2478E-03  0.1136E-02 -0.7992E+01
   -2.681254    4.28417  0.6696E-10  0.3851E-05  0.1147E-06  0.1685E-04  0.9837E-03 -0.7633E+04
   -2.749999    4.36125  0.6696E-10  0.0000E+00  0.0000E+00  0.0000E+00  0.9691E-03  0.0000E+00
