 1 - depth, m
 2 - temperature, C
 3 - salinity, kg/kg
 4 - turbulent kinetic energy, m**2/s**2
 5 - dissipation rate, m**2/s**3
 6 - kinematic heat conductance, m**2/s
 7 - modulus of horizontal velocity, m/s
 8 - Richardson number, n/d
   -0.000000   -0.00000  0.4356E-09  0.1927E-11  0.4891E-15  0.1000E-09  0.0000E+00  0.1931E+17
   -0.068746    0.30188  0.1237E-09  0.5039E-11  0.5307E-15  0.1000E-09  0.0000E+00  0.1754E+17
   -0.137492    0.60096  0.8112E-10  0.1161E-10  0.9056E-15  0.1000E-09  0.0000E+00  0.1573E+17
   -0.206239    0.89522  0.7216E-10  0.2411E-10  0.1710E-14  0.1000E-09  0.0000E+00  0.1401E+17
   -0.274986    1.18455  0.6963E-10  0.4782E-10  0.3254E-14  0.1000E-09  0.0000E+00  0.1237E+17
   -0.343735    1.46886  0.6897E-10  0.9268E-10  0.6140E-14  0.1000E-09  0.0000E+00  0.1082E+17
   -0.412483    1.74831  0.6882E-10  0.1773E-09  0.1148E-13  0.1000E-09  0.0000E+00  0.9344E+16
   -0.481232    2.02282  0.6878E-10  0.3364E-09  0.2132E-13  0.1000E-09  0.0000E+00  0.7949E+16
   -0.549982    2.29227  0.6875E-10  0.6338E-09  0.3934E-13  0.1000E-09  0.0000E+00  0.6636E+16
   -0.618732    2.55682  0.6867E-10  0.1182E-08  0.7188E-13  0.1000E-09  0.0000E+00  0.5401E+16
   -0.687482    2.81666  0.6845E-10  0.2189E-08  0.1304E-12  0.1568E-09  0.0000E+00  0.4233E+16
   -0.756233    3.07170  0.6794E-10  0.4026E-08  0.2350E-12  0.3805E-09  0.0000E+00  0.3144E+16
   -0.824983    3.32283  0.6713E-10  0.7358E-08  0.4209E-12  0.1019E-08  0.0000E+00  0.2104E+16
   -0.893735    3.56923  0.6636E-10  0.1335E-07  0.7486E-12  0.3407E-08  0.0000E+00  0.1119E+16
   -0.962486    3.80788  0.6605E-10  0.2378E-07  0.1310E-11  0.2717E-07  0.0000E+00  0.2455E+15
   -1.031238    4.00979  0.6601E-10  0.2415E-07  0.1332E-11  0.1664E-03  0.0000E+00 -0.7494E+11
   -1.099990    4.00999  0.6601E-10  0.2433E-07  0.1344E-11  0.1625E-03  0.0000E+00 -0.7763E+11
   -1.168742    4.01020  0.6601E-10  0.2449E-07  0.1358E-11  0.1626E-03  0.0000E+00 -0.7851E+11
   -1.237494    4.01041  0.6601E-10  0.2463E-07  0.1373E-11  0.1627E-03  0.0000E+00 -0.7945E+11
   -1.306246    4.01062  0.6601E-10  0.2477E-07  0.1389E-11  0.1626E-03  0.0000E+00 -0.8056E+11
   -1.374998    4.01083  0.6601E-10  0.2488E-07  0.1407E-11  0.1621E-03  0.0000E+00 -0.8176E+11
   -1.443750    4.01104  0.6601E-10  0.2498E-07  0.1427E-11  0.1612E-03  0.0000E+00 -0.8301E+11
   -1.512503    4.01125  0.6601E-10  0.2506E-07  0.1448E-11  0.1600E-03  0.0000E+00 -0.8446E+11
   -1.581255    4.01147  0.6601E-10  0.2513E-07  0.1472E-11  0.1585E-03  0.0000E+00 -0.8614E+11
   -1.650007    4.01169  0.6601E-10  0.2518E-07  0.1497E-11  0.1566E-03  0.0000E+00 -0.8807E+11
   -1.718758    4.01191  0.6601E-10  0.2521E-07  0.1526E-11  0.1544E-03  0.0000E+00 -0.9028E+11
   -1.787510    4.01213  0.6601E-10  0.2523E-07  0.1556E-11  0.1517E-03  0.0000E+00 -0.9282E+11
   -1.856262    4.01236  0.6601E-10  0.2522E-07  0.1591E-11  0.1487E-03  0.0000E+00 -0.9574E+11
   -1.925013    4.01259  0.6601E-10  0.2520E-07  0.1629E-11  0.1453E-03  0.0000E+00 -0.9908E+11
   -1.993764    4.01283  0.6601E-10  0.2515E-07  0.1671E-11  0.1416E-03  0.0000E+00 -0.1029E+12
   -2.062514    4.01308  0.6601E-10  0.2508E-07  0.1718E-11  0.1372E-03  0.0000E+00 -0.1075E+12
   -2.131265    4.01333  0.6601E-10  0.2498E-07  0.1776E-11  0.1321E-03  0.0000E+00 -0.1134E+12
   -2.200015    4.01360  0.6601E-10  0.2484E-07  0.1848E-11  0.1262E-03  0.0000E+00 -0.1208E+12
   -2.268764    4.01388  0.6601E-10  0.2463E-07  0.1952E-11  0.1141E-03  0.0000E+00 -0.1363E+12
   -2.337513    4.01419  0.6601E-10  0.2430E-07  0.2110E-11  0.8967E-04  0.0000E+00 -0.1777E+12
   -2.406262    4.01460  0.6601E-10  0.2381E-07  0.2346E-11  0.7016E-04  0.0000E+00 -0.2347E+12
   -2.475010    4.01512  0.6601E-10  0.2306E-07  0.2724E-11  0.5281E-04  0.0000E+00 -0.3264E+12
   -2.543757    4.01584  0.6601E-10  0.2180E-07  0.3432E-11  0.3415E-04  0.0000E+00 -0.5368E+12
   -2.612504    4.01698  0.6601E-10  0.1941E-07  0.5050E-11  0.1596E-04  0.0000E+00 -0.1255E+13
   -2.681251    4.01949  0.6601E-10  0.9193E-08  0.1561E-10  0.9000E-06  0.0000E+00 -0.3435E+14
   -2.749996    4.06040  0.6601E-10  0.0000E+00  0.0000E+00  0.0000E+00  0.0000E+00  0.0000E+00
