 1 - depth, m
 2 - temperature, C
 3 - salinity, kg/kg
 4 - turbulent kinetic energy, m**2/s**2
 5 - dissipation rate, m**2/s**3
 6 - kinematic heat conductance, m**2/s
 7 - modulus of horizontal velocity, m/s
 8 - Richardson number, n/d
   -0.000000   -0.00000  0.3082E-09  0.1219E-13  0.7603E-17  0.1000E-09  0.0000E+00  0.1122E+17
   -0.068746    0.17230  0.1414E-09  0.1219E-13  0.7603E-17  0.1000E-09  0.0000E+00  0.1037E+17
   -0.137492    0.33922  0.9311E-10  0.1219E-13  0.7603E-17  0.1000E-09  0.0000E+00  0.9377E+16
   -0.206239    0.49751  0.8221E-10  0.1219E-13  0.7603E-17  0.1000E-09  0.0000E+00  0.8439E+16
   -0.274987    0.64676  0.8038E-10  0.1219E-13  0.7603E-17  0.1000E-09  0.0000E+00  0.7586E+16
   -0.343735    0.78722  0.8013E-10  0.1219E-13  0.7603E-17  0.1000E-09  0.0000E+00  0.6927E+16
   -0.412484    0.92140  0.8010E-10  0.1219E-13  0.7603E-17  0.1000E-09  0.0000E+00  0.6335E+16
   -0.481233    1.04977  0.8009E-10  0.1219E-13  0.7603E-17  0.1000E-09  0.0000E+00  0.5809E+16
   -0.549982    1.17289  0.8009E-10  0.1219E-13  0.7603E-17  0.1000E-09  0.0000E+00  0.5422E+16
   -0.618732    1.29313  0.8009E-10  0.1442E-13  0.7603E-17  0.1000E-09  0.0000E+00  0.5161E+16
   -0.687483    1.41303  0.8009E-10  0.6486E-13  0.1060E-16  0.1000E-09  0.0000E+00  0.4943E+16
   -0.756234    1.53360  0.8009E-10  0.1828E-12  0.2391E-16  0.1000E-09  0.0000E+00  0.4836E+16
   -0.824985    1.65787  0.8009E-10  0.4531E-12  0.5581E-16  0.1000E-09  0.0000E+00  0.4737E+16
   -0.893736    1.78665  0.8007E-10  0.1079E-11  0.1286E-15  0.1000E-09  0.0000E+00  0.4636E+16
   -0.962488    1.92074  0.8002E-10  0.2525E-11  0.2928E-15  0.1000E-09  0.0000E+00  0.4523E+16
   -1.031239    2.06086  0.7989E-10  0.5838E-11  0.6593E-15  0.1000E-09  0.0000E+00  0.4380E+16
   -1.099991    2.20743  0.7966E-10  0.1341E-10  0.1475E-14  0.1000E-09  0.0000E+00  0.4187E+16
   -1.168743    2.36021  0.7931E-10  0.3053E-10  0.3273E-14  0.1000E-09  0.0000E+00  0.3959E+16
   -1.237496    2.51965  0.7891E-10  0.6889E-10  0.7200E-14  0.1000E-09  0.0000E+00  0.3687E+16
   -1.306248    2.68605  0.7851E-10  0.1540E-09  0.1570E-13  0.1000E-09  0.0000E+00  0.3362E+16
   -1.375000    2.85953  0.7819E-10  0.3412E-09  0.3392E-13  0.1000E-09  0.0000E+00  0.2994E+16
   -1.443752    3.04101  0.7789E-10  0.7493E-09  0.7268E-13  0.1437E-09  0.0000E+00  0.2576E+16
   -1.512505    3.23186  0.7751E-10  0.1631E-08  0.1544E-12  0.3799E-09  0.0000E+00  0.2069E+16
   -1.581257    3.43151  0.7702E-10  0.3519E-08  0.3252E-12  0.1122E-08  0.0000E+00  0.1476E+16
   -1.650009    3.63884  0.7649E-10  0.7511E-08  0.6781E-12  0.4301E-08  0.0000E+00  0.8030E+15
   -1.718761    3.84978  0.7611E-10  0.1550E-07  0.1372E-11  0.5022E-07  0.0000E+00  0.1395E+15
   -1.787513    4.01590  0.7606E-10  0.1652E-07  0.1466E-11  0.6906E-04  0.0000E+00 -0.2170E+12
   -1.856264    4.01636  0.7606E-10  0.1695E-07  0.1517E-11  0.7229E-04  0.0000E+00 -0.2139E+12
   -1.925016    4.01682  0.7606E-10  0.1732E-07  0.1572E-11  0.7275E-04  0.0000E+00 -0.2190E+12
   -1.993767    4.01727  0.7606E-10  0.1761E-07  0.1632E-11  0.7202E-04  0.0000E+00 -0.2282E+12
   -2.062517    4.01774  0.7606E-10  0.1785E-07  0.1700E-11  0.7036E-04  0.0000E+00 -0.2415E+12
   -2.131268    4.01822  0.7606E-10  0.1804E-07  0.1783E-11  0.6756E-04  0.0000E+00 -0.2610E+12
   -2.200018    4.01874  0.7606E-10  0.1817E-07  0.1887E-11  0.6319E-04  0.0000E+00 -0.2909E+12
   -2.268767    4.01931  0.7606E-10  0.1823E-07  0.2022E-11  0.5768E-04  0.0000E+00 -0.3347E+12
   -2.337517    4.01995  0.7606E-10  0.1819E-07  0.2202E-11  0.5147E-04  0.0000E+00 -0.3982E+12
   -2.406265    4.02070  0.7606E-10  0.1803E-07  0.2459E-11  0.4417E-04  0.0000E+00 -0.5006E+12
   -2.475014    4.02162  0.7606E-10  0.1764E-07  0.2858E-11  0.3526E-04  0.0000E+00 -0.6938E+12
   -2.543761    4.02285  0.7606E-10  0.1683E-07  0.3588E-11  0.2401E-04  0.0000E+00 -0.1158E+13
   -2.612508    4.02482  0.7606E-10  0.1504E-07  0.5235E-11  0.1160E-04  0.0000E+00 -0.2824E+13
   -2.681255    4.02925  0.7606E-10  0.7948E-08  0.1466E-10  0.9118E-06  0.0000E+00 -0.6232E+14
   -2.750000    4.08534  0.7606E-10  0.0000E+00  0.0000E+00  0.0000E+00  0.0000E+00  0.0000E+00
