 1 - depth, m
 2 - temperature, C
 3 - salinity, kg/kg
 4 - turbulent kinetic energy, m**2/s**2
 5 - dissipation rate, m**2/s**3
 6 - kinematic heat conductance, m**2/s
 7 - modulus of horizontal velocity, m/s
 8 - Richardson number, n/d
   -0.000000   12.85883  0.0000E+00  0.6830E-03  0.2653E-02  0.1053E-03  0.3610E+00  0.2017E-01
   -0.037502   12.92230  0.0000E+00  0.3649E-03  0.1273E-02  0.1824E-03  0.1229E+00 -0.3496E-01
   -0.075004   12.94802  0.0000E+00  0.2366E-03  0.3054E-03  0.2511E-03  0.7428E-01 -0.3877E-01
   -0.112506   12.95829  0.0000E+00  0.1873E-03  0.1716E-03  0.2724E-03  0.5657E-01  0.1457E-01
   -0.150009   12.96361  0.0000E+00  0.1562E-03  0.1055E-03  0.2761E-03  0.4692E-01 -0.1482E+03
   -0.187512   12.96672  0.0000E+00  0.1326E-03  0.6429E-04  0.2882E-03  0.4063E-01  0.9433E+00
   -0.225016   12.96879  0.0000E+00  0.1154E-03  0.3998E-04  0.2976E-03  0.3615E-01 -0.9081E-02
   -0.262519   12.97055  0.0000E+00  0.1018E-03  0.2489E-04  0.3040E-03  0.3232E-01 -0.2687E-01
   -0.300023   12.97231  0.0000E+00  0.9097E-04  0.1565E-04  0.3197E-03  0.2905E-01 -0.1643E-01
   -0.337527   12.97362  0.0000E+00  0.8217E-04  0.9966E-05  0.3328E-03  0.2647E-01 -0.1739E-01
   -0.375032   12.97482  0.0000E+00  0.7508E-04  0.6453E-05  0.3454E-03  0.2425E-01  0.8736E-03
   -0.412536   12.97592  0.0000E+00  0.6921E-04  0.4283E-05  0.3576E-03  0.2229E-01 -0.2503E-02
   -0.450041   12.97696  0.0000E+00  0.6423E-04  0.2934E-05  0.3668E-03  0.2051E-01  0.2099E-01
   -0.487546   12.97800  0.0000E+00  0.5966E-04  0.2073E-05  0.3789E-03  0.1872E-01  0.2197E+01
   -0.525051   12.97898  0.0000E+00  0.5551E-04  0.1517E-05  0.3963E-03  0.1712E-01  0.2138E+01
   -0.562556   12.97986  0.0000E+00  0.5202E-04  0.1159E-05  0.4100E-03  0.1580E-01  0.5101E+02
   -0.600061   12.98070  0.0000E+00  0.4888E-04  0.9141E-06  0.4244E-03  0.1462E-01  0.2026E+01
   -0.637566   12.98149  0.0000E+00  0.4607E-04  0.7427E-06  0.4384E-03  0.1353E-01  0.1973E+00
   -0.675072   12.98225  0.0000E+00  0.4353E-04  0.6184E-06  0.4530E-03  0.1255E-01  0.4164E+01
   -0.712577   12.98298  0.0000E+00  0.4120E-04  0.5248E-06  0.4642E-03  0.1164E-01  0.6004E+01
   -0.750082   12.98367  0.0000E+00  0.3906E-04  0.4521E-06  0.4774E-03  0.1081E-01  0.4903E+02
   -0.787588   12.98434  0.0000E+00  0.3707E-04  0.3944E-06  0.4940E-03  0.1003E-01  0.4348E+01
   -0.825093   12.98497  0.0000E+00  0.3522E-04  0.3474E-06  0.5091E-03  0.9310E-02  0.8561E+01
   -0.862598   12.98558  0.0000E+00  0.3348E-04  0.3086E-06  0.5307E-03  0.8636E-02  0.4078E+02
   -0.900104   12.98616  0.0000E+00  0.3184E-04  0.2759E-06  0.5579E-03  0.8001E-02  0.2879E+02
   -0.937609   12.98671  0.0000E+00  0.3027E-04  0.2482E-06  0.5844E-03  0.7401E-02  0.6741E+01
   -0.975114   12.98724  0.0000E+00  0.2877E-04  0.2244E-06  0.5981E-03  0.6829E-02  0.8254E+01
   -1.012619   12.98775  0.0000E+00  0.2730E-04  0.2039E-06  0.6124E-03  0.6281E-02  0.5571E+01
   -1.050124   12.98825  0.0000E+00  0.2588E-04  0.1860E-06  0.6240E-03  0.5766E-02  0.1022E+02
   -1.087628   12.98873  0.0000E+00  0.2449E-04  0.1707E-06  0.6320E-03  0.5282E-02  0.1048E+02
   -1.125133   12.98920  0.0000E+00  0.2313E-04  0.1576E-06  0.6321E-03  0.4826E-02  0.1698E+02
   -1.162637   12.98967  0.0000E+00  0.2178E-04  0.1467E-06  0.6228E-03  0.4393E-02  0.1631E+02
   -1.200141   12.99014  0.0000E+00  0.2043E-04  0.1379E-06  0.5977E-03  0.3979E-02  0.1397E+02
   -1.237645   12.99062  0.0000E+00  0.1908E-04  0.1317E-06  0.5598E-03  0.3581E-02  0.1725E+02
   -1.275149   12.99113  0.0000E+00  0.1769E-04  0.1286E-06  0.5083E-03  0.3198E-02  0.1613E+02
   -1.312652   12.99169  0.0000E+00  0.1621E-04  0.1302E-06  0.4380E-03  0.2845E-02  0.2772E+02
   -1.350155   12.99233  0.0000E+00  0.1459E-04  0.1406E-06  0.3486E-03  0.2516E-02  0.1275E+02
   -1.387658   12.99314  0.0000E+00  0.1268E-04  0.1692E-06  0.2475E-03  0.2205E-02  0.6010E+02
   -1.425161   12.99425  0.0000E+00  0.1020E-04  0.2503E-06  0.1418E-03  0.1896E-02  0.1345E+03
   -1.462663   12.99625  0.0000E+00  0.5699E-05  0.5653E-06  0.3182E-04  0.1575E-02 -0.5103E+05
   -1.500165   13.00837  0.0000E+00  0.0000E+00  0.0000E+00  0.0000E+00  0.1696E-02  0.0000E+00
