 1 - depth, m
 2 - temperature, C
 3 - salinity, kg/kg
 4 - turbulent kinetic energy, m**2/s**2
 5 - dissipation rate, m**2/s**3
 6 - kinematic heat conductance, m**2/s
 7 - modulus of horizontal velocity, m/s
 8 - Richardson number, n/d
   -0.000000   11.99955  0.0000E+00  0.2307E-02  0.3099E-01  0.1713E-03  0.8657E+00 -0.7278E-02
   -0.037501   12.16562  0.0000E+00  0.1232E-02  0.2078E-01  0.4156E-03  0.2788E+00  0.2171E-02
   -0.075003   12.25665  0.0000E+00  0.8211E-03  0.6212E-02  0.5517E-03  0.1557E+00  0.1818E-01
   -0.112505   12.28369  0.0000E+00  0.6574E-03  0.4210E-02  0.6067E-03  0.1160E+00  0.2550E+01
   -0.150008   12.29751  0.0000E+00  0.5424E-03  0.2882E-02  0.6419E-03  0.9306E-01  0.2392E+00
   -0.187510   12.30375  0.0000E+00  0.4652E-03  0.2131E-02  0.6292E-03  0.8019E-01  0.2748E+00
   -0.225013   12.30892  0.0000E+00  0.4035E-03  0.1616E-02  0.6211E-03  0.7058E-01  0.1307E+00
   -0.262517   12.31291  0.0000E+00  0.3484E-03  0.1218E-02  0.6243E-03  0.6287E-01  0.1414E+00
   -0.300020   12.31594  0.0000E+00  0.3055E-03  0.9073E-03  0.6281E-03  0.5776E-01  0.3752E+01
   -0.337524   12.31788  0.0000E+00  0.2724E-03  0.6708E-03  0.6413E-03  0.5375E-01  0.8525E+00
   -0.375028   12.31983  0.0000E+00  0.2460E-03  0.4932E-03  0.6492E-03  0.5028E-01 -0.2315E+00
   -0.412532   12.32159  0.0000E+00  0.2239E-03  0.3628E-03  0.6567E-03  0.4727E-01  0.7668E+00
   -0.450036   12.32316  0.0000E+00  0.2059E-03  0.2664E-03  0.6710E-03  0.4443E-01  0.2730E+01
   -0.487541   12.32497  0.0000E+00  0.1907E-03  0.1933E-03  0.6462E-03  0.4163E-01  0.8123E+00
   -0.525045   12.32805  0.0000E+00  0.1757E-03  0.1410E-03  0.6801E-03  0.3774E-01 -0.4332E+00
   -0.562550   12.32965  0.0000E+00  0.1638E-03  0.1029E-03  0.6880E-03  0.3557E-01 -0.1212E+01
   -0.600055   12.33135  0.0000E+00  0.1534E-03  0.7534E-04  0.6978E-03  0.3338E-01  0.3825E+01
   -0.637560   12.33362  0.0000E+00  0.1435E-03  0.5557E-04  0.7165E-03  0.3113E-01  0.3276E+02
   -0.675065   12.33523  0.0000E+00  0.1351E-03  0.4095E-04  0.7193E-03  0.2935E-01  0.3679E+01
   -0.712570   12.33676  0.0000E+00  0.1272E-03  0.3013E-04  0.7230E-03  0.2762E-01  0.7249E+01
   -0.750075   12.33813  0.0000E+00  0.1204E-03  0.2198E-04  0.7471E-03  0.2613E-01  0.4201E+02
   -0.787580   12.33996  0.0000E+00  0.1140E-03  0.1599E-04  0.7579E-03  0.2460E-01  0.3664E+01
   -0.825085   12.34128  0.0000E+00  0.1081E-03  0.1169E-04  0.7562E-03  0.2323E-01  0.5698E+01
   -0.862590   12.34257  0.0000E+00  0.1027E-03  0.8600E-05  0.7561E-03  0.2197E-01  0.4185E+02
   -0.900094   12.34377  0.0000E+00  0.9770E-04  0.6378E-05  0.7654E-03  0.2078E-01  0.5544E+02
   -0.937599   12.34496  0.0000E+00  0.9305E-04  0.4780E-05  0.7698E-03  0.1963E-01  0.1302E+02
   -0.975104   12.34621  0.0000E+00  0.8856E-04  0.3632E-05  0.7730E-03  0.1851E-01  0.1461E+02
   -1.012609   12.34762  0.0000E+00  0.8420E-04  0.2810E-05  0.7723E-03  0.1732E-01  0.5444E+02
   -1.050113   12.34885  0.0000E+00  0.7995E-04  0.2227E-05  0.7706E-03  0.1627E-01  0.1176E+02
   -1.087617   12.35001  0.0000E+00  0.7572E-04  0.1814E-05  0.7478E-03  0.1530E-01  0.7975E+02
   -1.125121   12.35126  0.0000E+00  0.7150E-04  0.1529E-05  0.7259E-03  0.1436E-01  0.2058E+02
   -1.162625   12.35250  0.0000E+00  0.6726E-04  0.1344E-05  0.6888E-03  0.1344E-01  0.3483E+02
   -1.200129   12.35384  0.0000E+00  0.6291E-04  0.1242E-05  0.6274E-03  0.1254E-01  0.1226E+04
   -1.237633   12.35531  0.0000E+00  0.5837E-04  0.1220E-05  0.5710E-03  0.1162E-01  0.2055E+02
   -1.275136   12.35698  0.0000E+00  0.5339E-04  0.1288E-05  0.5035E-03  0.1062E-01  0.3433E+02
   -1.312639   12.35880  0.0000E+00  0.4795E-04  0.1487E-05  0.4385E-03  0.9676E-02  0.2677E+03
   -1.350142   12.36096  0.0000E+00  0.4171E-04  0.1919E-05  0.3481E-03  0.8658E-02  0.3639E+02
   -1.387644   12.36388  0.0000E+00  0.3430E-04  0.2908E-05  0.2602E-03  0.7483E-02  0.1234E+05
   -1.425146   12.36783  0.0000E+00  0.2566E-04  0.5231E-05  0.1634E-03  0.6182E-02  0.6476E+04
   -1.462648   12.37418  0.0000E+00  0.1650E-04  0.1082E-04  0.1173E-03  0.4834E-02 -0.3710E+05
   -1.500149   12.39844  0.0000E+00  0.0000E+00  0.0000E+00  0.0000E+00  0.6112E-02  0.0000E+00
