 1 - depth, m
 2 - temperature, C
 3 - salinity, kg/kg
 4 - turbulent kinetic energy, m**2/s**2
 5 - dissipation rate, m**2/s**3
 6 - kinematic heat conductance, m**2/s
 7 - modulus of horizontal velocity, m/s
 8 - Richardson number, n/d
   -0.000000    0.00000  0.0000E+00  0.4096E-13  0.8589E-16  0.1000E-09  0.0000E+00  0.8552E+16
   -0.037493    0.13057  0.0000E+00  0.4096E-13  0.8589E-16  0.1000E-09  0.0000E+00  0.8281E+16
   -0.074987    0.26166  0.0000E+00  0.4096E-13  0.8589E-16  0.1000E-09  0.0000E+00  0.7985E+16
   -0.112481    0.39289  0.0000E+00  0.4096E-13  0.8589E-16  0.1000E-09  0.0000E+00  0.7669E+16
   -0.149976    0.52391  0.0000E+00  0.4096E-13  0.8589E-16  0.1000E-09  0.0000E+00  0.7339E+16
   -0.187471    0.65439  0.0000E+00  0.4096E-13  0.8589E-16  0.1000E-09  0.0000E+00  0.6999E+16
   -0.224966    0.78407  0.0000E+00  0.4096E-13  0.8589E-16  0.1000E-09  0.0000E+00  0.6654E+16
   -0.262461    0.91270  0.0000E+00  0.4096E-13  0.8589E-16  0.1000E-09  0.0000E+00  0.6306E+16
   -0.299956    1.04008  0.0000E+00  0.4096E-13  0.8589E-16  0.1000E-09  0.0000E+00  0.5961E+16
   -0.337452    1.16604  0.0000E+00  0.4096E-13  0.8589E-16  0.1000E-09  0.0000E+00  0.5622E+16
   -0.374948    1.29050  0.0000E+00  0.4096E-13  0.8589E-16  0.1000E-09  0.0000E+00  0.5299E+16
   -0.412444    1.41355  0.0000E+00  0.4096E-13  0.8589E-16  0.1000E-09  0.0000E+00  0.4987E+16
   -0.449941    1.53527  0.0000E+00  0.4096E-13  0.8589E-16  0.1000E-09  0.0000E+00  0.4685E+16
   -0.487437    1.65562  0.0000E+00  0.4096E-13  0.8589E-16  0.1000E-09  0.0000E+00  0.4391E+16
   -0.524934    1.77460  0.0000E+00  0.4096E-13  0.8589E-16  0.1000E-09  0.0000E+00  0.4103E+16
   -0.562430    1.89213  0.0000E+00  0.4096E-13  0.8589E-16  0.1000E-09  0.0000E+00  0.3825E+16
   -0.599927    2.00819  0.0000E+00  0.4096E-13  0.8589E-16  0.1000E-09  0.0000E+00  0.3555E+16
   -0.637424    2.12274  0.0000E+00  0.4096E-13  0.8589E-16  0.1000E-09  0.0000E+00  0.3293E+16
   -0.674921    2.23575  0.0000E+00  0.4096E-13  0.8589E-16  0.1000E-09  0.0000E+00  0.3039E+16
   -0.712418    2.34715  0.0000E+00  0.4096E-13  0.8589E-16  0.1000E-09  0.0000E+00  0.2793E+16
   -0.749915    2.45689  0.0000E+00  0.4096E-13  0.8589E-16  0.1000E-09  0.0000E+00  0.2563E+16
   -0.787412    2.56520  0.0000E+00  0.4096E-13  0.8589E-16  0.1000E-09  0.0000E+00  0.2341E+16
   -0.824909    2.67211  0.0000E+00  0.4096E-13  0.8589E-16  0.1000E-09  0.0000E+00  0.2126E+16
   -0.862406    2.77755  0.0000E+00  0.4096E-13  0.8589E-16  0.1000E-09  0.0000E+00  0.1918E+16
   -0.899903    2.88147  0.0000E+00  0.4096E-13  0.8589E-16  0.1000E-09  0.0000E+00  0.1717E+16
   -0.937400    2.98378  0.0000E+00  0.4096E-13  0.8589E-16  0.1000E-09  0.0000E+00  0.1524E+16
   -0.974896    3.08441  0.0000E+00  0.4096E-13  0.8589E-16  0.1000E-09  0.0000E+00  0.1338E+16
   -1.012393    3.18327  0.0000E+00  0.1458E-12  0.1040E-15  0.1000E-09  0.0000E+00  0.1157E+16
   -1.049889    3.28000  0.0000E+00  0.4545E-12  0.2586E-15  0.1000E-09  0.0000E+00  0.9848E+15
   -1.087386    3.37438  0.0000E+00  0.1273E-11  0.6851E-15  0.1000E-09  0.0000E+00  0.8217E+15
   -1.124882    3.46623  0.0000E+00  0.3448E-11  0.1797E-14  0.1000E-09  0.0000E+00  0.6810E+15
   -1.162378    3.55713  0.0000E+00  0.9190E-11  0.4657E-14  0.1000E-09  0.0000E+00  0.5461E+15
   -1.199873    3.64734  0.0000E+00  0.2422E-10  0.1195E-13  0.1000E-09  0.0000E+00  0.4146E+15
   -1.237369    3.73688  0.0000E+00  0.6317E-10  0.3038E-13  0.2896E-09  0.0000E+00  0.2860E+15
   -1.274864    3.82564  0.0000E+00  0.1649E-09  0.7741E-13  0.1299E-08  0.0000E+00  0.1606E+15
   -1.312359    3.91319  0.0000E+00  0.4270E-09  0.1965E-12  0.1190E-07  0.0000E+00  0.4148E+14
   -1.349854    3.99412  0.0000E+00  0.1010E-08  0.4671E-12  0.7519E-06  0.0000E+00 -0.3178E+13
   -1.387349    4.00804  0.0000E+00  0.1421E-08  0.7935E-12  0.9450E-06  0.0000E+00 -0.4837E+13
   -1.424843    4.01933  0.0000E+00  0.1556E-08  0.1255E-11  0.6618E-06  0.0000E+00 -0.9702E+13
   -1.462336    4.03458  0.0000E+00  0.1283E-08  0.2293E-11  0.1860E-06  0.0000E+00 -0.3938E+14
   -1.499830    4.07211  0.0000E+00  0.0000E+00  0.0000E+00  0.0000E+00  0.0000E+00  0.0000E+00
