 1 - depth, m
 2 - temperature, C
 3 - salinity, kg/kg
 4 - turbulent kinetic energy, m**2/s**2
 5 - dissipation rate, m**2/s**3
 6 - kinematic heat conductance, m**2/s
 7 - modulus of horizontal velocity, m/s
 8 - Richardson number, n/d
   -0.000000    0.00000  0.0000E+00  0.4096E-13  0.8590E-16  0.1000E-09  0.0000E+00  0.9253E+16
   -0.037495    0.14148  0.0000E+00  0.4096E-13  0.8590E-16  0.1000E-09  0.0000E+00  0.8819E+16
   -0.074990    0.28171  0.0000E+00  0.4096E-13  0.8590E-16  0.1000E-09  0.0000E+00  0.8393E+16
   -0.112486    0.42061  0.0000E+00  0.4096E-13  0.8590E-16  0.1000E-09  0.0000E+00  0.7974E+16
   -0.149982    0.55812  0.0000E+00  0.4096E-13  0.8590E-16  0.1000E-09  0.0000E+00  0.7565E+16
   -0.187478    0.69419  0.0000E+00  0.4096E-13  0.8590E-16  0.1000E-09  0.0000E+00  0.7166E+16
   -0.224975    0.82879  0.0000E+00  0.4096E-13  0.8590E-16  0.1000E-09  0.0000E+00  0.6776E+16
   -0.262472    0.96190  0.0000E+00  0.4096E-13  0.8590E-16  0.1000E-09  0.0000E+00  0.6396E+16
   -0.299969    1.09344  0.0000E+00  0.4096E-13  0.8590E-16  0.1000E-09  0.0000E+00  0.6026E+16
   -0.337466    1.22338  0.0000E+00  0.4096E-13  0.8590E-16  0.1000E-09  0.0000E+00  0.5667E+16
   -0.374964    1.35171  0.0000E+00  0.4096E-13  0.8590E-16  0.1000E-09  0.0000E+00  0.5328E+16
   -0.412462    1.47862  0.0000E+00  0.4096E-13  0.8590E-16  0.1000E-09  0.0000E+00  0.5004E+16
   -0.449960    1.60423  0.0000E+00  0.4096E-13  0.8590E-16  0.1000E-09  0.0000E+00  0.4689E+16
   -0.487458    1.72852  0.0000E+00  0.4096E-13  0.8590E-16  0.1000E-09  0.0000E+00  0.4382E+16
   -0.524956    1.85145  0.0000E+00  0.4096E-13  0.8590E-16  0.1000E-09  0.0000E+00  0.4082E+16
   -0.562454    1.97297  0.0000E+00  0.4096E-13  0.8590E-16  0.1000E-09  0.0000E+00  0.3791E+16
   -0.599952    2.09304  0.0000E+00  0.4096E-13  0.8590E-16  0.1000E-09  0.0000E+00  0.3508E+16
   -0.637451    2.21159  0.0000E+00  0.4096E-13  0.8590E-16  0.1000E-09  0.0000E+00  0.3233E+16
   -0.674949    2.32859  0.0000E+00  0.4096E-13  0.8590E-16  0.1000E-09  0.0000E+00  0.2966E+16
   -0.712448    2.44394  0.0000E+00  0.4096E-13  0.8590E-16  0.1000E-09  0.0000E+00  0.2708E+16
   -0.749947    2.55758  0.0000E+00  0.4096E-13  0.8590E-16  0.1000E-09  0.0000E+00  0.2464E+16
   -0.787445    2.66969  0.0000E+00  0.4096E-13  0.8590E-16  0.1000E-09  0.0000E+00  0.2229E+16
   -0.824944    2.78026  0.0000E+00  0.4096E-13  0.8590E-16  0.1000E-09  0.0000E+00  0.2002E+16
   -0.862442    2.88922  0.0000E+00  0.4097E-13  0.8590E-16  0.1000E-09  0.0000E+00  0.1783E+16
   -0.899941    2.99648  0.0000E+00  0.1867E-12  0.1028E-15  0.1000E-09  0.0000E+00  0.1571E+16
   -0.937439    3.10193  0.0000E+00  0.5324E-12  0.2235E-15  0.1000E-09  0.0000E+00  0.1368E+16
   -0.974937    3.20547  0.0000E+00  0.1314E-11  0.5148E-15  0.1000E-09  0.0000E+00  0.1174E+16
   -1.012435    3.30698  0.0000E+00  0.3109E-11  0.1178E-14  0.1000E-09  0.0000E+00  0.9879E+15
   -1.049934    3.40613  0.0000E+00  0.7246E-11  0.2672E-14  0.1000E-09  0.0000E+00  0.8113E+15
   -1.087431    3.50269  0.0000E+00  0.1672E-10  0.6014E-14  0.1000E-09  0.0000E+00  0.6458E+15
   -1.124929    3.59643  0.0000E+00  0.3827E-10  0.1343E-13  0.1000E-09  0.0000E+00  0.5005E+15
   -1.162427    3.68890  0.0000E+00  0.8687E-10  0.2976E-13  0.2267E-09  0.0000E+00  0.3615E+15
   -1.199924    3.78020  0.0000E+00  0.1957E-09  0.6550E-13  0.7901E-09  0.0000E+00  0.2274E+15
   -1.237421    3.87001  0.0000E+00  0.4368E-09  0.1430E-12  0.3900E-08  0.0000E+00  0.9921E+14
   -1.274918    3.95676  0.0000E+00  0.9461E-09  0.3050E-12  0.1241E-06  0.0000E+00  0.4475E+13
   -1.312415    4.00382  0.0000E+00  0.1698E-08  0.5733E-12  0.2035E-05  0.0000E+00 -0.1833E+13
   -1.349911    4.00957  0.0000E+00  0.2098E-08  0.8004E-12  0.2109E-05  0.0000E+00 -0.2289E+13
   -1.387407    4.01517  0.0000E+00  0.2281E-08  0.1089E-11  0.1718E-05  0.0000E+00 -0.3477E+13
   -1.424903    4.02205  0.0000E+00  0.2173E-08  0.1584E-11  0.9635E-06  0.0000E+00 -0.7666E+13
   -1.462398    4.03381  0.0000E+00  0.1627E-08  0.2941E-11  0.2191E-06  0.0000E+00 -0.3813E+14
   -1.499893    4.07074  0.0000E+00  0.0000E+00  0.0000E+00  0.0000E+00  0.0000E+00  0.0000E+00
