 1 - depth, m
 2 - temperature, C
 3 - salinity, kg/kg
 4 - turbulent kinetic energy, m**2/s**2
 5 - dissipation rate, m**2/s**3
 6 - kinematic heat conductance, m**2/s
 7 - modulus of horizontal velocity, m/s
 8 - Richardson number, n/d
   -0.000000   17.23711  0.0000E+00  0.3897E-04  0.6169E-05  0.2957E-04  0.4629E-01 -0.7517E-01
   -0.037495   17.29325  0.0000E+00  0.2681E-04  0.1799E-05  0.5160E-04  0.2313E-01 -0.4500E-01
   -0.074990   17.30857  0.0000E+00  0.2246E-04  0.8635E-06  0.7538E-04  0.1787E-01 -0.6895E-01
   -0.112486   17.31857  0.0000E+00  0.1982E-04  0.5042E-06  0.1007E-03  0.1468E-01 -0.1012E+00
   -0.149981   17.32602  0.0000E+00  0.1800E-04  0.3315E-06  0.1293E-03  0.1243E-01 -0.1339E+00
   -0.187477   17.33179  0.0000E+00  0.1670E-04  0.2368E-06  0.1845E-03  0.1074E-01  0.3414E+01
   -0.224974   17.33598  0.0000E+00  0.1580E-04  0.1820E-06  0.3848E-03  0.9463E-02  0.5752E+03
   -0.262471   17.33820  0.0000E+00  0.1520E-04  0.1476E-06  0.4347E-03  0.8529E-02  0.1512E+03
   -0.299968   17.33987  0.0000E+00  0.1473E-04  0.1229E-06  0.4654E-03  0.7680E-02  0.5576E+02
   -0.337465   17.34135  0.0000E+00  0.1436E-04  0.1043E-06  0.4868E-03  0.6922E-02  0.2575E+02
   -0.374962   17.34272  0.0000E+00  0.1405E-04  0.8984E-07  0.5090E-03  0.6236E-02  0.8559E+01
   -0.412460   17.34400  0.0000E+00  0.1377E-04  0.7825E-07  0.5316E-03  0.5612E-02  0.7252E+01
   -0.449957   17.34520  0.0000E+00  0.1351E-04  0.6879E-07  0.5553E-03  0.5040E-02  0.6479E+01
   -0.487455   17.34632  0.0000E+00  0.1325E-04  0.6091E-07  0.5806E-03  0.4512E-02  0.5851E+01
   -0.524953   17.34737  0.0000E+00  0.1300E-04  0.5424E-07  0.6092E-03  0.4024E-02  0.5010E+01
   -0.562451   17.34834  0.0000E+00  0.1273E-04  0.4857E-07  0.6392E-03  0.3578E-02  0.4369E+01
   -0.599949   17.34926  0.0000E+00  0.1246E-04  0.4371E-07  0.6701E-03  0.3172E-02  0.3863E+01
   -0.637448   17.35011  0.0000E+00  0.1217E-04  0.3954E-07  0.7006E-03  0.2802E-02  0.3451E+01
   -0.674946   17.35091  0.0000E+00  0.1186E-04  0.3596E-07  0.7285E-03  0.2465E-02  0.3111E+01
   -0.712444   17.35166  0.0000E+00  0.1154E-04  0.3289E-07  0.7513E-03  0.2161E-02  0.2827E+01
   -0.749943   17.35237  0.0000E+00  0.1120E-04  0.3027E-07  0.7670E-03  0.1887E-02  0.2588E+01
   -0.787441   17.35306  0.0000E+00  0.1083E-04  0.2807E-07  0.7747E-03  0.1642E-02  0.2382E+01
   -0.824940   17.35372  0.0000E+00  0.1045E-04  0.2624E-07  0.7751E-03  0.1423E-02  0.2202E+01
   -0.862438   17.35437  0.0000E+00  0.1006E-04  0.2475E-07  0.7705E-03  0.1230E-02  0.2040E+01
   -0.899936   17.35500  0.0000E+00  0.9653E-05  0.2357E-07  0.7640E-03  0.1061E-02  0.1889E+01
   -0.937434   17.35563  0.0000E+00  0.9241E-05  0.2270E-07  0.7587E-03  0.9118E-03  0.1748E+01
   -0.974932   17.35625  0.0000E+00  0.8830E-05  0.2211E-07  0.7578E-03  0.7819E-03  0.1621E+01
   -1.012430   17.35685  0.0000E+00  0.8428E-05  0.2179E-07  0.7721E-03  0.6690E-03  0.1461E+01
   -1.049928   17.35743  0.0000E+00  0.8044E-05  0.2172E-07  0.7912E-03  0.5746E-03  0.1319E+01
   -1.087426   17.35799  0.0000E+00  0.7685E-05  0.2189E-07  0.7764E-03  0.4971E-03  0.1185E+01
   -1.124924   17.35855  0.0000E+00  0.7354E-05  0.2227E-07  0.7072E-03  0.4340E-03  0.1049E+01
   -1.162421   17.35915  0.0000E+00  0.7047E-05  0.2289E-07  0.6383E-03  0.3828E-03  0.9553E+00
   -1.199918   17.35980  0.0000E+00  0.6756E-05  0.2382E-07  0.5709E-03  0.3406E-03  0.9441E+00
   -1.237415   17.36051  0.0000E+00  0.6464E-05  0.2520E-07  0.5329E-03  0.3046E-03  0.1220E+01
   -1.274912   17.36127  0.0000E+00  0.6127E-05  0.2772E-07  0.4556E-03  0.2730E-03  0.3656E+01
   -1.312408   17.36229  0.0000E+00  0.5701E-05  0.3203E-07  0.4100E-03  0.2389E-03  0.2243E+03
   -1.349904   17.36339  0.0000E+00  0.5132E-05  0.4095E-07  0.2972E-03  0.2087E-03  0.1691E+03
   -1.387400   17.36599  0.0000E+00  0.4383E-05  0.5754E-07  0.2503E-03  0.1670E-03  0.5152E+05
   -1.424896   17.36696  0.0000E+00  0.3472E-05  0.1047E-06  0.1248E-03  0.1417E-03  0.1310E+04
   -1.462391   17.37711  0.0000E+00  0.2119E-05  0.2571E-06  0.5423E-04  0.1010E-03 -0.1068E+05
   -1.499886   17.38474  0.0000E+00  0.0000E+00  0.0000E+00  0.0000E+00  0.1314E-03  0.0000E+00
