 1 - depth, m
 2 - temperature, C
 3 - salinity, kg/kg
 4 - turbulent kinetic energy, m**2/s**2
 5 - dissipation rate, m**2/s**3
 6 - kinematic heat conductance, m**2/s
 7 - modulus of horizontal velocity, m/s
 8 - Richardson number, n/d
   -0.000000    0.00000  0.0000E+00  0.4096E-13  0.8590E-16  0.1000E-09  0.0000E+00  0.1005E+17
   -0.037498    0.15386  0.0000E+00  0.4096E-13  0.8590E-16  0.1000E-09  0.0000E+00  0.9504E+16
   -0.074997    0.30575  0.0000E+00  0.4096E-13  0.8590E-16  0.1000E-09  0.0000E+00  0.8978E+16
   -0.112495    0.45562  0.0000E+00  0.4096E-13  0.8590E-16  0.1000E-09  0.0000E+00  0.8468E+16
   -0.149995    0.60344  0.0000E+00  0.4096E-13  0.8590E-16  0.1000E-09  0.0000E+00  0.7975E+16
   -0.187494    0.74918  0.0000E+00  0.4096E-13  0.8590E-16  0.1000E-09  0.0000E+00  0.7498E+16
   -0.224994    0.89282  0.0000E+00  0.4096E-13  0.8590E-16  0.1000E-09  0.0000E+00  0.7037E+16
   -0.262494    1.03434  0.0000E+00  0.4096E-13  0.8590E-16  0.1000E-09  0.0000E+00  0.6589E+16
   -0.299994    1.17361  0.0000E+00  0.4096E-13  0.8590E-16  0.1000E-09  0.0000E+00  0.6156E+16
   -0.337494    1.31059  0.0000E+00  0.4096E-13  0.8590E-16  0.1000E-09  0.0000E+00  0.5739E+16
   -0.374995    1.44526  0.0000E+00  0.4096E-13  0.8590E-16  0.1000E-09  0.0000E+00  0.5359E+16
   -0.412496    1.57811  0.0000E+00  0.4096E-13  0.8590E-16  0.1000E-09  0.0000E+00  0.5005E+16
   -0.449997    1.70944  0.0000E+00  0.4096E-13  0.8590E-16  0.1000E-09  0.0000E+00  0.4661E+16
   -0.487498    1.83924  0.0000E+00  0.4096E-13  0.8590E-16  0.1000E-09  0.0000E+00  0.4327E+16
   -0.524999    1.96748  0.0000E+00  0.4096E-13  0.8590E-16  0.1000E-09  0.0000E+00  0.4002E+16
   -0.562501    2.09409  0.0000E+00  0.4096E-13  0.8590E-16  0.1000E-09  0.0000E+00  0.3688E+16
   -0.600002    2.21903  0.0000E+00  0.4096E-13  0.8590E-16  0.1000E-09  0.0000E+00  0.3383E+16
   -0.637504    2.34225  0.0000E+00  0.4096E-13  0.8590E-16  0.1000E-09  0.0000E+00  0.3089E+16
   -0.675005    2.46369  0.0000E+00  0.1887E-12  0.8592E-16  0.1000E-09  0.0000E+00  0.2806E+16
   -0.712507    2.58331  0.0000E+00  0.5033E-12  0.1530E-15  0.1000E-09  0.0000E+00  0.2532E+16
   -0.750009    2.70102  0.0000E+00  0.1117E-11  0.3045E-15  0.1000E-09  0.0000E+00  0.2283E+16
   -0.787510    2.81749  0.0000E+00  0.2325E-11  0.6071E-15  0.1000E-09  0.0000E+00  0.2045E+16
   -0.825012    2.93293  0.0000E+00  0.4721E-11  0.1199E-14  0.1000E-09  0.0000E+00  0.1813E+16
   -0.862513    3.04728  0.0000E+00  0.9466E-11  0.2350E-14  0.1000E-09  0.0000E+00  0.1587E+16
   -0.900015    3.16052  0.0000E+00  0.1882E-10  0.4570E-14  0.1000E-09  0.0000E+00  0.1368E+16
   -0.937516    3.27258  0.0000E+00  0.3716E-10  0.8829E-14  0.1000E-09  0.0000E+00  0.1155E+16
   -0.975018    3.38341  0.0000E+00  0.7290E-10  0.1695E-13  0.1000E-09  0.0000E+00  0.9488E+15
   -1.012519    3.49296  0.0000E+00  0.1424E-09  0.3242E-13  0.1199E-09  0.0000E+00  0.7496E+15
   -1.050020    3.60114  0.0000E+00  0.2774E-09  0.6184E-13  0.3075E-09  0.0000E+00  0.5571E+15
   -1.087521    3.70774  0.0000E+00  0.5376E-09  0.1174E-12  0.8732E-09  0.0000E+00  0.3722E+15
   -1.125022    3.81239  0.0000E+00  0.1036E-08  0.2217E-12  0.3105E-08  0.0000E+00  0.1972E+15
   -1.162523    3.91475  0.0000E+00  0.1960E-08  0.4122E-12  0.2901E-07  0.0000E+00  0.3842E+14
   -1.200023    4.00109  0.0000E+00  0.2824E-08  0.5970E-12  0.5152E-05  0.0000E+00 -0.7028E+12
   -1.237523    4.00387  0.0000E+00  0.3248E-08  0.7181E-12  0.5586E-05  0.0000E+00 -0.7655E+12
   -1.275023    4.00646  0.0000E+00  0.3568E-08  0.8524E-12  0.5578E-05  0.0000E+00 -0.8868E+12
   -1.312523    4.00910  0.0000E+00  0.3786E-08  0.1017E-11  0.5130E-05  0.0000E+00 -0.1108E+13
   -1.350023    4.01202  0.0000E+00  0.3881E-08  0.1244E-11  0.4250E-05  0.0000E+00 -0.1548E+13
   -1.387522    4.01561  0.0000E+00  0.3797E-08  0.1610E-11  0.2967E-05  0.0000E+00 -0.2625E+13
   -1.425020    4.02086  0.0000E+00  0.3396E-08  0.2369E-11  0.1455E-05  0.0000E+00 -0.6684E+13
   -1.462519    4.03156  0.0000E+00  0.2444E-08  0.4761E-11  0.2970E-06  0.0000E+00 -0.4302E+14
   -1.500017    4.07317  0.0000E+00  0.0000E+00  0.0000E+00  0.0000E+00  0.0000E+00  0.0000E+00
