 1 - depth, m
 2 - temperature, C
 3 - salinity, kg/kg
 4 - turbulent kinetic energy, m**2/s**2
 5 - dissipation rate, m**2/s**3
 6 - kinematic heat conductance, m**2/s
 7 - modulus of horizontal velocity, m/s
 8 - Richardson number, n/d
   -0.000000   16.68414  0.0000E+00  0.5385E-04  0.1671E-04  0.3346E-04  0.5331E-01 -0.1148E-01
   -0.037494   16.71530  0.0000E+00  0.3436E-04  0.4612E-05  0.5847E-04  0.2426E-01 -0.2041E-01
   -0.074989   16.72279  0.0000E+00  0.2709E-04  0.2109E-05  0.7712E-04  0.1834E-01 -0.3997E-01
   -0.112484   16.72792  0.0000E+00  0.2300E-04  0.1178E-05  0.9394E-04  0.1515E-01 -0.5809E-01
   -0.149979   16.73175  0.0000E+00  0.2010E-04  0.7162E-06  0.1121E-03  0.1285E-01 -0.7969E-01
   -0.187474   16.73480  0.0000E+00  0.1792E-04  0.4655E-06  0.1338E-03  0.1107E-01 -0.7873E-01
   -0.224970   16.73730  0.0000E+00  0.1624E-04  0.3206E-06  0.1870E-03  0.9650E-02  0.2669E+02
   -0.262466   16.73927  0.0000E+00  0.1492E-04  0.2319E-06  0.2432E-03  0.8500E-02  0.2600E+03
   -0.299963   16.74084  0.0000E+00  0.1387E-04  0.1749E-06  0.3279E-03  0.7552E-02  0.3576E+02
   -0.337459   16.74210  0.0000E+00  0.1303E-04  0.1367E-06  0.3609E-03  0.6764E-02  0.6881E+02
   -0.374956   16.74320  0.0000E+00  0.1235E-04  0.1100E-06  0.4024E-03  0.6075E-02  0.1406E+02
   -0.412453   16.74416  0.0000E+00  0.1179E-04  0.9069E-07  0.4423E-03  0.5472E-02  0.5659E+02
   -0.449950   16.74499  0.0000E+00  0.1132E-04  0.7632E-07  0.4799E-03  0.4936E-02  0.1437E+03
   -0.487447   16.74572  0.0000E+00  0.1092E-04  0.6528E-07  0.5100E-03  0.4450E-02  0.1788E+03
   -0.524944   16.74638  0.0000E+00  0.1058E-04  0.5657E-07  0.5340E-03  0.4004E-02  0.4366E+02
   -0.562442   16.74699  0.0000E+00  0.1027E-04  0.4956E-07  0.5562E-03  0.3597E-02  0.9865E+01
   -0.599940   16.74758  0.0000E+00  0.9991E-05  0.4383E-07  0.5753E-03  0.3225E-02  0.6525E+01
   -0.637437   16.74814  0.0000E+00  0.9736E-05  0.3910E-07  0.5936E-03  0.2885E-02  0.4751E+01
   -0.674935   16.74870  0.0000E+00  0.9497E-05  0.3516E-07  0.6107E-03  0.2572E-02  0.4068E+01
   -0.712433   16.74924  0.0000E+00  0.9270E-05  0.3187E-07  0.6276E-03  0.2286E-02  0.3073E+01
   -0.749930   16.74978  0.0000E+00  0.9051E-05  0.2911E-07  0.6432E-03  0.2025E-02  0.2769E+01
   -0.787428   16.75031  0.0000E+00  0.8834E-05  0.2682E-07  0.6583E-03  0.1788E-02  0.2543E+01
   -0.824926   16.75084  0.0000E+00  0.8619E-05  0.2492E-07  0.6731E-03  0.1572E-02  0.2352E+01
   -0.862424   16.75137  0.0000E+00  0.8401E-05  0.2337E-07  0.6884E-03  0.1377E-02  0.2191E+01
   -0.899921   16.75190  0.0000E+00  0.8181E-05  0.2213E-07  0.7046E-03  0.1201E-02  0.2052E+01
   -0.937419   16.75242  0.0000E+00  0.7955E-05  0.2116E-07  0.7225E-03  0.1042E-02  0.1938E+01
   -0.974916   16.75295  0.0000E+00  0.7725E-05  0.2045E-07  0.7438E-03  0.8993E-03  0.1840E+01
   -1.012414   16.75348  0.0000E+00  0.7490E-05  0.1996E-07  0.7432E-03  0.7711E-03  0.1665E+01
   -1.049911   16.75402  0.0000E+00  0.7253E-05  0.1970E-07  0.7204E-03  0.6602E-03  0.1502E+01
   -1.087408   16.75458  0.0000E+00  0.7018E-05  0.1964E-07  0.6925E-03  0.5660E-03  0.1360E+01
   -1.124905   16.75517  0.0000E+00  0.6789E-05  0.1979E-07  0.6563E-03  0.4864E-03  0.1231E+01
   -1.162402   16.75580  0.0000E+00  0.6568E-05  0.2014E-07  0.6202E-03  0.4199E-03  0.1124E+01
   -1.199898   16.75648  0.0000E+00  0.6353E-05  0.2072E-07  0.5798E-03  0.3645E-03  0.1204E+01
   -1.237395   16.75722  0.0000E+00  0.6139E-05  0.2162E-07  0.5259E-03  0.3174E-03  0.1477E+01
   -1.274891   16.75807  0.0000E+00  0.5915E-05  0.2296E-07  0.4647E-03  0.2771E-03  0.2190E+01
   -1.312386   16.75904  0.0000E+00  0.5656E-05  0.2510E-07  0.4058E-03  0.2430E-03  0.4016E+01
   -1.349882   16.76018  0.0000E+00  0.5326E-05  0.2883E-07  0.3108E-03  0.2124E-03  0.9594E+01
   -1.387377   16.76177  0.0000E+00  0.4892E-05  0.3556E-07  0.2803E-03  0.1808E-03  0.6836E+02
   -1.424872   16.76346  0.0000E+00  0.4152E-05  0.5612E-07  0.1216E-03  0.1565E-03  0.1594E+04
   -1.462367   16.77141  0.0000E+00  0.2500E-05  0.1372E-06  0.3874E-04  0.1179E-03 -0.3058E+04
   -1.499861   16.78561  0.0000E+00  0.0000E+00  0.0000E+00  0.0000E+00  0.1304E-03  0.0000E+00
