 1 - depth, m
 2 - temperature, C
 3 - salinity, kg/kg
 4 - turbulent kinetic energy, m**2/s**2
 5 - dissipation rate, m**2/s**3
 6 - kinematic heat conductance, m**2/s
 7 - modulus of horizontal velocity, m/s
 8 - Richardson number, n/d
   -0.000000    1.10242  0.0000E+00  0.9163E-03  0.4831E-02  0.8684E-04  0.4250E+00 -0.1693E-02
   -0.037494    1.11904  0.0000E+00  0.4964E-03  0.2659E-02  0.2229E-03  0.1408E+00 -0.1298E-01
   -0.074987    1.12559  0.0000E+00  0.3221E-03  0.6867E-03  0.3015E-03  0.8467E-01  0.3152E-02
   -0.112482    1.12857  0.0000E+00  0.2515E-03  0.4227E-03  0.3129E-03  0.6323E-01 -0.3544E-01
   -0.149976    1.13008  0.0000E+00  0.2083E-03  0.2916E-03  0.3191E-03  0.5237E-01  0.8565E-05
   -0.187471    1.13122  0.0000E+00  0.1762E-03  0.2010E-03  0.3199E-03  0.4529E-01  0.1138E-02
   -0.224966    1.13215  0.0000E+00  0.1520E-03  0.1364E-03  0.3228E-03  0.4083E-01  0.3006E-02
   -0.262461    1.13304  0.0000E+00  0.1327E-03  0.9222E-04  0.3282E-03  0.3670E-01  0.4220E-02
   -0.299957    1.13390  0.0000E+00  0.1175E-03  0.6198E-04  0.3360E-03  0.3340E-01  0.7678E-02
   -0.337453    1.13474  0.0000E+00  0.1053E-03  0.4122E-04  0.3429E-03  0.3062E-01  0.8056E-02
   -0.374949    1.13560  0.0000E+00  0.9548E-04  0.2732E-04  0.3502E-03  0.2819E-01  0.7747E-02
   -0.412445    1.13649  0.0000E+00  0.8734E-04  0.1821E-04  0.3566E-03  0.2602E-01  0.9947E-02
   -0.449941    1.13740  0.0000E+00  0.8057E-04  0.1217E-04  0.3630E-03  0.2407E-01  0.1299E-01
   -0.487438    1.13834  0.0000E+00  0.7488E-04  0.8041E-05  0.3643E-03  0.2227E-01  0.1603E-01
   -0.524935    1.13933  0.0000E+00  0.6920E-04  0.5339E-05  0.3752E-03  0.2024E-01  0.2298E-01
   -0.562431    1.14033  0.0000E+00  0.6449E-04  0.3654E-05  0.3800E-03  0.1876E-01  0.3164E-01
   -0.599928    1.14135  0.0000E+00  0.6030E-04  0.2576E-05  0.3826E-03  0.1742E-01  0.4271E-01
   -0.637425    1.14243  0.0000E+00  0.5649E-04  0.1877E-05  0.3849E-03  0.1616E-01  0.5422E-01
   -0.674922    1.14359  0.0000E+00  0.5306E-04  0.1407E-05  0.3866E-03  0.1502E-01  0.7620E-01
   -0.712419    1.14481  0.0000E+00  0.4994E-04  0.1091E-05  0.3862E-03  0.1397E-01  0.8872E-01
   -0.749916    1.14610  0.0000E+00  0.4711E-04  0.8715E-06  0.3756E-03  0.1300E-01  0.1866E+00
   -0.787414    1.14796  0.0000E+00  0.4429E-04  0.7115E-06  0.3797E-03  0.1183E-01  0.4631E+00
   -0.824911    1.14946  0.0000E+00  0.4170E-04  0.5961E-06  0.3748E-03  0.1097E-01  0.1351E+01
   -0.862408    1.15112  0.0000E+00  0.3929E-04  0.5103E-06  0.3687E-03  0.1017E-01  0.3203E+01
   -0.899905    1.15298  0.0000E+00  0.3703E-04  0.4444E-06  0.3604E-03  0.9416E-02  0.6116E+01
   -0.937401    1.15513  0.0000E+00  0.3489E-04  0.3922E-06  0.3495E-03  0.8702E-02  0.9403E+01
   -0.974898    1.15767  0.0000E+00  0.3285E-04  0.3493E-06  0.3370E-03  0.8018E-02  0.1244E+02
   -1.012395    1.16082  0.0000E+00  0.3087E-04  0.3134E-06  0.3248E-03  0.7353E-02  0.4314E+02
   -1.049891    1.16500  0.0000E+00  0.2895E-04  0.2829E-06  0.3111E-03  0.6735E-02  0.2171E+03
   -1.087388    1.17428  0.0000E+00  0.2705E-04  0.2566E-06  0.2954E-03  0.6152E-02  0.2299E+04
   -1.124884    1.22110  0.0000E+00  0.2518E-04  0.2342E-06  0.2792E-03  0.5575E-02  0.7706E+04
   -1.162380    1.34993  0.0000E+00  0.2336E-04  0.2152E-06  0.2614E-03  0.5030E-02  0.4833E+05
   -1.199876    1.55085  0.0000E+00  0.2159E-04  0.1996E-06  0.2422E-03  0.4511E-02  0.5977E+06
   -1.237371    1.81986  0.0000E+00  0.1985E-04  0.1877E-06  0.2209E-03  0.4014E-02  0.7486E+07
   -1.274867    2.10125  0.0000E+00  0.1810E-04  0.1802E-06  0.2004E-03  0.3537E-02  0.1743E+08
   -1.312362    2.16862  0.0000E+00  0.1632E-04  0.1791E-06  0.1749E-03  0.3130E-02  0.9554E+09
   -1.349857    2.22949  0.0000E+00  0.1442E-04  0.1893E-06  0.1443E-03  0.2760E-02  0.7285E+12
   -1.387351    2.27720  0.0000E+00  0.1227E-04  0.2236E-06  0.1076E-03  0.2418E-02 -0.7618E+10
   -1.424845    2.32536  0.0000E+00  0.9627E-05  0.3248E-06  0.6467E-04  0.2084E-02 -0.2266E+12
   -1.462339    2.37358  0.0000E+00  0.5222E-05  0.7774E-06  0.1285E-04  0.1754E-02 -0.2058E+14
   -1.499833    2.50809  0.0000E+00  0.0000E+00  0.0000E+00  0.0000E+00  0.1860E-02  0.0000E+00
