 1 - depth, m
 2 - temperature, C
 3 - salinity, kg/kg
 4 - turbulent kinetic energy, m**2/s**2
 5 - dissipation rate, m**2/s**3
 6 - kinematic heat conductance, m**2/s
 7 - modulus of horizontal velocity, m/s
 8 - Richardson number, n/d
   -0.000000    0.00000  0.0000E+00  0.4096E-13  0.8590E-16  0.1000E-09  0.0000E+00  0.1149E+17
   -0.037493    0.17655  0.0000E+00  0.4096E-13  0.8590E-16  0.1000E-09  0.0000E+00  0.1083E+17
   -0.074986    0.35133  0.0000E+00  0.4096E-13  0.8590E-16  0.1000E-09  0.0000E+00  0.1019E+17
   -0.112480    0.52439  0.0000E+00  0.4096E-13  0.8590E-16  0.1000E-09  0.0000E+00  0.9576E+16
   -0.149974    0.69576  0.0000E+00  0.4096E-13  0.8590E-16  0.1000E-09  0.0000E+00  0.8979E+16
   -0.187468    0.86548  0.0000E+00  0.8118E-13  0.8590E-16  0.1000E-09  0.0000E+00  0.8401E+16
   -0.224962    1.03360  0.0000E+00  0.2849E-12  0.8590E-16  0.1000E-09  0.0000E+00  0.7841E+16
   -0.262457    1.20012  0.0000E+00  0.6543E-12  0.1307E-15  0.1000E-09  0.0000E+00  0.7289E+16
   -0.299952    1.36485  0.0000E+00  0.1277E-11  0.2223E-15  0.1000E-09  0.0000E+00  0.6752E+16
   -0.337447    1.52773  0.0000E+00  0.2332E-11  0.3838E-15  0.1000E-09  0.0000E+00  0.6231E+16
   -0.374943    1.68870  0.0000E+00  0.4133E-11  0.6599E-15  0.1000E-09  0.0000E+00  0.5757E+16
   -0.412439    1.84861  0.0000E+00  0.7217E-11  0.1127E-14  0.1000E-09  0.0000E+00  0.5311E+16
   -0.449934    2.00799  0.0000E+00  0.1249E-10  0.1915E-14  0.1000E-09  0.0000E+00  0.4870E+16
   -0.487430    2.16680  0.0000E+00  0.2150E-10  0.3237E-14  0.1000E-09  0.0000E+00  0.4435E+16
   -0.524926    2.32500  0.0000E+00  0.3686E-10  0.5452E-14  0.1000E-09  0.0000E+00  0.4004E+16
   -0.562423    2.48246  0.0000E+00  0.6294E-10  0.9151E-14  0.1000E-09  0.0000E+00  0.3579E+16
   -0.599919    2.63912  0.0000E+00  0.1070E-09  0.1530E-13  0.1000E-09  0.0000E+00  0.3161E+16
   -0.637415    2.79494  0.0000E+00  0.1814E-09  0.2548E-13  0.1000E-09  0.0000E+00  0.2751E+16
   -0.674912    2.94984  0.0000E+00  0.3061E-09  0.4229E-13  0.1000E-09  0.0000E+00  0.2349E+16
   -0.712408    3.10375  0.0000E+00  0.5145E-09  0.6993E-13  0.1001E-09  0.0000E+00  0.1955E+16
   -0.749905    3.25660  0.0000E+00  0.8618E-09  0.1152E-12  0.2024E-09  0.0000E+00  0.1580E+16
   -0.787401    3.40933  0.0000E+00  0.1438E-08  0.1891E-12  0.4344E-09  0.0000E+00  0.1208E+16
   -0.824898    3.56218  0.0000E+00  0.2390E-08  0.3093E-12  0.1027E-08  0.0000E+00  0.8359E+15
   -0.862394    3.71473  0.0000E+00  0.3955E-08  0.5036E-12  0.3006E-08  0.0000E+00  0.4649E+15
   -0.899890    3.86549  0.0000E+00  0.6469E-08  0.8117E-12  0.1991E-07  0.0000E+00  0.1129E+15
   -0.937387    4.00064  0.0000E+00  0.7177E-08  0.9047E-12  0.2155E-04  0.0000E+00 -0.2322E+12
   -0.974883    4.00164  0.0000E+00  0.7506E-08  0.9563E-12  0.2307E-04  0.0000E+00 -0.2331E+12
   -1.012379    4.00258  0.0000E+00  0.7783E-08  0.1009E-11  0.2407E-04  0.0000E+00 -0.2381E+12
   -1.049875    4.00349  0.0000E+00  0.8018E-08  0.1064E-11  0.2444E-04  0.0000E+00 -0.2489E+12
   -1.087371    4.00439  0.0000E+00  0.8216E-08  0.1123E-11  0.2431E-04  0.0000E+00 -0.2651E+12
   -1.124866    4.00530  0.0000E+00  0.8380E-08  0.1190E-11  0.2390E-04  0.0000E+00 -0.2841E+12
   -1.162362    4.00623  0.0000E+00  0.8511E-08  0.1269E-11  0.2303E-04  0.0000E+00 -0.3103E+12
   -1.199857    4.00721  0.0000E+00  0.8601E-08  0.1366E-11  0.2074E-04  0.0000E+00 -0.3631E+12
   -1.237352    4.00829  0.0000E+00  0.8637E-08  0.1484E-11  0.1824E-04  0.0000E+00 -0.4370E+12
   -1.274847    4.00952  0.0000E+00  0.8604E-08  0.1637E-11  0.1575E-04  0.0000E+00 -0.5398E+12
   -1.312341    4.01096  0.0000E+00  0.8473E-08  0.1850E-11  0.1303E-04  0.0000E+00 -0.7016E+12
   -1.349836    4.01272  0.0000E+00  0.8193E-08  0.2173E-11  0.9887E-05  0.0000E+00 -0.1007E+13
   -1.387329    4.01505  0.0000E+00  0.7657E-08  0.2739E-11  0.6364E-05  0.0000E+00 -0.1750E+13
   -1.424823    4.01870  0.0000E+00  0.6579E-08  0.4034E-11  0.2820E-05  0.0000E+00 -0.4696E+13
   -1.462316    4.02692  0.0000E+00  0.4292E-08  0.8871E-11  0.4375E-06  0.0000E+00 -0.4243E+14
   -1.499809    4.07040  0.0000E+00  0.0000E+00  0.0000E+00  0.0000E+00  0.0000E+00  0.0000E+00
