 1 - depth, m
 2 - temperature, C
 3 - salinity, kg/kg
 4 - turbulent kinetic energy, m**2/s**2
 5 - dissipation rate, m**2/s**3
 6 - kinematic heat conductance, m**2/s
 7 - modulus of horizontal velocity, m/s
 8 - Richardson number, n/d
   -0.000000    0.00000  0.0000E+00  0.4096E-13  0.8590E-16  0.1000E-09  0.0000E+00  0.7362E+16
   -0.037493    0.11213  0.0000E+00  0.4096E-13  0.8590E-16  0.1000E-09  0.0000E+00  0.7138E+16
   -0.074987    0.22424  0.0000E+00  0.4096E-13  0.8590E-16  0.1000E-09  0.0000E+00  0.6906E+16
   -0.112482    0.33621  0.0000E+00  0.4096E-13  0.8590E-16  0.1000E-09  0.0000E+00  0.6671E+16
   -0.149976    0.44794  0.0000E+00  0.4096E-13  0.8590E-16  0.1000E-09  0.0000E+00  0.6433E+16
   -0.187471    0.55936  0.0000E+00  0.4096E-13  0.8590E-16  0.1000E-09  0.0000E+00  0.6195E+16
   -0.224966    0.67040  0.0000E+00  0.4096E-13  0.8590E-16  0.1000E-09  0.0000E+00  0.5957E+16
   -0.262461    0.78101  0.0000E+00  0.4096E-13  0.8590E-16  0.1000E-09  0.0000E+00  0.5717E+16
   -0.299957    0.89108  0.0000E+00  0.4096E-13  0.8590E-16  0.1000E-09  0.0000E+00  0.5478E+16
   -0.337453    1.00056  0.0000E+00  0.4096E-13  0.8590E-16  0.1000E-09  0.0000E+00  0.5240E+16
   -0.374949    1.10937  0.0000E+00  0.4096E-13  0.8590E-16  0.1000E-09  0.0000E+00  0.5011E+16
   -0.412445    1.21764  0.0000E+00  0.4096E-13  0.8590E-16  0.1000E-09  0.0000E+00  0.4788E+16
   -0.449941    1.32539  0.0000E+00  0.4096E-13  0.8590E-16  0.1000E-09  0.0000E+00  0.4566E+16
   -0.487438    1.43258  0.0000E+00  0.4096E-13  0.8590E-16  0.1000E-09  0.0000E+00  0.4347E+16
   -0.524935    1.53917  0.0000E+00  0.4096E-13  0.8590E-16  0.1000E-09  0.0000E+00  0.4127E+16
   -0.562431    1.64505  0.0000E+00  0.4096E-13  0.8590E-16  0.1000E-09  0.0000E+00  0.3910E+16
   -0.599928    1.75016  0.0000E+00  0.4096E-13  0.8590E-16  0.1000E-09  0.0000E+00  0.3696E+16
   -0.637425    1.85446  0.0000E+00  0.4096E-13  0.8590E-16  0.1000E-09  0.0000E+00  0.3484E+16
   -0.674922    1.95788  0.0000E+00  0.4096E-13  0.8590E-16  0.1000E-09  0.0000E+00  0.3276E+16
   -0.712419    2.06035  0.0000E+00  0.4096E-13  0.8590E-16  0.1000E-09  0.0000E+00  0.3071E+16
   -0.749916    2.16180  0.0000E+00  0.4096E-13  0.8590E-16  0.1000E-09  0.0000E+00  0.2879E+16
   -0.787413    2.26250  0.0000E+00  0.4096E-13  0.8590E-16  0.1000E-09  0.0000E+00  0.2693E+16
   -0.824910    2.36250  0.0000E+00  0.4096E-13  0.8590E-16  0.1000E-09  0.0000E+00  0.2510E+16
   -0.862407    2.46174  0.0000E+00  0.4096E-13  0.8590E-16  0.1000E-09  0.0000E+00  0.2329E+16
   -0.899904    2.56018  0.0000E+00  0.4096E-13  0.8590E-16  0.1000E-09  0.0000E+00  0.2152E+16
   -0.937401    2.65776  0.0000E+00  0.4096E-13  0.8590E-16  0.1000E-09  0.0000E+00  0.1978E+16
   -0.974898    2.75442  0.0000E+00  0.4096E-13  0.8590E-16  0.1000E-09  0.0000E+00  0.1808E+16
   -1.012395    2.85010  0.0000E+00  0.4096E-13  0.8590E-16  0.1000E-09  0.0000E+00  0.1641E+16
   -1.049891    2.94463  0.0000E+00  0.4096E-13  0.8590E-16  0.1000E-09  0.0000E+00  0.1477E+16
   -1.087388    3.03786  0.0000E+00  0.4096E-13  0.8590E-16  0.1000E-09  0.0000E+00  0.1317E+16
   -1.124884    3.12969  0.0000E+00  0.4096E-13  0.8590E-16  0.1000E-09  0.0000E+00  0.1176E+16
   -1.162380    3.22106  0.0000E+00  0.4096E-13  0.8590E-16  0.1000E-09  0.0000E+00  0.1038E+16
   -1.199876    3.31211  0.0000E+00  0.4096E-13  0.8590E-16  0.1000E-09  0.0000E+00  0.9026E+15
   -1.237371    3.40284  0.0000E+00  0.4096E-13  0.8590E-16  0.1000E-09  0.0000E+00  0.7690E+15
   -1.274867    3.49326  0.0000E+00  0.4096E-13  0.8590E-16  0.1000E-09  0.0000E+00  0.6380E+15
   -1.312362    3.58355  0.0000E+00  0.4365E-13  0.8590E-16  0.1000E-09  0.0000E+00  0.5083E+15
   -1.349856    3.67378  0.0000E+00  0.1151E-12  0.1176E-15  0.1000E-09  0.0000E+00  0.3796E+15
   -1.387351    3.76402  0.0000E+00  0.3744E-12  0.2818E-15  0.1000E-09  0.0000E+00  0.2515E+15
   -1.424845    3.85442  0.0000E+00  0.1195E-11  0.8248E-15  0.1000E-09  0.0000E+00  0.1232E+15
   -1.462339    3.94521  0.0000E+00  0.3781E-11  0.2553E-14  0.2605E-08  0.0000E+00 -0.5487E+13
   -1.499833    4.03525  0.0000E+00  0.0000E+00  0.0000E+00  0.0000E+00  0.0000E+00  0.0000E+00
