 1 - depth, m
 2 - temperature, C
 3 - salinity, kg/kg
 4 - turbulent kinetic energy, m**2/s**2
 5 - dissipation rate, m**2/s**3
 6 - kinematic heat conductance, m**2/s
 7 - modulus of horizontal velocity, m/s
 8 - Richardson number, n/d
   -0.000000    0.00000  0.0000E+00  0.4096E-13  0.8590E-16  0.1000E-09  0.0000E+00  0.9096E+16
   -0.037501    0.13903  0.0000E+00  0.4096E-13  0.8590E-16  0.1000E-09  0.0000E+00  0.8670E+16
   -0.075002    0.27673  0.0000E+00  0.4096E-13  0.8590E-16  0.1000E-09  0.0000E+00  0.8261E+16
   -0.112504    0.41320  0.0000E+00  0.4096E-13  0.8590E-16  0.1000E-09  0.0000E+00  0.7866E+16
   -0.150006    0.54849  0.0000E+00  0.4096E-13  0.8590E-16  0.1000E-09  0.0000E+00  0.7484E+16
   -0.187508    0.68266  0.0000E+00  0.4096E-13  0.8590E-16  0.1000E-09  0.0000E+00  0.7113E+16
   -0.225010    0.81574  0.0000E+00  0.4096E-13  0.8590E-16  0.1000E-09  0.0000E+00  0.6750E+16
   -0.262513    0.94772  0.0000E+00  0.4096E-13  0.8590E-16  0.1000E-09  0.0000E+00  0.6394E+16
   -0.300016    1.07854  0.0000E+00  0.4096E-13  0.8590E-16  0.1000E-09  0.0000E+00  0.6045E+16
   -0.337519    1.20818  0.0000E+00  0.4096E-13  0.8590E-16  0.1000E-09  0.0000E+00  0.5704E+16
   -0.375023    1.33659  0.0000E+00  0.4096E-13  0.8590E-16  0.1000E-09  0.0000E+00  0.5378E+16
   -0.412526    1.46393  0.0000E+00  0.4096E-13  0.8590E-16  0.1000E-09  0.0000E+00  0.5063E+16
   -0.450030    1.59025  0.0000E+00  0.4096E-13  0.8590E-16  0.1000E-09  0.0000E+00  0.4754E+16
   -0.487534    1.71551  0.0000E+00  0.4096E-13  0.8590E-16  0.1000E-09  0.0000E+00  0.4450E+16
   -0.525038    1.83965  0.0000E+00  0.4096E-13  0.8590E-16  0.1000E-09  0.0000E+00  0.4152E+16
   -0.562542    1.96256  0.0000E+00  0.4096E-13  0.8590E-16  0.1000E-09  0.0000E+00  0.3859E+16
   -0.600047    2.08419  0.0000E+00  0.4096E-13  0.8590E-16  0.1000E-09  0.0000E+00  0.3574E+16
   -0.637551    2.20444  0.0000E+00  0.4096E-13  0.8590E-16  0.1000E-09  0.0000E+00  0.3295E+16
   -0.675055    2.32324  0.0000E+00  0.4096E-13  0.8590E-16  0.1000E-09  0.0000E+00  0.3024E+16
   -0.712560    2.44051  0.0000E+00  0.4096E-13  0.8590E-16  0.1000E-09  0.0000E+00  0.2760E+16
   -0.750064    2.55615  0.0000E+00  0.4096E-13  0.8590E-16  0.1000E-09  0.0000E+00  0.2511E+16
   -0.787569    2.67034  0.0000E+00  0.4096E-13  0.8590E-16  0.1000E-09  0.0000E+00  0.2270E+16
   -0.825073    2.78309  0.0000E+00  0.4255E-13  0.8590E-16  0.1000E-09  0.0000E+00  0.2036E+16
   -0.862577    2.89430  0.0000E+00  0.1933E-12  0.9704E-16  0.1000E-09  0.0000E+00  0.1810E+16
   -0.900082    3.00387  0.0000E+00  0.5326E-12  0.1975E-15  0.1000E-09  0.0000E+00  0.1592E+16
   -0.937586    3.11171  0.0000E+00  0.1257E-11  0.4309E-15  0.1000E-09  0.0000E+00  0.1382E+16
   -0.975090    3.21768  0.0000E+00  0.2822E-11  0.9335E-15  0.1000E-09  0.0000E+00  0.1181E+16
   -1.012594    3.32168  0.0000E+00  0.6224E-11  0.2005E-14  0.1000E-09  0.0000E+00  0.9869E+15
   -1.050098    3.42333  0.0000E+00  0.1362E-10  0.4282E-14  0.1000E-09  0.0000E+00  0.8031E+15
   -1.087602    3.52237  0.0000E+00  0.2959E-10  0.9081E-14  0.1000E-09  0.0000E+00  0.6308E+15
   -1.125106    3.61857  0.0000E+00  0.6381E-10  0.1913E-13  0.1103E-09  0.0000E+00  0.4793E+15
   -1.162609    3.71365  0.0000E+00  0.1367E-09  0.4005E-13  0.3313E-09  0.0000E+00  0.3335E+15
   -1.200112    3.80767  0.0000E+00  0.2906E-09  0.8330E-13  0.1191E-08  0.0000E+00  0.1922E+15
   -1.237615    3.90014  0.0000E+00  0.6119E-09  0.1718E-12  0.7954E-08  0.0000E+00  0.5819E+14
   -1.275118    3.98744  0.0000E+00  0.1161E-08  0.3240E-12  0.1131E-05  0.0000E+00 -0.9910E+12
   -1.312621    3.99769  0.0000E+00  0.1613E-08  0.5005E-12  0.1876E-05  0.0000E+00 -0.1472E+13
   -1.350123    4.00413  0.0000E+00  0.1940E-08  0.7082E-12  0.1948E-05  0.0000E+00 -0.2052E+13
   -1.387625    4.01038  0.0000E+00  0.2109E-08  0.9925E-12  0.1582E-05  0.0000E+00 -0.3347E+13
   -1.425126    4.01804  0.0000E+00  0.2031E-08  0.1489E-11  0.8938E-06  0.0000E+00 -0.7744E+13
   -1.462627    4.03098  0.0000E+00  0.1558E-08  0.2813E-11  0.2138E-06  0.0000E+00 -0.3863E+14
   -1.500128    4.06957  0.0000E+00  0.0000E+00  0.0000E+00  0.0000E+00  0.0000E+00  0.0000E+00
