 1 - depth, m
 2 - temperature, C
 3 - salinity, kg/kg
 4 - turbulent kinetic energy, m**2/s**2
 5 - dissipation rate, m**2/s**3
 6 - kinematic heat conductance, m**2/s
 7 - modulus of horizontal velocity, m/s
 8 - Richardson number, n/d
   -0.000000   15.50012  0.0000E+00  0.6007E-04  0.1564E-04  0.3982E-04  0.6177E-01  0.4963E-02
   -0.037500   15.56105  0.0000E+00  0.3755E-04  0.4402E-05  0.5799E-04  0.2728E-01 -0.4815E-01
   -0.074999   15.57527  0.0000E+00  0.2982E-04  0.1984E-05  0.7813E-04  0.2087E-01 -0.5075E-01
   -0.112500   15.58461  0.0000E+00  0.2541E-04  0.1079E-05  0.9971E-04  0.1728E-01 -0.6745E-01
   -0.150000   15.59172  0.0000E+00  0.2243E-04  0.6513E-06  0.1246E-03  0.1469E-01 -0.2713E-01
   -0.187501   15.59738  0.0000E+00  0.2028E-04  0.4274E-06  0.1763E-03  0.1269E-01  0.3578E+03
   -0.225002   15.60178  0.0000E+00  0.1869E-04  0.3012E-06  0.2319E-03  0.1111E-01  0.3282E+02
   -0.262504   15.60532  0.0000E+00  0.1749E-04  0.2248E-06  0.2989E-03  0.9827E-02  0.6453E+02
   -0.300005   15.60811  0.0000E+00  0.1659E-04  0.1761E-06  0.3939E-03  0.8776E-02  0.2558E+03
   -0.337507   15.61019  0.0000E+00  0.1591E-04  0.1436E-06  0.4740E-03  0.7901E-02  0.2847E+03
   -0.375009   15.61173  0.0000E+00  0.1540E-04  0.1206E-06  0.5106E-03  0.7137E-02  0.4696E+03
   -0.412512   15.61306  0.0000E+00  0.1498E-04  0.1031E-06  0.5364E-03  0.6440E-02  0.9564E+02
   -0.450014   15.61428  0.0000E+00  0.1463E-04  0.8948E-07  0.5612E-03  0.5800E-02  0.1644E+02
   -0.487517   15.61543  0.0000E+00  0.1431E-04  0.7840E-07  0.5821E-03  0.5210E-02  0.1013E+02
   -0.525019   15.61653  0.0000E+00  0.1400E-04  0.6913E-07  0.6079E-03  0.4657E-02  0.7244E+01
   -0.562522   15.61758  0.0000E+00  0.1370E-04  0.6119E-07  0.6299E-03  0.4150E-02  0.6271E+01
   -0.600025   15.61860  0.0000E+00  0.1339E-04  0.5432E-07  0.6672E-03  0.3670E-02  0.6031E+01
   -0.637528   15.61957  0.0000E+00  0.1305E-04  0.4795E-07  0.7140E-03  0.3240E-02  0.5816E+01
   -0.675031   15.62048  0.0000E+00  0.1280E-04  0.4427E-07  0.1129E-02  0.2776E-02  0.2297E+01
   -0.712534   15.62105  0.0000E+00  0.1265E-04  0.4224E-07  0.1202E-02  0.2608E-02  0.2337E+01
   -0.750037   15.62160  0.0000E+00  0.1248E-04  0.4004E-07  0.7432E-03  0.2465E-02  0.2728E+01
   -0.787540   15.62248  0.0000E+00  0.1214E-04  0.3668E-07  0.7643E-03  0.2103E-02  0.3334E+01
   -0.825044   15.62334  0.0000E+00  0.1177E-04  0.3384E-07  0.7820E-03  0.1817E-02  0.2928E+01
   -0.862547   15.62419  0.0000E+00  0.1154E-04  0.3245E-07  0.1258E-02  0.1514E-02  0.1788E+01
   -0.900050   15.62472  0.0000E+00  0.1139E-04  0.3177E-07  0.1254E-02  0.1419E-02  0.1823E+01
   -0.937553   15.62526  0.0000E+00  0.1119E-04  0.3111E-07  0.7739E-03  0.1342E-02  0.1895E+01
   -0.975055   15.62614  0.0000E+00  0.1077E-04  0.3028E-07  0.7640E-03  0.1127E-02  0.1995E+01
   -1.012558   15.62705  0.0000E+00  0.1035E-04  0.2989E-07  0.7595E-03  0.9565E-03  0.1742E+01
   -1.050061   15.62797  0.0000E+00  0.9941E-05  0.2989E-07  0.7717E-03  0.8100E-03  0.1557E+01
   -1.087563   15.62890  0.0000E+00  0.9540E-05  0.3025E-07  0.7772E-03  0.6895E-03  0.1397E+01
   -1.125065   15.62982  0.0000E+00  0.9159E-05  0.3096E-07  0.7546E-03  0.5907E-03  0.1254E+01
   -1.162568   15.63077  0.0000E+00  0.8803E-05  0.3200E-07  0.6932E-03  0.5106E-03  0.1125E+01
   -1.200069   15.63183  0.0000E+00  0.8472E-05  0.3337E-07  0.6177E-03  0.4457E-03  0.1028E+01
   -1.237571   15.63303  0.0000E+00  0.8156E-05  0.3518E-07  0.5620E-03  0.3932E-03  0.1144E+01
   -1.275072   15.63437  0.0000E+00  0.7819E-05  0.3794E-07  0.4951E-03  0.3496E-03  0.1685E+01
   -1.312574   15.63599  0.0000E+00  0.7415E-05  0.4232E-07  0.4443E-03  0.3099E-03  0.9453E+01
   -1.350074   15.63782  0.0000E+00  0.6884E-05  0.5062E-07  0.3310E-03  0.2738E-03  0.9912E+02
   -1.387575   15.64101  0.0000E+00  0.6172E-05  0.6630E-07  0.2904E-03  0.2312E-03  0.1638E+04
   -1.425075   15.64378  0.0000E+00  0.5092E-05  0.1111E-06  0.1350E-03  0.1997E-03  0.3521E+05
   -1.462575   15.65854  0.0000E+00  0.3136E-05  0.2690E-06  0.5101E-04  0.1509E-03 -0.2209E+05
   -1.500075   15.67776  0.0000E+00  0.0000E+00  0.0000E+00  0.0000E+00  0.1730E-03  0.0000E+00
