 1 - depth, m
 2 - temperature, C
 3 - salinity, kg/kg
 4 - turbulent kinetic energy, m**2/s**2
 5 - dissipation rate, m**2/s**3
 6 - kinematic heat conductance, m**2/s
 7 - modulus of horizontal velocity, m/s
 8 - Richardson number, n/d
   -0.000000    0.00000  0.0000E+00  0.4096E-13  0.8590E-16  0.1000E-09  0.0000E+00  0.1118E+17
   -0.037494    0.17159  0.0000E+00  0.4096E-13  0.8590E-16  0.1000E-09  0.0000E+00  0.1048E+17
   -0.074988    0.34028  0.0000E+00  0.4096E-13  0.8590E-16  0.1000E-09  0.0000E+00  0.9760E+16
   -0.112483    0.50525  0.0000E+00  0.4096E-13  0.8590E-16  0.1000E-09  0.0000E+00  0.9035E+16
   -0.149978    0.66570  0.0000E+00  0.4096E-13  0.8590E-16  0.1000E-09  0.0000E+00  0.8313E+16
   -0.187474    0.82094  0.0000E+00  0.4096E-13  0.8590E-16  0.1000E-09  0.0000E+00  0.7606E+16
   -0.224969    0.97035  0.0000E+00  0.4096E-13  0.8590E-16  0.1000E-09  0.0000E+00  0.6923E+16
   -0.262465    1.11346  0.0000E+00  0.4096E-13  0.8590E-16  0.1000E-09  0.0000E+00  0.6258E+16
   -0.299961    1.24958  0.0000E+00  0.4096E-13  0.8590E-16  0.1000E-09  0.0000E+00  0.5632E+16
   -0.337458    1.37842  0.0000E+00  0.4096E-13  0.8590E-16  0.1000E-09  0.0000E+00  0.5051E+16
   -0.374954    1.49991  0.0000E+00  0.4096E-13  0.8590E-16  0.1000E-09  0.0000E+00  0.4612E+16
   -0.412451    1.61651  0.0000E+00  0.4096E-13  0.8590E-16  0.1000E-09  0.0000E+00  0.4266E+16
   -0.449948    1.72994  0.0000E+00  0.4096E-13  0.8590E-16  0.1000E-09  0.0000E+00  0.3951E+16
   -0.487445    1.84054  0.0000E+00  0.4096E-13  0.8590E-16  0.1000E-09  0.0000E+00  0.3665E+16
   -0.524942    1.94871  0.0000E+00  0.4096E-13  0.8590E-16  0.1000E-09  0.0000E+00  0.3404E+16
   -0.562440    2.05477  0.0000E+00  0.4096E-13  0.8590E-16  0.1000E-09  0.0000E+00  0.3163E+16
   -0.599937    2.15902  0.0000E+00  0.4096E-13  0.8590E-16  0.1000E-09  0.0000E+00  0.2939E+16
   -0.637435    2.26170  0.0000E+00  0.4096E-13  0.8590E-16  0.1000E-09  0.0000E+00  0.2726E+16
   -0.674932    2.36291  0.0000E+00  0.4096E-13  0.8590E-16  0.1000E-09  0.0000E+00  0.2521E+16
   -0.712430    2.46262  0.0000E+00  0.4096E-13  0.8590E-16  0.1000E-09  0.0000E+00  0.2319E+16
   -0.749928    2.56068  0.0000E+00  0.4096E-13  0.8590E-16  0.1000E-09  0.0000E+00  0.2162E+16
   -0.787425    2.65878  0.0000E+00  0.4096E-13  0.8590E-16  0.1000E-09  0.0000E+00  0.2013E+16
   -0.824923    2.75728  0.0000E+00  0.4096E-13  0.8590E-16  0.1000E-09  0.0000E+00  0.1854E+16
   -0.862420    2.85574  0.0000E+00  0.4096E-13  0.8590E-16  0.1000E-09  0.0000E+00  0.1687E+16
   -0.899918    2.95363  0.0000E+00  0.4096E-13  0.8590E-16  0.1000E-09  0.0000E+00  0.1514E+16
   -0.937415    3.05033  0.0000E+00  0.4096E-13  0.8590E-16  0.1000E-09  0.0000E+00  0.1339E+16
   -0.974913    3.14522  0.0000E+00  0.4096E-13  0.8590E-16  0.1000E-09  0.0000E+00  0.1166E+16
   -1.012410    3.23767  0.0000E+00  0.4096E-13  0.8590E-16  0.1000E-09  0.0000E+00  0.1005E+16
   -1.049907    3.32783  0.0000E+00  0.4503E-13  0.8590E-16  0.1000E-09  0.0000E+00  0.8514E+15
   -1.087404    3.41542  0.0000E+00  0.1604E-12  0.1320E-15  0.1000E-09  0.0000E+00  0.7072E+15
   -1.124901    3.50013  0.0000E+00  0.5318E-12  0.3795E-15  0.1000E-09  0.0000E+00  0.5716E+15
   -1.162397    3.58147  0.0000E+00  0.1644E-11  0.1130E-14  0.1000E-09  0.0000E+00  0.4490E+15
   -1.199894    3.65933  0.0000E+00  0.4967E-11  0.3330E-14  0.1000E-09  0.0000E+00  0.3400E+15
   -1.237390    3.73386  0.0000E+00  0.1483E-10  0.9733E-14  0.1128E-09  0.0000E+00  0.2446E+15
   -1.274886    3.80560  0.0000E+00  0.4435E-10  0.2859E-13  0.4715E-09  0.0000E+00  0.1616E+15
   -1.312381    3.87621  0.0000E+00  0.1322E-09  0.8408E-13  0.2610E-08  0.0000E+00  0.8277E+14
   -1.349877    3.94604  0.0000E+00  0.3867E-09  0.2464E-12  0.3867E-07  0.0000E+00  0.1080E+14
   -1.387372    4.00415  0.0000E+00  0.9986E-09  0.7116E-12  0.4833E-06  0.0000E+00 -0.7584E+13
   -1.424867    4.02222  0.0000E+00  0.1406E-08  0.1394E-11  0.4847E-06  0.0000E+00 -0.1461E+14
   -1.462361    4.04249  0.0000E+00  0.1429E-08  0.2835E-11  0.2052E-06  0.0000E+00 -0.5232E+14
   -1.499855    4.08552  0.0000E+00  0.0000E+00  0.0000E+00  0.0000E+00  0.0000E+00  0.0000E+00
