 1 - depth, m
 2 - temperature, C
 3 - salinity, kg/kg
 4 - turbulent kinetic energy, m**2/s**2
 5 - dissipation rate, m**2/s**3
 6 - kinematic heat conductance, m**2/s
 7 - modulus of horizontal velocity, m/s
 8 - Richardson number, n/d
   -0.000000    0.00000  0.0000E+00  0.4096E-13  0.8590E-16  0.1000E-09  0.0000E+00  0.8750E+16
   -0.037498    0.13365  0.0000E+00  0.4096E-13  0.8590E-16  0.1000E-09  0.0000E+00  0.8439E+16
   -0.074997    0.26742  0.0000E+00  0.4096E-13  0.8590E-16  0.1000E-09  0.0000E+00  0.8114E+16
   -0.112496    0.40103  0.0000E+00  0.4096E-13  0.8590E-16  0.1000E-09  0.0000E+00  0.7778E+16
   -0.149995    0.53427  0.0000E+00  0.4096E-13  0.8590E-16  0.1000E-09  0.0000E+00  0.7436E+16
   -0.187494    0.66695  0.0000E+00  0.4096E-13  0.8590E-16  0.1000E-09  0.0000E+00  0.7090E+16
   -0.224994    0.79890  0.0000E+00  0.4096E-13  0.8590E-16  0.1000E-09  0.0000E+00  0.6744E+16
   -0.262494    0.92999  0.0000E+00  0.4096E-13  0.8590E-16  0.1000E-09  0.0000E+00  0.6396E+16
   -0.299995    1.06003  0.0000E+00  0.4096E-13  0.8590E-16  0.1000E-09  0.0000E+00  0.6051E+16
   -0.337495    1.18890  0.0000E+00  0.4096E-13  0.8590E-16  0.1000E-09  0.0000E+00  0.5711E+16
   -0.374996    1.31650  0.0000E+00  0.4096E-13  0.8590E-16  0.1000E-09  0.0000E+00  0.5383E+16
   -0.412497    1.44290  0.0000E+00  0.4096E-13  0.8590E-16  0.1000E-09  0.0000E+00  0.5065E+16
   -0.449998    1.56813  0.0000E+00  0.4096E-13  0.8590E-16  0.1000E-09  0.0000E+00  0.4754E+16
   -0.487499    1.69213  0.0000E+00  0.4096E-13  0.8590E-16  0.1000E-09  0.0000E+00  0.4448E+16
   -0.525001    1.81483  0.0000E+00  0.4096E-13  0.8590E-16  0.1000E-09  0.0000E+00  0.4148E+16
   -0.562502    1.93609  0.0000E+00  0.4096E-13  0.8590E-16  0.1000E-09  0.0000E+00  0.3855E+16
   -0.600004    2.05586  0.0000E+00  0.4096E-13  0.8590E-16  0.1000E-09  0.0000E+00  0.3570E+16
   -0.637505    2.17407  0.0000E+00  0.4096E-13  0.8590E-16  0.1000E-09  0.0000E+00  0.3294E+16
   -0.675007    2.29062  0.0000E+00  0.4096E-13  0.8590E-16  0.1000E-09  0.0000E+00  0.3025E+16
   -0.712509    2.40546  0.0000E+00  0.4096E-13  0.8590E-16  0.1000E-09  0.0000E+00  0.2766E+16
   -0.750011    2.51850  0.0000E+00  0.4096E-13  0.8590E-16  0.1000E-09  0.0000E+00  0.2522E+16
   -0.787512    2.62997  0.0000E+00  0.4096E-13  0.8590E-16  0.1000E-09  0.0000E+00  0.2288E+16
   -0.825014    2.73991  0.0000E+00  0.4096E-13  0.8590E-16  0.1000E-09  0.0000E+00  0.2062E+16
   -0.862516    2.84826  0.0000E+00  0.4096E-13  0.8590E-16  0.1000E-09  0.0000E+00  0.1844E+16
   -0.900018    2.95493  0.0000E+00  0.8096E-13  0.8590E-16  0.1000E-09  0.0000E+00  0.1634E+16
   -0.937519    3.05985  0.0000E+00  0.2851E-12  0.1426E-15  0.1000E-09  0.0000E+00  0.1433E+16
   -0.975021    3.16294  0.0000E+00  0.7666E-12  0.3291E-15  0.1000E-09  0.0000E+00  0.1240E+16
   -1.012522    3.26410  0.0000E+00  0.1894E-11  0.7747E-15  0.1000E-09  0.0000E+00  0.1053E+16
   -1.050023    3.36296  0.0000E+00  0.4559E-11  0.1809E-14  0.1000E-09  0.0000E+00  0.8759E+15
   -1.087524    3.45929  0.0000E+00  0.1083E-10  0.4184E-14  0.1000E-09  0.0000E+00  0.7094E+15
   -1.125025    3.55287  0.0000E+00  0.2546E-10  0.9591E-14  0.1000E-09  0.0000E+00  0.5652E+15
   -1.162526    3.64550  0.0000E+00  0.5936E-10  0.2181E-13  0.1410E-09  0.0000E+00  0.4266E+15
   -1.200027    3.73744  0.0000E+00  0.1372E-09  0.4921E-13  0.4650E-09  0.0000E+00  0.2911E+15
   -1.237527    3.82852  0.0000E+00  0.3145E-09  0.1102E-12  0.1895E-08  0.0000E+00  0.1589E+15
   -1.275027    3.91810  0.0000E+00  0.7168E-09  0.2460E-12  0.1810E-07  0.0000E+00  0.3541E+14
   -1.312527    3.99819  0.0000E+00  0.1425E-08  0.4901E-12  0.1553E-05  0.0000E+00 -0.1838E+13
   -1.350026    4.00573  0.0000E+00  0.1837E-08  0.7129E-12  0.1786E-05  0.0000E+00 -0.2351E+13
   -1.387526    4.01235  0.0000E+00  0.2051E-08  0.9959E-12  0.1520E-05  0.0000E+00 -0.3600E+13
   -1.425025    4.02004  0.0000E+00  0.1991E-08  0.1470E-11  0.8804E-06  0.0000E+00 -0.7900E+13
   -1.462523    4.03265  0.0000E+00  0.1519E-08  0.2724E-11  0.2090E-06  0.0000E+00 -0.3794E+14
   -1.500021    4.06995  0.0000E+00  0.0000E+00  0.0000E+00  0.0000E+00  0.0000E+00  0.0000E+00
