 1 - depth, m
 2 - temperature, C
 3 - salinity, kg/kg
 4 - turbulent kinetic energy, m**2/s**2
 5 - dissipation rate, m**2/s**3
 6 - kinematic heat conductance, m**2/s
 7 - modulus of horizontal velocity, m/s
 8 - Richardson number, n/d
   -0.000000    0.00000  0.0000E+00  0.4096E-13  0.8590E-16  0.1000E-09  0.0000E+00  0.1114E+17
   -0.037500    0.17102  0.0000E+00  0.4096E-13  0.8590E-16  0.1000E-09  0.0000E+00  0.1049E+17
   -0.075000    0.33994  0.0000E+00  0.4096E-13  0.8590E-16  0.1000E-09  0.0000E+00  0.9865E+16
   -0.112500    0.50670  0.0000E+00  0.4096E-13  0.8590E-16  0.1000E-09  0.0000E+00  0.9258E+16
   -0.150001    0.67130  0.0000E+00  0.4096E-13  0.8590E-16  0.1000E-09  0.0000E+00  0.8672E+16
   -0.187502    0.83373  0.0000E+00  0.4096E-13  0.8590E-16  0.1000E-09  0.0000E+00  0.8108E+16
   -0.225003    0.99399  0.0000E+00  0.4096E-13  0.8590E-16  0.1000E-09  0.0000E+00  0.7564E+16
   -0.262505    1.15210  0.0000E+00  0.4096E-13  0.8590E-16  0.1000E-09  0.0000E+00  0.7037E+16
   -0.300007    1.30797  0.0000E+00  0.4096E-13  0.8590E-16  0.1000E-09  0.0000E+00  0.6529E+16
   -0.337509    1.46158  0.0000E+00  0.4096E-13  0.8590E-16  0.1000E-09  0.0000E+00  0.6038E+16
   -0.375011    1.61288  0.0000E+00  0.4096E-13  0.8590E-16  0.1000E-09  0.0000E+00  0.5579E+16
   -0.412513    1.76219  0.0000E+00  0.6750E-13  0.8590E-16  0.1000E-09  0.0000E+00  0.5142E+16
   -0.450016    1.90966  0.0000E+00  0.2300E-12  0.8938E-16  0.1000E-09  0.0000E+00  0.4719E+16
   -0.487519    2.05525  0.0000E+00  0.5613E-12  0.1265E-15  0.1000E-09  0.0000E+00  0.4310E+16
   -0.525022    2.19887  0.0000E+00  0.1134E-11  0.2156E-15  0.1000E-09  0.0000E+00  0.3912E+16
   -0.562525    2.34041  0.0000E+00  0.2121E-11  0.3790E-15  0.1000E-09  0.0000E+00  0.3529E+16
   -0.600028    2.47977  0.0000E+00  0.3837E-11  0.6659E-15  0.1000E-09  0.0000E+00  0.3160E+16
   -0.637531    2.61685  0.0000E+00  0.6844E-11  0.1165E-14  0.1000E-09  0.0000E+00  0.2805E+16
   -0.675034    2.75153  0.0000E+00  0.1212E-10  0.2029E-14  0.1000E-09  0.0000E+00  0.2465E+16
   -0.712538    2.88370  0.0000E+00  0.2137E-10  0.3523E-14  0.1000E-09  0.0000E+00  0.2141E+16
   -0.750041    3.01322  0.0000E+00  0.3758E-10  0.6104E-14  0.1000E-09  0.0000E+00  0.1841E+16
   -0.787544    3.14058  0.0000E+00  0.6592E-10  0.1055E-13  0.1000E-09  0.0000E+00  0.1556E+16
   -0.825047    3.26584  0.0000E+00  0.1154E-09  0.1819E-13  0.1000E-09  0.0000E+00  0.1283E+16
   -0.862551    3.38884  0.0000E+00  0.2016E-09  0.3130E-13  0.1024E-09  0.0000E+00  0.1023E+16
   -0.900054    3.50936  0.0000E+00  0.3512E-09  0.5373E-13  0.1923E-09  0.0000E+00  0.7754E+15
   -0.937557    3.62696  0.0000E+00  0.6104E-09  0.9196E-13  0.4689E-09  0.0000E+00  0.5427E+15
   -0.975060    3.74106  0.0000E+00  0.1057E-08  0.1569E-12  0.1311E-08  0.0000E+00  0.3282E+15
   -1.012563    3.85092  0.0000E+00  0.1825E-08  0.2666E-12  0.5399E-08  0.0000E+00  0.1347E+15
   -1.050066    3.95449  0.0000E+00  0.2899E-08  0.4212E-12  0.7179E-06  0.0000E+00  0.8300E+13
   -1.087568    3.99939  0.0000E+00  0.3531E-08  0.5188E-12  0.9239E-05  0.0000E+00 -0.3303E+12
   -1.125071    4.00104  0.0000E+00  0.3872E-08  0.5834E-12  0.9881E-05  0.0000E+00 -0.3509E+12
   -1.162573    4.00256  0.0000E+00  0.4156E-08  0.6512E-12  0.1014E-04  0.0000E+00 -0.3808E+12
   -1.200075    4.00404  0.0000E+00  0.4385E-08  0.7254E-12  0.1003E-04  0.0000E+00 -0.4243E+12
   -1.237577    4.00555  0.0000E+00  0.4557E-08  0.8099E-12  0.9558E-05  0.0000E+00 -0.4882E+12
   -1.275078    4.00714  0.0000E+00  0.4668E-08  0.9133E-12  0.8717E-05  0.0000E+00 -0.5883E+12
   -1.312580    4.00890  0.0000E+00  0.4702E-08  0.1050E-11  0.7472E-05  0.0000E+00 -0.7582E+12
   -1.350081    4.01098  0.0000E+00  0.4628E-08  0.1250E-11  0.5825E-05  0.0000E+00 -0.1088E+13
   -1.387581    4.01367  0.0000E+00  0.4375E-08  0.1588E-11  0.3829E-05  0.0000E+00 -0.1897E+13
   -1.425082    4.01781  0.0000E+00  0.3776E-08  0.2326E-11  0.1733E-05  0.0000E+00 -0.5068E+13
   -1.462582    4.02682  0.0000E+00  0.2547E-08  0.4789E-11  0.2995E-06  0.0000E+00 -0.3729E+14
   -1.500082    4.06634  0.0000E+00  0.0000E+00  0.0000E+00  0.0000E+00  0.0000E+00  0.0000E+00
