 1 - depth, m
 2 - temperature, C
 3 - salinity, kg/kg
 4 - turbulent kinetic energy, m**2/s**2
 5 - dissipation rate, m**2/s**3
 6 - kinematic heat conductance, m**2/s
 7 - modulus of horizontal velocity, m/s
 8 - Richardson number, n/d
   -0.000000   12.39758  0.0000E+00  0.9848E-03  0.9530E-02  0.9791E-04  0.4513E+00 -0.7931E-02
   -0.037502   12.48202  0.0000E+00  0.5237E-03  0.6144E-02  0.1788E-03  0.1602E+00 -0.1343E-01
   -0.075004   12.52526  0.0000E+00  0.3335E-03  0.1395E-02  0.2762E-03  0.9334E-01 -0.3938E-01
   -0.112506   12.54090  0.0000E+00  0.2609E-03  0.8387E-03  0.3171E-03  0.6894E-01 -0.9961E-01
   -0.150009   12.54834  0.0000E+00  0.2158E-03  0.5687E-03  0.3261E-03  0.5563E-01 -0.1039E+00
   -0.187511   12.55330  0.0000E+00  0.1846E-03  0.3936E-03  0.3427E-03  0.4766E-01  0.1662E+00
   -0.225015   12.55665  0.0000E+00  0.1616E-03  0.2739E-03  0.3584E-03  0.4227E-01  0.1690E+00
   -0.262518   12.55912  0.0000E+00  0.1434E-03  0.1901E-03  0.3669E-03  0.3810E-01  0.6136E+00
   -0.300022   12.56127  0.0000E+00  0.1287E-03  0.1315E-03  0.3816E-03  0.3478E-01  0.8144E+00
   -0.337526   12.56310  0.0000E+00  0.1169E-03  0.9152E-04  0.4014E-03  0.3208E-01  0.1959E+01
   -0.375030   12.56468  0.0000E+00  0.1072E-03  0.6141E-04  0.4269E-03  0.2967E-01  0.3342E+01
   -0.412534   12.56631  0.0000E+00  0.9855E-04  0.3989E-04  0.4475E-03  0.2726E-01  0.1654E+01
   -0.450039   12.56764  0.0000E+00  0.9136E-04  0.2775E-04  0.4683E-03  0.2513E-01  0.3604E+01
   -0.487543   12.56907  0.0000E+00  0.8512E-04  0.1912E-04  0.4790E-03  0.2327E-01  0.7084E+01
   -0.525048   12.57044  0.0000E+00  0.7899E-04  0.1282E-04  0.5061E-03  0.2125E-01  0.4840E+02
   -0.562553   12.57152  0.0000E+00  0.7411E-04  0.8888E-05  0.5291E-03  0.1983E-01  0.1019E+02
   -0.600058   12.57255  0.0000E+00  0.6973E-04  0.6186E-05  0.5489E-03  0.1855E-01  0.8926E+01
   -0.637563   12.57354  0.0000E+00  0.6579E-04  0.4339E-05  0.5632E-03  0.1738E-01  0.9274E+02
   -0.675068   12.57453  0.0000E+00  0.6219E-04  0.3110E-05  0.5872E-03  0.1628E-01  0.9266E+02
   -0.712573   12.57546  0.0000E+00  0.5902E-04  0.2316E-05  0.6053E-03  0.1529E-01  0.2308E+02
   -0.750079   12.57640  0.0000E+00  0.5611E-04  0.1757E-05  0.6025E-03  0.1435E-01  0.8600E+01
   -0.787584   12.57975  0.0000E+00  0.5310E-04  0.1356E-05  0.6258E-03  0.1257E-01  0.3728E+02
   -0.825089   12.58064  0.0000E+00  0.5040E-04  0.1074E-05  0.6313E-03  0.1174E-01  0.1248E+02
   -0.862594   12.58142  0.0000E+00  0.4790E-04  0.8683E-06  0.6411E-03  0.1098E-01  0.1123E+02
   -0.900099   12.58223  0.0000E+00  0.4551E-04  0.7157E-06  0.6524E-03  0.1025E-01  0.2739E+03
   -0.937604   12.58298  0.0000E+00  0.4326E-04  0.6030E-06  0.6638E-03  0.9553E-02  0.1795E+04
   -0.975109   12.58377  0.0000E+00  0.4111E-04  0.5226E-06  0.6671E-03  0.8886E-02  0.8441E+01
   -1.012614   12.58454  0.0000E+00  0.3899E-04  0.4605E-06  0.6690E-03  0.8232E-02  0.3542E+02
   -1.050118   12.58531  0.0000E+00  0.3694E-04  0.4130E-06  0.6683E-03  0.7627E-02  0.2546E+02
   -1.087623   12.58605  0.0000E+00  0.3491E-04  0.3768E-06  0.6692E-03  0.7066E-02  0.3755E+02
   -1.125127   12.58682  0.0000E+00  0.3290E-04  0.3493E-06  0.6497E-03  0.6531E-02  0.2919E+03
   -1.162631   12.58757  0.0000E+00  0.3089E-04  0.3298E-06  0.6142E-03  0.6024E-02  0.1370E+02
   -1.200135   12.58840  0.0000E+00  0.2886E-04  0.3186E-06  0.5707E-03  0.5533E-02  0.9405E+02
   -1.237639   12.58926  0.0000E+00  0.2677E-04  0.3174E-06  0.5196E-03  0.5056E-02  0.6545E+02
   -1.275143   12.59022  0.0000E+00  0.2456E-04  0.3306E-06  0.4582E-03  0.4586E-02  0.1053E+03
   -1.312646   12.59131  0.0000E+00  0.2214E-04  0.3683E-06  0.3964E-03  0.4135E-02  0.2323E+03
   -1.350149   12.59259  0.0000E+00  0.1938E-04  0.4519E-06  0.3107E-03  0.3691E-02  0.1201E+03
   -1.387651   12.59436  0.0000E+00  0.1613E-04  0.6362E-06  0.2410E-03  0.3229E-02  0.6574E+03
   -1.425154   12.59649  0.0000E+00  0.1215E-04  0.1099E-05  0.1351E-03  0.2708E-02  0.3996E+04
   -1.462656   12.60205  0.0000E+00  0.7406E-05  0.2335E-05  0.6610E-04  0.2129E-02 -0.1802E+06
   -1.500157   12.61696  0.0000E+00  0.0000E+00  0.0000E+00  0.0000E+00  0.2599E-02  0.0000E+00
