 1 - depth, m
 2 - temperature, C
 3 - salinity, kg/kg
 4 - turbulent kinetic energy, m**2/s**2
 5 - dissipation rate, m**2/s**3
 6 - kinematic heat conductance, m**2/s
 7 - modulus of horizontal velocity, m/s
 8 - Richardson number, n/d
   -0.000000    7.33871  0.0000E+00  0.7484E-03  0.3235E-02  0.1092E-03  0.3880E+00 -0.9857E-03
   -0.037502    7.54605  0.0000E+00  0.4019E-03  0.1461E-02  0.1973E-03  0.1317E+00 -0.9764E-01
   -0.075004    7.63488  0.0000E+00  0.2657E-03  0.4533E-03  0.2747E-03  0.7992E-01 -0.1059E+01
   -0.112507    7.66837  0.0000E+00  0.2139E-03  0.2831E-03  0.3073E-03  0.6204E-01  0.6478E-01
   -0.150010    7.68405  0.0000E+00  0.1805E-03  0.1866E-03  0.3147E-03  0.5190E-01 -0.6817E-02
   -0.187513    7.69379  0.0000E+00  0.1548E-03  0.1267E-03  0.3219E-03  0.4504E-01  0.1975E+00
   -0.225017    7.70043  0.0000E+00  0.1359E-03  0.8804E-04  0.3371E-03  0.4023E-01  0.4116E-01
   -0.262520    7.70566  0.0000E+00  0.1212E-03  0.6082E-04  0.3522E-03  0.3637E-01  0.1153E+00
   -0.300025    7.71029  0.0000E+00  0.1093E-03  0.4172E-04  0.3681E-03  0.3320E-01  0.2232E+00
   -0.337529    7.71413  0.0000E+00  0.9966E-04  0.2858E-04  0.3846E-03  0.3054E-01  0.2993E+01
   -0.375033    7.71754  0.0000E+00  0.9162E-04  0.1939E-04  0.4007E-03  0.2816E-01  0.8445E+00
   -0.412538    7.72074  0.0000E+00  0.8476E-04  0.1296E-04  0.4203E-03  0.2601E-01  0.1033E+01
   -0.450043    7.72370  0.0000E+00  0.7894E-04  0.8581E-05  0.4384E-03  0.2408E-01  0.1797E+01
   -0.487548    7.72667  0.0000E+00  0.7390E-04  0.5662E-05  0.4470E-03  0.2227E-01  0.5132E+00
   -0.525053    7.73111  0.0000E+00  0.6889E-04  0.3771E-05  0.4645E-03  0.2007E-01 -0.6446E+01
   -0.562558    7.73410  0.0000E+00  0.6463E-04  0.2571E-05  0.4869E-03  0.1853E-01  0.4812E+01
   -0.600063    7.73674  0.0000E+00  0.6086E-04  0.1816E-05  0.4996E-03  0.1718E-01  0.1831E+01
   -0.637569    7.73928  0.0000E+00  0.5755E-04  0.1354E-05  0.5163E-03  0.1599E-01  0.2780E+03
   -0.675074    7.74146  0.0000E+00  0.5456E-04  0.1049E-05  0.5261E-03  0.1493E-01  0.1133E+03
   -0.712580    7.74373  0.0000E+00  0.5182E-04  0.8410E-06  0.5492E-03  0.1395E-01  0.1120E+02
   -0.750085    7.74573  0.0000E+00  0.4929E-04  0.6948E-06  0.5635E-03  0.1304E-01  0.6649E+02
   -0.787591    7.74778  0.0000E+00  0.4695E-04  0.5884E-06  0.5863E-03  0.1220E-01  0.1584E+02
   -0.825096    7.74967  0.0000E+00  0.4476E-04  0.5082E-06  0.6242E-03  0.1141E-01  0.2858E+03
   -0.862602    7.75153  0.0000E+00  0.4269E-04  0.4460E-06  0.6865E-03  0.1066E-01  0.4499E+02
   -0.900107    7.75321  0.0000E+00  0.4072E-04  0.3963E-06  0.7606E-03  0.9954E-02  0.6322E+02
   -0.937613    7.75480  0.0000E+00  0.3883E-04  0.3559E-06  0.8135E-03  0.9273E-02  0.5883E+02
   -0.975118    7.75627  0.0000E+00  0.3699E-04  0.3225E-06  0.8430E-03  0.8614E-02  0.2116E+02
   -1.012623    7.75769  0.0000E+00  0.3517E-04  0.2942E-06  0.8540E-03  0.7970E-02  0.3037E+02
   -1.050128    7.75907  0.0000E+00  0.3335E-04  0.2703E-06  0.8577E-03  0.7358E-02  0.4412E+02
   -1.087633    7.76040  0.0000E+00  0.3153E-04  0.2501E-06  0.8487E-03  0.6776E-02  0.3539E+02
   -1.125137    7.76175  0.0000E+00  0.2970E-04  0.2335E-06  0.8202E-03  0.6218E-02  0.1473E+03
   -1.162642    7.76311  0.0000E+00  0.2783E-04  0.2205E-06  0.7734E-03  0.5683E-02  0.1401E+02
   -1.200146    7.76456  0.0000E+00  0.2593E-04  0.2119E-06  0.7057E-03  0.5168E-02  0.3600E+02
   -1.237650    7.76614  0.0000E+00  0.2397E-04  0.2092E-06  0.6211E-03  0.4668E-02  0.3905E+02
   -1.275154    7.76799  0.0000E+00  0.2188E-04  0.2152E-06  0.5129E-03  0.4180E-02  0.3907E+02
   -1.312658    7.77023  0.0000E+00  0.1957E-04  0.2362E-06  0.4065E-03  0.3719E-02  0.5431E+05
   -1.350161    7.77304  0.0000E+00  0.1689E-04  0.2883E-06  0.3073E-03  0.3269E-02  0.5573E+02
   -1.387664    7.77693  0.0000E+00  0.1373E-04  0.4036E-06  0.2296E-03  0.2799E-02  0.1499E+03
   -1.425166    7.78203  0.0000E+00  0.1003E-04  0.7014E-06  0.1378E-03  0.2297E-02  0.2000E+03
   -1.462669    7.79263  0.0000E+00  0.6123E-05  0.1458E-05  0.7190E-04  0.1776E-02 -0.1035E+06
   -1.500171    7.82371  0.0000E+00  0.0000E+00  0.0000E+00  0.0000E+00  0.2241E-02  0.0000E+00
