 1 - depth, m
 2 - temperature, C
 3 - salinity, kg/kg
 4 - turbulent kinetic energy, m**2/s**2
 5 - dissipation rate, m**2/s**3
 6 - kinematic heat conductance, m**2/s
 7 - modulus of horizontal velocity, m/s
 8 - Richardson number, n/d
   -0.000000   12.35098  0.0000E+00  0.1037E-02  0.8331E-02  0.1133E-03  0.4772E+00 -0.9224E-01
   -0.037497   12.44562  0.0000E+00  0.5290E-03  0.4073E-02  0.1734E-03  0.1694E+00  0.5096E-01
   -0.074994   12.49124  0.0000E+00  0.3337E-03  0.1213E-02  0.2915E-03  0.9647E-01 -0.7759E-02
   -0.112492   12.51085  0.0000E+00  0.2638E-03  0.7917E-03  0.3249E-03  0.7011E-01  0.8545E-02
   -0.149990   12.51918  0.0000E+00  0.2192E-03  0.5632E-03  0.3276E-03  0.5669E-01 -0.8000E-01
   -0.187489   12.52421  0.0000E+00  0.1876E-03  0.4029E-03  0.3438E-03  0.4822E-01 -0.5095E-01
   -0.224987   12.52795  0.0000E+00  0.1635E-03  0.2755E-03  0.3435E-03  0.4247E-01  0.9731E+01
   -0.262486   12.53097  0.0000E+00  0.1426E-03  0.1863E-03  0.3597E-03  0.3683E-01 -0.6841E-01
   -0.299985   12.53325  0.0000E+00  0.1263E-03  0.1326E-03  0.3654E-03  0.3328E-01  0.6235E-01
   -0.337485   12.53515  0.0000E+00  0.1137E-03  0.9397E-04  0.3842E-03  0.3049E-01  0.8317E+01
   -0.374984   12.53686  0.0000E+00  0.1029E-03  0.6635E-04  0.4043E-03  0.2817E-01  0.2681E+01
   -0.412484   12.53835  0.0000E+00  0.9417E-04  0.4672E-04  0.4240E-03  0.2613E-01  0.8634E+01
   -0.449984   12.53984  0.0000E+00  0.8693E-04  0.3282E-04  0.4437E-03  0.2426E-01  0.5648E+02
   -0.487484   12.54126  0.0000E+00  0.8071E-04  0.2213E-04  0.4501E-03  0.2252E-01  0.1098E+02
   -0.524984   12.54304  0.0000E+00  0.7457E-04  0.1444E-04  0.4815E-03  0.2014E-01  0.1093E+02
   -0.562485   12.54448  0.0000E+00  0.6949E-04  0.9856E-05  0.4964E-03  0.1864E-01  0.7195E+01
   -0.599985   12.54571  0.0000E+00  0.6515E-04  0.6837E-05  0.5152E-03  0.1736E-01  0.4512E+02
   -0.637486   12.54679  0.0000E+00  0.6137E-04  0.4801E-05  0.5292E-03  0.1621E-01  0.1057E+03
   -0.674986   12.54843  0.0000E+00  0.5752E-04  0.3396E-05  0.5570E-03  0.1457E-01  0.2207E+02
   -0.712487   12.54979  0.0000E+00  0.5423E-04  0.2471E-05  0.5742E-03  0.1359E-01  0.6986E+02
   -0.749987   12.55062  0.0000E+00  0.5122E-04  0.1844E-05  0.5890E-03  0.1267E-01  0.2148E+02
   -0.787488   12.55144  0.0000E+00  0.4849E-04  0.1403E-05  0.6033E-03  0.1184E-01  0.1187E+02
   -0.824989   12.55248  0.0000E+00  0.4599E-04  0.1090E-05  0.6074E-03  0.1105E-01  0.1758E+02
   -0.862489   12.55485  0.0000E+00  0.4354E-04  0.8658E-06  0.6221E-03  0.1009E-01  0.2989E+02
   -0.899990   12.55578  0.0000E+00  0.4132E-04  0.7038E-06  0.6257E-03  0.9399E-02  0.2402E+02
   -0.937490   12.55659  0.0000E+00  0.3921E-04  0.5861E-06  0.6240E-03  0.8741E-02  0.5038E+02
   -0.974990   12.55748  0.0000E+00  0.3719E-04  0.4997E-06  0.6285E-03  0.8108E-02  0.1543E+02
   -1.012491   12.55832  0.0000E+00  0.3525E-04  0.4340E-06  0.6278E-03  0.7486E-02  0.4582E+02
   -1.049991   12.55919  0.0000E+00  0.3334E-04  0.3850E-06  0.6327E-03  0.6921E-02  0.4601E+01
   -1.087491   12.56000  0.0000E+00  0.3146E-04  0.3478E-06  0.6347E-03  0.6390E-02  0.1230E+02
   -1.124990   12.56083  0.0000E+00  0.2961E-04  0.3205E-06  0.6170E-03  0.5891E-02  0.6560E+01
   -1.162490   12.56164  0.0000E+00  0.2776E-04  0.3012E-06  0.5884E-03  0.5417E-02  0.2208E+02
   -1.199989   12.56249  0.0000E+00  0.2589E-04  0.2904E-06  0.5463E-03  0.4962E-02  0.4888E+03
   -1.237489   12.56339  0.0000E+00  0.2398E-04  0.2900E-06  0.5007E-03  0.4518E-02  0.9352E+01
   -1.274988   12.56436  0.0000E+00  0.2196E-04  0.3043E-06  0.4438E-03  0.4083E-02  0.1354E+02
   -1.312486   12.56546  0.0000E+00  0.1975E-04  0.3433E-06  0.3847E-03  0.3668E-02  0.5869E+02
   -1.349985   12.56675  0.0000E+00  0.1722E-04  0.4284E-06  0.3074E-03  0.3251E-02  0.2404E+03
   -1.387483   12.56848  0.0000E+00  0.1428E-04  0.6143E-06  0.2380E-03  0.2815E-02  0.1429E+04
   -1.424980   12.57071  0.0000E+00  0.1078E-04  0.1074E-05  0.1362E-03  0.2330E-02  0.2156E+05
   -1.462478   12.57593  0.0000E+00  0.6606E-05  0.2247E-05  0.6242E-04  0.1838E-02 -0.4781E+05
   -1.499975   12.59178  0.0000E+00  0.0000E+00  0.0000E+00  0.0000E+00  0.2300E-02  0.0000E+00
