 1 - depth, m
 2 - temperature, C
 3 - salinity, kg/kg
 4 - turbulent kinetic energy, m**2/s**2
 5 - dissipation rate, m**2/s**3
 6 - kinematic heat conductance, m**2/s
 7 - modulus of horizontal velocity, m/s
 8 - Richardson number, n/d
   -0.000000    0.00000  0.0000E+00  0.4096E-13  0.8590E-16  0.1000E-09  0.0000E+00  0.7916E+16
   -0.037496    0.12069  0.0000E+00  0.4096E-13  0.8590E-16  0.1000E-09  0.0000E+00  0.7641E+16
   -0.074992    0.24113  0.0000E+00  0.4096E-13  0.8590E-16  0.1000E-09  0.0000E+00  0.7365E+16
   -0.112488    0.36126  0.0000E+00  0.4096E-13  0.8590E-16  0.1000E-09  0.0000E+00  0.7089E+16
   -0.149985    0.48103  0.0000E+00  0.4096E-13  0.8590E-16  0.1000E-09  0.0000E+00  0.6814E+16
   -0.187482    0.60038  0.0000E+00  0.4096E-13  0.8590E-16  0.1000E-09  0.0000E+00  0.6539E+16
   -0.224979    0.71927  0.0000E+00  0.4096E-13  0.8590E-16  0.1000E-09  0.0000E+00  0.6266E+16
   -0.262477    0.83763  0.0000E+00  0.4096E-13  0.8590E-16  0.1000E-09  0.0000E+00  0.5992E+16
   -0.299974    0.95537  0.0000E+00  0.4096E-13  0.8590E-16  0.1000E-09  0.0000E+00  0.5719E+16
   -0.337472    1.07243  0.0000E+00  0.4096E-13  0.8590E-16  0.1000E-09  0.0000E+00  0.5449E+16
   -0.374971    1.18873  0.0000E+00  0.4096E-13  0.8590E-16  0.1000E-09  0.0000E+00  0.5189E+16
   -0.412469    1.30440  0.0000E+00  0.4096E-13  0.8590E-16  0.1000E-09  0.0000E+00  0.4936E+16
   -0.449967    1.41948  0.0000E+00  0.4096E-13  0.8590E-16  0.1000E-09  0.0000E+00  0.4685E+16
   -0.487466    1.53392  0.0000E+00  0.4096E-13  0.8590E-16  0.1000E-09  0.0000E+00  0.4436E+16
   -0.524965    1.64766  0.0000E+00  0.4096E-13  0.8590E-16  0.1000E-09  0.0000E+00  0.4188E+16
   -0.562464    1.76057  0.0000E+00  0.4096E-13  0.8590E-16  0.1000E-09  0.0000E+00  0.3943E+16
   -0.599963    1.87260  0.0000E+00  0.4096E-13  0.8590E-16  0.1000E-09  0.0000E+00  0.3701E+16
   -0.637462    1.98367  0.0000E+00  0.4096E-13  0.8590E-16  0.1000E-09  0.0000E+00  0.3464E+16
   -0.674961    2.09370  0.0000E+00  0.4096E-13  0.8590E-16  0.1000E-09  0.0000E+00  0.3230E+16
   -0.712461    2.20262  0.0000E+00  0.4096E-13  0.8590E-16  0.1000E-09  0.0000E+00  0.3001E+16
   -0.749960    2.31033  0.0000E+00  0.4096E-13  0.8590E-16  0.1000E-09  0.0000E+00  0.2784E+16
   -0.787459    2.41707  0.0000E+00  0.4096E-13  0.8590E-16  0.1000E-09  0.0000E+00  0.2575E+16
   -0.824958    2.52287  0.0000E+00  0.4096E-13  0.8590E-16  0.1000E-09  0.0000E+00  0.2369E+16
   -0.862457    2.62765  0.0000E+00  0.4096E-13  0.8590E-16  0.1000E-09  0.0000E+00  0.2167E+16
   -0.899957    2.73134  0.0000E+00  0.4096E-13  0.8590E-16  0.1000E-09  0.0000E+00  0.1970E+16
   -0.937456    2.83385  0.0000E+00  0.4096E-13  0.8590E-16  0.1000E-09  0.0000E+00  0.1778E+16
   -0.974955    2.93509  0.0000E+00  0.4096E-13  0.8590E-16  0.1000E-09  0.0000E+00  0.1592E+16
   -1.012453    3.03497  0.0000E+00  0.4096E-13  0.8590E-16  0.1000E-09  0.0000E+00  0.1408E+16
   -1.049952    3.13315  0.0000E+00  0.4096E-13  0.8590E-16  0.1000E-09  0.0000E+00  0.1230E+16
   -1.087451    3.22945  0.0000E+00  0.4096E-13  0.8590E-16  0.1000E-09  0.0000E+00  0.1059E+16
   -1.124949    3.32367  0.0000E+00  0.7509E-13  0.8694E-16  0.1000E-09  0.0000E+00  0.9101E+15
   -1.162447    3.41708  0.0000E+00  0.2772E-12  0.2484E-15  0.1000E-09  0.0000E+00  0.7660E+15
   -1.199945    3.50983  0.0000E+00  0.9660E-12  0.8230E-15  0.1000E-09  0.0000E+00  0.6249E+15
   -1.237443    3.60187  0.0000E+00  0.3274E-11  0.2709E-14  0.1000E-09  0.0000E+00  0.4870E+15
   -1.274941    3.69314  0.0000E+00  0.1106E-10  0.8922E-14  0.1000E-09  0.0000E+00  0.3528E+15
   -1.312438    3.78362  0.0000E+00  0.3713E-10  0.2929E-13  0.3429E-09  0.0000E+00  0.2219E+15
   -1.349935    3.87306  0.0000E+00  0.1234E-09  0.9590E-13  0.2426E-08  0.0000E+00  0.9523E+14
   -1.387432    3.96018  0.0000E+00  0.3996E-09  0.3125E-12  0.7384E-07  0.0000E+00 -0.2296E+13
   -1.424928    4.01765  0.0000E+00  0.9844E-09  0.1011E-11  0.3645E-06  0.0000E+00 -0.1651E+14
   -1.462424    4.04191  0.0000E+00  0.1057E-08  0.1985E-11  0.1637E-06  0.0000E+00 -0.4743E+14
   -1.499920    4.08198  0.0000E+00  0.0000E+00  0.0000E+00  0.0000E+00  0.0000E+00  0.0000E+00
