 1 - depth, m
 2 - temperature, C
 3 - salinity, kg/kg
 4 - turbulent kinetic energy, m**2/s**2
 5 - dissipation rate, m**2/s**3
 6 - kinematic heat conductance, m**2/s
 7 - modulus of horizontal velocity, m/s
 8 - Richardson number, n/d
   -0.000000    8.55969  0.0000E+00  0.1710E-04  0.1341E-05  0.2157E-04  0.2573E-01 -0.1085E-01
   -0.037494    8.59337  0.0000E+00  0.1423E-04  0.4948E-06  0.4274E-04  0.1613E-01 -0.2854E-01
   -0.074987    8.60856  0.0000E+00  0.1253E-04  0.2721E-06  0.6170E-04  0.1233E-01 -0.4885E-01
   -0.112482    8.61891  0.0000E+00  0.1127E-04  0.1755E-06  0.8012E-04  0.9933E-02 -0.7373E-01
   -0.149976    8.62673  0.0000E+00  0.1027E-04  0.1235E-06  0.9895E-04  0.8239E-02 -0.1044E+00
   -0.187471    8.63294  0.0000E+00  0.9465E-05  0.9179E-07  0.1196E-03  0.6970E-02 -0.1323E+00
   -0.224966    8.63799  0.0000E+00  0.8799E-05  0.7103E-07  0.1579E-03  0.5985E-02  0.3843E+00
   -0.262461    8.64185  0.0000E+00  0.8264E-05  0.5704E-07  0.2665E-03  0.5209E-02  0.2967E+03
   -0.299957    8.64433  0.0000E+00  0.7849E-05  0.4740E-07  0.3632E-03  0.4617E-02  0.7611E+02
   -0.337453    8.64605  0.0000E+00  0.7513E-05  0.4022E-07  0.3929E-03  0.4125E-02  0.2223E+02
   -0.374949    8.64752  0.0000E+00  0.7227E-05  0.3458E-07  0.4244E-03  0.3682E-02  0.1268E+02
   -0.412445    8.64882  0.0000E+00  0.6979E-05  0.3006E-07  0.4323E-03  0.3288E-02  0.4943E+01
   -0.449941    8.65008  0.0000E+00  0.6756E-05  0.2633E-07  0.4447E-03  0.2927E-02  0.4642E+01
   -0.487438    8.65128  0.0000E+00  0.6553E-05  0.2324E-07  0.4558E-03  0.2599E-02  0.4293E+01
   -0.524935    8.65244  0.0000E+00  0.6364E-05  0.2065E-07  0.4698E-03  0.2299E-02  0.3757E+01
   -0.562431    8.65355  0.0000E+00  0.6188E-05  0.1846E-07  0.4840E-03  0.2030E-02  0.3337E+01
   -0.599928    8.65460  0.0000E+00  0.6021E-05  0.1661E-07  0.4989E-03  0.1788E-02  0.3004E+01
   -0.637425    8.65562  0.0000E+00  0.5862E-05  0.1504E-07  0.5143E-03  0.1571E-02  0.2732E+01
   -0.674922    8.65659  0.0000E+00  0.5709E-05  0.1370E-07  0.5304E-03  0.1377E-02  0.2503E+01
   -0.712419    8.65752  0.0000E+00  0.5560E-05  0.1258E-07  0.5470E-03  0.1203E-02  0.2308E+01
   -0.749916    8.65840  0.0000E+00  0.5414E-05  0.1163E-07  0.5641E-03  0.1048E-02  0.2140E+01
   -0.787413    8.65926  0.0000E+00  0.5270E-05  0.1083E-07  0.5819E-03  0.9106E-03  0.1992E+01
   -0.824910    8.66007  0.0000E+00  0.5128E-05  0.1018E-07  0.6006E-03  0.7894E-03  0.1861E+01
   -0.862407    8.66085  0.0000E+00  0.4987E-05  0.9646E-08  0.6208E-03  0.6828E-03  0.1745E+01
   -0.899904    8.66160  0.0000E+00  0.4848E-05  0.9227E-08  0.6429E-03  0.5895E-03  0.1641E+01
   -0.937401    8.66231  0.0000E+00  0.4711E-05  0.8908E-08  0.6672E-03  0.5080E-03  0.1547E+01
   -0.974898    8.66299  0.0000E+00  0.4577E-05  0.8682E-08  0.6916E-03  0.4369E-03  0.1465E+01
   -1.012395    8.66364  0.0000E+00  0.4448E-05  0.8541E-08  0.6883E-03  0.3750E-03  0.1341E+01
   -1.049891    8.66428  0.0000E+00  0.4324E-05  0.8477E-08  0.6628E-03  0.3230E-03  0.1222E+01
   -1.087388    8.66493  0.0000E+00  0.4208E-05  0.8484E-08  0.6273E-03  0.2801E-03  0.1108E+01
   -1.124884    8.66562  0.0000E+00  0.4100E-05  0.8554E-08  0.5885E-03  0.2449E-03  0.9987E+00
   -1.162380    8.66634  0.0000E+00  0.4000E-05  0.8683E-08  0.5545E-03  0.2160E-03  0.9015E+00
   -1.199876    8.66710  0.0000E+00  0.3903E-05  0.8878E-08  0.5240E-03  0.1924E-03  0.9728E+00
   -1.237371    8.66789  0.0000E+00  0.3802E-05  0.9165E-08  0.4878E-03  0.1717E-03  0.1274E+01
   -1.274867    8.66874  0.0000E+00  0.3689E-05  0.9600E-08  0.4423E-03  0.1523E-03  0.1883E+01
   -1.312362    8.66966  0.0000E+00  0.3556E-05  0.1027E-07  0.3879E-03  0.1341E-03  0.3275E+01
   -1.349857    8.67070  0.0000E+00  0.3396E-05  0.1133E-07  0.3268E-03  0.1169E-03  0.6763E+01
   -1.387351    8.67192  0.0000E+00  0.3194E-05  0.1317E-07  0.2492E-03  0.1008E-03  0.1902E+02
   -1.424845    8.67350  0.0000E+00  0.2916E-05  0.1685E-07  0.1899E-03  0.8585E-04  0.7369E+02
   -1.462339    8.67556  0.0000E+00  0.1814E-05  0.4256E-07  0.1240E-04  0.7459E-04 -0.8322E+04
   -1.499833    8.70631  0.0000E+00  0.0000E+00  0.0000E+00  0.0000E+00  0.7448E-04  0.0000E+00
