 1 - depth, m
 2 - temperature, C
 3 - salinity, kg/kg
 4 - turbulent kinetic energy, m**2/s**2
 5 - dissipation rate, m**2/s**3
 6 - kinematic heat conductance, m**2/s
 7 - modulus of horizontal velocity, m/s
 8 - Richardson number, n/d
   -0.000000    0.00000  0.0000E+00  0.4096E-13  0.8590E-16  0.1000E-09  0.0000E+00  0.9242E+16
   -0.037498    0.14131  0.0000E+00  0.4096E-13  0.8590E-16  0.1000E-09  0.0000E+00  0.8780E+16
   -0.074996    0.28089  0.0000E+00  0.4096E-13  0.8590E-16  0.1000E-09  0.0000E+00  0.8313E+16
   -0.112495    0.41841  0.0000E+00  0.4096E-13  0.8590E-16  0.1000E-09  0.0000E+00  0.7856E+16
   -0.149993    0.55373  0.0000E+00  0.4096E-13  0.8590E-16  0.1000E-09  0.0000E+00  0.7415E+16
   -0.187493    0.68686  0.0000E+00  0.4096E-13  0.8590E-16  0.1000E-09  0.0000E+00  0.6995E+16
   -0.224992    0.81786  0.0000E+00  0.4096E-13  0.8590E-16  0.1000E-09  0.0000E+00  0.6596E+16
   -0.262492    0.94684  0.0000E+00  0.4096E-13  0.8590E-16  0.1000E-09  0.0000E+00  0.6216E+16
   -0.299992    1.07390  0.0000E+00  0.4096E-13  0.8590E-16  0.1000E-09  0.0000E+00  0.5854E+16
   -0.337492    1.19913  0.0000E+00  0.4096E-13  0.8590E-16  0.1000E-09  0.0000E+00  0.5510E+16
   -0.374992    1.32262  0.0000E+00  0.4096E-13  0.8590E-16  0.1000E-09  0.0000E+00  0.5189E+16
   -0.412493    1.44465  0.0000E+00  0.4096E-13  0.8590E-16  0.1000E-09  0.0000E+00  0.4885E+16
   -0.449994    1.56541  0.0000E+00  0.4096E-13  0.8590E-16  0.1000E-09  0.0000E+00  0.4591E+16
   -0.487495    1.68491  0.0000E+00  0.4096E-13  0.8590E-16  0.1000E-09  0.0000E+00  0.4306E+16
   -0.524996    1.80316  0.0000E+00  0.4096E-13  0.8590E-16  0.1000E-09  0.0000E+00  0.4029E+16
   -0.562497    1.92016  0.0000E+00  0.4096E-13  0.8590E-16  0.1000E-09  0.0000E+00  0.3759E+16
   -0.599998    2.03586  0.0000E+00  0.4096E-13  0.8590E-16  0.1000E-09  0.0000E+00  0.3496E+16
   -0.637499    2.15022  0.0000E+00  0.4096E-13  0.8590E-16  0.1000E-09  0.0000E+00  0.3240E+16
   -0.675001    2.26319  0.0000E+00  0.4096E-13  0.8590E-16  0.1000E-09  0.0000E+00  0.2991E+16
   -0.712502    2.37471  0.0000E+00  0.4096E-13  0.8590E-16  0.1000E-09  0.0000E+00  0.2749E+16
   -0.750003    2.48468  0.0000E+00  0.4096E-13  0.8590E-16  0.1000E-09  0.0000E+00  0.2519E+16
   -0.787505    2.59325  0.0000E+00  0.4096E-13  0.8590E-16  0.1000E-09  0.0000E+00  0.2297E+16
   -0.825006    2.70040  0.0000E+00  0.4096E-13  0.8590E-16  0.1000E-09  0.0000E+00  0.2081E+16
   -0.862508    2.80605  0.0000E+00  0.4096E-13  0.8590E-16  0.1000E-09  0.0000E+00  0.1872E+16
   -0.900009    2.91011  0.0000E+00  0.4096E-13  0.8590E-16  0.1000E-09  0.0000E+00  0.1671E+16
   -0.937510    3.01250  0.0000E+00  0.4096E-13  0.8590E-16  0.1000E-09  0.0000E+00  0.1477E+16
   -0.975011    3.11312  0.0000E+00  0.7002E-13  0.8590E-16  0.1000E-09  0.0000E+00  0.1291E+16
   -1.012512    3.21189  0.0000E+00  0.2635E-12  0.1597E-15  0.1000E-09  0.0000E+00  0.1112E+16
   -1.050013    3.30855  0.0000E+00  0.7716E-12  0.4116E-15  0.1000E-09  0.0000E+00  0.9417E+15
   -1.087514    3.40294  0.0000E+00  0.2094E-11  0.1071E-14  0.1000E-09  0.0000E+00  0.7804E+15
   -1.125014    3.49485  0.0000E+00  0.5541E-11  0.2750E-14  0.1000E-09  0.0000E+00  0.6383E+15
   -1.162515    3.58554  0.0000E+00  0.1446E-10  0.6984E-14  0.1000E-09  0.0000E+00  0.5025E+15
   -1.200015    3.67514  0.0000E+00  0.3736E-10  0.1757E-13  0.1294E-09  0.0000E+00  0.3714E+15
   -1.237515    3.76359  0.0000E+00  0.9551E-10  0.4381E-13  0.4858E-09  0.0000E+00  0.2451E+15
   -1.275015    3.85068  0.0000E+00  0.2443E-09  0.1095E-12  0.2354E-08  0.0000E+00  0.1242E+15
   -1.312514    3.93569  0.0000E+00  0.6153E-09  0.2708E-12  0.3415E-07  0.0000E+00  0.1747E+14
   -1.350013    4.00462  0.0000E+00  0.1354E-08  0.6121E-12  0.1185E-05  0.0000E+00 -0.3256E+13
   -1.387512    4.01372  0.0000E+00  0.1728E-08  0.9338E-12  0.1196E-05  0.0000E+00 -0.4540E+13
   -1.425011    4.02279  0.0000E+00  0.1788E-08  0.1404E-11  0.7699E-06  0.0000E+00 -0.9102E+13
   -1.462509    4.03624  0.0000E+00  0.1414E-08  0.2544E-11  0.1986E-06  0.0000E+00 -0.3910E+14
   -1.500007    4.07286  0.0000E+00  0.0000E+00  0.0000E+00  0.0000E+00  0.0000E+00  0.0000E+00
