 1 - depth, m
 2 - temperature, C
 3 - salinity, kg/kg
 4 - turbulent kinetic energy, m**2/s**2
 5 - dissipation rate, m**2/s**3
 6 - kinematic heat conductance, m**2/s
 7 - modulus of horizontal velocity, m/s
 8 - Richardson number, n/d
   -0.000000    0.00000  0.0000E+00  0.4096E-13  0.8590E-16  0.1000E-09  0.0000E+00  0.9265E+16
   -0.037497    0.14167  0.0000E+00  0.4096E-13  0.8590E-16  0.1000E-09  0.0000E+00  0.8796E+16
   -0.074994    0.28153  0.0000E+00  0.4096E-13  0.8590E-16  0.1000E-09  0.0000E+00  0.8351E+16
   -0.112491    0.41971  0.0000E+00  0.4096E-13  0.8590E-16  0.1000E-09  0.0000E+00  0.7925E+16
   -0.149989    0.55630  0.0000E+00  0.4096E-13  0.8590E-16  0.1000E-09  0.0000E+00  0.7517E+16
   -0.187487    0.69141  0.0000E+00  0.4096E-13  0.8590E-16  0.1000E-09  0.0000E+00  0.7124E+16
   -0.224985    0.82509  0.0000E+00  0.4096E-13  0.8590E-16  0.1000E-09  0.0000E+00  0.6745E+16
   -0.262483    0.95740  0.0000E+00  0.4096E-13  0.8590E-16  0.1000E-09  0.0000E+00  0.6377E+16
   -0.299982    1.08833  0.0000E+00  0.4096E-13  0.8590E-16  0.1000E-09  0.0000E+00  0.6019E+16
   -0.337481    1.21787  0.0000E+00  0.4096E-13  0.8590E-16  0.1000E-09  0.0000E+00  0.5671E+16
   -0.374980    1.34602  0.0000E+00  0.4096E-13  0.8590E-16  0.1000E-09  0.0000E+00  0.5342E+16
   -0.412480    1.47296  0.0000E+00  0.4096E-13  0.8590E-16  0.1000E-09  0.0000E+00  0.5025E+16
   -0.449979    1.59878  0.0000E+00  0.4096E-13  0.8590E-16  0.1000E-09  0.0000E+00  0.4714E+16
   -0.487479    1.72346  0.0000E+00  0.4096E-13  0.8590E-16  0.1000E-09  0.0000E+00  0.4411E+16
   -0.524979    1.84694  0.0000E+00  0.4096E-13  0.8590E-16  0.1000E-09  0.0000E+00  0.4114E+16
   -0.562479    1.96915  0.0000E+00  0.4096E-13  0.8590E-16  0.1000E-09  0.0000E+00  0.3823E+16
   -0.599979    2.09003  0.0000E+00  0.4096E-13  0.8590E-16  0.1000E-09  0.0000E+00  0.3540E+16
   -0.637479    2.20950  0.0000E+00  0.4096E-13  0.8590E-16  0.1000E-09  0.0000E+00  0.3264E+16
   -0.674979    2.32750  0.0000E+00  0.4096E-13  0.8590E-16  0.1000E-09  0.0000E+00  0.2995E+16
   -0.712479    2.44394  0.0000E+00  0.4096E-13  0.8590E-16  0.1000E-09  0.0000E+00  0.2735E+16
   -0.749979    2.55874  0.0000E+00  0.4096E-13  0.8590E-16  0.1000E-09  0.0000E+00  0.2488E+16
   -0.787479    2.67207  0.0000E+00  0.4096E-13  0.8590E-16  0.1000E-09  0.0000E+00  0.2249E+16
   -0.824980    2.78392  0.0000E+00  0.4096E-13  0.8590E-16  0.1000E-09  0.0000E+00  0.2019E+16
   -0.862480    2.89421  0.0000E+00  0.1183E-12  0.8590E-16  0.1000E-09  0.0000E+00  0.1795E+16
   -0.899980    3.00284  0.0000E+00  0.3614E-12  0.1470E-15  0.1000E-09  0.0000E+00  0.1580E+16
   -0.937480    3.10970  0.0000E+00  0.8913E-12  0.3167E-15  0.1000E-09  0.0000E+00  0.1373E+16
   -0.974980    3.21469  0.0000E+00  0.2040E-11  0.6918E-15  0.1000E-09  0.0000E+00  0.1175E+16
   -1.012480    3.31767  0.0000E+00  0.4554E-11  0.1500E-14  0.1000E-09  0.0000E+00  0.9846E+15
   -1.049979    3.41833  0.0000E+00  0.1006E-10  0.3231E-14  0.1000E-09  0.0000E+00  0.8040E+15
   -1.087479    3.51642  0.0000E+00  0.2205E-10  0.6911E-14  0.1000E-09  0.0000E+00  0.6346E+15
   -1.124978    3.61173  0.0000E+00  0.4795E-10  0.1468E-13  0.1000E-09  0.0000E+00  0.4852E+15
   -1.162477    3.70579  0.0000E+00  0.1035E-09  0.3098E-13  0.2499E-09  0.0000E+00  0.3419E+15
   -1.199976    3.79869  0.0000E+00  0.2221E-09  0.6496E-13  0.8768E-09  0.0000E+00  0.2036E+15
   -1.237475    3.89003  0.0000E+00  0.4720E-09  0.1352E-12  0.5068E-08  0.0000E+00  0.7207E+14
   -1.274974    3.97757  0.0000E+00  0.9422E-09  0.2668E-12  0.5004E-06  0.0000E+00 -0.3658E+12
   -1.312472    3.99747  0.0000E+00  0.1482E-08  0.4736E-12  0.1710E-05  0.0000E+00 -0.1576E+13
   -1.349970    4.00436  0.0000E+00  0.1850E-08  0.6935E-12  0.1833E-05  0.0000E+00 -0.2177E+13
   -1.387467    4.01088  0.0000E+00  0.2049E-08  0.9843E-12  0.1519E-05  0.0000E+00 -0.3504E+13
   -1.424965    4.01873  0.0000E+00  0.1994E-08  0.1480E-11  0.8730E-06  0.0000E+00 -0.7972E+13
   -1.462462    4.03180  0.0000E+00  0.1540E-08  0.2783E-11  0.2120E-06  0.0000E+00 -0.3890E+14
   -1.499958    4.07021  0.0000E+00  0.0000E+00  0.0000E+00  0.0000E+00  0.0000E+00  0.0000E+00
