 1 - depth, m
 2 - temperature, C
 3 - salinity, kg/kg
 4 - turbulent kinetic energy, m**2/s**2
 5 - dissipation rate, m**2/s**3
 6 - kinematic heat conductance, m**2/s
 7 - modulus of horizontal velocity, m/s
 8 - Richardson number, n/d
   -0.000000    0.00000  0.0000E+00  0.4096E-13  0.8590E-16  0.1000E-09  0.0000E+00  0.1164E+17
   -0.037495    0.17886  0.0000E+00  0.4096E-13  0.8590E-16  0.1000E-09  0.0000E+00  0.1093E+17
   -0.074991    0.35543  0.0000E+00  0.4096E-13  0.8590E-16  0.1000E-09  0.0000E+00  0.1025E+17
   -0.112487    0.52976  0.0000E+00  0.4096E-13  0.8590E-16  0.1000E-09  0.0000E+00  0.9595E+16
   -0.149983    0.70177  0.0000E+00  0.4096E-13  0.8590E-16  0.1000E-09  0.0000E+00  0.8955E+16
   -0.187480    0.87139  0.0000E+00  0.4096E-13  0.8590E-16  0.1000E-09  0.0000E+00  0.8334E+16
   -0.224977    1.03847  0.0000E+00  0.4096E-13  0.8590E-16  0.1000E-09  0.0000E+00  0.7731E+16
   -0.262474    1.20289  0.0000E+00  0.5842E-13  0.8590E-16  0.1000E-09  0.0000E+00  0.7132E+16
   -0.299971    1.36413  0.0000E+00  0.2365E-12  0.8612E-16  0.1000E-09  0.0000E+00  0.6552E+16
   -0.337469    1.52198  0.0000E+00  0.5822E-12  0.1256E-15  0.1000E-09  0.0000E+00  0.5995E+16
   -0.374967    1.67625  0.0000E+00  0.1175E-11  0.2143E-15  0.1000E-09  0.0000E+00  0.5517E+16
   -0.412465    1.82834  0.0000E+00  0.2188E-11  0.3745E-15  0.1000E-09  0.0000E+00  0.5086E+16
   -0.449963    1.97913  0.0000E+00  0.3937E-11  0.6522E-15  0.1000E-09  0.0000E+00  0.4667E+16
   -0.487461    2.12859  0.0000E+00  0.6968E-11  0.1128E-14  0.1000E-09  0.0000E+00  0.4258E+16
   -0.524960    2.27669  0.0000E+00  0.1223E-10  0.1943E-14  0.1000E-09  0.0000E+00  0.3857E+16
   -0.562459    2.42329  0.0000E+00  0.2135E-10  0.3330E-14  0.1000E-09  0.0000E+00  0.3470E+16
   -0.599957    2.56840  0.0000E+00  0.3708E-10  0.5685E-14  0.1000E-09  0.0000E+00  0.3095E+16
   -0.637456    2.71208  0.0000E+00  0.6414E-10  0.9664E-14  0.1000E-09  0.0000E+00  0.2733E+16
   -0.674955    2.85436  0.0000E+00  0.1105E-09  0.1636E-13  0.1000E-09  0.0000E+00  0.2384E+16
   -0.712454    2.99533  0.0000E+00  0.1896E-09  0.2761E-13  0.1000E-09  0.0000E+00  0.2046E+16
   -0.749953    3.13508  0.0000E+00  0.3240E-09  0.4640E-13  0.1000E-09  0.0000E+00  0.1742E+16
   -0.787451    3.27568  0.0000E+00  0.5516E-09  0.7770E-13  0.1498E-09  0.0000E+00  0.1440E+16
   -0.824950    3.41800  0.0000E+00  0.9356E-09  0.1296E-12  0.3187E-09  0.0000E+00  0.1129E+16
   -0.862449    3.56215  0.0000E+00  0.1581E-08  0.2155E-12  0.7412E-09  0.0000E+00  0.8074E+15
   -0.899948    3.70810  0.0000E+00  0.2660E-08  0.3568E-12  0.2097E-08  0.0000E+00  0.4729E+15
   -0.937447    3.85505  0.0000E+00  0.4438E-08  0.5863E-12  0.1214E-07  0.0000E+00  0.1346E+15
   -0.974945    3.99465  0.0000E+00  0.5194E-08  0.6900E-12  0.1234E-04  0.0000E+00 -0.2478E+12
   -1.012444    3.99640  0.0000E+00  0.5587E-08  0.7554E-12  0.1380E-04  0.0000E+00 -0.2677E+12
   -1.049942    3.99798  0.0000E+00  0.5945E-08  0.8267E-12  0.1485E-04  0.0000E+00 -0.2897E+12
   -1.087440    3.99948  0.0000E+00  0.6267E-08  0.9049E-12  0.1549E-04  0.0000E+00 -0.3168E+12
   -1.124938    4.00094  0.0000E+00  0.6552E-08  0.9914E-12  0.1563E-04  0.0000E+00 -0.3500E+12
   -1.162436    4.00240  0.0000E+00  0.6797E-08  0.1089E-11  0.1536E-04  0.0000E+00 -0.3931E+12
   -1.199934    4.00389  0.0000E+00  0.6998E-08  0.1202E-11  0.1470E-04  0.0000E+00 -0.4514E+12
   -1.237431    4.00547  0.0000E+00  0.7145E-08  0.1337E-11  0.1366E-04  0.0000E+00 -0.5334E+12
   -1.274928    4.00717  0.0000E+00  0.7227E-08  0.1508E-11  0.1221E-04  0.0000E+00 -0.6584E+12
   -1.312425    4.00910  0.0000E+00  0.7222E-08  0.1741E-11  0.1031E-04  0.0000E+00 -0.8675E+12
   -1.349922    4.01141  0.0000E+00  0.7083E-08  0.2088E-11  0.7950E-05  0.0000E+00 -0.1270E+13
   -1.387418    4.01446  0.0000E+00  0.6714E-08  0.2686E-11  0.5212E-05  0.0000E+00 -0.2254E+13
   -1.424914    4.01918  0.0000E+00  0.5875E-08  0.4022E-11  0.2393E-05  0.0000E+00 -0.6135E+13
   -1.462410    4.02948  0.0000E+00  0.4075E-08  0.8722E-11  0.4339E-06  0.0000E+00 -0.4995E+14
   -1.499905    4.07712  0.0000E+00  0.0000E+00  0.0000E+00  0.0000E+00  0.0000E+00  0.0000E+00
