 1 - depth, m
 2 - temperature, C
 3 - salinity, kg/kg
 4 - turbulent kinetic energy, m**2/s**2
 5 - dissipation rate, m**2/s**3
 6 - kinematic heat conductance, m**2/s
 7 - modulus of horizontal velocity, m/s
 8 - Richardson number, n/d
   -0.000000    0.00000  0.0000E+00  0.4096E-13  0.8590E-16  0.1000E-09  0.0000E+00  0.8771E+16
   -0.037495    0.13397  0.0000E+00  0.4096E-13  0.8590E-16  0.1000E-09  0.0000E+00  0.8329E+16
   -0.074990    0.26598  0.0000E+00  0.4096E-13  0.8590E-16  0.1000E-09  0.0000E+00  0.7925E+16
   -0.112485    0.39638  0.0000E+00  0.4096E-13  0.8590E-16  0.1000E-09  0.0000E+00  0.7549E+16
   -0.149981    0.52544  0.0000E+00  0.4096E-13  0.8590E-16  0.1000E-09  0.0000E+00  0.7194E+16
   -0.187477    0.65336  0.0000E+00  0.4096E-13  0.8590E-16  0.1000E-09  0.0000E+00  0.6855E+16
   -0.224973    0.78028  0.0000E+00  0.4096E-13  0.8590E-16  0.1000E-09  0.0000E+00  0.6528E+16
   -0.262470    0.90626  0.0000E+00  0.4096E-13  0.8590E-16  0.1000E-09  0.0000E+00  0.6208E+16
   -0.299966    1.03132  0.0000E+00  0.4096E-13  0.8590E-16  0.1000E-09  0.0000E+00  0.5895E+16
   -0.337463    1.15545  0.0000E+00  0.4096E-13  0.8590E-16  0.1000E-09  0.0000E+00  0.5588E+16
   -0.374961    1.27863  0.0000E+00  0.4096E-13  0.8590E-16  0.1000E-09  0.0000E+00  0.5293E+16
   -0.412458    1.40096  0.0000E+00  0.4096E-13  0.8590E-16  0.1000E-09  0.0000E+00  0.5005E+16
   -0.449956    1.52247  0.0000E+00  0.4096E-13  0.8590E-16  0.1000E-09  0.0000E+00  0.4721E+16
   -0.487453    1.64310  0.0000E+00  0.4096E-13  0.8590E-16  0.1000E-09  0.0000E+00  0.4440E+16
   -0.524951    1.76275  0.0000E+00  0.4096E-13  0.8590E-16  0.1000E-09  0.0000E+00  0.4162E+16
   -0.562449    1.88133  0.0000E+00  0.4096E-13  0.8590E-16  0.1000E-09  0.0000E+00  0.3889E+16
   -0.599947    1.99874  0.0000E+00  0.4096E-13  0.8590E-16  0.1000E-09  0.0000E+00  0.3621E+16
   -0.637445    2.11489  0.0000E+00  0.4096E-13  0.8590E-16  0.1000E-09  0.0000E+00  0.3358E+16
   -0.674944    2.22969  0.0000E+00  0.4096E-13  0.8590E-16  0.1000E-09  0.0000E+00  0.3102E+16
   -0.712442    2.34304  0.0000E+00  0.4096E-13  0.8590E-16  0.1000E-09  0.0000E+00  0.2852E+16
   -0.749940    2.45485  0.0000E+00  0.4096E-13  0.8590E-16  0.1000E-09  0.0000E+00  0.2615E+16
   -0.787438    2.56528  0.0000E+00  0.4096E-13  0.8590E-16  0.1000E-09  0.0000E+00  0.2386E+16
   -0.824937    2.67432  0.0000E+00  0.4096E-13  0.8590E-16  0.1000E-09  0.0000E+00  0.2163E+16
   -0.862435    2.78189  0.0000E+00  0.4096E-13  0.8590E-16  0.1000E-09  0.0000E+00  0.1947E+16
   -0.899933    2.88789  0.0000E+00  0.4096E-13  0.8590E-16  0.1000E-09  0.0000E+00  0.1739E+16
   -0.937431    2.99223  0.0000E+00  0.4096E-13  0.8590E-16  0.1000E-09  0.0000E+00  0.1538E+16
   -0.974929    3.09480  0.0000E+00  0.7512E-13  0.8590E-16  0.1000E-09  0.0000E+00  0.1345E+16
   -1.012427    3.19550  0.0000E+00  0.2742E-12  0.1652E-15  0.1000E-09  0.0000E+00  0.1158E+16
   -1.049925    3.29400  0.0000E+00  0.7987E-12  0.4277E-15  0.1000E-09  0.0000E+00  0.9799E+15
   -1.087422    3.39011  0.0000E+00  0.2169E-11  0.1115E-14  0.1000E-09  0.0000E+00  0.8120E+15
   -1.124920    3.48363  0.0000E+00  0.5750E-11  0.2868E-14  0.1000E-09  0.0000E+00  0.6659E+15
   -1.162417    3.57609  0.0000E+00  0.1504E-10  0.7299E-14  0.1000E-09  0.0000E+00  0.5259E+15
   -1.199914    3.66768  0.0000E+00  0.3892E-10  0.1839E-13  0.1291E-09  0.0000E+00  0.3898E+15
   -1.237411    3.75831  0.0000E+00  0.9969E-10  0.4593E-13  0.4851E-09  0.0000E+00  0.2575E+15
   -1.274907    3.84774  0.0000E+00  0.2554E-09  0.1149E-12  0.2362E-08  0.0000E+00  0.1300E+15
   -1.312403    3.93507  0.0000E+00  0.6441E-09  0.2846E-12  0.3520E-07  0.0000E+00  0.1772E+14
   -1.349899    4.00537  0.0000E+00  0.1413E-08  0.6411E-12  0.1240E-05  0.0000E+00 -0.3290E+13
   -1.387395    4.01429  0.0000E+00  0.1793E-08  0.9712E-12  0.1240E-05  0.0000E+00 -0.4564E+13
   -1.424890    4.02327  0.0000E+00  0.1848E-08  0.1453E-11  0.7937E-06  0.0000E+00 -0.9131E+13
   -1.462386    4.03663  0.0000E+00  0.1454E-08  0.2631E-11  0.2026E-06  0.0000E+00 -0.3946E+14
   -1.499880    4.07334  0.0000E+00  0.0000E+00  0.0000E+00  0.0000E+00  0.0000E+00  0.0000E+00
