 1 - depth, m
 2 - temperature, C
 3 - salinity, kg/kg
 4 - turbulent kinetic energy, m**2/s**2
 5 - dissipation rate, m**2/s**3
 6 - kinematic heat conductance, m**2/s
 7 - modulus of horizontal velocity, m/s
 8 - Richardson number, n/d
   -0.000000    8.19539  0.0000E+00  0.4689E-04  0.9771E-05  0.3204E-04  0.5484E-01 -0.4317E-01
   -0.037500    8.24460  0.0000E+00  0.3032E-04  0.2770E-05  0.5004E-04  0.2605E-01 -0.1204E-01
   -0.075000    8.25811  0.0000E+00  0.2434E-04  0.1218E-05  0.6671E-04  0.2015E-01 -0.1942E-01
   -0.112500    8.26750  0.0000E+00  0.2075E-04  0.6711E-06  0.8238E-04  0.1657E-01 -0.2830E-01
   -0.150001    8.27483  0.0000E+00  0.1823E-04  0.4177E-06  0.9745E-04  0.1396E-01 -0.3825E-01
   -0.187502    8.28096  0.0000E+00  0.1632E-04  0.2824E-06  0.1119E-03  0.1192E-01 -0.4961E-01
   -0.225003    8.28624  0.0000E+00  0.1477E-04  0.2026E-06  0.1258E-03  0.1026E-01 -0.6272E-01
   -0.262505    8.29087  0.0000E+00  0.1346E-04  0.1517E-06  0.1402E-03  0.8885E-02 -0.8046E-01
   -0.300007    8.29497  0.0000E+00  0.1234E-04  0.1173E-06  0.1553E-03  0.7748E-02 -0.9875E-01
   -0.337509    8.29861  0.0000E+00  0.1139E-04  0.9309E-07  0.1766E-03  0.6799E-02  0.2535E+00
   -0.375011    8.30180  0.0000E+00  0.1058E-04  0.7562E-07  0.2341E-03  0.6001E-02  0.5334E+02
   -0.412513    8.30442  0.0000E+00  0.9895E-05  0.6272E-07  0.2928E-03  0.5334E-02  0.2001E+03
   -0.450016    8.30653  0.0000E+00  0.9317E-05  0.5305E-07  0.4093E-03  0.4761E-02  0.1203E+03
   -0.487519    8.30799  0.0000E+00  0.8824E-05  0.4559E-07  0.4664E-03  0.4275E-02  0.8267E+02
   -0.525022    8.30915  0.0000E+00  0.8377E-05  0.3948E-07  0.4825E-03  0.3831E-02  0.7862E+01
   -0.562525    8.31022  0.0000E+00  0.7967E-05  0.3438E-07  0.4888E-03  0.3427E-02  0.9954E+01
   -0.600028    8.31125  0.0000E+00  0.7590E-05  0.3011E-07  0.4935E-03  0.3058E-02  0.3813E+01
   -0.637531    8.31226  0.0000E+00  0.7242E-05  0.2651E-07  0.4975E-03  0.2723E-02  0.3422E+01
   -0.675034    8.31324  0.0000E+00  0.6918E-05  0.2345E-07  0.5018E-03  0.2417E-02  0.3112E+01
   -0.712538    8.31421  0.0000E+00  0.6616E-05  0.2085E-07  0.5063E-03  0.2139E-02  0.2855E+01
   -0.750041    8.31515  0.0000E+00  0.6333E-05  0.1863E-07  0.5111E-03  0.1886E-02  0.2638E+01
   -0.787544    8.31607  0.0000E+00  0.6065E-05  0.1674E-07  0.5163E-03  0.1657E-02  0.2451E+01
   -0.825047    8.31697  0.0000E+00  0.5811E-05  0.1513E-07  0.5216E-03  0.1448E-02  0.2288E+01
   -0.862551    8.31785  0.0000E+00  0.5568E-05  0.1376E-07  0.5272E-03  0.1260E-02  0.2143E+01
   -0.900054    8.31871  0.0000E+00  0.5335E-05  0.1261E-07  0.5328E-03  0.1090E-02  0.2015E+01
   -0.937557    8.31956  0.0000E+00  0.5109E-05  0.1165E-07  0.5385E-03  0.9369E-03  0.1901E+01
   -0.975060    8.32038  0.0000E+00  0.4892E-05  0.1086E-07  0.5441E-03  0.7994E-03  0.1802E+01
   -1.012563    8.32118  0.0000E+00  0.4681E-05  0.1024E-07  0.5576E-03  0.6759E-03  0.1625E+01
   -1.050066    8.32196  0.0000E+00  0.4480E-05  0.9769E-08  0.5760E-03  0.5699E-03  0.1464E+01
   -1.087568    8.32271  0.0000E+00  0.4291E-05  0.9448E-08  0.5819E-03  0.4805E-03  0.1320E+01
   -1.125071    8.32344  0.0000E+00  0.4116E-05  0.9263E-08  0.5548E-03  0.4059E-03  0.1175E+01
   -1.162573    8.32419  0.0000E+00  0.3955E-05  0.9206E-08  0.5141E-03  0.3445E-03  0.1037E+01
   -1.200075    8.32500  0.0000E+00  0.3810E-05  0.9266E-08  0.4721E-03  0.2943E-03  0.9106E+00
   -1.237577    8.32587  0.0000E+00  0.3680E-05  0.9436E-08  0.4366E-03  0.2534E-03  0.8339E+00
   -1.275078    8.32680  0.0000E+00  0.3553E-05  0.9737E-08  0.4034E-03  0.2206E-03  0.1031E+01
   -1.312580    8.32779  0.0000E+00  0.3413E-05  0.1025E-07  0.3599E-03  0.1925E-03  0.1742E+01
   -1.350081    8.32890  0.0000E+00  0.3249E-05  0.1114E-07  0.3060E-03  0.1666E-03  0.3583E+01
   -1.387581    8.33020  0.0000E+00  0.3045E-05  0.1275E-07  0.2360E-03  0.1426E-03  0.1007E+02
   -1.425082    8.33186  0.0000E+00  0.2772E-05  0.1607E-07  0.1799E-03  0.1206E-03  0.3925E+02
   -1.462582    8.33402  0.0000E+00  0.1722E-05  0.3943E-07  0.1202E-04  0.1041E-03 -0.4373E+04
   -1.500082    8.36576  0.0000E+00  0.0000E+00  0.0000E+00  0.0000E+00  0.1039E-03  0.0000E+00
