 1 - depth, m
 2 - temperature, C
 3 - salinity, kg/kg
 4 - turbulent kinetic energy, m**2/s**2
 5 - dissipation rate, m**2/s**3
 6 - kinematic heat conductance, m**2/s
 7 - modulus of horizontal velocity, m/s
 8 - Richardson number, n/d
   -0.000000    0.00000  0.0000E+00  0.4096E-13  0.8590E-16  0.1000E-09  0.0000E+00  0.1025E+17
   -0.037499    0.15707  0.0000E+00  0.4096E-13  0.8590E-16  0.1000E-09  0.0000E+00  0.9699E+16
   -0.074998    0.31229  0.0000E+00  0.4096E-13  0.8590E-16  0.1000E-09  0.0000E+00  0.9165E+16
   -0.112497    0.46566  0.0000E+00  0.4096E-13  0.8590E-16  0.1000E-09  0.0000E+00  0.8649E+16
   -0.149997    0.61718  0.0000E+00  0.4096E-13  0.8590E-16  0.1000E-09  0.0000E+00  0.8148E+16
   -0.187497    0.76684  0.0000E+00  0.4096E-13  0.8590E-16  0.1000E-09  0.0000E+00  0.7664E+16
   -0.224997    0.91464  0.0000E+00  0.4096E-13  0.8590E-16  0.1000E-09  0.0000E+00  0.7196E+16
   -0.262498    1.06055  0.0000E+00  0.4096E-13  0.8590E-16  0.1000E-09  0.0000E+00  0.6736E+16
   -0.299999    1.20443  0.0000E+00  0.4096E-13  0.8590E-16  0.1000E-09  0.0000E+00  0.6291E+16
   -0.337500    1.34622  0.0000E+00  0.4096E-13  0.8590E-16  0.1000E-09  0.0000E+00  0.5861E+16
   -0.375001    1.48587  0.0000E+00  0.4096E-13  0.8590E-16  0.1000E-09  0.0000E+00  0.5472E+16
   -0.412503    1.62401  0.0000E+00  0.4096E-13  0.8590E-16  0.1000E-09  0.0000E+00  0.5108E+16
   -0.450004    1.76101  0.0000E+00  0.4096E-13  0.8590E-16  0.1000E-09  0.0000E+00  0.4753E+16
   -0.487506    1.89686  0.0000E+00  0.4106E-13  0.8590E-16  0.1000E-09  0.0000E+00  0.4407E+16
   -0.525008    2.03153  0.0000E+00  0.2034E-12  0.8590E-16  0.1000E-09  0.0000E+00  0.4067E+16
   -0.562510    2.16492  0.0000E+00  0.5325E-12  0.1433E-15  0.1000E-09  0.0000E+00  0.3735E+16
   -0.600012    2.29700  0.0000E+00  0.1142E-11  0.2705E-15  0.1000E-09  0.0000E+00  0.3413E+16
   -0.637514    2.42773  0.0000E+00  0.2279E-11  0.5145E-15  0.1000E-09  0.0000E+00  0.3100E+16
   -0.675016    2.55706  0.0000E+00  0.4424E-11  0.9705E-15  0.1000E-09  0.0000E+00  0.2795E+16
   -0.712519    2.68494  0.0000E+00  0.8468E-11  0.1816E-14  0.1000E-09  0.0000E+00  0.2500E+16
   -0.750021    2.81131  0.0000E+00  0.1607E-10  0.3376E-14  0.1000E-09  0.0000E+00  0.2230E+16
   -0.787523    2.93709  0.0000E+00  0.3031E-10  0.6237E-14  0.1000E-09  0.0000E+00  0.1970E+16
   -0.825026    3.06259  0.0000E+00  0.5682E-10  0.1146E-13  0.1000E-09  0.0000E+00  0.1712E+16
   -0.862528    3.18780  0.0000E+00  0.1059E-09  0.2094E-13  0.1000E-09  0.0000E+00  0.1457E+16
   -0.900030    3.31269  0.0000E+00  0.1964E-09  0.3807E-13  0.1000E-09  0.0000E+00  0.1204E+16
   -0.937532    3.43723  0.0000E+00  0.3623E-09  0.6886E-13  0.2002E-09  0.0000E+00  0.9540E+15
   -0.975034    3.56131  0.0000E+00  0.6647E-09  0.1239E-12  0.4865E-09  0.0000E+00  0.7063E+15
   -1.012536    3.68471  0.0000E+00  0.1215E-08  0.2223E-12  0.1332E-08  0.0000E+00  0.4624E+15
   -1.050038    3.80698  0.0000E+00  0.2213E-08  0.3974E-12  0.4915E-08  0.0000E+00  0.2237E+15
   -1.087539    3.92584  0.0000E+00  0.3898E-08  0.6899E-12  0.7307E-07  0.0000E+00  0.2544E+14
   -1.125041    4.00656  0.0000E+00  0.4841E-08  0.8629E-12  0.1102E-04  0.0000E+00 -0.5089E+12
   -1.162542    4.00810  0.0000E+00  0.5275E-08  0.9630E-12  0.1143E-04  0.0000E+00 -0.5307E+12
   -1.200043    4.00961  0.0000E+00  0.5614E-08  0.1067E-11  0.1142E-04  0.0000E+00 -0.5703E+12
   -1.237544    4.01112  0.0000E+00  0.5863E-08  0.1182E-11  0.1098E-04  0.0000E+00 -0.6354E+12
   -1.275045    4.01270  0.0000E+00  0.6020E-08  0.1320E-11  0.1012E-04  0.0000E+00 -0.7424E+12
   -1.312545    4.01444  0.0000E+00  0.6073E-08  0.1500E-11  0.8772E-05  0.0000E+00 -0.9272E+12
   -1.350045    4.01647  0.0000E+00  0.5983E-08  0.1761E-11  0.6932E-05  0.0000E+00 -0.1285E+13
   -1.387545    4.01908  0.0000E+00  0.5666E-08  0.2202E-11  0.4636E-05  0.0000E+00 -0.2154E+13
   -1.425044    4.02304  0.0000E+00  0.4912E-08  0.3176E-11  0.2140E-05  0.0000E+00 -0.5508E+13
   -1.462543    4.03161  0.0000E+00  0.3296E-08  0.6588E-11  0.3631E-06  0.0000E+00 -0.4189E+14
   -1.500042    4.07236  0.0000E+00  0.0000E+00  0.0000E+00  0.0000E+00  0.0000E+00  0.0000E+00
