 1 - depth, m
 2 - temperature, C
 3 - salinity, kg/kg
 4 - turbulent kinetic energy, m**2/s**2
 5 - dissipation rate, m**2/s**3
 6 - kinematic heat conductance, m**2/s
 7 - modulus of horizontal velocity, m/s
 8 - Richardson number, n/d
   -0.000000    0.00000  0.0000E+00  0.4096E-13  0.8590E-16  0.1000E-09  0.0000E+00  0.9144E+16
   -0.037494    0.13979  0.0000E+00  0.4096E-13  0.8590E-16  0.1000E-09  0.0000E+00  0.8750E+16
   -0.074988    0.27881  0.0000E+00  0.4096E-13  0.8590E-16  0.1000E-09  0.0000E+00  0.8357E+16
   -0.112482    0.41698  0.0000E+00  0.4096E-13  0.8590E-16  0.1000E-09  0.0000E+00  0.7967E+16
   -0.149977    0.55421  0.0000E+00  0.4096E-13  0.8590E-16  0.1000E-09  0.0000E+00  0.7581E+16
   -0.187472    0.69039  0.0000E+00  0.4096E-13  0.8590E-16  0.1000E-09  0.0000E+00  0.7198E+16
   -0.224967    0.82546  0.0000E+00  0.4096E-13  0.8590E-16  0.1000E-09  0.0000E+00  0.6822E+16
   -0.262463    0.95931  0.0000E+00  0.4096E-13  0.8590E-16  0.1000E-09  0.0000E+00  0.6447E+16
   -0.299958    1.09180  0.0000E+00  0.4096E-13  0.8590E-16  0.1000E-09  0.0000E+00  0.6078E+16
   -0.337454    1.22280  0.0000E+00  0.4096E-13  0.8590E-16  0.1000E-09  0.0000E+00  0.5716E+16
   -0.374951    1.35224  0.0000E+00  0.4096E-13  0.8590E-16  0.1000E-09  0.0000E+00  0.5377E+16
   -0.412447    1.48038  0.0000E+00  0.4096E-13  0.8590E-16  0.1000E-09  0.0000E+00  0.5053E+16
   -0.449943    1.60734  0.0000E+00  0.4096E-13  0.8590E-16  0.1000E-09  0.0000E+00  0.4735E+16
   -0.487440    1.73307  0.0000E+00  0.4096E-13  0.8590E-16  0.1000E-09  0.0000E+00  0.4423E+16
   -0.524937    1.85747  0.0000E+00  0.4096E-13  0.8590E-16  0.1000E-09  0.0000E+00  0.4116E+16
   -0.562434    1.98042  0.0000E+00  0.4096E-13  0.8590E-16  0.1000E-09  0.0000E+00  0.3816E+16
   -0.599931    2.10182  0.0000E+00  0.4096E-13  0.8590E-16  0.1000E-09  0.0000E+00  0.3525E+16
   -0.637428    2.22159  0.0000E+00  0.4096E-13  0.8590E-16  0.1000E-09  0.0000E+00  0.3241E+16
   -0.674925    2.33964  0.0000E+00  0.4096E-13  0.8590E-16  0.1000E-09  0.0000E+00  0.2967E+16
   -0.712423    2.45586  0.0000E+00  0.4096E-13  0.8590E-16  0.1000E-09  0.0000E+00  0.2701E+16
   -0.749920    2.57017  0.0000E+00  0.4096E-13  0.8590E-16  0.1000E-09  0.0000E+00  0.2457E+16
   -0.787417    2.68305  0.0000E+00  0.4096E-13  0.8590E-16  0.1000E-09  0.0000E+00  0.2224E+16
   -0.824914    2.79462  0.0000E+00  0.1300E-12  0.8590E-16  0.1000E-09  0.0000E+00  0.1998E+16
   -0.862411    2.90483  0.0000E+00  0.3850E-12  0.1566E-15  0.1000E-09  0.0000E+00  0.1779E+16
   -0.899909    3.01359  0.0000E+00  0.9450E-12  0.3427E-15  0.1000E-09  0.0000E+00  0.1567E+16
   -0.937406    3.12083  0.0000E+00  0.2174E-11  0.7554E-15  0.1000E-09  0.0000E+00  0.1362E+16
   -0.974903    3.22648  0.0000E+00  0.4879E-11  0.1648E-14  0.1000E-09  0.0000E+00  0.1166E+16
   -1.012399    3.33045  0.0000E+00  0.1083E-10  0.3567E-14  0.1000E-09  0.0000E+00  0.9762E+15
   -1.049896    3.43250  0.0000E+00  0.2391E-10  0.7683E-14  0.1000E-09  0.0000E+00  0.7953E+15
   -1.087393    3.53246  0.0000E+00  0.5239E-10  0.1643E-13  0.1000E-09  0.0000E+00  0.6239E+15
   -1.124889    3.63017  0.0000E+00  0.1139E-09  0.3491E-13  0.2055E-09  0.0000E+00  0.4696E+15
   -1.162385    3.72714  0.0000E+00  0.2461E-09  0.7367E-13  0.6364E-09  0.0000E+00  0.3194E+15
   -1.199881    3.82342  0.0000E+00  0.5271E-09  0.1543E-12  0.2468E-08  0.0000E+00  0.1717E+15
   -1.237377    3.91812  0.0000E+00  0.1110E-08  0.3185E-12  0.2413E-07  0.0000E+00  0.3495E+14
   -1.274873    4.00024  0.0000E+00  0.1941E-08  0.5589E-12  0.2570E-05  0.0000E+00 -0.1298E+13
   -1.312368    4.00529  0.0000E+00  0.2392E-08  0.7496E-12  0.2875E-05  0.0000E+00 -0.1532E+13
   -1.349863    4.00989  0.0000E+00  0.2686E-08  0.9793E-12  0.2687E-05  0.0000E+00 -0.2042E+13
   -1.387357    4.01489  0.0000E+00  0.2794E-08  0.1312E-11  0.2059E-05  0.0000E+00 -0.3295E+13
   -1.424852    4.02149  0.0000E+00  0.2616E-08  0.1939E-11  0.1109E-05  0.0000E+00 -0.7785E+13
   -1.462346    4.03356  0.0000E+00  0.1973E-08  0.3752E-11  0.2547E-06  0.0000E+00 -0.4249E+14
   -1.499840    4.07384  0.0000E+00  0.0000E+00  0.0000E+00  0.0000E+00  0.0000E+00  0.0000E+00
