 1 - depth, m
 2 - temperature, C
 3 - salinity, kg/kg
 4 - turbulent kinetic energy, m**2/s**2
 5 - dissipation rate, m**2/s**3
 6 - kinematic heat conductance, m**2/s
 7 - modulus of horizontal velocity, m/s
 8 - Richardson number, n/d
   -0.000000    0.00000  0.0000E+00  0.4096E-13  0.8590E-16  0.1000E-09  0.0000E+00  0.9073E+16
   -0.037494    0.13867  0.0000E+00  0.4096E-13  0.8590E-16  0.1000E-09  0.0000E+00  0.8656E+16
   -0.074988    0.27614  0.0000E+00  0.4096E-13  0.8590E-16  0.1000E-09  0.0000E+00  0.8251E+16
   -0.112482    0.41242  0.0000E+00  0.4096E-13  0.8590E-16  0.1000E-09  0.0000E+00  0.7857E+16
   -0.149977    0.54752  0.0000E+00  0.4096E-13  0.8590E-16  0.1000E-09  0.0000E+00  0.7472E+16
   -0.187472    0.68142  0.0000E+00  0.4096E-13  0.8590E-16  0.1000E-09  0.0000E+00  0.7095E+16
   -0.224967    0.81410  0.0000E+00  0.4096E-13  0.8590E-16  0.1000E-09  0.0000E+00  0.6727E+16
   -0.262463    0.94553  0.0000E+00  0.4096E-13  0.8590E-16  0.1000E-09  0.0000E+00  0.6363E+16
   -0.299959    1.07560  0.0000E+00  0.4096E-13  0.8590E-16  0.1000E-09  0.0000E+00  0.6006E+16
   -0.337455    1.20423  0.0000E+00  0.4096E-13  0.8590E-16  0.1000E-09  0.0000E+00  0.5657E+16
   -0.374951    1.33136  0.0000E+00  0.4096E-13  0.8590E-16  0.1000E-09  0.0000E+00  0.5330E+16
   -0.412448    1.45724  0.0000E+00  0.4096E-13  0.8590E-16  0.1000E-09  0.0000E+00  0.5017E+16
   -0.449944    1.58200  0.0000E+00  0.4096E-13  0.8590E-16  0.1000E-09  0.0000E+00  0.4710E+16
   -0.487441    1.70560  0.0000E+00  0.4096E-13  0.8590E-16  0.1000E-09  0.0000E+00  0.4408E+16
   -0.524938    1.82793  0.0000E+00  0.4096E-13  0.8590E-16  0.1000E-09  0.0000E+00  0.4112E+16
   -0.562435    1.94890  0.0000E+00  0.4096E-13  0.8590E-16  0.1000E-09  0.0000E+00  0.3822E+16
   -0.599932    2.06842  0.0000E+00  0.4096E-13  0.8590E-16  0.1000E-09  0.0000E+00  0.3539E+16
   -0.637429    2.18640  0.0000E+00  0.4096E-13  0.8590E-16  0.1000E-09  0.0000E+00  0.3264E+16
   -0.674927    2.30276  0.0000E+00  0.4096E-13  0.8590E-16  0.1000E-09  0.0000E+00  0.2997E+16
   -0.712424    2.41740  0.0000E+00  0.4096E-13  0.8590E-16  0.1000E-09  0.0000E+00  0.2739E+16
   -0.749921    2.53023  0.0000E+00  0.4096E-13  0.8590E-16  0.1000E-09  0.0000E+00  0.2500E+16
   -0.787419    2.64168  0.0000E+00  0.4096E-13  0.8590E-16  0.1000E-09  0.0000E+00  0.2271E+16
   -0.824916    2.75184  0.0000E+00  0.4096E-13  0.8590E-16  0.1000E-09  0.0000E+00  0.2049E+16
   -0.862413    2.86063  0.0000E+00  0.4096E-13  0.8590E-16  0.1000E-09  0.0000E+00  0.1834E+16
   -0.899910    2.96798  0.0000E+00  0.1559E-12  0.9369E-16  0.1000E-09  0.0000E+00  0.1625E+16
   -0.937408    3.07379  0.0000E+00  0.4527E-12  0.2046E-15  0.1000E-09  0.0000E+00  0.1424E+16
   -0.974905    3.17797  0.0000E+00  0.1148E-11  0.4835E-15  0.1000E-09  0.0000E+00  0.1230E+16
   -1.012401    3.28042  0.0000E+00  0.2794E-11  0.1137E-14  0.1000E-09  0.0000E+00  0.1043E+16
   -1.049898    3.38087  0.0000E+00  0.6698E-11  0.2652E-14  0.1000E-09  0.0000E+00  0.8640E+15
   -1.087395    3.47915  0.0000E+00  0.1589E-10  0.6129E-14  0.1000E-09  0.0000E+00  0.6950E+15
   -1.124891    3.57507  0.0000E+00  0.3736E-10  0.1405E-13  0.1000E-09  0.0000E+00  0.5447E+15
   -1.162388    3.67011  0.0000E+00  0.8708E-10  0.3195E-13  0.2204E-09  0.0000E+00  0.3992E+15
   -1.199884    3.76443  0.0000E+00  0.2013E-09  0.7211E-13  0.7700E-09  0.0000E+00  0.2568E+15
   -1.237380    3.85771  0.0000E+00  0.4609E-09  0.1614E-12  0.3688E-08  0.0000E+00  0.1185E+15
   -1.274875    3.94854  0.0000E+00  0.1028E-08  0.3541E-12  0.8931E-07  0.0000E+00  0.8295E+13
   -1.312371    4.00560  0.0000E+00  0.1899E-08  0.6758E-12  0.2139E-05  0.0000E+00 -0.2028E+13
   -1.349866    4.01143  0.0000E+00  0.2353E-08  0.9442E-12  0.2222E-05  0.0000E+00 -0.2520E+13
   -1.387360    4.01718  0.0000E+00  0.2571E-08  0.1292E-11  0.1821E-05  0.0000E+00 -0.3836E+13
   -1.424855    4.02429  0.0000E+00  0.2475E-08  0.1905E-11  0.1035E-05  0.0000E+00 -0.8515E+13
   -1.462349    4.03661  0.0000E+00  0.1897E-08  0.3612E-11  0.2473E-06  0.0000E+00 -0.4311E+14
   -1.499843    4.07597  0.0000E+00  0.0000E+00  0.0000E+00  0.0000E+00  0.0000E+00  0.0000E+00
