 1 - depth, m
 2 - temperature, C
 3 - salinity, kg/kg
 4 - turbulent kinetic energy, m**2/s**2
 5 - dissipation rate, m**2/s**3
 6 - kinematic heat conductance, m**2/s
 7 - modulus of horizontal velocity, m/s
 8 - Richardson number, n/d
   -0.000000    9.14680  0.0000E+00  0.4700E-04  0.9086E-05  0.3126E-04  0.5113E-01 -0.1868E-01
   -0.037501    9.18725  0.0000E+00  0.3067E-04  0.2696E-05  0.5443E-04  0.2431E-01 -0.1735E-01
   -0.075003    9.19803  0.0000E+00  0.2473E-04  0.1301E-05  0.7018E-04  0.1892E-01 -0.2344E-01
   -0.112505    9.20548  0.0000E+00  0.2104E-04  0.7409E-06  0.8557E-04  0.1567E-01 -0.3428E-01
   -0.150007    9.21135  0.0000E+00  0.1841E-04  0.4660E-06  0.1007E-03  0.1327E-01 -0.4679E-01
   -0.187510    9.21625  0.0000E+00  0.1641E-04  0.3150E-06  0.1154E-03  0.1139E-01 -0.6141E-01
   -0.225013    9.22046  0.0000E+00  0.1481E-04  0.2247E-06  0.1298E-03  0.9850E-02 -0.7834E-01
   -0.262516    9.22414  0.0000E+00  0.1347E-04  0.1669E-06  0.1454E-03  0.8570E-02 -0.9736E-01
   -0.300019    9.22737  0.0000E+00  0.1234E-04  0.1280E-06  0.1683E-03  0.7505E-02 -0.2536E-02
   -0.337523    9.23016  0.0000E+00  0.1140E-04  0.1010E-06  0.2501E-03  0.6614E-02  0.2097E+04
   -0.375027    9.23231  0.0000E+00  0.1061E-04  0.8164E-07  0.3004E-03  0.5879E-02  0.1369E+03
   -0.412531    9.23411  0.0000E+00  0.9931E-05  0.6730E-07  0.3396E-03  0.5241E-02  0.2540E+02
   -0.450035    9.23565  0.0000E+00  0.9346E-05  0.5639E-07  0.3808E-03  0.4682E-02  0.3803E+02
   -0.487539    9.23696  0.0000E+00  0.8832E-05  0.4791E-07  0.4136E-03  0.4187E-02  0.2454E+02
   -0.525044    9.23812  0.0000E+00  0.8374E-05  0.4114E-07  0.4498E-03  0.3743E-02  0.2304E+02
   -0.562549    9.23912  0.0000E+00  0.7964E-05  0.3567E-07  0.4770E-03  0.3347E-02  0.2503E+02
   -0.600053    9.24002  0.0000E+00  0.7589E-05  0.3116E-07  0.4909E-03  0.2990E-02  0.1380E+02
   -0.637558    9.24086  0.0000E+00  0.7244E-05  0.2737E-07  0.5003E-03  0.2665E-02  0.3605E+01
   -0.675063    9.24168  0.0000E+00  0.6924E-05  0.2418E-07  0.5074E-03  0.2369E-02  0.3224E+01
   -0.712568    9.24246  0.0000E+00  0.6625E-05  0.2147E-07  0.5144E-03  0.2099E-02  0.2836E+01
   -0.750073    9.24323  0.0000E+00  0.6344E-05  0.1917E-07  0.5208E-03  0.1854E-02  0.2583E+01
   -0.787577    9.24397  0.0000E+00  0.6079E-05  0.1722E-07  0.5275E-03  0.1631E-02  0.2400E+01
   -0.825082    9.24470  0.0000E+00  0.5827E-05  0.1555E-07  0.5346E-03  0.1429E-02  0.2242E+01
   -0.862587    9.24541  0.0000E+00  0.5587E-05  0.1414E-07  0.5421E-03  0.1247E-02  0.2103E+01
   -0.900092    9.24611  0.0000E+00  0.5356E-05  0.1294E-07  0.5500E-03  0.1082E-02  0.1980E+01
   -0.937597    9.24678  0.0000E+00  0.5133E-05  0.1195E-07  0.5583E-03  0.9332E-03  0.1872E+01
   -0.975101    9.24744  0.0000E+00  0.4917E-05  0.1113E-07  0.5675E-03  0.7993E-03  0.1780E+01
   -1.012606    9.24809  0.0000E+00  0.4709E-05  0.1047E-07  0.5786E-03  0.6787E-03  0.1607E+01
   -1.050110    9.24871  0.0000E+00  0.4509E-05  0.9970E-08  0.5808E-03  0.5745E-03  0.1444E+01
   -1.087614    9.24933  0.0000E+00  0.4321E-05  0.9612E-08  0.5717E-03  0.4860E-03  0.1298E+01
   -1.125118    9.24994  0.0000E+00  0.4145E-05  0.9390E-08  0.5501E-03  0.4116E-03  0.1159E+01
   -1.162622    9.25057  0.0000E+00  0.3982E-05  0.9298E-08  0.5183E-03  0.3497E-03  0.1028E+01
   -1.200126    9.25124  0.0000E+00  0.3834E-05  0.9329E-08  0.4811E-03  0.2985E-03  0.9324E+00
   -1.237629    9.25194  0.0000E+00  0.3697E-05  0.9483E-08  0.4434E-03  0.2563E-03  0.9624E+00
   -1.275132    9.25270  0.0000E+00  0.3564E-05  0.9784E-08  0.4049E-03  0.2213E-03  0.1212E+01
   -1.312635    9.25352  0.0000E+00  0.3422E-05  0.1030E-07  0.3607E-03  0.1923E-03  0.2025E+01
   -1.350138    9.25444  0.0000E+00  0.3257E-05  0.1119E-07  0.3074E-03  0.1665E-03  0.4163E+01
   -1.387640    9.25550  0.0000E+00  0.3052E-05  0.1280E-07  0.2368E-03  0.1427E-03  0.1174E+02
   -1.425142    9.25687  0.0000E+00  0.2778E-05  0.1613E-07  0.1809E-03  0.1208E-03  0.4544E+02
   -1.462644    9.25865  0.0000E+00  0.1726E-05  0.3959E-07  0.1200E-04  0.1044E-03 -0.5063E+04
   -1.500145    9.28490  0.0000E+00  0.0000E+00  0.0000E+00  0.0000E+00  0.1042E-03  0.0000E+00
