 1 - depth, m
 2 - temperature, C
 3 - salinity, kg/kg
 4 - turbulent kinetic energy, m**2/s**2
 5 - dissipation rate, m**2/s**3
 6 - kinematic heat conductance, m**2/s
 7 - modulus of horizontal velocity, m/s
 8 - Richardson number, n/d
   -0.000000    0.00000  0.0000E+00  0.4096E-13  0.8590E-16  0.1000E-09  0.0000E+00  0.9328E+16
   -0.037498    0.14266  0.0000E+00  0.4096E-13  0.8590E-16  0.1000E-09  0.0000E+00  0.8925E+16
   -0.074996    0.28464  0.0000E+00  0.4096E-13  0.8590E-16  0.1000E-09  0.0000E+00  0.8521E+16
   -0.112495    0.42582  0.0000E+00  0.4096E-13  0.8590E-16  0.1000E-09  0.0000E+00  0.8118E+16
   -0.149994    0.56607  0.0000E+00  0.4096E-13  0.8590E-16  0.1000E-09  0.0000E+00  0.7717E+16
   -0.187493    0.70529  0.0000E+00  0.4096E-13  0.8590E-16  0.1000E-09  0.0000E+00  0.7319E+16
   -0.224992    0.84336  0.0000E+00  0.4096E-13  0.8590E-16  0.1000E-09  0.0000E+00  0.6927E+16
   -0.262492    0.98018  0.0000E+00  0.4096E-13  0.8590E-16  0.1000E-09  0.0000E+00  0.6537E+16
   -0.299992    1.11560  0.0000E+00  0.4096E-13  0.8590E-16  0.1000E-09  0.0000E+00  0.6154E+16
   -0.337492    1.24950  0.0000E+00  0.4096E-13  0.8590E-16  0.1000E-09  0.0000E+00  0.5779E+16
   -0.374993    1.38179  0.0000E+00  0.4096E-13  0.8590E-16  0.1000E-09  0.0000E+00  0.5426E+16
   -0.412493    1.51273  0.0000E+00  0.4096E-13  0.8590E-16  0.1000E-09  0.0000E+00  0.5088E+16
   -0.449994    1.64244  0.0000E+00  0.4096E-13  0.8590E-16  0.1000E-09  0.0000E+00  0.4757E+16
   -0.487495    1.77085  0.0000E+00  0.4096E-13  0.8590E-16  0.1000E-09  0.0000E+00  0.4434E+16
   -0.524996    1.89791  0.0000E+00  0.4096E-13  0.8590E-16  0.1000E-09  0.0000E+00  0.4116E+16
   -0.562497    2.02348  0.0000E+00  0.4096E-13  0.8590E-16  0.1000E-09  0.0000E+00  0.3807E+16
   -0.599998    2.14748  0.0000E+00  0.4096E-13  0.8590E-16  0.1000E-09  0.0000E+00  0.3506E+16
   -0.637500    2.26985  0.0000E+00  0.4096E-13  0.8590E-16  0.1000E-09  0.0000E+00  0.3214E+16
   -0.675001    2.39049  0.0000E+00  0.4096E-13  0.8590E-16  0.1000E-09  0.0000E+00  0.2931E+16
   -0.712503    2.50932  0.0000E+00  0.4096E-13  0.8590E-16  0.1000E-09  0.0000E+00  0.2658E+16
   -0.750004    2.62624  0.0000E+00  0.1025E-12  0.8590E-16  0.1000E-09  0.0000E+00  0.2405E+16
   -0.787505    2.74168  0.0000E+00  0.3285E-12  0.1228E-15  0.1000E-09  0.0000E+00  0.2162E+16
   -0.825007    2.85575  0.0000E+00  0.7931E-12  0.2430E-15  0.1000E-09  0.0000E+00  0.1928E+16
   -0.862508    2.96836  0.0000E+00  0.1731E-11  0.4983E-15  0.1000E-09  0.0000E+00  0.1701E+16
   -0.900010    3.07945  0.0000E+00  0.3640E-11  0.1015E-14  0.1000E-09  0.0000E+00  0.1481E+16
   -0.937511    3.18894  0.0000E+00  0.7530E-11  0.2047E-14  0.1000E-09  0.0000E+00  0.1271E+16
   -0.975012    3.29675  0.0000E+00  0.1542E-10  0.4097E-14  0.1000E-09  0.0000E+00  0.1068E+16
   -1.012513    3.40280  0.0000E+00  0.3141E-10  0.8158E-14  0.1000E-09  0.0000E+00  0.8733E+15
   -1.050014    3.50681  0.0000E+00  0.6374E-10  0.1619E-13  0.1000E-09  0.0000E+00  0.6880E+15
   -1.087515    3.60859  0.0000E+00  0.1286E-09  0.3197E-13  0.1726E-09  0.0000E+00  0.5130E+15
   -1.125015    3.70789  0.0000E+00  0.2581E-09  0.6278E-13  0.4908E-09  0.0000E+00  0.3541E+15
   -1.162516    3.80612  0.0000E+00  0.5146E-09  0.1226E-12  0.1692E-08  0.0000E+00  0.2002E+15
   -1.200016    3.90289  0.0000E+00  0.1015E-08  0.2371E-12  0.1196E-07  0.0000E+00  0.5426E+14
   -1.237516    3.99261  0.0000E+00  0.1677E-08  0.3912E-12  0.2339E-05  0.0000E+00 -0.7834E+12
   -1.275016    3.99822  0.0000E+00  0.2094E-08  0.5256E-12  0.3015E-05  0.0000E+00 -0.9633E+12
   -1.312515    4.00260  0.0000E+00  0.2414E-08  0.6814E-12  0.3129E-05  0.0000E+00 -0.1226E+13
   -1.350014    4.00685  0.0000E+00  0.2624E-08  0.8820E-12  0.2797E-05  0.0000E+00 -0.1722E+13
   -1.387513    4.01165  0.0000E+00  0.2679E-08  0.1183E-11  0.2072E-05  0.0000E+00 -0.2903E+13
   -1.425012    4.01814  0.0000E+00  0.2476E-08  0.1762E-11  0.1083E-05  0.0000E+00 -0.7136E+13
   -1.462510    4.03018  0.0000E+00  0.1848E-08  0.3427E-11  0.2423E-06  0.0000E+00 -0.4005E+14
   -1.500008    4.07022  0.0000E+00  0.0000E+00  0.0000E+00  0.0000E+00  0.0000E+00  0.0000E+00
