 1 - depth, m
 2 - temperature, C
 3 - salinity, kg/kg
 4 - turbulent kinetic energy, m**2/s**2
 5 - dissipation rate, m**2/s**3
 6 - kinematic heat conductance, m**2/s
 7 - modulus of horizontal velocity, m/s
 8 - Richardson number, n/d
   -0.000000    0.00000  0.0000E+00  0.4096E-13  0.8590E-16  0.1000E-09  0.0000E+00  0.1132E+17
   -0.037497    0.17387  0.0000E+00  0.4096E-13  0.8590E-16  0.1000E-09  0.0000E+00  0.1072E+17
   -0.074995    0.34671  0.0000E+00  0.4096E-13  0.8590E-16  0.1000E-09  0.0000E+00  0.1013E+17
   -0.112493    0.51837  0.0000E+00  0.4096E-13  0.8590E-16  0.1000E-09  0.0000E+00  0.9536E+16
   -0.149991    0.68868  0.0000E+00  0.4096E-13  0.8590E-16  0.1000E-09  0.0000E+00  0.8954E+16
   -0.187490    0.85752  0.0000E+00  0.4096E-13  0.8590E-16  0.1000E-09  0.0000E+00  0.8380E+16
   -0.224989    1.02472  0.0000E+00  0.4096E-13  0.8590E-16  0.1000E-09  0.0000E+00  0.7816E+16
   -0.262488    1.19014  0.0000E+00  0.4096E-13  0.8590E-16  0.1000E-09  0.0000E+00  0.7261E+16
   -0.299987    1.35356  0.0000E+00  0.1012E-12  0.8590E-16  0.1000E-09  0.0000E+00  0.6717E+16
   -0.337487    1.51481  0.0000E+00  0.3255E-12  0.9151E-16  0.1000E-09  0.0000E+00  0.6189E+16
   -0.374987    1.67372  0.0000E+00  0.7269E-12  0.1437E-15  0.1000E-09  0.0000E+00  0.5690E+16
   -0.412487    1.83058  0.0000E+00  0.1408E-11  0.2469E-15  0.1000E-09  0.0000E+00  0.5215E+16
   -0.449987    1.98549  0.0000E+00  0.2568E-11  0.4285E-15  0.1000E-09  0.0000E+00  0.4752E+16
   -0.487487    2.13835  0.0000E+00  0.4561E-11  0.7396E-15  0.1000E-09  0.0000E+00  0.4304E+16
   -0.524988    2.28901  0.0000E+00  0.8000E-11  0.1269E-14  0.1000E-09  0.0000E+00  0.3870E+16
   -0.562488    2.43729  0.0000E+00  0.1393E-10  0.2168E-14  0.1000E-09  0.0000E+00  0.3452E+16
   -0.599989    2.58308  0.0000E+00  0.2410E-10  0.3684E-14  0.1000E-09  0.0000E+00  0.3051E+16
   -0.637490    2.72625  0.0000E+00  0.4152E-10  0.6233E-14  0.1000E-09  0.0000E+00  0.2668E+16
   -0.674991    2.86668  0.0000E+00  0.7119E-10  0.1050E-13  0.1000E-09  0.0000E+00  0.2303E+16
   -0.712491    3.00426  0.0000E+00  0.1216E-09  0.1762E-13  0.1000E-09  0.0000E+00  0.1957E+16
   -0.749992    3.13886  0.0000E+00  0.2067E-09  0.2944E-13  0.1000E-09  0.0000E+00  0.1641E+16
   -0.787493    3.27134  0.0000E+00  0.3500E-09  0.4900E-13  0.1025E-09  0.0000E+00  0.1343E+16
   -0.824994    3.40196  0.0000E+00  0.5904E-09  0.8125E-13  0.2135E-09  0.0000E+00  0.1057E+16
   -0.862495    3.53059  0.0000E+00  0.9917E-09  0.1342E-12  0.4761E-09  0.0000E+00  0.7827E+15
   -0.899996    3.65710  0.0000E+00  0.1659E-08  0.2208E-12  0.1176E-08  0.0000E+00  0.5213E+15
   -0.937496    3.78112  0.0000E+00  0.2761E-08  0.3615E-12  0.3668E-08  0.0000E+00  0.2737E+15
   -0.974997    3.90118  0.0000E+00  0.4525E-08  0.5837E-12  0.2950E-07  0.0000E+00  0.5504E+14
   -1.012497    4.00160  0.0000E+00  0.5191E-08  0.6731E-12  0.1573E-04  0.0000E+00 -0.2634E+12
   -1.049998    4.00266  0.0000E+00  0.5504E-08  0.7236E-12  0.1622E-04  0.0000E+00 -0.2718E+12
   -1.087498    4.00369  0.0000E+00  0.5768E-08  0.7764E-12  0.1639E-04  0.0000E+00 -0.2836E+12
   -1.124998    4.00470  0.0000E+00  0.5986E-08  0.8332E-12  0.1628E-04  0.0000E+00 -0.3020E+12
   -1.162498    4.00572  0.0000E+00  0.6159E-08  0.8959E-12  0.1582E-04  0.0000E+00 -0.3284E+12
   -1.199997    4.00678  0.0000E+00  0.6283E-08  0.9675E-12  0.1502E-04  0.0000E+00 -0.3656E+12
   -1.237497    4.00789  0.0000E+00  0.6353E-08  0.1052E-11  0.1386E-04  0.0000E+00 -0.4194E+12
   -1.274996    4.00909  0.0000E+00  0.6359E-08  0.1160E-11  0.1231E-04  0.0000E+00 -0.5027E+12
   -1.312495    4.01046  0.0000E+00  0.6281E-08  0.1307E-11  0.1031E-04  0.0000E+00 -0.6430E+12
   -1.349993    4.01211  0.0000E+00  0.6078E-08  0.1528E-11  0.7872E-05  0.0000E+00 -0.9140E+12
   -1.387492    4.01428  0.0000E+00  0.5664E-08  0.1914E-11  0.5066E-05  0.0000E+00 -0.1579E+13
   -1.424990    4.01768  0.0000E+00  0.4819E-08  0.2792E-11  0.2217E-05  0.0000E+00 -0.4238E+13
   -1.462487    4.02536  0.0000E+00  0.3113E-08  0.5938E-11  0.3409E-06  0.0000E+00 -0.3573E+14
   -1.499985    4.06435  0.0000E+00  0.0000E+00  0.0000E+00  0.0000E+00  0.0000E+00  0.0000E+00
