 1 - depth, m
 2 - temperature, C
 3 - salinity, kg/kg
 4 - turbulent kinetic energy, m**2/s**2
 5 - dissipation rate, m**2/s**3
 6 - kinematic heat conductance, m**2/s
 7 - modulus of horizontal velocity, m/s
 8 - Richardson number, n/d
   -0.000000    0.00000  0.0000E+00  0.4096E-13  0.8590E-16  0.1000E-09  0.0000E+00  0.1018E+17
   -0.037495    0.15593  0.0000E+00  0.4096E-13  0.8590E-16  0.1000E-09  0.0000E+00  0.9718E+16
   -0.074990    0.31140  0.0000E+00  0.4096E-13  0.8590E-16  0.1000E-09  0.0000E+00  0.9254E+16
   -0.112486    0.46625  0.0000E+00  0.4096E-13  0.8590E-16  0.1000E-09  0.0000E+00  0.8789E+16
   -0.149982    0.62032  0.0000E+00  0.4096E-13  0.8590E-16  0.1000E-09  0.0000E+00  0.8325E+16
   -0.187478    0.77345  0.0000E+00  0.4096E-13  0.8590E-16  0.1000E-09  0.0000E+00  0.7863E+16
   -0.224974    0.92552  0.0000E+00  0.4096E-13  0.8590E-16  0.1000E-09  0.0000E+00  0.7405E+16
   -0.262471    1.07637  0.0000E+00  0.4096E-13  0.8590E-16  0.1000E-09  0.0000E+00  0.6949E+16
   -0.299968    1.22581  0.0000E+00  0.4096E-13  0.8590E-16  0.1000E-09  0.0000E+00  0.6499E+16
   -0.337465    1.37369  0.0000E+00  0.4096E-13  0.8590E-16  0.1000E-09  0.0000E+00  0.6058E+16
   -0.374962    1.51986  0.0000E+00  0.4096E-13  0.8590E-16  0.1000E-09  0.0000E+00  0.5637E+16
   -0.412460    1.66447  0.0000E+00  0.4096E-13  0.8590E-16  0.1000E-09  0.0000E+00  0.5229E+16
   -0.449958    1.80755  0.0000E+00  0.4096E-13  0.8590E-16  0.1000E-09  0.0000E+00  0.4831E+16
   -0.487456    1.94898  0.0000E+00  0.4333E-13  0.8590E-16  0.1000E-09  0.0000E+00  0.4443E+16
   -0.524954    2.08865  0.0000E+00  0.2037E-12  0.8590E-16  0.1000E-09  0.0000E+00  0.4063E+16
   -0.562452    2.22636  0.0000E+00  0.5304E-12  0.1318E-15  0.1000E-09  0.0000E+00  0.3694E+16
   -0.599950    2.36200  0.0000E+00  0.1115E-11  0.2368E-15  0.1000E-09  0.0000E+00  0.3338E+16
   -0.637449    2.49543  0.0000E+00  0.2162E-11  0.4335E-15  0.1000E-09  0.0000E+00  0.2995E+16
   -0.674947    2.62654  0.0000E+00  0.4059E-11  0.7888E-15  0.1000E-09  0.0000E+00  0.2665E+16
   -0.712445    2.75519  0.0000E+00  0.7501E-11  0.1425E-14  0.1000E-09  0.0000E+00  0.2350E+16
   -0.749944    2.88125  0.0000E+00  0.1374E-10  0.2556E-14  0.1000E-09  0.0000E+00  0.2059E+16
   -0.787442    3.00520  0.0000E+00  0.2500E-10  0.4561E-14  0.1000E-09  0.0000E+00  0.1784E+16
   -0.824941    3.12714  0.0000E+00  0.4524E-10  0.8095E-14  0.1000E-09  0.0000E+00  0.1520E+16
   -0.862439    3.24700  0.0000E+00  0.8145E-10  0.1430E-13  0.1000E-09  0.0000E+00  0.1268E+16
   -0.899937    3.36469  0.0000E+00  0.1459E-09  0.2514E-13  0.1000E-09  0.0000E+00  0.1029E+16
   -0.937436    3.48014  0.0000E+00  0.2601E-09  0.4399E-13  0.1522E-09  0.0000E+00  0.8023E+15
   -0.974934    3.59324  0.0000E+00  0.4616E-09  0.7663E-13  0.3616E-09  0.0000E+00  0.5882E+15
   -1.012432    3.70379  0.0000E+00  0.8165E-09  0.1331E-12  0.9560E-09  0.0000E+00  0.3863E+15
   -1.049930    3.81117  0.0000E+00  0.1441E-08  0.2307E-12  0.3204E-08  0.0000E+00  0.1997E+15
   -1.087427    3.91402  0.0000E+00  0.2506E-08  0.3947E-12  0.2759E-07  0.0000E+00  0.3966E+14
   -1.124925    3.99949  0.0000E+00  0.3213E-08  0.5090E-12  0.7857E-05  0.0000E+00 -0.3942E+12
   -1.162422    4.00128  0.0000E+00  0.3556E-08  0.5787E-12  0.8400E-05  0.0000E+00 -0.4165E+12
   -1.199920    4.00297  0.0000E+00  0.3829E-08  0.6518E-12  0.8552E-05  0.0000E+00 -0.4538E+12
   -1.237417    4.00462  0.0000E+00  0.4035E-08  0.7327E-12  0.8324E-05  0.0000E+00 -0.5128E+12
   -1.274913    4.00633  0.0000E+00  0.4174E-08  0.8293E-12  0.7716E-05  0.0000E+00 -0.6084E+12
   -1.312410    4.00819  0.0000E+00  0.4234E-08  0.9549E-12  0.6701E-05  0.0000E+00 -0.7732E+12
   -1.349906    4.01034  0.0000E+00  0.4186E-08  0.1136E-11  0.5277E-05  0.0000E+00 -0.1095E+13
   -1.387402    4.01309  0.0000E+00  0.3966E-08  0.1440E-11  0.3495E-05  0.0000E+00 -0.1888E+13
   -1.424897    4.01727  0.0000E+00  0.3423E-08  0.2098E-11  0.1592E-05  0.0000E+00 -0.4997E+13
   -1.462393    4.02627  0.0000E+00  0.2317E-08  0.4263E-11  0.2793E-06  0.0000E+00 -0.3582E+14
   -1.499887    4.06489  0.0000E+00  0.0000E+00  0.0000E+00  0.0000E+00  0.0000E+00  0.0000E+00
