 1 - depth, m
 2 - temperature, C
 3 - salinity, kg/kg
 4 - turbulent kinetic energy, m**2/s**2
 5 - dissipation rate, m**2/s**3
 6 - kinematic heat conductance, m**2/s
 7 - modulus of horizontal velocity, m/s
 8 - Richardson number, n/d
   -0.000000    0.00000  0.0000E+00  0.4096E-13  0.8590E-16  0.1000E-09  0.0000E+00  0.1176E+17
   -0.037495    0.18082  0.0000E+00  0.4096E-13  0.8590E-16  0.1000E-09  0.0000E+00  0.1105E+17
   -0.074990    0.35941  0.0000E+00  0.4096E-13  0.8590E-16  0.1000E-09  0.0000E+00  0.1036E+17
   -0.112486    0.53586  0.0000E+00  0.4096E-13  0.8590E-16  0.1000E-09  0.0000E+00  0.9705E+16
   -0.149981    0.71026  0.0000E+00  0.4096E-13  0.8590E-16  0.1000E-09  0.0000E+00  0.9073E+16
   -0.187478    0.88266  0.0000E+00  0.8366E-13  0.8590E-16  0.1000E-09  0.0000E+00  0.8463E+16
   -0.224974    1.05310  0.0000E+00  0.2898E-12  0.8590E-16  0.1000E-09  0.0000E+00  0.7875E+16
   -0.262471    1.22161  0.0000E+00  0.6615E-12  0.1268E-15  0.1000E-09  0.0000E+00  0.7300E+16
   -0.299968    1.38803  0.0000E+00  0.1279E-11  0.2114E-15  0.1000E-09  0.0000E+00  0.6744E+16
   -0.337465    1.55232  0.0000E+00  0.2308E-11  0.3590E-15  0.1000E-09  0.0000E+00  0.6207E+16
   -0.374962    1.71445  0.0000E+00  0.4033E-11  0.6078E-15  0.1000E-09  0.0000E+00  0.5715E+16
   -0.412460    1.87517  0.0000E+00  0.6941E-11  0.1023E-14  0.1000E-09  0.0000E+00  0.5251E+16
   -0.449957    2.03490  0.0000E+00  0.1184E-10  0.1712E-14  0.1000E-09  0.0000E+00  0.4797E+16
   -0.487455    2.19365  0.0000E+00  0.2007E-10  0.2851E-14  0.1000E-09  0.0000E+00  0.4352E+16
   -0.524953    2.35136  0.0000E+00  0.3388E-10  0.4732E-14  0.1000E-09  0.0000E+00  0.3915E+16
   -0.562451    2.50795  0.0000E+00  0.5700E-10  0.7826E-14  0.1000E-09  0.0000E+00  0.3487E+16
   -0.599950    2.66336  0.0000E+00  0.9553E-10  0.1290E-13  0.1000E-09  0.0000E+00  0.3069E+16
   -0.637448    2.81755  0.0000E+00  0.1595E-09  0.2118E-13  0.1000E-09  0.0000E+00  0.2662E+16
   -0.674946    2.97043  0.0000E+00  0.2653E-09  0.3466E-13  0.1000E-09  0.0000E+00  0.2265E+16
   -0.712445    3.12194  0.0000E+00  0.4398E-09  0.5652E-13  0.1000E-09  0.0000E+00  0.1879E+16
   -0.749943    3.27198  0.0000E+00  0.7263E-09  0.9184E-13  0.1687E-09  0.0000E+00  0.1511E+16
   -0.787441    3.42129  0.0000E+00  0.1195E-08  0.1487E-12  0.3584E-09  0.0000E+00  0.1152E+16
   -0.824940    3.56997  0.0000E+00  0.1960E-08  0.2400E-12  0.8361E-09  0.0000E+00  0.7967E+15
   -0.862438    3.71766  0.0000E+00  0.3200E-08  0.3858E-12  0.2390E-08  0.0000E+00  0.4480E+15
   -0.899936    3.86318  0.0000E+00  0.5179E-08  0.6153E-12  0.1443E-07  0.0000E+00  0.1180E+15
   -0.937435    3.99681  0.0000E+00  0.5832E-08  0.6962E-12  0.1694E-04  0.0000E+00 -0.2099E+12
   -0.974933    3.99801  0.0000E+00  0.6152E-08  0.7437E-12  0.1812E-04  0.0000E+00 -0.2186E+12
   -1.012431    3.99915  0.0000E+00  0.6437E-08  0.7942E-12  0.1911E-04  0.0000E+00 -0.2274E+12
   -1.049929    4.00023  0.0000E+00  0.6687E-08  0.8485E-12  0.1967E-04  0.0000E+00 -0.2399E+12
   -1.087426    4.00129  0.0000E+00  0.6904E-08  0.9075E-12  0.1977E-04  0.0000E+00 -0.2576E+12
   -1.124924    4.00235  0.0000E+00  0.7087E-08  0.9732E-12  0.1939E-04  0.0000E+00 -0.2817E+12
   -1.162421    4.00344  0.0000E+00  0.7235E-08  0.1049E-11  0.1860E-04  0.0000E+00 -0.3143E+12
   -1.199918    4.00457  0.0000E+00  0.7343E-08  0.1137E-11  0.1730E-04  0.0000E+00 -0.3614E+12
   -1.237415    4.00579  0.0000E+00  0.7401E-08  0.1245E-11  0.1569E-04  0.0000E+00 -0.4271E+12
   -1.274912    4.00714  0.0000E+00  0.7396E-08  0.1383E-11  0.1378E-04  0.0000E+00 -0.5244E+12
   -1.312409    4.00869  0.0000E+00  0.7305E-08  0.1574E-11  0.1146E-04  0.0000E+00 -0.6854E+12
   -1.349905    4.01057  0.0000E+00  0.7081E-08  0.1860E-11  0.8710E-05  0.0000E+00 -0.9945E+12
   -1.387401    4.01306  0.0000E+00  0.6627E-08  0.2362E-11  0.5599E-05  0.0000E+00 -0.1753E+13
   -1.424896    4.01696  0.0000E+00  0.5695E-08  0.3502E-11  0.2477E-05  0.0000E+00 -0.4791E+13
   -1.462391    4.02569  0.0000E+00  0.3763E-08  0.7625E-11  0.3995E-06  0.0000E+00 -0.4185E+14
   -1.499886    4.06937  0.0000E+00  0.0000E+00  0.0000E+00  0.0000E+00  0.0000E+00  0.0000E+00
