 1 - depth, m
 2 - temperature, C
 3 - salinity, kg/kg
 4 - turbulent kinetic energy, m**2/s**2
 5 - dissipation rate, m**2/s**3
 6 - kinematic heat conductance, m**2/s
 7 - modulus of horizontal velocity, m/s
 8 - Richardson number, n/d
   -0.000000    7.06683  0.0000E+00  0.4901E-04  0.1157E-04  0.3416E-04  0.5262E-01 -0.2002E-01
   -0.037499    7.12005  0.0000E+00  0.3073E-04  0.3307E-05  0.5237E-04  0.2362E-01 -0.1611E-01
   -0.074999    7.13308  0.0000E+00  0.2430E-04  0.1511E-05  0.6602E-04  0.1827E-01 -0.2827E-01
   -0.112499    7.14209  0.0000E+00  0.2037E-04  0.8219E-06  0.7987E-04  0.1513E-01 -0.4332E-01
   -0.149999    7.14913  0.0000E+00  0.1761E-04  0.4957E-06  0.9388E-04  0.1280E-01 -0.6164E-01
   -0.187500    7.15493  0.0000E+00  0.1556E-04  0.3241E-06  0.1089E-03  0.1096E-01 -0.6730E-01
   -0.225001    7.15984  0.0000E+00  0.1395E-04  0.2259E-06  0.1391E-03  0.9457E-02  0.9426E+02
   -0.262502    7.16386  0.0000E+00  0.1263E-04  0.1652E-06  0.1655E-03  0.8209E-02  0.8015E+01
   -0.300004    7.16732  0.0000E+00  0.1152E-04  0.1253E-06  0.1865E-03  0.7167E-02  0.1556E+02
   -0.337505    7.17040  0.0000E+00  0.1058E-04  0.9777E-07  0.2079E-03  0.6284E-02  0.6149E+01
   -0.375007    7.17316  0.0000E+00  0.9770E-05  0.7805E-07  0.2288E-03  0.5530E-02  0.1252E+02
   -0.412509    7.17567  0.0000E+00  0.9071E-05  0.6348E-07  0.2508E-03  0.4881E-02  0.5145E+01
   -0.450011    7.17795  0.0000E+00  0.8464E-05  0.5246E-07  0.2733E-03  0.4318E-02  0.2215E+02
   -0.487514    7.18003  0.0000E+00  0.7933E-05  0.4396E-07  0.3015E-03  0.3828E-02  0.5952E+01
   -0.525016    7.18190  0.0000E+00  0.7468E-05  0.3732E-07  0.3540E-03  0.3399E-02  0.1617E+03
   -0.562519    7.18347  0.0000E+00  0.7068E-05  0.3213E-07  0.4318E-03  0.3031E-02  0.1621E+04
   -0.600022    7.18469  0.0000E+00  0.6718E-05  0.2798E-07  0.4854E-03  0.2712E-02  0.1174E+03
   -0.637524    7.18571  0.0000E+00  0.6401E-05  0.2454E-07  0.5007E-03  0.2424E-02  0.6210E+03
   -0.675027    7.18667  0.0000E+00  0.6110E-05  0.2163E-07  0.5111E-03  0.2160E-02  0.3733E+01
   -0.712530    7.18761  0.0000E+00  0.5842E-05  0.1918E-07  0.5205E-03  0.1919E-02  0.2438E+01
   -0.750033    7.18853  0.0000E+00  0.5595E-05  0.1711E-07  0.5303E-03  0.1700E-02  0.2294E+01
   -0.787536    7.18944  0.0000E+00  0.5365E-05  0.1535E-07  0.5368E-03  0.1501E-02  0.2166E+01
   -0.825039    7.19034  0.0000E+00  0.5150E-05  0.1386E-07  0.5410E-03  0.1320E-02  0.2055E+01
   -0.862542    7.19124  0.0000E+00  0.4947E-05  0.1260E-07  0.5430E-03  0.1155E-02  0.1955E+01
   -0.900044    7.19215  0.0000E+00  0.4756E-05  0.1154E-07  0.5431E-03  0.1005E-02  0.1866E+01
   -0.937547    7.19305  0.0000E+00  0.4573E-05  0.1066E-07  0.5412E-03  0.8697E-03  0.1786E+01
   -0.975050    7.19396  0.0000E+00  0.4398E-05  0.9935E-08  0.5371E-03  0.7467E-03  0.1717E+01
   -1.012552    7.19489  0.0000E+00  0.4229E-05  0.9352E-08  0.5352E-03  0.6351E-03  0.1559E+01
   -1.050054    7.19582  0.0000E+00  0.4067E-05  0.8906E-08  0.5342E-03  0.5380E-03  0.1413E+01
   -1.087557    7.19675  0.0000E+00  0.3914E-05  0.8590E-08  0.5326E-03  0.4551E-03  0.1327E+01
   -1.125059    7.19770  0.0000E+00  0.3769E-05  0.8400E-08  0.5210E-03  0.3848E-03  0.1302E+01
   -1.162561    7.19867  0.0000E+00  0.3632E-05  0.8332E-08  0.4925E-03  0.3258E-03  0.1334E+01
   -1.200062    7.19970  0.0000E+00  0.3505E-05  0.8383E-08  0.4547E-03  0.2765E-03  0.1464E+01
   -1.237564    7.20083  0.0000E+00  0.3387E-05  0.8552E-08  0.4159E-03  0.2355E-03  0.1756E+01
   -1.275065    7.20208  0.0000E+00  0.3273E-05  0.8854E-08  0.3792E-03  0.2018E-03  0.2437E+01
   -1.312566    7.20346  0.0000E+00  0.3151E-05  0.9351E-08  0.3385E-03  0.1748E-03  0.4311E+01
   -1.350066    7.20501  0.0000E+00  0.3005E-05  0.1019E-07  0.2875E-03  0.1503E-03  0.9289E+01
   -1.387567    7.20686  0.0000E+00  0.2821E-05  0.1170E-07  0.2218E-03  0.1280E-03  0.2737E+02
   -1.425067    7.20927  0.0000E+00  0.2571E-05  0.1478E-07  0.1681E-03  0.1075E-03  0.1136E+03
   -1.462567    7.21250  0.0000E+00  0.1607E-05  0.3615E-07  0.1185E-04  0.9222E-04 -0.1245E+05
   -1.500066    7.25825  0.0000E+00  0.0000E+00  0.0000E+00  0.0000E+00  0.9200E-04  0.0000E+00
