 1 - depth, m
 2 - temperature, C
 3 - salinity, kg/kg
 4 - turbulent kinetic energy, m**2/s**2
 5 - dissipation rate, m**2/s**3
 6 - kinematic heat conductance, m**2/s
 7 - modulus of horizontal velocity, m/s
 8 - Richardson number, n/d
   -0.000000   16.70254  0.0000E+00  0.7943E-04  0.2729E-04  0.4742E-04  0.7518E-01 -0.3282E-01
   -0.037497   16.75022  0.0000E+00  0.4739E-04  0.7206E-05  0.6852E-04  0.3004E-01 -0.3619E+00
   -0.074995   16.75931  0.0000E+00  0.3634E-04  0.3197E-05  0.8286E-04  0.2296E-01 -0.4668E-01
   -0.112493   16.76557  0.0000E+00  0.3009E-04  0.1737E-05  0.9685E-04  0.1914E-01 -0.4515E-01
   -0.149991   16.77029  0.0000E+00  0.2580E-04  0.1023E-05  0.1120E-03  0.1632E-01 -0.5866E-01
   -0.187489   16.77417  0.0000E+00  0.2265E-04  0.6432E-06  0.1280E-03  0.1409E-01 -0.7377E-01
   -0.224988   16.77748  0.0000E+00  0.2023E-04  0.4299E-06  0.1450E-03  0.1225E-01 -0.8821E-01
   -0.262487   16.78033  0.0000E+00  0.1831E-04  0.3036E-06  0.1712E-03  0.1072E-01  0.8006E+01
   -0.299986   16.78275  0.0000E+00  0.1677E-04  0.2250E-06  0.2309E-03  0.9452E-02  0.7077E+02
   -0.337486   16.78468  0.0000E+00  0.1554E-04  0.1738E-06  0.3007E-03  0.8408E-02  0.2488E+02
   -0.374985   16.78620  0.0000E+00  0.1454E-04  0.1388E-06  0.3603E-03  0.7529E-02  0.3367E+02
   -0.412485   16.78745  0.0000E+00  0.1372E-04  0.1136E-06  0.4145E-03  0.6767E-02  0.4995E+02
   -0.449985   16.78849  0.0000E+00  0.1303E-04  0.9500E-07  0.4603E-03  0.6095E-02  0.6578E+02
   -0.487485   16.78938  0.0000E+00  0.1243E-04  0.8067E-07  0.4965E-03  0.5489E-02  0.1050E+03
   -0.524986   16.79016  0.0000E+00  0.1189E-04  0.6930E-07  0.5192E-03  0.4937E-02  0.2273E+02
   -0.562486   16.79087  0.0000E+00  0.1141E-04  0.6011E-07  0.5360E-03  0.4434E-02  0.8924E+02
   -0.599987   16.79155  0.0000E+00  0.1097E-04  0.5256E-07  0.5500E-03  0.3975E-02  0.6493E+01
   -0.637487   16.79219  0.0000E+00  0.1056E-04  0.4628E-07  0.5618E-03  0.3555E-02  0.4972E+01
   -0.674988   16.79282  0.0000E+00  0.1018E-04  0.4101E-07  0.5730E-03  0.3170E-02  0.3872E+01
   -0.712489   16.79343  0.0000E+00  0.9825E-05  0.3655E-07  0.5834E-03  0.2817E-02  0.3599E+01
   -0.749989   16.79402  0.0000E+00  0.9481E-05  0.3277E-07  0.5935E-03  0.2493E-02  0.3178E+01
   -0.787490   16.79460  0.0000E+00  0.9149E-05  0.2957E-07  0.6027E-03  0.2198E-02  0.2941E+01
   -0.824991   16.79517  0.0000E+00  0.8824E-05  0.2685E-07  0.6108E-03  0.1928E-02  0.2660E+01
   -0.862491   16.79573  0.0000E+00  0.8504E-05  0.2457E-07  0.6173E-03  0.1682E-02  0.2475E+01
   -0.899992   16.79628  0.0000E+00  0.8186E-05  0.2267E-07  0.6220E-03  0.1459E-02  0.2313E+01
   -0.937493   16.79683  0.0000E+00  0.7868E-05  0.2112E-07  0.6249E-03  0.1257E-02  0.2169E+01
   -0.974993   16.79737  0.0000E+00  0.7549E-05  0.1988E-07  0.6268E-03  0.1075E-02  0.2043E+01
   -1.012493   16.79792  0.0000E+00  0.7232E-05  0.1894E-07  0.6361E-03  0.9109E-03  0.1825E+01
   -1.049993   16.79845  0.0000E+00  0.6919E-05  0.1828E-07  0.6531E-03  0.7696E-03  0.1631E+01
   -1.087493   16.79898  0.0000E+00  0.6617E-05  0.1790E-07  0.6690E-03  0.6503E-03  0.1464E+01
   -1.124993   16.79949  0.0000E+00  0.6330E-05  0.1778E-07  0.6436E-03  0.5505E-03  0.1305E+01
   -1.162493   16.80002  0.0000E+00  0.6061E-05  0.1790E-07  0.5974E-03  0.4681E-03  0.1153E+01
   -1.199993   16.80059  0.0000E+00  0.5815E-05  0.1826E-07  0.5433E-03  0.4006E-03  0.1012E+01
   -1.237492   16.80122  0.0000E+00  0.5589E-05  0.1884E-07  0.4926E-03  0.3459E-03  0.9286E+00
   -1.274991   16.80191  0.0000E+00  0.5368E-05  0.1973E-07  0.4448E-03  0.3020E-03  0.1139E+01
   -1.312490   16.80269  0.0000E+00  0.5121E-05  0.2117E-07  0.3929E-03  0.2653E-03  0.1953E+01
   -1.349988   16.80356  0.0000E+00  0.4817E-05  0.2368E-07  0.3049E-03  0.2322E-03  0.8005E+01
   -1.387486   16.80472  0.0000E+00  0.4424E-05  0.2841E-07  0.2754E-03  0.1990E-03  0.1050E+02
   -1.424984   16.80599  0.0000E+00  0.3744E-05  0.4318E-07  0.1175E-03  0.1726E-03  0.2629E+03
   -1.462481   16.81180  0.0000E+00  0.2208E-05  0.1064E-06  0.3578E-04  0.1299E-03 -0.1344E+04
   -1.499979   16.82208  0.0000E+00  0.0000E+00  0.0000E+00  0.0000E+00  0.1406E-03  0.0000E+00
