 1 - depth, m
 2 - temperature, C
 3 - salinity, kg/kg
 4 - turbulent kinetic energy, m**2/s**2
 5 - dissipation rate, m**2/s**3
 6 - kinematic heat conductance, m**2/s
 7 - modulus of horizontal velocity, m/s
 8 - Richardson number, n/d
   -0.000000    0.00000  0.0000E+00  0.4096E-13  0.8590E-16  0.1000E-09  0.0000E+00  0.7366E+16
   -0.037494    0.11219  0.0000E+00  0.4096E-13  0.8590E-16  0.1000E-09  0.0000E+00  0.7168E+16
   -0.074988    0.22479  0.0000E+00  0.4096E-13  0.8590E-16  0.1000E-09  0.0000E+00  0.6960E+16
   -0.112483    0.33766  0.0000E+00  0.4096E-13  0.8590E-16  0.1000E-09  0.0000E+00  0.6741E+16
   -0.149978    0.45064  0.0000E+00  0.4096E-13  0.8590E-16  0.1000E-09  0.0000E+00  0.6513E+16
   -0.187473    0.56356  0.0000E+00  0.4096E-13  0.8590E-16  0.1000E-09  0.0000E+00  0.6278E+16
   -0.224969    0.67627  0.0000E+00  0.4096E-13  0.8590E-16  0.1000E-09  0.0000E+00  0.6038E+16
   -0.262465    0.78861  0.0000E+00  0.4096E-13  0.8590E-16  0.1000E-09  0.0000E+00  0.5789E+16
   -0.299961    0.90040  0.0000E+00  0.4096E-13  0.8590E-16  0.1000E-09  0.0000E+00  0.5539E+16
   -0.337457    1.01148  0.0000E+00  0.4096E-13  0.8590E-16  0.1000E-09  0.0000E+00  0.5288E+16
   -0.374954    1.12175  0.0000E+00  0.4096E-13  0.8590E-16  0.1000E-09  0.0000E+00  0.5047E+16
   -0.412451    1.23132  0.0000E+00  0.4096E-13  0.8590E-16  0.1000E-09  0.0000E+00  0.4813E+16
   -0.449947    1.34023  0.0000E+00  0.4096E-13  0.8590E-16  0.1000E-09  0.0000E+00  0.4580E+16
   -0.487444    1.44842  0.0000E+00  0.4096E-13  0.8590E-16  0.1000E-09  0.0000E+00  0.4349E+16
   -0.524942    1.55580  0.0000E+00  0.4096E-13  0.8590E-16  0.1000E-09  0.0000E+00  0.4119E+16
   -0.562439    1.66224  0.0000E+00  0.4096E-13  0.8590E-16  0.1000E-09  0.0000E+00  0.3891E+16
   -0.599936    1.76766  0.0000E+00  0.4096E-13  0.8590E-16  0.1000E-09  0.0000E+00  0.3666E+16
   -0.637434    1.87200  0.0000E+00  0.4096E-13  0.8590E-16  0.1000E-09  0.0000E+00  0.3446E+16
   -0.674931    1.97517  0.0000E+00  0.4096E-13  0.8590E-16  0.1000E-09  0.0000E+00  0.3230E+16
   -0.712429    2.07710  0.0000E+00  0.4096E-13  0.8590E-16  0.1000E-09  0.0000E+00  0.3018E+16
   -0.749926    2.17770  0.0000E+00  0.4096E-13  0.8590E-16  0.1000E-09  0.0000E+00  0.2825E+16
   -0.787424    2.27741  0.0000E+00  0.4096E-13  0.8590E-16  0.1000E-09  0.0000E+00  0.2641E+16
   -0.824921    2.37635  0.0000E+00  0.4096E-13  0.8590E-16  0.1000E-09  0.0000E+00  0.2460E+16
   -0.862419    2.47448  0.0000E+00  0.4096E-13  0.8590E-16  0.1000E-09  0.0000E+00  0.2282E+16
   -0.899916    2.57176  0.0000E+00  0.4096E-13  0.8590E-16  0.1000E-09  0.0000E+00  0.2108E+16
   -0.937414    2.66814  0.0000E+00  0.4096E-13  0.8590E-16  0.1000E-09  0.0000E+00  0.1938E+16
   -0.974911    2.76358  0.0000E+00  0.4096E-13  0.8590E-16  0.1000E-09  0.0000E+00  0.1772E+16
   -1.012408    2.85804  0.0000E+00  0.4096E-13  0.8590E-16  0.1000E-09  0.0000E+00  0.1608E+16
   -1.049905    2.95133  0.0000E+00  0.4096E-13  0.8590E-16  0.1000E-09  0.0000E+00  0.1448E+16
   -1.087402    3.04334  0.0000E+00  0.4096E-13  0.8590E-16  0.1000E-09  0.0000E+00  0.1293E+16
   -1.124899    3.13399  0.0000E+00  0.4096E-13  0.8590E-16  0.1000E-09  0.0000E+00  0.1158E+16
   -1.162395    3.22445  0.0000E+00  0.4096E-13  0.8590E-16  0.1000E-09  0.0000E+00  0.1028E+16
   -1.199892    3.31497  0.0000E+00  0.4096E-13  0.8590E-16  0.1000E-09  0.0000E+00  0.8977E+15
   -1.237388    3.40561  0.0000E+00  0.4096E-13  0.8590E-16  0.1000E-09  0.0000E+00  0.7687E+15
   -1.274884    3.49651  0.0000E+00  0.9077E-13  0.1283E-15  0.1000E-09  0.0000E+00  0.6418E+15
   -1.312379    3.58814  0.0000E+00  0.3942E-12  0.5181E-15  0.1000E-09  0.0000E+00  0.5134E+15
   -1.349875    3.68078  0.0000E+00  0.1740E-11  0.2249E-14  0.1000E-09  0.0000E+00  0.3824E+15
   -1.387370    3.77483  0.0000E+00  0.7646E-11  0.9821E-14  0.1046E-09  0.0000E+00  0.2466E+15
   -1.424864    3.87088  0.0000E+00  0.3351E-10  0.4349E-13  0.8503E-09  0.0000E+00  0.1022E+15
   -1.462359    3.96934  0.0000E+00  0.1441E-09  0.1994E-12  0.3960E-07  0.0000E+00 -0.2968E+14
   -1.499853    4.05023  0.0000E+00  0.0000E+00  0.0000E+00  0.0000E+00  0.0000E+00  0.0000E+00
