 1 - depth, m
 2 - temperature, C
 3 - salinity, kg/kg
 4 - turbulent kinetic energy, m**2/s**2
 5 - dissipation rate, m**2/s**3
 6 - kinematic heat conductance, m**2/s
 7 - modulus of horizontal velocity, m/s
 8 - Richardson number, n/d
   -0.000000    1.56279  0.0000E+00  0.1695E-02  0.2844E-01  0.1136E-03  0.6514E+00  0.1761E+16
   -0.037497    1.56284  0.0000E+00  0.9398E-03  0.1888E-01  0.2416E-03  0.2290E+00  0.1477E+16
   -0.074995    1.57046  0.0000E+00  0.5898E-03  0.3859E-02  0.3639E-03  0.1335E+00  0.1313E+16
   -0.112493    1.58527  0.0000E+00  0.4618E-03  0.2593E-02  0.3986E-03  0.9395E-01  0.1227E+16
   -0.149991    1.60271  0.0000E+00  0.3816E-03  0.2024E-02  0.4348E-03  0.7339E-01  0.1196E+16
   -0.187489    1.62154  0.0000E+00  0.3267E-03  0.1600E-02  0.4480E-03  0.6403E-01  0.1202E+16
   -0.224988    1.64130  0.0000E+00  0.2879E-03  0.1251E-02  0.4320E-03  0.5897E-01  0.1236E+16
   -0.262487    1.66235  0.0000E+00  0.2563E-03  0.9474E-03  0.4264E-03  0.5429E-01  0.1268E+16
   -0.299986    1.68464  0.0000E+00  0.2268E-03  0.6791E-03  0.4436E-03  0.4934E-01  0.1309E+16
   -0.337486    1.70853  0.0000E+00  0.2028E-03  0.4451E-03  0.4398E-03  0.4647E-01  0.1356E+16
   -0.374985    1.73502  0.0000E+00  0.1861E-03  0.3196E-03  0.4499E-03  0.4368E-01  0.1397E+16
   -0.412485    1.76236  0.0000E+00  0.1736E-03  0.2273E-03  0.4194E-03  0.4158E-01  0.1426E+16
   -0.449985    1.79086  0.0000E+00  0.1580E-03  0.1595E-03  0.4337E-03  0.3621E-01  0.1451E+16
   -0.487486    1.82082  0.0000E+00  0.1459E-03  0.1088E-03  0.3956E-03  0.3274E-01  0.1466E+16
   -0.524986    1.85225  0.0000E+00  0.1298E-03  0.7329E-04  0.4434E-03  0.2454E-01  0.1457E+16
   -0.562486    1.88487  0.0000E+00  0.1185E-03  0.5061E-04  0.4386E-03  0.2287E-01  0.1444E+16
   -0.599987    1.91852  0.0000E+00  0.1085E-03  0.3540E-04  0.4367E-03  0.2147E-01  0.1426E+16
   -0.637488    1.95316  0.0000E+00  0.1004E-03  0.2390E-04  0.4322E-03  0.2024E-01  0.1402E+16
   -0.674988    1.98866  0.0000E+00  0.9318E-04  0.1634E-04  0.4291E-03  0.1902E-01  0.1375E+16
   -0.712489    2.02505  0.0000E+00  0.8688E-04  0.1171E-04  0.4270E-03  0.1795E-01  0.1346E+16
   -0.749990    2.06237  0.0000E+00  0.8116E-04  0.8230E-05  0.4207E-03  0.1689E-01  0.1316E+16
   -0.787490    2.10024  0.0000E+00  0.7597E-04  0.5861E-05  0.4175E-03  0.1581E-01  0.1267E+16
   -0.824991    2.13869  0.0000E+00  0.7144E-04  0.4338E-05  0.4136E-03  0.1490E-01  0.1210E+16
   -0.862492    2.17775  0.0000E+00  0.6727E-04  0.3270E-05  0.4057E-03  0.1402E-01  0.1149E+16
   -0.899992    2.21734  0.0000E+00  0.6335E-04  0.2487E-05  0.4006E-03  0.1318E-01  0.1086E+16
   -0.937493    2.25752  0.0000E+00  0.5984E-04  0.1934E-05  0.3939E-03  0.1235E-01  0.1020E+16
   -0.974993    2.29828  0.0000E+00  0.5653E-04  0.1551E-05  0.3824E-03  0.1156E-01  0.9551E+15
   -1.012494    2.34002  0.0000E+00  0.5336E-04  0.1274E-05  0.3740E-03  0.1070E-01  0.8584E+15
   -1.049994    2.38100  0.0000E+00  0.5035E-04  0.1075E-05  0.3630E-03  0.9963E-02  0.7567E+15
   -1.087494    2.42085  0.0000E+00  0.4744E-04  0.9299E-06  0.3477E-03  0.9293E-02  0.6626E+15
   -1.124994    2.45973  0.0000E+00  0.4458E-04  0.8250E-06  0.3324E-03  0.8653E-02  0.6030E+15
   -1.162494    2.49939  0.0000E+00  0.4178E-04  0.7533E-06  0.3134E-03  0.8045E-02  0.5728E+15
   -1.199993    2.54189  0.0000E+00  0.3897E-04  0.7097E-06  0.2896E-03  0.7446E-02  0.4796E+15
   -1.237492    2.58536  0.0000E+00  0.3611E-04  0.6944E-06  0.2629E-03  0.6827E-02  0.4789E+15
   -1.274991    2.63678  0.0000E+00  0.3309E-04  0.7113E-06  0.2368E-03  0.6214E-02  0.3720E+15
   -1.312490    2.69316  0.0000E+00  0.2988E-04  0.7764E-06  0.2042E-03  0.5640E-02  0.2450E+15
   -1.349989    2.76465  0.0000E+00  0.2635E-04  0.9213E-06  0.1660E-03  0.5086E-02  0.8673E+14
   -1.387487    2.82127  0.0000E+00  0.2224E-04  0.1229E-05  0.1223E-03  0.4511E-02  0.5416E+14
   -1.424985    2.84221  0.0000E+00  0.1722E-04  0.1981E-05  0.7420E-04  0.3915E-02  0.1388E+14
   -1.462482    2.87220  0.0000E+00  0.1009E-04  0.4738E-05  0.1781E-04  0.3250E-02 -0.4191E+14
   -1.499979    3.00662  0.0000E+00  0.0000E+00  0.0000E+00  0.0000E+00  0.3694E-02  0.0000E+00
