 1 - depth, m
 2 - temperature, C
 3 - salinity, kg/kg
 4 - turbulent kinetic energy, m**2/s**2
 5 - dissipation rate, m**2/s**3
 6 - kinematic heat conductance, m**2/s
 7 - modulus of horizontal velocity, m/s
 8 - Richardson number, n/d
   -0.000000   13.87843  0.0000E+00  0.1152E-03  0.6869E-04  0.4161E-04  0.9090E-01 -0.4611E-01
   -0.037494   13.92073  0.0000E+00  0.6582E-04  0.1802E-04  0.8162E-04  0.3365E-01 -0.1692E+00
   -0.074988   13.92929  0.0000E+00  0.4861E-04  0.7680E-05  0.1005E-03  0.2430E-01 -0.4829E-01
   -0.112482   13.93481  0.0000E+00  0.3937E-04  0.3973E-05  0.1214E-03  0.2022E-01  0.1289E+02
   -0.149977   13.93845  0.0000E+00  0.3307E-04  0.2242E-05  0.1411E-03  0.1736E-01  0.7888E+01
   -0.187472   13.94123  0.0000E+00  0.2852E-04  0.1354E-05  0.1622E-03  0.1511E-01  0.1643E+01
   -0.224968   13.94355  0.0000E+00  0.2507E-04  0.8641E-06  0.1854E-03  0.1323E-01  0.2770E+02
   -0.262463   13.94557  0.0000E+00  0.2236E-04  0.5802E-06  0.2112E-03  0.1163E-01  0.3118E+01
   -0.299959   13.94734  0.0000E+00  0.2021E-04  0.4091E-06  0.2357E-03  0.1030E-01  0.1764E+01
   -0.337455   13.94892  0.0000E+00  0.1845E-04  0.3012E-06  0.2618E-03  0.9157E-02  0.2832E+01
   -0.374951   13.95034  0.0000E+00  0.1700E-04  0.2301E-06  0.2896E-03  0.8176E-02  0.4233E+01
   -0.412448   13.95162  0.0000E+00  0.1578E-04  0.1811E-06  0.3189E-03  0.7326E-02  0.9194E+01
   -0.449945   13.95279  0.0000E+00  0.1474E-04  0.1460E-06  0.3489E-03  0.6582E-02  0.5949E+01
   -0.487441   13.95386  0.0000E+00  0.1385E-04  0.1201E-06  0.3813E-03  0.5926E-02  0.4093E+01
   -0.524938   13.95484  0.0000E+00  0.1307E-04  0.1004E-06  0.4326E-03  0.5346E-02  0.1421E+02
   -0.562435   13.95570  0.0000E+00  0.1239E-04  0.8518E-07  0.5040E-03  0.4837E-02  0.6681E+02
   -0.599932   13.95643  0.0000E+00  0.1180E-04  0.7318E-07  0.5704E-03  0.4384E-02  0.6675E+02
   -0.637430   13.95706  0.0000E+00  0.1128E-04  0.6353E-07  0.6069E-03  0.3973E-02  0.8330E+02
   -0.674927   13.95762  0.0000E+00  0.1080E-04  0.5563E-07  0.6312E-03  0.3592E-02  0.6824E+01
   -0.712424   13.95816  0.0000E+00  0.1036E-04  0.4908E-07  0.6465E-03  0.3241E-02  0.5683E+01
   -0.749922   13.95868  0.0000E+00  0.9962E-05  0.4360E-07  0.6573E-03  0.2915E-02  0.6331E+01
   -0.787419   13.95920  0.0000E+00  0.9585E-05  0.3897E-07  0.6644E-03  0.2613E-02  0.3568E+01
   -0.824916   13.95972  0.0000E+00  0.9227E-05  0.3505E-07  0.6674E-03  0.2333E-02  0.2998E+01
   -0.862414   13.96025  0.0000E+00  0.8885E-05  0.3172E-07  0.6671E-03  0.2072E-02  0.2664E+01
   -0.899911   13.96079  0.0000E+00  0.8553E-05  0.2889E-07  0.6639E-03  0.1831E-02  0.2446E+01
   -0.937408   13.96134  0.0000E+00  0.8228E-05  0.2651E-07  0.6582E-03  0.1606E-02  0.2335E+01
   -0.974905   13.96191  0.0000E+00  0.7906E-05  0.2451E-07  0.6492E-03  0.1398E-02  0.2253E+01
   -1.012402   13.96250  0.0000E+00  0.7583E-05  0.2286E-07  0.6406E-03  0.1204E-02  0.2036E+01
   -1.049899   13.96311  0.0000E+00  0.7260E-05  0.2154E-07  0.6294E-03  0.1029E-02  0.1856E+01
   -1.087395   13.96375  0.0000E+00  0.6938E-05  0.2056E-07  0.6140E-03  0.8753E-03  0.1753E+01
   -1.124892   13.96441  0.0000E+00  0.6620E-05  0.1992E-07  0.5939E-03  0.7404E-03  0.1707E+01
   -1.162388   13.96511  0.0000E+00  0.6309E-05  0.1963E-07  0.5706E-03  0.6235E-03  0.1760E+01
   -1.199884   13.96585  0.0000E+00  0.6010E-05  0.1972E-07  0.5400E-03  0.5233E-03  0.1927E+01
   -1.237380   13.96665  0.0000E+00  0.5728E-05  0.2020E-07  0.4909E-03  0.4384E-03  0.2349E+01
   -1.274876   13.96756  0.0000E+00  0.5464E-05  0.2113E-07  0.4268E-03  0.3682E-03  0.3237E+01
   -1.312371   13.96864  0.0000E+00  0.5204E-05  0.2264E-07  0.3732E-03  0.3146E-03  0.5902E+01
   -1.349866   13.96990  0.0000E+00  0.4905E-05  0.2525E-07  0.2970E-03  0.2727E-03  0.1361E+02
   -1.387361   13.97157  0.0000E+00  0.4520E-05  0.3015E-07  0.2630E-03  0.2328E-03  0.3860E+02
   -1.424855   13.97352  0.0000E+00  0.3869E-05  0.4506E-07  0.1211E-03  0.2011E-03  0.2186E+04
   -1.462349   13.98132  0.0000E+00  0.2329E-05  0.1101E-06  0.3392E-04  0.1532E-03 -0.1034E+05
   -1.499843   13.99968  0.0000E+00  0.0000E+00  0.0000E+00  0.0000E+00  0.1646E-03  0.0000E+00
