 1 - depth, m
 2 - temperature, C
 3 - salinity, kg/kg
 4 - turbulent kinetic energy, m**2/s**2
 5 - dissipation rate, m**2/s**3
 6 - kinematic heat conductance, m**2/s
 7 - modulus of horizontal velocity, m/s
 8 - Richardson number, n/d
   -0.000000    0.00000  0.0000E+00  0.4096E-13  0.8590E-16  0.1000E-09  0.0000E+00  0.9468E+16
   -0.037501    0.14483  0.0000E+00  0.4096E-13  0.8590E-16  0.1000E-09  0.0000E+00  0.9041E+16
   -0.075002    0.28879  0.0000E+00  0.4096E-13  0.8590E-16  0.1000E-09  0.0000E+00  0.8615E+16
   -0.112503    0.43174  0.0000E+00  0.4096E-13  0.8590E-16  0.1000E-09  0.0000E+00  0.8192E+16
   -0.150005    0.57358  0.0000E+00  0.4096E-13  0.8590E-16  0.1000E-09  0.0000E+00  0.7773E+16
   -0.187507    0.71418  0.0000E+00  0.4096E-13  0.8590E-16  0.1000E-09  0.0000E+00  0.7360E+16
   -0.225010    0.85345  0.0000E+00  0.4096E-13  0.8590E-16  0.1000E-09  0.0000E+00  0.6953E+16
   -0.262512    0.99128  0.0000E+00  0.4096E-13  0.8590E-16  0.1000E-09  0.0000E+00  0.6548E+16
   -0.300015    1.12749  0.0000E+00  0.4096E-13  0.8590E-16  0.1000E-09  0.0000E+00  0.6152E+16
   -0.337518    1.26196  0.0000E+00  0.4096E-13  0.8590E-16  0.1000E-09  0.0000E+00  0.5764E+16
   -0.375022    1.39458  0.0000E+00  0.4096E-13  0.8590E-16  0.1000E-09  0.0000E+00  0.5404E+16
   -0.412525    1.52568  0.0000E+00  0.4096E-13  0.8590E-16  0.1000E-09  0.0000E+00  0.5061E+16
   -0.450029    1.65542  0.0000E+00  0.4096E-13  0.8590E-16  0.1000E-09  0.0000E+00  0.4726E+16
   -0.487533    1.78375  0.0000E+00  0.4096E-13  0.8590E-16  0.1000E-09  0.0000E+00  0.4399E+16
   -0.525037    1.91058  0.0000E+00  0.4096E-13  0.8590E-16  0.1000E-09  0.0000E+00  0.4078E+16
   -0.562541    2.03579  0.0000E+00  0.4096E-13  0.8590E-16  0.1000E-09  0.0000E+00  0.3766E+16
   -0.600045    2.15929  0.0000E+00  0.4096E-13  0.8590E-16  0.1000E-09  0.0000E+00  0.3464E+16
   -0.637549    2.28101  0.0000E+00  0.4096E-13  0.8590E-16  0.1000E-09  0.0000E+00  0.3172E+16
   -0.675054    2.40087  0.0000E+00  0.4096E-13  0.8590E-16  0.1000E-09  0.0000E+00  0.2889E+16
   -0.712558    2.51878  0.0000E+00  0.4096E-13  0.8590E-16  0.1000E-09  0.0000E+00  0.2617E+16
   -0.750062    2.63465  0.0000E+00  0.1350E-12  0.8590E-16  0.1000E-09  0.0000E+00  0.2368E+16
   -0.787567    2.74905  0.0000E+00  0.3948E-12  0.1411E-15  0.1000E-09  0.0000E+00  0.2132E+16
   -0.825071    2.86217  0.0000E+00  0.9293E-12  0.2876E-15  0.1000E-09  0.0000E+00  0.1902E+16
   -0.862575    2.97394  0.0000E+00  0.2025E-11  0.5960E-15  0.1000E-09  0.0000E+00  0.1680E+16
   -0.900080    3.08431  0.0000E+00  0.4285E-11  0.1224E-14  0.1000E-09  0.0000E+00  0.1466E+16
   -0.937584    3.19323  0.0000E+00  0.8940E-11  0.2493E-14  0.1000E-09  0.0000E+00  0.1259E+16
   -0.975088    3.30064  0.0000E+00  0.1848E-10  0.5035E-14  0.1000E-09  0.0000E+00  0.1060E+16
   -1.012592    3.40647  0.0000E+00  0.3799E-10  0.1012E-13  0.1000E-09  0.0000E+00  0.8677E+15
   -1.050096    3.51055  0.0000E+00  0.7780E-10  0.2026E-13  0.1000E-09  0.0000E+00  0.6844E+15
   -1.087599    3.61273  0.0000E+00  0.1584E-09  0.4036E-13  0.2192E-09  0.0000E+00  0.5098E+15
   -1.125103    3.71280  0.0000E+00  0.3207E-09  0.7994E-13  0.6335E-09  0.0000E+00  0.3491E+15
   -1.162606    3.81196  0.0000E+00  0.6447E-09  0.1574E-12  0.2257E-08  0.0000E+00  0.1924E+15
   -1.200109    3.90963  0.0000E+00  0.1278E-08  0.3060E-12  0.1838E-07  0.0000E+00  0.4520E+14
   -1.237612    3.99715  0.0000E+00  0.2052E-08  0.4922E-12  0.3098E-05  0.0000E+00 -0.8784E+12
   -1.275115    4.00149  0.0000E+00  0.2482E-08  0.6360E-12  0.3587E-05  0.0000E+00 -0.1015E+13
   -1.312617    4.00529  0.0000E+00  0.2802E-08  0.8031E-12  0.3584E-05  0.0000E+00 -0.1265E+13
   -1.350119    4.00915  0.0000E+00  0.3001E-08  0.1022E-11  0.3141E-05  0.0000E+00 -0.1760E+13
   -1.387621    4.01364  0.0000E+00  0.3035E-08  0.1357E-11  0.2296E-05  0.0000E+00 -0.2960E+13
   -1.425123    4.01985  0.0000E+00  0.2790E-08  0.2019E-11  0.1188E-05  0.0000E+00 -0.7334E+13
   -1.462624    4.03171  0.0000E+00  0.2082E-08  0.3980E-11  0.2652E-06  0.0000E+00 -0.4262E+14
   -1.500125    4.07296  0.0000E+00  0.0000E+00  0.0000E+00  0.0000E+00  0.0000E+00  0.0000E+00
