 1 - depth, m
 2 - temperature, C
 3 - salinity, kg/kg
 4 - turbulent kinetic energy, m**2/s**2
 5 - dissipation rate, m**2/s**3
 6 - kinematic heat conductance, m**2/s
 7 - modulus of horizontal velocity, m/s
 8 - Richardson number, n/d
   -0.000000    0.00000  0.0000E+00  0.4096E-13  0.8590E-16  0.1000E-09  0.0000E+00  0.9031E+16
   -0.037501    0.13803  0.0000E+00  0.4096E-13  0.8590E-16  0.1000E-09  0.0000E+00  0.8633E+16
   -0.075003    0.27510  0.0000E+00  0.4096E-13  0.8590E-16  0.1000E-09  0.0000E+00  0.8237E+16
   -0.112505    0.41110  0.0000E+00  0.4096E-13  0.8590E-16  0.1000E-09  0.0000E+00  0.7846E+16
   -0.150007    0.54595  0.0000E+00  0.4096E-13  0.8590E-16  0.1000E-09  0.0000E+00  0.7460E+16
   -0.187510    0.67957  0.0000E+00  0.4096E-13  0.8590E-16  0.1000E-09  0.0000E+00  0.7082E+16
   -0.225013    0.81192  0.0000E+00  0.4096E-13  0.8590E-16  0.1000E-09  0.0000E+00  0.6710E+16
   -0.262516    0.94292  0.0000E+00  0.4096E-13  0.8590E-16  0.1000E-09  0.0000E+00  0.6344E+16
   -0.300019    1.07247  0.0000E+00  0.4096E-13  0.8590E-16  0.1000E-09  0.0000E+00  0.5985E+16
   -0.337523    1.20049  0.0000E+00  0.4096E-13  0.8590E-16  0.1000E-09  0.0000E+00  0.5635E+16
   -0.375026    1.32691  0.0000E+00  0.4096E-13  0.8590E-16  0.1000E-09  0.0000E+00  0.5307E+16
   -0.412530    1.45202  0.0000E+00  0.4096E-13  0.8590E-16  0.1000E-09  0.0000E+00  0.4995E+16
   -0.450035    1.57594  0.0000E+00  0.4096E-13  0.8590E-16  0.1000E-09  0.0000E+00  0.4689E+16
   -0.487539    1.69863  0.0000E+00  0.4096E-13  0.8590E-16  0.1000E-09  0.0000E+00  0.4389E+16
   -0.525043    1.82003  0.0000E+00  0.4096E-13  0.8590E-16  0.1000E-09  0.0000E+00  0.4096E+16
   -0.562548    1.94003  0.0000E+00  0.4096E-13  0.8590E-16  0.1000E-09  0.0000E+00  0.3809E+16
   -0.600052    2.05856  0.0000E+00  0.4096E-13  0.8590E-16  0.1000E-09  0.0000E+00  0.3530E+16
   -0.637557    2.17555  0.0000E+00  0.4096E-13  0.8590E-16  0.1000E-09  0.0000E+00  0.3258E+16
   -0.675062    2.29091  0.0000E+00  0.4096E-13  0.8590E-16  0.1000E-09  0.0000E+00  0.2995E+16
   -0.712567    2.40457  0.0000E+00  0.4096E-13  0.8590E-16  0.1000E-09  0.0000E+00  0.2739E+16
   -0.750072    2.51642  0.0000E+00  0.4096E-13  0.8590E-16  0.1000E-09  0.0000E+00  0.2504E+16
   -0.787576    2.62688  0.0000E+00  0.4096E-13  0.8590E-16  0.1000E-09  0.0000E+00  0.2278E+16
   -0.825081    2.73605  0.0000E+00  0.4096E-13  0.8590E-16  0.1000E-09  0.0000E+00  0.2059E+16
   -0.862586    2.84386  0.0000E+00  0.4096E-13  0.8590E-16  0.1000E-09  0.0000E+00  0.1847E+16
   -0.900091    2.95024  0.0000E+00  0.1013E-12  0.8590E-16  0.1000E-09  0.0000E+00  0.1641E+16
   -0.937595    3.05510  0.0000E+00  0.3269E-12  0.1616E-15  0.1000E-09  0.0000E+00  0.1443E+16
   -0.975100    3.15837  0.0000E+00  0.8669E-12  0.3822E-15  0.1000E-09  0.0000E+00  0.1252E+16
   -1.012604    3.25995  0.0000E+00  0.2157E-11  0.9123E-15  0.1000E-09  0.0000E+00  0.1068E+16
   -1.050109    3.35962  0.0000E+00  0.5257E-11  0.2159E-14  0.1000E-09  0.0000E+00  0.8916E+15
   -1.087613    3.45721  0.0000E+00  0.1266E-10  0.5062E-14  0.1000E-09  0.0000E+00  0.7246E+15
   -1.125117    3.55255  0.0000E+00  0.3017E-10  0.1176E-13  0.1000E-09  0.0000E+00  0.5761E+15
   -1.162620    3.64713  0.0000E+00  0.7130E-10  0.2710E-13  0.1726E-09  0.0000E+00  0.4322E+15
   -1.200124    3.74113  0.0000E+00  0.1670E-09  0.6194E-13  0.5845E-09  0.0000E+00  0.2909E+15
   -1.237627    3.83434  0.0000E+00  0.3876E-09  0.1404E-12  0.2504E-08  0.0000E+00  0.1526E+15
   -1.275131    3.92591  0.0000E+00  0.8902E-09  0.3161E-12  0.2994E-07  0.0000E+00  0.2648E+14
   -1.312633    4.00283  0.0000E+00  0.1739E-08  0.6227E-12  0.1888E-05  0.0000E+00 -0.2028E+13
   -1.350136    4.00938  0.0000E+00  0.2192E-08  0.8842E-12  0.2042E-05  0.0000E+00 -0.2536E+13
   -1.387638    4.01557  0.0000E+00  0.2422E-08  0.1225E-11  0.1704E-05  0.0000E+00 -0.3877E+13
   -1.425140    4.02307  0.0000E+00  0.2352E-08  0.1818E-11  0.9829E-06  0.0000E+00 -0.8605E+13
   -1.462642    4.03581  0.0000E+00  0.1820E-08  0.3446E-11  0.2403E-06  0.0000E+00 -0.4284E+14
   -1.500143    4.07533  0.0000E+00  0.0000E+00  0.0000E+00  0.0000E+00  0.0000E+00  0.0000E+00
