 1 - depth, m
 2 - temperature, C
 3 - salinity, kg/kg
 4 - turbulent kinetic energy, m**2/s**2
 5 - dissipation rate, m**2/s**3
 6 - kinematic heat conductance, m**2/s
 7 - modulus of horizontal velocity, m/s
 8 - Richardson number, n/d
   -0.000000    2.59162  0.0000E+00  0.2892E-03  0.7941E-03  0.5453E-04  0.1632E+00 -0.6329E-02
   -0.037497    2.66808  0.0000E+00  0.1545E-03  0.3729E-03  0.1173E-03  0.5758E-01  0.9817E-02
   -0.074995    2.68694  0.0000E+00  0.1103E-03  0.2171E-03  0.1508E-03  0.4021E-01  0.8102E-02
   -0.112493    2.69870  0.0000E+00  0.8851E-04  0.1423E-03  0.1535E-03  0.3338E-01  0.1323E-01
   -0.149991    2.70693  0.0000E+00  0.7325E-04  0.9170E-04  0.1581E-03  0.2863E-01  0.1520E-01
   -0.187490    2.71364  0.0000E+00  0.6224E-04  0.5820E-04  0.1624E-03  0.2520E-01  0.2011E-01
   -0.224989    2.71967  0.0000E+00  0.5361E-04  0.3601E-04  0.1668E-03  0.2239E-01  0.2763E-01
   -0.262488    2.72544  0.0000E+00  0.4674E-04  0.2165E-04  0.1716E-03  0.1995E-01  0.4003E-01
   -0.299987    2.73119  0.0000E+00  0.4122E-04  0.1258E-04  0.1757E-03  0.1789E-01  0.6212E-01
   -0.337487    2.73724  0.0000E+00  0.3671E-04  0.7078E-05  0.1789E-03  0.1609E-01  0.1057E+00
   -0.374986    2.74438  0.0000E+00  0.3298E-04  0.3890E-05  0.1813E-03  0.1451E-01  0.2369E+00
   -0.412486    2.75755  0.0000E+00  0.2987E-04  0.2136E-05  0.1830E-03  0.1309E-01  0.7716E+00
   -0.449987    2.77858  0.0000E+00  0.2722E-04  0.1211E-05  0.1841E-03  0.1181E-01  0.3719E+01
   -0.487487    2.80327  0.0000E+00  0.2492E-04  0.7317E-06  0.1841E-03  0.1064E-01  0.2954E+02
   -0.524987    2.82878  0.0000E+00  0.2288E-04  0.4805E-06  0.1844E-03  0.9581E-02  0.3414E+03
   -0.562488    2.85346  0.0000E+00  0.2106E-04  0.3424E-06  0.1841E-03  0.8643E-02  0.4526E+04
   -0.599988    2.87754  0.0000E+00  0.1941E-04  0.2606E-06  0.1823E-03  0.7806E-02  0.6266E+05
   -0.637489    2.90233  0.0000E+00  0.1790E-04  0.2075E-06  0.1813E-03  0.7041E-02  0.8676E+06
   -0.674990    2.93431  0.0000E+00  0.1653E-04  0.1706E-06  0.1796E-03  0.6346E-02  0.1212E+08
   -0.712491    3.00373  0.0000E+00  0.1529E-04  0.1433E-06  0.1778E-03  0.5689E-02  0.2493E+09
   -0.749992    3.10349  0.0000E+00  0.1418E-04  0.1222E-06  0.1810E-03  0.5101E-02  0.1670E+11
   -0.787492    3.18757  0.0000E+00  0.1316E-04  0.1052E-06  0.1877E-03  0.4587E-02  0.8915E+12
   -0.824993    3.27291  0.0000E+00  0.1223E-04  0.9120E-07  0.1942E-03  0.4125E-02  0.1727E+14
   -0.862494    3.33399  0.0000E+00  0.1137E-04  0.7952E-07  0.2004E-03  0.3713E-02  0.3374E+13
   -0.899995    3.35375  0.0000E+00  0.1057E-04  0.6961E-07  0.1996E-03  0.3335E-02 -0.2282E+12
   -0.937495    3.37057  0.0000E+00  0.9818E-05  0.6114E-07  0.1968E-03  0.2984E-02 -0.2336E+12
   -0.974996    3.38823  0.0000E+00  0.9117E-05  0.5385E-07  0.1932E-03  0.2658E-02 -0.2398E+12
   -1.012496    3.40562  0.0000E+00  0.8457E-05  0.4752E-07  0.1897E-03  0.2352E-02 -0.2633E+12
   -1.049997    3.42025  0.0000E+00  0.7839E-05  0.4203E-07  0.1855E-03  0.2079E-02 -0.3149E+12
   -1.087497    3.43165  0.0000E+00  0.7257E-05  0.3727E-07  0.1803E-03  0.1835E-02 -0.3637E+12
   -1.124997    3.44258  0.0000E+00  0.6709E-05  0.3317E-07  0.1741E-03  0.1614E-02 -0.4074E+12
   -1.162496    3.45386  0.0000E+00  0.6193E-05  0.2964E-07  0.1669E-03  0.1412E-02 -0.4572E+12
   -1.199996    3.46531  0.0000E+00  0.5706E-05  0.2665E-07  0.1583E-03  0.1226E-02 -0.5272E+12
   -1.237495    3.47571  0.0000E+00  0.5244E-05  0.2416E-07  0.1483E-03  0.1055E-02 -0.6126E+12
   -1.274995    3.48588  0.0000E+00  0.4798E-05  0.2214E-07  0.1372E-03  0.8971E-03 -0.7371E+12
   -1.312493    3.49577  0.0000E+00  0.4360E-05  0.2065E-07  0.1234E-03  0.7592E-03 -0.8894E+12
   -1.349992    3.50538  0.0000E+00  0.3916E-05  0.1984E-07  0.1061E-03  0.6383E-03 -0.1060E+13
   -1.387490    3.51522  0.0000E+00  0.3441E-05  0.2014E-07  0.8388E-04  0.5321E-03 -0.1419E+13
   -1.424988    3.52622  0.0000E+00  0.2869E-05  0.2317E-07  0.4883E-04  0.4392E-03 -0.3430E+13
   -1.462486    3.54321  0.0000E+00  0.1499E-05  0.4864E-07  0.6876E-05  0.3610E-03 -0.4748E+14
   -1.499983    3.63101  0.0000E+00  0.0000E+00  0.0000E+00  0.0000E+00  0.3624E-03  0.0000E+00
