 1 - depth, m
 2 - temperature, C
 3 - salinity, kg/kg
 4 - turbulent kinetic energy, m**2/s**2
 5 - dissipation rate, m**2/s**3
 6 - kinematic heat conductance, m**2/s
 7 - modulus of horizontal velocity, m/s
 8 - Richardson number, n/d
   -0.000000    0.00000  0.0000E+00  0.4096E-13  0.8590E-16  0.1000E-09  0.0000E+00  0.8736E+16
   -0.037498    0.13344  0.0000E+00  0.4096E-13  0.8590E-16  0.1000E-09  0.0000E+00  0.8364E+16
   -0.074997    0.26599  0.0000E+00  0.4096E-13  0.8590E-16  0.1000E-09  0.0000E+00  0.7993E+16
   -0.112496    0.39752  0.0000E+00  0.4096E-13  0.8590E-16  0.1000E-09  0.0000E+00  0.7624E+16
   -0.149995    0.52794  0.0000E+00  0.4096E-13  0.8590E-16  0.1000E-09  0.0000E+00  0.7259E+16
   -0.187495    0.65714  0.0000E+00  0.4096E-13  0.8590E-16  0.1000E-09  0.0000E+00  0.6898E+16
   -0.224995    0.78502  0.0000E+00  0.4096E-13  0.8590E-16  0.1000E-09  0.0000E+00  0.6542E+16
   -0.262495    0.91148  0.0000E+00  0.4096E-13  0.8590E-16  0.1000E-09  0.0000E+00  0.6188E+16
   -0.299996    1.03636  0.0000E+00  0.4096E-13  0.8590E-16  0.1000E-09  0.0000E+00  0.5840E+16
   -0.337496    1.15953  0.0000E+00  0.4096E-13  0.8590E-16  0.1000E-09  0.0000E+00  0.5500E+16
   -0.374997    1.28091  0.0000E+00  0.4096E-13  0.8590E-16  0.1000E-09  0.0000E+00  0.5187E+16
   -0.412498    1.40084  0.0000E+00  0.4096E-13  0.8590E-16  0.1000E-09  0.0000E+00  0.4890E+16
   -0.450000    1.51948  0.0000E+00  0.4096E-13  0.8590E-16  0.1000E-09  0.0000E+00  0.4601E+16
   -0.487501    1.63679  0.0000E+00  0.4096E-13  0.8590E-16  0.1000E-09  0.0000E+00  0.4317E+16
   -0.525003    1.75271  0.0000E+00  0.4096E-13  0.8590E-16  0.1000E-09  0.0000E+00  0.4039E+16
   -0.562504    1.86712  0.0000E+00  0.4096E-13  0.8590E-16  0.1000E-09  0.0000E+00  0.3769E+16
   -0.600006    1.97996  0.0000E+00  0.4096E-13  0.8590E-16  0.1000E-09  0.0000E+00  0.3506E+16
   -0.637508    2.09117  0.0000E+00  0.4096E-13  0.8590E-16  0.1000E-09  0.0000E+00  0.3252E+16
   -0.675010    2.20068  0.0000E+00  0.4096E-13  0.8590E-16  0.1000E-09  0.0000E+00  0.3005E+16
   -0.712511    2.30843  0.0000E+00  0.4096E-13  0.8590E-16  0.1000E-09  0.0000E+00  0.2767E+16
   -0.750013    2.41433  0.0000E+00  0.4096E-13  0.8590E-16  0.1000E-09  0.0000E+00  0.2553E+16
   -0.787515    2.51900  0.0000E+00  0.4096E-13  0.8590E-16  0.1000E-09  0.0000E+00  0.2350E+16
   -0.825017    2.62262  0.0000E+00  0.4096E-13  0.8590E-16  0.1000E-09  0.0000E+00  0.2153E+16
   -0.862519    2.72517  0.0000E+00  0.4096E-13  0.8590E-16  0.1000E-09  0.0000E+00  0.1961E+16
   -0.900021    2.82660  0.0000E+00  0.4096E-13  0.8590E-16  0.1000E-09  0.0000E+00  0.1774E+16
   -0.937523    2.92687  0.0000E+00  0.4096E-13  0.8590E-16  0.1000E-09  0.0000E+00  0.1593E+16
   -0.975024    3.02593  0.0000E+00  0.4096E-13  0.8590E-16  0.1000E-09  0.0000E+00  0.1417E+16
   -1.012526    3.12373  0.0000E+00  0.4096E-13  0.8590E-16  0.1000E-09  0.0000E+00  0.1246E+16
   -1.050027    3.22017  0.0000E+00  0.1401E-12  0.1123E-15  0.1000E-09  0.0000E+00  0.1081E+16
   -1.087528    3.31512  0.0000E+00  0.4593E-12  0.3047E-15  0.1000E-09  0.0000E+00  0.9225E+15
   -1.125029    3.40849  0.0000E+00  0.1379E-11  0.8714E-15  0.1000E-09  0.0000E+00  0.7811E+15
   -1.162530    3.50156  0.0000E+00  0.4022E-11  0.2463E-14  0.1000E-09  0.0000E+00  0.6428E+15
   -1.200031    3.59454  0.0000E+00  0.1156E-10  0.6879E-14  0.1000E-09  0.0000E+00  0.5055E+15
   -1.237531    3.68749  0.0000E+00  0.3280E-10  0.1901E-13  0.1398E-09  0.0000E+00  0.3692E+15
   -1.275032    3.78051  0.0000E+00  0.9310E-10  0.5260E-13  0.6051E-09  0.0000E+00  0.2335E+15
   -1.312532    3.87401  0.0000E+00  0.2627E-09  0.1452E-12  0.3909E-08  0.0000E+00  0.9580E+14
   -1.350031    3.96644  0.0000E+00  0.7124E-09  0.3902E-12  0.1809E-06  0.0000E+00 -0.8844E+12
   -1.387531    4.00900  0.0000E+00  0.1473E-08  0.9955E-12  0.8067E-06  0.0000E+00 -0.7069E+13
   -1.425030    4.02396  0.0000E+00  0.1847E-08  0.1770E-11  0.6635E-06  0.0000E+00 -0.1370E+14
   -1.462528    4.04259  0.0000E+00  0.1711E-08  0.3458E-11  0.2330E-06  0.0000E+00 -0.5290E+14
   -1.500027    4.08595  0.0000E+00  0.0000E+00  0.0000E+00  0.0000E+00  0.0000E+00  0.0000E+00
