 1 - depth, m
 2 - temperature, C
 3 - salinity, kg/kg
 4 - turbulent kinetic energy, m**2/s**2
 5 - dissipation rate, m**2/s**3
 6 - kinematic heat conductance, m**2/s
 7 - modulus of horizontal velocity, m/s
 8 - Richardson number, n/d
   -0.000000    0.00000  0.0000E+00  0.4096E-13  0.8590E-16  0.1000E-09  0.0000E+00  0.8838E+16
   -0.037497    0.13502  0.0000E+00  0.4096E-13  0.8590E-16  0.1000E-09  0.0000E+00  0.8466E+16
   -0.074993    0.26926  0.0000E+00  0.4096E-13  0.8590E-16  0.1000E-09  0.0000E+00  0.8108E+16
   -0.112491    0.40285  0.0000E+00  0.4096E-13  0.8590E-16  0.1000E-09  0.0000E+00  0.7762E+16
   -0.149988    0.53588  0.0000E+00  0.4096E-13  0.8590E-16  0.1000E-09  0.0000E+00  0.7424E+16
   -0.187486    0.66841  0.0000E+00  0.4096E-13  0.8590E-16  0.1000E-09  0.0000E+00  0.7092E+16
   -0.224984    0.80047  0.0000E+00  0.4096E-13  0.8590E-16  0.1000E-09  0.0000E+00  0.6765E+16
   -0.262482    0.93205  0.0000E+00  0.4096E-13  0.8590E-16  0.1000E-09  0.0000E+00  0.6438E+16
   -0.299981    1.06304  0.0000E+00  0.4096E-13  0.8590E-16  0.1000E-09  0.0000E+00  0.6112E+16
   -0.337480    1.19339  0.0000E+00  0.4096E-13  0.8590E-16  0.1000E-09  0.0000E+00  0.5789E+16
   -0.374979    1.32301  0.0000E+00  0.4096E-13  0.8590E-16  0.1000E-09  0.0000E+00  0.5475E+16
   -0.412478    1.45196  0.0000E+00  0.4096E-13  0.8590E-16  0.1000E-09  0.0000E+00  0.5165E+16
   -0.449977    1.58023  0.0000E+00  0.4096E-13  0.8590E-16  0.1000E-09  0.0000E+00  0.4858E+16
   -0.487477    1.70772  0.0000E+00  0.4096E-13  0.8590E-16  0.1000E-09  0.0000E+00  0.4553E+16
   -0.524977    1.83433  0.0000E+00  0.4096E-13  0.8590E-16  0.1000E-09  0.0000E+00  0.4249E+16
   -0.562477    1.95988  0.0000E+00  0.4096E-13  0.8590E-16  0.1000E-09  0.0000E+00  0.3949E+16
   -0.599976    2.08425  0.0000E+00  0.4096E-13  0.8590E-16  0.1000E-09  0.0000E+00  0.3655E+16
   -0.637476    2.20734  0.0000E+00  0.4096E-13  0.8590E-16  0.1000E-09  0.0000E+00  0.3366E+16
   -0.674976    2.32902  0.0000E+00  0.4096E-13  0.8590E-16  0.1000E-09  0.0000E+00  0.3084E+16
   -0.712476    2.44918  0.0000E+00  0.4096E-13  0.8590E-16  0.1000E-09  0.0000E+00  0.2809E+16
   -0.749976    2.56768  0.0000E+00  0.4096E-13  0.8590E-16  0.1000E-09  0.0000E+00  0.2548E+16
   -0.787477    2.68471  0.0000E+00  0.4100E-13  0.8590E-16  0.1000E-09  0.0000E+00  0.2296E+16
   -0.824977    2.80026  0.0000E+00  0.1958E-12  0.9840E-16  0.1000E-09  0.0000E+00  0.2052E+16
   -0.862477    2.91420  0.0000E+00  0.5423E-12  0.2018E-15  0.1000E-09  0.0000E+00  0.1815E+16
   -0.899977    3.02640  0.0000E+00  0.1283E-11  0.4416E-15  0.1000E-09  0.0000E+00  0.1586E+16
   -0.937476    3.13673  0.0000E+00  0.2888E-11  0.9593E-15  0.1000E-09  0.0000E+00  0.1367E+16
   -0.974976    3.24505  0.0000E+00  0.6372E-11  0.2061E-14  0.1000E-09  0.0000E+00  0.1157E+16
   -1.012476    3.35120  0.0000E+00  0.1393E-10  0.4396E-14  0.1000E-09  0.0000E+00  0.9544E+15
   -1.049975    3.45467  0.0000E+00  0.3029E-10  0.9331E-14  0.1000E-09  0.0000E+00  0.7635E+15
   -1.087475    3.55515  0.0000E+00  0.6542E-10  0.1968E-13  0.1000E-09  0.0000E+00  0.5861E+15
   -1.124974    3.65236  0.0000E+00  0.1403E-09  0.4125E-13  0.2637E-09  0.0000E+00  0.4322E+15
   -1.162473    3.74842  0.0000E+00  0.2987E-09  0.8587E-13  0.8333E-09  0.0000E+00  0.2841E+15
   -1.199972    3.84337  0.0000E+00  0.6310E-09  0.1775E-12  0.3465E-08  0.0000E+00  0.1403E+15
   -1.237471    3.93586  0.0000E+00  0.1297E-08  0.3583E-12  0.5210E-07  0.0000E+00  0.1735E+14
   -1.274969    4.00457  0.0000E+00  0.2161E-08  0.6030E-12  0.3195E-05  0.0000E+00 -0.1262E+13
   -1.312467    4.00855  0.0000E+00  0.2584E-08  0.7780E-12  0.3370E-05  0.0000E+00 -0.1440E+13
   -1.349965    4.01235  0.0000E+00  0.2833E-08  0.9803E-12  0.3055E-05  0.0000E+00 -0.1860E+13
   -1.387462    4.01657  0.0000E+00  0.2879E-08  0.1267E-11  0.2283E-05  0.0000E+00 -0.2913E+13
   -1.424960    4.02219  0.0000E+00  0.2620E-08  0.1812E-11  0.1181E-05  0.0000E+00 -0.6745E+13
   -1.462456    4.03267  0.0000E+00  0.1879E-08  0.3432E-11  0.2419E-06  0.0000E+00 -0.3763E+14
   -1.499953    4.06973  0.0000E+00  0.0000E+00  0.0000E+00  0.0000E+00  0.0000E+00  0.0000E+00
