 1 - depth, m
 2 - temperature, C
 3 - salinity, kg/kg
 4 - turbulent kinetic energy, m**2/s**2
 5 - dissipation rate, m**2/s**3
 6 - kinematic heat conductance, m**2/s
 7 - modulus of horizontal velocity, m/s
 8 - Richardson number, n/d
   -0.000000   10.75994  0.0000E+00  0.5180E-03  0.2486E-02  0.8177E-04  0.2830E+00 -0.2544E-03
   -0.037496   10.81285  0.0000E+00  0.2718E-03  0.1257E-02  0.1423E-03  0.9795E-01 -0.9963E-02
   -0.074992   10.83086  0.0000E+00  0.1755E-03  0.3602E-03  0.2001E-03  0.6042E-01 -0.1543E-01
   -0.112488   10.83885  0.0000E+00  0.1397E-03  0.2242E-03  0.2178E-03  0.4714E-01 -0.1380E+00
   -0.149984   10.84292  0.0000E+00  0.1171E-03  0.1559E-03  0.2246E-03  0.3943E-01  0.1184E+01
   -0.187481   10.84570  0.0000E+00  0.1004E-03  0.1103E-03  0.2323E-03  0.3411E-01  0.2509E-02
   -0.224978   10.84789  0.0000E+00  0.8731E-04  0.7793E-04  0.2407E-03  0.2990E-01  0.1541E+00
   -0.262476   10.84979  0.0000E+00  0.7675E-04  0.5434E-04  0.2500E-03  0.2660E-01  0.2386E-01
   -0.299974   10.85125  0.0000E+00  0.6824E-04  0.3795E-04  0.2601E-03  0.2382E-01  0.2253E+00
   -0.337471   10.85278  0.0000E+00  0.6141E-04  0.2666E-04  0.2703E-03  0.2152E-01 -0.1536E-01
   -0.374970   10.85403  0.0000E+00  0.5582E-04  0.1871E-04  0.2802E-03  0.1951E-01  0.3407E-01
   -0.412468   10.85521  0.0000E+00  0.5115E-04  0.1306E-04  0.2928E-03  0.1774E-01  0.5432E-02
   -0.449966   10.85650  0.0000E+00  0.4723E-04  0.9045E-05  0.3029E-03  0.1618E-01  0.1881E+00
   -0.487465   10.85748  0.0000E+00  0.4385E-04  0.6232E-05  0.3138E-03  0.1478E-01  0.6485E+02
   -0.524964   10.85858  0.0000E+00  0.4086E-04  0.4263E-05  0.3265E-03  0.1348E-01  0.4222E+00
   -0.562463   10.85960  0.0000E+00  0.3820E-04  0.2901E-05  0.3395E-03  0.1236E-01  0.1656E+00
   -0.599962   10.86047  0.0000E+00  0.3583E-04  0.1975E-05  0.3542E-03  0.1136E-01  0.2331E+01
   -0.637461   10.86135  0.0000E+00  0.3371E-04  0.1353E-05  0.3824E-03  0.1046E-01  0.1359E+03
   -0.674960   10.86218  0.0000E+00  0.3179E-04  0.9420E-06  0.4144E-03  0.9640E-02  0.2370E+02
   -0.712459   10.86293  0.0000E+00  0.3003E-04  0.6720E-06  0.4395E-03  0.8888E-02  0.4120E+01
   -0.749958   10.86362  0.0000E+00  0.2840E-04  0.4954E-06  0.4637E-03  0.8199E-02  0.1782E+02
   -0.787457   10.86427  0.0000E+00  0.2688E-04  0.3789E-06  0.4843E-03  0.7559E-02  0.8844E+01
   -0.824956   10.86490  0.0000E+00  0.2547E-04  0.3009E-06  0.5080E-03  0.6965E-02  0.5531E+02
   -0.862455   10.86548  0.0000E+00  0.2414E-04  0.2475E-06  0.5239E-03  0.6410E-02  0.2459E+02
   -0.899954   10.86604  0.0000E+00  0.2290E-04  0.2096E-06  0.5360E-03  0.5892E-02  0.1228E+03
   -0.937453   10.86659  0.0000E+00  0.2171E-04  0.1816E-06  0.5483E-03  0.5403E-02  0.1727E+02
   -0.974952   10.86712  0.0000E+00  0.2058E-04  0.1601E-06  0.5589E-03  0.4941E-02  0.1262E+02
   -1.012451   10.86765  0.0000E+00  0.1949E-04  0.1430E-06  0.5645E-03  0.4499E-02  0.1657E+02
   -1.049949   10.86816  0.0000E+00  0.1843E-04  0.1291E-06  0.5682E-03  0.4090E-02  0.8373E+01
   -1.087448   10.86867  0.0000E+00  0.1740E-04  0.1176E-06  0.5678E-03  0.3711E-02  0.1357E+02
   -1.124946   10.86918  0.0000E+00  0.1639E-04  0.1081E-06  0.5600E-03  0.3358E-02  0.7636E+02
   -1.162444   10.86970  0.0000E+00  0.1541E-04  0.1003E-06  0.5480E-03  0.3029E-02  0.2273E+01
   -1.199942   10.87022  0.0000E+00  0.1443E-04  0.9424E-07  0.5246E-03  0.2719E-02  0.4299E+01
   -1.237440   10.87077  0.0000E+00  0.1347E-04  0.9006E-07  0.4881E-03  0.2427E-02  0.2278E+01
   -1.274937   10.87135  0.0000E+00  0.1250E-04  0.8816E-07  0.4418E-03  0.2152E-02  0.3699E+02
   -1.312435   10.87200  0.0000E+00  0.1149E-04  0.8967E-07  0.3899E-03  0.1903E-02  0.2988E+02
   -1.349931   10.87274  0.0000E+00  0.1040E-04  0.9725E-07  0.3196E-03  0.1679E-02 -0.1462E+03
   -1.387428   10.87366  0.0000E+00  0.9135E-05  0.1173E-06  0.2459E-03  0.1468E-02  0.3445E+02
   -1.424924   10.87485  0.0000E+00  0.7494E-05  0.1716E-06  0.1504E-03  0.1264E-02  0.5637E+02
   -1.462420   10.87707  0.0000E+00  0.4215E-05  0.3929E-06  0.2341E-04  0.1055E-02 -0.9366E+05
   -1.499916   10.89298  0.0000E+00  0.0000E+00  0.0000E+00  0.0000E+00  0.1133E-02  0.0000E+00
