 1 - depth, m
 2 - temperature, C
 3 - salinity, kg/kg
 4 - turbulent kinetic energy, m**2/s**2
 5 - dissipation rate, m**2/s**3
 6 - kinematic heat conductance, m**2/s
 7 - modulus of horizontal velocity, m/s
 8 - Richardson number, n/d
   -0.000000    0.00000  0.0000E+00  0.4096E-13  0.8590E-16  0.1000E-09  0.0000E+00  0.1024E+17
   -0.037499    0.15697  0.0000E+00  0.4096E-13  0.8590E-16  0.1000E-09  0.0000E+00  0.9638E+16
   -0.074998    0.31119  0.0000E+00  0.4096E-13  0.8590E-16  0.1000E-09  0.0000E+00  0.9056E+16
   -0.112497    0.46264  0.0000E+00  0.4096E-13  0.8590E-16  0.1000E-09  0.0000E+00  0.8498E+16
   -0.149997    0.61133  0.0000E+00  0.4096E-13  0.8590E-16  0.1000E-09  0.0000E+00  0.7965E+16
   -0.187497    0.75725  0.0000E+00  0.4096E-13  0.8590E-16  0.1000E-09  0.0000E+00  0.7454E+16
   -0.224998    0.90043  0.0000E+00  0.4096E-13  0.8590E-16  0.1000E-09  0.0000E+00  0.6967E+16
   -0.262498    1.04087  0.0000E+00  0.4096E-13  0.8590E-16  0.1000E-09  0.0000E+00  0.6490E+16
   -0.299999    1.17833  0.0000E+00  0.4096E-13  0.8590E-16  0.1000E-09  0.0000E+00  0.6033E+16
   -0.337500    1.31275  0.0000E+00  0.4096E-13  0.8590E-16  0.1000E-09  0.0000E+00  0.5596E+16
   -0.375002    1.44410  0.0000E+00  0.4096E-13  0.8590E-16  0.1000E-09  0.0000E+00  0.5216E+16
   -0.412503    1.57322  0.0000E+00  0.4096E-13  0.8590E-16  0.1000E-09  0.0000E+00  0.4870E+16
   -0.450005    1.70064  0.0000E+00  0.4096E-13  0.8590E-16  0.1000E-09  0.0000E+00  0.4537E+16
   -0.487507    1.82638  0.0000E+00  0.4096E-13  0.8590E-16  0.1000E-09  0.0000E+00  0.4215E+16
   -0.525009    1.95038  0.0000E+00  0.4096E-13  0.8590E-16  0.1000E-09  0.0000E+00  0.3899E+16
   -0.562511    2.07248  0.0000E+00  0.4096E-13  0.8590E-16  0.1000E-09  0.0000E+00  0.3595E+16
   -0.600013    2.19265  0.0000E+00  0.4096E-13  0.8590E-16  0.1000E-09  0.0000E+00  0.3303E+16
   -0.637515    2.31088  0.0000E+00  0.4096E-13  0.8590E-16  0.1000E-09  0.0000E+00  0.3023E+16
   -0.675017    2.42714  0.0000E+00  0.1312E-12  0.8590E-16  0.1000E-09  0.0000E+00  0.2754E+16
   -0.712520    2.54144  0.0000E+00  0.3880E-12  0.1358E-15  0.1000E-09  0.0000E+00  0.2498E+16
   -0.750022    2.65374  0.0000E+00  0.9112E-12  0.2722E-15  0.1000E-09  0.0000E+00  0.2282E+16
   -0.787524    2.76554  0.0000E+00  0.1969E-11  0.5575E-15  0.1000E-09  0.0000E+00  0.2080E+16
   -0.825027    2.87744  0.0000E+00  0.4124E-11  0.1133E-14  0.1000E-09  0.0000E+00  0.1879E+16
   -0.862529    2.98950  0.0000E+00  0.8510E-11  0.2282E-14  0.1000E-09  0.0000E+00  0.1680E+16
   -0.900031    3.10180  0.0000E+00  0.1740E-10  0.4561E-14  0.1000E-09  0.0000E+00  0.1481E+16
   -0.937533    3.21444  0.0000E+00  0.3531E-10  0.9052E-14  0.1000E-09  0.0000E+00  0.1281E+16
   -0.975035    3.32748  0.0000E+00  0.7116E-10  0.1785E-13  0.1000E-09  0.0000E+00  0.1081E+16
   -1.012537    3.44100  0.0000E+00  0.1428E-09  0.3504E-13  0.1109E-09  0.0000E+00  0.8793E+15
   -1.050039    3.55508  0.0000E+00  0.2855E-09  0.6860E-13  0.2817E-09  0.0000E+00  0.6752E+15
   -1.087541    3.66966  0.0000E+00  0.5681E-09  0.1337E-12  0.7908E-09  0.0000E+00  0.4684E+15
   -1.125042    3.78455  0.0000E+00  0.1123E-08  0.2589E-12  0.2756E-08  0.0000E+00  0.2602E+15
   -1.162544    3.89929  0.0000E+00  0.2185E-08  0.4942E-12  0.2362E-07  0.0000E+00  0.5777E+14
   -1.200045    4.00098  0.0000E+00  0.3190E-08  0.7252E-12  0.5229E-05  0.0000E+00 -0.7993E+12
   -1.237546    4.00414  0.0000E+00  0.3691E-08  0.8801E-12  0.5757E-05  0.0000E+00 -0.8808E+12
   -1.275046    4.00707  0.0000E+00  0.4081E-08  0.1056E-11  0.5808E-05  0.0000E+00 -0.1032E+13
   -1.312547    4.01004  0.0000E+00  0.4363E-08  0.1274E-11  0.5389E-05  0.0000E+00 -0.1303E+13
   -1.350047    4.01332  0.0000E+00  0.4512E-08  0.1578E-11  0.4507E-05  0.0000E+00 -0.1838E+13
   -1.387546    4.01737  0.0000E+00  0.4466E-08  0.2069E-11  0.3191E-05  0.0000E+00 -0.3138E+13
   -1.425046    4.02326  0.0000E+00  0.4065E-08  0.3092E-11  0.1610E-05  0.0000E+00 -0.7985E+13
   -1.462545    4.03515  0.0000E+00  0.3026E-08  0.6342E-11  0.3519E-06  0.0000E+00 -0.5132E+14
   -1.500044    4.08089  0.0000E+00  0.0000E+00  0.0000E+00  0.0000E+00  0.0000E+00  0.0000E+00
