 1 - depth, m
 2 - temperature, C
 3 - salinity, kg/kg
 4 - turbulent kinetic energy, m**2/s**2
 5 - dissipation rate, m**2/s**3
 6 - kinematic heat conductance, m**2/s
 7 - modulus of horizontal velocity, m/s
 8 - Richardson number, n/d
   -0.000000    0.00000  0.0000E+00  0.4096E-13  0.8590E-16  0.1000E-09  0.0000E+00  0.7436E+16
   -0.037498    0.11327  0.0000E+00  0.4096E-13  0.8590E-16  0.1000E-09  0.0000E+00  0.7195E+16
   -0.074997    0.22634  0.0000E+00  0.4096E-13  0.8590E-16  0.1000E-09  0.0000E+00  0.6953E+16
   -0.112496    0.33916  0.0000E+00  0.4096E-13  0.8590E-16  0.1000E-09  0.0000E+00  0.6710E+16
   -0.149995    0.45166  0.0000E+00  0.4096E-13  0.8590E-16  0.1000E-09  0.0000E+00  0.6467E+16
   -0.187495    0.56379  0.0000E+00  0.4096E-13  0.8590E-16  0.1000E-09  0.0000E+00  0.6223E+16
   -0.224995    0.67550  0.0000E+00  0.4096E-13  0.8590E-16  0.1000E-09  0.0000E+00  0.5981E+16
   -0.262495    0.78674  0.0000E+00  0.4096E-13  0.8590E-16  0.1000E-09  0.0000E+00  0.5736E+16
   -0.299995    0.89740  0.0000E+00  0.4096E-13  0.8590E-16  0.1000E-09  0.0000E+00  0.5493E+16
   -0.337496    1.00744  0.0000E+00  0.4096E-13  0.8590E-16  0.1000E-09  0.0000E+00  0.5252E+16
   -0.374997    1.11680  0.0000E+00  0.4096E-13  0.8590E-16  0.1000E-09  0.0000E+00  0.5021E+16
   -0.412498    1.22558  0.0000E+00  0.4096E-13  0.8590E-16  0.1000E-09  0.0000E+00  0.4795E+16
   -0.449999    1.33384  0.0000E+00  0.4096E-13  0.8590E-16  0.1000E-09  0.0000E+00  0.4572E+16
   -0.487500    1.44153  0.0000E+00  0.4096E-13  0.8590E-16  0.1000E-09  0.0000E+00  0.4350E+16
   -0.525001    1.54860  0.0000E+00  0.4096E-13  0.8590E-16  0.1000E-09  0.0000E+00  0.4128E+16
   -0.562503    1.65495  0.0000E+00  0.4096E-13  0.8590E-16  0.1000E-09  0.0000E+00  0.3909E+16
   -0.600005    1.76054  0.0000E+00  0.4096E-13  0.8590E-16  0.1000E-09  0.0000E+00  0.3693E+16
   -0.637506    1.86529  0.0000E+00  0.4096E-13  0.8590E-16  0.1000E-09  0.0000E+00  0.3480E+16
   -0.675008    1.96915  0.0000E+00  0.4096E-13  0.8590E-16  0.1000E-09  0.0000E+00  0.3270E+16
   -0.712510    2.07206  0.0000E+00  0.4096E-13  0.8590E-16  0.1000E-09  0.0000E+00  0.3064E+16
   -0.750012    2.17394  0.0000E+00  0.4096E-13  0.8590E-16  0.1000E-09  0.0000E+00  0.2870E+16
   -0.787514    2.27504  0.0000E+00  0.4096E-13  0.8590E-16  0.1000E-09  0.0000E+00  0.2682E+16
   -0.825016    2.37543  0.0000E+00  0.4096E-13  0.8590E-16  0.1000E-09  0.0000E+00  0.2498E+16
   -0.862517    2.47505  0.0000E+00  0.4096E-13  0.8590E-16  0.1000E-09  0.0000E+00  0.2316E+16
   -0.900019    2.57384  0.0000E+00  0.4096E-13  0.8590E-16  0.1000E-09  0.0000E+00  0.2137E+16
   -0.937521    2.67176  0.0000E+00  0.4096E-13  0.8590E-16  0.1000E-09  0.0000E+00  0.1962E+16
   -0.975022    2.76873  0.0000E+00  0.4096E-13  0.8590E-16  0.1000E-09  0.0000E+00  0.1791E+16
   -1.012524    2.86469  0.0000E+00  0.4096E-13  0.8590E-16  0.1000E-09  0.0000E+00  0.1622E+16
   -1.050025    2.95946  0.0000E+00  0.4096E-13  0.8590E-16  0.1000E-09  0.0000E+00  0.1457E+16
   -1.087526    3.05292  0.0000E+00  0.4096E-13  0.8590E-16  0.1000E-09  0.0000E+00  0.1297E+16
   -1.125027    3.14493  0.0000E+00  0.4096E-13  0.8590E-16  0.1000E-09  0.0000E+00  0.1155E+16
   -1.162528    3.23648  0.0000E+00  0.4096E-13  0.8590E-16  0.1000E-09  0.0000E+00  0.1018E+16
   -1.200029    3.32770  0.0000E+00  0.4096E-13  0.8590E-16  0.1000E-09  0.0000E+00  0.8815E+15
   -1.237529    3.41859  0.0000E+00  0.4096E-13  0.8590E-16  0.1000E-09  0.0000E+00  0.7474E+15
   -1.275029    3.50916  0.0000E+00  0.5113E-13  0.8631E-16  0.1000E-09  0.0000E+00  0.6162E+15
   -1.312529    3.59962  0.0000E+00  0.2208E-12  0.2524E-15  0.1000E-09  0.0000E+00  0.4862E+15
   -1.350029    3.69001  0.0000E+00  0.9037E-12  0.9855E-15  0.1000E-09  0.0000E+00  0.3570E+15
   -1.387528    3.78041  0.0000E+00  0.3614E-11  0.3882E-14  0.1000E-09  0.0000E+00  0.2284E+15
   -1.425027    3.87097  0.0000E+00  0.1438E-10  0.1542E-13  0.3376E-09  0.0000E+00  0.9958E+14
   -1.462525    3.96174  0.0000E+00  0.5652E-10  0.6292E-13  0.2030E-07  0.0000E+00 -0.1949E+14
   -1.500024    4.04196  0.0000E+00  0.0000E+00  0.0000E+00  0.0000E+00  0.0000E+00  0.0000E+00
