 1 - depth, m
 2 - temperature, C
 3 - salinity, kg/kg
 4 - turbulent kinetic energy, m**2/s**2
 5 - dissipation rate, m**2/s**3
 6 - kinematic heat conductance, m**2/s
 7 - modulus of horizontal velocity, m/s
 8 - Richardson number, n/d
   -0.000000    0.00000  0.0000E+00  0.4096E-13  0.8590E-16  0.1000E-09  0.0000E+00  0.1160E+17
   -0.037501    0.17824  0.0000E+00  0.4096E-13  0.8590E-16  0.1000E-09  0.0000E+00  0.1093E+17
   -0.075003    0.35476  0.0000E+00  0.4096E-13  0.8590E-16  0.1000E-09  0.0000E+00  0.1028E+17
   -0.112505    0.52957  0.0000E+00  0.4096E-13  0.8590E-16  0.1000E-09  0.0000E+00  0.9653E+16
   -0.150008    0.70266  0.0000E+00  0.4096E-13  0.8590E-16  0.1000E-09  0.0000E+00  0.9042E+16
   -0.187510    0.87402  0.0000E+00  0.8615E-13  0.8590E-16  0.1000E-09  0.0000E+00  0.8449E+16
   -0.225013    1.04365  0.0000E+00  0.2949E-12  0.8590E-16  0.1000E-09  0.0000E+00  0.7874E+16
   -0.262517    1.21151  0.0000E+00  0.6692E-12  0.1290E-15  0.1000E-09  0.0000E+00  0.7308E+16
   -0.300020    1.37744  0.0000E+00  0.1294E-11  0.2167E-15  0.1000E-09  0.0000E+00  0.6759E+16
   -0.337524    1.54136  0.0000E+00  0.2340E-11  0.3701E-15  0.1000E-09  0.0000E+00  0.6227E+16
   -0.375028    1.70323  0.0000E+00  0.4105E-11  0.6295E-15  0.1000E-09  0.0000E+00  0.5740E+16
   -0.412532    1.86379  0.0000E+00  0.7094E-11  0.1064E-14  0.1000E-09  0.0000E+00  0.5281E+16
   -0.450036    2.02352  0.0000E+00  0.1215E-10  0.1789E-14  0.1000E-09  0.0000E+00  0.4831E+16
   -0.487540    2.18238  0.0000E+00  0.2070E-10  0.2992E-14  0.1000E-09  0.0000E+00  0.4388E+16
   -0.525045    2.34035  0.0000E+00  0.3510E-10  0.4988E-14  0.1000E-09  0.0000E+00  0.3952E+16
   -0.562550    2.49731  0.0000E+00  0.5931E-10  0.8285E-14  0.1000E-09  0.0000E+00  0.3525E+16
   -0.600054    2.65323  0.0000E+00  0.9983E-10  0.1371E-13  0.1000E-09  0.0000E+00  0.3107E+16
   -0.637559    2.80804  0.0000E+00  0.1674E-09  0.2261E-13  0.1000E-09  0.0000E+00  0.2698E+16
   -0.675064    2.96168  0.0000E+00  0.2796E-09  0.3714E-13  0.1000E-09  0.0000E+00  0.2299E+16
   -0.712569    3.11408  0.0000E+00  0.4654E-09  0.6080E-13  0.1000E-09  0.0000E+00  0.1909E+16
   -0.750074    3.26516  0.0000E+00  0.7717E-09  0.9918E-13  0.1789E-09  0.0000E+00  0.1539E+16
   -0.787579    3.41573  0.0000E+00  0.1275E-08  0.1612E-12  0.3807E-09  0.0000E+00  0.1175E+16
   -0.825084    3.56596  0.0000E+00  0.2098E-08  0.2611E-12  0.8902E-09  0.0000E+00  0.8140E+15
   -0.862589    3.71549  0.0000E+00  0.3439E-08  0.4212E-12  0.2557E-08  0.0000E+00  0.4570E+15
   -0.900094    3.86309  0.0000E+00  0.5581E-08  0.6736E-12  0.1581E-07  0.0000E+00  0.1180E+15
   -0.937598    3.99797  0.0000E+00  0.6250E-08  0.7579E-12  0.1840E-04  0.0000E+00 -0.2173E+12
   -0.975103    3.99911  0.0000E+00  0.6574E-08  0.8066E-12  0.1971E-04  0.0000E+00 -0.2229E+12
   -1.012608    4.00017  0.0000E+00  0.6856E-08  0.8577E-12  0.2077E-04  0.0000E+00 -0.2292E+12
   -1.050112    4.00119  0.0000E+00  0.7100E-08  0.9119E-12  0.2129E-04  0.0000E+00 -0.2405E+12
   -1.087616    4.00219  0.0000E+00  0.7309E-08  0.9706E-12  0.2130E-04  0.0000E+00 -0.2574E+12
   -1.125120    4.00319  0.0000E+00  0.7483E-08  0.1036E-11  0.2083E-04  0.0000E+00 -0.2803E+12
   -1.162624    4.00422  0.0000E+00  0.7623E-08  0.1112E-11  0.1990E-04  0.0000E+00 -0.3122E+12
   -1.200128    4.00530  0.0000E+00  0.7723E-08  0.1202E-11  0.1834E-04  0.0000E+00 -0.3602E+12
   -1.237632    4.00648  0.0000E+00  0.7773E-08  0.1312E-11  0.1648E-04  0.0000E+00 -0.4278E+12
   -1.275135    4.00779  0.0000E+00  0.7757E-08  0.1454E-11  0.1440E-04  0.0000E+00 -0.5258E+12
   -1.312638    4.00930  0.0000E+00  0.7652E-08  0.1650E-11  0.1196E-04  0.0000E+00 -0.6856E+12
   -1.350141    4.01113  0.0000E+00  0.7410E-08  0.1946E-11  0.9079E-05  0.0000E+00 -0.9914E+12
   -1.387643    4.01356  0.0000E+00  0.6929E-08  0.2465E-11  0.5835E-05  0.0000E+00 -0.1739E+13
   -1.425145    4.01737  0.0000E+00  0.5951E-08  0.3647E-11  0.2580E-05  0.0000E+00 -0.4729E+13
   -1.462647    4.02591  0.0000E+00  0.3913E-08  0.7967E-11  0.4102E-06  0.0000E+00 -0.4186E+14
   -1.500148    4.06948  0.0000E+00  0.0000E+00  0.0000E+00  0.0000E+00  0.0000E+00  0.0000E+00
