 1 - depth, m
 2 - temperature, C
 3 - salinity, kg/kg
 4 - turbulent kinetic energy, m**2/s**2
 5 - dissipation rate, m**2/s**3
 6 - kinematic heat conductance, m**2/s
 7 - modulus of horizontal velocity, m/s
 8 - Richardson number, n/d
   -0.000000   12.07547  0.0000E+00  0.1052E-03  0.4087E-04  0.4780E-04  0.9571E-01 -0.2945E-01
   -0.037497   12.13178  0.0000E+00  0.6237E-04  0.1095E-04  0.8424E-04  0.3604E-01 -0.1480E-01
   -0.074994   12.14125  0.0000E+00  0.4719E-04  0.4773E-05  0.9568E-04  0.2702E-01 -0.1998E-01
   -0.112491   12.14799  0.0000E+00  0.3886E-04  0.2598E-05  0.1071E-03  0.2265E-01 -0.2710E-01
   -0.149989   12.15319  0.0000E+00  0.3303E-04  0.1498E-05  0.1198E-03  0.1945E-01 -0.3384E-01
   -0.187487   12.15749  0.0000E+00  0.2876E-04  0.9373E-06  0.1330E-03  0.1689E-01 -0.4175E-01
   -0.224985   12.16120  0.0000E+00  0.2549E-04  0.6290E-06  0.1461E-03  0.1477E-01 -0.5041E-01
   -0.262483   12.16447  0.0000E+00  0.2287E-04  0.4447E-06  0.1600E-03  0.1297E-01 -0.6280E-01
   -0.299982   12.16737  0.0000E+00  0.2073E-04  0.3278E-06  0.1744E-03  0.1146E-01 -0.7800E-01
   -0.337481   12.16996  0.0000E+00  0.1894E-04  0.2501E-06  0.1901E-03  0.1018E-01 -0.8080E-01
   -0.374980   12.17228  0.0000E+00  0.1744E-04  0.1962E-06  0.2147E-03  0.9079E-02  0.2636E+02
   -0.412479   12.17434  0.0000E+00  0.1617E-04  0.1577E-06  0.2776E-03  0.8131E-02  0.7564E+02
   -0.449979   12.17605  0.0000E+00  0.1509E-04  0.1295E-06  0.3324E-03  0.7316E-02  0.9950E+02
   -0.487479   12.17750  0.0000E+00  0.1415E-04  0.1081E-06  0.3890E-03  0.6595E-02  0.1157E+03
   -0.524978   12.17874  0.0000E+00  0.1333E-04  0.9145E-07  0.4632E-03  0.5952E-02  0.1460E+03
   -0.562478   12.17974  0.0000E+00  0.1260E-04  0.7833E-07  0.5174E-03  0.5381E-02  0.8145E+02
   -0.599978   12.18059  0.0000E+00  0.1194E-04  0.6769E-07  0.5424E-03  0.4861E-02  0.4758E+02
   -0.637478   12.18136  0.0000E+00  0.1133E-04  0.5889E-07  0.5574E-03  0.4382E-02  0.9426E+01
   -0.674978   12.18207  0.0000E+00  0.1078E-04  0.5156E-07  0.5675E-03  0.3942E-02  0.2078E+02
   -0.712479   12.18275  0.0000E+00  0.1026E-04  0.4537E-07  0.5722E-03  0.3536E-02  0.5972E+01
   -0.749979   12.18342  0.0000E+00  0.9773E-05  0.4011E-07  0.5746E-03  0.3162E-02  0.3443E+01
   -0.787479   12.18408  0.0000E+00  0.9312E-05  0.3561E-07  0.5757E-03  0.2816E-02  0.3142E+01
   -0.824979   12.18473  0.0000E+00  0.8873E-05  0.3175E-07  0.5765E-03  0.2498E-02  0.2906E+01
   -0.862479   12.18537  0.0000E+00  0.8452E-05  0.2844E-07  0.5766E-03  0.2204E-02  0.2714E+01
   -0.899979   12.18600  0.0000E+00  0.8044E-05  0.2560E-07  0.5758E-03  0.1934E-02  0.2553E+01
   -0.937479   12.18663  0.0000E+00  0.7648E-05  0.2318E-07  0.5738E-03  0.1685E-02  0.2419E+01
   -0.974979   12.18725  0.0000E+00  0.7259E-05  0.2112E-07  0.5700E-03  0.1455E-02  0.2310E+01
   -1.012479   12.18787  0.0000E+00  0.6876E-05  0.1940E-07  0.5705E-03  0.1244E-02  0.2046E+01
   -1.049979   12.18849  0.0000E+00  0.6500E-05  0.1800E-07  0.5733E-03  0.1056E-02  0.1804E+01
   -1.087478   12.18910  0.0000E+00  0.6135E-05  0.1690E-07  0.5753E-03  0.8924E-03  0.1599E+01
   -1.124978   12.18970  0.0000E+00  0.5784E-05  0.1612E-07  0.5657E-03  0.7509E-03  0.1412E+01
   -1.162477   12.19031  0.0000E+00  0.5452E-05  0.1564E-07  0.5453E-03  0.6301E-03  0.1239E+01
   -1.199976   12.19093  0.0000E+00  0.5144E-05  0.1546E-07  0.5111E-03  0.5279E-03  0.1076E+01
   -1.237474   12.19159  0.0000E+00  0.4866E-05  0.1558E-07  0.4566E-03  0.4429E-03  0.9278E+00
   -1.274973   12.19232  0.0000E+00  0.4616E-05  0.1603E-07  0.4036E-03  0.3740E-03  0.9031E+00
   -1.312471   12.19314  0.0000E+00  0.4372E-05  0.1689E-07  0.3600E-03  0.3213E-03  0.1653E+01
   -1.349969   12.19406  0.0000E+00  0.4094E-05  0.1861E-07  0.2942E-03  0.2784E-03  0.2885E+01
   -1.387467   12.19524  0.0000E+00  0.3739E-05  0.2204E-07  0.2502E-03  0.2367E-03  0.3795E+03
   -1.424964   12.19658  0.0000E+00  0.3164E-05  0.3255E-07  0.1256E-03  0.2015E-03  0.4683E+03
   -1.462461   12.20174  0.0000E+00  0.1853E-05  0.8101E-07  0.2915E-04  0.1527E-03 -0.2240E+04
   -1.499958   12.21413  0.0000E+00  0.0000E+00  0.0000E+00  0.0000E+00  0.1672E-03  0.0000E+00
