 1 - depth, m
 2 - temperature, C
 3 - salinity, kg/kg
 4 - turbulent kinetic energy, m**2/s**2
 5 - dissipation rate, m**2/s**3
 6 - kinematic heat conductance, m**2/s
 7 - modulus of horizontal velocity, m/s
 8 - Richardson number, n/d
   -0.000000    0.00000  0.0000E+00  0.4096E-13  0.8590E-16  0.1000E-09  0.0000E+00  0.1156E+17
   -0.037495    0.17761  0.0000E+00  0.4096E-13  0.8590E-16  0.1000E-09  0.0000E+00  0.1089E+17
   -0.074991    0.35348  0.0000E+00  0.4096E-13  0.8590E-16  0.1000E-09  0.0000E+00  0.1025E+17
   -0.112486    0.52762  0.0000E+00  0.4096E-13  0.8590E-16  0.1000E-09  0.0000E+00  0.9624E+16
   -0.149983    0.70006  0.0000E+00  0.4096E-13  0.8590E-16  0.1000E-09  0.0000E+00  0.9019E+16
   -0.187479    0.87082  0.0000E+00  0.8781E-13  0.8590E-16  0.1000E-09  0.0000E+00  0.8432E+16
   -0.224976    1.03990  0.0000E+00  0.2982E-12  0.8591E-16  0.1000E-09  0.0000E+00  0.7863E+16
   -0.262473    1.20730  0.0000E+00  0.6743E-12  0.1303E-15  0.1000E-09  0.0000E+00  0.7303E+16
   -0.299970    1.37283  0.0000E+00  0.1303E-11  0.2199E-15  0.1000E-09  0.0000E+00  0.6758E+16
   -0.337467    1.53642  0.0000E+00  0.2360E-11  0.3766E-15  0.1000E-09  0.0000E+00  0.6231E+16
   -0.374965    1.69803  0.0000E+00  0.4148E-11  0.6422E-15  0.1000E-09  0.0000E+00  0.5749E+16
   -0.412463    1.85843  0.0000E+00  0.7185E-11  0.1088E-14  0.1000E-09  0.0000E+00  0.5293E+16
   -0.449961    2.01808  0.0000E+00  0.1234E-10  0.1834E-14  0.1000E-09  0.0000E+00  0.4846E+16
   -0.487459    2.17698  0.0000E+00  0.2107E-10  0.3076E-14  0.1000E-09  0.0000E+00  0.4405E+16
   -0.524957    2.33507  0.0000E+00  0.3582E-10  0.5140E-14  0.1000E-09  0.0000E+00  0.3971E+16
   -0.562456    2.49224  0.0000E+00  0.6068E-10  0.8558E-14  0.1000E-09  0.0000E+00  0.3544E+16
   -0.599954    2.64845  0.0000E+00  0.1024E-09  0.1420E-13  0.1000E-09  0.0000E+00  0.3126E+16
   -0.637453    2.80364  0.0000E+00  0.1721E-09  0.2347E-13  0.1000E-09  0.0000E+00  0.2716E+16
   -0.674951    2.95774  0.0000E+00  0.2882E-09  0.3865E-13  0.1000E-09  0.0000E+00  0.2316E+16
   -0.712450    3.11068  0.0000E+00  0.4809E-09  0.6343E-13  0.1000E-09  0.0000E+00  0.1925E+16
   -0.749949    3.26237  0.0000E+00  0.7993E-09  0.1037E-12  0.1854E-09  0.0000E+00  0.1552E+16
   -0.787447    3.41367  0.0000E+00  0.1324E-08  0.1690E-12  0.3955E-09  0.0000E+00  0.1186E+16
   -0.824946    3.56474  0.0000E+00  0.2184E-08  0.2743E-12  0.9275E-09  0.0000E+00  0.8209E+15
   -0.862445    3.71520  0.0000E+00  0.3587E-08  0.4436E-12  0.2678E-08  0.0000E+00  0.4595E+15
   -0.899943    3.86374  0.0000E+00  0.5833E-08  0.7107E-12  0.1688E-07  0.0000E+00  0.1166E+15
   -0.937442    3.99878  0.0000E+00  0.6511E-08  0.7970E-12  0.1941E-04  0.0000E+00 -0.2211E+12
   -0.974940    3.99986  0.0000E+00  0.6835E-08  0.8463E-12  0.2087E-04  0.0000E+00 -0.2241E+12
   -1.012439    4.00088  0.0000E+00  0.7114E-08  0.8974E-12  0.2198E-04  0.0000E+00 -0.2289E+12
   -1.049937    4.00185  0.0000E+00  0.7354E-08  0.9516E-12  0.2259E-04  0.0000E+00 -0.2383E+12
   -1.087435    4.00280  0.0000E+00  0.7559E-08  0.1010E-11  0.2265E-04  0.0000E+00 -0.2532E+12
   -1.124933    4.00375  0.0000E+00  0.7731E-08  0.1077E-11  0.2209E-04  0.0000E+00 -0.2753E+12
   -1.162430    4.00473  0.0000E+00  0.7867E-08  0.1153E-11  0.2080E-04  0.0000E+00 -0.3098E+12
   -1.199928    4.00578  0.0000E+00  0.7963E-08  0.1245E-11  0.1894E-04  0.0000E+00 -0.3610E+12
   -1.237425    4.00692  0.0000E+00  0.8007E-08  0.1357E-11  0.1692E-04  0.0000E+00 -0.4301E+12
   -1.274922    4.00822  0.0000E+00  0.7986E-08  0.1502E-11  0.1476E-04  0.0000E+00 -0.5286E+12
   -1.312419    4.00971  0.0000E+00  0.7872E-08  0.1702E-11  0.1225E-04  0.0000E+00 -0.6883E+12
   -1.349915    4.01151  0.0000E+00  0.7619E-08  0.2004E-11  0.9300E-05  0.0000E+00 -0.9932E+12
   -1.387411    4.01392  0.0000E+00  0.7122E-08  0.2534E-11  0.5979E-05  0.0000E+00 -0.1738E+13
   -1.424907    4.01768  0.0000E+00  0.6116E-08  0.3745E-11  0.2645E-05  0.0000E+00 -0.4709E+13
   -1.462402    4.02613  0.0000E+00  0.4011E-08  0.8197E-11  0.4172E-06  0.0000E+00 -0.4196E+14
   -1.499898    4.06966  0.0000E+00  0.0000E+00  0.0000E+00  0.0000E+00  0.0000E+00  0.0000E+00
