 1 - depth, m
 2 - temperature, C
 3 - salinity, kg/kg
 4 - turbulent kinetic energy, m**2/s**2
 5 - dissipation rate, m**2/s**3
 6 - kinematic heat conductance, m**2/s
 7 - modulus of horizontal velocity, m/s
 8 - Richardson number, n/d
   -0.000000    0.00000  0.0000E+00  0.4096E-13  0.8590E-16  0.1000E-09  0.0000E+00  0.8088E+16
   -0.037499    0.12336  0.0000E+00  0.4096E-13  0.8590E-16  0.1000E-09  0.0000E+00  0.7818E+16
   -0.074999    0.24674  0.0000E+00  0.4096E-13  0.8590E-16  0.1000E-09  0.0000E+00  0.7545E+16
   -0.112498    0.37006  0.0000E+00  0.4096E-13  0.8590E-16  0.1000E-09  0.0000E+00  0.7268E+16
   -0.149998    0.49324  0.0000E+00  0.4096E-13  0.8590E-16  0.1000E-09  0.0000E+00  0.6990E+16
   -0.187499    0.61619  0.0000E+00  0.4096E-13  0.8590E-16  0.1000E-09  0.0000E+00  0.6710E+16
   -0.225000    0.73886  0.0000E+00  0.4096E-13  0.8590E-16  0.1000E-09  0.0000E+00  0.6429E+16
   -0.262501    0.86116  0.0000E+00  0.4096E-13  0.8590E-16  0.1000E-09  0.0000E+00  0.6144E+16
   -0.300002    0.98295  0.0000E+00  0.4096E-13  0.8590E-16  0.1000E-09  0.0000E+00  0.5859E+16
   -0.337503    1.10412  0.0000E+00  0.4096E-13  0.8590E-16  0.1000E-09  0.0000E+00  0.5575E+16
   -0.375005    1.22460  0.0000E+00  0.4096E-13  0.8590E-16  0.1000E-09  0.0000E+00  0.5300E+16
   -0.412507    1.34447  0.0000E+00  0.4096E-13  0.8590E-16  0.1000E-09  0.0000E+00  0.5031E+16
   -0.450009    1.46376  0.0000E+00  0.4096E-13  0.8590E-16  0.1000E-09  0.0000E+00  0.4763E+16
   -0.487511    1.58239  0.0000E+00  0.4096E-13  0.8590E-16  0.1000E-09  0.0000E+00  0.4497E+16
   -0.525013    1.70028  0.0000E+00  0.4096E-13  0.8590E-16  0.1000E-09  0.0000E+00  0.4231E+16
   -0.562515    1.81725  0.0000E+00  0.4096E-13  0.8590E-16  0.1000E-09  0.0000E+00  0.3968E+16
   -0.600018    1.93323  0.0000E+00  0.4096E-13  0.8590E-16  0.1000E-09  0.0000E+00  0.3708E+16
   -0.637520    2.04812  0.0000E+00  0.4096E-13  0.8590E-16  0.1000E-09  0.0000E+00  0.3454E+16
   -0.675023    2.16182  0.0000E+00  0.4096E-13  0.8590E-16  0.1000E-09  0.0000E+00  0.3203E+16
   -0.712526    2.27424  0.0000E+00  0.4096E-13  0.8590E-16  0.1000E-09  0.0000E+00  0.2959E+16
   -0.750028    2.38527  0.0000E+00  0.4096E-13  0.8590E-16  0.1000E-09  0.0000E+00  0.2729E+16
   -0.787531    2.49520  0.0000E+00  0.4096E-13  0.8590E-16  0.1000E-09  0.0000E+00  0.2507E+16
   -0.825034    2.60406  0.0000E+00  0.4096E-13  0.8590E-16  0.1000E-09  0.0000E+00  0.2290E+16
   -0.862536    2.71179  0.0000E+00  0.4096E-13  0.8590E-16  0.1000E-09  0.0000E+00  0.2077E+16
   -0.900039    2.81829  0.0000E+00  0.4096E-13  0.8590E-16  0.1000E-09  0.0000E+00  0.1871E+16
   -0.937541    2.92347  0.0000E+00  0.4096E-13  0.8590E-16  0.1000E-09  0.0000E+00  0.1670E+16
   -0.975044    3.02723  0.0000E+00  0.4096E-13  0.8590E-16  0.1000E-09  0.0000E+00  0.1475E+16
   -1.012546    3.12948  0.0000E+00  0.6232E-13  0.8590E-16  0.1000E-09  0.0000E+00  0.1284E+16
   -1.050048    3.22983  0.0000E+00  0.2463E-12  0.1634E-15  0.1000E-09  0.0000E+00  0.1101E+16
   -1.087550    3.32805  0.0000E+00  0.7515E-12  0.4409E-15  0.1000E-09  0.0000E+00  0.9255E+15
   -1.125052    3.42392  0.0000E+00  0.2128E-11  0.1198E-14  0.1000E-09  0.0000E+00  0.7735E+15
   -1.162553    3.51906  0.0000E+00  0.5878E-11  0.3213E-14  0.1000E-09  0.0000E+00  0.6266E+15
   -1.200055    3.61368  0.0000E+00  0.1602E-10  0.8520E-14  0.1000E-09  0.0000E+00  0.4822E+15
   -1.237556    3.70774  0.0000E+00  0.4319E-10  0.2237E-13  0.1790E-09  0.0000E+00  0.3405E+15
   -1.275057    3.80115  0.0000E+00  0.1165E-09  0.5885E-13  0.7872E-09  0.0000E+00  0.2016E+15
   -1.312558    3.89357  0.0000E+00  0.3123E-09  0.1544E-12  0.5901E-08  0.0000E+00  0.6729E+14
   -1.350058    3.98212  0.0000E+00  0.7891E-09  0.3884E-12  0.4045E-06  0.0000E+00 -0.2867E+13
   -1.387558    4.00615  0.0000E+00  0.1317E-08  0.7931E-12  0.8151E-06  0.0000E+00 -0.5630E+13
   -1.425058    4.01966  0.0000E+00  0.1548E-08  0.1331E-11  0.6264E-06  0.0000E+00 -0.1109E+14
   -1.462557    4.03659  0.0000E+00  0.1339E-08  0.2473E-11  0.1931E-06  0.0000E+00 -0.4299E+14
   -1.500057    4.07588  0.0000E+00  0.0000E+00  0.0000E+00  0.0000E+00  0.0000E+00  0.0000E+00
