 1 - depth, m
 2 - temperature, C
 3 - salinity, kg/kg
 4 - turbulent kinetic energy, m**2/s**2
 5 - dissipation rate, m**2/s**3
 6 - kinematic heat conductance, m**2/s
 7 - modulus of horizontal velocity, m/s
 8 - Richardson number, n/d
   -0.000000    0.00000  0.0000E+00  0.4096E-13  0.8590E-16  0.1000E-09  0.0000E+00  0.1190E+17
   -0.037501    0.18304  0.0000E+00  0.4096E-13  0.8590E-16  0.1000E-09  0.0000E+00  0.1117E+17
   -0.075003    0.36382  0.0000E+00  0.4096E-13  0.8590E-16  0.1000E-09  0.0000E+00  0.1047E+17
   -0.112505    0.54238  0.0000E+00  0.4096E-13  0.8590E-16  0.1000E-09  0.0000E+00  0.9792E+16
   -0.150007    0.71876  0.0000E+00  0.4096E-13  0.8590E-16  0.1000E-09  0.0000E+00  0.9139E+16
   -0.187510    0.89296  0.0000E+00  0.8322E-13  0.8590E-16  0.1000E-09  0.0000E+00  0.8509E+16
   -0.225013    1.06499  0.0000E+00  0.2889E-12  0.8590E-16  0.1000E-09  0.0000E+00  0.7902E+16
   -0.262516    1.23485  0.0000E+00  0.6599E-12  0.1253E-15  0.1000E-09  0.0000E+00  0.7310E+16
   -0.300020    1.40240  0.0000E+00  0.1274E-11  0.2074E-15  0.1000E-09  0.0000E+00  0.6739E+16
   -0.337523    1.56759  0.0000E+00  0.2291E-11  0.3504E-15  0.1000E-09  0.0000E+00  0.6189E+16
   -0.375027    1.73039  0.0000E+00  0.3988E-11  0.5904E-15  0.1000E-09  0.0000E+00  0.5686E+16
   -0.412531    1.89151  0.0000E+00  0.6832E-11  0.9890E-15  0.1000E-09  0.0000E+00  0.5212E+16
   -0.450036    2.05140  0.0000E+00  0.1160E-10  0.1647E-14  0.1000E-09  0.0000E+00  0.4750E+16
   -0.487540    2.21004  0.0000E+00  0.1957E-10  0.2731E-14  0.1000E-09  0.0000E+00  0.4300E+16
   -0.525045    2.36739  0.0000E+00  0.3289E-10  0.4512E-14  0.1000E-09  0.0000E+00  0.3860E+16
   -0.562549    2.52339  0.0000E+00  0.5508E-10  0.7429E-14  0.1000E-09  0.0000E+00  0.3431E+16
   -0.600054    2.67800  0.0000E+00  0.9188E-10  0.1219E-13  0.1000E-09  0.0000E+00  0.3014E+16
   -0.637559    2.83116  0.0000E+00  0.1527E-09  0.1993E-13  0.1000E-09  0.0000E+00  0.2608E+16
   -0.675064    2.98280  0.0000E+00  0.2529E-09  0.3246E-13  0.1000E-09  0.0000E+00  0.2215E+16
   -0.712568    3.13287  0.0000E+00  0.4173E-09  0.5270E-13  0.1000E-09  0.0000E+00  0.1834E+16
   -0.750073    3.28126  0.0000E+00  0.6861E-09  0.8527E-13  0.1607E-09  0.0000E+00  0.1473E+16
   -0.787578    3.42869  0.0000E+00  0.1124E-08  0.1375E-12  0.3405E-09  0.0000E+00  0.1121E+16
   -0.825083    3.57524  0.0000E+00  0.1835E-08  0.2209E-12  0.7915E-09  0.0000E+00  0.7747E+15
   -0.862588    3.72059  0.0000E+00  0.2984E-08  0.3537E-12  0.2247E-08  0.0000E+00  0.4366E+15
   -0.900093    3.86366  0.0000E+00  0.4811E-08  0.5618E-12  0.1327E-07  0.0000E+00  0.1173E+15
   -0.937598    3.99571  0.0000E+00  0.5444E-08  0.6389E-12  0.1566E-04  0.0000E+00 -0.2010E+12
   -0.975102    3.99699  0.0000E+00  0.5760E-08  0.6849E-12  0.1684E-04  0.0000E+00 -0.2116E+12
   -1.012607    3.99819  0.0000E+00  0.6043E-08  0.7341E-12  0.1769E-04  0.0000E+00 -0.2233E+12
   -1.050111    3.99933  0.0000E+00  0.6296E-08  0.7875E-12  0.1820E-04  0.0000E+00 -0.2380E+12
   -1.087615    4.00045  0.0000E+00  0.6518E-08  0.8461E-12  0.1834E-04  0.0000E+00 -0.2569E+12
   -1.125119    4.00156  0.0000E+00  0.6707E-08  0.9113E-12  0.1805E-04  0.0000E+00 -0.2818E+12
   -1.162623    4.00270  0.0000E+00  0.6862E-08  0.9857E-12  0.1737E-04  0.0000E+00 -0.3152E+12
   -1.200127    4.00388  0.0000E+00  0.6975E-08  0.1072E-11  0.1634E-04  0.0000E+00 -0.3603E+12
   -1.237630    4.00515  0.0000E+00  0.7040E-08  0.1177E-11  0.1497E-04  0.0000E+00 -0.4235E+12
   -1.275134    4.00653  0.0000E+00  0.7045E-08  0.1310E-11  0.1321E-04  0.0000E+00 -0.5194E+12
   -1.312637    4.00811  0.0000E+00  0.6965E-08  0.1493E-11  0.1100E-04  0.0000E+00 -0.6800E+12
   -1.350139    4.01002  0.0000E+00  0.6757E-08  0.1769E-11  0.8363E-05  0.0000E+00 -0.9895E+12
   -1.387642    4.01255  0.0000E+00  0.6326E-08  0.2251E-11  0.5374E-05  0.0000E+00 -0.1751E+13
   -1.425144    4.01651  0.0000E+00  0.5437E-08  0.3343E-11  0.2377E-05  0.0000E+00 -0.4810E+13
   -1.462645    4.02538  0.0000E+00  0.3606E-08  0.7253E-11  0.3877E-06  0.0000E+00 -0.4152E+14
   -1.500147    4.06896  0.0000E+00  0.0000E+00  0.0000E+00  0.0000E+00  0.0000E+00  0.0000E+00
