 1 - depth, m
 2 - temperature, C
 3 - salinity, kg/kg
 4 - turbulent kinetic energy, m**2/s**2
 5 - dissipation rate, m**2/s**3
 6 - kinematic heat conductance, m**2/s
 7 - modulus of horizontal velocity, m/s
 8 - Richardson number, n/d
   -0.000000    0.00000  0.0000E+00  0.4096E-13  0.8590E-16  0.1000E-09  0.0000E+00  0.9966E+16
   -0.037493    0.15261  0.0000E+00  0.4096E-13  0.8590E-16  0.1000E-09  0.0000E+00  0.9492E+16
   -0.074986    0.30425  0.0000E+00  0.4096E-13  0.8590E-16  0.1000E-09  0.0000E+00  0.9021E+16
   -0.112479    0.45478  0.0000E+00  0.4096E-13  0.8590E-16  0.1000E-09  0.0000E+00  0.8554E+16
   -0.149973    0.60409  0.0000E+00  0.4096E-13  0.8590E-16  0.1000E-09  0.0000E+00  0.8093E+16
   -0.187467    0.75207  0.0000E+00  0.4096E-13  0.8590E-16  0.1000E-09  0.0000E+00  0.7638E+16
   -0.224962    0.89860  0.0000E+00  0.4096E-13  0.8590E-16  0.1000E-09  0.0000E+00  0.7191E+16
   -0.262457    1.04357  0.0000E+00  0.4096E-13  0.8590E-16  0.1000E-09  0.0000E+00  0.6748E+16
   -0.299951    1.18680  0.0000E+00  0.4096E-13  0.8590E-16  0.1000E-09  0.0000E+00  0.6315E+16
   -0.337447    1.32816  0.0000E+00  0.4096E-13  0.8590E-16  0.1000E-09  0.0000E+00  0.5893E+16
   -0.374942    1.46755  0.0000E+00  0.4096E-13  0.8590E-16  0.1000E-09  0.0000E+00  0.5500E+16
   -0.412437    1.60533  0.0000E+00  0.4096E-13  0.8590E-16  0.1000E-09  0.0000E+00  0.5128E+16
   -0.449933    1.74169  0.0000E+00  0.4096E-13  0.8590E-16  0.1000E-09  0.0000E+00  0.4764E+16
   -0.487429    1.87658  0.0000E+00  0.4096E-13  0.8590E-16  0.1000E-09  0.0000E+00  0.4410E+16
   -0.524925    2.00991  0.0000E+00  0.4096E-13  0.8590E-16  0.1000E-09  0.0000E+00  0.4063E+16
   -0.562421    2.14157  0.0000E+00  0.4133E-13  0.8590E-16  0.1000E-09  0.0000E+00  0.3726E+16
   -0.599917    2.27147  0.0000E+00  0.1939E-12  0.8590E-16  0.1000E-09  0.0000E+00  0.3400E+16
   -0.637414    2.39953  0.0000E+00  0.5130E-12  0.1406E-15  0.1000E-09  0.0000E+00  0.3085E+16
   -0.674910    2.52568  0.0000E+00  0.1107E-11  0.2649E-15  0.1000E-09  0.0000E+00  0.2781E+16
   -0.712406    2.64984  0.0000E+00  0.2218E-11  0.5047E-15  0.1000E-09  0.0000E+00  0.2489E+16
   -0.749903    2.77191  0.0000E+00  0.4317E-11  0.9542E-15  0.1000E-09  0.0000E+00  0.2220E+16
   -0.787399    2.89249  0.0000E+00  0.8285E-11  0.1790E-14  0.1000E-09  0.0000E+00  0.1964E+16
   -0.824895    3.01177  0.0000E+00  0.1576E-10  0.3333E-14  0.1000E-09  0.0000E+00  0.1716E+16
   -0.862392    3.12970  0.0000E+00  0.2979E-10  0.6172E-14  0.1000E-09  0.0000E+00  0.1476E+16
   -0.899888    3.24623  0.0000E+00  0.5597E-10  0.1136E-13  0.1000E-09  0.0000E+00  0.1244E+16
   -0.937384    3.36130  0.0000E+00  0.1046E-09  0.2080E-13  0.1000E-09  0.0000E+00  0.1020E+16
   -0.974880    3.47487  0.0000E+00  0.1943E-09  0.3790E-13  0.1306E-09  0.0000E+00  0.8047E+15
   -1.012376    3.58685  0.0000E+00  0.3597E-09  0.6880E-13  0.3194E-09  0.0000E+00  0.5973E+15
   -1.049872    3.69695  0.0000E+00  0.6646E-09  0.1247E-12  0.8656E-09  0.0000E+00  0.3992E+15
   -1.087368    3.80478  0.0000E+00  0.1222E-08  0.2249E-12  0.2939E-08  0.0000E+00  0.2119E+15
   -1.124863    3.90914  0.0000E+00  0.2214E-08  0.4005E-12  0.2425E-07  0.0000E+00  0.4536E+14
   -1.162359    3.99943  0.0000E+00  0.3000E-08  0.5456E-12  0.6299E-05  0.0000E+00 -0.5169E+12
   -1.199854    4.00175  0.0000E+00  0.3386E-08  0.6377E-12  0.6836E-05  0.0000E+00 -0.5551E+12
   -1.237349    4.00390  0.0000E+00  0.3686E-08  0.7359E-12  0.6941E-05  0.0000E+00 -0.6211E+12
   -1.274843    4.00602  0.0000E+00  0.3905E-08  0.8500E-12  0.6637E-05  0.0000E+00 -0.7325E+12
   -1.312338    4.00827  0.0000E+00  0.4039E-08  0.9949E-12  0.5911E-05  0.0000E+00 -0.9270E+12
   -1.349832    4.01082  0.0000E+00  0.4058E-08  0.1199E-11  0.4762E-05  0.0000E+00 -0.1308E+13
   -1.387326    4.01402  0.0000E+00  0.3903E-08  0.1536E-11  0.3233E-05  0.0000E+00 -0.2243E+13
   -1.424819    4.01878  0.0000E+00  0.3427E-08  0.2250E-11  0.1527E-05  0.0000E+00 -0.5835E+13
   -1.462312    4.02873  0.0000E+00  0.2395E-08  0.4547E-11  0.2900E-06  0.0000E+00 -0.3967E+14
   -1.499805    4.06919  0.0000E+00  0.0000E+00  0.0000E+00  0.0000E+00  0.0000E+00  0.0000E+00
