 1 - depth, m
 2 - temperature, C
 3 - salinity, kg/kg
 4 - turbulent kinetic energy, m**2/s**2
 5 - dissipation rate, m**2/s**3
 6 - kinematic heat conductance, m**2/s
 7 - modulus of horizontal velocity, m/s
 8 - Richardson number, n/d
   -0.000000    0.00000  0.0000E+00  0.4096E-13  0.8590E-16  0.1000E-09  0.0000E+00  0.1169E+17
   -0.037497    0.17969  0.0000E+00  0.4096E-13  0.8590E-16  0.1000E-09  0.0000E+00  0.1097E+17
   -0.074995    0.35701  0.0000E+00  0.4096E-13  0.8590E-16  0.1000E-09  0.0000E+00  0.1028E+17
   -0.112493    0.53193  0.0000E+00  0.4096E-13  0.8590E-16  0.1000E-09  0.0000E+00  0.9614E+16
   -0.149992    0.70442  0.0000E+00  0.4096E-13  0.8590E-16  0.1000E-09  0.0000E+00  0.8968E+16
   -0.187491    0.87443  0.0000E+00  0.4096E-13  0.8590E-16  0.1000E-09  0.0000E+00  0.8345E+16
   -0.224990    1.04192  0.0000E+00  0.4096E-13  0.8590E-16  0.1000E-09  0.0000E+00  0.7744E+16
   -0.262489    1.20684  0.0000E+00  0.1227E-12  0.8590E-16  0.1000E-09  0.0000E+00  0.7154E+16
   -0.299988    1.36885  0.0000E+00  0.3692E-12  0.1049E-15  0.1000E-09  0.0000E+00  0.6585E+16
   -0.337488    1.52784  0.0000E+00  0.8196E-12  0.1777E-15  0.1000E-09  0.0000E+00  0.6042E+16
   -0.374988    1.68376  0.0000E+00  0.1617E-11  0.3204E-15  0.1000E-09  0.0000E+00  0.5568E+16
   -0.412488    1.83784  0.0000E+00  0.3040E-11  0.5785E-15  0.1000E-09  0.0000E+00  0.5135E+16
   -0.449989    1.99089  0.0000E+00  0.5595E-11  0.1038E-14  0.1000E-09  0.0000E+00  0.4714E+16
   -0.487489    2.14293  0.0000E+00  0.1019E-10  0.1849E-14  0.1000E-09  0.0000E+00  0.4303E+16
   -0.524990    2.29398  0.0000E+00  0.1843E-10  0.3280E-14  0.1000E-09  0.0000E+00  0.3899E+16
   -0.562491    2.44395  0.0000E+00  0.3319E-10  0.5792E-14  0.1000E-09  0.0000E+00  0.3506E+16
   -0.599991    2.59287  0.0000E+00  0.5949E-10  0.1018E-13  0.1000E-09  0.0000E+00  0.3123E+16
   -0.637492    2.74079  0.0000E+00  0.1061E-09  0.1782E-13  0.1000E-09  0.0000E+00  0.2749E+16
   -0.674993    2.88778  0.0000E+00  0.1885E-09  0.3106E-13  0.1000E-09  0.0000E+00  0.2386E+16
   -0.712494    3.03390  0.0000E+00  0.3332E-09  0.5387E-13  0.1000E-09  0.0000E+00  0.2031E+16
   -0.749995    3.17926  0.0000E+00  0.5863E-09  0.9300E-13  0.1516E-09  0.0000E+00  0.1703E+16
   -0.787496    3.32565  0.0000E+00  0.1026E-08  0.1598E-12  0.3226E-09  0.0000E+00  0.1375E+16
   -0.824997    3.47386  0.0000E+00  0.1788E-08  0.2731E-12  0.7305E-09  0.0000E+00  0.1037E+16
   -0.862498    3.62429  0.0000E+00  0.3097E-08  0.4644E-12  0.1874E-08  0.0000E+00  0.6874E+15
   -0.899999    3.77748  0.0000E+00  0.5322E-08  0.7836E-12  0.6965E-08  0.0000E+00  0.3160E+15
   -0.937500    3.93174  0.0000E+00  0.8290E-08  0.1212E-11  0.1731E-05  0.0000E+00  0.2386E+14
   -0.975001    4.00717  0.0000E+00  0.9124E-08  0.1341E-11  0.2411E-04  0.0000E+00 -0.3238E+12
   -1.012501    4.00817  0.0000E+00  0.9512E-08  0.1414E-11  0.2529E-04  0.0000E+00 -0.3271E+12
   -1.050002    4.00914  0.0000E+00  0.9823E-08  0.1485E-11  0.2589E-04  0.0000E+00 -0.3372E+12
   -1.087502    4.01009  0.0000E+00  0.1008E-07  0.1558E-11  0.2597E-04  0.0000E+00 -0.3540E+12
   -1.125002    4.01104  0.0000E+00  0.1028E-07  0.1637E-11  0.2572E-04  0.0000E+00 -0.3724E+12
   -1.162502    4.01200  0.0000E+00  0.1043E-07  0.1725E-11  0.2513E-04  0.0000E+00 -0.3963E+12
   -1.200002    4.01299  0.0000E+00  0.1054E-07  0.1833E-11  0.2418E-04  0.0000E+00 -0.4281E+12
   -1.237501    4.01401  0.0000E+00  0.1058E-07  0.1971E-11  0.2183E-04  0.0000E+00 -0.4936E+12
   -1.275001    4.01514  0.0000E+00  0.1054E-07  0.2155E-11  0.1844E-04  0.0000E+00 -0.6126E+12
   -1.312500    4.01648  0.0000E+00  0.1038E-07  0.2412E-11  0.1508E-04  0.0000E+00 -0.7922E+12
   -1.349999    4.01812  0.0000E+00  0.1003E-07  0.2801E-11  0.1148E-04  0.0000E+00 -0.1114E+13
   -1.387497    4.02029  0.0000E+00  0.9382E-08  0.3482E-11  0.7465E-05  0.0000E+00 -0.1874E+13
   -1.424995    4.02366  0.0000E+00  0.8086E-08  0.5043E-11  0.3361E-05  0.0000E+00 -0.4800E+13
   -1.462493    4.03113  0.0000E+00  0.5204E-08  0.1112E-10  0.4993E-06  0.0000E+00 -0.4370E+14
   -1.499990    4.07346  0.0000E+00  0.0000E+00  0.0000E+00  0.0000E+00  0.0000E+00  0.0000E+00
