 1 - depth, m
 2 - temperature, C
 3 - salinity, kg/kg
 4 - turbulent kinetic energy, m**2/s**2
 5 - dissipation rate, m**2/s**3
 6 - kinematic heat conductance, m**2/s
 7 - modulus of horizontal velocity, m/s
 8 - Richardson number, n/d
   -0.000000    0.00000  0.0000E+00  0.4096E-13  0.8590E-16  0.1000E-09  0.0000E+00  0.9188E+16
   -0.037497    0.14047  0.0000E+00  0.4096E-13  0.8590E-16  0.1000E-09  0.0000E+00  0.8727E+16
   -0.074994    0.27916  0.0000E+00  0.4096E-13  0.8590E-16  0.1000E-09  0.0000E+00  0.8278E+16
   -0.112492    0.41602  0.0000E+00  0.4096E-13  0.8590E-16  0.1000E-09  0.0000E+00  0.7843E+16
   -0.149990    0.55102  0.0000E+00  0.4096E-13  0.8590E-16  0.1000E-09  0.0000E+00  0.7420E+16
   -0.187488    0.68413  0.0000E+00  0.4096E-13  0.8590E-16  0.1000E-09  0.0000E+00  0.7011E+16
   -0.224986    0.81532  0.0000E+00  0.4096E-13  0.8590E-16  0.1000E-09  0.0000E+00  0.6614E+16
   -0.262485    0.94455  0.0000E+00  0.4096E-13  0.8590E-16  0.1000E-09  0.0000E+00  0.6226E+16
   -0.299984    1.07171  0.0000E+00  0.4096E-13  0.8590E-16  0.1000E-09  0.0000E+00  0.5850E+16
   -0.337483    1.19675  0.0000E+00  0.4096E-13  0.8590E-16  0.1000E-09  0.0000E+00  0.5488E+16
   -0.374983    1.31962  0.0000E+00  0.4096E-13  0.8590E-16  0.1000E-09  0.0000E+00  0.5158E+16
   -0.412482    1.44077  0.0000E+00  0.4096E-13  0.8590E-16  0.1000E-09  0.0000E+00  0.4852E+16
   -0.449982    1.56048  0.0000E+00  0.4096E-13  0.8590E-16  0.1000E-09  0.0000E+00  0.4554E+16
   -0.487482    1.67871  0.0000E+00  0.4096E-13  0.8590E-16  0.1000E-09  0.0000E+00  0.4264E+16
   -0.524982    1.79543  0.0000E+00  0.4096E-13  0.8590E-16  0.1000E-09  0.0000E+00  0.3982E+16
   -0.562482    1.91058  0.0000E+00  0.4096E-13  0.8590E-16  0.1000E-09  0.0000E+00  0.3709E+16
   -0.599983    2.02411  0.0000E+00  0.4096E-13  0.8590E-16  0.1000E-09  0.0000E+00  0.3444E+16
   -0.637483    2.13597  0.0000E+00  0.4096E-13  0.8590E-16  0.1000E-09  0.0000E+00  0.3188E+16
   -0.674983    2.24613  0.0000E+00  0.4096E-13  0.8590E-16  0.1000E-09  0.0000E+00  0.2941E+16
   -0.712484    2.35452  0.0000E+00  0.4096E-13  0.8590E-16  0.1000E-09  0.0000E+00  0.2702E+16
   -0.749984    2.46108  0.0000E+00  0.4096E-13  0.8590E-16  0.1000E-09  0.0000E+00  0.2489E+16
   -0.787485    2.56646  0.0000E+00  0.4096E-13  0.8590E-16  0.1000E-09  0.0000E+00  0.2286E+16
   -0.824985    2.67085  0.0000E+00  0.4096E-13  0.8590E-16  0.1000E-09  0.0000E+00  0.2088E+16
   -0.862485    2.77422  0.0000E+00  0.4096E-13  0.8590E-16  0.1000E-09  0.0000E+00  0.1896E+16
   -0.899986    2.87655  0.0000E+00  0.4096E-13  0.8590E-16  0.1000E-09  0.0000E+00  0.1708E+16
   -0.937486    2.97779  0.0000E+00  0.4096E-13  0.8590E-16  0.1000E-09  0.0000E+00  0.1526E+16
   -0.974986    3.07789  0.0000E+00  0.7523E-13  0.8590E-16  0.1000E-09  0.0000E+00  0.1349E+16
   -1.012486    3.17681  0.0000E+00  0.2744E-12  0.1756E-15  0.1000E-09  0.0000E+00  0.1178E+16
   -1.049986    3.27451  0.0000E+00  0.8190E-12  0.4721E-15  0.1000E-09  0.0000E+00  0.1013E+16
   -1.087486    3.37091  0.0000E+00  0.2295E-11  0.1272E-14  0.1000E-09  0.0000E+00  0.8530E+15
   -1.124986    3.46594  0.0000E+00  0.6291E-11  0.3385E-14  0.1000E-09  0.0000E+00  0.7076E+15
   -1.162485    3.56072  0.0000E+00  0.1701E-10  0.8902E-14  0.1000E-09  0.0000E+00  0.5648E+15
   -1.199984    3.65548  0.0000E+00  0.4550E-10  0.2317E-13  0.1499E-09  0.0000E+00  0.4226E+15
   -1.237483    3.75023  0.0000E+00  0.1204E-09  0.5973E-13  0.5779E-09  0.0000E+00  0.2808E+15
   -1.274982    3.84492  0.0000E+00  0.3183E-09  0.1542E-12  0.2950E-08  0.0000E+00  0.1393E+15
   -1.312480    3.93905  0.0000E+00  0.8227E-09  0.3918E-12  0.5720E-07  0.0000E+00  0.1364E+14
   -1.349979    4.00853  0.0000E+00  0.1799E-08  0.8951E-12  0.1392E-05  0.0000E+00 -0.3899E+13
   -1.387477    4.01780  0.0000E+00  0.2304E-08  0.1387E-11  0.1387E-05  0.0000E+00 -0.5547E+13
   -1.424974    4.02754  0.0000E+00  0.2443E-08  0.2165E-11  0.9132E-06  0.0000E+00 -0.1148E+14
   -1.462471    4.04258  0.0000E+00  0.2050E-08  0.4173E-11  0.2650E-06  0.0000E+00 -0.5175E+14
   -1.499968    4.08520  0.0000E+00  0.0000E+00  0.0000E+00  0.0000E+00  0.0000E+00  0.0000E+00
