 1 - depth, m
 2 - temperature, C
 3 - salinity, kg/kg
 4 - turbulent kinetic energy, m**2/s**2
 5 - dissipation rate, m**2/s**3
 6 - kinematic heat conductance, m**2/s
 7 - modulus of horizontal velocity, m/s
 8 - Richardson number, n/d
   -0.000000   18.69494  0.0000E+00  0.1543E-04  0.1284E-05  0.2113E-04  0.2183E-01 -0.5175E-01
   -0.037493   18.72780  0.0000E+00  0.1302E-04  0.4509E-06  0.5192E-04  0.1290E-01 -0.1379E+00
   -0.074987   18.73957  0.0000E+00  0.1184E-04  0.2467E-06  0.1148E-03  0.9827E-02  0.1055E+03
   -0.112480   18.74585  0.0000E+00  0.1114E-04  0.1620E-06  0.1655E-03  0.8101E-02  0.9071E+01
   -0.149975   18.75010  0.0000E+00  0.1072E-04  0.1178E-06  0.2349E-03  0.6923E-02  0.1414E+03
   -0.187469   18.75292  0.0000E+00  0.1050E-04  0.9332E-07  0.3834E-03  0.6066E-02  0.1583E+03
   -0.224964   18.75438  0.0000E+00  0.1044E-04  0.7803E-07  0.4013E-03  0.5460E-02  0.7317E+01
   -0.262459   18.75573  0.0000E+00  0.1041E-04  0.6628E-07  0.4380E-03  0.4875E-02  0.6820E+01
   -0.299954   18.75693  0.0000E+00  0.1042E-04  0.5739E-07  0.4685E-03  0.4364E-02  0.5619E+01
   -0.337449   18.75804  0.0000E+00  0.1043E-04  0.5041E-07  0.5030E-03  0.3905E-02  0.4987E+01
   -0.374945   18.75906  0.0000E+00  0.1044E-04  0.4480E-07  0.5383E-03  0.3492E-02  0.4518E+01
   -0.412441   18.75999  0.0000E+00  0.1045E-04  0.4022E-07  0.5754E-03  0.3117E-02  0.4148E+01
   -0.449937   18.76085  0.0000E+00  0.1044E-04  0.3642E-07  0.6137E-03  0.2774E-02  0.3841E+01
   -0.487433   18.76164  0.0000E+00  0.1042E-04  0.3323E-07  0.6529E-03  0.2461E-02  0.3551E+01
   -0.524929   18.76238  0.0000E+00  0.1037E-04  0.3053E-07  0.6935E-03  0.2173E-02  0.3166E+01
   -0.562426   18.76307  0.0000E+00  0.1029E-04  0.2825E-07  0.7328E-03  0.1914E-02  0.2854E+01
   -0.599922   18.76370  0.0000E+00  0.1019E-04  0.2632E-07  0.7695E-03  0.1682E-02  0.2598E+01
   -0.637419   18.76430  0.0000E+00  0.1006E-04  0.2471E-07  0.8026E-03  0.1474E-02  0.2387E+01
   -0.674916   18.76487  0.0000E+00  0.9913E-05  0.2337E-07  0.8313E-03  0.1288E-02  0.2210E+01
   -0.712412   18.76542  0.0000E+00  0.9739E-05  0.2227E-07  0.8554E-03  0.1122E-02  0.2062E+01
   -0.749909   18.76594  0.0000E+00  0.9544E-05  0.2140E-07  0.8755E-03  0.9756E-03  0.1934E+01
   -0.787406   18.76645  0.0000E+00  0.9329E-05  0.2072E-07  0.8927E-03  0.8459E-03  0.1823E+01
   -0.824902   18.76694  0.0000E+00  0.9098E-05  0.2023E-07  0.9101E-03  0.7310E-03  0.1733E+01
   -0.862399   18.76743  0.0000E+00  0.8849E-05  0.1989E-07  0.8739E-03  0.6306E-03  0.1596E+01
   -0.899896   18.76794  0.0000E+00  0.8709E-05  0.1980E-07  0.1238E-02  0.5358E-03  0.1326E+01
   -0.937392   18.76828  0.0000E+00  0.8611E-05  0.1982E-07  0.1078E-02  0.5068E-03  0.1985E+01
   -0.974888   18.76867  0.0000E+00  0.8469E-05  0.1993E-07  0.9382E-03  0.4822E-03  0.1300E+01
   -1.012385   18.76913  0.0000E+00  0.8211E-05  0.2023E-07  0.9142E-03  0.4197E-03  0.1234E+01
   -1.049881   18.76959  0.0000E+00  0.7974E-05  0.2064E-07  0.8874E-03  0.3704E-03  0.1136E+01
   -1.087377   18.77006  0.0000E+00  0.7747E-05  0.2117E-07  0.8284E-03  0.3296E-03  0.1063E+01
   -1.124873   18.77056  0.0000E+00  0.7529E-05  0.2184E-07  0.7633E-03  0.2958E-03  0.1046E+01
   -1.162368   18.77110  0.0000E+00  0.7313E-05  0.2269E-07  0.7057E-03  0.2676E-03  0.1136E+01
   -1.199864   18.77169  0.0000E+00  0.7089E-05  0.2382E-07  0.6420E-03  0.2432E-03  0.1430E+01
   -1.237359   18.77234  0.0000E+00  0.6842E-05  0.2540E-07  0.5907E-03  0.2210E-03  0.2377E+01
   -1.274854   18.77305  0.0000E+00  0.6544E-05  0.2798E-07  0.5015E-03  0.1996E-03  0.3883E+01
   -1.312349   18.77397  0.0000E+00  0.6166E-05  0.3214E-07  0.4440E-03  0.1767E-03  0.2035E+03
   -1.349843   18.77498  0.0000E+00  0.5663E-05  0.4019E-07  0.3197E-03  0.1562E-03  0.2014E+03
   -1.387337   18.77716  0.0000E+00  0.4990E-05  0.5510E-07  0.2794E-03  0.1290E-03  0.1422E+05
   -1.424831   18.77835  0.0000E+00  0.4047E-05  0.9671E-07  0.1275E-03  0.1113E-03  0.3159E+05
   -1.462325   18.78784  0.0000E+00  0.2464E-05  0.2362E-06  0.5215E-04  0.8170E-04 -0.4509E+05
   -1.499818   18.79692  0.0000E+00  0.0000E+00  0.0000E+00  0.0000E+00  0.9876E-04  0.0000E+00
