 1 - depth, m
 2 - temperature, C
 3 - salinity, kg/kg
 4 - turbulent kinetic energy, m**2/s**2
 5 - dissipation rate, m**2/s**3
 6 - kinematic heat conductance, m**2/s
 7 - modulus of horizontal velocity, m/s
 8 - Richardson number, n/d
   -0.000000    0.00000  0.0000E+00  0.4096E-13  0.8590E-16  0.1000E-09  0.0000E+00  0.8941E+16
   -0.037495    0.13662  0.0000E+00  0.4096E-13  0.8590E-16  0.1000E-09  0.0000E+00  0.8617E+16
   -0.074989    0.27338  0.0000E+00  0.4096E-13  0.8590E-16  0.1000E-09  0.0000E+00  0.8300E+16
   -0.112485    0.41036  0.0000E+00  0.4096E-13  0.8590E-16  0.1000E-09  0.0000E+00  0.7984E+16
   -0.149980    0.54761  0.0000E+00  0.4096E-13  0.8590E-16  0.1000E-09  0.0000E+00  0.7669E+16
   -0.187476    0.68512  0.0000E+00  0.4096E-13  0.8590E-16  0.1000E-09  0.0000E+00  0.7351E+16
   -0.224972    0.82288  0.0000E+00  0.4096E-13  0.8590E-16  0.1000E-09  0.0000E+00  0.7030E+16
   -0.262468    0.96081  0.0000E+00  0.4096E-13  0.8590E-16  0.1000E-09  0.0000E+00  0.6700E+16
   -0.299965    1.09871  0.0000E+00  0.4096E-13  0.8590E-16  0.1000E-09  0.0000E+00  0.6365E+16
   -0.337462    1.23644  0.0000E+00  0.4096E-13  0.8590E-16  0.1000E-09  0.0000E+00  0.6027E+16
   -0.374959    1.37386  0.0000E+00  0.4096E-13  0.8590E-16  0.1000E-09  0.0000E+00  0.5689E+16
   -0.412456    1.51088  0.0000E+00  0.4096E-13  0.8590E-16  0.1000E-09  0.0000E+00  0.5352E+16
   -0.449954    1.64741  0.0000E+00  0.4096E-13  0.8590E-16  0.1000E-09  0.0000E+00  0.5013E+16
   -0.487451    1.78326  0.0000E+00  0.4096E-13  0.8590E-16  0.1000E-09  0.0000E+00  0.4674E+16
   -0.524949    1.91825  0.0000E+00  0.4096E-13  0.8590E-16  0.1000E-09  0.0000E+00  0.4332E+16
   -0.562447    2.05208  0.0000E+00  0.4096E-13  0.8590E-16  0.1000E-09  0.0000E+00  0.3994E+16
   -0.599945    2.18455  0.0000E+00  0.4096E-13  0.8590E-16  0.1000E-09  0.0000E+00  0.3662E+16
   -0.637443    2.31549  0.0000E+00  0.6316E-13  0.8590E-16  0.1000E-09  0.0000E+00  0.3336E+16
   -0.674941    2.44470  0.0000E+00  0.2492E-12  0.9679E-16  0.1000E-09  0.0000E+00  0.3018E+16
   -0.712439    2.57200  0.0000E+00  0.6240E-12  0.1764E-15  0.1000E-09  0.0000E+00  0.2709E+16
   -0.749937    2.69721  0.0000E+00  0.1344E-11  0.3465E-15  0.1000E-09  0.0000E+00  0.2420E+16
   -0.787435    2.82063  0.0000E+00  0.2744E-11  0.6799E-15  0.1000E-09  0.0000E+00  0.2143E+16
   -0.824933    2.94229  0.0000E+00  0.5477E-11  0.1322E-14  0.1000E-09  0.0000E+00  0.1875E+16
   -0.862431    3.06202  0.0000E+00  0.1081E-10  0.2551E-14  0.1000E-09  0.0000E+00  0.1617E+16
   -0.899929    3.17968  0.0000E+00  0.2116E-10  0.4887E-14  0.1000E-09  0.0000E+00  0.1370E+16
   -0.937427    3.29510  0.0000E+00  0.4115E-10  0.9304E-14  0.1000E-09  0.0000E+00  0.1135E+16
   -0.974925    3.40813  0.0000E+00  0.7954E-10  0.1761E-13  0.1000E-09  0.0000E+00  0.9126E+15
   -1.012422    3.51862  0.0000E+00  0.1531E-09  0.3320E-13  0.1314E-09  0.0000E+00  0.7004E+15
   -1.049920    3.62589  0.0000E+00  0.2940E-09  0.6246E-13  0.3440E-09  0.0000E+00  0.5032E+15
   -1.087417    3.72946  0.0000E+00  0.5618E-09  0.1170E-12  0.1002E-08  0.0000E+00  0.3233E+15
   -1.124914    3.82873  0.0000E+00  0.1067E-08  0.2179E-12  0.3637E-08  0.0000E+00  0.1656E+15
   -1.162412    3.92531  0.0000E+00  0.1983E-08  0.3982E-12  0.3977E-07  0.0000E+00  0.2722E+14
   -1.199908    4.00231  0.0000E+00  0.2797E-08  0.5652E-12  0.5592E-05  0.0000E+00 -0.6544E+12
   -1.237405    4.00474  0.0000E+00  0.3184E-08  0.6700E-12  0.5949E-05  0.0000E+00 -0.7039E+12
   -1.274901    4.00703  0.0000E+00  0.3464E-08  0.7831E-12  0.5868E-05  0.0000E+00 -0.8031E+12
   -1.312398    4.00938  0.0000E+00  0.3641E-08  0.9190E-12  0.5348E-05  0.0000E+00 -0.9864E+12
   -1.349893    4.01196  0.0000E+00  0.3693E-08  0.1103E-11  0.4389E-05  0.0000E+00 -0.1351E+13
   -1.387389    4.01513  0.0000E+00  0.3567E-08  0.1397E-11  0.3023E-05  0.0000E+00 -0.2245E+13
   -1.424884    4.01974  0.0000E+00  0.3128E-08  0.2011E-11  0.1439E-05  0.0000E+00 -0.5633E+13
   -1.462379    4.02917  0.0000E+00  0.2159E-08  0.3969E-11  0.2663E-06  0.0000E+00 -0.3664E+14
   -1.499873    4.06705  0.0000E+00  0.0000E+00  0.0000E+00  0.0000E+00  0.0000E+00  0.0000E+00
