 1 - depth, m
 2 - temperature, C
 3 - salinity, kg/kg
 4 - turbulent kinetic energy, m**2/s**2
 5 - dissipation rate, m**2/s**3
 6 - kinematic heat conductance, m**2/s
 7 - modulus of horizontal velocity, m/s
 8 - Richardson number, n/d
   -0.000000    0.00000  0.0000E+00  0.4096E-13  0.8590E-16  0.1000E-09  0.0000E+00  0.1105E+17
   -0.037493    0.16960  0.0000E+00  0.4096E-13  0.8590E-16  0.1000E-09  0.0000E+00  0.1041E+17
   -0.074986    0.33713  0.0000E+00  0.4096E-13  0.8590E-16  0.1000E-09  0.0000E+00  0.9804E+16
   -0.112480    0.50269  0.0000E+00  0.4096E-13  0.8590E-16  0.1000E-09  0.0000E+00  0.9219E+16
   -0.149974    0.66637  0.0000E+00  0.4096E-13  0.8590E-16  0.1000E-09  0.0000E+00  0.8654E+16
   -0.187469    0.82819  0.0000E+00  0.4096E-13  0.8590E-16  0.1000E-09  0.0000E+00  0.8108E+16
   -0.224963    0.98816  0.0000E+00  0.4096E-13  0.8590E-16  0.1000E-09  0.0000E+00  0.7579E+16
   -0.262458    1.14625  0.0000E+00  0.4096E-13  0.8590E-16  0.1000E-09  0.0000E+00  0.7063E+16
   -0.299953    1.30237  0.0000E+00  0.4096E-13  0.8590E-16  0.1000E-09  0.0000E+00  0.6562E+16
   -0.337449    1.45644  0.0000E+00  0.4096E-13  0.8590E-16  0.1000E-09  0.0000E+00  0.6077E+16
   -0.374944    1.60838  0.0000E+00  0.4125E-13  0.8590E-16  0.1000E-09  0.0000E+00  0.5619E+16
   -0.412440    1.75847  0.0000E+00  0.1575E-12  0.8590E-16  0.1000E-09  0.0000E+00  0.5181E+16
   -0.449936    1.90683  0.0000E+00  0.4372E-12  0.1044E-15  0.1000E-09  0.0000E+00  0.4756E+16
   -0.487432    2.05337  0.0000E+00  0.9168E-12  0.1676E-15  0.1000E-09  0.0000E+00  0.4343E+16
   -0.524928    2.19801  0.0000E+00  0.1720E-11  0.2857E-15  0.1000E-09  0.0000E+00  0.3942E+16
   -0.562425    2.34060  0.0000E+00  0.3075E-11  0.4892E-15  0.1000E-09  0.0000E+00  0.3555E+16
   -0.599921    2.48105  0.0000E+00  0.5377E-11  0.8330E-15  0.1000E-09  0.0000E+00  0.3181E+16
   -0.637418    2.61925  0.0000E+00  0.9292E-11  0.1410E-14  0.1000E-09  0.0000E+00  0.2822E+16
   -0.674914    2.75509  0.0000E+00  0.1594E-10  0.2374E-14  0.1000E-09  0.0000E+00  0.2479E+16
   -0.712411    2.88848  0.0000E+00  0.2720E-10  0.3979E-14  0.1000E-09  0.0000E+00  0.2151E+16
   -0.749908    3.01929  0.0000E+00  0.4620E-10  0.6641E-14  0.1000E-09  0.0000E+00  0.1848E+16
   -0.787404    3.14814  0.0000E+00  0.7813E-10  0.1104E-13  0.1000E-09  0.0000E+00  0.1561E+16
   -0.824901    3.27518  0.0000E+00  0.1316E-09  0.1828E-13  0.1000E-09  0.0000E+00  0.1285E+16
   -0.862397    3.40033  0.0000E+00  0.2208E-09  0.3015E-13  0.1000E-09  0.0000E+00  0.1020E+16
   -0.899894    3.52346  0.0000E+00  0.3690E-09  0.4955E-13  0.1793E-09  0.0000E+00  0.7671E+15
   -0.937390    3.64437  0.0000E+00  0.6145E-09  0.8114E-13  0.4275E-09  0.0000E+00  0.5268E+15
   -0.974887    3.76277  0.0000E+00  0.1019E-08  0.1324E-12  0.1223E-08  0.0000E+00  0.3003E+15
   -1.012383    3.87802  0.0000E+00  0.1682E-08  0.2150E-12  0.6510E-08  0.0000E+00  0.9194E+14
   -1.049879    3.98640  0.0000E+00  0.2238E-08  0.2868E-12  0.3609E-05  0.0000E+00 -0.1378E+12
   -1.087375    3.99103  0.0000E+00  0.2599E-08  0.3448E-12  0.5876E-05  0.0000E+00 -0.2418E+12
   -1.124871    3.99362  0.0000E+00  0.2909E-08  0.4050E-12  0.6996E-05  0.0000E+00 -0.2849E+12
   -1.162366    3.99579  0.0000E+00  0.3183E-08  0.4705E-12  0.7580E-05  0.0000E+00 -0.3298E+12
   -1.199862    3.99780  0.0000E+00  0.3420E-08  0.5434E-12  0.7743E-05  0.0000E+00 -0.3855E+12
   -1.237357    3.99977  0.0000E+00  0.3614E-08  0.6271E-12  0.7538E-05  0.0000E+00 -0.4613E+12
   -1.274852    4.00181  0.0000E+00  0.3759E-08  0.7296E-12  0.6972E-05  0.0000E+00 -0.5754E+12
   -1.312346    4.00402  0.0000E+00  0.3841E-08  0.8641E-12  0.6034E-05  0.0000E+00 -0.7658E+12
   -1.349841    4.00659  0.0000E+00  0.3832E-08  0.1058E-11  0.4738E-05  0.0000E+00 -0.1134E+13
   -1.387335    4.00989  0.0000E+00  0.3669E-08  0.1382E-11  0.3139E-05  0.0000E+00 -0.2040E+13
   -1.424829    4.01489  0.0000E+00  0.3215E-08  0.2067E-11  0.1454E-05  0.0000E+00 -0.5575E+13
   -1.462322    4.02540  0.0000E+00  0.2260E-08  0.4230E-11  0.2786E-06  0.0000E+00 -0.3875E+14
   -1.499815    4.06680  0.0000E+00  0.0000E+00  0.0000E+00  0.0000E+00  0.0000E+00  0.0000E+00
