 1 - depth, m
 2 - temperature, C
 3 - salinity, kg/kg
 4 - turbulent kinetic energy, m**2/s**2
 5 - dissipation rate, m**2/s**3
 6 - kinematic heat conductance, m**2/s
 7 - modulus of horizontal velocity, m/s
 8 - Richardson number, n/d
   -0.000000    0.00000  0.0000E+00  0.4096E-13  0.8590E-16  0.1000E-09  0.0000E+00  0.8724E+16
   -0.037497    0.13325  0.0000E+00  0.4096E-13  0.8590E-16  0.1000E-09  0.0000E+00  0.8394E+16
   -0.074995    0.26627  0.0000E+00  0.4096E-13  0.8590E-16  0.1000E-09  0.0000E+00  0.8072E+16
   -0.112493    0.39913  0.0000E+00  0.4096E-13  0.8590E-16  0.1000E-09  0.0000E+00  0.7752E+16
   -0.149992    0.53184  0.0000E+00  0.4096E-13  0.8590E-16  0.1000E-09  0.0000E+00  0.7433E+16
   -0.187491    0.66437  0.0000E+00  0.4096E-13  0.8590E-16  0.1000E-09  0.0000E+00  0.7114E+16
   -0.224990    0.79665  0.0000E+00  0.4096E-13  0.8590E-16  0.1000E-09  0.0000E+00  0.6793E+16
   -0.262489    0.92862  0.0000E+00  0.4096E-13  0.8590E-16  0.1000E-09  0.0000E+00  0.6469E+16
   -0.299989    1.06010  0.0000E+00  0.4096E-13  0.8590E-16  0.1000E-09  0.0000E+00  0.6144E+16
   -0.337488    1.19101  0.0000E+00  0.4096E-13  0.8590E-16  0.1000E-09  0.0000E+00  0.5821E+16
   -0.374988    1.32122  0.0000E+00  0.4096E-13  0.8590E-16  0.1000E-09  0.0000E+00  0.5504E+16
   -0.412489    1.45078  0.0000E+00  0.4096E-13  0.8590E-16  0.1000E-09  0.0000E+00  0.5191E+16
   -0.449989    1.57965  0.0000E+00  0.4096E-13  0.8590E-16  0.1000E-09  0.0000E+00  0.4881E+16
   -0.487489    1.70775  0.0000E+00  0.4096E-13  0.8590E-16  0.1000E-09  0.0000E+00  0.4574E+16
   -0.524990    1.83495  0.0000E+00  0.4096E-13  0.8590E-16  0.1000E-09  0.0000E+00  0.4267E+16
   -0.562491    1.96108  0.0000E+00  0.4096E-13  0.8590E-16  0.1000E-09  0.0000E+00  0.3964E+16
   -0.599992    2.08601  0.0000E+00  0.4096E-13  0.8590E-16  0.1000E-09  0.0000E+00  0.3667E+16
   -0.637493    2.20964  0.0000E+00  0.4096E-13  0.8590E-16  0.1000E-09  0.0000E+00  0.3376E+16
   -0.674993    2.33185  0.0000E+00  0.4096E-13  0.8590E-16  0.1000E-09  0.0000E+00  0.3091E+16
   -0.712494    2.45252  0.0000E+00  0.4096E-13  0.8590E-16  0.1000E-09  0.0000E+00  0.2814E+16
   -0.749995    2.57152  0.0000E+00  0.4096E-13  0.8590E-16  0.1000E-09  0.0000E+00  0.2551E+16
   -0.787497    2.68905  0.0000E+00  0.4351E-13  0.8590E-16  0.1000E-09  0.0000E+00  0.2298E+16
   -0.824998    2.80511  0.0000E+00  0.2078E-12  0.1020E-15  0.1000E-09  0.0000E+00  0.2052E+16
   -0.862498    2.91957  0.0000E+00  0.5710E-12  0.2101E-15  0.1000E-09  0.0000E+00  0.1813E+16
   -0.899999    3.03229  0.0000E+00  0.1345E-11  0.4590E-15  0.1000E-09  0.0000E+00  0.1583E+16
   -0.937500    3.14312  0.0000E+00  0.3018E-11  0.9944E-15  0.1000E-09  0.0000E+00  0.1361E+16
   -0.975001    3.25191  0.0000E+00  0.6641E-11  0.2131E-14  0.1000E-09  0.0000E+00  0.1149E+16
   -1.012502    3.35849  0.0000E+00  0.1448E-10  0.4535E-14  0.1000E-09  0.0000E+00  0.9449E+15
   -1.050002    3.46227  0.0000E+00  0.3142E-10  0.9606E-14  0.1000E-09  0.0000E+00  0.7524E+15
   -1.087502    3.56289  0.0000E+00  0.6770E-10  0.2022E-13  0.1000E-09  0.0000E+00  0.5739E+15
   -1.125003    3.66006  0.0000E+00  0.1449E-09  0.4229E-13  0.2781E-09  0.0000E+00  0.4201E+15
   -1.162503    3.75602  0.0000E+00  0.3078E-09  0.8787E-13  0.8890E-09  0.0000E+00  0.2724E+15
   -1.200002    3.85085  0.0000E+00  0.6489E-09  0.1813E-12  0.3839E-08  0.0000E+00  0.1293E+15
   -1.237502    3.94304  0.0000E+00  0.1323E-08  0.3633E-12  0.7379E-07  0.0000E+00  0.1203E+14
   -1.275001    4.00483  0.0000E+00  0.2180E-08  0.6078E-12  0.3241E-05  0.0000E+00 -0.1261E+13
   -1.312500    4.00876  0.0000E+00  0.2605E-08  0.7839E-12  0.3405E-05  0.0000E+00 -0.1440E+13
   -1.349999    4.01253  0.0000E+00  0.2854E-08  0.9875E-12  0.3081E-05  0.0000E+00 -0.1860E+13
   -1.387498    4.01673  0.0000E+00  0.2899E-08  0.1276E-11  0.2300E-05  0.0000E+00 -0.2913E+13
   -1.424996    4.02233  0.0000E+00  0.2638E-08  0.1824E-11  0.1189E-05  0.0000E+00 -0.6744E+13
   -1.462494    4.03277  0.0000E+00  0.1890E-08  0.3457E-11  0.2430E-06  0.0000E+00 -0.3770E+14
   -1.499991    4.06984  0.0000E+00  0.0000E+00  0.0000E+00  0.0000E+00  0.0000E+00  0.0000E+00
