 1 - depth, m
 2 - temperature, C
 3 - salinity, kg/kg
 4 - turbulent kinetic energy, m**2/s**2
 5 - dissipation rate, m**2/s**3
 6 - kinematic heat conductance, m**2/s
 7 - modulus of horizontal velocity, m/s
 8 - Richardson number, n/d
   -0.000000   10.07697  0.0000E+00  0.4726E-04  0.9378E-05  0.3618E-04  0.5110E-01 -0.5233E-01
   -0.037497   10.12049  0.0000E+00  0.3051E-04  0.2771E-05  0.5529E-04  0.2384E-01 -0.3054E-01
   -0.074994   10.13136  0.0000E+00  0.2452E-04  0.1325E-05  0.7087E-04  0.1846E-01 -0.2861E-01
   -0.112492   10.13883  0.0000E+00  0.2082E-04  0.7458E-06  0.8639E-04  0.1527E-01 -0.4217E-01
   -0.149990   10.14473  0.0000E+00  0.1819E-04  0.4656E-06  0.1020E-03  0.1293E-01 -0.5782E-01
   -0.187488   10.14962  0.0000E+00  0.1619E-04  0.3132E-06  0.1178E-03  0.1109E-01 -0.7617E-01
   -0.224987   10.15381  0.0000E+00  0.1461E-04  0.2225E-06  0.1340E-03  0.9592E-02 -0.9505E-01
   -0.262486   10.15743  0.0000E+00  0.1331E-04  0.1647E-06  0.1570E-03  0.8352E-02 -0.3194E-01
   -0.299985   10.16051  0.0000E+00  0.1224E-04  0.1263E-06  0.2377E-03  0.7327E-02  0.4111E+02
   -0.337484   10.16287  0.0000E+00  0.1136E-04  0.9987E-07  0.2934E-03  0.6494E-02  0.2956E+03
   -0.374984   10.16481  0.0000E+00  0.1062E-04  0.8087E-07  0.3312E-03  0.5780E-02  0.6906E+02
   -0.412484   10.16647  0.0000E+00  0.9996E-05  0.6682E-07  0.3695E-03  0.5158E-02  0.2519E+02
   -0.449983   10.16789  0.0000E+00  0.9457E-05  0.5617E-07  0.4035E-03  0.4613E-02  0.3833E+02
   -0.487483   10.16912  0.0000E+00  0.8986E-05  0.4789E-07  0.4439E-03  0.4127E-02  0.2325E+02
   -0.524984   10.17017  0.0000E+00  0.8567E-05  0.4130E-07  0.4742E-03  0.3691E-02  0.5566E+02
   -0.562484   10.17110  0.0000E+00  0.8188E-05  0.3592E-07  0.4901E-03  0.3298E-02  0.1088E+02
   -0.599984   10.17197  0.0000E+00  0.7840E-05  0.3146E-07  0.5016E-03  0.2941E-02  0.9229E+01
   -0.637485   10.17280  0.0000E+00  0.7518E-05  0.2773E-07  0.5108E-03  0.2617E-02  0.4514E+01
   -0.674985   10.17360  0.0000E+00  0.7218E-05  0.2459E-07  0.5196E-03  0.2322E-02  0.3124E+01
   -0.712486   10.17438  0.0000E+00  0.6936E-05  0.2193E-07  0.5281E-03  0.2053E-02  0.2844E+01
   -0.749986   10.17514  0.0000E+00  0.6669E-05  0.1966E-07  0.5368E-03  0.1810E-02  0.2621E+01
   -0.787487   10.17587  0.0000E+00  0.6414E-05  0.1774E-07  0.5457E-03  0.1589E-02  0.2430E+01
   -0.824987   10.17659  0.0000E+00  0.6170E-05  0.1611E-07  0.5549E-03  0.1390E-02  0.2264E+01
   -0.862488   10.17728  0.0000E+00  0.5935E-05  0.1473E-07  0.5643E-03  0.1210E-02  0.2117E+01
   -0.899988   10.17795  0.0000E+00  0.5706E-05  0.1358E-07  0.5741E-03  0.1048E-02  0.1987E+01
   -0.937489   10.17861  0.0000E+00  0.5484E-05  0.1262E-07  0.5842E-03  0.9027E-03  0.1872E+01
   -0.974989   10.17925  0.0000E+00  0.5268E-05  0.1185E-07  0.5954E-03  0.7724E-03  0.1773E+01
   -1.012489   10.17987  0.0000E+00  0.5057E-05  0.1124E-07  0.6111E-03  0.6557E-03  0.1602E+01
   -1.049989   10.18047  0.0000E+00  0.4855E-05  0.1079E-07  0.6155E-03  0.5554E-03  0.1442E+01
   -1.087489   10.18105  0.0000E+00  0.4663E-05  0.1049E-07  0.6063E-03  0.4707E-03  0.1298E+01
   -1.124989   10.18164  0.0000E+00  0.4484E-05  0.1033E-07  0.5818E-03  0.3998E-03  0.1161E+01
   -1.162488   10.18224  0.0000E+00  0.4318E-05  0.1030E-07  0.5462E-03  0.3411E-03  0.1030E+01
   -1.199988   10.18287  0.0000E+00  0.4166E-05  0.1039E-07  0.5063E-03  0.2927E-03  0.9310E+00
   -1.237487   10.18354  0.0000E+00  0.4026E-05  0.1061E-07  0.4675E-03  0.2530E-03  0.9589E+00
   -1.274986   10.18427  0.0000E+00  0.3887E-05  0.1098E-07  0.4273E-03  0.2200E-03  0.1218E+01
   -1.312484   10.18505  0.0000E+00  0.3736E-05  0.1160E-07  0.3800E-03  0.1924E-03  0.2031E+01
   -1.349983   10.18592  0.0000E+00  0.3558E-05  0.1264E-07  0.3231E-03  0.1674E-03  0.4149E+01
   -1.387481   10.18694  0.0000E+00  0.3338E-05  0.1451E-07  0.2482E-03  0.1443E-03  0.1159E+02
   -1.424978   10.18824  0.0000E+00  0.3040E-05  0.1834E-07  0.1899E-03  0.1229E-03  0.4476E+02
   -1.462476   10.18993  0.0000E+00  0.1886E-05  0.4532E-07  0.1264E-04  0.1068E-03 -0.4983E+04
   -1.499973   10.21472  0.0000E+00  0.0000E+00  0.0000E+00  0.0000E+00  0.1067E-03  0.0000E+00
