 1 - depth, m
 2 - temperature, C
 3 - salinity, kg/kg
 4 - turbulent kinetic energy, m**2/s**2
 5 - dissipation rate, m**2/s**3
 6 - kinematic heat conductance, m**2/s
 7 - modulus of horizontal velocity, m/s
 8 - Richardson number, n/d
   -0.000000    0.00000  0.0000E+00  0.4096E-13  0.8590E-16  0.1000E-09  0.0000E+00  0.1113E+17
   -0.037502    0.17085  0.0000E+00  0.4096E-13  0.8590E-16  0.1000E-09  0.0000E+00  0.1047E+17
   -0.075005    0.33939  0.0000E+00  0.4096E-13  0.8590E-16  0.1000E-09  0.0000E+00  0.9841E+16
   -0.112508    0.50572  0.0000E+00  0.4096E-13  0.8590E-16  0.1000E-09  0.0000E+00  0.9239E+16
   -0.150011    0.66992  0.0000E+00  0.4096E-13  0.8590E-16  0.1000E-09  0.0000E+00  0.8660E+16
   -0.187514    0.83203  0.0000E+00  0.4096E-13  0.8590E-16  0.1000E-09  0.0000E+00  0.8102E+16
   -0.225018    0.99209  0.0000E+00  0.4096E-13  0.8590E-16  0.1000E-09  0.0000E+00  0.7565E+16
   -0.262522    1.15011  0.0000E+00  0.4096E-13  0.8590E-16  0.1000E-09  0.0000E+00  0.7044E+16
   -0.300026    1.30601  0.0000E+00  0.4096E-13  0.8590E-16  0.1000E-09  0.0000E+00  0.6540E+16
   -0.337531    1.45977  0.0000E+00  0.4096E-13  0.8590E-16  0.1000E-09  0.0000E+00  0.6052E+16
   -0.375036    1.61131  0.0000E+00  0.4096E-13  0.8590E-16  0.1000E-09  0.0000E+00  0.5595E+16
   -0.412541    1.76093  0.0000E+00  0.8677E-13  0.8590E-16  0.1000E-09  0.0000E+00  0.5159E+16
   -0.450046    1.90879  0.0000E+00  0.2734E-12  0.9347E-16  0.1000E-09  0.0000E+00  0.4735E+16
   -0.487551    2.05482  0.0000E+00  0.6426E-12  0.1373E-15  0.1000E-09  0.0000E+00  0.4325E+16
   -0.525056    2.19892  0.0000E+00  0.1284E-11  0.2360E-15  0.1000E-09  0.0000E+00  0.3926E+16
   -0.562562    2.34099  0.0000E+00  0.2394E-11  0.4153E-15  0.1000E-09  0.0000E+00  0.3541E+16
   -0.600067    2.48093  0.0000E+00  0.4329E-11  0.7287E-15  0.1000E-09  0.0000E+00  0.3171E+16
   -0.637573    2.61864  0.0000E+00  0.7712E-11  0.1271E-14  0.1000E-09  0.0000E+00  0.2814E+16
   -0.675079    2.75401  0.0000E+00  0.1362E-10  0.2203E-14  0.1000E-09  0.0000E+00  0.2473E+16
   -0.712584    2.88690  0.0000E+00  0.2392E-10  0.3801E-14  0.1000E-09  0.0000E+00  0.2146E+16
   -0.750090    3.01718  0.0000E+00  0.4179E-10  0.6528E-14  0.1000E-09  0.0000E+00  0.1843E+16
   -0.787596    3.14531  0.0000E+00  0.7269E-10  0.1116E-13  0.1000E-09  0.0000E+00  0.1555E+16
   -0.825101    3.27134  0.0000E+00  0.1259E-09  0.1902E-13  0.1000E-09  0.0000E+00  0.1279E+16
   -0.862607    3.39507  0.0000E+00  0.2172E-09  0.3226E-13  0.1063E-09  0.0000E+00  0.1016E+16
   -0.900113    3.51629  0.0000E+00  0.3731E-09  0.5451E-13  0.1970E-09  0.0000E+00  0.7675E+15
   -0.937618    3.63479  0.0000E+00  0.6382E-09  0.9174E-13  0.4748E-09  0.0000E+00  0.5344E+15
   -0.975124    3.75042  0.0000E+00  0.1087E-08  0.1538E-12  0.1332E-08  0.0000E+00  0.3170E+15
   -1.012629    3.86292  0.0000E+00  0.1843E-08  0.2566E-12  0.6141E-08  0.0000E+00  0.1154E+15
   -1.050134    3.96950  0.0000E+00  0.2679E-08  0.3738E-12  0.2219E-05  0.0000E+00  0.3766E+13
   -1.087639    3.99594  0.0000E+00  0.3197E-08  0.4549E-12  0.7904E-05  0.0000E+00 -0.2976E+12
   -1.125144    3.99793  0.0000E+00  0.3527E-08  0.5181E-12  0.8741E-05  0.0000E+00 -0.3259E+12
   -1.162649    3.99970  0.0000E+00  0.3807E-08  0.5855E-12  0.9141E-05  0.0000E+00 -0.3612E+12
   -1.200154    4.00139  0.0000E+00  0.4039E-08  0.6596E-12  0.9147E-05  0.0000E+00 -0.4092E+12
   -1.237658    4.00308  0.0000E+00  0.4220E-08  0.7445E-12  0.8785E-05  0.0000E+00 -0.4776E+12
   -1.275162    4.00485  0.0000E+00  0.4344E-08  0.8483E-12  0.8055E-05  0.0000E+00 -0.5830E+12
   -1.312666    4.00679  0.0000E+00  0.4396E-08  0.9852E-12  0.6930E-05  0.0000E+00 -0.7605E+12
   -1.350169    4.00907  0.0000E+00  0.4346E-08  0.1184E-11  0.5416E-05  0.0000E+00 -0.1104E+13
   -1.387672    4.01200  0.0000E+00  0.4126E-08  0.1519E-11  0.3570E-05  0.0000E+00 -0.1950E+13
   -1.425175    4.01649  0.0000E+00  0.3580E-08  0.2243E-11  0.1629E-05  0.0000E+00 -0.5263E+13
   -1.462678    4.02611  0.0000E+00  0.2451E-08  0.4612E-11  0.2929E-06  0.0000E+00 -0.3801E+14
   -1.500180    4.06657  0.0000E+00  0.0000E+00  0.0000E+00  0.0000E+00  0.0000E+00  0.0000E+00
