 1 - depth, m
 2 - temperature, C
 3 - salinity, kg/kg
 4 - turbulent kinetic energy, m**2/s**2
 5 - dissipation rate, m**2/s**3
 6 - kinematic heat conductance, m**2/s
 7 - modulus of horizontal velocity, m/s
 8 - Richardson number, n/d
   -0.000000    0.00000  0.0000E+00  0.4096E-13  0.8590E-16  0.1000E-09  0.0000E+00  0.9028E+16
   -0.037493    0.13798  0.0000E+00  0.4096E-13  0.8590E-16  0.1000E-09  0.0000E+00  0.8631E+16
   -0.074985    0.27501  0.0000E+00  0.4096E-13  0.8590E-16  0.1000E-09  0.0000E+00  0.8241E+16
   -0.112479    0.41107  0.0000E+00  0.4096E-13  0.8590E-16  0.1000E-09  0.0000E+00  0.7859E+16
   -0.149972    0.54615  0.0000E+00  0.4096E-13  0.8590E-16  0.1000E-09  0.0000E+00  0.7484E+16
   -0.187466    0.68022  0.0000E+00  0.4096E-13  0.8590E-16  0.1000E-09  0.0000E+00  0.7118E+16
   -0.224960    0.81329  0.0000E+00  0.4096E-13  0.8590E-16  0.1000E-09  0.0000E+00  0.6760E+16
   -0.262455    0.94535  0.0000E+00  0.4096E-13  0.8590E-16  0.1000E-09  0.0000E+00  0.6406E+16
   -0.299949    1.07631  0.0000E+00  0.4096E-13  0.8590E-16  0.1000E-09  0.0000E+00  0.6060E+16
   -0.337444    1.20617  0.0000E+00  0.4096E-13  0.8590E-16  0.1000E-09  0.0000E+00  0.5721E+16
   -0.374939    1.33487  0.0000E+00  0.4096E-13  0.8590E-16  0.1000E-09  0.0000E+00  0.5397E+16
   -0.412434    1.46257  0.0000E+00  0.4096E-13  0.8590E-16  0.1000E-09  0.0000E+00  0.5083E+16
   -0.449930    1.58932  0.0000E+00  0.4096E-13  0.8590E-16  0.1000E-09  0.0000E+00  0.4775E+16
   -0.487425    1.71508  0.0000E+00  0.4096E-13  0.8590E-16  0.1000E-09  0.0000E+00  0.4471E+16
   -0.524921    1.83980  0.0000E+00  0.4096E-13  0.8590E-16  0.1000E-09  0.0000E+00  0.4172E+16
   -0.562417    1.96335  0.0000E+00  0.4096E-13  0.8590E-16  0.1000E-09  0.0000E+00  0.3879E+16
   -0.599913    2.08566  0.0000E+00  0.4096E-13  0.8590E-16  0.1000E-09  0.0000E+00  0.3592E+16
   -0.637409    2.20664  0.0000E+00  0.4096E-13  0.8590E-16  0.1000E-09  0.0000E+00  0.3311E+16
   -0.674905    2.32621  0.0000E+00  0.4096E-13  0.8590E-16  0.1000E-09  0.0000E+00  0.3038E+16
   -0.712401    2.44427  0.0000E+00  0.4096E-13  0.8590E-16  0.1000E-09  0.0000E+00  0.2771E+16
   -0.749897    2.56071  0.0000E+00  0.4096E-13  0.8590E-16  0.1000E-09  0.0000E+00  0.2519E+16
   -0.787393    2.67571  0.0000E+00  0.4096E-13  0.8590E-16  0.1000E-09  0.0000E+00  0.2275E+16
   -0.824889    2.78926  0.0000E+00  0.1165E-12  0.8590E-16  0.1000E-09  0.0000E+00  0.2039E+16
   -0.862385    2.90127  0.0000E+00  0.3575E-12  0.1444E-15  0.1000E-09  0.0000E+00  0.1810E+16
   -0.899881    3.01162  0.0000E+00  0.8796E-12  0.3086E-15  0.1000E-09  0.0000E+00  0.1589E+16
   -0.937377    3.12020  0.0000E+00  0.2004E-11  0.6699E-15  0.1000E-09  0.0000E+00  0.1376E+16
   -0.974873    3.22690  0.0000E+00  0.4437E-11  0.1440E-14  0.1000E-09  0.0000E+00  0.1173E+16
   -1.012369    3.33159  0.0000E+00  0.9712E-11  0.3074E-14  0.1000E-09  0.0000E+00  0.9762E+15
   -1.049864    3.43385  0.0000E+00  0.2113E-10  0.6527E-14  0.1000E-09  0.0000E+00  0.7903E+15
   -1.087360    3.53342  0.0000E+00  0.4563E-10  0.1377E-13  0.1000E-09  0.0000E+00  0.6164E+15
   -1.124855    3.63005  0.0000E+00  0.9786E-10  0.2885E-13  0.1718E-09  0.0000E+00  0.4640E+15
   -1.162350    3.72561  0.0000E+00  0.2084E-09  0.6006E-13  0.5225E-09  0.0000E+00  0.3172E+15
   -1.199845    3.82017  0.0000E+00  0.4407E-09  0.1242E-12  0.1957E-08  0.0000E+00  0.1744E+15
   -1.237339    3.91299  0.0000E+00  0.9189E-09  0.2539E-12  0.1640E-07  0.0000E+00  0.4131E+14
   -1.274834    3.99662  0.0000E+00  0.1630E-08  0.4503E-12  0.2164E-05  0.0000E+00 -0.1174E+13
   -1.312328    4.00233  0.0000E+00  0.2043E-08  0.6159E-12  0.2552E-05  0.0000E+00 -0.1416E+13
   -1.349822    4.00723  0.0000E+00  0.2317E-08  0.8128E-12  0.2431E-05  0.0000E+00 -0.1899E+13
   -1.387315    4.01239  0.0000E+00  0.2419E-08  0.1090E-11  0.1877E-05  0.0000E+00 -0.3057E+13
   -1.424808    4.01903  0.0000E+00  0.2256E-08  0.1599E-11  0.1009E-05  0.0000E+00 -0.7152E+13
   -1.462301    4.03085  0.0000E+00  0.1676E-08  0.3029E-11  0.2242E-06  0.0000E+00 -0.3786E+14
   -1.499794    4.06890  0.0000E+00  0.0000E+00  0.0000E+00  0.0000E+00  0.0000E+00  0.0000E+00
