 1 - depth, m
 2 - temperature, C
 3 - salinity, kg/kg
 4 - turbulent kinetic energy, m**2/s**2
 5 - dissipation rate, m**2/s**3
 6 - kinematic heat conductance, m**2/s
 7 - modulus of horizontal velocity, m/s
 8 - Richardson number, n/d
   -0.000000    0.00000  0.0000E+00  0.4096E-13  0.8590E-16  0.1000E-09  0.0000E+00  0.9026E+16
   -0.037495    0.13795  0.0000E+00  0.4096E-13  0.8590E-16  0.1000E-09  0.0000E+00  0.8627E+16
   -0.074990    0.27492  0.0000E+00  0.4096E-13  0.8590E-16  0.1000E-09  0.0000E+00  0.8238E+16
   -0.112486    0.41093  0.0000E+00  0.4096E-13  0.8590E-16  0.1000E-09  0.0000E+00  0.7857E+16
   -0.149982    0.54597  0.0000E+00  0.4096E-13  0.8590E-16  0.1000E-09  0.0000E+00  0.7484E+16
   -0.187478    0.68003  0.0000E+00  0.4096E-13  0.8590E-16  0.1000E-09  0.0000E+00  0.7118E+16
   -0.224975    0.81308  0.0000E+00  0.4096E-13  0.8590E-16  0.1000E-09  0.0000E+00  0.6759E+16
   -0.262472    0.94512  0.0000E+00  0.4096E-13  0.8590E-16  0.1000E-09  0.0000E+00  0.6405E+16
   -0.299969    1.07605  0.0000E+00  0.4096E-13  0.8590E-16  0.1000E-09  0.0000E+00  0.6057E+16
   -0.337466    1.20583  0.0000E+00  0.4096E-13  0.8590E-16  0.1000E-09  0.0000E+00  0.5717E+16
   -0.374964    1.33443  0.0000E+00  0.4096E-13  0.8590E-16  0.1000E-09  0.0000E+00  0.5392E+16
   -0.412461    1.46198  0.0000E+00  0.4096E-13  0.8590E-16  0.1000E-09  0.0000E+00  0.5077E+16
   -0.449959    1.58854  0.0000E+00  0.4096E-13  0.8590E-16  0.1000E-09  0.0000E+00  0.4768E+16
   -0.487457    1.71407  0.0000E+00  0.4096E-13  0.8590E-16  0.1000E-09  0.0000E+00  0.4464E+16
   -0.524955    1.83852  0.0000E+00  0.4096E-13  0.8590E-16  0.1000E-09  0.0000E+00  0.4165E+16
   -0.562454    1.96176  0.0000E+00  0.4096E-13  0.8590E-16  0.1000E-09  0.0000E+00  0.3872E+16
   -0.599952    2.08374  0.0000E+00  0.4096E-13  0.8590E-16  0.1000E-09  0.0000E+00  0.3585E+16
   -0.637450    2.20436  0.0000E+00  0.4096E-13  0.8590E-16  0.1000E-09  0.0000E+00  0.3306E+16
   -0.674949    2.32355  0.0000E+00  0.4096E-13  0.8590E-16  0.1000E-09  0.0000E+00  0.3033E+16
   -0.712447    2.44121  0.0000E+00  0.4096E-13  0.8590E-16  0.1000E-09  0.0000E+00  0.2768E+16
   -0.749946    2.55724  0.0000E+00  0.4096E-13  0.8590E-16  0.1000E-09  0.0000E+00  0.2517E+16
   -0.787444    2.67184  0.0000E+00  0.4096E-13  0.8590E-16  0.1000E-09  0.0000E+00  0.2275E+16
   -0.824943    2.78500  0.0000E+00  0.7323E-13  0.8590E-16  0.1000E-09  0.0000E+00  0.2040E+16
   -0.862442    2.89662  0.0000E+00  0.2691E-12  0.1198E-15  0.1000E-09  0.0000E+00  0.1812E+16
   -0.899940    3.00660  0.0000E+00  0.6977E-12  0.2506E-15  0.1000E-09  0.0000E+00  0.1593E+16
   -0.937438    3.11483  0.0000E+00  0.1615E-11  0.5449E-15  0.1000E-09  0.0000E+00  0.1381E+16
   -0.974937    3.22120  0.0000E+00  0.3595E-11  0.1175E-14  0.1000E-09  0.0000E+00  0.1179E+16
   -1.012435    3.32559  0.0000E+00  0.7888E-11  0.2511E-14  0.1000E-09  0.0000E+00  0.9837E+15
   -1.049933    3.42760  0.0000E+00  0.1719E-10  0.5340E-14  0.1000E-09  0.0000E+00  0.7987E+15
   -1.087431    3.52696  0.0000E+00  0.3718E-10  0.1128E-13  0.1000E-09  0.0000E+00  0.6254E+15
   -1.124928    3.62343  0.0000E+00  0.7986E-10  0.2367E-13  0.1382E-09  0.0000E+00  0.4734E+15
   -1.162426    3.71884  0.0000E+00  0.1703E-09  0.4936E-13  0.4167E-09  0.0000E+00  0.3270E+15
   -1.199923    3.81328  0.0000E+00  0.3608E-09  0.1023E-12  0.1523E-08  0.0000E+00  0.1845E+15
   -1.237420    3.90615  0.0000E+00  0.7553E-09  0.2097E-12  0.1125E-07  0.0000E+00  0.5010E+14
   -1.274917    3.99229  0.0000E+00  0.1384E-08  0.3830E-12  0.1639E-05  0.0000E+00 -0.1110E+13
   -1.312414    3.99968  0.0000E+00  0.1808E-08  0.5509E-12  0.2181E-05  0.0000E+00 -0.1432E+13
   -1.349910    4.00533  0.0000E+00  0.2106E-08  0.7514E-12  0.2163E-05  0.0000E+00 -0.1962E+13
   -1.387406    4.01105  0.0000E+00  0.2241E-08  0.1031E-11  0.1710E-05  0.0000E+00 -0.3190E+13
   -1.424902    4.01824  0.0000E+00  0.2124E-08  0.1531E-11  0.9423E-06  0.0000E+00 -0.7442E+13
   -1.462397    4.03070  0.0000E+00  0.1606E-08  0.2898E-11  0.2180E-06  0.0000E+00 -0.3822E+14
   -1.499892    4.06909  0.0000E+00  0.0000E+00  0.0000E+00  0.0000E+00  0.0000E+00  0.0000E+00
