 1 - depth, m
 2 - temperature, C
 3 - salinity, kg/kg
 4 - turbulent kinetic energy, m**2/s**2
 5 - dissipation rate, m**2/s**3
 6 - kinematic heat conductance, m**2/s
 7 - modulus of horizontal velocity, m/s
 8 - Richardson number, n/d
   -0.000000   11.97103  0.0000E+00  0.9753E-03  0.4979E-02  0.1011E-03  0.4510E+00 -0.1207E-01
   -0.037500   12.05494  0.0000E+00  0.5041E-03  0.2145E-02  0.2021E-03  0.1543E+00 -0.1824E-01
   -0.075000   12.09003  0.0000E+00  0.3203E-03  0.5748E-03  0.3060E-03  0.9086E-01 -0.1620E-01
   -0.112501   12.10488  0.0000E+00  0.2563E-03  0.3597E-03  0.3293E-03  0.6780E-01 -0.8426E-01
   -0.150001   12.11110  0.0000E+00  0.2128E-03  0.2397E-03  0.3440E-03  0.5554E-01  0.7740E-02
   -0.187503   12.11451  0.0000E+00  0.1821E-03  0.1624E-03  0.3443E-03  0.4827E-01 -0.5994E-02
   -0.225004   12.11692  0.0000E+00  0.1588E-03  0.1081E-03  0.3516E-03  0.4303E-01 -0.9789E-02
   -0.262506   12.11907  0.0000E+00  0.1389E-03  0.7045E-04  0.3634E-03  0.3834E-01 -0.4994E-01
   -0.300008   12.12078  0.0000E+00  0.1227E-03  0.4533E-04  0.3789E-03  0.3479E-01 -0.3115E-02
   -0.337510   12.12220  0.0000E+00  0.1099E-03  0.2952E-04  0.3838E-03  0.3179E-01  0.1927E+00
   -0.375012   12.12360  0.0000E+00  0.1001E-03  0.1945E-04  0.3957E-03  0.2929E-01 -0.1372E-01
   -0.412515   12.12487  0.0000E+00  0.9198E-04  0.1284E-04  0.4080E-03  0.2705E-01  0.1290E+00
   -0.450018   12.12612  0.0000E+00  0.8516E-04  0.8346E-05  0.4197E-03  0.2501E-01  0.4533E+00
   -0.487521   12.12740  0.0000E+00  0.7936E-04  0.5590E-05  0.4241E-03  0.2309E-01  0.1160E+00
   -0.525024   12.12923  0.0000E+00  0.7376E-04  0.3921E-05  0.4485E-03  0.2080E-01  0.1278E+02
   -0.562527   12.13038  0.0000E+00  0.6905E-04  0.2807E-05  0.4633E-03  0.1928E-01  0.9215E+01
   -0.600030   12.13151  0.0000E+00  0.6486E-04  0.2064E-05  0.4783E-03  0.1791E-01  0.6327E+02
   -0.637533   12.13277  0.0000E+00  0.6116E-04  0.1571E-05  0.4909E-03  0.1667E-01  0.2835E+01
   -0.675037   12.13376  0.0000E+00  0.5780E-04  0.1230E-05  0.5075E-03  0.1556E-01  0.1350E+02
   -0.712540   12.13473  0.0000E+00  0.5473E-04  0.9882E-06  0.5274E-03  0.1452E-01  0.3258E+01
   -0.750043   12.13564  0.0000E+00  0.5193E-04  0.8150E-06  0.5455E-03  0.1356E-01  0.8159E+02
   -0.787547   12.13655  0.0000E+00  0.4933E-04  0.6879E-06  0.5696E-03  0.1266E-01  0.3606E+02
   -0.825050   12.13742  0.0000E+00  0.4691E-04  0.5915E-06  0.5976E-03  0.1182E-01  0.5535E+02
   -0.862554   12.13825  0.0000E+00  0.4465E-04  0.5168E-06  0.6263E-03  0.1103E-01  0.1110E+02
   -0.900057   12.13905  0.0000E+00  0.4252E-04  0.4580E-06  0.6609E-03  0.1029E-01  0.2488E+02
   -0.937560   12.13982  0.0000E+00  0.4048E-04  0.4106E-06  0.6925E-03  0.9580E-02  0.1540E+03
   -0.975063   12.14056  0.0000E+00  0.3850E-04  0.3711E-06  0.7075E-03  0.8899E-02  0.1305E+03
   -1.012566   12.14130  0.0000E+00  0.3657E-04  0.3379E-06  0.7288E-03  0.8236E-02  0.2960E+02
   -1.050069   12.14201  0.0000E+00  0.3467E-04  0.3101E-06  0.7535E-03  0.7616E-02  0.5967E+02
   -1.087572   12.14271  0.0000E+00  0.3279E-04  0.2868E-06  0.7559E-03  0.7029E-02  0.1136E+03
   -1.125075   12.14341  0.0000E+00  0.3088E-04  0.2676E-06  0.7387E-03  0.6462E-02  0.1276E+03
   -1.162577   12.14412  0.0000E+00  0.2896E-04  0.2529E-06  0.7014E-03  0.5919E-02  0.1949E+03
   -1.200079   12.14487  0.0000E+00  0.2700E-04  0.2432E-06  0.6489E-03  0.5394E-02  0.3621E+03
   -1.237581   12.14570  0.0000E+00  0.2498E-04  0.2403E-06  0.5781E-03  0.4884E-02  0.2955E+02
   -1.275083   12.14665  0.0000E+00  0.2283E-04  0.2477E-06  0.4989E-03  0.4385E-02  0.4940E+02
   -1.312584   12.14777  0.0000E+00  0.2045E-04  0.2730E-06  0.4103E-03  0.3909E-02  0.2900E+03
   -1.350085   12.14917  0.0000E+00  0.1774E-04  0.3338E-06  0.3178E-03  0.3446E-02  0.1387E+03
   -1.387586   12.15112  0.0000E+00  0.1458E-04  0.4703E-06  0.2359E-03  0.2964E-02  0.4367E+02
   -1.425087   12.15375  0.0000E+00  0.1089E-04  0.8174E-06  0.1459E-03  0.2447E-02  0.8364E+03
   -1.462587   12.15928  0.0000E+00  0.6633E-05  0.1728E-05  0.7029E-04  0.1927E-02 -0.8940E+05
   -1.500087   12.17823  0.0000E+00  0.0000E+00  0.0000E+00  0.0000E+00  0.2405E-02  0.0000E+00
