 1 - depth, m
 2 - temperature, C
 3 - salinity, kg/kg
 4 - turbulent kinetic energy, m**2/s**2
 5 - dissipation rate, m**2/s**3
 6 - kinematic heat conductance, m**2/s
 7 - modulus of horizontal velocity, m/s
 8 - Richardson number, n/d
   -0.000000    0.00000  0.0000E+00  0.4096E-13  0.8590E-16  0.1000E-09  0.0000E+00  0.7945E+16
   -0.037499    0.12114  0.0000E+00  0.4096E-13  0.8590E-16  0.1000E-09  0.0000E+00  0.7684E+16
   -0.074998    0.24230  0.0000E+00  0.4096E-13  0.8590E-16  0.1000E-09  0.0000E+00  0.7422E+16
   -0.112497    0.36341  0.0000E+00  0.4096E-13  0.8590E-16  0.1000E-09  0.0000E+00  0.7156E+16
   -0.149997    0.48441  0.0000E+00  0.4096E-13  0.8590E-16  0.1000E-09  0.0000E+00  0.6888E+16
   -0.187497    0.60521  0.0000E+00  0.4096E-13  0.8590E-16  0.1000E-09  0.0000E+00  0.6619E+16
   -0.224997    0.72576  0.0000E+00  0.4096E-13  0.8590E-16  0.1000E-09  0.0000E+00  0.6348E+16
   -0.262498    0.84595  0.0000E+00  0.4096E-13  0.8590E-16  0.1000E-09  0.0000E+00  0.6072E+16
   -0.299998    0.96564  0.0000E+00  0.4096E-13  0.8590E-16  0.1000E-09  0.0000E+00  0.5795E+16
   -0.337499    1.08472  0.0000E+00  0.4096E-13  0.8590E-16  0.1000E-09  0.0000E+00  0.5519E+16
   -0.375001    1.20308  0.0000E+00  0.4096E-13  0.8590E-16  0.1000E-09  0.0000E+00  0.5251E+16
   -0.412502    1.32082  0.0000E+00  0.4096E-13  0.8590E-16  0.1000E-09  0.0000E+00  0.4989E+16
   -0.450004    1.43795  0.0000E+00  0.4096E-13  0.8590E-16  0.1000E-09  0.0000E+00  0.4728E+16
   -0.487505    1.55438  0.0000E+00  0.4096E-13  0.8590E-16  0.1000E-09  0.0000E+00  0.4468E+16
   -0.525007    1.67000  0.0000E+00  0.4096E-13  0.8590E-16  0.1000E-09  0.0000E+00  0.4207E+16
   -0.562509    1.78466  0.0000E+00  0.4096E-13  0.8590E-16  0.1000E-09  0.0000E+00  0.3950E+16
   -0.600011    1.89825  0.0000E+00  0.4096E-13  0.8590E-16  0.1000E-09  0.0000E+00  0.3697E+16
   -0.637513    2.01067  0.0000E+00  0.4096E-13  0.8590E-16  0.1000E-09  0.0000E+00  0.3448E+16
   -0.675016    2.12181  0.0000E+00  0.4096E-13  0.8590E-16  0.1000E-09  0.0000E+00  0.3203E+16
   -0.712518    2.23159  0.0000E+00  0.4096E-13  0.8590E-16  0.1000E-09  0.0000E+00  0.2965E+16
   -0.750020    2.33989  0.0000E+00  0.4096E-13  0.8590E-16  0.1000E-09  0.0000E+00  0.2743E+16
   -0.787522    2.44706  0.0000E+00  0.4096E-13  0.8590E-16  0.1000E-09  0.0000E+00  0.2530E+16
   -0.825025    2.55318  0.0000E+00  0.4096E-13  0.8590E-16  0.1000E-09  0.0000E+00  0.2321E+16
   -0.862527    2.65818  0.0000E+00  0.4096E-13  0.8590E-16  0.1000E-09  0.0000E+00  0.2118E+16
   -0.900029    2.76197  0.0000E+00  0.4096E-13  0.8590E-16  0.1000E-09  0.0000E+00  0.1919E+16
   -0.937531    2.86448  0.0000E+00  0.4096E-13  0.8590E-16  0.1000E-09  0.0000E+00  0.1727E+16
   -0.975033    2.96564  0.0000E+00  0.4096E-13  0.8590E-16  0.1000E-09  0.0000E+00  0.1540E+16
   -1.012535    3.06535  0.0000E+00  0.4096E-13  0.8590E-16  0.1000E-09  0.0000E+00  0.1357E+16
   -1.050037    3.16330  0.0000E+00  0.4096E-13  0.8590E-16  0.1000E-09  0.0000E+00  0.1180E+16
   -1.087538    3.25929  0.0000E+00  0.6867E-13  0.8639E-16  0.1000E-09  0.0000E+00  0.1011E+16
   -1.125040    3.35315  0.0000E+00  0.2618E-12  0.2194E-15  0.1000E-09  0.0000E+00  0.8647E+15
   -1.162541    3.44639  0.0000E+00  0.8847E-12  0.6926E-15  0.1000E-09  0.0000E+00  0.7235E+15
   -1.200042    3.53925  0.0000E+00  0.2870E-11  0.2175E-14  0.1000E-09  0.0000E+00  0.5844E+15
   -1.237543    3.63173  0.0000E+00  0.9149E-11  0.6744E-14  0.1000E-09  0.0000E+00  0.4474E+15
   -1.275043    3.72387  0.0000E+00  0.2913E-10  0.2093E-13  0.1787E-09  0.0000E+00  0.3127E+15
   -1.312543    3.81577  0.0000E+00  0.9219E-10  0.6478E-13  0.9426E-09  0.0000E+00  0.1789E+15
   -1.350043    3.90704  0.0000E+00  0.2881E-09  0.1995E-12  0.9238E-08  0.0000E+00  0.4890E+14
   -1.387543    3.99318  0.0000E+00  0.8400E-09  0.5962E-12  0.3891E-06  0.0000E+00 -0.7320E+13
   -1.425043    4.01774  0.0000E+00  0.1266E-08  0.1217E-11  0.4714E-06  0.0000E+00 -0.1409E+14
   -1.462542    4.03911  0.0000E+00  0.1238E-08  0.2347E-11  0.1835E-06  0.0000E+00 -0.4724E+14
   -1.500040    4.08025  0.0000E+00  0.0000E+00  0.0000E+00  0.0000E+00  0.0000E+00  0.0000E+00
