 1 - depth, m
 2 - temperature, C
 3 - salinity, kg/kg
 4 - turbulent kinetic energy, m**2/s**2
 5 - dissipation rate, m**2/s**3
 6 - kinematic heat conductance, m**2/s
 7 - modulus of horizontal velocity, m/s
 8 - Richardson number, n/d
   -0.000000    0.00000  0.0000E+00  0.4096E-13  0.8590E-16  0.1000E-09  0.0000E+00  0.1087E+17
   -0.037499    0.16674  0.0000E+00  0.4096E-13  0.8590E-16  0.1000E-09  0.0000E+00  0.1019E+17
   -0.074998    0.33045  0.0000E+00  0.4096E-13  0.8590E-16  0.1000E-09  0.0000E+00  0.9511E+16
   -0.112497    0.49063  0.0000E+00  0.4096E-13  0.8590E-16  0.1000E-09  0.0000E+00  0.8838E+16
   -0.149997    0.64678  0.0000E+00  0.4096E-13  0.8590E-16  0.1000E-09  0.0000E+00  0.8176E+16
   -0.187497    0.79843  0.0000E+00  0.4096E-13  0.8590E-16  0.1000E-09  0.0000E+00  0.7530E+16
   -0.224998    0.94517  0.0000E+00  0.4096E-13  0.8590E-16  0.1000E-09  0.0000E+00  0.6907E+16
   -0.262498    1.08663  0.0000E+00  0.4096E-13  0.8590E-16  0.1000E-09  0.0000E+00  0.6295E+16
   -0.299999    1.22219  0.0000E+00  0.4096E-13  0.8590E-16  0.1000E-09  0.0000E+00  0.5714E+16
   -0.337500    1.35154  0.0000E+00  0.4096E-13  0.8590E-16  0.1000E-09  0.0000E+00  0.5168E+16
   -0.375001    1.47454  0.0000E+00  0.4096E-13  0.8590E-16  0.1000E-09  0.0000E+00  0.4746E+16
   -0.412503    1.59330  0.0000E+00  0.4096E-13  0.8590E-16  0.1000E-09  0.0000E+00  0.4403E+16
   -0.450004    1.70922  0.0000E+00  0.4096E-13  0.8590E-16  0.1000E-09  0.0000E+00  0.4082E+16
   -0.487506    1.82244  0.0000E+00  0.4096E-13  0.8590E-16  0.1000E-09  0.0000E+00  0.3782E+16
   -0.525008    1.93312  0.0000E+00  0.4096E-13  0.8590E-16  0.1000E-09  0.0000E+00  0.3499E+16
   -0.562510    2.04134  0.0000E+00  0.4096E-13  0.8590E-16  0.1000E-09  0.0000E+00  0.3234E+16
   -0.600012    2.14720  0.0000E+00  0.4096E-13  0.8590E-16  0.1000E-09  0.0000E+00  0.2984E+16
   -0.637515    2.25078  0.0000E+00  0.4096E-13  0.8590E-16  0.1000E-09  0.0000E+00  0.2746E+16
   -0.675017    2.35206  0.0000E+00  0.4096E-13  0.8590E-16  0.1000E-09  0.0000E+00  0.2519E+16
   -0.712519    2.45097  0.0000E+00  0.4096E-13  0.8590E-16  0.1000E-09  0.0000E+00  0.2300E+16
   -0.750021    2.54737  0.0000E+00  0.4096E-13  0.8590E-16  0.1000E-09  0.0000E+00  0.2129E+16
   -0.787524    2.64293  0.0000E+00  0.4096E-13  0.8590E-16  0.1000E-09  0.0000E+00  0.1972E+16
   -0.825026    2.73811  0.0000E+00  0.4096E-13  0.8590E-16  0.1000E-09  0.0000E+00  0.1813E+16
   -0.862528    2.83266  0.0000E+00  0.4096E-13  0.8590E-16  0.1000E-09  0.0000E+00  0.1652E+16
   -0.900031    2.92629  0.0000E+00  0.4096E-13  0.8590E-16  0.1000E-09  0.0000E+00  0.1491E+16
   -0.937533    3.01869  0.0000E+00  0.4096E-13  0.8590E-16  0.1000E-09  0.0000E+00  0.1331E+16
   -0.975035    3.10949  0.0000E+00  0.4096E-13  0.8590E-16  0.1000E-09  0.0000E+00  0.1174E+16
   -1.012537    3.19838  0.0000E+00  0.4096E-13  0.8590E-16  0.1000E-09  0.0000E+00  0.1028E+16
   -1.050038    3.28555  0.0000E+00  0.4096E-13  0.8590E-16  0.1000E-09  0.0000E+00  0.8891E+15
   -1.087540    3.37091  0.0000E+00  0.7827E-13  0.8809E-16  0.1000E-09  0.0000E+00  0.7562E+15
   -1.125042    3.45430  0.0000E+00  0.2846E-12  0.2363E-15  0.1000E-09  0.0000E+00  0.6308E+15
   -1.162543    3.53562  0.0000E+00  0.9523E-12  0.7482E-15  0.1000E-09  0.0000E+00  0.5140E+15
   -1.200044    3.61491  0.0000E+00  0.3085E-11  0.2356E-14  0.1000E-09  0.0000E+00  0.4060E+15
   -1.237545    3.69239  0.0000E+00  0.9844E-11  0.7337E-14  0.1000E-09  0.0000E+00  0.3068E+15
   -1.275045    3.76861  0.0000E+00  0.3141E-10  0.2292E-13  0.2795E-09  0.0000E+00  0.2159E+15
   -1.312546    3.84513  0.0000E+00  0.9973E-10  0.7158E-13  0.1459E-08  0.0000E+00  0.1247E+15
   -1.350046    3.92258  0.0000E+00  0.3124E-09  0.2229E-12  0.1457E-07  0.0000E+00  0.3117E+14
   -1.387546    3.99647  0.0000E+00  0.9040E-09  0.6792E-12  0.3837E-06  0.0000E+00 -0.8064E+13
   -1.425045    4.02003  0.0000E+00  0.1394E-08  0.1443E-11  0.4626E-06  0.0000E+00 -0.1596E+14
   -1.462544    4.04267  0.0000E+00  0.1478E-08  0.3000E-11  0.2106E-06  0.0000E+00 -0.5523E+14
   -1.500043    4.08748  0.0000E+00  0.0000E+00  0.0000E+00  0.0000E+00  0.0000E+00  0.0000E+00
