 1 - depth, m
 2 - temperature, C
 3 - salinity, kg/kg
 4 - turbulent kinetic energy, m**2/s**2
 5 - dissipation rate, m**2/s**3
 6 - kinematic heat conductance, m**2/s
 7 - modulus of horizontal velocity, m/s
 8 - Richardson number, n/d
   -0.000000    0.00000  0.0000E+00  0.4096E-13  0.8590E-16  0.1000E-09  0.0000E+00  0.1276E+17
   -0.037498    0.19664  0.0000E+00  0.4096E-13  0.8590E-16  0.1000E-09  0.0000E+00  0.1183E+17
   -0.074997    0.38907  0.0000E+00  0.4096E-13  0.8590E-16  0.1000E-09  0.0000E+00  0.1092E+17
   -0.112496    0.57699  0.0000E+00  0.4096E-13  0.8590E-16  0.1000E-09  0.0000E+00  0.1005E+17
   -0.149995    0.76018  0.0000E+00  0.4096E-13  0.8590E-16  0.1000E-09  0.0000E+00  0.9219E+16
   -0.187495    0.93846  0.0000E+00  0.4096E-13  0.8590E-16  0.1000E-09  0.0000E+00  0.8431E+16
   -0.224995    1.11169  0.0000E+00  0.4096E-13  0.8590E-16  0.1000E-09  0.0000E+00  0.7688E+16
   -0.262495    1.27980  0.0000E+00  0.4096E-13  0.8590E-16  0.1000E-09  0.0000E+00  0.6971E+16
   -0.299995    1.44227  0.0000E+00  0.4096E-13  0.8590E-16  0.1000E-09  0.0000E+00  0.6298E+16
   -0.337496    1.59896  0.0000E+00  0.1836E-12  0.8590E-16  0.1000E-09  0.0000E+00  0.5671E+16
   -0.374997    1.74983  0.0000E+00  0.4915E-12  0.1215E-15  0.1000E-09  0.0000E+00  0.5180E+16
   -0.412498    1.89749  0.0000E+00  0.1035E-11  0.2112E-15  0.1000E-09  0.0000E+00  0.4766E+16
   -0.449999    2.04362  0.0000E+00  0.1988E-11  0.3787E-15  0.1000E-09  0.0000E+00  0.4366E+16
   -0.487500    2.18824  0.0000E+00  0.3677E-11  0.6768E-15  0.1000E-09  0.0000E+00  0.3978E+16
   -0.525002    2.33133  0.0000E+00  0.6687E-11  0.1202E-14  0.1000E-09  0.0000E+00  0.3600E+16
   -0.562504    2.47275  0.0000E+00  0.1205E-10  0.2122E-14  0.1000E-09  0.0000E+00  0.3231E+16
   -0.600005    2.61233  0.0000E+00  0.2157E-10  0.3728E-14  0.1000E-09  0.0000E+00  0.2871E+16
   -0.637507    2.74986  0.0000E+00  0.3842E-10  0.6516E-14  0.1000E-09  0.0000E+00  0.2522E+16
   -0.675009    2.88503  0.0000E+00  0.6807E-10  0.1134E-13  0.1000E-09  0.0000E+00  0.2184E+16
   -0.712511    3.01752  0.0000E+00  0.1201E-09  0.1963E-13  0.1000E-09  0.0000E+00  0.1860E+16
   -0.750013    3.14696  0.0000E+00  0.2108E-09  0.3386E-13  0.1000E-09  0.0000E+00  0.1579E+16
   -0.787514    3.27543  0.0000E+00  0.3685E-09  0.5814E-13  0.1230E-09  0.0000E+00  0.1312E+16
   -0.825016    3.40356  0.0000E+00  0.6415E-09  0.9942E-13  0.2637E-09  0.0000E+00  0.1046E+16
   -0.862518    3.53119  0.0000E+00  0.1112E-08  0.1693E-12  0.5990E-09  0.0000E+00  0.7843E+15
   -0.900020    3.65825  0.0000E+00  0.1917E-08  0.2870E-12  0.1514E-08  0.0000E+00  0.5260E+15
   -0.937522    3.78443  0.0000E+00  0.3288E-08  0.4839E-12  0.4939E-08  0.0000E+00  0.2719E+15
   -0.975023    3.90799  0.0000E+00  0.5506E-08  0.7990E-12  0.4834E-07  0.0000E+00  0.4570E+14
   -1.012525    4.00398  0.0000E+00  0.6348E-08  0.9265E-12  0.1612E-04  0.0000E+00 -0.3259E+12
   -1.050026    4.00512  0.0000E+00  0.6754E-08  0.1001E-11  0.1702E-04  0.0000E+00 -0.3394E+12
   -1.087527    4.00624  0.0000E+00  0.7102E-08  0.1080E-11  0.1764E-04  0.0000E+00 -0.3585E+12
   -1.125028    4.00736  0.0000E+00  0.7393E-08  0.1165E-11  0.1759E-04  0.0000E+00 -0.3838E+12
   -1.162529    4.00849  0.0000E+00  0.7631E-08  0.1260E-11  0.1709E-04  0.0000E+00 -0.4199E+12
   -1.200030    4.00967  0.0000E+00  0.7812E-08  0.1370E-11  0.1621E-04  0.0000E+00 -0.4710E+12
   -1.237530    4.01092  0.0000E+00  0.7930E-08  0.1501E-11  0.1496E-04  0.0000E+00 -0.5446E+12
   -1.275030    4.01229  0.0000E+00  0.7974E-08  0.1669E-11  0.1334E-04  0.0000E+00 -0.6590E+12
   -1.312530    4.01387  0.0000E+00  0.7921E-08  0.1899E-11  0.1125E-04  0.0000E+00 -0.8519E+12
   -1.350030    4.01577  0.0000E+00  0.7724E-08  0.2245E-11  0.8675E-05  0.0000E+00 -0.1224E+13
   -1.387529    4.01832  0.0000E+00  0.7279E-08  0.2849E-11  0.5690E-05  0.0000E+00 -0.2134E+13
   -1.425028    4.02232  0.0000E+00  0.6327E-08  0.4214E-11  0.2599E-05  0.0000E+00 -0.5719E+13
   -1.462527    4.03134  0.0000E+00  0.4293E-08  0.9157E-11  0.4469E-06  0.0000E+00 -0.4821E+14
   -1.500025    4.07680  0.0000E+00  0.0000E+00  0.0000E+00  0.0000E+00  0.0000E+00  0.0000E+00
