 1 - depth, m
 2 - temperature, C
 3 - salinity, kg/kg
 4 - turbulent kinetic energy, m**2/s**2
 5 - dissipation rate, m**2/s**3
 6 - kinematic heat conductance, m**2/s
 7 - modulus of horizontal velocity, m/s
 8 - Richardson number, n/d
   -0.000000    0.00000  0.0000E+00  0.4096E-13  0.8590E-16  0.1000E-09  0.0000E+00  0.1065E+17
   -0.037500    0.16331  0.0000E+00  0.4096E-13  0.8590E-16  0.1000E-09  0.0000E+00  0.1005E+17
   -0.075001    0.32450  0.0000E+00  0.4096E-13  0.8590E-16  0.1000E-09  0.0000E+00  0.9441E+16
   -0.112502    0.48318  0.0000E+00  0.4096E-13  0.8590E-16  0.1000E-09  0.0000E+00  0.8840E+16
   -0.150004    0.63899  0.0000E+00  0.4096E-13  0.8590E-16  0.1000E-09  0.0000E+00  0.8248E+16
   -0.187506    0.79163  0.0000E+00  0.4096E-13  0.8590E-16  0.1000E-09  0.0000E+00  0.7671E+16
   -0.225008    0.94083  0.0000E+00  0.4096E-13  0.8590E-16  0.1000E-09  0.0000E+00  0.7111E+16
   -0.262510    1.08634  0.0000E+00  0.4096E-13  0.8590E-16  0.1000E-09  0.0000E+00  0.6556E+16
   -0.300013    1.22765  0.0000E+00  0.4096E-13  0.8590E-16  0.1000E-09  0.0000E+00  0.6023E+16
   -0.337515    1.36449  0.0000E+00  0.4096E-13  0.8590E-16  0.1000E-09  0.0000E+00  0.5514E+16
   -0.375018    1.49666  0.0000E+00  0.4096E-13  0.8590E-16  0.1000E-09  0.0000E+00  0.5088E+16
   -0.412522    1.62546  0.0000E+00  0.4096E-13  0.8590E-16  0.1000E-09  0.0000E+00  0.4713E+16
   -0.450025    1.75165  0.0000E+00  0.4096E-13  0.8590E-16  0.1000E-09  0.0000E+00  0.4355E+16
   -0.487528    1.87520  0.0000E+00  0.4096E-13  0.8590E-16  0.1000E-09  0.0000E+00  0.4011E+16
   -0.525032    1.99601  0.0000E+00  0.4096E-13  0.8590E-16  0.1000E-09  0.0000E+00  0.3678E+16
   -0.562536    2.11386  0.0000E+00  0.4096E-13  0.8590E-16  0.1000E-09  0.0000E+00  0.3361E+16
   -0.600040    2.22867  0.0000E+00  0.4096E-13  0.8590E-16  0.1000E-09  0.0000E+00  0.3060E+16
   -0.637544    2.34037  0.0000E+00  0.4096E-13  0.8590E-16  0.1000E-09  0.0000E+00  0.2776E+16
   -0.675048    2.44890  0.0000E+00  0.4096E-13  0.8590E-16  0.1000E-09  0.0000E+00  0.2507E+16
   -0.712552    2.55418  0.0000E+00  0.4096E-13  0.8590E-16  0.1000E-09  0.0000E+00  0.2255E+16
   -0.750056    2.65614  0.0000E+00  0.4096E-13  0.8590E-16  0.1000E-09  0.0000E+00  0.2052E+16
   -0.787560    2.75639  0.0000E+00  0.4096E-13  0.8590E-16  0.1000E-09  0.0000E+00  0.1868E+16
   -0.825064    2.85553  0.0000E+00  0.6933E-13  0.8590E-16  0.1000E-09  0.0000E+00  0.1691E+16
   -0.862568    2.95364  0.0000E+00  0.2621E-12  0.1276E-15  0.1000E-09  0.0000E+00  0.1522E+16
   -0.900071    3.05082  0.0000E+00  0.7047E-12  0.2829E-15  0.1000E-09  0.0000E+00  0.1358E+16
   -0.937575    3.14716  0.0000E+00  0.1703E-11  0.6465E-15  0.1000E-09  0.0000E+00  0.1200E+16
   -0.975079    3.24279  0.0000E+00  0.3973E-11  0.1462E-14  0.1000E-09  0.0000E+00  0.1048E+16
   -1.012583    3.33786  0.0000E+00  0.9142E-11  0.3276E-14  0.1000E-09  0.0000E+00  0.8990E+15
   -1.050086    3.43242  0.0000E+00  0.2089E-10  0.7298E-14  0.1000E-09  0.0000E+00  0.7537E+15
   -1.087590    3.52660  0.0000E+00  0.4735E-10  0.1614E-13  0.1000E-09  0.0000E+00  0.6115E+15
   -1.125093    3.62056  0.0000E+00  0.1065E-09  0.3543E-13  0.2050E-09  0.0000E+00  0.4768E+15
   -1.162596    3.71576  0.0000E+00  0.2376E-09  0.7720E-13  0.6294E-09  0.0000E+00  0.3380E+15
   -1.200099    3.81253  0.0000E+00  0.5257E-09  0.1670E-12  0.2389E-08  0.0000E+00  0.1918E+15
   -1.237601    3.91040  0.0000E+00  0.1143E-08  0.3558E-12  0.2159E-07  0.0000E+00  0.4389E+14
   -1.275103    3.99924  0.0000E+00  0.2072E-08  0.6463E-12  0.2374E-05  0.0000E+00 -0.1476E+13
   -1.312605    4.00520  0.0000E+00  0.2616E-08  0.8964E-12  0.2768E-05  0.0000E+00 -0.1799E+13
   -1.350107    4.01054  0.0000E+00  0.3005E-08  0.1212E-11  0.2652E-05  0.0000E+00 -0.2466E+13
   -1.387609    4.01635  0.0000E+00  0.3207E-08  0.1682E-11  0.2086E-05  0.0000E+00 -0.4087E+13
   -1.425110    4.02405  0.0000E+00  0.3109E-08  0.2584E-11  0.1177E-05  0.0000E+00 -0.9808E+13
   -1.462611    4.03805  0.0000E+00  0.2495E-08  0.5197E-11  0.3073E-06  0.0000E+00 -0.5312E+14
   -1.500111    4.08360  0.0000E+00  0.0000E+00  0.0000E+00  0.0000E+00  0.0000E+00  0.0000E+00
