 1 - depth, m
 2 - temperature, C
 3 - salinity, kg/kg
 4 - turbulent kinetic energy, m**2/s**2
 5 - dissipation rate, m**2/s**3
 6 - kinematic heat conductance, m**2/s
 7 - modulus of horizontal velocity, m/s
 8 - Richardson number, n/d
   -0.000000    0.00000  0.0000E+00  0.4096E-13  0.8590E-16  0.1000E-09  0.0000E+00  0.9119E+16
   -0.037502    0.13940  0.0000E+00  0.4096E-13  0.8590E-16  0.1000E-09  0.0000E+00  0.8669E+16
   -0.075005    0.27710  0.0000E+00  0.4096E-13  0.8590E-16  0.1000E-09  0.0000E+00  0.8232E+16
   -0.112507    0.41309  0.0000E+00  0.4096E-13  0.8590E-16  0.1000E-09  0.0000E+00  0.7807E+16
   -0.150011    0.54735  0.0000E+00  0.4096E-13  0.8590E-16  0.1000E-09  0.0000E+00  0.7396E+16
   -0.187514    0.67985  0.0000E+00  0.4096E-13  0.8590E-16  0.1000E-09  0.0000E+00  0.6996E+16
   -0.225018    0.81058  0.0000E+00  0.4096E-13  0.8590E-16  0.1000E-09  0.0000E+00  0.6610E+16
   -0.262522    0.93952  0.0000E+00  0.4096E-13  0.8590E-16  0.1000E-09  0.0000E+00  0.6228E+16
   -0.300026    1.06650  0.0000E+00  0.4096E-13  0.8590E-16  0.1000E-09  0.0000E+00  0.5858E+16
   -0.337530    1.19146  0.0000E+00  0.4096E-13  0.8590E-16  0.1000E-09  0.0000E+00  0.5500E+16
   -0.375035    1.31435  0.0000E+00  0.4096E-13  0.8590E-16  0.1000E-09  0.0000E+00  0.5177E+16
   -0.412540    1.43569  0.0000E+00  0.4096E-13  0.8590E-16  0.1000E-09  0.0000E+00  0.4878E+16
   -0.450045    1.55581  0.0000E+00  0.4096E-13  0.8590E-16  0.1000E-09  0.0000E+00  0.4587E+16
   -0.487550    1.67467  0.0000E+00  0.4096E-13  0.8590E-16  0.1000E-09  0.0000E+00  0.4302E+16
   -0.525055    1.79223  0.0000E+00  0.4096E-13  0.8590E-16  0.1000E-09  0.0000E+00  0.4022E+16
   -0.562561    1.90838  0.0000E+00  0.4096E-13  0.8590E-16  0.1000E-09  0.0000E+00  0.3749E+16
   -0.600066    2.02305  0.0000E+00  0.4096E-13  0.8590E-16  0.1000E-09  0.0000E+00  0.3485E+16
   -0.637572    2.13622  0.0000E+00  0.4096E-13  0.8590E-16  0.1000E-09  0.0000E+00  0.3228E+16
   -0.675077    2.24782  0.0000E+00  0.4096E-13  0.8590E-16  0.1000E-09  0.0000E+00  0.2979E+16
   -0.712583    2.35779  0.0000E+00  0.4096E-13  0.8590E-16  0.1000E-09  0.0000E+00  0.2739E+16
   -0.750089    2.46608  0.0000E+00  0.4096E-13  0.8590E-16  0.1000E-09  0.0000E+00  0.2527E+16
   -0.787594    2.57351  0.0000E+00  0.4096E-13  0.8590E-16  0.1000E-09  0.0000E+00  0.2326E+16
   -0.825100    2.68039  0.0000E+00  0.4096E-13  0.8590E-16  0.1000E-09  0.0000E+00  0.2128E+16
   -0.862606    2.78668  0.0000E+00  0.4096E-13  0.8590E-16  0.1000E-09  0.0000E+00  0.1934E+16
   -0.900111    2.89237  0.0000E+00  0.8517E-13  0.8590E-16  0.1000E-09  0.0000E+00  0.1743E+16
   -0.937617    2.99743  0.0000E+00  0.2943E-12  0.1602E-15  0.1000E-09  0.0000E+00  0.1555E+16
   -0.975122    3.10183  0.0000E+00  0.8149E-12  0.3928E-15  0.1000E-09  0.0000E+00  0.1371E+16
   -1.012628    3.20554  0.0000E+00  0.2106E-11  0.9727E-15  0.1000E-09  0.0000E+00  0.1190E+16
   -1.050133    3.30849  0.0000E+00  0.5325E-11  0.2387E-14  0.1000E-09  0.0000E+00  0.1013E+16
   -1.087638    3.41062  0.0000E+00  0.1329E-10  0.5795E-14  0.1000E-09  0.0000E+00  0.8397E+15
   -1.125143    3.51186  0.0000E+00  0.3282E-10  0.1394E-13  0.1000E-09  0.0000E+00  0.6788E+15
   -1.162647    3.61346  0.0000E+00  0.8029E-10  0.3321E-13  0.1767E-09  0.0000E+00  0.5175E+15
   -1.200152    3.71561  0.0000E+00  0.1945E-09  0.7845E-13  0.6087E-09  0.0000E+00  0.3537E+15
   -1.237656    3.81815  0.0000E+00  0.4667E-09  0.1837E-12  0.2664E-08  0.0000E+00  0.1876E+15
   -1.275160    3.92015  0.0000E+00  0.1105E-08  0.4260E-12  0.3375E-07  0.0000E+00  0.3141E+14
   -1.312664    4.00554  0.0000E+00  0.2178E-08  0.8480E-12  0.2138E-05  0.0000E+00 -0.2378E+13
   -1.350167    4.01226  0.0000E+00  0.2745E-08  0.1208E-11  0.2296E-05  0.0000E+00 -0.2989E+13
   -1.387670    4.01879  0.0000E+00  0.3058E-08  0.1696E-11  0.1928E-05  0.0000E+00 -0.4627E+13
   -1.425173    4.02688  0.0000E+00  0.3027E-08  0.2581E-11  0.1137E-05  0.0000E+00 -0.1042E+14
   -1.462675    4.04087  0.0000E+00  0.2441E-08  0.5087E-11  0.3016E-06  0.0000E+00 -0.5328E+14
   -1.500178    4.08524  0.0000E+00  0.0000E+00  0.0000E+00  0.0000E+00  0.0000E+00  0.0000E+00
