 1 - depth, m
 2 - temperature, C
 3 - salinity, kg/kg
 4 - turbulent kinetic energy, m**2/s**2
 5 - dissipation rate, m**2/s**3
 6 - kinematic heat conductance, m**2/s
 7 - modulus of horizontal velocity, m/s
 8 - Richardson number, n/d
   -0.000000    0.00000  0.0000E+00  0.4096E-13  0.8590E-16  0.1000E-09  0.0000E+00  0.1130E+17
   -0.037502    0.17350  0.0000E+00  0.4096E-13  0.8590E-16  0.1000E-09  0.0000E+00  0.1070E+17
   -0.075004    0.34593  0.0000E+00  0.4096E-13  0.8590E-16  0.1000E-09  0.0000E+00  0.1011E+17
   -0.112506    0.51727  0.0000E+00  0.4096E-13  0.8590E-16  0.1000E-09  0.0000E+00  0.9533E+16
   -0.150009    0.68746  0.0000E+00  0.4096E-13  0.8590E-16  0.1000E-09  0.0000E+00  0.8966E+16
   -0.187512    0.85646  0.0000E+00  0.7681E-13  0.8590E-16  0.1000E-09  0.0000E+00  0.8409E+16
   -0.225015    1.02419  0.0000E+00  0.2762E-12  0.8590E-16  0.1000E-09  0.0000E+00  0.7863E+16
   -0.262518    1.19060  0.0000E+00  0.6413E-12  0.1295E-15  0.1000E-09  0.0000E+00  0.7318E+16
   -0.300022    1.35537  0.0000E+00  0.1258E-11  0.2201E-15  0.1000E-09  0.0000E+00  0.6783E+16
   -0.337526    1.51838  0.0000E+00  0.2303E-11  0.3804E-15  0.1000E-09  0.0000E+00  0.6263E+16
   -0.375030    1.67952  0.0000E+00  0.4088E-11  0.6547E-15  0.1000E-09  0.0000E+00  0.5788E+16
   -0.412535    1.83962  0.0000E+00  0.7146E-11  0.1119E-14  0.1000E-09  0.0000E+00  0.5341E+16
   -0.450039    1.99919  0.0000E+00  0.1238E-10  0.1903E-14  0.1000E-09  0.0000E+00  0.4899E+16
   -0.487544    2.15819  0.0000E+00  0.2133E-10  0.3219E-14  0.1000E-09  0.0000E+00  0.4462E+16
   -0.525049    2.31655  0.0000E+00  0.3659E-10  0.5425E-14  0.1000E-09  0.0000E+00  0.4029E+16
   -0.562554    2.47415  0.0000E+00  0.6252E-10  0.9108E-14  0.1000E-09  0.0000E+00  0.3603E+16
   -0.600059    2.63093  0.0000E+00  0.1064E-09  0.1523E-13  0.1000E-09  0.0000E+00  0.3184E+16
   -0.637564    2.78685  0.0000E+00  0.1803E-09  0.2538E-13  0.1000E-09  0.0000E+00  0.2774E+16
   -0.675069    2.94188  0.0000E+00  0.3045E-09  0.4213E-13  0.1000E-09  0.0000E+00  0.2371E+16
   -0.712574    3.09596  0.0000E+00  0.5120E-09  0.6967E-13  0.1000E-09  0.0000E+00  0.1977E+16
   -0.750080    3.24905  0.0000E+00  0.8577E-09  0.1148E-12  0.1988E-09  0.0000E+00  0.1603E+16
   -0.787585    3.40229  0.0000E+00  0.1431E-08  0.1884E-12  0.4248E-09  0.0000E+00  0.1231E+16
   -0.825090    3.55598  0.0000E+00  0.2379E-08  0.3081E-12  0.9985E-09  0.0000E+00  0.8563E+15
   -0.862595    3.70977  0.0000E+00  0.3937E-08  0.5016E-12  0.2899E-08  0.0000E+00  0.4801E+15
   -0.900100    3.86227  0.0000E+00  0.6442E-08  0.8086E-12  0.1879E-07  0.0000E+00  0.1191E+15
   -0.937605    4.00023  0.0000E+00  0.7153E-08  0.9020E-12  0.2129E-04  0.0000E+00 -0.2322E+12
   -0.975110    4.00125  0.0000E+00  0.7485E-08  0.9541E-12  0.2282E-04  0.0000E+00 -0.2334E+12
   -1.012615    4.00222  0.0000E+00  0.7766E-08  0.1007E-11  0.2390E-04  0.0000E+00 -0.2380E+12
   -1.050120    4.00315  0.0000E+00  0.8004E-08  0.1063E-11  0.2434E-04  0.0000E+00 -0.2485E+12
   -1.087624    4.00406  0.0000E+00  0.8205E-08  0.1123E-11  0.2423E-04  0.0000E+00 -0.2649E+12
   -1.125129    4.00499  0.0000E+00  0.8373E-08  0.1191E-11  0.2383E-04  0.0000E+00 -0.2841E+12
   -1.162633    4.00594  0.0000E+00  0.8506E-08  0.1271E-11  0.2284E-04  0.0000E+00 -0.3124E+12
   -1.200137    4.00693  0.0000E+00  0.8598E-08  0.1368E-11  0.2058E-04  0.0000E+00 -0.3657E+12
   -1.237641    4.00803  0.0000E+00  0.8636E-08  0.1487E-11  0.1814E-04  0.0000E+00 -0.4397E+12
   -1.275144    4.00929  0.0000E+00  0.8604E-08  0.1642E-11  0.1568E-04  0.0000E+00 -0.5429E+12
   -1.312648    4.01075  0.0000E+00  0.8475E-08  0.1857E-11  0.1298E-04  0.0000E+00 -0.7059E+12
   -1.350151    4.01253  0.0000E+00  0.8198E-08  0.2182E-11  0.9856E-05  0.0000E+00 -0.1014E+13
   -1.387653    4.01489  0.0000E+00  0.7664E-08  0.2751E-11  0.6347E-05  0.0000E+00 -0.1763E+13
   -1.425156    4.01859  0.0000E+00  0.6588E-08  0.4056E-11  0.2816E-05  0.0000E+00 -0.4737E+13
   -1.462658    4.02689  0.0000E+00  0.4307E-08  0.8923E-11  0.4392E-06  0.0000E+00 -0.4277E+14
   -1.500159    4.07065  0.0000E+00  0.0000E+00  0.0000E+00  0.0000E+00  0.0000E+00  0.0000E+00
