 1 - depth, m
 2 - temperature, C
 3 - salinity, kg/kg
 4 - turbulent kinetic energy, m**2/s**2
 5 - dissipation rate, m**2/s**3
 6 - kinematic heat conductance, m**2/s
 7 - modulus of horizontal velocity, m/s
 8 - Richardson number, n/d
   -0.000000    0.00000  0.0000E+00  0.4096E-13  0.8590E-16  0.1000E-09  0.0000E+00  0.1224E+17
   -0.037493    0.18829  0.0000E+00  0.4096E-13  0.8590E-16  0.1000E-09  0.0000E+00  0.1147E+17
   -0.074985    0.37429  0.0000E+00  0.4096E-13  0.8590E-16  0.1000E-09  0.0000E+00  0.1072E+17
   -0.112479    0.55787  0.0000E+00  0.4096E-13  0.8590E-16  0.1000E-09  0.0000E+00  0.9995E+16
   -0.149972    0.73892  0.0000E+00  0.4096E-13  0.8590E-16  0.1000E-09  0.0000E+00  0.9290E+16
   -0.187466    0.91731  0.0000E+00  0.4096E-13  0.8590E-16  0.1000E-09  0.0000E+00  0.8608E+16
   -0.224960    1.09293  0.0000E+00  0.4862E-13  0.8590E-16  0.1000E-09  0.0000E+00  0.7949E+16
   -0.262454    1.26568  0.0000E+00  0.2192E-12  0.8590E-16  0.1000E-09  0.0000E+00  0.7312E+16
   -0.299949    1.43539  0.0000E+00  0.5550E-12  0.1190E-15  0.1000E-09  0.0000E+00  0.6700E+16
   -0.337444    1.60197  0.0000E+00  0.1122E-11  0.1980E-15  0.1000E-09  0.0000E+00  0.6115E+16
   -0.374939    1.76532  0.0000E+00  0.2073E-11  0.3401E-15  0.1000E-09  0.0000E+00  0.5575E+16
   -0.412434    1.92594  0.0000E+00  0.3684E-11  0.5831E-15  0.1000E-09  0.0000E+00  0.5068E+16
   -0.449929    2.08412  0.0000E+00  0.6428E-11  0.9933E-15  0.1000E-09  0.0000E+00  0.4582E+16
   -0.487425    2.23982  0.0000E+00  0.1110E-10  0.1682E-14  0.1000E-09  0.0000E+00  0.4115E+16
   -0.524921    2.39298  0.0000E+00  0.1906E-10  0.2835E-14  0.1000E-09  0.0000E+00  0.3669E+16
   -0.562416    2.54356  0.0000E+00  0.3258E-10  0.4761E-14  0.1000E-09  0.0000E+00  0.3242E+16
   -0.599912    2.69149  0.0000E+00  0.5545E-10  0.7962E-14  0.1000E-09  0.0000E+00  0.2835E+16
   -0.637408    2.83671  0.0000E+00  0.9397E-10  0.1326E-13  0.1000E-09  0.0000E+00  0.2448E+16
   -0.674904    2.97917  0.0000E+00  0.1586E-09  0.2201E-13  0.1000E-09  0.0000E+00  0.2081E+16
   -0.712400    3.11880  0.0000E+00  0.2667E-09  0.3638E-13  0.1000E-09  0.0000E+00  0.1734E+16
   -0.749896    3.25553  0.0000E+00  0.4466E-09  0.5991E-13  0.1177E-09  0.0000E+00  0.1413E+16
   -0.787392    3.39008  0.0000E+00  0.7450E-09  0.9829E-13  0.2459E-09  0.0000E+00  0.1109E+16
   -0.824888    3.52258  0.0000E+00  0.1238E-08  0.1607E-12  0.5447E-09  0.0000E+00  0.8187E+15
   -0.862384    3.65287  0.0000E+00  0.2049E-08  0.2616E-12  0.1341E-08  0.0000E+00  0.5413E+15
   -0.899880    3.78049  0.0000E+00  0.3375E-08  0.4240E-12  0.4217E-08  0.0000E+00  0.2790E+15
   -0.937376    3.90367  0.0000E+00  0.5459E-08  0.6763E-12  0.3644E-07  0.0000E+00  0.5137E+14
   -0.974872    4.00302  0.0000E+00  0.6105E-08  0.7599E-12  0.1975E-04  0.0000E+00 -0.2356E+12
   -1.012368    4.00389  0.0000E+00  0.6400E-08  0.8056E-12  0.2075E-04  0.0000E+00 -0.2364E+12
   -1.049863    4.00473  0.0000E+00  0.6646E-08  0.8521E-12  0.2126E-04  0.0000E+00 -0.2414E+12
   -1.087359    4.00555  0.0000E+00  0.6852E-08  0.9017E-12  0.2135E-04  0.0000E+00 -0.2510E+12
   -1.124854    4.00636  0.0000E+00  0.7021E-08  0.9569E-12  0.2086E-04  0.0000E+00 -0.2684E+12
   -1.162349    4.00720  0.0000E+00  0.7151E-08  0.1020E-11  0.1952E-04  0.0000E+00 -0.2997E+12
   -1.199844    4.00810  0.0000E+00  0.7237E-08  0.1094E-11  0.1783E-04  0.0000E+00 -0.3434E+12
   -1.237338    4.00908  0.0000E+00  0.7271E-08  0.1184E-11  0.1604E-04  0.0000E+00 -0.4011E+12
   -1.274833    4.01018  0.0000E+00  0.7239E-08  0.1300E-11  0.1406E-04  0.0000E+00 -0.4841E+12
   -1.312327    4.01144  0.0000E+00  0.7118E-08  0.1460E-11  0.1168E-04  0.0000E+00 -0.6204E+12
   -1.349821    4.01297  0.0000E+00  0.6864E-08  0.1702E-11  0.8868E-05  0.0000E+00 -0.8818E+12
   -1.387314    4.01501  0.0000E+00  0.6382E-08  0.2129E-11  0.5680E-05  0.0000E+00 -0.1520E+13
   -1.424807    4.01821  0.0000E+00  0.5425E-08  0.3106E-11  0.2473E-05  0.0000E+00 -0.4070E+13
   -1.462300    4.02552  0.0000E+00  0.3462E-08  0.6702E-11  0.3663E-06  0.0000E+00 -0.3586E+14
   -1.499793    4.06453  0.0000E+00  0.0000E+00  0.0000E+00  0.0000E+00  0.0000E+00  0.0000E+00
