 1 - depth, m
 2 - temperature, C
 3 - salinity, kg/kg
 4 - turbulent kinetic energy, m**2/s**2
 5 - dissipation rate, m**2/s**3
 6 - kinematic heat conductance, m**2/s
 7 - modulus of horizontal velocity, m/s
 8 - Richardson number, n/d
   -0.000000    0.00000  0.0000E+00  0.9317E-07  0.5176E-09  0.1298E-07  0.0000E+00  0.7054E+17
   -0.037503    1.53512  0.0000E+00  0.4185E-06  0.3580E-09  0.1106E-04  0.0000E+00  0.2649E+17
   -0.075007    2.55670  0.0000E+00  0.5462E-06  0.3840E-09  0.1950E-03  0.0000E+00  0.1261E+17
   -0.112510    3.05340  0.0000E+00  0.6315E-06  0.4058E-09  0.2795E-03  0.0000E+00  0.6936E+16
   -0.150015    3.37890  0.0000E+00  0.6978E-06  0.4241E-09  0.3457E-03  0.0000E+00  0.4008E+16
   -0.187519    3.60168  0.0000E+00  0.7526E-06  0.4404E-09  0.3966E-03  0.0000E+00  0.2493E+16
   -0.225024    3.76201  0.0000E+00  0.8003E-06  0.4555E-09  0.4369E-03  0.0000E+00  0.1715E+16
   -0.262529    3.88818  0.0000E+00  0.8434E-06  0.4703E-09  0.4714E-03  0.0000E+00  0.1272E+16
   -0.300034    3.99341  0.0000E+00  0.8835E-06  0.4853E-09  0.5011E-03  0.0000E+00  0.1041E+16
   -0.337539    4.08703  0.0000E+00  0.9211E-06  0.5005E-09  0.5277E-03  0.0000E+00  0.9193E+15
   -0.375045    4.17508  0.0000E+00  0.9548E-06  0.5150E-09  0.5521E-03  0.0000E+00  0.7718E+15
   -0.412551    4.25800  0.0000E+00  0.9792E-06  0.5259E-09  0.5753E-03  0.0000E+00  0.2761E+15
   -0.450057    4.31351  0.0000E+00  0.9819E-06  0.5271E-09  0.5975E-03  0.0000E+00 -0.4716E+13
   -0.487563    4.31451  0.0000E+00  0.9838E-06  0.5286E-09  0.5953E-03  0.0000E+00 -0.4707E+13
   -0.525069    4.31545  0.0000E+00  0.9851E-06  0.5308E-09  0.5924E-03  0.0000E+00 -0.4623E+13
   -0.562576    4.31638  0.0000E+00  0.9859E-06  0.5335E-09  0.5885E-03  0.0000E+00 -0.4623E+13
   -0.600082    4.31731  0.0000E+00  0.9862E-06  0.5369E-09  0.5835E-03  0.0000E+00 -0.4634E+13
   -0.637589    4.31823  0.0000E+00  0.9859E-06  0.5409E-09  0.5774E-03  0.0000E+00 -0.4661E+13
   -0.675096    4.31916  0.0000E+00  0.9851E-06  0.5456E-09  0.5702E-03  0.0000E+00 -0.4711E+13
   -0.712602    4.32009  0.0000E+00  0.9837E-06  0.5510E-09  0.5619E-03  0.0000E+00 -0.4769E+13
   -0.750109    4.32103  0.0000E+00  0.9817E-06  0.5573E-09  0.5525E-03  0.0000E+00 -0.4840E+13
   -0.787616    4.32198  0.0000E+00  0.9791E-06  0.5644E-09  0.5417E-03  0.0000E+00 -0.4912E+13
   -0.825122    4.32294  0.0000E+00  0.9759E-06  0.5726E-09  0.5289E-03  0.0000E+00 -0.5023E+13
   -0.862629    4.32392  0.0000E+00  0.9720E-06  0.5820E-09  0.5152E-03  0.0000E+00 -0.5138E+13
   -0.900135    4.32492  0.0000E+00  0.9675E-06  0.5927E-09  0.4995E-03  0.0000E+00 -0.5298E+13
   -0.937642    4.32595  0.0000E+00  0.9622E-06  0.6050E-09  0.4828E-03  0.0000E+00 -0.5467E+13
   -0.975148    4.32700  0.0000E+00  0.9561E-06  0.6191E-09  0.4653E-03  0.0000E+00 -0.5694E+13
   -1.012655    4.32809  0.0000E+00  0.9492E-06  0.6354E-09  0.4465E-03  0.0000E+00 -0.5940E+13
   -1.050161    4.32923  0.0000E+00  0.9412E-06  0.6546E-09  0.4253E-03  0.0000E+00 -0.6260E+13
   -1.087667    4.33042  0.0000E+00  0.9321E-06  0.6771E-09  0.4207E-03  0.0000E+00 -0.6196E+13
   -1.125173    4.33163  0.0000E+00  0.9219E-06  0.7039E-09  0.3700E-03  0.0000E+00 -0.7367E+13
   -1.162678    4.33300  0.0000E+00  0.9102E-06  0.7360E-09  0.3680E-03  0.0000E+00 -0.7256E+13
   -1.200184    4.33438  0.0000E+00  0.8968E-06  0.7756E-09  0.3221E-03  0.0000E+00 -0.8397E+13
   -1.237689    4.33595  0.0000E+00  0.8814E-06  0.8249E-09  0.2972E-03  0.0000E+00 -0.9197E+13
   -1.275194    4.33765  0.0000E+00  0.8631E-06  0.8897E-09  0.2677E-03  0.0000E+00 -0.1024E+14
   -1.312699    4.33955  0.0000E+00  0.8409E-06  0.9786E-09  0.2339E-03  0.0000E+00 -0.1183E+14
   -1.350203    4.34173  0.0000E+00  0.8133E-06  0.1108E-08  0.1954E-03  0.0000E+00 -0.1434E+14
   -1.387707    4.34436  0.0000E+00  0.7773E-06  0.1311E-08  0.1596E-03  0.0000E+00 -0.1786E+14
   -1.425211    4.34762  0.0000E+00  0.7158E-06  0.1764E-08  0.8858E-04  0.0000E+00 -0.3307E+14
   -1.462715    4.35368  0.0000E+00  0.4372E-06  0.5012E-08  0.5784E-05  0.0000E+00 -0.5624E+15
   -1.500218    4.44271  0.0000E+00  0.0000E+00  0.0000E+00  0.0000E+00  0.0000E+00  0.0000E+00
