 1 - depth, m
 2 - temperature, C
 3 - salinity, kg/kg
 4 - turbulent kinetic energy, m**2/s**2
 5 - dissipation rate, m**2/s**3
 6 - kinematic heat conductance, m**2/s
 7 - modulus of horizontal velocity, m/s
 8 - Richardson number, n/d
   -0.000000   14.56207  0.0000E+00  0.7480E-04  0.2064E-04  0.4376E-04  0.7520E-01  0.7315E-03
   -0.037503   14.56941  0.0000E+00  0.4456E-04  0.6031E-05  0.6238E-04  0.3141E-01 -0.4989E-02
   -0.075006   14.57056  0.0000E+00  0.3423E-04  0.2594E-05  0.7266E-04  0.2441E-01 -0.3166E-02
   -0.112509   14.57135  0.0000E+00  0.2816E-04  0.1373E-05  0.8414E-04  0.2042E-01 -0.4424E-02
   -0.150013   14.57198  0.0000E+00  0.2398E-04  0.8093E-06  0.9527E-04  0.1743E-01 -0.5712E-02
   -0.187517   14.57251  0.0000E+00  0.2089E-04  0.5154E-06  0.1055E-03  0.1502E-01 -0.7251E-02
   -0.225021   14.57300  0.0000E+00  0.1848E-04  0.3494E-06  0.1145E-03  0.1301E-01 -0.9087E-02
   -0.262526   14.57344  0.0000E+00  0.1650E-04  0.2485E-06  0.1232E-03  0.1130E-01 -0.1168E-01
   -0.300031   14.57386  0.0000E+00  0.1483E-04  0.1838E-06  0.1311E-03  0.9848E-02 -0.1510E-01
   -0.337536   14.57425  0.0000E+00  0.1341E-04  0.1403E-06  0.1383E-03  0.8609E-02 -0.1961E-01
   -0.375041   14.57463  0.0000E+00  0.1218E-04  0.1097E-06  0.1452E-03  0.7540E-02 -0.2556E-01
   -0.412547   14.57501  0.0000E+00  0.1111E-04  0.8746E-07  0.1518E-03  0.6611E-02 -0.3346E-01
   -0.450052   14.57539  0.0000E+00  0.1017E-04  0.7078E-07  0.1584E-03  0.5800E-02 -0.4345E-01
   -0.487558   14.57578  0.0000E+00  0.9331E-05  0.5798E-07  0.1661E-03  0.5087E-02 -0.2725E-01
   -0.525064   14.57616  0.0000E+00  0.8584E-05  0.4796E-07  0.1780E-03  0.4460E-02  0.1848E+00
   -0.562570   14.57654  0.0000E+00  0.7927E-05  0.4009E-07  0.2019E-03  0.3919E-02  0.1514E+02
   -0.600076   14.57691  0.0000E+00  0.7355E-05  0.3387E-07  0.2313E-03  0.3452E-02  0.1786E+03
   -0.637582   14.57725  0.0000E+00  0.6858E-05  0.2892E-07  0.2625E-03  0.3047E-02  0.4053E+02
   -0.675089   14.57758  0.0000E+00  0.6428E-05  0.2496E-07  0.3039E-03  0.2695E-02  0.1918E+04
   -0.712595   14.57789  0.0000E+00  0.6058E-05  0.2178E-07  0.3723E-03  0.2389E-02  0.1755E+03
   -0.750101   14.57816  0.0000E+00  0.5743E-05  0.1924E-07  0.4869E-03  0.2122E-02  0.1646E+03
   -0.787607   14.57837  0.0000E+00  0.5464E-05  0.1714E-07  0.4904E-03  0.1890E-02  0.2167E+01
   -0.825114   14.57859  0.0000E+00  0.5208E-05  0.1533E-07  0.4917E-03  0.1669E-02  0.2291E+01
   -0.862620   14.57882  0.0000E+00  0.4975E-05  0.1382E-07  0.4893E-03  0.1466E-02  0.3130E+02
   -0.900126   14.57907  0.0000E+00  0.4761E-05  0.1255E-07  0.4865E-03  0.1279E-02  0.1844E+01
   -0.937632   14.57933  0.0000E+00  0.4563E-05  0.1149E-07  0.4841E-03  0.1107E-02  0.1858E+01
   -0.975138   14.57961  0.0000E+00  0.4377E-05  0.1063E-07  0.4822E-03  0.9487E-03  0.1864E+01
   -1.012644   14.57991  0.0000E+00  0.4202E-05  0.9945E-08  0.4878E-03  0.8031E-03  0.1725E+01
   -1.050150   14.58021  0.0000E+00  0.4037E-05  0.9429E-08  0.4960E-03  0.6754E-03  0.1580E+01
   -1.087656   14.58053  0.0000E+00  0.3882E-05  0.9077E-08  0.4974E-03  0.5658E-03  0.1447E+01
   -1.125161   14.58086  0.0000E+00  0.3740E-05  0.8878E-08  0.4815E-03  0.4734E-03  0.1318E+01
   -1.162666   14.58122  0.0000E+00  0.3609E-05  0.8821E-08  0.4507E-03  0.3965E-03  0.1196E+01
   -1.200171   14.58163  0.0000E+00  0.3490E-05  0.8895E-08  0.4160E-03  0.3334E-03  0.1094E+01
   -1.237676   14.58208  0.0000E+00  0.3383E-05  0.9086E-08  0.3834E-03  0.2822E-03  0.1065E+01
   -1.275181   14.58260  0.0000E+00  0.3280E-05  0.9413E-08  0.3531E-03  0.2412E-03  0.1347E+01
   -1.312685   14.58318  0.0000E+00  0.3165E-05  0.9952E-08  0.3163E-03  0.2075E-03  0.2393E+01
   -1.350189   14.58385  0.0000E+00  0.3027E-05  0.1086E-07  0.2694E-03  0.1769E-03  0.5255E+01
   -1.387693   14.58467  0.0000E+00  0.2848E-05  0.1247E-07  0.2088E-03  0.1491E-03  0.1594E+02
   -1.425196   14.58578  0.0000E+00  0.2599E-05  0.1577E-07  0.1583E-03  0.1238E-03  0.6862E+02
   -1.462699   14.58730  0.0000E+00  0.1638E-05  0.3790E-07  0.1244E-04  0.1051E-03 -0.1048E+05
   -1.500202   14.60725  0.0000E+00  0.0000E+00  0.0000E+00  0.0000E+00  0.1049E-03  0.0000E+00
