 1 - depth, m
 2 - temperature, C
 3 - salinity, kg/kg
 4 - turbulent kinetic energy, m**2/s**2
 5 - dissipation rate, m**2/s**3
 6 - kinematic heat conductance, m**2/s
 7 - modulus of horizontal velocity, m/s
 8 - Richardson number, n/d
   -0.000000    0.00000  0.0000E+00  0.4096E-13  0.8590E-16  0.1000E-09  0.0000E+00  0.9020E+16
   -0.037495    0.13785  0.0000E+00  0.4096E-13  0.8590E-16  0.1000E-09  0.0000E+00  0.8663E+16
   -0.074990    0.27539  0.0000E+00  0.4096E-13  0.8590E-16  0.1000E-09  0.0000E+00  0.8309E+16
   -0.112486    0.41261  0.0000E+00  0.4096E-13  0.8590E-16  0.1000E-09  0.0000E+00  0.7958E+16
   -0.149982    0.54948  0.0000E+00  0.4096E-13  0.8590E-16  0.1000E-09  0.0000E+00  0.7609E+16
   -0.187478    0.68598  0.0000E+00  0.4096E-13  0.8590E-16  0.1000E-09  0.0000E+00  0.7262E+16
   -0.224975    0.82207  0.0000E+00  0.4096E-13  0.8590E-16  0.1000E-09  0.0000E+00  0.6918E+16
   -0.262472    0.95770  0.0000E+00  0.4096E-13  0.8590E-16  0.1000E-09  0.0000E+00  0.6572E+16
   -0.299969    1.09274  0.0000E+00  0.4096E-13  0.8590E-16  0.1000E-09  0.0000E+00  0.6227E+16
   -0.337466    1.22710  0.0000E+00  0.4096E-13  0.8590E-16  0.1000E-09  0.0000E+00  0.5886E+16
   -0.374964    1.36071  0.0000E+00  0.4096E-13  0.8590E-16  0.1000E-09  0.0000E+00  0.5552E+16
   -0.412462    1.49360  0.0000E+00  0.4096E-13  0.8590E-16  0.1000E-09  0.0000E+00  0.5225E+16
   -0.449960    1.62578  0.0000E+00  0.4096E-13  0.8590E-16  0.1000E-09  0.0000E+00  0.4900E+16
   -0.487458    1.75715  0.0000E+00  0.4096E-13  0.8590E-16  0.1000E-09  0.0000E+00  0.4579E+16
   -0.524956    1.88760  0.0000E+00  0.4096E-13  0.8590E-16  0.1000E-09  0.0000E+00  0.4258E+16
   -0.562454    2.01693  0.0000E+00  0.4096E-13  0.8590E-16  0.1000E-09  0.0000E+00  0.3942E+16
   -0.599952    2.14502  0.0000E+00  0.4096E-13  0.8590E-16  0.1000E-09  0.0000E+00  0.3631E+16
   -0.637451    2.27175  0.0000E+00  0.4096E-13  0.8590E-16  0.1000E-09  0.0000E+00  0.3327E+16
   -0.674949    2.39699  0.0000E+00  0.4096E-13  0.8590E-16  0.1000E-09  0.0000E+00  0.3031E+16
   -0.712448    2.52059  0.0000E+00  0.6284E-13  0.8590E-16  0.1000E-09  0.0000E+00  0.2741E+16
   -0.749947    2.64240  0.0000E+00  0.2485E-12  0.1039E-15  0.1000E-09  0.0000E+00  0.2468E+16
   -0.787445    2.76264  0.0000E+00  0.6370E-12  0.2013E-15  0.1000E-09  0.0000E+00  0.2205E+16
   -0.824944    2.88130  0.0000E+00  0.1420E-11  0.4145E-15  0.1000E-09  0.0000E+00  0.1949E+16
   -0.862442    2.99821  0.0000E+00  0.3015E-11  0.8492E-15  0.1000E-09  0.0000E+00  0.1702E+16
   -0.899941    3.11323  0.0000E+00  0.6277E-11  0.1723E-14  0.1000E-09  0.0000E+00  0.1464E+16
   -0.937439    3.22619  0.0000E+00  0.1293E-10  0.3466E-14  0.1000E-09  0.0000E+00  0.1236E+16
   -0.974937    3.33692  0.0000E+00  0.2641E-10  0.6923E-14  0.1000E-09  0.0000E+00  0.1019E+16
   -1.012436    3.44522  0.0000E+00  0.5367E-10  0.1376E-13  0.1000E-09  0.0000E+00  0.8119E+15
   -1.049934    3.55051  0.0000E+00  0.1087E-09  0.2727E-13  0.1222E-09  0.0000E+00  0.6180E+15
   -1.087431    3.65240  0.0000E+00  0.2190E-09  0.5378E-13  0.3387E-09  0.0000E+00  0.4395E+15
   -1.124929    3.75043  0.0000E+00  0.4387E-09  0.1055E-12  0.1025E-08  0.0000E+00  0.2843E+15
   -1.162427    3.84684  0.0000E+00  0.8724E-09  0.2055E-12  0.4156E-08  0.0000E+00  0.1361E+15
   -1.199924    3.94044  0.0000E+00  0.1678E-08  0.3890E-12  0.7139E-07  0.0000E+00  0.1409E+14
   -1.237421    4.00402  0.0000E+00  0.2518E-08  0.5896E-12  0.4434E-05  0.0000E+00 -0.8875E+12
   -1.274918    4.00697  0.0000E+00  0.2927E-08  0.7239E-12  0.4686E-05  0.0000E+00 -0.9754E+12
   -1.312415    4.00979  0.0000E+00  0.3202E-08  0.8729E-12  0.4473E-05  0.0000E+00 -0.1165E+13
   -1.349911    4.01277  0.0000E+00  0.3335E-08  0.1063E-11  0.3804E-05  0.0000E+00 -0.1557E+13
   -1.387407    4.01629  0.0000E+00  0.3281E-08  0.1353E-11  0.2704E-05  0.0000E+00 -0.2521E+13
   -1.424903    4.02125  0.0000E+00  0.2917E-08  0.1937E-11  0.1331E-05  0.0000E+00 -0.6104E+13
   -1.462398    4.03103  0.0000E+00  0.2044E-08  0.3750E-11  0.2565E-06  0.0000E+00 -0.3713E+14
   -1.499893    4.06844  0.0000E+00  0.0000E+00  0.0000E+00  0.0000E+00  0.0000E+00  0.0000E+00
