 1 - depth, m
 2 - temperature, C
 3 - salinity, kg/kg
 4 - turbulent kinetic energy, m**2/s**2
 5 - dissipation rate, m**2/s**3
 6 - kinematic heat conductance, m**2/s
 7 - modulus of horizontal velocity, m/s
 8 - Richardson number, n/d
   -0.000000   16.82404  0.0000E+00  0.1795E-04  0.1437E-05  0.2232E-04  0.2562E-01 -0.2125E-01
   -0.037494   16.85302  0.0000E+00  0.1503E-04  0.5243E-06  0.4710E-04  0.1556E-01 -0.5764E-01
   -0.074988   16.86482  0.0000E+00  0.1343E-04  0.2877E-06  0.7257E-04  0.1184E-01 -0.9934E-01
   -0.112482   16.87229  0.0000E+00  0.1234E-04  0.1861E-06  0.1035E-03  0.9587E-02 -0.1239E+00
   -0.149977   16.87744  0.0000E+00  0.1159E-04  0.1332E-06  0.1778E-03  0.8065E-02  0.1092E+03
   -0.187472   16.88072  0.0000E+00  0.1111E-04  0.1034E-06  0.3001E-03  0.7014E-02  0.1903E+03
   -0.224968   16.88259  0.0000E+00  0.1082E-04  0.8497E-07  0.4113E-03  0.6244E-02  0.5043E+02
   -0.262463   16.88382  0.0000E+00  0.1065E-04  0.7185E-07  0.4207E-03  0.5606E-02  0.7061E+01
   -0.299959   16.88499  0.0000E+00  0.1052E-04  0.6165E-07  0.4501E-03  0.5013E-02  0.6374E+01
   -0.337455   16.88607  0.0000E+00  0.1044E-04  0.5375E-07  0.4740E-03  0.4490E-02  0.5637E+01
   -0.374952   16.88708  0.0000E+00  0.1038E-04  0.4743E-07  0.5012E-03  0.4015E-02  0.5166E+01
   -0.412448   16.88803  0.0000E+00  0.1034E-04  0.4230E-07  0.5294E-03  0.3583E-02  0.4793E+01
   -0.449945   16.88892  0.0000E+00  0.1031E-04  0.3805E-07  0.5601E-03  0.3186E-02  0.4507E+01
   -0.487442   16.88976  0.0000E+00  0.1027E-04  0.3448E-07  0.5934E-03  0.2820E-02  0.4237E+01
   -0.524939   16.89055  0.0000E+00  0.1022E-04  0.3143E-07  0.6310E-03  0.2479E-02  0.3837E+01
   -0.562436   16.89130  0.0000E+00  0.1015E-04  0.2881E-07  0.6690E-03  0.2168E-02  0.3518E+01
   -0.599933   16.89200  0.0000E+00  0.1007E-04  0.2656E-07  0.7081E-03  0.1881E-02  0.3339E+01
   -0.637430   16.89266  0.0000E+00  0.9951E-05  0.2452E-07  0.7680E-03  0.1624E-02  0.3052E+01
   -0.674927   16.89327  0.0000E+00  0.9868E-05  0.2356E-07  0.1263E-02  0.1361E-02  0.1847E+01
   -0.712425   16.89365  0.0000E+00  0.9814E-05  0.2308E-07  0.1298E-02  0.1280E-02  0.1886E+01
   -0.749922   16.89402  0.0000E+00  0.9737E-05  0.2256E-07  0.7699E-03  0.1215E-02  0.1973E+01
   -0.787419   16.89464  0.0000E+00  0.9559E-05  0.2180E-07  0.7956E-03  0.1028E-02  0.2102E+01
   -0.824917   16.89525  0.0000E+00  0.9363E-05  0.2128E-07  0.7640E-03  0.8806E-03  0.1878E+01
   -0.862414   16.89589  0.0000E+00  0.9253E-05  0.2112E-07  0.1277E-02  0.7375E-03  0.1441E+01
   -0.899911   16.89628  0.0000E+00  0.9180E-05  0.2110E-07  0.1197E-02  0.6960E-03  0.1488E+01
   -0.937408   16.89670  0.0000E+00  0.9070E-05  0.2117E-07  0.8361E-03  0.6639E-03  0.1489E+01
   -0.974905   16.89731  0.0000E+00  0.8835E-05  0.2149E-07  0.8783E-03  0.5689E-03  0.1474E+01
   -1.012402   16.89790  0.0000E+00  0.8611E-05  0.2193E-07  0.9140E-03  0.4938E-03  0.1353E+01
   -1.049899   16.89847  0.0000E+00  0.8391E-05  0.2252E-07  0.9086E-03  0.4309E-03  0.1251E+01
   -1.087396   16.89906  0.0000E+00  0.8180E-05  0.2322E-07  0.8340E-03  0.3795E-03  0.1143E+01
   -1.124892   16.89970  0.0000E+00  0.7978E-05  0.2405E-07  0.7627E-03  0.3374E-03  0.1045E+01
   -1.162389   16.90041  0.0000E+00  0.7784E-05  0.2499E-07  0.7014E-03  0.3030E-03  0.9681E+00
   -1.199885   16.90120  0.0000E+00  0.7593E-05  0.2611E-07  0.6536E-03  0.2746E-03  0.1012E+01
   -1.237381   16.90206  0.0000E+00  0.7383E-05  0.2757E-07  0.6054E-03  0.2500E-03  0.1401E+01
   -1.274876   16.90300  0.0000E+00  0.7130E-05  0.2973E-07  0.5261E-03  0.2262E-03  0.3356E+01
   -1.312372   16.90412  0.0000E+00  0.6812E-05  0.3306E-07  0.4596E-03  0.2024E-03  0.4919E+01
   -1.349867   16.90542  0.0000E+00  0.6394E-05  0.3888E-07  0.3372E-03  0.1798E-03  0.6654E+01
   -1.387361   16.90742  0.0000E+00  0.5832E-05  0.4938E-07  0.3076E-03  0.1546E-03  0.3005E+03
   -1.424856   16.90937  0.0000E+00  0.4890E-05  0.7973E-07  0.1323E-03  0.1354E-03  0.7775E+05
   -1.462350   16.91945  0.0000E+00  0.2965E-05  0.1968E-06  0.4608E-04  0.1033E-03 -0.1732E+05
   -1.499844   16.93494  0.0000E+00  0.0000E+00  0.0000E+00  0.0000E+00  0.1136E-03  0.0000E+00
