 1 - depth, m
 2 - temperature, C
 3 - salinity, kg/kg
 4 - turbulent kinetic energy, m**2/s**2
 5 - dissipation rate, m**2/s**3
 6 - kinematic heat conductance, m**2/s
 7 - modulus of horizontal velocity, m/s
 8 - Richardson number, n/d
   -0.000000    0.00000  0.0000E+00  0.4096E-13  0.8590E-16  0.1000E-09  0.0000E+00  0.1139E+17
   -0.037498    0.17495  0.0000E+00  0.4096E-13  0.8590E-16  0.1000E-09  0.0000E+00  0.1078E+17
   -0.074996    0.34885  0.0000E+00  0.4096E-13  0.8590E-16  0.1000E-09  0.0000E+00  0.1018E+17
   -0.112495    0.52156  0.0000E+00  0.4096E-13  0.8590E-16  0.1000E-09  0.0000E+00  0.9585E+16
   -0.149994    0.69294  0.0000E+00  0.4096E-13  0.8590E-16  0.1000E-09  0.0000E+00  0.8995E+16
   -0.187494    0.86282  0.0000E+00  0.4096E-13  0.8590E-16  0.1000E-09  0.0000E+00  0.8415E+16
   -0.224993    1.03106  0.0000E+00  0.4096E-13  0.8590E-16  0.1000E-09  0.0000E+00  0.7844E+16
   -0.262493    1.19747  0.0000E+00  0.4096E-13  0.8590E-16  0.1000E-09  0.0000E+00  0.7281E+16
   -0.299993    1.36184  0.0000E+00  0.1057E-12  0.8590E-16  0.1000E-09  0.0000E+00  0.6730E+16
   -0.337494    1.52397  0.0000E+00  0.3347E-12  0.9359E-16  0.1000E-09  0.0000E+00  0.6195E+16
   -0.374994    1.68370  0.0000E+00  0.7449E-12  0.1486E-15  0.1000E-09  0.0000E+00  0.5691E+16
   -0.412495    1.84131  0.0000E+00  0.1444E-11  0.2570E-15  0.1000E-09  0.0000E+00  0.5209E+16
   -0.449996    1.99693  0.0000E+00  0.2643E-11  0.4483E-15  0.1000E-09  0.0000E+00  0.4742E+16
   -0.487497    2.15043  0.0000E+00  0.4713E-11  0.7774E-15  0.1000E-09  0.0000E+00  0.4289E+16
   -0.524998    2.30167  0.0000E+00  0.8303E-11  0.1341E-14  0.1000E-09  0.0000E+00  0.3851E+16
   -0.562500    2.45046  0.0000E+00  0.1452E-10  0.2300E-14  0.1000E-09  0.0000E+00  0.3430E+16
   -0.600001    2.59668  0.0000E+00  0.2526E-10  0.3928E-14  0.1000E-09  0.0000E+00  0.3026E+16
   -0.637503    2.74019  0.0000E+00  0.4371E-10  0.6677E-14  0.1000E-09  0.0000E+00  0.2640E+16
   -0.675004    2.88086  0.0000E+00  0.7532E-10  0.1130E-13  0.1000E-09  0.0000E+00  0.2273E+16
   -0.712506    3.01857  0.0000E+00  0.1292E-09  0.1906E-13  0.1000E-09  0.0000E+00  0.1926E+16
   -0.750007    3.15319  0.0000E+00  0.2208E-09  0.3200E-13  0.1000E-09  0.0000E+00  0.1610E+16
   -0.787509    3.28556  0.0000E+00  0.3757E-09  0.5351E-13  0.1133E-09  0.0000E+00  0.1311E+16
   -0.825011    3.41593  0.0000E+00  0.6367E-09  0.8915E-13  0.2414E-09  0.0000E+00  0.1025E+16
   -0.862512    3.54418  0.0000E+00  0.1075E-08  0.1479E-12  0.5456E-09  0.0000E+00  0.7527E+15
   -0.900014    3.67013  0.0000E+00  0.1806E-08  0.2445E-12  0.1376E-08  0.0000E+00  0.4934E+15
   -0.937515    3.79337  0.0000E+00  0.3019E-08  0.4021E-12  0.4484E-08  0.0000E+00  0.2489E+15
   -0.975016    3.91206  0.0000E+00  0.4941E-08  0.6489E-12  0.4413E-07  0.0000E+00  0.4085E+14
   -1.012518    4.00394  0.0000E+00  0.5628E-08  0.7430E-12  0.1733E-04  0.0000E+00 -0.2727E+12
   -1.050019    4.00490  0.0000E+00  0.5945E-08  0.7953E-12  0.1790E-04  0.0000E+00 -0.2773E+12
   -1.087520    4.00583  0.0000E+00  0.6209E-08  0.8492E-12  0.1808E-04  0.0000E+00 -0.2864E+12
   -1.125021    4.00675  0.0000E+00  0.6426E-08  0.9072E-12  0.1783E-04  0.0000E+00 -0.3043E+12
   -1.162521    4.00768  0.0000E+00  0.6595E-08  0.9714E-12  0.1710E-04  0.0000E+00 -0.3325E+12
   -1.200021    4.00865  0.0000E+00  0.6714E-08  0.1045E-11  0.1604E-04  0.0000E+00 -0.3720E+12
   -1.237522    4.00969  0.0000E+00  0.6777E-08  0.1133E-11  0.1470E-04  0.0000E+00 -0.4268E+12
   -1.275022    4.01082  0.0000E+00  0.6773E-08  0.1244E-11  0.1302E-04  0.0000E+00 -0.5098E+12
   -1.312521    4.01212  0.0000E+00  0.6680E-08  0.1396E-11  0.1090E-04  0.0000E+00 -0.6488E+12
   -1.350021    4.01368  0.0000E+00  0.6456E-08  0.1626E-11  0.8324E-05  0.0000E+00 -0.9160E+12
   -1.387520    4.01574  0.0000E+00  0.6010E-08  0.2027E-11  0.5362E-05  0.0000E+00 -0.1568E+13
   -1.425018    4.01896  0.0000E+00  0.5111E-08  0.2944E-11  0.2346E-05  0.0000E+00 -0.4162E+13
   -1.462517    4.02628  0.0000E+00  0.3273E-08  0.6278E-11  0.3519E-06  0.0000E+00 -0.3552E+14
   -1.500015    4.06464  0.0000E+00  0.0000E+00  0.0000E+00  0.0000E+00  0.0000E+00  0.0000E+00
