 1 - depth, m
 2 - temperature, C
 3 - salinity, kg/kg
 4 - turbulent kinetic energy, m**2/s**2
 5 - dissipation rate, m**2/s**3
 6 - kinematic heat conductance, m**2/s
 7 - modulus of horizontal velocity, m/s
 8 - Richardson number, n/d
   -0.000000    0.00000  0.0000E+00  0.4096E-13  0.8590E-16  0.1000E-09  0.0000E+00  0.1003E+17
   -0.037493    0.15363  0.0000E+00  0.4096E-13  0.8590E-16  0.1000E-09  0.0000E+00  0.9498E+16
   -0.074987    0.30541  0.0000E+00  0.4096E-13  0.8590E-16  0.1000E-09  0.0000E+00  0.8964E+16
   -0.112481    0.45503  0.0000E+00  0.4096E-13  0.8590E-16  0.1000E-09  0.0000E+00  0.8433E+16
   -0.149976    0.60220  0.0000E+00  0.4096E-13  0.8590E-16  0.1000E-09  0.0000E+00  0.7907E+16
   -0.187471    0.74661  0.0000E+00  0.4096E-13  0.8590E-16  0.1000E-09  0.0000E+00  0.7391E+16
   -0.224966    0.88802  0.0000E+00  0.4096E-13  0.8590E-16  0.1000E-09  0.0000E+00  0.6886E+16
   -0.262461    1.02618  0.0000E+00  0.4096E-13  0.8590E-16  0.1000E-09  0.0000E+00  0.6382E+16
   -0.299956    1.16057  0.0000E+00  0.4096E-13  0.8590E-16  0.1000E-09  0.0000E+00  0.5894E+16
   -0.337452    1.29091  0.0000E+00  0.4096E-13  0.8590E-16  0.1000E-09  0.0000E+00  0.5425E+16
   -0.374948    1.41701  0.0000E+00  0.4096E-13  0.8590E-16  0.1000E-09  0.0000E+00  0.5031E+16
   -0.412444    1.54000  0.0000E+00  0.4096E-13  0.8590E-16  0.1000E-09  0.0000E+00  0.4684E+16
   -0.449941    1.66059  0.0000E+00  0.4096E-13  0.8590E-16  0.1000E-09  0.0000E+00  0.4350E+16
   -0.487437    1.77870  0.0000E+00  0.4096E-13  0.8590E-16  0.1000E-09  0.0000E+00  0.4028E+16
   -0.524934    1.89425  0.0000E+00  0.4096E-13  0.8590E-16  0.1000E-09  0.0000E+00  0.3715E+16
   -0.562430    2.00699  0.0000E+00  0.4096E-13  0.8590E-16  0.1000E-09  0.0000E+00  0.3416E+16
   -0.599927    2.11686  0.0000E+00  0.4096E-13  0.8590E-16  0.1000E-09  0.0000E+00  0.3131E+16
   -0.637424    2.22377  0.0000E+00  0.4096E-13  0.8590E-16  0.1000E-09  0.0000E+00  0.2861E+16
   -0.674921    2.32764  0.0000E+00  0.4096E-13  0.8590E-16  0.1000E-09  0.0000E+00  0.2605E+16
   -0.712418    2.42841  0.0000E+00  0.4096E-13  0.8590E-16  0.1000E-09  0.0000E+00  0.2363E+16
   -0.749915    2.52598  0.0000E+00  0.4096E-13  0.8590E-16  0.1000E-09  0.0000E+00  0.2169E+16
   -0.787412    2.62185  0.0000E+00  0.4096E-13  0.8590E-16  0.1000E-09  0.0000E+00  0.1996E+16
   -0.824909    2.71656  0.0000E+00  0.4096E-13  0.8590E-16  0.1000E-09  0.0000E+00  0.1828E+16
   -0.862406    2.81016  0.0000E+00  0.4096E-13  0.8590E-16  0.1000E-09  0.0000E+00  0.1668E+16
   -0.899903    2.90272  0.0000E+00  0.4096E-13  0.8590E-16  0.1000E-09  0.0000E+00  0.1513E+16
   -0.937399    2.99428  0.0000E+00  0.4096E-13  0.8590E-16  0.1000E-09  0.0000E+00  0.1365E+16
   -0.974896    3.08493  0.0000E+00  0.4096E-13  0.8590E-16  0.1000E-09  0.0000E+00  0.1222E+16
   -1.012393    3.17475  0.0000E+00  0.1114E-12  0.9342E-16  0.1000E-09  0.0000E+00  0.1082E+16
   -1.049889    3.26372  0.0000E+00  0.3648E-12  0.2436E-15  0.1000E-09  0.0000E+00  0.9471E+15
   -1.087385    3.35187  0.0000E+00  0.1099E-11  0.6951E-15  0.1000E-09  0.0000E+00  0.8165E+15
   -1.124882    3.43928  0.0000E+00  0.3212E-11  0.1966E-14  0.1000E-09  0.0000E+00  0.7020E+15
   -1.162378    3.52770  0.0000E+00  0.9234E-11  0.5492E-14  0.1000E-09  0.0000E+00  0.5868E+15
   -1.199873    3.61768  0.0000E+00  0.2622E-10  0.1517E-13  0.1000E-09  0.0000E+00  0.4670E+15
   -1.237369    3.70960  0.0000E+00  0.7360E-10  0.4145E-13  0.3304E-09  0.0000E+00  0.3403E+15
   -1.274864    3.80391  0.0000E+00  0.2065E-09  0.1135E-12  0.1486E-08  0.0000E+00  0.2045E+15
   -1.312359    3.90138  0.0000E+00  0.5734E-09  0.3085E-12  0.1369E-07  0.0000E+00  0.5584E+14
   -1.349854    3.99580  0.0000E+00  0.1432E-08  0.7751E-12  0.8533E-06  0.0000E+00 -0.4211E+13
   -1.387348    4.01143  0.0000E+00  0.2081E-08  0.1387E-11  0.1091E-05  0.0000E+00 -0.6684E+13
   -1.424842    4.02484  0.0000E+00  0.2417E-08  0.2374E-11  0.8160E-06  0.0000E+00 -0.1411E+14
   -1.462336    4.04365  0.0000E+00  0.2232E-08  0.4815E-11  0.2846E-06  0.0000E+00 -0.6028E+14
   -1.499830    4.09116  0.0000E+00  0.0000E+00  0.0000E+00  0.0000E+00  0.0000E+00  0.0000E+00
