 1 - depth, m
 2 - temperature, C
 3 - salinity, kg/kg
 4 - turbulent kinetic energy, m**2/s**2
 5 - dissipation rate, m**2/s**3
 6 - kinematic heat conductance, m**2/s
 7 - modulus of horizontal velocity, m/s
 8 - Richardson number, n/d
   -0.000000    0.00000  0.0000E+00  0.4096E-13  0.8590E-16  0.1000E-09  0.0000E+00  0.9164E+16
   -0.037497    0.14010  0.0000E+00  0.4096E-13  0.8590E-16  0.1000E-09  0.0000E+00  0.8717E+16
   -0.074995    0.27861  0.0000E+00  0.4096E-13  0.8590E-16  0.1000E-09  0.0000E+00  0.8285E+16
   -0.112493    0.41556  0.0000E+00  0.4096E-13  0.8590E-16  0.1000E-09  0.0000E+00  0.7868E+16
   -0.149991    0.55097  0.0000E+00  0.4096E-13  0.8590E-16  0.1000E-09  0.0000E+00  0.7461E+16
   -0.187489    0.68483  0.0000E+00  0.4096E-13  0.8590E-16  0.1000E-09  0.0000E+00  0.7064E+16
   -0.224988    0.81708  0.0000E+00  0.4096E-13  0.8590E-16  0.1000E-09  0.0000E+00  0.6677E+16
   -0.262487    0.94766  0.0000E+00  0.4096E-13  0.8590E-16  0.1000E-09  0.0000E+00  0.6290E+16
   -0.299986    1.07630  0.0000E+00  0.4096E-13  0.8590E-16  0.1000E-09  0.0000E+00  0.5911E+16
   -0.337486    1.20288  0.0000E+00  0.4096E-13  0.8590E-16  0.1000E-09  0.0000E+00  0.5542E+16
   -0.374986    1.32729  0.0000E+00  0.4096E-13  0.8590E-16  0.1000E-09  0.0000E+00  0.5212E+16
   -0.412486    1.45011  0.0000E+00  0.4096E-13  0.8590E-16  0.1000E-09  0.0000E+00  0.4906E+16
   -0.449986    1.57167  0.0000E+00  0.4096E-13  0.8590E-16  0.1000E-09  0.0000E+00  0.4606E+16
   -0.487486    1.69190  0.0000E+00  0.4096E-13  0.8590E-16  0.1000E-09  0.0000E+00  0.4313E+16
   -0.524986    1.81074  0.0000E+00  0.4096E-13  0.8590E-16  0.1000E-09  0.0000E+00  0.4022E+16
   -0.562487    1.92797  0.0000E+00  0.4096E-13  0.8590E-16  0.1000E-09  0.0000E+00  0.3739E+16
   -0.599987    2.04351  0.0000E+00  0.4096E-13  0.8590E-16  0.1000E-09  0.0000E+00  0.3465E+16
   -0.637488    2.15731  0.0000E+00  0.4096E-13  0.8590E-16  0.1000E-09  0.0000E+00  0.3200E+16
   -0.674988    2.26930  0.0000E+00  0.4096E-13  0.8590E-16  0.1000E-09  0.0000E+00  0.2944E+16
   -0.712489    2.37940  0.0000E+00  0.4096E-13  0.8590E-16  0.1000E-09  0.0000E+00  0.2697E+16
   -0.749990    2.48757  0.0000E+00  0.4096E-13  0.8590E-16  0.1000E-09  0.0000E+00  0.2487E+16
   -0.787491    2.59495  0.0000E+00  0.4096E-13  0.8590E-16  0.1000E-09  0.0000E+00  0.2291E+16
   -0.824991    2.70197  0.0000E+00  0.4096E-13  0.8590E-16  0.1000E-09  0.0000E+00  0.2098E+16
   -0.862492    2.80864  0.0000E+00  0.7447E-13  0.8590E-16  0.1000E-09  0.0000E+00  0.1907E+16
   -0.899993    2.91500  0.0000E+00  0.2726E-12  0.1350E-15  0.1000E-09  0.0000E+00  0.1719E+16
   -0.937493    3.02105  0.0000E+00  0.7343E-12  0.3058E-15  0.1000E-09  0.0000E+00  0.1534E+16
   -0.974994    3.12682  0.0000E+00  0.1794E-11  0.7093E-15  0.1000E-09  0.0000E+00  0.1350E+16
   -1.012494    3.23232  0.0000E+00  0.4254E-11  0.1630E-14  0.1000E-09  0.0000E+00  0.1168E+16
   -1.049994    3.33747  0.0000E+00  0.9966E-11  0.3718E-14  0.1000E-09  0.0000E+00  0.9882E+15
   -1.087494    3.44223  0.0000E+00  0.2313E-10  0.8409E-14  0.1000E-09  0.0000E+00  0.8105E+15
   -1.124994    3.54660  0.0000E+00  0.5320E-10  0.1886E-13  0.1000E-09  0.0000E+00  0.6437E+15
   -1.162494    3.65216  0.0000E+00  0.1214E-09  0.4198E-13  0.2451E-09  0.0000E+00  0.4726E+15
   -1.199994    3.75917  0.0000E+00  0.2746E-09  0.9275E-13  0.8666E-09  0.0000E+00  0.2943E+15
   -1.237493    3.86748  0.0000E+00  0.6152E-09  0.2031E-12  0.5018E-08  0.0000E+00  0.1097E+15
   -1.274992    3.97474  0.0000E+00  0.1282E-08  0.4181E-12  0.5206E-06  0.0000E+00 -0.2352E+12
   -1.312491    3.99914  0.0000E+00  0.2071E-08  0.7703E-12  0.1955E-05  0.0000E+00 -0.2087E+13
   -1.349989    4.00707  0.0000E+00  0.2629E-08  0.1159E-11  0.2121E-05  0.0000E+00 -0.2948E+13
   -1.387487    4.01473  0.0000E+00  0.2986E-08  0.1707E-11  0.1800E-05  0.0000E+00 -0.4877E+13
   -1.424985    4.02413  0.0000E+00  0.3036E-08  0.2706E-11  0.1091E-05  0.0000E+00 -0.1139E+14
   -1.462483    4.04002  0.0000E+00  0.2553E-08  0.5475E-11  0.3137E-06  0.0000E+00 -0.5757E+14
   -1.499980    4.08752  0.0000E+00  0.0000E+00  0.0000E+00  0.0000E+00  0.0000E+00  0.0000E+00
