 1 - depth, m
 2 - temperature, C
 3 - salinity, kg/kg
 4 - turbulent kinetic energy, m**2/s**2
 5 - dissipation rate, m**2/s**3
 6 - kinematic heat conductance, m**2/s
 7 - modulus of horizontal velocity, m/s
 8 - Richardson number, n/d
   -0.000000    0.00000  0.0000E+00  0.4096E-13  0.8591E-16  0.1000E-09  0.5172E-25  0.1026E+17
   -0.037493    0.15732  0.0000E+00  0.4096E-13  0.8591E-16  0.1000E-09  0.2896E-25  0.6972E+16
   -0.074986    0.26833  0.0000E+00  0.4096E-13  0.8591E-16  0.1000E-09  0.1598E-25  0.4643E+16
   -0.112480    0.34437  0.0000E+00  0.4096E-13  0.8591E-16  0.1000E-09  0.8696E-26  0.3048E+16
   -0.149973    0.39530  0.0000E+00  0.4096E-13  0.8591E-16  0.1000E-09  0.4658E-26  0.2001E+16
   -0.187468    0.42921  0.0000E+00  0.4096E-13  0.8591E-16  0.1000E-09  0.2448E-26  0.1358E+16
   -0.224962    0.45245  0.0000E+00  0.4096E-13  0.8591E-16  0.1000E-09  0.1242E-26  0.1005E+16
   -0.262457    0.46975  0.0000E+00  0.4096E-13  0.8591E-16  0.1000E-09  0.5699E-27  0.7255E+15
   -0.299952    0.48229  0.0000E+00  0.4096E-13  0.8591E-16  0.1000E-09  0.2533E-27  0.5669E+15
   -0.337447    0.49210  0.0000E+00  0.4096E-13  0.8591E-16  0.1000E-09  0.1108E-27  0.5132E+15
   -0.374942    0.50100  0.0000E+00  0.4096E-13  0.8591E-16  0.1000E-09  0.4763E-28  0.6110E+15
   -0.412438    0.51161  0.0000E+00  0.4096E-13  0.8591E-16  0.1000E-09  0.2012E-28  0.8108E+15
   -0.449933    0.52574  0.0000E+00  0.4096E-13  0.8591E-16  0.1000E-09  0.8314E-29  0.1056E+16
   -0.487429    0.54423  0.0000E+00  0.4096E-13  0.8591E-16  0.1000E-09  0.3268E-29  0.1313E+16
   -0.524925    0.56736  0.0000E+00  0.4096E-13  0.8591E-16  0.1000E-09  0.1151E-29  0.1457E+16
   -0.562421    0.59323  0.0000E+00  0.4096E-13  0.8591E-16  0.1000E-09  0.3969E-30  0.1641E+16
   -0.599917    0.62263  0.0000E+00  0.4096E-13  0.8591E-16  0.1000E-09  0.1340E-30  0.1862E+16
   -0.637414    0.65631  0.0000E+00  0.4096E-13  0.8591E-16  0.1000E-09  0.4429E-31  0.2111E+16
   -0.674910    0.69493  0.0000E+00  0.4096E-13  0.8591E-16  0.1000E-09  0.1431E-31  0.2378E+16
   -0.712406    0.73900  0.0000E+00  0.4096E-13  0.8591E-16  0.1000E-09  0.4520E-32  0.2650E+16
   -0.749903    0.78886  0.0000E+00  0.4096E-13  0.8591E-16  0.1000E-09  0.1395E-32  0.3085E+16
   -0.787399    0.84794  0.0000E+00  0.4096E-13  0.8591E-16  0.1000E-09  0.4200E-33  0.3545E+16
   -0.824896    0.91729  0.0000E+00  0.4096E-13  0.8591E-16  0.1000E-09  0.1234E-33  0.3959E+16
   -0.862392    0.99675  0.0000E+00  0.4096E-13  0.8591E-16  0.1000E-09  0.3533E-34  0.4322E+16
   -0.899888    1.08610  0.0000E+00  0.4096E-13  0.8591E-16  0.1000E-09  0.9850E-35  0.4630E+16
   -0.937384    1.18514  0.0000E+00  0.4096E-13  0.8591E-16  0.1000E-09  0.2670E-35  0.4882E+16
   -0.974881    1.29372  0.0000E+00  0.4096E-13  0.8591E-16  0.1000E-09  0.6957E-36  0.5080E+16
   -1.012377    1.41178  0.0000E+00  0.4096E-13  0.8591E-16  0.1000E-09  0.1446E-36  0.4989E+16
   -1.049872    1.53356  0.0000E+00  0.4096E-13  0.8591E-16  0.1000E-09  0.2790E-37  0.4833E+16
   -1.087368    1.65789  0.0000E+00  0.4096E-13  0.8591E-16  0.1000E-09  0.5151E-38  0.4670E+16
   -1.124864    1.78501  0.0000E+00  0.4096E-13  0.8591E-16  0.1000E-09  0.9080E-39  0.5137E+16
   -1.162359    1.93427  0.0000E+00  0.4610E-13  0.1007E-15  0.1000E-09  0.1524E-39  0.5564E+16
   -1.199854    2.10974  0.0000E+00  0.1457E-12  0.3282E-15  0.1000E-09  0.2423E-40  0.5804E+16
   -1.237349    2.31300  0.0000E+00  0.8016E-12  0.1773E-14  0.1000E-09  0.3419E-41  0.5804E+16
   -1.274844    2.54573  0.0000E+00  0.4968E-11  0.1065E-13  0.1000E-09  0.3506E-42  0.5496E+16
   -1.312338    2.80974  0.0000E+00  0.3067E-10  0.6370E-13  0.1017E-09  0.3261E-43  0.4868E+16
   -1.349832    3.11099  0.0000E+00  0.1864E-09  0.3764E-12  0.3709E-09  0.2716E-44  0.3773E+16
   -1.387326    3.45839  0.0000E+00  0.1107E-08  0.2192E-11  0.8622E-08  0.1993E-45  0.1985E+16
   -1.424820    3.84625  0.0000E+00  0.5284E-08  0.1098E-10  0.8506E-06  0.1262E-46  0.4295E+15
   -1.462313    4.07414  0.0000E+00  0.9543E-08  0.3508E-10  0.8091E-06  0.7186E-48 -0.1771E+15
   -1.499806    4.17907  0.0000E+00  0.0000E+00  0.0000E+00  0.0000E+00  0.1202E-47  0.0000E+00
