 1 - depth, m
 2 - temperature, C
 3 - salinity, kg/kg
 4 - turbulent kinetic energy, m**2/s**2
 5 - dissipation rate, m**2/s**3
 6 - kinematic heat conductance, m**2/s
 7 - modulus of horizontal velocity, m/s
 8 - Richardson number, n/d
   -0.000000    0.00000  0.0000E+00  0.4096E-13  0.8590E-16  0.1000E-09  0.0000E+00  0.1072E+17
   -0.037497    0.16436  0.0000E+00  0.4096E-13  0.8590E-16  0.1000E-09  0.0000E+00  0.1003E+17
   -0.074994    0.32541  0.0000E+00  0.4096E-13  0.8590E-16  0.1000E-09  0.0000E+00  0.9372E+16
   -0.112492    0.48294  0.0000E+00  0.4096E-13  0.8590E-16  0.1000E-09  0.0000E+00  0.8730E+16
   -0.149990    0.63676  0.0000E+00  0.4096E-13  0.8590E-16  0.1000E-09  0.0000E+00  0.8111E+16
   -0.187488    0.78667  0.0000E+00  0.4096E-13  0.8590E-16  0.1000E-09  0.0000E+00  0.7515E+16
   -0.224987    0.93252  0.0000E+00  0.4096E-13  0.8590E-16  0.1000E-09  0.0000E+00  0.6944E+16
   -0.262486    1.07410  0.0000E+00  0.4096E-13  0.8590E-16  0.1000E-09  0.0000E+00  0.6384E+16
   -0.299985    1.21096  0.0000E+00  0.4096E-13  0.8590E-16  0.1000E-09  0.0000E+00  0.5848E+16
   -0.337484    1.34283  0.0000E+00  0.4096E-13  0.8590E-16  0.1000E-09  0.0000E+00  0.5340E+16
   -0.374984    1.46956  0.0000E+00  0.4096E-13  0.8590E-16  0.1000E-09  0.0000E+00  0.4927E+16
   -0.412484    1.59271  0.0000E+00  0.4096E-13  0.8590E-16  0.1000E-09  0.0000E+00  0.4574E+16
   -0.449984    1.71323  0.0000E+00  0.4096E-13  0.8590E-16  0.1000E-09  0.0000E+00  0.4236E+16
   -0.487484    1.83108  0.0000E+00  0.4096E-13  0.8590E-16  0.1000E-09  0.0000E+00  0.3911E+16
   -0.524984    1.94616  0.0000E+00  0.4096E-13  0.8590E-16  0.1000E-09  0.0000E+00  0.3599E+16
   -0.562484    2.05832  0.0000E+00  0.4096E-13  0.8590E-16  0.1000E-09  0.0000E+00  0.3301E+16
   -0.599985    2.16746  0.0000E+00  0.4096E-13  0.8590E-16  0.1000E-09  0.0000E+00  0.3017E+16
   -0.637485    2.27350  0.0000E+00  0.4096E-13  0.8590E-16  0.1000E-09  0.0000E+00  0.2749E+16
   -0.674986    2.37635  0.0000E+00  0.4096E-13  0.8590E-16  0.1000E-09  0.0000E+00  0.2494E+16
   -0.712486    2.47588  0.0000E+00  0.4096E-13  0.8590E-16  0.1000E-09  0.0000E+00  0.2254E+16
   -0.749987    2.57200  0.0000E+00  0.4096E-13  0.8590E-16  0.1000E-09  0.0000E+00  0.2062E+16
   -0.787487    2.66622  0.0000E+00  0.4096E-13  0.8590E-16  0.1000E-09  0.0000E+00  0.1891E+16
   -0.824988    2.75908  0.0000E+00  0.4096E-13  0.8590E-16  0.1000E-09  0.0000E+00  0.1725E+16
   -0.862488    2.85054  0.0000E+00  0.4096E-13  0.8590E-16  0.1000E-09  0.0000E+00  0.1566E+16
   -0.899989    2.94060  0.0000E+00  0.4096E-13  0.8590E-16  0.1000E-09  0.0000E+00  0.1413E+16
   -0.937489    3.02924  0.0000E+00  0.4096E-13  0.8590E-16  0.1000E-09  0.0000E+00  0.1266E+16
   -0.974990    3.11647  0.0000E+00  0.4096E-13  0.8590E-16  0.1000E-09  0.0000E+00  0.1127E+16
   -1.012490    3.20230  0.0000E+00  0.4096E-13  0.8590E-16  0.1000E-09  0.0000E+00  0.9947E+15
   -1.049990    3.28692  0.0000E+00  0.1272E-12  0.1065E-15  0.1000E-09  0.0000E+00  0.8690E+15
   -1.087490    3.37040  0.0000E+00  0.4220E-12  0.2916E-15  0.1000E-09  0.0000E+00  0.7490E+15
   -1.124989    3.45284  0.0000E+00  0.1292E-11  0.8508E-15  0.1000E-09  0.0000E+00  0.6411E+15
   -1.162489    3.53533  0.0000E+00  0.3845E-11  0.2456E-14  0.1000E-09  0.0000E+00  0.5357E+15
   -1.199988    3.61830  0.0000E+00  0.1127E-10  0.7004E-14  0.1000E-09  0.0000E+00  0.4305E+15
   -1.237488    3.70213  0.0000E+00  0.3265E-10  0.1976E-13  0.1646E-09  0.0000E+00  0.3240E+15
   -1.274986    3.78743  0.0000E+00  0.9459E-10  0.5586E-13  0.6958E-09  0.0000E+00  0.2141E+15
   -1.312485    3.87548  0.0000E+00  0.2723E-09  0.1574E-12  0.4323E-08  0.0000E+00  0.9290E+14
   -1.349983    3.96552  0.0000E+00  0.7528E-09  0.4323E-12  0.1768E-06  0.0000E+00 -0.8071E+12
   -1.387481    4.00953  0.0000E+00  0.1590E-08  0.1133E-11  0.8004E-06  0.0000E+00 -0.7747E+13
   -1.424979    4.02541  0.0000E+00  0.2050E-08  0.2087E-11  0.6822E-06  0.0000E+00 -0.1533E+14
   -1.462476    4.04536  0.0000E+00  0.1989E-08  0.4245E-11  0.2614E-06  0.0000E+00 -0.5979E+14
   -1.499973    4.09181  0.0000E+00  0.0000E+00  0.0000E+00  0.0000E+00  0.0000E+00  0.0000E+00
