 1 - depth, m
 2 - temperature, C
 3 - salinity, kg/kg
 4 - turbulent kinetic energy, m**2/s**2
 5 - dissipation rate, m**2/s**3
 6 - kinematic heat conductance, m**2/s
 7 - modulus of horizontal velocity, m/s
 8 - Richardson number, n/d
   -0.000000    0.00000  0.0000E+00  0.4096E-13  0.8590E-16  0.1000E-09  0.0000E+00  0.9773E+16
   -0.037497    0.14961  0.0000E+00  0.4096E-13  0.8590E-16  0.1000E-09  0.0000E+00  0.9274E+16
   -0.074995    0.29755  0.0000E+00  0.4096E-13  0.8590E-16  0.1000E-09  0.0000E+00  0.8775E+16
   -0.112493    0.44360  0.0000E+00  0.4096E-13  0.8590E-16  0.1000E-09  0.0000E+00  0.8279E+16
   -0.149991    0.58750  0.0000E+00  0.4096E-13  0.8590E-16  0.1000E-09  0.0000E+00  0.7789E+16
   -0.187489    0.72903  0.0000E+00  0.4096E-13  0.8590E-16  0.1000E-09  0.0000E+00  0.7306E+16
   -0.224988    0.86795  0.0000E+00  0.4096E-13  0.8590E-16  0.1000E-09  0.0000E+00  0.6834E+16
   -0.262487    1.00407  0.0000E+00  0.4096E-13  0.8590E-16  0.1000E-09  0.0000E+00  0.6360E+16
   -0.299986    1.13687  0.0000E+00  0.4096E-13  0.8590E-16  0.1000E-09  0.0000E+00  0.5898E+16
   -0.337486    1.26612  0.0000E+00  0.4096E-13  0.8590E-16  0.1000E-09  0.0000E+00  0.5453E+16
   -0.374986    1.39160  0.0000E+00  0.4096E-13  0.8590E-16  0.1000E-09  0.0000E+00  0.5073E+16
   -0.412485    1.51432  0.0000E+00  0.4096E-13  0.8590E-16  0.1000E-09  0.0000E+00  0.4734E+16
   -0.449985    1.63486  0.0000E+00  0.4096E-13  0.8590E-16  0.1000E-09  0.0000E+00  0.4407E+16
   -0.487486    1.75315  0.0000E+00  0.4096E-13  0.8590E-16  0.1000E-09  0.0000E+00  0.4091E+16
   -0.524986    1.86907  0.0000E+00  0.4096E-13  0.8590E-16  0.1000E-09  0.0000E+00  0.3780E+16
   -0.562486    1.98237  0.0000E+00  0.4096E-13  0.8590E-16  0.1000E-09  0.0000E+00  0.3483E+16
   -0.599987    2.09296  0.0000E+00  0.4096E-13  0.8590E-16  0.1000E-09  0.0000E+00  0.3199E+16
   -0.637488    2.20077  0.0000E+00  0.4096E-13  0.8590E-16  0.1000E-09  0.0000E+00  0.2929E+16
   -0.674988    2.30570  0.0000E+00  0.4096E-13  0.8590E-16  0.1000E-09  0.0000E+00  0.2672E+16
   -0.712489    2.40768  0.0000E+00  0.4096E-13  0.8590E-16  0.1000E-09  0.0000E+00  0.2429E+16
   -0.749990    2.50665  0.0000E+00  0.4096E-13  0.8590E-16  0.1000E-09  0.0000E+00  0.2234E+16
   -0.787491    2.60404  0.0000E+00  0.4096E-13  0.8590E-16  0.1000E-09  0.0000E+00  0.2057E+16
   -0.824991    2.70041  0.0000E+00  0.4096E-13  0.8590E-16  0.1000E-09  0.0000E+00  0.1887E+16
   -0.862492    2.79580  0.0000E+00  0.4096E-13  0.8590E-16  0.1000E-09  0.0000E+00  0.1723E+16
   -0.899993    2.89030  0.0000E+00  0.4096E-13  0.8590E-16  0.1000E-09  0.0000E+00  0.1565E+16
   -0.937493    2.98395  0.0000E+00  0.4096E-13  0.8590E-16  0.1000E-09  0.0000E+00  0.1412E+16
   -0.974994    3.07684  0.0000E+00  0.4152E-13  0.8590E-16  0.1000E-09  0.0000E+00  0.1264E+16
   -1.012494    3.16905  0.0000E+00  0.1901E-12  0.1419E-15  0.1000E-09  0.0000E+00  0.1119E+16
   -1.049994    3.26050  0.0000E+00  0.6180E-12  0.3937E-15  0.1000E-09  0.0000E+00  0.9774E+15
   -1.087494    3.35121  0.0000E+00  0.1825E-11  0.1111E-14  0.1000E-09  0.0000E+00  0.8400E+15
   -1.124994    3.44123  0.0000E+00  0.5235E-11  0.3091E-14  0.1000E-09  0.0000E+00  0.7200E+15
   -1.162494    3.53254  0.0000E+00  0.1480E-10  0.8488E-14  0.1000E-09  0.0000E+00  0.5981E+15
   -1.199993    3.62571  0.0000E+00  0.4131E-10  0.2305E-13  0.1340E-09  0.0000E+00  0.4700E+15
   -1.237493    3.72112  0.0000E+00  0.1140E-09  0.6197E-13  0.5054E-09  0.0000E+00  0.3330E+15
   -1.274992    3.81913  0.0000E+00  0.3146E-09  0.1667E-12  0.2415E-08  0.0000E+00  0.1848E+15
   -1.312490    3.92004  0.0000E+00  0.8524E-09  0.4430E-12  0.3318E-07  0.0000E+00  0.3096E+14
   -1.349989    4.00748  0.0000E+00  0.1976E-08  0.1051E-11  0.1376E-05  0.0000E+00 -0.4375E+13
   -1.387487    4.01805  0.0000E+00  0.2593E-08  0.1674E-11  0.1430E-05  0.0000E+00 -0.6329E+13
   -1.424985    4.02893  0.0000E+00  0.2825E-08  0.2694E-11  0.9751E-06  0.0000E+00 -0.1325E+14
   -1.462482    4.04555  0.0000E+00  0.2471E-08  0.5367E-11  0.3060E-06  0.0000E+00 -0.5999E+14
   -1.499980    4.09203  0.0000E+00  0.0000E+00  0.0000E+00  0.0000E+00  0.0000E+00  0.0000E+00
