 1 - depth, m
 2 - temperature, C
 3 - salinity, kg/kg
 4 - turbulent kinetic energy, m**2/s**2
 5 - dissipation rate, m**2/s**3
 6 - kinematic heat conductance, m**2/s
 7 - modulus of horizontal velocity, m/s
 8 - Richardson number, n/d
   -0.000000    0.00000  0.0000E+00  0.4096E-13  0.8589E-16  0.1000E-09  0.0000E+00  0.1299E+17
   -0.037502    0.20031  0.0000E+00  0.4096E-13  0.8589E-16  0.1000E-09  0.0000E+00  0.1208E+17
   -0.075005    0.39719  0.0000E+00  0.4096E-13  0.8589E-16  0.1000E-09  0.0000E+00  0.1105E+17
   -0.112507    0.58802  0.0000E+00  0.4096E-13  0.8589E-16  0.1000E-09  0.0000E+00  0.9980E+16
   -0.150011    0.77060  0.0000E+00  0.4096E-13  0.8589E-16  0.1000E-09  0.0000E+00  0.8904E+16
   -0.187514    0.94325  0.0000E+00  0.4096E-13  0.8589E-16  0.1000E-09  0.0000E+00  0.7866E+16
   -0.225018    1.10483  0.0000E+00  0.4096E-13  0.8589E-16  0.1000E-09  0.0000E+00  0.6897E+16
   -0.262522    1.25473  0.0000E+00  0.4096E-13  0.8589E-16  0.1000E-09  0.0000E+00  0.5998E+16
   -0.300026    1.39246  0.0000E+00  0.4096E-13  0.8589E-16  0.1000E-09  0.0000E+00  0.5194E+16
   -0.337531    1.51820  0.0000E+00  0.4096E-13  0.8589E-16  0.1000E-09  0.0000E+00  0.4492E+16
   -0.375035    1.63258  0.0000E+00  0.4096E-13  0.8589E-16  0.1000E-09  0.0000E+00  0.4000E+16
   -0.412540    1.73954  0.0000E+00  0.4096E-13  0.8589E-16  0.1000E-09  0.0000E+00  0.3656E+16
   -0.450045    1.84213  0.0000E+00  0.4096E-13  0.8589E-16  0.1000E-09  0.0000E+00  0.3380E+16
   -0.487550    1.94174  0.0000E+00  0.4096E-13  0.8589E-16  0.1000E-09  0.0000E+00  0.3164E+16
   -0.525056    2.03977  0.0000E+00  0.4096E-13  0.8589E-16  0.1000E-09  0.0000E+00  0.2997E+16
   -0.562561    2.13759  0.0000E+00  0.4096E-13  0.8589E-16  0.1000E-09  0.0000E+00  0.2866E+16
   -0.600067    2.23638  0.0000E+00  0.4096E-13  0.8589E-16  0.1000E-09  0.0000E+00  0.2756E+16
   -0.637572    2.33713  0.0000E+00  0.4096E-13  0.8589E-16  0.1000E-09  0.0000E+00  0.2654E+16
   -0.675078    2.44051  0.0000E+00  0.4096E-13  0.8589E-16  0.1000E-09  0.0000E+00  0.2546E+16
   -0.712583    2.54683  0.0000E+00  0.4096E-13  0.8589E-16  0.1000E-09  0.0000E+00  0.2419E+16
   -0.750089    2.65590  0.0000E+00  0.4096E-13  0.8589E-16  0.1000E-09  0.0000E+00  0.2306E+16
   -0.787595    2.76917  0.0000E+00  0.4096E-13  0.8589E-16  0.1000E-09  0.0000E+00  0.2164E+16
   -0.825101    2.88624  0.0000E+00  0.4096E-13  0.8589E-16  0.1000E-09  0.0000E+00  0.1976E+16
   -0.862606    3.00551  0.0000E+00  0.4396E-13  0.8589E-16  0.1000E-09  0.0000E+00  0.1747E+16
   -0.900112    3.12495  0.0000E+00  0.9194E-13  0.8972E-16  0.1000E-09  0.0000E+00  0.1492E+16
   -0.937617    3.24222  0.0000E+00  0.2421E-12  0.1228E-15  0.1000E-09  0.0000E+00  0.1225E+16
   -0.975123    3.35492  0.0000E+00  0.6203E-12  0.2399E-15  0.1000E-09  0.0000E+00  0.9659E+15
   -1.012628    3.46078  0.0000E+00  0.1454E-11  0.5288E-15  0.1000E-09  0.0000E+00  0.7376E+15
   -1.050133    3.55909  0.0000E+00  0.3305E-11  0.1173E-14  0.1000E-09  0.0000E+00  0.5399E+15
   -1.087638    3.64877  0.0000E+00  0.7428E-11  0.2589E-14  0.1000E-09  0.0000E+00  0.3766E+15
   -1.125143    3.72915  0.0000E+00  0.1659E-10  0.5690E-14  0.1081E-09  0.0000E+00  0.2476E+15
   -1.162648    3.79974  0.0000E+00  0.3690E-10  0.1247E-13  0.2635E-09  0.0000E+00  0.1521E+15
   -1.200152    3.86102  0.0000E+00  0.8168E-10  0.2724E-13  0.1128E-08  0.0000E+00  0.8451E+14
   -1.237657    3.91402  0.0000E+00  0.1793E-09  0.5927E-13  0.7125E-08  0.0000E+00  0.3789E+14
   -1.275161    3.95962  0.0000E+00  0.3856E-09  0.1282E-12  0.1218E-06  0.0000E+00  0.7982E+13
   -1.312664    3.99188  0.0000E+00  0.7362E-09  0.2654E-12  0.5711E-06  0.0000E+00 -0.1663E+13
   -1.350168    4.00252  0.0000E+00  0.1090E-08  0.4722E-12  0.8193E-06  0.0000E+00 -0.2722E+13
   -1.387671    4.01104  0.0000E+00  0.1385E-08  0.7894E-12  0.8036E-06  0.0000E+00 -0.4745E+13
   -1.425174    4.02120  0.0000E+00  0.1553E-08  0.1370E-11  0.5660E-06  0.0000E+00 -0.1118E+14
   -1.462676    4.03775  0.0000E+00  0.1462E-08  0.2824E-11  0.2096E-06  0.0000E+00 -0.4852E+14
   -1.500178    4.08036  0.0000E+00  0.0000E+00  0.0000E+00  0.0000E+00  0.0000E+00  0.0000E+00
