 1 - depth, m
 2 - temperature, C
 3 - salinity, kg/kg
 4 - turbulent kinetic energy, m**2/s**2
 5 - dissipation rate, m**2/s**3
 6 - kinematic heat conductance, m**2/s
 7 - modulus of horizontal velocity, m/s
 8 - Richardson number, n/d
   -0.000000    0.00000  0.0000E+00  0.4096E-13  0.8590E-16  0.1000E-09  0.0000E+00  0.9589E+16
   -0.037498    0.14674  0.0000E+00  0.4096E-13  0.8590E-16  0.1000E-09  0.0000E+00  0.9070E+16
   -0.074997    0.29125  0.0000E+00  0.4096E-13  0.8590E-16  0.1000E-09  0.0000E+00  0.8570E+16
   -0.112496    0.43354  0.0000E+00  0.4096E-13  0.8590E-16  0.1000E-09  0.0000E+00  0.8087E+16
   -0.149996    0.57359  0.0000E+00  0.4096E-13  0.8590E-16  0.1000E-09  0.0000E+00  0.7618E+16
   -0.187495    0.71133  0.0000E+00  0.4096E-13  0.8590E-16  0.1000E-09  0.0000E+00  0.7165E+16
   -0.224995    0.84670  0.0000E+00  0.4096E-13  0.8590E-16  0.1000E-09  0.0000E+00  0.6726E+16
   -0.262495    0.97961  0.0000E+00  0.4096E-13  0.8590E-16  0.1000E-09  0.0000E+00  0.6289E+16
   -0.299996    1.10974  0.0000E+00  0.4096E-13  0.8590E-16  0.1000E-09  0.0000E+00  0.5866E+16
   -0.337497    1.23694  0.0000E+00  0.4096E-13  0.8590E-16  0.1000E-09  0.0000E+00  0.5459E+16
   -0.374997    1.36110  0.0000E+00  0.4096E-13  0.8590E-16  0.1000E-09  0.0000E+00  0.5104E+16
   -0.412498    1.48302  0.0000E+00  0.4096E-13  0.8590E-16  0.1000E-09  0.0000E+00  0.4783E+16
   -0.450000    1.60316  0.0000E+00  0.4096E-13  0.8590E-16  0.1000E-09  0.0000E+00  0.4472E+16
   -0.487501    1.72148  0.0000E+00  0.4096E-13  0.8590E-16  0.1000E-09  0.0000E+00  0.4169E+16
   -0.525003    1.83789  0.0000E+00  0.4096E-13  0.8590E-16  0.1000E-09  0.0000E+00  0.3871E+16
   -0.562504    1.95217  0.0000E+00  0.4096E-13  0.8590E-16  0.1000E-09  0.0000E+00  0.3585E+16
   -0.600006    2.06423  0.0000E+00  0.4096E-13  0.8590E-16  0.1000E-09  0.0000E+00  0.3309E+16
   -0.637508    2.17403  0.0000E+00  0.4096E-13  0.8590E-16  0.1000E-09  0.0000E+00  0.3045E+16
   -0.675010    2.28149  0.0000E+00  0.4096E-13  0.8590E-16  0.1000E-09  0.0000E+00  0.2792E+16
   -0.712512    2.38656  0.0000E+00  0.4096E-13  0.8590E-16  0.1000E-09  0.0000E+00  0.2551E+16
   -0.750014    2.48918  0.0000E+00  0.4096E-13  0.8590E-16  0.1000E-09  0.0000E+00  0.2354E+16
   -0.787515    2.59071  0.0000E+00  0.4096E-13  0.8590E-16  0.1000E-09  0.0000E+00  0.2173E+16
   -0.825017    2.69164  0.0000E+00  0.4096E-13  0.8590E-16  0.1000E-09  0.0000E+00  0.1996E+16
   -0.862519    2.79203  0.0000E+00  0.4096E-13  0.8590E-16  0.1000E-09  0.0000E+00  0.1824E+16
   -0.900021    2.89192  0.0000E+00  0.4096E-13  0.8590E-16  0.1000E-09  0.0000E+00  0.1655E+16
   -0.937523    2.99139  0.0000E+00  0.1447E-12  0.9796E-16  0.1000E-09  0.0000E+00  0.1490E+16
   -0.975024    3.09049  0.0000E+00  0.4392E-12  0.2316E-15  0.1000E-09  0.0000E+00  0.1328E+16
   -1.012526    3.18928  0.0000E+00  0.1189E-11  0.5896E-15  0.1000E-09  0.0000E+00  0.1166E+16
   -1.050027    3.28767  0.0000E+00  0.3111E-11  0.1492E-14  0.1000E-09  0.0000E+00  0.1008E+16
   -1.087529    3.38567  0.0000E+00  0.8008E-11  0.3732E-14  0.1000E-09  0.0000E+00  0.8515E+15
   -1.125030    3.48332  0.0000E+00  0.2038E-10  0.9240E-14  0.1000E-09  0.0000E+00  0.7094E+15
   -1.162531    3.58249  0.0000E+00  0.5131E-10  0.2266E-13  0.1111E-09  0.0000E+00  0.5631E+15
   -1.200031    3.68368  0.0000E+00  0.1280E-09  0.5504E-13  0.3708E-09  0.0000E+00  0.4078E+15
   -1.237532    3.78700  0.0000E+00  0.3159E-09  0.1325E-12  0.1493E-08  0.0000E+00  0.2424E+15
   -1.275032    3.89226  0.0000E+00  0.7766E-09  0.3184E-12  0.1221E-07  0.0000E+00  0.6894E+14
   -1.312532    3.99389  0.0000E+00  0.1678E-08  0.6860E-12  0.1288E-05  0.0000E+00 -0.2360E+13
   -1.350032    4.00535  0.0000E+00  0.2337E-08  0.1105E-11  0.1730E-05  0.0000E+00 -0.3367E+13
   -1.387531    4.01447  0.0000E+00  0.2791E-08  0.1688E-11  0.1593E-05  0.0000E+00 -0.5467E+13
   -1.425030    4.02493  0.0000E+00  0.2936E-08  0.2726E-11  0.1022E-05  0.0000E+00 -0.1243E+14
   -1.462529    4.04180  0.0000E+00  0.2546E-08  0.5534E-11  0.3135E-06  0.0000E+00 -0.5990E+14
   -1.500027    4.08992  0.0000E+00  0.0000E+00  0.0000E+00  0.0000E+00  0.0000E+00  0.0000E+00
