 1 - depth, m
 2 - temperature, C
 3 - salinity, kg/kg
 4 - turbulent kinetic energy, m**2/s**2
 5 - dissipation rate, m**2/s**3
 6 - kinematic heat conductance, m**2/s
 7 - modulus of horizontal velocity, m/s
 8 - Richardson number, n/d
   -0.000000    0.00000  0.0000E+00  0.4096E-13  0.8590E-16  0.1000E-09  0.0000E+00  0.9105E+16
   -0.037493    0.13918  0.0000E+00  0.4096E-13  0.8590E-16  0.1000E-09  0.0000E+00  0.8670E+16
   -0.074986    0.27688  0.0000E+00  0.4096E-13  0.8590E-16  0.1000E-09  0.0000E+00  0.8246E+16
   -0.112479    0.41310  0.0000E+00  0.4096E-13  0.8590E-16  0.1000E-09  0.0000E+00  0.7833E+16
   -0.149973    0.54780  0.0000E+00  0.4096E-13  0.8590E-16  0.1000E-09  0.0000E+00  0.7431E+16
   -0.187467    0.68097  0.0000E+00  0.4096E-13  0.8590E-16  0.1000E-09  0.0000E+00  0.7039E+16
   -0.224961    0.81255  0.0000E+00  0.4096E-13  0.8590E-16  0.1000E-09  0.0000E+00  0.6657E+16
   -0.262456    0.94251  0.0000E+00  0.4096E-13  0.8590E-16  0.1000E-09  0.0000E+00  0.6276E+16
   -0.299951    1.07063  0.0000E+00  0.4096E-13  0.8590E-16  0.1000E-09  0.0000E+00  0.5905E+16
   -0.337446    1.19680  0.0000E+00  0.4096E-13  0.8590E-16  0.1000E-09  0.0000E+00  0.5544E+16
   -0.374941    1.32096  0.0000E+00  0.4096E-13  0.8590E-16  0.1000E-09  0.0000E+00  0.5219E+16
   -0.412436    1.44364  0.0000E+00  0.4096E-13  0.8590E-16  0.1000E-09  0.0000E+00  0.4918E+16
   -0.449932    1.56516  0.0000E+00  0.4096E-13  0.8590E-16  0.1000E-09  0.0000E+00  0.4623E+16
   -0.487428    1.68549  0.0000E+00  0.4096E-13  0.8590E-16  0.1000E-09  0.0000E+00  0.4334E+16
   -0.524924    1.80455  0.0000E+00  0.4096E-13  0.8590E-16  0.1000E-09  0.0000E+00  0.4047E+16
   -0.562420    1.92217  0.0000E+00  0.4096E-13  0.8590E-16  0.1000E-09  0.0000E+00  0.3768E+16
   -0.599916    2.03827  0.0000E+00  0.4096E-13  0.8590E-16  0.1000E-09  0.0000E+00  0.3497E+16
   -0.637412    2.15281  0.0000E+00  0.4096E-13  0.8590E-16  0.1000E-09  0.0000E+00  0.3234E+16
   -0.674908    2.26572  0.0000E+00  0.4096E-13  0.8590E-16  0.1000E-09  0.0000E+00  0.2979E+16
   -0.712405    2.37693  0.0000E+00  0.4096E-13  0.8590E-16  0.1000E-09  0.0000E+00  0.2732E+16
   -0.749901    2.48636  0.0000E+00  0.4096E-13  0.8590E-16  0.1000E-09  0.0000E+00  0.2519E+16
   -0.787397    2.59506  0.0000E+00  0.4096E-13  0.8590E-16  0.1000E-09  0.0000E+00  0.2318E+16
   -0.824893    2.70339  0.0000E+00  0.4096E-13  0.8590E-16  0.1000E-09  0.0000E+00  0.2119E+16
   -0.862390    2.81135  0.0000E+00  0.9233E-13  0.8590E-16  0.1000E-09  0.0000E+00  0.1923E+16
   -0.899886    2.91893  0.0000E+00  0.3090E-12  0.1457E-15  0.1000E-09  0.0000E+00  0.1730E+16
   -0.937382    3.02613  0.0000E+00  0.8099E-12  0.3302E-15  0.1000E-09  0.0000E+00  0.1539E+16
   -0.974878    3.13293  0.0000E+00  0.1957E-11  0.7606E-15  0.1000E-09  0.0000E+00  0.1351E+16
   -1.012374    3.23933  0.0000E+00  0.4603E-11  0.1737E-14  0.1000E-09  0.0000E+00  0.1164E+16
   -1.049870    3.34523  0.0000E+00  0.1071E-10  0.3936E-14  0.1000E-09  0.0000E+00  0.9800E+15
   -1.087365    3.45057  0.0000E+00  0.2471E-10  0.8849E-14  0.1000E-09  0.0000E+00  0.7991E+15
   -1.124861    3.55529  0.0000E+00  0.5649E-10  0.1974E-13  0.1000E-09  0.0000E+00  0.6292E+15
   -1.162356    3.66085  0.0000E+00  0.1281E-09  0.4368E-13  0.2640E-09  0.0000E+00  0.4564E+15
   -1.199851    3.76745  0.0000E+00  0.2883E-09  0.9598E-13  0.9471E-09  0.0000E+00  0.2786E+15
   -1.237346    3.87483  0.0000E+00  0.6421E-09  0.2090E-12  0.5814E-08  0.0000E+00  0.9715E+14
   -1.274840    3.98018  0.0000E+00  0.1312E-08  0.4225E-12  0.7378E-06  0.0000E+00 -0.8132E+12
   -1.312335    3.99819  0.0000E+00  0.2016E-08  0.7372E-12  0.1896E-05  0.0000E+00 -0.1995E+13
   -1.349829    4.00620  0.0000E+00  0.2544E-08  0.1106E-11  0.2068E-05  0.0000E+00 -0.2860E+13
   -1.387322    4.01389  0.0000E+00  0.2886E-08  0.1632E-11  0.1756E-05  0.0000E+00 -0.4769E+13
   -1.424816    4.02332  0.0000E+00  0.2932E-08  0.2590E-11  0.1063E-05  0.0000E+00 -0.1119E+14
   -1.462309    4.03921  0.0000E+00  0.2464E-08  0.5233E-11  0.3056E-06  0.0000E+00 -0.5643E+14
   -1.499802    4.08636  0.0000E+00  0.0000E+00  0.0000E+00  0.0000E+00  0.0000E+00  0.0000E+00
