 1 - depth, m
 2 - temperature, C
 3 - salinity, kg/kg
 4 - turbulent kinetic energy, m**2/s**2
 5 - dissipation rate, m**2/s**3
 6 - kinematic heat conductance, m**2/s
 7 - modulus of horizontal velocity, m/s
 8 - Richardson number, n/d
   -0.000000    0.00000  0.0000E+00  0.4096E-13  0.8590E-16  0.1000E-09  0.0000E+00  0.9185E+16
   -0.037494    0.14043  0.0000E+00  0.4096E-13  0.8590E-16  0.1000E-09  0.0000E+00  0.8744E+16
   -0.074988    0.27938  0.0000E+00  0.4096E-13  0.8590E-16  0.1000E-09  0.0000E+00  0.8310E+16
   -0.112483    0.41678  0.0000E+00  0.4096E-13  0.8590E-16  0.1000E-09  0.0000E+00  0.7886E+16
   -0.149978    0.55257  0.0000E+00  0.4096E-13  0.8590E-16  0.1000E-09  0.0000E+00  0.7471E+16
   -0.187473    0.68668  0.0000E+00  0.4096E-13  0.8590E-16  0.1000E-09  0.0000E+00  0.7067E+16
   -0.224969    0.81906  0.0000E+00  0.4096E-13  0.8590E-16  0.1000E-09  0.0000E+00  0.6674E+16
   -0.262465    0.94967  0.0000E+00  0.4096E-13  0.8590E-16  0.1000E-09  0.0000E+00  0.6286E+16
   -0.299961    1.07833  0.0000E+00  0.4096E-13  0.8590E-16  0.1000E-09  0.0000E+00  0.5909E+16
   -0.337457    1.20497  0.0000E+00  0.4096E-13  0.8590E-16  0.1000E-09  0.0000E+00  0.5544E+16
   -0.374954    1.32953  0.0000E+00  0.4096E-13  0.8590E-16  0.1000E-09  0.0000E+00  0.5214E+16
   -0.412451    1.45252  0.0000E+00  0.4096E-13  0.8590E-16  0.1000E-09  0.0000E+00  0.4906E+16
   -0.449947    1.57422  0.0000E+00  0.4096E-13  0.8590E-16  0.1000E-09  0.0000E+00  0.4607E+16
   -0.487445    1.69461  0.0000E+00  0.4096E-13  0.8590E-16  0.1000E-09  0.0000E+00  0.4314E+16
   -0.524942    1.81364  0.0000E+00  0.4096E-13  0.8590E-16  0.1000E-09  0.0000E+00  0.4027E+16
   -0.562439    1.93120  0.0000E+00  0.4096E-13  0.8590E-16  0.1000E-09  0.0000E+00  0.3749E+16
   -0.599936    2.04725  0.0000E+00  0.4096E-13  0.8590E-16  0.1000E-09  0.0000E+00  0.3478E+16
   -0.637434    2.16172  0.0000E+00  0.4096E-13  0.8590E-16  0.1000E-09  0.0000E+00  0.3215E+16
   -0.674931    2.27457  0.0000E+00  0.4096E-13  0.8590E-16  0.1000E-09  0.0000E+00  0.2961E+16
   -0.712429    2.38573  0.0000E+00  0.4096E-13  0.8590E-16  0.1000E-09  0.0000E+00  0.2715E+16
   -0.749926    2.49513  0.0000E+00  0.4096E-13  0.8590E-16  0.1000E-09  0.0000E+00  0.2497E+16
   -0.787424    2.60355  0.0000E+00  0.4096E-13  0.8590E-16  0.1000E-09  0.0000E+00  0.2290E+16
   -0.824922    2.71123  0.0000E+00  0.4096E-13  0.8590E-16  0.1000E-09  0.0000E+00  0.2086E+16
   -0.862419    2.81816  0.0000E+00  0.4096E-13  0.8590E-16  0.1000E-09  0.0000E+00  0.1887E+16
   -0.899917    2.92429  0.0000E+00  0.1332E-12  0.8746E-16  0.1000E-09  0.0000E+00  0.1692E+16
   -0.937414    3.02959  0.0000E+00  0.3951E-12  0.1940E-15  0.1000E-09  0.0000E+00  0.1501E+16
   -0.974911    3.13403  0.0000E+00  0.1035E-11  0.4735E-15  0.1000E-09  0.0000E+00  0.1315E+16
   -1.012408    3.23754  0.0000E+00  0.2603E-11  0.1151E-14  0.1000E-09  0.0000E+00  0.1133E+16
   -1.049905    3.34005  0.0000E+00  0.6455E-11  0.2775E-14  0.1000E-09  0.0000E+00  0.9552E+15
   -1.087402    3.44147  0.0000E+00  0.1583E-10  0.6625E-14  0.1000E-09  0.0000E+00  0.7830E+15
   -1.124899    3.54172  0.0000E+00  0.3845E-10  0.1567E-13  0.1000E-09  0.0000E+00  0.6238E+15
   -1.162396    3.64206  0.0000E+00  0.9252E-10  0.3676E-13  0.2174E-09  0.0000E+00  0.4654E+15
   -1.199892    3.74265  0.0000E+00  0.2206E-09  0.8550E-13  0.7671E-09  0.0000E+00  0.3057E+15
   -1.237388    3.84326  0.0000E+00  0.5207E-09  0.1971E-12  0.3672E-08  0.0000E+00  0.1454E+15
   -1.274884    3.94246  0.0000E+00  0.1197E-08  0.4450E-12  0.8320E-07  0.0000E+00  0.1157E+14
   -1.312379    4.00746  0.0000E+00  0.2249E-08  0.8613E-12  0.2301E-05  0.0000E+00 -0.2326E+13
   -1.349875    4.01359  0.0000E+00  0.2799E-08  0.1213E-11  0.2401E-05  0.0000E+00 -0.2908E+13
   -1.387370    4.01971  0.0000E+00  0.3089E-08  0.1684E-11  0.1987E-05  0.0000E+00 -0.4480E+13
   -1.424865    4.02739  0.0000E+00  0.3029E-08  0.2540E-11  0.1156E-05  0.0000E+00 -0.1007E+14
   -1.462359    4.04084  0.0000E+00  0.2412E-08  0.4980E-11  0.2984E-06  0.0000E+00 -0.5196E+14
   -1.499853    4.08436  0.0000E+00  0.0000E+00  0.0000E+00  0.0000E+00  0.0000E+00  0.0000E+00
