 1 - depth, m
 2 - temperature, C
 3 - salinity, kg/kg
 4 - turbulent kinetic energy, m**2/s**2
 5 - dissipation rate, m**2/s**3
 6 - kinematic heat conductance, m**2/s
 7 - modulus of horizontal velocity, m/s
 8 - Richardson number, n/d
   -0.000000    0.00000  0.0000E+00  0.4096E-13  0.8590E-16  0.1000E-09  0.0000E+00  0.1201E+17
   -0.037502    0.18472  0.0000E+00  0.4096E-13  0.8590E-16  0.1000E-09  0.0000E+00  0.1121E+17
   -0.075004    0.36626  0.0000E+00  0.4096E-13  0.8590E-16  0.1000E-09  0.0000E+00  0.1038E+17
   -0.112506    0.54343  0.0000E+00  0.4096E-13  0.8590E-16  0.1000E-09  0.0000E+00  0.9533E+16
   -0.150008    0.71507  0.0000E+00  0.4096E-13  0.8590E-16  0.1000E-09  0.0000E+00  0.8682E+16
   -0.187511    0.88011  0.0000E+00  0.4096E-13  0.8590E-16  0.1000E-09  0.0000E+00  0.7847E+16
   -0.225014    1.03765  0.0000E+00  0.4096E-13  0.8590E-16  0.1000E-09  0.0000E+00  0.7046E+16
   -0.262518    1.18704  0.0000E+00  0.4096E-13  0.8590E-16  0.1000E-09  0.0000E+00  0.6275E+16
   -0.300022    1.32749  0.0000E+00  0.4096E-13  0.8590E-16  0.1000E-09  0.0000E+00  0.5562E+16
   -0.337525    1.45879  0.0000E+00  0.4096E-13  0.8590E-16  0.1000E-09  0.0000E+00  0.4914E+16
   -0.375030    1.58102  0.0000E+00  0.4096E-13  0.8590E-16  0.1000E-09  0.0000E+00  0.4437E+16
   -0.412534    1.69720  0.0000E+00  0.4096E-13  0.8590E-16  0.1000E-09  0.0000E+00  0.4074E+16
   -0.450038    1.80956  0.0000E+00  0.4096E-13  0.8590E-16  0.1000E-09  0.0000E+00  0.3760E+16
   -0.487543    1.91887  0.0000E+00  0.4096E-13  0.8590E-16  0.1000E-09  0.0000E+00  0.3487E+16
   -0.525048    2.02588  0.0000E+00  0.4096E-13  0.8590E-16  0.1000E-09  0.0000E+00  0.3249E+16
   -0.562553    2.13133  0.0000E+00  0.4096E-13  0.8590E-16  0.1000E-09  0.0000E+00  0.3038E+16
   -0.600058    2.23584  0.0000E+00  0.4096E-13  0.8590E-16  0.1000E-09  0.0000E+00  0.2844E+16
   -0.637563    2.33988  0.0000E+00  0.4096E-13  0.8590E-16  0.1000E-09  0.0000E+00  0.2660E+16
   -0.675068    2.44368  0.0000E+00  0.4096E-13  0.8590E-16  0.1000E-09  0.0000E+00  0.2477E+16
   -0.712573    2.54726  0.0000E+00  0.4096E-13  0.8590E-16  0.1000E-09  0.0000E+00  0.2291E+16
   -0.750078    2.65035  0.0000E+00  0.4096E-13  0.8590E-16  0.1000E-09  0.0000E+00  0.2138E+16
   -0.787583    2.75448  0.0000E+00  0.4096E-13  0.8590E-16  0.1000E-09  0.0000E+00  0.1980E+16
   -0.825088    2.85969  0.0000E+00  0.4096E-13  0.8590E-16  0.1000E-09  0.0000E+00  0.1804E+16
   -0.862593    2.96511  0.0000E+00  0.4096E-13  0.8590E-16  0.1000E-09  0.0000E+00  0.1612E+16
   -0.900098    3.06970  0.0000E+00  0.4096E-13  0.8590E-16  0.1000E-09  0.0000E+00  0.1410E+16
   -0.937603    3.17234  0.0000E+00  0.4096E-13  0.8590E-16  0.1000E-09  0.0000E+00  0.1205E+16
   -0.975108    3.27187  0.0000E+00  0.7316E-13  0.8755E-16  0.1000E-09  0.0000E+00  0.1006E+16
   -1.012613    3.36721  0.0000E+00  0.2478E-12  0.1431E-15  0.1000E-09  0.0000E+00  0.8254E+15
   -1.050118    3.45830  0.0000E+00  0.7001E-12  0.3537E-15  0.1000E-09  0.0000E+00  0.6608E+15
   -1.087622    3.54468  0.0000E+00  0.1842E-11  0.8954E-15  0.1000E-09  0.0000E+00  0.5138E+15
   -1.125126    3.62597  0.0000E+00  0.4738E-11  0.2248E-14  0.1000E-09  0.0000E+00  0.3850E+15
   -1.162630    3.70175  0.0000E+00  0.1205E-10  0.5599E-14  0.1000E-09  0.0000E+00  0.2767E+15
   -1.200134    3.77218  0.0000E+00  0.3043E-10  0.1386E-13  0.2075E-09  0.0000E+00  0.1874E+15
   -1.237638    3.83773  0.0000E+00  0.7623E-10  0.3413E-13  0.8365E-09  0.0000E+00  0.1145E+15
   -1.275141    3.89925  0.0000E+00  0.1913E-09  0.8452E-13  0.4452E-08  0.0000E+00  0.5400E+14
   -1.312645    3.95810  0.0000E+00  0.4705E-09  0.2076E-12  0.8492E-07  0.0000E+00  0.6020E+13
   -1.350147    3.99952  0.0000E+00  0.1004E-08  0.4900E-12  0.6804E-06  0.0000E+00 -0.3474E+13
   -1.387650    4.01119  0.0000E+00  0.1422E-08  0.8731E-12  0.7914E-06  0.0000E+00 -0.5596E+13
   -1.425152    4.02283  0.0000E+00  0.1659E-08  0.1521E-11  0.5936E-06  0.0000E+00 -0.1223E+14
   -1.462654    4.04012  0.0000E+00  0.1566E-08  0.3093E-11  0.2198E-06  0.0000E+00 -0.5082E+14
   -1.500156    4.08321  0.0000E+00  0.0000E+00  0.0000E+00  0.0000E+00  0.0000E+00  0.0000E+00
