 1 - depth, m
 2 - temperature, C
 3 - salinity, kg/kg
 4 - turbulent kinetic energy, m**2/s**2
 5 - dissipation rate, m**2/s**3
 6 - kinematic heat conductance, m**2/s
 7 - modulus of horizontal velocity, m/s
 8 - Richardson number, n/d
   -0.000000    8.39158  0.0000E+00  0.9362E-04  0.3493E-04  0.4760E-04  0.8640E-01 -0.2306E-01
   -0.037498    8.43938  0.0000E+00  0.5576E-04  0.9600E-05  0.7240E-04  0.3447E-01 -0.3294E-01
   -0.074996    8.44838  0.0000E+00  0.4255E-04  0.4181E-05  0.8626E-04  0.2621E-01 -0.1459E-01
   -0.112495    8.45480  0.0000E+00  0.3504E-04  0.2245E-05  0.9836E-04  0.2197E-01 -0.1574E-01
   -0.149994    8.45992  0.0000E+00  0.2985E-04  0.1321E-05  0.1110E-03  0.1881E-01 -0.2161E-01
   -0.187493    8.46422  0.0000E+00  0.2609E-04  0.8368E-06  0.1234E-03  0.1630E-01 -0.2596E-01
   -0.224992    8.46796  0.0000E+00  0.2317E-04  0.5610E-06  0.1350E-03  0.1421E-01 -0.3214E-01
   -0.262492    8.47130  0.0000E+00  0.2079E-04  0.3945E-06  0.1468E-03  0.1244E-01 -0.4020E-01
   -0.299992    8.47431  0.0000E+00  0.1880E-04  0.2895E-06  0.1583E-03  0.1094E-01 -0.5040E-01
   -0.337492    8.47704  0.0000E+00  0.1713E-04  0.2201E-06  0.1696E-03  0.9661E-02 -0.6247E-01
   -0.374992    8.47954  0.0000E+00  0.1570E-04  0.1722E-06  0.1811E-03  0.8562E-02 -0.7535E-01
   -0.412493    8.48183  0.0000E+00  0.1445E-04  0.1378E-06  0.1953E-03  0.7608E-02 -0.4592E-01
   -0.449994    8.48393  0.0000E+00  0.1337E-04  0.1123E-06  0.2319E-03  0.6777E-02  0.1136E+04
   -0.487495    8.48575  0.0000E+00  0.1241E-04  0.9293E-07  0.2830E-03  0.6051E-02  0.2191E+02
   -0.524996    8.48731  0.0000E+00  0.1155E-04  0.7778E-07  0.3192E-03  0.5412E-02  0.6949E+02
   -0.562497    8.48868  0.0000E+00  0.1079E-04  0.6576E-07  0.3529E-03  0.4849E-02  0.6517E+01
   -0.599998    8.48991  0.0000E+00  0.1011E-04  0.5612E-07  0.3874E-03  0.4351E-02  0.4336E+03
   -0.637499    8.49101  0.0000E+00  0.9491E-05  0.4829E-07  0.4245E-03  0.3906E-02  0.1008E+03
   -0.675001    8.49199  0.0000E+00  0.8937E-05  0.4187E-07  0.4628E-03  0.3507E-02  0.1924E+03
   -0.712502    8.49287  0.0000E+00  0.8432E-05  0.3654E-07  0.4870E-03  0.3145E-02  0.7868E+02
   -0.750004    8.49368  0.0000E+00  0.7967E-05  0.3206E-07  0.5104E-03  0.2814E-02  0.1117E+02
   -0.787505    8.49444  0.0000E+00  0.7537E-05  0.2827E-07  0.5215E-03  0.2511E-02  0.4481E+02
   -0.825006    8.49516  0.0000E+00  0.7137E-05  0.2504E-07  0.5299E-03  0.2231E-02  0.7621E+02
   -0.862508    8.49587  0.0000E+00  0.6761E-05  0.2229E-07  0.5335E-03  0.1974E-02  0.3602E+01
   -0.900009    8.49655  0.0000E+00  0.6406E-05  0.1993E-07  0.5342E-03  0.1737E-02  0.2622E+01
   -0.937510    8.49722  0.0000E+00  0.6069E-05  0.1792E-07  0.5333E-03  0.1519E-02  0.2366E+01
   -0.975011    8.49789  0.0000E+00  0.5747E-05  0.1621E-07  0.5308E-03  0.1318E-02  0.2007E+01
   -1.012512    8.49856  0.0000E+00  0.5438E-05  0.1476E-07  0.5334E-03  0.1132E-02  0.1748E+01
   -1.050013    8.49921  0.0000E+00  0.5141E-05  0.1355E-07  0.5374E-03  0.9660E-03  0.1565E+01
   -1.087514    8.49986  0.0000E+00  0.4858E-05  0.1257E-07  0.5394E-03  0.8203E-03  0.1408E+01
   -1.125015    8.50050  0.0000E+00  0.4591E-05  0.1181E-07  0.5287E-03  0.6933E-03  0.1249E+01
   -1.162515    8.50115  0.0000E+00  0.4341E-05  0.1126E-07  0.5050E-03  0.5835E-03  0.1108E+01
   -1.200015    8.50183  0.0000E+00  0.4109E-05  0.1093E-07  0.4722E-03  0.4893E-03  0.9736E+00
   -1.237515    8.50255  0.0000E+00  0.3900E-05  0.1080E-07  0.4334E-03  0.4093E-03  0.8483E+00
   -1.275015    8.50334  0.0000E+00  0.3709E-05  0.1089E-07  0.3924E-03  0.3428E-03  0.8139E+00
   -1.312514    8.50420  0.0000E+00  0.3530E-05  0.1123E-07  0.3505E-03  0.2907E-03  0.1133E+01
   -1.350014    8.50516  0.0000E+00  0.3344E-05  0.1194E-07  0.3028E-03  0.2488E-03  0.2208E+01
   -1.387512    8.50627  0.0000E+00  0.3129E-05  0.1334E-07  0.2461E-03  0.2134E-03  0.6275E+01
   -1.425011    8.50766  0.0000E+00  0.2831E-05  0.1659E-07  0.1752E-03  0.1824E-03  0.1095E+03
   -1.462509    8.50967  0.0000E+00  0.1718E-05  0.4016E-07  0.1216E-04  0.1544E-03 -0.7712E+04
   -1.500007    8.53720  0.0000E+00  0.0000E+00  0.0000E+00  0.0000E+00  0.1547E-03  0.0000E+00
