 1 - depth, m
 2 - temperature, C
 3 - salinity, kg/kg
 4 - turbulent kinetic energy, m**2/s**2
 5 - dissipation rate, m**2/s**3
 6 - kinematic heat conductance, m**2/s
 7 - modulus of horizontal velocity, m/s
 8 - Richardson number, n/d
   -0.000000    7.61655  0.0000E+00  0.1761E-04  0.1411E-05  0.2159E-04  0.2658E-01 -0.8228E-02
   -0.037493    7.64984  0.0000E+00  0.1458E-04  0.5175E-06  0.4236E-04  0.1671E-01 -0.2177E-01
   -0.074986    7.66491  0.0000E+00  0.1278E-04  0.2837E-06  0.6038E-04  0.1282E-01 -0.3720E-01
   -0.112480    7.67532  0.0000E+00  0.1145E-04  0.1826E-06  0.7720E-04  0.1035E-01 -0.5592E-01
   -0.149974    7.68331  0.0000E+00  0.1039E-04  0.1281E-06  0.9363E-04  0.8587E-02 -0.7886E-01
   -0.187468    7.68977  0.0000E+00  0.9509E-05  0.9496E-07  0.1102E-03  0.7250E-02 -0.1065E+00
   -0.224963    7.69515  0.0000E+00  0.8764E-05  0.7302E-07  0.1282E-03  0.6200E-02 -0.1293E+00
   -0.262458    7.69969  0.0000E+00  0.8129E-05  0.5774E-07  0.1623E-03  0.5353E-02  0.3088E+00
   -0.299953    7.70329  0.0000E+00  0.7607E-05  0.4700E-07  0.2614E-03  0.4675E-02  0.6548E+02
   -0.337448    7.70573  0.0000E+00  0.7192E-05  0.3936E-07  0.3625E-03  0.4144E-02  0.6706E+02
   -0.374944    7.70742  0.0000E+00  0.6847E-05  0.3356E-07  0.3879E-03  0.3702E-02  0.4228E+02
   -0.412439    7.70888  0.0000E+00  0.6546E-05  0.2894E-07  0.4197E-03  0.3300E-02  0.5554E+02
   -0.449935    7.71016  0.0000E+00  0.6281E-05  0.2519E-07  0.4302E-03  0.2942E-02  0.4532E+01
   -0.487431    7.71138  0.0000E+00  0.6041E-05  0.2208E-07  0.4381E-03  0.2614E-02  0.4264E+01
   -0.524928    7.71256  0.0000E+00  0.5820E-05  0.1947E-07  0.4484E-03  0.2314E-02  0.3723E+01
   -0.562424    7.71370  0.0000E+00  0.5617E-05  0.1728E-07  0.4588E-03  0.2045E-02  0.3307E+01
   -0.599920    7.71480  0.0000E+00  0.5428E-05  0.1543E-07  0.4699E-03  0.1804E-02  0.2978E+01
   -0.637417    7.71586  0.0000E+00  0.5251E-05  0.1386E-07  0.4816E-03  0.1586E-02  0.2711E+01
   -0.674913    7.71688  0.0000E+00  0.5085E-05  0.1253E-07  0.4941E-03  0.1391E-02  0.2487E+01
   -0.712410    7.71785  0.0000E+00  0.4928E-05  0.1140E-07  0.5074E-03  0.1217E-02  0.2298E+01
   -0.749906    7.71880  0.0000E+00  0.4777E-05  0.1044E-07  0.5216E-03  0.1061E-02  0.2134E+01
   -0.787403    7.71970  0.0000E+00  0.4632E-05  0.9642E-08  0.5369E-03  0.9226E-03  0.1991E+01
   -0.824899    7.72057  0.0000E+00  0.4492E-05  0.8974E-08  0.5534E-03  0.7999E-03  0.1864E+01
   -0.862396    7.72140  0.0000E+00  0.4356E-05  0.8425E-08  0.5714E-03  0.6916E-03  0.1751E+01
   -0.899892    7.72220  0.0000E+00  0.4224E-05  0.7982E-08  0.5913E-03  0.5964E-03  0.1651E+01
   -0.937389    7.72296  0.0000E+00  0.4096E-05  0.7635E-08  0.6132E-03  0.5129E-03  0.1560E+01
   -0.974885    7.72369  0.0000E+00  0.3973E-05  0.7374E-08  0.6295E-03  0.4397E-03  0.1478E+01
   -1.012381    7.72439  0.0000E+00  0.3854E-05  0.7193E-08  0.6211E-03  0.3758E-03  0.1349E+01
   -1.049877    7.72508  0.0000E+00  0.3741E-05  0.7086E-08  0.5988E-03  0.3221E-03  0.1225E+01
   -1.087373    7.72580  0.0000E+00  0.3636E-05  0.7046E-08  0.5684E-03  0.2778E-03  0.1109E+01
   -1.124869    7.72655  0.0000E+00  0.3539E-05  0.7065E-08  0.5354E-03  0.2414E-03  0.9969E+00
   -1.162364    7.72733  0.0000E+00  0.3450E-05  0.7138E-08  0.5059E-03  0.2116E-03  0.9046E+00
   -1.199860    7.72815  0.0000E+00  0.3363E-05  0.7271E-08  0.4785E-03  0.1874E-03  0.9961E+00
   -1.237355    7.72901  0.0000E+00  0.3274E-05  0.7481E-08  0.4454E-03  0.1660E-03  0.1324E+01
   -1.274850    7.72992  0.0000E+00  0.3174E-05  0.7810E-08  0.4046E-03  0.1461E-03  0.1973E+01
   -1.312344    7.73091  0.0000E+00  0.3058E-05  0.8327E-08  0.3556E-03  0.1275E-03  0.3479E+01
   -1.349838    7.73203  0.0000E+00  0.2919E-05  0.9162E-08  0.3001E-03  0.1102E-03  0.7262E+01
   -1.387332    7.73335  0.0000E+00  0.2743E-05  0.1062E-07  0.2298E-03  0.9408E-04  0.2072E+02
   -1.424826    7.73506  0.0000E+00  0.2503E-05  0.1354E-07  0.1744E-03  0.7919E-04  0.8097E+02
   -1.462319    7.73728  0.0000E+00  0.1562E-05  0.3390E-07  0.1143E-04  0.6802E-04 -0.9066E+04
   -1.499812    7.77060  0.0000E+00  0.0000E+00  0.0000E+00  0.0000E+00  0.6792E-04  0.0000E+00
