 1 - depth, m
 2 - temperature, C
 3 - salinity, kg/kg
 4 - turbulent kinetic energy, m**2/s**2
 5 - dissipation rate, m**2/s**3
 6 - kinematic heat conductance, m**2/s
 7 - modulus of horizontal velocity, m/s
 8 - Richardson number, n/d
   -0.000000    0.00000  0.0000E+00  0.4096E-13  0.8590E-16  0.1000E-09  0.0000E+00  0.9232E+16
   -0.037493    0.14116  0.0000E+00  0.4096E-13  0.8590E-16  0.1000E-09  0.0000E+00  0.8773E+16
   -0.074987    0.28062  0.0000E+00  0.4096E-13  0.8590E-16  0.1000E-09  0.0000E+00  0.8327E+16
   -0.112481    0.41836  0.0000E+00  0.4096E-13  0.8590E-16  0.1000E-09  0.0000E+00  0.7894E+16
   -0.149975    0.55436  0.0000E+00  0.4096E-13  0.8590E-16  0.1000E-09  0.0000E+00  0.7474E+16
   -0.187470    0.68859  0.0000E+00  0.4096E-13  0.8590E-16  0.1000E-09  0.0000E+00  0.7066E+16
   -0.224964    0.82104  0.0000E+00  0.4096E-13  0.8590E-16  0.1000E-09  0.0000E+00  0.6671E+16
   -0.262460    0.95167  0.0000E+00  0.4096E-13  0.8590E-16  0.1000E-09  0.0000E+00  0.6282E+16
   -0.299955    1.08032  0.0000E+00  0.4096E-13  0.8590E-16  0.1000E-09  0.0000E+00  0.5904E+16
   -0.337451    1.20695  0.0000E+00  0.4096E-13  0.8590E-16  0.1000E-09  0.0000E+00  0.5539E+16
   -0.374946    1.33149  0.0000E+00  0.4096E-13  0.8590E-16  0.1000E-09  0.0000E+00  0.5209E+16
   -0.412442    1.45446  0.0000E+00  0.4096E-13  0.8590E-16  0.1000E-09  0.0000E+00  0.4902E+16
   -0.449938    1.57615  0.0000E+00  0.4096E-13  0.8590E-16  0.1000E-09  0.0000E+00  0.4603E+16
   -0.487435    1.69655  0.0000E+00  0.4096E-13  0.8590E-16  0.1000E-09  0.0000E+00  0.4311E+16
   -0.524931    1.81561  0.0000E+00  0.4096E-13  0.8590E-16  0.1000E-09  0.0000E+00  0.4025E+16
   -0.562428    1.93322  0.0000E+00  0.4096E-13  0.8590E-16  0.1000E-09  0.0000E+00  0.3747E+16
   -0.599924    2.04932  0.0000E+00  0.4096E-13  0.8590E-16  0.1000E-09  0.0000E+00  0.3476E+16
   -0.637421    2.16387  0.0000E+00  0.4096E-13  0.8590E-16  0.1000E-09  0.0000E+00  0.3214E+16
   -0.674918    2.27681  0.0000E+00  0.4096E-13  0.8590E-16  0.1000E-09  0.0000E+00  0.2960E+16
   -0.712415    2.38808  0.0000E+00  0.4096E-13  0.8590E-16  0.1000E-09  0.0000E+00  0.2714E+16
   -0.749911    2.49761  0.0000E+00  0.4096E-13  0.8590E-16  0.1000E-09  0.0000E+00  0.2496E+16
   -0.787408    2.60619  0.0000E+00  0.4096E-13  0.8590E-16  0.1000E-09  0.0000E+00  0.2289E+16
   -0.824905    2.71409  0.0000E+00  0.4096E-13  0.8590E-16  0.1000E-09  0.0000E+00  0.2086E+16
   -0.862402    2.82127  0.0000E+00  0.4096E-13  0.8590E-16  0.1000E-09  0.0000E+00  0.1887E+16
   -0.899898    2.92772  0.0000E+00  0.1476E-12  0.9319E-16  0.1000E-09  0.0000E+00  0.1692E+16
   -0.937395    3.03338  0.0000E+00  0.4351E-12  0.2081E-15  0.1000E-09  0.0000E+00  0.1500E+16
   -0.974892    3.13822  0.0000E+00  0.1128E-11  0.5038E-15  0.1000E-09  0.0000E+00  0.1313E+16
   -1.012388    3.24219  0.0000E+00  0.2810E-11  0.1213E-14  0.1000E-09  0.0000E+00  0.1130E+16
   -1.049884    3.34522  0.0000E+00  0.6900E-11  0.2897E-14  0.1000E-09  0.0000E+00  0.9518E+15
   -1.087380    3.44723  0.0000E+00  0.1676E-10  0.6852E-14  0.1000E-09  0.0000E+00  0.7784E+15
   -1.124876    3.54813  0.0000E+00  0.4032E-10  0.1606E-13  0.1000E-09  0.0000E+00  0.6173E+15
   -1.162372    3.64916  0.0000E+00  0.9614E-10  0.3734E-13  0.2251E-09  0.0000E+00  0.4567E+15
   -1.199868    3.75047  0.0000E+00  0.2272E-09  0.8608E-13  0.8009E-09  0.0000E+00  0.2948E+15
   -1.237363    3.85178  0.0000E+00  0.5314E-09  0.1967E-12  0.4020E-08  0.0000E+00  0.1324E+15
   -1.274858    3.95146  0.0000E+00  0.1201E-08  0.4372E-12  0.1271E-06  0.0000E+00  0.6406E+13
   -1.312353    4.00624  0.0000E+00  0.2206E-08  0.8401E-12  0.2243E-05  0.0000E+00 -0.2291E+13
   -1.349848    4.01257  0.0000E+00  0.2754E-08  0.1194E-11  0.2349E-05  0.0000E+00 -0.2906E+13
   -1.387342    4.01888  0.0000E+00  0.3051E-08  0.1672E-11  0.1949E-05  0.0000E+00 -0.4518E+13
   -1.424836    4.02678  0.0000E+00  0.3007E-08  0.2539E-11  0.1140E-05  0.0000E+00 -0.1021E+14
   -1.462330    4.04055  0.0000E+00  0.2412E-08  0.4997E-11  0.2988E-06  0.0000E+00 -0.5252E+14
   -1.499823    4.08457  0.0000E+00  0.0000E+00  0.0000E+00  0.0000E+00  0.0000E+00  0.0000E+00
