 1 - depth, m
 2 - temperature, C
 3 - salinity, kg/kg
 4 - turbulent kinetic energy, m**2/s**2
 5 - dissipation rate, m**2/s**3
 6 - kinematic heat conductance, m**2/s
 7 - modulus of horizontal velocity, m/s
 8 - Richardson number, n/d
   -0.000000    0.00000  0.0000E+00  0.9956E-08  0.3178E-10  0.1624E-08  0.0000E+00  0.4384E+17
   -0.037504    0.73836  0.0000E+00  0.6643E-07  0.3363E-10  0.2235E-08  0.0000E+00  0.3477E+17
   -0.075009    1.53314  0.0000E+00  0.1902E-06  0.6599E-10  0.9842E-08  0.0000E+00  0.2444E+17
   -0.112514    2.45199  0.0000E+00  0.3058E-06  0.1010E-09  0.9604E-04  0.0000E+00  0.1427E+17
   -0.150019    3.18929  0.0000E+00  0.3915E-06  0.1275E-09  0.2229E-03  0.0000E+00  0.7803E+16
   -0.187524    3.70009  0.0000E+00  0.4527E-06  0.1466E-09  0.3247E-03  0.0000E+00  0.3635E+16
   -0.225030    4.02816  0.0000E+00  0.4892E-06  0.1581E-09  0.4056E-03  0.0000E+00  0.8580E+15
   -0.262536    4.18701  0.0000E+00  0.4929E-06  0.1595E-09  0.4705E-03  0.0000E+00  0.3994E+13
   -0.300042    4.19309  0.0000E+00  0.4941E-06  0.1604E-09  0.4738E-03  0.0000E+00 -0.1847E+13
   -0.337549    4.19367  0.0000E+00  0.4951E-06  0.1613E-09  0.4730E-03  0.0000E+00 -0.1804E+13
   -0.375055    4.19424  0.0000E+00  0.4958E-06  0.1623E-09  0.4717E-03  0.0000E+00 -0.1796E+13
   -0.412562    4.19481  0.0000E+00  0.4963E-06  0.1633E-09  0.4697E-03  0.0000E+00 -0.1786E+13
   -0.450069    4.19538  0.0000E+00  0.4966E-06  0.1645E-09  0.4670E-03  0.0000E+00 -0.1785E+13
   -0.487576    4.19594  0.0000E+00  0.4966E-06  0.1658E-09  0.4637E-03  0.0000E+00 -0.1786E+13
   -0.525084    4.19650  0.0000E+00  0.4964E-06  0.1672E-09  0.4597E-03  0.0000E+00 -0.1796E+13
   -0.562591    4.19705  0.0000E+00  0.4961E-06  0.1688E-09  0.4550E-03  0.0000E+00 -0.1806E+13
   -0.600099    4.19761  0.0000E+00  0.4955E-06  0.1705E-09  0.4495E-03  0.0000E+00 -0.1826E+13
   -0.637606    4.19817  0.0000E+00  0.4946E-06  0.1725E-09  0.4433E-03  0.0000E+00 -0.1848E+13
   -0.675114    4.19874  0.0000E+00  0.4936E-06  0.1746E-09  0.4363E-03  0.0000E+00 -0.1879E+13
   -0.712622    4.19931  0.0000E+00  0.4923E-06  0.1769E-09  0.4287E-03  0.0000E+00 -0.1913E+13
   -0.750129    4.19989  0.0000E+00  0.4908E-06  0.1795E-09  0.4202E-03  0.0000E+00 -0.1954E+13
   -0.787637    4.20048  0.0000E+00  0.4890E-06  0.1824E-09  0.4110E-03  0.0000E+00 -0.1997E+13
   -0.825145    4.20109  0.0000E+00  0.4870E-06  0.1856E-09  0.4009E-03  0.0000E+00 -0.2052E+13
   -0.862652    4.20170  0.0000E+00  0.4847E-06  0.1892E-09  0.3901E-03  0.0000E+00 -0.2112E+13
   -0.900160    4.20233  0.0000E+00  0.4821E-06  0.1933E-09  0.3783E-03  0.0000E+00 -0.2187E+13
   -0.937668    4.20299  0.0000E+00  0.4792E-06  0.1978E-09  0.3658E-03  0.0000E+00 -0.2269E+13
   -0.975175    4.20366  0.0000E+00  0.4759E-06  0.2030E-09  0.3523E-03  0.0000E+00 -0.2371E+13
   -1.012682    4.20436  0.0000E+00  0.4723E-06  0.2089E-09  0.3380E-03  0.0000E+00 -0.2488E+13
   -1.050189    4.20509  0.0000E+00  0.4683E-06  0.2157E-09  0.3225E-03  0.0000E+00 -0.2632E+13
   -1.087696    4.20587  0.0000E+00  0.4637E-06  0.2237E-09  0.3059E-03  0.0000E+00 -0.2798E+13
   -1.125203    4.20668  0.0000E+00  0.4586E-06  0.2331E-09  0.2882E-03  0.0000E+00 -0.2989E+13
   -1.162710    4.20755  0.0000E+00  0.4529E-06  0.2444E-09  0.2693E-03  0.0000E+00 -0.3216E+13
   -1.200217    4.20848  0.0000E+00  0.4464E-06  0.2581E-09  0.2490E-03  0.0000E+00 -0.3503E+13
   -1.237723    4.20949  0.0000E+00  0.4390E-06  0.2750E-09  0.2276E-03  0.0000E+00 -0.3862E+13
   -1.275229    4.21060  0.0000E+00  0.4305E-06  0.2970E-09  0.2045E-03  0.0000E+00 -0.4343E+13
   -1.312735    4.21184  0.0000E+00  0.4202E-06  0.3268E-09  0.1793E-03  0.0000E+00 -0.5010E+13
   -1.350240    4.21326  0.0000E+00  0.4075E-06  0.3695E-09  0.1515E-03  0.0000E+00 -0.6028E+13
   -1.387745    4.21496  0.0000E+00  0.3911E-06  0.4366E-09  0.1255E-03  0.0000E+00 -0.7378E+13
   -1.425250    4.21702  0.0000E+00  0.3609E-06  0.5953E-09  0.4892E-04  0.0000E+00 -0.1950E+14
   -1.462754    4.22241  0.0000E+00  0.2185E-06  0.1749E-08  0.4045E-05  0.0000E+00 -0.2674E+15
   -1.500259    4.28635  0.0000E+00  0.0000E+00  0.0000E+00  0.0000E+00  0.0000E+00  0.0000E+00
