 1 - depth, m
 2 - temperature, C
 3 - salinity, kg/kg
 4 - turbulent kinetic energy, m**2/s**2
 5 - dissipation rate, m**2/s**3
 6 - kinematic heat conductance, m**2/s
 7 - modulus of horizontal velocity, m/s
 8 - Richardson number, n/d
   -0.000000    7.16191  0.0000E+00  0.2101E-03  0.1684E-03  0.5941E-04  0.1429E+00  0.2524E+00
   -0.037494    7.23873  0.0000E+00  0.1188E-03  0.4721E-04  0.1209E-03  0.4947E-01  0.1136E+01
   -0.074987    7.25169  0.0000E+00  0.8520E-04  0.1721E-04  0.1353E-03  0.3546E-01 -0.1599E-01
   -0.112482    7.26089  0.0000E+00  0.6811E-04  0.8652E-05  0.1435E-03  0.2947E-01 -0.1842E-01
   -0.149976    7.26735  0.0000E+00  0.5695E-04  0.4937E-05  0.1521E-03  0.2546E-01 -0.1694E-01
   -0.187471    7.27261  0.0000E+00  0.4877E-04  0.3004E-05  0.1619E-03  0.2231E-01 -0.2477E-01
   -0.224966    7.27710  0.0000E+00  0.4252E-04  0.1919E-05  0.1719E-03  0.1970E-01 -0.2234E-01
   -0.262462    7.28107  0.0000E+00  0.3759E-04  0.1285E-05  0.1829E-03  0.1746E-01 -0.2769E-01
   -0.299957    7.28465  0.0000E+00  0.3364E-04  0.9016E-06  0.1940E-03  0.1556E-01 -0.3437E-01
   -0.337453    7.28789  0.0000E+00  0.3042E-04  0.6609E-06  0.2050E-03  0.1392E-01 -0.4241E-01
   -0.374949    7.29087  0.0000E+00  0.2773E-04  0.5026E-06  0.2160E-03  0.1250E-01 -0.5078E-01
   -0.412445    7.29361  0.0000E+00  0.2545E-04  0.3938E-06  0.2282E-03  0.1125E-01 -0.2953E-01
   -0.449942    7.29614  0.0000E+00  0.2348E-04  0.3159E-06  0.2501E-03  0.1014E-01  0.1058E+03
   -0.487438    7.29843  0.0000E+00  0.2173E-04  0.2580E-06  0.2778E-03  0.9159E-02  0.6810E+02
   -0.524935    7.30049  0.0000E+00  0.2017E-04  0.2135E-06  0.3071E-03  0.8276E-02  0.4305E+02
   -0.562432    7.30235  0.0000E+00  0.1877E-04  0.1787E-06  0.3261E-03  0.7490E-02  0.4567E+02
   -0.599929    7.30407  0.0000E+00  0.1749E-04  0.1510E-06  0.3478E-03  0.6786E-02  0.7492E+02
   -0.637426    7.30566  0.0000E+00  0.1634E-04  0.1287E-06  0.3688E-03  0.6151E-02  0.8597E+01
   -0.674923    7.30713  0.0000E+00  0.1530E-04  0.1104E-06  0.3924E-03  0.5577E-02  0.1456E+03
   -0.712420    7.30849  0.0000E+00  0.1434E-04  0.9533E-07  0.4145E-03  0.5055E-02  0.2889E+02
   -0.749917    7.30976  0.0000E+00  0.1347E-04  0.8281E-07  0.4314E-03  0.4579E-02  0.9021E+01
   -0.787414    7.31095  0.0000E+00  0.1266E-04  0.7233E-07  0.4537E-03  0.4143E-02  0.4226E+01
   -0.824911    7.31207  0.0000E+00  0.1192E-04  0.6351E-07  0.4711E-03  0.3742E-02  0.9645E+02
   -0.862408    7.31313  0.0000E+00  0.1123E-04  0.5604E-07  0.4865E-03  0.3372E-02  0.1460E+02
   -0.899905    7.31414  0.0000E+00  0.1059E-04  0.4967E-07  0.5071E-03  0.3030E-02  0.1451E+03
   -0.937402    7.31509  0.0000E+00  0.9992E-05  0.4423E-07  0.5254E-03  0.2713E-02  0.4076E+02
   -0.974899    7.31600  0.0000E+00  0.9423E-05  0.3956E-07  0.5399E-03  0.2416E-02  0.1115E+02
   -1.012396    7.31686  0.0000E+00  0.8881E-05  0.3553E-07  0.5531E-03  0.2137E-02  0.1256E+02
   -1.049892    7.31768  0.0000E+00  0.8361E-05  0.3205E-07  0.5615E-03  0.1882E-02  0.4096E+02
   -1.087389    7.31847  0.0000E+00  0.7863E-05  0.2908E-07  0.5637E-03  0.1650E-02  0.4544E+03
   -1.124885    7.31925  0.0000E+00  0.7386E-05  0.2656E-07  0.5597E-03  0.1439E-02  0.1144E+02
   -1.162381    7.32002  0.0000E+00  0.6930E-05  0.2448E-07  0.5448E-03  0.1249E-02  0.1308E+02
   -1.199877    7.32081  0.0000E+00  0.6495E-05  0.2282E-07  0.5210E-03  0.1076E-02  0.8296E+01
   -1.237373    7.32161  0.0000E+00  0.6084E-05  0.2161E-07  0.4897E-03  0.9203E-03  0.3084E+01
   -1.274868    7.32247  0.0000E+00  0.5695E-05  0.2085E-07  0.4515E-03  0.7811E-03  0.2746E+02
   -1.312363    7.32339  0.0000E+00  0.5326E-05  0.2062E-07  0.4019E-03  0.6644E-03  0.2853E+02
   -1.349858    7.32441  0.0000E+00  0.4969E-05  0.2106E-07  0.3372E-03  0.5685E-03  0.1656E+02
   -1.387353    7.32560  0.0000E+00  0.4585E-05  0.2262E-07  0.2711E-03  0.4901E-03  0.1624E+02
   -1.424847    7.32708  0.0000E+00  0.4056E-05  0.2733E-07  0.1609E-03  0.4217E-03  0.6889E+02
   -1.462341    7.32957  0.0000E+00  0.2307E-05  0.6349E-07  0.1270E-04  0.3544E-03 -0.2417E+05
   -1.499834    7.35963  0.0000E+00  0.0000E+00  0.0000E+00  0.0000E+00  0.3525E-03  0.0000E+00
