 1 - depth, m
 2 - temperature, C
 3 - salinity, kg/kg
 4 - turbulent kinetic energy, m**2/s**2
 5 - dissipation rate, m**2/s**3
 6 - kinematic heat conductance, m**2/s
 7 - modulus of horizontal velocity, m/s
 8 - Richardson number, n/d
   -0.000000    0.00000  0.0000E+00  0.4096E-13  0.8590E-16  0.1000E-09  0.0000E+00  0.1653E+17
   -0.037493    0.25679  0.0000E+00  0.4096E-13  0.8590E-16  0.1000E-09  0.0000E+00  0.1384E+17
   -0.074987    0.48715  0.0000E+00  0.4096E-13  0.8590E-16  0.1000E-09  0.0000E+00  0.1154E+17
   -0.112481    0.69228  0.0000E+00  0.4096E-13  0.8590E-16  0.1000E-09  0.0000E+00  0.9605E+16
   -0.149975    0.87400  0.0000E+00  0.4096E-13  0.8590E-16  0.1000E-09  0.0000E+00  0.8007E+16
   -0.187469    1.03450  0.0000E+00  0.4096E-13  0.8590E-16  0.1000E-09  0.0000E+00  0.6699E+16
   -0.224964    1.17618  0.0000E+00  0.4096E-13  0.8590E-16  0.1000E-09  0.0000E+00  0.5636E+16
   -0.262459    1.30145  0.0000E+00  0.4096E-13  0.8590E-16  0.1000E-09  0.0000E+00  0.4736E+16
   -0.299955    1.41166  0.0000E+00  0.4096E-13  0.8590E-16  0.1000E-09  0.0000E+00  0.4001E+16
   -0.337450    1.50877  0.0000E+00  0.4096E-13  0.8590E-16  0.1000E-09  0.0000E+00  0.3410E+16
   -0.374946    1.59478  0.0000E+00  0.4096E-13  0.8590E-16  0.1000E-09  0.0000E+00  0.2997E+16
   -0.412442    1.67313  0.0000E+00  0.4096E-13  0.8590E-16  0.1000E-09  0.0000E+00  0.2713E+16
   -0.449938    1.74650  0.0000E+00  0.4096E-13  0.8590E-16  0.1000E-09  0.0000E+00  0.2501E+16
   -0.487434    1.81642  0.0000E+00  0.4096E-13  0.8590E-16  0.1000E-09  0.0000E+00  0.2341E+16
   -0.524931    1.88404  0.0000E+00  0.4096E-13  0.8590E-16  0.1000E-09  0.0000E+00  0.2193E+16
   -0.562427    1.94948  0.0000E+00  0.4096E-13  0.8590E-16  0.1000E-09  0.0000E+00  0.2082E+16
   -0.599924    2.01370  0.0000E+00  0.4096E-13  0.8590E-16  0.1000E-09  0.0000E+00  0.2003E+16
   -0.637420    2.07758  0.0000E+00  0.8538E-13  0.8675E-16  0.1000E-09  0.0000E+00  0.1948E+16
   -0.674917    2.14189  0.0000E+00  0.2103E-12  0.1257E-15  0.1000E-09  0.0000E+00  0.1912E+16
   -0.712414    2.20736  0.0000E+00  0.5705E-12  0.2462E-15  0.1000E-09  0.0000E+00  0.1893E+16
   -0.749911    2.27473  0.0000E+00  0.1421E-11  0.5737E-15  0.1000E-09  0.0000E+00  0.1953E+16
   -0.787408    2.34723  0.0000E+00  0.3414E-11  0.1340E-14  0.1000E-09  0.0000E+00  0.2045E+16
   -0.824904    2.42687  0.0000E+00  0.8072E-11  0.3103E-14  0.1000E-09  0.0000E+00  0.2147E+16
   -0.862401    2.51526  0.0000E+00  0.1889E-10  0.7118E-14  0.1000E-09  0.0000E+00  0.2256E+16
   -0.899898    2.61448  0.0000E+00  0.4385E-10  0.1620E-13  0.1000E-09  0.0000E+00  0.2367E+16
   -0.937394    2.72725  0.0000E+00  0.1010E-09  0.3656E-13  0.1000E-09  0.0000E+00  0.2467E+16
   -0.974891    2.85706  0.0000E+00  0.2306E-09  0.8190E-13  0.1071E-09  0.0000E+00  0.2526E+16
   -1.012387    3.00821  0.0000E+00  0.5239E-09  0.1825E-12  0.2042E-09  0.0000E+00  0.2485E+16
   -1.049883    3.18504  0.0000E+00  0.1185E-08  0.4049E-12  0.4960E-09  0.0000E+00  0.2281E+16
   -1.087380    3.39303  0.0000E+00  0.2662E-08  0.8925E-12  0.1412E-08  0.0000E+00  0.1800E+16
   -1.124875    3.63656  0.0000E+00  0.5915E-08  0.1948E-11  0.7358E-08  0.0000E+00  0.9184E+15
   -1.162371    3.90791  0.0000E+00  0.1012E-07  0.3410E-11  0.5303E-05  0.0000E+00  0.1250E+15
   -1.199867    4.01953  0.0000E+00  0.1237E-07  0.4286E-11  0.1345E-04  0.0000E+00 -0.1768E+13
   -1.237362    4.02291  0.0000E+00  0.1351E-07  0.4897E-11  0.1381E-04  0.0000E+00 -0.1929E+13
   -1.274857    4.02625  0.0000E+00  0.1440E-07  0.5610E-11  0.1345E-04  0.0000E+00 -0.2222E+13
   -1.312352    4.02975  0.0000E+00  0.1502E-07  0.6524E-11  0.1228E-04  0.0000E+00 -0.2746E+13
   -1.349847    4.03371  0.0000E+00  0.1533E-07  0.7824E-11  0.1030E-04  0.0000E+00 -0.3756E+13
   -1.387341    4.03863  0.0000E+00  0.1517E-07  0.9972E-11  0.7500E-05  0.0000E+00 -0.6111E+13
   -1.424835    4.04575  0.0000E+00  0.1411E-07  0.1459E-10  0.4041E-05  0.0000E+00 -0.1443E+14
   -1.462328    4.05983  0.0000E+00  0.1088E-07  0.3154E-10  0.9271E-06  0.0000E+00 -0.9805E+14
   -1.499821    4.12038  0.0000E+00  0.0000E+00  0.0000E+00  0.0000E+00  0.0000E+00  0.0000E+00
