 1 - depth, m
 2 - temperature, C
 3 - salinity, kg/kg
 4 - turbulent kinetic energy, m**2/s**2
 5 - dissipation rate, m**2/s**3
 6 - kinematic heat conductance, m**2/s
 7 - modulus of horizontal velocity, m/s
 8 - Richardson number, n/d
   -0.000000    0.00000  0.0000E+00  0.4096E-13  0.8590E-16  0.1000E-09  0.0000E+00  0.1522E+17
   -0.037493    0.23576  0.0000E+00  0.4096E-13  0.8590E-16  0.1000E-09  0.0000E+00  0.1333E+17
   -0.074986    0.45606  0.0000E+00  0.4096E-13  0.8590E-16  0.1000E-09  0.0000E+00  0.1155E+17
   -0.112480    0.65950  0.0000E+00  0.4096E-13  0.8590E-16  0.1000E-09  0.0000E+00  0.9932E+16
   -0.149974    0.84552  0.0000E+00  0.4096E-13  0.8590E-16  0.1000E-09  0.0000E+00  0.8492E+16
   -0.187468    1.01429  0.0000E+00  0.4096E-13  0.8590E-16  0.1000E-09  0.0000E+00  0.7238E+16
   -0.224963    1.16653  0.0000E+00  0.4096E-13  0.8590E-16  0.1000E-09  0.0000E+00  0.6164E+16
   -0.262458    1.30332  0.0000E+00  0.4096E-13  0.8590E-16  0.1000E-09  0.0000E+00  0.5236E+16
   -0.299953    1.42551  0.0000E+00  0.4096E-13  0.8590E-16  0.1000E-09  0.0000E+00  0.4453E+16
   -0.337448    1.53442  0.0000E+00  0.4096E-13  0.8590E-16  0.1000E-09  0.0000E+00  0.3799E+16
   -0.374944    1.63149  0.0000E+00  0.4096E-13  0.8590E-16  0.1000E-09  0.0000E+00  0.3320E+16
   -0.412439    1.71988  0.0000E+00  0.4096E-13  0.8590E-16  0.1000E-09  0.0000E+00  0.2969E+16
   -0.449935    1.80206  0.0000E+00  0.4096E-13  0.8590E-16  0.1000E-09  0.0000E+00  0.2692E+16
   -0.487431    1.87944  0.0000E+00  0.4096E-13  0.8590E-16  0.1000E-09  0.0000E+00  0.2473E+16
   -0.524927    1.95322  0.0000E+00  0.4096E-13  0.8590E-16  0.1000E-09  0.0000E+00  0.2296E+16
   -0.562424    2.02429  0.0000E+00  0.4096E-13  0.8590E-16  0.1000E-09  0.0000E+00  0.2163E+16
   -0.599920    2.09376  0.0000E+00  0.4096E-13  0.8590E-16  0.1000E-09  0.0000E+00  0.2067E+16
   -0.637416    2.16272  0.0000E+00  0.6371E-13  0.8598E-16  0.1000E-09  0.0000E+00  0.2005E+16
   -0.674913    2.23228  0.0000E+00  0.1346E-12  0.1013E-15  0.1000E-09  0.0000E+00  0.1974E+16
   -0.712409    2.30364  0.0000E+00  0.3422E-12  0.1509E-15  0.1000E-09  0.0000E+00  0.1970E+16
   -0.749906    2.37810  0.0000E+00  0.7870E-12  0.2837E-15  0.1000E-09  0.0000E+00  0.2038E+16
   -0.787403    2.45907  0.0000E+00  0.1740E-11  0.5685E-15  0.1000E-09  0.0000E+00  0.2134E+16
   -0.824899    2.54886  0.0000E+00  0.3735E-11  0.1171E-14  0.1000E-09  0.0000E+00  0.2228E+16
   -0.862396    2.64921  0.0000E+00  0.7873E-11  0.2399E-14  0.1000E-09  0.0000E+00  0.2304E+16
   -0.899892    2.76174  0.0000E+00  0.1640E-10  0.4872E-14  0.1000E-09  0.0000E+00  0.2336E+16
   -0.937388    2.88776  0.0000E+00  0.3381E-10  0.9805E-14  0.1000E-09  0.0000E+00  0.2297E+16
   -0.974885    3.02793  0.0000E+00  0.6909E-10  0.1956E-13  0.1000E-09  0.0000E+00  0.2157E+16
   -1.012381    3.18172  0.0000E+00  0.1403E-09  0.3878E-13  0.1051E-09  0.0000E+00  0.1904E+16
   -1.049877    3.34808  0.0000E+00  0.2834E-09  0.7654E-13  0.1555E-09  0.0000E+00  0.1519E+16
   -1.087373    3.52285  0.0000E+00  0.5684E-09  0.1501E-12  0.3905E-09  0.0000E+00  0.1027E+16
   -1.124868    3.69855  0.0000E+00  0.1131E-08  0.2920E-12  0.1849E-08  0.0000E+00  0.5039E+15
   -1.162364    3.86181  0.0000E+00  0.1999E-08  0.5121E-12  0.6168E-06  0.0000E+00  0.1410E+15
   -1.199859    3.96288  0.0000E+00  0.2870E-08  0.7502E-12  0.3041E-05  0.0000E+00  0.2036E+14
   -1.237354    3.99740  0.0000E+00  0.3548E-08  0.9792E-12  0.4087E-05  0.0000E+00 -0.8627E+12
   -1.274849    4.00363  0.0000E+00  0.4102E-08  0.1247E-11  0.4476E-05  0.0000E+00 -0.1313E+13
   -1.312344    4.00813  0.0000E+00  0.4562E-08  0.1596E-11  0.4349E-05  0.0000E+00 -0.1761E+13
   -1.349838    4.01288  0.0000E+00  0.4913E-08  0.2100E-11  0.3791E-05  0.0000E+00 -0.2633E+13
   -1.387332    4.01865  0.0000E+00  0.5095E-08  0.2939E-11  0.2833E-05  0.0000E+00 -0.4747E+13
   -1.424826    4.02700  0.0000E+00  0.4956E-08  0.4699E-11  0.1582E-05  0.0000E+00 -0.1236E+14
   -1.462319    4.04321  0.0000E+00  0.4179E-08  0.1022E-10  0.4519E-06  0.0000E+00 -0.7284E+14
   -1.499812    4.09823  0.0000E+00  0.0000E+00  0.0000E+00  0.0000E+00  0.0000E+00  0.0000E+00
