 1 - depth, m
 2 - temperature, C
 3 - salinity, kg/kg
 4 - turbulent kinetic energy, m**2/s**2
 5 - dissipation rate, m**2/s**3
 6 - kinematic heat conductance, m**2/s
 7 - modulus of horizontal velocity, m/s
 8 - Richardson number, n/d
   -0.000000    0.00000  0.0000E+00  0.4096E-13  0.8590E-16  0.1000E-09  0.0000E+00  0.1020E+17
   -0.037494    0.15629  0.0000E+00  0.4096E-13  0.8590E-16  0.1000E-09  0.0000E+00  0.9643E+16
   -0.074989    0.31057  0.0000E+00  0.4096E-13  0.8590E-16  0.1000E-09  0.0000E+00  0.9082E+16
   -0.112484    0.46244  0.0000E+00  0.4096E-13  0.8590E-16  0.1000E-09  0.0000E+00  0.8523E+16
   -0.149980    0.61157  0.0000E+00  0.4096E-13  0.8590E-16  0.1000E-09  0.0000E+00  0.7972E+16
   -0.187475    0.75764  0.0000E+00  0.4096E-13  0.8590E-16  0.1000E-09  0.0000E+00  0.7432E+16
   -0.224971    0.90038  0.0000E+00  0.4096E-13  0.8590E-16  0.1000E-09  0.0000E+00  0.6906E+16
   -0.262468    1.03957  0.0000E+00  0.4096E-13  0.8590E-16  0.1000E-09  0.0000E+00  0.6385E+16
   -0.299964    1.17470  0.0000E+00  0.4096E-13  0.8590E-16  0.1000E-09  0.0000E+00  0.5882E+16
   -0.337461    1.30549  0.0000E+00  0.4096E-13  0.8590E-16  0.1000E-09  0.0000E+00  0.5402E+16
   -0.374958    1.43177  0.0000E+00  0.4096E-13  0.8590E-16  0.1000E-09  0.0000E+00  0.5001E+16
   -0.412455    1.55477  0.0000E+00  0.4096E-13  0.8590E-16  0.1000E-09  0.0000E+00  0.4651E+16
   -0.449952    1.67528  0.0000E+00  0.4096E-13  0.8590E-16  0.1000E-09  0.0000E+00  0.4314E+16
   -0.487450    1.79323  0.0000E+00  0.4096E-13  0.8590E-16  0.1000E-09  0.0000E+00  0.3992E+16
   -0.524947    1.90853  0.0000E+00  0.4096E-13  0.8590E-16  0.1000E-09  0.0000E+00  0.3678E+16
   -0.562445    2.02096  0.0000E+00  0.4096E-13  0.8590E-16  0.1000E-09  0.0000E+00  0.3379E+16
   -0.599943    2.13047  0.0000E+00  0.4096E-13  0.8590E-16  0.1000E-09  0.0000E+00  0.3095E+16
   -0.637441    2.23695  0.0000E+00  0.4096E-13  0.8590E-16  0.1000E-09  0.0000E+00  0.2825E+16
   -0.674939    2.34035  0.0000E+00  0.4096E-13  0.8590E-16  0.1000E-09  0.0000E+00  0.2570E+16
   -0.712437    2.44057  0.0000E+00  0.4096E-13  0.8590E-16  0.1000E-09  0.0000E+00  0.2329E+16
   -0.749935    2.53752  0.0000E+00  0.4096E-13  0.8590E-16  0.1000E-09  0.0000E+00  0.2137E+16
   -0.787433    2.63271  0.0000E+00  0.4096E-13  0.8590E-16  0.1000E-09  0.0000E+00  0.1964E+16
   -0.824931    2.72668  0.0000E+00  0.4096E-13  0.8590E-16  0.1000E-09  0.0000E+00  0.1798E+16
   -0.862428    2.81946  0.0000E+00  0.4096E-13  0.8590E-16  0.1000E-09  0.0000E+00  0.1639E+16
   -0.899926    2.91112  0.0000E+00  0.4096E-13  0.8590E-16  0.1000E-09  0.0000E+00  0.1486E+16
   -0.937424    3.00171  0.0000E+00  0.4096E-13  0.8590E-16  0.1000E-09  0.0000E+00  0.1339E+16
   -0.974922    3.09129  0.0000E+00  0.4096E-13  0.8590E-16  0.1000E-09  0.0000E+00  0.1198E+16
   -1.012419    3.17995  0.0000E+00  0.6915E-13  0.8590E-16  0.1000E-09  0.0000E+00  0.1061E+16
   -1.049917    3.26771  0.0000E+00  0.2628E-12  0.1872E-15  0.1000E-09  0.0000E+00  0.9291E+15
   -1.087414    3.35463  0.0000E+00  0.8259E-12  0.5356E-15  0.1000E-09  0.0000E+00  0.8018E+15
   -1.124911    3.44079  0.0000E+00  0.2450E-11  0.1531E-14  0.1000E-09  0.0000E+00  0.6897E+15
   -1.162408    3.52779  0.0000E+00  0.7115E-11  0.4318E-14  0.1000E-09  0.0000E+00  0.5774E+15
   -1.199905    3.61617  0.0000E+00  0.2039E-10  0.1203E-13  0.1000E-09  0.0000E+00  0.4613E+15
   -1.237402    3.70628  0.0000E+00  0.5774E-10  0.3319E-13  0.2649E-09  0.0000E+00  0.3395E+15
   -1.274898    3.79862  0.0000E+00  0.1635E-09  0.9166E-13  0.1169E-08  0.0000E+00  0.2098E+15
   -1.312394    3.89411  0.0000E+00  0.4590E-09  0.2519E-12  0.9481E-08  0.0000E+00  0.6658E+14
   -1.349890    3.98892  0.0000E+00  0.1185E-08  0.6513E-12  0.6120E-06  0.0000E+00 -0.3990E+13
   -1.387385    4.00910  0.0000E+00  0.1870E-08  0.1273E-11  0.9557E-06  0.0000E+00 -0.6964E+13
   -1.424880    4.02384  0.0000E+00  0.2257E-08  0.2252E-11  0.7543E-06  0.0000E+00 -0.1460E+14
   -1.462375    4.04353  0.0000E+00  0.2136E-08  0.4597E-11  0.2757E-06  0.0000E+00 -0.6040E+14
   -1.499869    4.09117  0.0000E+00  0.0000E+00  0.0000E+00  0.0000E+00  0.0000E+00  0.0000E+00
