 1 - depth, m
 2 - temperature, C
 3 - salinity, kg/kg
 4 - turbulent kinetic energy, m**2/s**2
 5 - dissipation rate, m**2/s**3
 6 - kinematic heat conductance, m**2/s
 7 - modulus of horizontal velocity, m/s
 8 - Richardson number, n/d
   -0.000000   10.58907  0.0000E+00  0.4400E-03  0.1113E-02  0.7795E-04  0.2577E+00  0.1929E-02
   -0.037499   10.64824  0.0000E+00  0.2413E-03  0.4807E-03  0.1462E-03  0.8748E-01 -0.1516E-01
   -0.074998   10.66552  0.0000E+00  0.1650E-03  0.1052E-03  0.2055E-03  0.5605E-01 -0.1309E-01
   -0.112498   10.67437  0.0000E+00  0.1308E-03  0.5096E-04  0.2105E-03  0.4390E-01 -0.1866E-01
   -0.149998   10.67904  0.0000E+00  0.1076E-03  0.2857E-04  0.2179E-03  0.3678E-01  0.2444E-01
   -0.187498   10.68219  0.0000E+00  0.9180E-04  0.1726E-04  0.2269E-03  0.3208E-01 -0.1470E-01
   -0.224998   10.68476  0.0000E+00  0.7966E-04  0.1103E-04  0.2376E-03  0.2833E-01 -0.2554E-01
   -0.262499   10.68682  0.0000E+00  0.7026E-04  0.7250E-05  0.2487E-03  0.2529E-01 -0.1695E-01
   -0.300000   10.68859  0.0000E+00  0.6283E-04  0.4825E-05  0.2602E-03  0.2280E-01 -0.1962E-01
   -0.337501   10.69018  0.0000E+00  0.5683E-04  0.3264E-05  0.2716E-03  0.2071E-01 -0.1727E-01
   -0.375003   10.69165  0.0000E+00  0.5187E-04  0.2261E-05  0.2831E-03  0.1886E-01 -0.2503E-01
   -0.412504   10.69302  0.0000E+00  0.4770E-04  0.1610E-05  0.2944E-03  0.1721E-01 -0.3035E-01
   -0.450006   10.69431  0.0000E+00  0.4410E-04  0.1183E-05  0.3053E-03  0.1572E-01 -0.3745E-01
   -0.487508   10.69553  0.0000E+00  0.4097E-04  0.8983E-06  0.3160E-03  0.1436E-01 -0.4095E-01
   -0.525010   10.69669  0.0000E+00  0.3819E-04  0.7040E-06  0.3284E-03  0.1311E-01 -0.4420E-01
   -0.562512   10.69778  0.0000E+00  0.3572E-04  0.5673E-06  0.3402E-03  0.1202E-01 -0.5425E-01
   -0.600015   10.69882  0.0000E+00  0.3351E-04  0.4676E-06  0.3527E-03  0.1104E-01  0.7298E+00
   -0.637517   10.69979  0.0000E+00  0.3151E-04  0.3927E-06  0.3691E-03  0.1015E-01  0.4206E+03
   -0.675019   10.70071  0.0000E+00  0.2969E-04  0.3347E-06  0.3925E-03  0.9337E-02  0.2909E+02
   -0.712522   10.70156  0.0000E+00  0.2802E-04  0.2887E-06  0.4265E-03  0.8600E-02  0.1461E+02
   -0.750024   10.70234  0.0000E+00  0.2649E-04  0.2516E-06  0.4549E-03  0.7924E-02  0.2806E+02
   -0.787527   10.70307  0.0000E+00  0.2507E-04  0.2210E-06  0.4815E-03  0.7301E-02  0.9343E+01
   -0.825029   10.70375  0.0000E+00  0.2375E-04  0.1954E-06  0.5131E-03  0.6722E-02  0.4166E+02
   -0.862532   10.70438  0.0000E+00  0.2252E-04  0.1739E-06  0.5384E-03  0.6183E-02  0.2451E+02
   -0.900034   10.70497  0.0000E+00  0.2135E-04  0.1555E-06  0.5627E-03  0.5677E-02  0.1735E+02
   -0.937536   10.70553  0.0000E+00  0.2025E-04  0.1397E-06  0.5901E-03  0.5200E-02  0.2068E+02
   -0.975038   10.70606  0.0000E+00  0.1920E-04  0.1261E-06  0.6188E-03  0.4747E-02  0.3753E+02
   -1.012540   10.70657  0.0000E+00  0.1818E-04  0.1143E-06  0.6325E-03  0.4315E-02  0.1774E+02
   -1.050042   10.70705  0.0000E+00  0.1719E-04  0.1039E-06  0.6399E-03  0.3910E-02  0.2562E+02
   -1.087544   10.70752  0.0000E+00  0.1622E-04  0.9494E-07  0.6412E-03  0.3531E-02  0.3356E+02
   -1.125046   10.70798  0.0000E+00  0.1528E-04  0.8724E-07  0.6354E-03  0.3177E-02  0.3562E+02
   -1.162547   10.70844  0.0000E+00  0.1435E-04  0.8077E-07  0.6216E-03  0.2846E-02  0.5471E+01
   -1.200048   10.70890  0.0000E+00  0.1344E-04  0.7555E-07  0.5985E-03  0.2535E-02  0.7348E+01
   -1.237549   10.70937  0.0000E+00  0.1254E-04  0.7169E-07  0.5636E-03  0.2243E-02  0.7016E+02
   -1.275050   10.70987  0.0000E+00  0.1164E-04  0.6947E-07  0.5190E-03  0.1968E-02  0.4535E+01
   -1.312551   10.71041  0.0000E+00  0.1073E-04  0.6957E-07  0.4649E-03  0.1724E-02  0.9778E+01
   -1.350051   10.71103  0.0000E+00  0.9796E-05  0.7354E-07  0.3841E-03  0.1509E-02  0.3620E+03
   -1.387551   10.71177  0.0000E+00  0.8739E-05  0.8531E-07  0.2870E-03  0.1319E-02  0.3310E+03
   -1.425050   10.71276  0.0000E+00  0.7342E-05  0.1195E-06  0.1569E-03  0.1141E-02  0.2198E+03
   -1.462550   10.71459  0.0000E+00  0.4086E-05  0.2680E-06  0.2005E-04  0.9592E-03 -0.3239E+05
   -1.500049   10.73146  0.0000E+00  0.0000E+00  0.0000E+00  0.0000E+00  0.9978E-03  0.0000E+00
