 1 - depth, m
 2 - temperature, C
 3 - salinity, kg/kg
 4 - turbulent kinetic energy, m**2/s**2
 5 - dissipation rate, m**2/s**3
 6 - kinematic heat conductance, m**2/s
 7 - modulus of horizontal velocity, m/s
 8 - Richardson number, n/d
   -0.000000    0.00000  0.0000E+00  0.4096E-13  0.8590E-16  0.1000E-09  0.0000E+00  0.9087E+16
   -0.037495    0.13891  0.0000E+00  0.4096E-13  0.8590E-16  0.1000E-09  0.0000E+00  0.8666E+16
   -0.074990    0.27654  0.0000E+00  0.4096E-13  0.8590E-16  0.1000E-09  0.0000E+00  0.8251E+16
   -0.112485    0.41283  0.0000E+00  0.4096E-13  0.8590E-16  0.1000E-09  0.0000E+00  0.7844E+16
   -0.149981    0.54772  0.0000E+00  0.4096E-13  0.8590E-16  0.1000E-09  0.0000E+00  0.7444E+16
   -0.187477    0.68113  0.0000E+00  0.4096E-13  0.8590E-16  0.1000E-09  0.0000E+00  0.7052E+16
   -0.224973    0.81299  0.0000E+00  0.4096E-13  0.8590E-16  0.1000E-09  0.0000E+00  0.6669E+16
   -0.262470    0.94322  0.0000E+00  0.4096E-13  0.8590E-16  0.1000E-09  0.0000E+00  0.6286E+16
   -0.299967    1.07157  0.0000E+00  0.4096E-13  0.8590E-16  0.1000E-09  0.0000E+00  0.5911E+16
   -0.337464    1.19794  0.0000E+00  0.4096E-13  0.8590E-16  0.1000E-09  0.0000E+00  0.5547E+16
   -0.374961    1.32222  0.0000E+00  0.4096E-13  0.8590E-16  0.1000E-09  0.0000E+00  0.5220E+16
   -0.412458    1.44498  0.0000E+00  0.4096E-13  0.8590E-16  0.1000E-09  0.0000E+00  0.4916E+16
   -0.449956    1.56654  0.0000E+00  0.4096E-13  0.8590E-16  0.1000E-09  0.0000E+00  0.4620E+16
   -0.487454    1.68686  0.0000E+00  0.4096E-13  0.8590E-16  0.1000E-09  0.0000E+00  0.4329E+16
   -0.524952    1.80588  0.0000E+00  0.4096E-13  0.8590E-16  0.1000E-09  0.0000E+00  0.4041E+16
   -0.562450    1.92340  0.0000E+00  0.4096E-13  0.8590E-16  0.1000E-09  0.0000E+00  0.3761E+16
   -0.599948    2.03936  0.0000E+00  0.4096E-13  0.8590E-16  0.1000E-09  0.0000E+00  0.3489E+16
   -0.637446    2.15371  0.0000E+00  0.4096E-13  0.8590E-16  0.1000E-09  0.0000E+00  0.3225E+16
   -0.674944    2.26638  0.0000E+00  0.4096E-13  0.8590E-16  0.1000E-09  0.0000E+00  0.2970E+16
   -0.712442    2.37731  0.0000E+00  0.4096E-13  0.8590E-16  0.1000E-09  0.0000E+00  0.2724E+16
   -0.749941    2.48641  0.0000E+00  0.4096E-13  0.8590E-16  0.1000E-09  0.0000E+00  0.2511E+16
   -0.787439    2.59478  0.0000E+00  0.4096E-13  0.8590E-16  0.1000E-09  0.0000E+00  0.2312E+16
   -0.824937    2.70279  0.0000E+00  0.4096E-13  0.8590E-16  0.1000E-09  0.0000E+00  0.2115E+16
   -0.862435    2.81046  0.0000E+00  0.9072E-13  0.8590E-16  0.1000E-09  0.0000E+00  0.1921E+16
   -0.899934    2.91778  0.0000E+00  0.3058E-12  0.1449E-15  0.1000E-09  0.0000E+00  0.1729E+16
   -0.937432    3.02475  0.0000E+00  0.8036E-12  0.3288E-15  0.1000E-09  0.0000E+00  0.1539E+16
   -0.974930    3.13138  0.0000E+00  0.1944E-11  0.7584E-15  0.1000E-09  0.0000E+00  0.1352E+16
   -1.012428    3.23765  0.0000E+00  0.4581E-11  0.1734E-14  0.1000E-09  0.0000E+00  0.1166E+16
   -1.049925    3.34346  0.0000E+00  0.1068E-10  0.3935E-14  0.1000E-09  0.0000E+00  0.9827E+15
   -1.087423    3.44876  0.0000E+00  0.2465E-10  0.8857E-14  0.1000E-09  0.0000E+00  0.8022E+15
   -1.124920    3.55350  0.0000E+00  0.5644E-10  0.1978E-13  0.1000E-09  0.0000E+00  0.6329E+15
   -1.162418    3.65919  0.0000E+00  0.1282E-09  0.4383E-13  0.2628E-09  0.0000E+00  0.4602E+15
   -1.199915    3.76606  0.0000E+00  0.2888E-09  0.9642E-13  0.9409E-09  0.0000E+00  0.2817E+15
   -1.237412    3.87389  0.0000E+00  0.6439E-09  0.2102E-12  0.5754E-08  0.0000E+00  0.9877E+14
   -1.274908    3.97990  0.0000E+00  0.1317E-08  0.4256E-12  0.7278E-06  0.0000E+00 -0.7938E+12
   -1.312404    3.99823  0.0000E+00  0.2030E-08  0.7451E-12  0.1904E-05  0.0000E+00 -0.2009E+13
   -1.349900    4.00627  0.0000E+00  0.2564E-08  0.1119E-11  0.2078E-05  0.0000E+00 -0.2879E+13
   -1.387396    4.01399  0.0000E+00  0.2911E-08  0.1651E-11  0.1765E-05  0.0000E+00 -0.4799E+13
   -1.424892    4.02344  0.0000E+00  0.2959E-08  0.2622E-11  0.1070E-05  0.0000E+00 -0.1126E+14
   -1.462387    4.03938  0.0000E+00  0.2489E-08  0.5304E-11  0.3080E-06  0.0000E+00 -0.5682E+14
   -1.499881    4.08670  0.0000E+00  0.0000E+00  0.0000E+00  0.0000E+00  0.0000E+00  0.0000E+00
