 1 - depth, m
 2 - temperature, C
 3 - salinity, kg/kg
 4 - turbulent kinetic energy, m**2/s**2
 5 - dissipation rate, m**2/s**3
 6 - kinematic heat conductance, m**2/s
 7 - modulus of horizontal velocity, m/s
 8 - Richardson number, n/d
   -0.000000   12.02281  0.0000E+00  0.9833E-03  0.6849E-02  0.1154E-03  0.4432E+00 -0.4269E-02
   -0.037493   12.10029  0.0000E+00  0.5194E-03  0.3792E-02  0.2085E-03  0.1529E+00 -0.6412E-02
   -0.074986   12.13761  0.0000E+00  0.3319E-03  0.1786E-02  0.3115E-03  0.8917E-01 -0.1490E+00
   -0.112480   12.15002  0.0000E+00  0.2619E-03  0.1232E-02  0.3288E-03  0.6743E-01 -0.2179E-02
   -0.149974   12.15577  0.0000E+00  0.2182E-03  0.8488E-03  0.3354E-03  0.5589E-01 -0.8096E-02
   -0.187469   12.15916  0.0000E+00  0.1851E-03  0.5757E-03  0.3432E-03  0.4864E-01  0.5238E+00
   -0.224963   12.16165  0.0000E+00  0.1605E-03  0.3820E-03  0.3593E-03  0.4342E-01  0.2295E-01
   -0.262458   12.16374  0.0000E+00  0.1414E-03  0.2461E-03  0.3637E-03  0.3916E-01  0.1449E+00
   -0.299953   12.16545  0.0000E+00  0.1257E-03  0.1525E-03  0.3744E-03  0.3571E-01  0.3051E+00
   -0.337449   12.16701  0.0000E+00  0.1127E-03  0.9157E-04  0.3868E-03  0.3279E-01  0.6215E-01
   -0.374944   12.16845  0.0000E+00  0.1022E-03  0.5394E-04  0.4021E-03  0.3024E-01  0.3212E-01
   -0.412440   12.16974  0.0000E+00  0.9365E-04  0.3161E-04  0.4151E-03  0.2797E-01  0.1808E+00
   -0.449936   12.17107  0.0000E+00  0.8681E-04  0.1872E-04  0.4317E-03  0.2594E-01  0.9055E-02
   -0.487432   12.17230  0.0000E+00  0.8119E-04  0.1133E-04  0.4323E-03  0.2412E-01  0.5303E+01
   -0.524928   12.17445  0.0000E+00  0.7537E-04  0.7042E-05  0.4654E-03  0.2136E-01  0.1166E+03
   -0.562425   12.17559  0.0000E+00  0.7067E-04  0.4551E-05  0.4759E-03  0.1988E-01  0.6560E+01
   -0.599921   12.17666  0.0000E+00  0.6656E-04  0.3073E-05  0.4777E-03  0.1853E-01  0.5991E+02
   -0.637417   12.17864  0.0000E+00  0.6236E-04  0.2157E-05  0.5029E-03  0.1670E-01  0.4538E+02
   -0.674914   12.17964  0.0000E+00  0.5879E-04  0.1583E-05  0.5175E-03  0.1557E-01  0.3563E+01
   -0.712411   12.18061  0.0000E+00  0.5555E-04  0.1209E-05  0.5340E-03  0.1453E-01  0.2609E+01
   -0.749907   12.18154  0.0000E+00  0.5259E-04  0.9566E-06  0.5513E-03  0.1358E-01  0.2726E+01
   -0.787404   12.18245  0.0000E+00  0.4988E-04  0.7806E-06  0.5751E-03  0.1269E-01  0.1810E+02
   -0.824900   12.18332  0.0000E+00  0.4735E-04  0.6528E-06  0.6005E-03  0.1185E-01  0.3639E+02
   -0.862397   12.18418  0.0000E+00  0.4499E-04  0.5574E-06  0.6324E-03  0.1106E-01  0.2235E+02
   -0.899893   12.18500  0.0000E+00  0.4276E-04  0.4843E-06  0.6628E-03  0.1031E-01  0.1530E+02
   -0.937390   12.18580  0.0000E+00  0.4065E-04  0.4275E-06  0.6905E-03  0.9596E-02  0.2329E+02
   -0.974886   12.18658  0.0000E+00  0.3863E-04  0.3824E-06  0.7106E-03  0.8900E-02  0.3671E+02
   -1.012382   12.18734  0.0000E+00  0.3668E-04  0.3457E-06  0.7246E-03  0.8230E-02  0.1998E+02
   -1.049878   12.18807  0.0000E+00  0.3474E-04  0.3153E-06  0.7324E-03  0.7599E-02  0.1199E+02
   -1.087374   12.18880  0.0000E+00  0.3282E-04  0.2902E-06  0.7340E-03  0.7003E-02  0.2611E+02
   -1.124870   12.18952  0.0000E+00  0.3090E-04  0.2698E-06  0.7175E-03  0.6434E-02  0.2594E+02
   -1.162366   12.19026  0.0000E+00  0.2897E-04  0.2543E-06  0.6867E-03  0.5889E-02  0.6287E+02
   -1.199861   12.19104  0.0000E+00  0.2700E-04  0.2439E-06  0.6365E-03  0.5365E-02  0.4368E+02
   -1.237356   12.19189  0.0000E+00  0.2498E-04  0.2402E-06  0.5707E-03  0.4855E-02  0.1321E+03
   -1.274851   12.19285  0.0000E+00  0.2284E-04  0.2464E-06  0.4997E-03  0.4354E-02  0.4481E+02
   -1.312346   12.19397  0.0000E+00  0.2049E-04  0.2701E-06  0.4113E-03  0.3883E-02  0.5571E+02
   -1.349840   12.19538  0.0000E+00  0.1781E-04  0.3272E-06  0.3179E-03  0.3426E-02  0.1613E+03
   -1.387334   12.19733  0.0000E+00  0.1465E-04  0.4549E-06  0.2352E-03  0.2954E-02  0.1037E+03
   -1.424828   12.19997  0.0000E+00  0.1089E-04  0.7853E-06  0.1429E-03  0.2447E-02  0.3808E+03
   -1.462321   12.20552  0.0000E+00  0.6652E-05  0.1660E-05  0.6847E-04  0.1916E-02 -0.4372E+05
   -1.499814   12.22449  0.0000E+00  0.0000E+00  0.0000E+00  0.0000E+00  0.2378E-02  0.0000E+00
