 1 - depth, m
 2 - temperature, C
 3 - salinity, kg/kg
 4 - turbulent kinetic energy, m**2/s**2
 5 - dissipation rate, m**2/s**3
 6 - kinematic heat conductance, m**2/s
 7 - modulus of horizontal velocity, m/s
 8 - Richardson number, n/d
   -0.000000    0.00000  0.0000E+00  0.4096E-13  0.8590E-16  0.1000E-09  0.0000E+00  0.9124E+16
   -0.037498    0.13948  0.0000E+00  0.4096E-13  0.8590E-16  0.1000E-09  0.0000E+00  0.8685E+16
   -0.074997    0.27745  0.0000E+00  0.4096E-13  0.8590E-16  0.1000E-09  0.0000E+00  0.8257E+16
   -0.112496    0.41387  0.0000E+00  0.4096E-13  0.8590E-16  0.1000E-09  0.0000E+00  0.7840E+16
   -0.149996    0.54873  0.0000E+00  0.4096E-13  0.8590E-16  0.1000E-09  0.0000E+00  0.7434E+16
   -0.187495    0.68199  0.0000E+00  0.4096E-13  0.8590E-16  0.1000E-09  0.0000E+00  0.7039E+16
   -0.224995    0.81362  0.0000E+00  0.4096E-13  0.8590E-16  0.1000E-09  0.0000E+00  0.6654E+16
   -0.262495    0.94358  0.0000E+00  0.4096E-13  0.8590E-16  0.1000E-09  0.0000E+00  0.6273E+16
   -0.299996    1.07167  0.0000E+00  0.4096E-13  0.8590E-16  0.1000E-09  0.0000E+00  0.5901E+16
   -0.337497    1.19781  0.0000E+00  0.4096E-13  0.8590E-16  0.1000E-09  0.0000E+00  0.5540E+16
   -0.374997    1.32192  0.0000E+00  0.4096E-13  0.8590E-16  0.1000E-09  0.0000E+00  0.5216E+16
   -0.412499    1.44456  0.0000E+00  0.4096E-13  0.8590E-16  0.1000E-09  0.0000E+00  0.4914E+16
   -0.450000    1.56605  0.0000E+00  0.4096E-13  0.8590E-16  0.1000E-09  0.0000E+00  0.4620E+16
   -0.487501    1.68635  0.0000E+00  0.4096E-13  0.8590E-16  0.1000E-09  0.0000E+00  0.4332E+16
   -0.525003    1.80541  0.0000E+00  0.4096E-13  0.8590E-16  0.1000E-09  0.0000E+00  0.4046E+16
   -0.562504    1.92305  0.0000E+00  0.4096E-13  0.8590E-16  0.1000E-09  0.0000E+00  0.3768E+16
   -0.600006    2.03921  0.0000E+00  0.4096E-13  0.8590E-16  0.1000E-09  0.0000E+00  0.3498E+16
   -0.637508    2.15385  0.0000E+00  0.4096E-13  0.8590E-16  0.1000E-09  0.0000E+00  0.3235E+16
   -0.675010    2.26688  0.0000E+00  0.4096E-13  0.8590E-16  0.1000E-09  0.0000E+00  0.2981E+16
   -0.712512    2.37825  0.0000E+00  0.4096E-13  0.8590E-16  0.1000E-09  0.0000E+00  0.2735E+16
   -0.750014    2.48789  0.0000E+00  0.4096E-13  0.8590E-16  0.1000E-09  0.0000E+00  0.2521E+16
   -0.787516    2.59679  0.0000E+00  0.4096E-13  0.8590E-16  0.1000E-09  0.0000E+00  0.2318E+16
   -0.825017    2.70530  0.0000E+00  0.4096E-13  0.8590E-16  0.1000E-09  0.0000E+00  0.2119E+16
   -0.862519    2.81341  0.0000E+00  0.9237E-13  0.8590E-16  0.1000E-09  0.0000E+00  0.1922E+16
   -0.900021    2.92111  0.0000E+00  0.3091E-12  0.1453E-15  0.1000E-09  0.0000E+00  0.1727E+16
   -0.937523    3.02839  0.0000E+00  0.8092E-12  0.3290E-15  0.1000E-09  0.0000E+00  0.1536E+16
   -0.975025    3.13523  0.0000E+00  0.1952E-11  0.7567E-15  0.1000E-09  0.0000E+00  0.1347E+16
   -1.012526    3.24160  0.0000E+00  0.4588E-11  0.1725E-14  0.1000E-09  0.0000E+00  0.1159E+16
   -1.050027    3.34743  0.0000E+00  0.1066E-10  0.3906E-14  0.1000E-09  0.0000E+00  0.9753E+15
   -1.087529    3.45264  0.0000E+00  0.2456E-10  0.8770E-14  0.1000E-09  0.0000E+00  0.7944E+15
   -1.125030    3.55718  0.0000E+00  0.5609E-10  0.1954E-13  0.1000E-09  0.0000E+00  0.6245E+15
   -1.162531    3.66244  0.0000E+00  0.1271E-09  0.4319E-13  0.2634E-09  0.0000E+00  0.4523E+15
   -1.200031    3.76861  0.0000E+00  0.2856E-09  0.9478E-13  0.9453E-09  0.0000E+00  0.2756E+15
   -1.237532    3.87542  0.0000E+00  0.6352E-09  0.2061E-12  0.5797E-08  0.0000E+00  0.9611E+14
   -1.275032    3.98007  0.0000E+00  0.1297E-08  0.4167E-12  0.7269E-06  0.0000E+00 -0.7979E+12
   -1.312532    3.99816  0.0000E+00  0.1996E-08  0.7281E-12  0.1885E-05  0.0000E+00 -0.1985E+13
   -1.350032    4.00615  0.0000E+00  0.2520E-08  0.1093E-11  0.2057E-05  0.0000E+00 -0.2844E+13
   -1.387531    4.01382  0.0000E+00  0.2859E-08  0.1611E-11  0.1745E-05  0.0000E+00 -0.4740E+13
   -1.425030    4.02322  0.0000E+00  0.2903E-08  0.2556E-11  0.1057E-05  0.0000E+00 -0.1111E+14
   -1.462529    4.03905  0.0000E+00  0.2436E-08  0.5157E-11  0.3030E-06  0.0000E+00 -0.5601E+14
   -1.500027    4.08601  0.0000E+00  0.0000E+00  0.0000E+00  0.0000E+00  0.0000E+00  0.0000E+00
