 1 - depth, m
 2 - temperature, C
 3 - salinity, kg/kg
 4 - turbulent kinetic energy, m**2/s**2
 5 - dissipation rate, m**2/s**3
 6 - kinematic heat conductance, m**2/s
 7 - modulus of horizontal velocity, m/s
 8 - Richardson number, n/d
   -0.000000    2.46022  0.0000E+00  0.2932E-03  0.6595E-03  0.5611E-04  0.1689E+00 -0.2011E-02
   -0.037500    2.54699  0.0000E+00  0.1562E-03  0.2540E-03  0.1229E-03  0.5797E-01 -0.3313E-01
   -0.075000    2.56571  0.0000E+00  0.1114E-03  0.1403E-03  0.1503E-03  0.3998E-01  0.2159E-01
   -0.112501    2.57696  0.0000E+00  0.8956E-04  0.8690E-04  0.1537E-03  0.3325E-01  0.1127E-01
   -0.150002    2.58446  0.0000E+00  0.7418E-04  0.5207E-04  0.1566E-03  0.2878E-01  0.1524E-01
   -0.187503    2.59074  0.0000E+00  0.6265E-04  0.3081E-04  0.1598E-03  0.2535E-01  0.2343E-01
   -0.225004    2.59653  0.0000E+00  0.5373E-04  0.1781E-04  0.1633E-03  0.2249E-01  0.3006E-01
   -0.262506    2.60220  0.0000E+00  0.4671E-04  0.1018E-04  0.1671E-03  0.1999E-01  0.4309E-01
   -0.300008    2.60792  0.0000E+00  0.4111E-04  0.5804E-05  0.1704E-03  0.1787E-01  0.6771E-01
   -0.337510    2.61400  0.0000E+00  0.3656E-04  0.3340E-05  0.1731E-03  0.1606E-01  0.1199E+00
   -0.375012    2.62180  0.0000E+00  0.3282E-04  0.1977E-05  0.1751E-03  0.1447E-01  0.2954E+00
   -0.412515    2.63702  0.0000E+00  0.2969E-04  0.1225E-05  0.1763E-03  0.1304E-01  0.1051E+01
   -0.450018    2.65910  0.0000E+00  0.2701E-04  0.8043E-06  0.1768E-03  0.1174E-01  0.5698E+01
   -0.487521    2.68383  0.0000E+00  0.2467E-04  0.5605E-06  0.1765E-03  0.1057E-01  0.4993E+02
   -0.525024    2.70888  0.0000E+00  0.2259E-04  0.4117E-06  0.1765E-03  0.9511E-02  0.6015E+03
   -0.562527    2.73296  0.0000E+00  0.2072E-04  0.3158E-06  0.1757E-03  0.8577E-02  0.8079E+04
   -0.600030    2.75618  0.0000E+00  0.1905E-04  0.2508E-06  0.1741E-03  0.7743E-02  0.1112E+06
   -0.637534    2.77887  0.0000E+00  0.1753E-04  0.2044E-06  0.1720E-03  0.6991E-02  0.1470E+07
   -0.675037    2.80255  0.0000E+00  0.1615E-04  0.1700E-06  0.1695E-03  0.6308E-02  0.1798E+08
   -0.712540    2.83513  0.0000E+00  0.1488E-04  0.1433E-06  0.1668E-03  0.5676E-02  0.2351E+09
   -0.750044    2.91338  0.0000E+00  0.1374E-04  0.1221E-06  0.1643E-03  0.5068E-02  0.1870E+11
   -0.787547    3.04731  0.0000E+00  0.1271E-04  0.1049E-06  0.1669E-03  0.4526E-02  0.1141E+13
   -0.825051    3.14843  0.0000E+00  0.1177E-04  0.9064E-07  0.1745E-03  0.4062E-02  0.4982E+14
   -0.862554    3.24415  0.0000E+00  0.1091E-04  0.7873E-07  0.1814E-03  0.3639E-02  0.1015E+15
   -0.900057    3.30812  0.0000E+00  0.1011E-04  0.6867E-07  0.1870E-03  0.3257E-02 -0.3144E+12
   -0.937561    3.33190  0.0000E+00  0.9370E-05  0.6008E-07  0.1838E-03  0.2908E-02 -0.3547E+12
   -0.975064    3.35345  0.0000E+00  0.8677E-05  0.5271E-07  0.1801E-03  0.2587E-02 -0.3787E+12
   -1.012567    3.36759  0.0000E+00  0.8024E-05  0.4631E-07  0.1769E-03  0.2288E-02 -0.4224E+12
   -1.050070    3.38052  0.0000E+00  0.7409E-05  0.4074E-07  0.1728E-03  0.2018E-02 -0.4687E+12
   -1.087572    3.39321  0.0000E+00  0.6830E-05  0.3593E-07  0.1675E-03  0.1775E-02 -0.5307E+12
   -1.125075    3.40440  0.0000E+00  0.6287E-05  0.3177E-07  0.1613E-03  0.1555E-02 -0.5808E+12
   -1.162577    3.41472  0.0000E+00  0.5776E-05  0.2821E-07  0.1539E-03  0.1354E-02 -0.6431E+12
   -1.200080    3.42541  0.0000E+00  0.5294E-05  0.2517E-07  0.1452E-03  0.1169E-02 -0.7002E+12
   -1.237582    3.43682  0.0000E+00  0.4838E-05  0.2264E-07  0.1354E-03  0.9977E-03 -0.7725E+12
   -1.275083    3.44957  0.0000E+00  0.4399E-05  0.2057E-07  0.1249E-03  0.8395E-03 -0.8411E+12
   -1.312585    3.46324  0.0000E+00  0.3971E-05  0.1899E-07  0.1118E-03  0.7026E-03 -0.9494E+12
   -1.350086    3.47714  0.0000E+00  0.3542E-05  0.1805E-07  0.9580E-04  0.5843E-03 -0.1168E+13
   -1.387587    3.49108  0.0000E+00  0.3092E-05  0.1813E-07  0.7552E-04  0.4822E-03 -0.1685E+13
   -1.425087    3.50499  0.0000E+00  0.2559E-05  0.2064E-07  0.4357E-04  0.3945E-03 -0.4342E+13
   -1.462588    3.52439  0.0000E+00  0.1326E-05  0.4282E-07  0.6251E-05  0.3216E-03 -0.5634E+14
   -1.500087    3.62505  0.0000E+00  0.0000E+00  0.0000E+00  0.0000E+00  0.3234E-03  0.0000E+00
