 1 - depth, m
 2 - temperature, C
 3 - salinity, kg/kg
 4 - turbulent kinetic energy, m**2/s**2
 5 - dissipation rate, m**2/s**3
 6 - kinematic heat conductance, m**2/s
 7 - modulus of horizontal velocity, m/s
 8 - Richardson number, n/d
   -0.000000    0.00000  0.0000E+00  0.4096E-13  0.8590E-16  0.1000E-09  0.0000E+00  0.9223E+16
   -0.037495    0.14101  0.0000E+00  0.4096E-13  0.8590E-16  0.1000E-09  0.0000E+00  0.8766E+16
   -0.074990    0.28035  0.0000E+00  0.4096E-13  0.8590E-16  0.1000E-09  0.0000E+00  0.8322E+16
   -0.112486    0.41800  0.0000E+00  0.4096E-13  0.8590E-16  0.1000E-09  0.0000E+00  0.7891E+16
   -0.149982    0.55392  0.0000E+00  0.4096E-13  0.8590E-16  0.1000E-09  0.0000E+00  0.7472E+16
   -0.187478    0.68810  0.0000E+00  0.4096E-13  0.8590E-16  0.1000E-09  0.0000E+00  0.7065E+16
   -0.224974    0.82050  0.0000E+00  0.4096E-13  0.8590E-16  0.1000E-09  0.0000E+00  0.6670E+16
   -0.262471    0.95110  0.0000E+00  0.4096E-13  0.8590E-16  0.1000E-09  0.0000E+00  0.6282E+16
   -0.299968    1.07973  0.0000E+00  0.4096E-13  0.8590E-16  0.1000E-09  0.0000E+00  0.5904E+16
   -0.337465    1.20633  0.0000E+00  0.4096E-13  0.8590E-16  0.1000E-09  0.0000E+00  0.5539E+16
   -0.374963    1.33085  0.0000E+00  0.4096E-13  0.8590E-16  0.1000E-09  0.0000E+00  0.5210E+16
   -0.412460    1.45381  0.0000E+00  0.4096E-13  0.8590E-16  0.1000E-09  0.0000E+00  0.4904E+16
   -0.449958    1.57552  0.0000E+00  0.4096E-13  0.8590E-16  0.1000E-09  0.0000E+00  0.4605E+16
   -0.487456    1.69594  0.0000E+00  0.4096E-13  0.8590E-16  0.1000E-09  0.0000E+00  0.4314E+16
   -0.524954    1.81505  0.0000E+00  0.4096E-13  0.8590E-16  0.1000E-09  0.0000E+00  0.4028E+16
   -0.562452    1.93271  0.0000E+00  0.4096E-13  0.8590E-16  0.1000E-09  0.0000E+00  0.3750E+16
   -0.599951    2.04888  0.0000E+00  0.4096E-13  0.8590E-16  0.1000E-09  0.0000E+00  0.3479E+16
   -0.637449    2.16351  0.0000E+00  0.4096E-13  0.8590E-16  0.1000E-09  0.0000E+00  0.3217E+16
   -0.674948    2.27655  0.0000E+00  0.4096E-13  0.8590E-16  0.1000E-09  0.0000E+00  0.2963E+16
   -0.712446    2.38793  0.0000E+00  0.4096E-13  0.8590E-16  0.1000E-09  0.0000E+00  0.2718E+16
   -0.749944    2.49758  0.0000E+00  0.4096E-13  0.8590E-16  0.1000E-09  0.0000E+00  0.2500E+16
   -0.787443    2.60633  0.0000E+00  0.4096E-13  0.8590E-16  0.1000E-09  0.0000E+00  0.2294E+16
   -0.824941    2.71445  0.0000E+00  0.4096E-13  0.8590E-16  0.1000E-09  0.0000E+00  0.2091E+16
   -0.862440    2.82190  0.0000E+00  0.4096E-13  0.8590E-16  0.1000E-09  0.0000E+00  0.1891E+16
   -0.899938    2.92867  0.0000E+00  0.1650E-12  0.9963E-16  0.1000E-09  0.0000E+00  0.1696E+16
   -0.937436    3.03471  0.0000E+00  0.4825E-12  0.2235E-15  0.1000E-09  0.0000E+00  0.1504E+16
   -0.974935    3.13999  0.0000E+00  0.1235E-11  0.5354E-15  0.1000E-09  0.0000E+00  0.1316E+16
   -1.012433    3.24446  0.0000E+00  0.3040E-11  0.1274E-14  0.1000E-09  0.0000E+00  0.1132E+16
   -1.049931    3.34805  0.0000E+00  0.7375E-11  0.3006E-14  0.1000E-09  0.0000E+00  0.9524E+15
   -1.087428    3.45068  0.0000E+00  0.1770E-10  0.7029E-14  0.1000E-09  0.0000E+00  0.7774E+15
   -1.124926    3.55226  0.0000E+00  0.4210E-10  0.1629E-13  0.1000E-09  0.0000E+00  0.6146E+15
   -1.162423    3.65402  0.0000E+00  0.9925E-10  0.3745E-13  0.2283E-09  0.0000E+00  0.4518E+15
   -1.199921    3.75612  0.0000E+00  0.2319E-09  0.8541E-13  0.8152E-09  0.0000E+00  0.2875E+15
   -1.237418    3.85829  0.0000E+00  0.5365E-09  0.1931E-12  0.4261E-08  0.0000E+00  0.1226E+15
   -1.274914    3.95872  0.0000E+00  0.1191E-08  0.4218E-12  0.1839E-06  0.0000E+00  0.3412E+13
   -1.312411    4.00437  0.0000E+00  0.2132E-08  0.8058E-12  0.2147E-05  0.0000E+00 -0.2237E+13
   -1.349907    4.01104  0.0000E+00  0.2677E-08  0.1161E-11  0.2266E-05  0.0000E+00 -0.2897E+13
   -1.387403    4.01764  0.0000E+00  0.2985E-08  0.1645E-11  0.1890E-05  0.0000E+00 -0.4564E+13
   -1.424899    4.02586  0.0000E+00  0.2961E-08  0.2521E-11  0.1114E-05  0.0000E+00 -0.1039E+14
   -1.462394    4.04009  0.0000E+00  0.2400E-08  0.4987E-11  0.2981E-06  0.0000E+00 -0.5311E+14
   -1.499889    4.08470  0.0000E+00  0.0000E+00  0.0000E+00  0.0000E+00  0.0000E+00  0.0000E+00
