 1 - depth, m
 2 - temperature, C
 3 - salinity, kg/kg
 4 - turbulent kinetic energy, m**2/s**2
 5 - dissipation rate, m**2/s**3
 6 - kinematic heat conductance, m**2/s
 7 - modulus of horizontal velocity, m/s
 8 - Richardson number, n/d
   -0.000000    0.00000  0.0000E+00  0.4096E-13  0.8590E-16  0.1000E-09  0.0000E+00  0.1087E+17
   -0.037500    0.16671  0.0000E+00  0.4096E-13  0.8590E-16  0.1000E-09  0.0000E+00  0.1022E+17
   -0.075000    0.33086  0.0000E+00  0.4096E-13  0.8590E-16  0.1000E-09  0.0000E+00  0.9518E+16
   -0.112500    0.49118  0.0000E+00  0.4096E-13  0.8590E-16  0.1000E-09  0.0000E+00  0.8787E+16
   -0.150001    0.64643  0.0000E+00  0.4096E-13  0.8590E-16  0.1000E-09  0.0000E+00  0.8038E+16
   -0.187502    0.79546  0.0000E+00  0.4096E-13  0.8590E-16  0.1000E-09  0.0000E+00  0.7291E+16
   -0.225003    0.93728  0.0000E+00  0.4096E-13  0.8590E-16  0.1000E-09  0.0000E+00  0.6562E+16
   -0.262505    1.07112  0.0000E+00  0.4096E-13  0.8590E-16  0.1000E-09  0.0000E+00  0.5854E+16
   -0.300007    1.19621  0.0000E+00  0.4096E-13  0.8590E-16  0.1000E-09  0.0000E+00  0.5189E+16
   -0.337509    1.31221  0.0000E+00  0.4096E-13  0.8590E-16  0.1000E-09  0.0000E+00  0.4577E+16
   -0.375011    1.41908  0.0000E+00  0.4096E-13  0.8590E-16  0.1000E-09  0.0000E+00  0.4120E+16
   -0.412513    1.51941  0.0000E+00  0.4096E-13  0.8590E-16  0.1000E-09  0.0000E+00  0.3771E+16
   -0.450016    1.61511  0.0000E+00  0.4096E-13  0.8590E-16  0.1000E-09  0.0000E+00  0.3468E+16
   -0.487519    1.70682  0.0000E+00  0.4096E-13  0.8590E-16  0.1000E-09  0.0000E+00  0.3211E+16
   -0.525021    1.79527  0.0000E+00  0.4096E-13  0.8590E-16  0.1000E-09  0.0000E+00  0.2996E+16
   -0.562524    1.88128  0.0000E+00  0.4096E-13  0.8590E-16  0.1000E-09  0.0000E+00  0.2815E+16
   -0.600028    1.96555  0.0000E+00  0.4096E-13  0.8590E-16  0.1000E-09  0.0000E+00  0.2662E+16
   -0.637531    2.04873  0.0000E+00  0.4096E-13  0.8590E-16  0.1000E-09  0.0000E+00  0.2530E+16
   -0.675034    2.13134  0.0000E+00  0.4096E-13  0.8590E-16  0.1000E-09  0.0000E+00  0.2412E+16
   -0.712537    2.21379  0.0000E+00  0.4096E-13  0.8590E-16  0.1000E-09  0.0000E+00  0.2300E+16
   -0.750040    2.29630  0.0000E+00  0.4096E-13  0.8590E-16  0.1000E-09  0.0000E+00  0.2248E+16
   -0.787544    2.38113  0.0000E+00  0.4096E-13  0.8590E-16  0.1000E-09  0.0000E+00  0.2203E+16
   -0.825047    2.46899  0.0000E+00  0.4096E-13  0.8590E-16  0.1000E-09  0.0000E+00  0.2140E+16
   -0.862550    2.55963  0.0000E+00  0.4096E-13  0.8590E-16  0.1000E-09  0.0000E+00  0.2054E+16
   -0.900053    2.65257  0.0000E+00  0.4096E-13  0.8590E-16  0.1000E-09  0.0000E+00  0.1944E+16
   -0.937556    2.74711  0.0000E+00  0.4096E-13  0.8590E-16  0.1000E-09  0.0000E+00  0.1812E+16
   -0.975059    2.84239  0.0000E+00  0.4096E-13  0.8590E-16  0.1000E-09  0.0000E+00  0.1660E+16
   -1.012562    2.93739  0.0000E+00  0.4096E-13  0.8590E-16  0.1000E-09  0.0000E+00  0.1515E+16
   -1.050065    3.03253  0.0000E+00  0.4096E-13  0.8590E-16  0.1000E-09  0.0000E+00  0.1363E+16
   -1.087568    3.12719  0.0000E+00  0.4096E-13  0.8590E-16  0.1000E-09  0.0000E+00  0.1202E+16
   -1.125070    3.22053  0.0000E+00  0.4096E-13  0.8590E-16  0.1000E-09  0.0000E+00  0.1031E+16
   -1.162572    3.31086  0.0000E+00  0.4096E-13  0.8590E-16  0.1000E-09  0.0000E+00  0.8653E+15
   -1.200074    3.39742  0.0000E+00  0.4096E-13  0.8590E-16  0.1000E-09  0.0000E+00  0.7134E+15
   -1.237576    3.47988  0.0000E+00  0.8488E-13  0.1377E-15  0.1000E-09  0.0000E+00  0.5819E+15
   -1.275078    3.55882  0.0000E+00  0.3926E-12  0.6156E-15  0.1000E-09  0.0000E+00  0.4847E+15
   -1.312579    3.63799  0.0000E+00  0.1894E-11  0.2972E-14  0.1000E-09  0.0000E+00  0.3957E+15
   -1.350080    3.71953  0.0000E+00  0.9170E-11  0.1456E-13  0.1238E-09  0.0000E+00  0.3071E+15
   -1.387581    3.80673  0.0000E+00  0.4470E-10  0.7281E-13  0.8029E-09  0.0000E+00  0.2015E+15
   -1.425081    3.90421  0.0000E+00  0.2187E-09  0.3775E-12  0.9853E-08  0.0000E+00  0.4852E+14
   -1.462581    4.01363  0.0000E+00  0.9750E-09  0.2115E-11  0.1562E-06  0.0000E+00 -0.7016E+14
   -1.500081    4.08527  0.0000E+00  0.0000E+00  0.0000E+00  0.0000E+00  0.0000E+00  0.0000E+00
