 1 - depth, m
 2 - temperature, C
 3 - salinity, kg/kg
 4 - turbulent kinetic energy, m**2/s**2
 5 - dissipation rate, m**2/s**3
 6 - kinematic heat conductance, m**2/s
 7 - modulus of horizontal velocity, m/s
 8 - Richardson number, n/d
   -0.000000    6.50341  0.0000E+00  0.1769E-03  0.1176E-03  0.7253E-04  0.1288E+00  0.2246E-01
   -0.037499    6.57088  0.0000E+00  0.1004E-03  0.3098E-04  0.1070E-03  0.4602E-01 -0.4324E-02
   -0.074998    6.58427  0.0000E+00  0.7329E-04  0.1295E-04  0.1246E-03  0.3317E-01 -0.1159E-01
   -0.112497    6.59284  0.0000E+00  0.5942E-04  0.7189E-05  0.1318E-03  0.2783E-01 -0.1354E-01
   -0.149997    6.59899  0.0000E+00  0.5001E-04  0.4256E-05  0.1417E-03  0.2415E-01 -0.1455E-01
   -0.187497    6.60397  0.0000E+00  0.4308E-04  0.2631E-05  0.1522E-03  0.2124E-01 -0.1759E-01
   -0.224997    6.60828  0.0000E+00  0.3772E-04  0.1687E-05  0.1625E-03  0.1878E-01 -0.2115E-01
   -0.262498    6.61209  0.0000E+00  0.3346E-04  0.1124E-05  0.1733E-03  0.1665E-01 -0.2645E-01
   -0.299999    6.61552  0.0000E+00  0.3001E-04  0.7786E-06  0.1840E-03  0.1484E-01 -0.3297E-01
   -0.337500    6.61864  0.0000E+00  0.2717E-04  0.5616E-06  0.1944E-03  0.1326E-01 -0.3778E-01
   -0.375001    6.62151  0.0000E+00  0.2478E-04  0.4205E-06  0.2064E-03  0.1188E-01  0.9724E+02
   -0.412502    6.62414  0.0000E+00  0.2273E-04  0.3252E-06  0.2244E-03  0.1066E-01  0.3007E+01
   -0.450004    6.62654  0.0000E+00  0.2094E-04  0.2583E-06  0.2408E-03  0.9585E-02  0.6094E+01
   -0.487506    6.62875  0.0000E+00  0.1935E-04  0.2094E-06  0.2570E-03  0.8620E-02  0.2751E+01
   -0.525008    6.63080  0.0000E+00  0.1792E-04  0.1723E-06  0.2737E-03  0.7752E-02  0.1910E+03
   -0.562510    6.63270  0.0000E+00  0.1662E-04  0.1436E-06  0.2892E-03  0.6981E-02  0.8346E+02
   -0.600012    6.63447  0.0000E+00  0.1545E-04  0.1209E-06  0.3045E-03  0.6292E-02  0.1363E+02
   -0.637514    6.63611  0.0000E+00  0.1438E-04  0.1027E-06  0.3178E-03  0.5674E-02  0.6247E+01
   -0.675016    6.63767  0.0000E+00  0.1342E-04  0.8790E-07  0.3337E-03  0.5117E-02  0.2277E+02
   -0.712518    6.63912  0.0000E+00  0.1253E-04  0.7573E-07  0.3471E-03  0.4614E-02  0.1738E+02
   -0.750021    6.64049  0.0000E+00  0.1173E-04  0.6565E-07  0.3623E-03  0.4158E-02  0.3469E+01
   -0.787523    6.64178  0.0000E+00  0.1099E-04  0.5724E-07  0.3734E-03  0.3744E-02  0.6891E+01
   -0.825025    6.64301  0.0000E+00  0.1032E-04  0.5018E-07  0.3859E-03  0.3367E-02  0.2058E+02
   -0.862527    6.64418  0.0000E+00  0.9695E-05  0.4422E-07  0.3991E-03  0.3023E-02  0.2884E+02
   -0.900030    6.64528  0.0000E+00  0.9121E-05  0.3917E-07  0.4176E-03  0.2709E-02  0.2275E+03
   -0.937532    6.64632  0.0000E+00  0.8589E-05  0.3487E-07  0.4393E-03  0.2419E-02  0.3089E+02
   -0.975034    6.64729  0.0000E+00  0.8093E-05  0.3120E-07  0.4579E-03  0.2153E-02  0.1287E+02
   -1.012536    6.64820  0.0000E+00  0.7626E-05  0.2804E-07  0.4884E-03  0.1904E-02  0.6487E+02
   -1.050037    6.64903  0.0000E+00  0.7183E-05  0.2531E-07  0.5151E-03  0.1678E-02  0.2959E+03
   -1.087539    6.64979  0.0000E+00  0.6761E-05  0.2296E-07  0.5384E-03  0.1472E-02  0.6934E+02
   -1.125040    6.65050  0.0000E+00  0.6358E-05  0.2095E-07  0.5462E-03  0.1285E-02  0.8317E+02
   -1.162542    6.65119  0.0000E+00  0.5972E-05  0.1927E-07  0.5363E-03  0.1115E-02  0.8267E+01
   -1.200043    6.65186  0.0000E+00  0.5606E-05  0.1790E-07  0.5175E-03  0.9592E-03  0.1045E+02
   -1.237543    6.65255  0.0000E+00  0.5260E-05  0.1687E-07  0.4898E-03  0.8185E-03  0.2211E+02
   -1.275044    6.65326  0.0000E+00  0.4932E-05  0.1619E-07  0.4552E-03  0.6924E-03  0.2669E+02
   -1.312544    6.65403  0.0000E+00  0.4622E-05  0.1591E-07  0.3957E-03  0.5867E-03  0.4376E+02
   -1.350044    6.65489  0.0000E+00  0.4316E-05  0.1614E-07  0.3151E-03  0.5001E-03  0.6278E+02
   -1.387544    6.65593  0.0000E+00  0.3971E-05  0.1723E-07  0.2371E-03  0.4263E-03  0.6087E+02
   -1.425043    6.65730  0.0000E+00  0.3487E-05  0.2077E-07  0.1274E-03  0.3586E-03  0.2295E+04
   -1.462543    6.65979  0.0000E+00  0.1947E-05  0.4778E-07  0.1098E-04  0.2928E-03 -0.1364E+05
   -1.500041    6.68684  0.0000E+00  0.0000E+00  0.0000E+00  0.0000E+00  0.2915E-03  0.0000E+00
