 1 - depth, m
 2 - temperature, C
 3 - salinity, kg/kg
 4 - turbulent kinetic energy, m**2/s**2
 5 - dissipation rate, m**2/s**3
 6 - kinematic heat conductance, m**2/s
 7 - modulus of horizontal velocity, m/s
 8 - Richardson number, n/d
   -0.000000    5.67237  0.0000E+00  0.1930E-03  0.1154E-03  0.6444E-04  0.1447E+00 -0.1814E-01
   -0.037503    5.74808  0.0000E+00  0.1110E-03  0.3147E-04  0.1207E-03  0.5075E-01 -0.6033E-02
   -0.075006    5.76029  0.0000E+00  0.8126E-04  0.1308E-04  0.1334E-03  0.3660E-01 -0.9069E-02
   -0.112509    5.76864  0.0000E+00  0.6549E-04  0.6984E-05  0.1385E-03  0.3067E-01 -0.5605E-02
   -0.150013    5.77451  0.0000E+00  0.5484E-04  0.4044E-05  0.1466E-03  0.2661E-01 -0.6935E-02
   -0.187517    5.77923  0.0000E+00  0.4707E-04  0.2488E-05  0.1560E-03  0.2338E-01 -0.7299E-02
   -0.225021    5.78330  0.0000E+00  0.4114E-04  0.1610E-05  0.1654E-03  0.2068E-01 -0.8274E-02
   -0.262526    5.78693  0.0000E+00  0.3642E-04  0.1089E-05  0.1756E-03  0.1833E-01 -0.1164E-01
   -0.300031    5.79023  0.0000E+00  0.3262E-04  0.7699E-06  0.1856E-03  0.1633E-01 -0.1390E-01
   -0.337536    5.79325  0.0000E+00  0.2949E-04  0.5669E-06  0.1949E-03  0.1461E-01 -0.1487E-01
   -0.375041    5.79605  0.0000E+00  0.2686E-04  0.4324E-06  0.2036E-03  0.1310E-01 -0.1795E-01
   -0.412547    5.79865  0.0000E+00  0.2460E-04  0.3393E-06  0.2116E-03  0.1176E-01 -0.2147E-01
   -0.450052    5.80110  0.0000E+00  0.2261E-04  0.2722E-06  0.2187E-03  0.1057E-01 -0.2548E-01
   -0.487558    5.80342  0.0000E+00  0.2084E-04  0.2220E-06  0.2252E-03  0.9506E-02 -0.3021E-01
   -0.525064    5.80562  0.0000E+00  0.1923E-04  0.1832E-06  0.2321E-03  0.8543E-02 -0.3712E-01
   -0.562570    5.80771  0.0000E+00  0.1777E-04  0.1527E-06  0.2384E-03  0.7685E-02 -0.4530E-01
   -0.600076    5.80971  0.0000E+00  0.1645E-04  0.1283E-06  0.2440E-03  0.6916E-02 -0.5502E-01
   -0.637582    5.81162  0.0000E+00  0.1524E-04  0.1086E-06  0.2492E-03  0.6225E-02 -0.6621E-01
   -0.675089    5.81346  0.0000E+00  0.1414E-04  0.9250E-07  0.2540E-03  0.5602E-02 -0.7228E-01
   -0.712595    5.81523  0.0000E+00  0.1313E-04  0.7923E-07  0.2586E-03  0.5039E-02  0.1625E+02
   -0.750101    5.81693  0.0000E+00  0.1221E-04  0.6822E-07  0.2638E-03  0.4528E-02 -0.3631E-01
   -0.787608    5.81857  0.0000E+00  0.1137E-04  0.5904E-07  0.2689E-03  0.4065E-02  0.3086E+00
   -0.825114    5.82015  0.0000E+00  0.1060E-04  0.5134E-07  0.2741E-03  0.3644E-02  0.5647E+00
   -0.862620    5.82167  0.0000E+00  0.9896E-05  0.4486E-07  0.2803E-03  0.3261E-02  0.1095E+02
   -0.900126    5.82313  0.0000E+00  0.9249E-05  0.3940E-07  0.2885E-03  0.2911E-02  0.2536E+02
   -0.937632    5.82453  0.0000E+00  0.8654E-05  0.3476E-07  0.3035E-03  0.2591E-02  0.3574E+03
   -0.975138    5.82584  0.0000E+00  0.8106E-05  0.3082E-07  0.3275E-03  0.2297E-02  0.1737E+03
   -1.012644    5.82705  0.0000E+00  0.7597E-05  0.2746E-07  0.3626E-03  0.2026E-02  0.4430E+02
   -1.050150    5.82816  0.0000E+00  0.7121E-05  0.2458E-07  0.3897E-03  0.1781E-02  0.7741E+02
   -1.087656    5.82918  0.0000E+00  0.6675E-05  0.2212E-07  0.4154E-03  0.1560E-02  0.1470E+03
   -1.125161    5.83012  0.0000E+00  0.6256E-05  0.2003E-07  0.4352E-03  0.1360E-02  0.1094E+03
   -1.162667    5.83099  0.0000E+00  0.5862E-05  0.1828E-07  0.4478E-03  0.1179E-02  0.8698E+02
   -1.200172    5.83181  0.0000E+00  0.5491E-05  0.1685E-07  0.4440E-03  0.1014E-02  0.1336E+03
   -1.237676    5.83261  0.0000E+00  0.5144E-05  0.1575E-07  0.4267E-03  0.8642E-03  0.8498E+03
   -1.275181    5.83341  0.0000E+00  0.4816E-05  0.1497E-07  0.3919E-03  0.7295E-03  0.1210E+03
   -1.312685    5.83428  0.0000E+00  0.4503E-05  0.1456E-07  0.3405E-03  0.6156E-03  0.2088E+03
   -1.350189    5.83525  0.0000E+00  0.4185E-05  0.1459E-07  0.2755E-03  0.5205E-03  0.2819E+03
   -1.387693    5.83643  0.0000E+00  0.3814E-05  0.1544E-07  0.1847E-03  0.4361E-03  0.1471E+04
   -1.425197    5.83813  0.0000E+00  0.3301E-05  0.1853E-07  0.9002E-04  0.3561E-03  0.7505E+03
   -1.462700    5.84141  0.0000E+00  0.1805E-05  0.4171E-07  0.1029E-04  0.2826E-03 -0.1844E+05
   -1.500203    5.86970  0.0000E+00  0.0000E+00  0.0000E+00  0.0000E+00  0.2818E-03  0.0000E+00
