 1 - depth, m
 2 - temperature, C
 3 - salinity, kg/kg
 4 - turbulent kinetic energy, m**2/s**2
 5 - dissipation rate, m**2/s**3
 6 - kinematic heat conductance, m**2/s
 7 - modulus of horizontal velocity, m/s
 8 - Richardson number, n/d
   -0.000000   12.81153  0.0000E+00  0.2678E-03  0.2366E-03  0.8280E-04  0.1723E+00 -0.7929E-02
   -0.037498   12.82741  0.0000E+00  0.1473E-03  0.6082E-04  0.1376E-03  0.5757E-01 -0.1019E-01
   -0.074996   12.83040  0.0000E+00  0.1054E-03  0.2490E-04  0.1624E-03  0.4056E-01 -0.6170E-02
   -0.112495   12.83213  0.0000E+00  0.8446E-04  0.1375E-04  0.1653E-03  0.3401E-01 -0.4992E-02
   -0.149994   12.83323  0.0000E+00  0.7048E-04  0.8030E-05  0.1714E-03  0.2968E-01 -0.4335E-02
   -0.187493   12.83407  0.0000E+00  0.6013E-04  0.4889E-05  0.1797E-03  0.2621E-01 -0.5083E-02
   -0.224992   12.83480  0.0000E+00  0.5230E-04  0.3092E-05  0.1882E-03  0.2327E-01 -0.1146E-01
   -0.262492   12.83545  0.0000E+00  0.4612E-04  0.2018E-05  0.1978E-03  0.2071E-01 -0.6715E-02
   -0.299992   12.83605  0.0000E+00  0.4117E-04  0.1363E-05  0.2075E-03  0.1853E-01 -0.8121E-02
   -0.337492   12.83660  0.0000E+00  0.3715E-04  0.9583E-06  0.2167E-03  0.1665E-01 -0.1010E-01
   -0.374993   12.83712  0.0000E+00  0.3379E-04  0.7020E-06  0.2259E-03  0.1498E-01 -0.1259E-01
   -0.412493   12.83762  0.0000E+00  0.3096E-04  0.5345E-06  0.2345E-03  0.1351E-01 -0.1578E-01
   -0.449994   12.83810  0.0000E+00  0.2851E-04  0.4202E-06  0.2424E-03  0.1220E-01 -0.1959E-01
   -0.487495   12.83857  0.0000E+00  0.2635E-04  0.3387E-06  0.2499E-03  0.1103E-01 -0.2435E-01
   -0.524996   12.83904  0.0000E+00  0.2440E-04  0.2779E-06  0.2582E-03  0.9963E-02 -0.3139E-01
   -0.562497   12.83949  0.0000E+00  0.2265E-04  0.2313E-06  0.2660E-03  0.9017E-02 -0.4023E-01
   -0.599998   12.83993  0.0000E+00  0.2106E-04  0.1947E-06  0.2737E-03  0.8169E-02 -0.4507E-01
   -0.637500   12.84037  0.0000E+00  0.1962E-04  0.1653E-06  0.2824E-03  0.7407E-02  0.1277E+00
   -0.675001   12.84080  0.0000E+00  0.1831E-04  0.1415E-06  0.2922E-03  0.6719E-02  0.2244E+00
   -0.712502   12.84123  0.0000E+00  0.1712E-04  0.1219E-06  0.3018E-03  0.6097E-02  0.1498E+00
   -0.750004   12.84166  0.0000E+00  0.1603E-04  0.1057E-06  0.3145E-03  0.5532E-02  0.2584E+01
   -0.787505   12.84208  0.0000E+00  0.1504E-04  0.9224E-07  0.3377E-03  0.5019E-02  0.5591E+02
   -0.825007   12.84249  0.0000E+00  0.1413E-04  0.8092E-07  0.3721E-03  0.4552E-02  0.1730E+02
   -0.862508   12.84289  0.0000E+00  0.1330E-04  0.7138E-07  0.4125E-03  0.4124E-02  0.3011E+03
   -0.900009   12.84326  0.0000E+00  0.1254E-04  0.6332E-07  0.4587E-03  0.3730E-02  0.7968E+02
   -0.937511   12.84361  0.0000E+00  0.1183E-04  0.5646E-07  0.5119E-03  0.3365E-02  0.8139E+02
   -0.975012   12.84394  0.0000E+00  0.1117E-04  0.5058E-07  0.5526E-03  0.3023E-02  0.1380E+03
   -1.012513   12.84425  0.0000E+00  0.1054E-04  0.4550E-07  0.5895E-03  0.2699E-02  0.4778E+02
   -1.050014   12.84454  0.0000E+00  0.9927E-05  0.4108E-07  0.6072E-03  0.2398E-02  0.6579E+02
   -1.087515   12.84484  0.0000E+00  0.9336E-05  0.3725E-07  0.6166E-03  0.2117E-02  0.2666E+02
   -1.125015   12.84513  0.0000E+00  0.8759E-05  0.3396E-07  0.6124E-03  0.1856E-02  0.1344E+02
   -1.162516   12.84543  0.0000E+00  0.8195E-05  0.3121E-07  0.5974E-03  0.1614E-02  0.2220E+02
   -1.200016   12.84574  0.0000E+00  0.7644E-05  0.2900E-07  0.5713E-03  0.1390E-02  0.1551E+01
   -1.237516   12.84609  0.0000E+00  0.7107E-05  0.2736E-07  0.5340E-03  0.1182E-02  0.9898E+00
   -1.275016   12.84646  0.0000E+00  0.6585E-05  0.2636E-07  0.4936E-03  0.9933E-03  0.8628E+00
   -1.312515   12.84689  0.0000E+00  0.6090E-05  0.2617E-07  0.4431E-03  0.8333E-03  0.8427E+00
   -1.350014   12.84738  0.0000E+00  0.5634E-05  0.2700E-07  0.3739E-03  0.7038E-03  0.3186E+01
   -1.387513   12.84800  0.0000E+00  0.5183E-05  0.2934E-07  0.3062E-03  0.6042E-03  0.1213E+04
   -1.425012   12.84879  0.0000E+00  0.4564E-05  0.3635E-07  0.1726E-03  0.5254E-03  0.7573E+02
   -1.462510   12.85038  0.0000E+00  0.2608E-05  0.8507E-07  0.1575E-04  0.4421E-03 -0.1719E+05
   -1.500008   12.86654  0.0000E+00  0.0000E+00  0.0000E+00  0.0000E+00  0.4468E-03  0.0000E+00
