 1 - depth, m
 2 - temperature, C
 3 - salinity, kg/kg
 4 - turbulent kinetic energy, m**2/s**2
 5 - dissipation rate, m**2/s**3
 6 - kinematic heat conductance, m**2/s
 7 - modulus of horizontal velocity, m/s
 8 - Richardson number, n/d
   -0.000000    0.00000  0.0000E+00  0.4096E-13  0.8590E-16  0.1000E-09  0.0000E+00  0.9205E+16
   -0.037499    0.14073  0.0000E+00  0.4096E-13  0.8590E-16  0.1000E-09  0.0000E+00  0.8778E+16
   -0.074998    0.28026  0.0000E+00  0.4096E-13  0.8590E-16  0.1000E-09  0.0000E+00  0.8355E+16
   -0.112498    0.41846  0.0000E+00  0.4096E-13  0.8590E-16  0.1000E-09  0.0000E+00  0.7936E+16
   -0.149998    0.55521  0.0000E+00  0.4096E-13  0.8590E-16  0.1000E-09  0.0000E+00  0.7523E+16
   -0.187498    0.69038  0.0000E+00  0.4096E-13  0.8590E-16  0.1000E-09  0.0000E+00  0.7116E+16
   -0.224999    0.82386  0.0000E+00  0.4096E-13  0.8590E-16  0.1000E-09  0.0000E+00  0.6716E+16
   -0.262500    0.95553  0.0000E+00  0.4096E-13  0.8590E-16  0.1000E-09  0.0000E+00  0.6316E+16
   -0.300001    1.08508  0.0000E+00  0.4096E-13  0.8590E-16  0.1000E-09  0.0000E+00  0.5923E+16
   -0.337502    1.21235  0.0000E+00  0.4096E-13  0.8590E-16  0.1000E-09  0.0000E+00  0.5542E+16
   -0.375004    1.33722  0.0000E+00  0.4096E-13  0.8590E-16  0.1000E-09  0.0000E+00  0.5202E+16
   -0.412506    1.46029  0.0000E+00  0.4096E-13  0.8590E-16  0.1000E-09  0.0000E+00  0.4888E+16
   -0.450007    1.58194  0.0000E+00  0.4096E-13  0.8590E-16  0.1000E-09  0.0000E+00  0.4582E+16
   -0.487510    1.70210  0.0000E+00  0.4096E-13  0.8590E-16  0.1000E-09  0.0000E+00  0.4284E+16
   -0.525012    1.82069  0.0000E+00  0.4096E-13  0.8590E-16  0.1000E-09  0.0000E+00  0.3989E+16
   -0.562514    1.93751  0.0000E+00  0.4096E-13  0.8590E-16  0.1000E-09  0.0000E+00  0.3703E+16
   -0.600016    2.05248  0.0000E+00  0.4096E-13  0.8590E-16  0.1000E-09  0.0000E+00  0.3427E+16
   -0.637519    2.16555  0.0000E+00  0.4096E-13  0.8590E-16  0.1000E-09  0.0000E+00  0.3160E+16
   -0.675021    2.27665  0.0000E+00  0.4096E-13  0.8590E-16  0.1000E-09  0.0000E+00  0.2904E+16
   -0.712524    2.38573  0.0000E+00  0.4096E-13  0.8590E-16  0.1000E-09  0.0000E+00  0.2658E+16
   -0.750026    2.49273  0.0000E+00  0.4096E-13  0.8590E-16  0.1000E-09  0.0000E+00  0.2451E+16
   -0.787529    2.59887  0.0000E+00  0.4096E-13  0.8590E-16  0.1000E-09  0.0000E+00  0.2258E+16
   -0.825032    2.70460  0.0000E+00  0.4096E-13  0.8590E-16  0.1000E-09  0.0000E+00  0.2069E+16
   -0.862534    2.80997  0.0000E+00  0.4100E-13  0.8590E-16  0.1000E-09  0.0000E+00  0.1883E+16
   -0.900037    2.91502  0.0000E+00  0.1927E-12  0.1111E-15  0.1000E-09  0.0000E+00  0.1699E+16
   -0.937539    3.01977  0.0000E+00  0.5610E-12  0.2540E-15  0.1000E-09  0.0000E+00  0.1519E+16
   -0.975041    3.12426  0.0000E+00  0.1426E-11  0.6067E-15  0.1000E-09  0.0000E+00  0.1340E+16
   -1.012543    3.22854  0.0000E+00  0.3488E-11  0.1436E-14  0.1000E-09  0.0000E+00  0.1162E+16
   -1.050045    3.33250  0.0000E+00  0.8410E-11  0.3367E-14  0.1000E-09  0.0000E+00  0.9866E+15
   -1.087547    3.43613  0.0000E+00  0.2007E-10  0.7824E-14  0.1000E-09  0.0000E+00  0.8131E+15
   -1.125049    3.53944  0.0000E+00  0.4743E-10  0.1802E-13  0.1000E-09  0.0000E+00  0.6509E+15
   -1.162551    3.64410  0.0000E+00  0.1111E-09  0.4117E-13  0.2346E-09  0.0000E+00  0.4838E+15
   -1.200052    3.75048  0.0000E+00  0.2581E-09  0.9328E-13  0.8307E-09  0.0000E+00  0.3085E+15
   -1.237553    3.85845  0.0000E+00  0.5933E-09  0.2094E-12  0.4539E-08  0.0000E+00  0.1250E+15
   -1.275054    3.96607  0.0000E+00  0.1289E-08  0.4486E-12  0.3065E-06  0.0000E+00  0.1233E+13
   -1.312555    4.00220  0.0000E+00  0.2217E-08  0.8494E-12  0.2122E-05  0.0000E+00 -0.2261E+13
   -1.350055    4.00957  0.0000E+00  0.2802E-08  0.1249E-11  0.2267E-05  0.0000E+00 -0.3039E+13
   -1.387555    4.01679  0.0000E+00  0.3157E-08  0.1806E-11  0.1909E-05  0.0000E+00 -0.4897E+13
   -1.425055    4.02574  0.0000E+00  0.3179E-08  0.2823E-11  0.1145E-05  0.0000E+00 -0.1129E+14
   -1.462554    4.04106  0.0000E+00  0.2642E-08  0.5688E-11  0.3214E-06  0.0000E+00 -0.5773E+14
   -1.500053    4.08817  0.0000E+00  0.0000E+00  0.0000E+00  0.0000E+00  0.0000E+00  0.0000E+00
