 1 - depth, m
 2 - temperature, C
 3 - salinity, kg/kg
 4 - turbulent kinetic energy, m**2/s**2
 5 - dissipation rate, m**2/s**3
 6 - kinematic heat conductance, m**2/s
 7 - modulus of horizontal velocity, m/s
 8 - Richardson number, n/d
   -0.000000    4.99081  0.0000E+00  0.1525E-03  0.1491E-03  0.6408E-04  0.1185E+00  0.5525E-02
   -0.037493    5.07860  0.0000E+00  0.8764E-04  0.6515E-04  0.1041E-03  0.4238E-01 -0.8331E-02
   -0.074987    5.09131  0.0000E+00  0.6507E-04  0.3787E-04  0.1137E-03  0.3151E-01 -0.5286E-02
   -0.112482    5.10008  0.0000E+00  0.5250E-04  0.2228E-04  0.1192E-03  0.2672E-01 -0.4951E-02
   -0.149976    5.10708  0.0000E+00  0.4366E-04  0.1256E-04  0.1266E-03  0.2322E-01 -0.7431E-02
   -0.187471    5.11313  0.0000E+00  0.3718E-04  0.6749E-05  0.1350E-03  0.2037E-01 -0.7290E-02
   -0.224966    5.11851  0.0000E+00  0.3222E-04  0.3480E-05  0.1432E-03  0.1795E-01 -0.8435E-02
   -0.262461    5.12335  0.0000E+00  0.2829E-04  0.1770E-05  0.1518E-03  0.1584E-01 -0.1031E-01
   -0.299957    5.12777  0.0000E+00  0.2511E-04  0.9307E-06  0.1598E-03  0.1403E-01 -0.1257E-01
   -0.337453    5.13185  0.0000E+00  0.2251E-04  0.5332E-06  0.1670E-03  0.1246E-01 -0.1523E-01
   -0.374949    5.13565  0.0000E+00  0.2033E-04  0.3415E-06  0.1736E-03  0.1108E-01 -0.1839E-01
   -0.412445    5.13922  0.0000E+00  0.1846E-04  0.2415E-06  0.1795E-03  0.9864E-02 -0.2212E-01
   -0.449941    5.14260  0.0000E+00  0.1684E-04  0.1829E-06  0.1847E-03  0.8783E-02 -0.2656E-01
   -0.487438    5.14581  0.0000E+00  0.1539E-04  0.1443E-06  0.1893E-03  0.7816E-02 -0.3202E-01
   -0.524935    5.14888  0.0000E+00  0.1408E-04  0.1165E-06  0.1944E-03  0.6949E-02 -0.4016E-01
   -0.562431    5.15181  0.0000E+00  0.1290E-04  0.9552E-07  0.1989E-03  0.6182E-02 -0.5007E-01
   -0.599928    5.15461  0.0000E+00  0.1184E-04  0.7918E-07  0.2029E-03  0.5502E-02 -0.6204E-01
   -0.637425    5.15732  0.0000E+00  0.1088E-04  0.6619E-07  0.2068E-03  0.4895E-02 -0.6708E-01
   -0.674922    5.15992  0.0000E+00  0.1001E-04  0.5573E-07  0.2112E-03  0.4354E-02 -0.7307E-02
   -0.712419    5.16243  0.0000E+00  0.9228E-05  0.4722E-07  0.2150E-03  0.3869E-02  0.3851E-01
   -0.749916    5.16485  0.0000E+00  0.8518E-05  0.4024E-07  0.2188E-03  0.3434E-02  0.9037E+00
   -0.787413    5.16719  0.0000E+00  0.7877E-05  0.3449E-07  0.2235E-03  0.3044E-02  0.1613E+01
   -0.824910    5.16944  0.0000E+00  0.7297E-05  0.2973E-07  0.2315E-03  0.2693E-02  0.1369E+01
   -0.862407    5.17160  0.0000E+00  0.6772E-05  0.2577E-07  0.2468E-03  0.2378E-02  0.2824E+02
   -0.899904    5.17363  0.0000E+00  0.6296E-05  0.2246E-07  0.2720E-03  0.2095E-02  0.8772E+02
   -0.937401    5.17551  0.0000E+00  0.5865E-05  0.1969E-07  0.3064E-03  0.1838E-02  0.7335E+03
   -0.974898    5.17721  0.0000E+00  0.5470E-05  0.1736E-07  0.3415E-03  0.1606E-02  0.2994E+02
   -1.012395    5.17876  0.0000E+00  0.5106E-05  0.1539E-07  0.3642E-03  0.1393E-02  0.1272E+03
   -1.049891    5.18018  0.0000E+00  0.4769E-05  0.1371E-07  0.3819E-03  0.1202E-02  0.4899E+02
   -1.087387    5.18148  0.0000E+00  0.4456E-05  0.1230E-07  0.3987E-03  0.1033E-02  0.1064E+03
   -1.124884    5.18270  0.0000E+00  0.4167E-05  0.1112E-07  0.4118E-03  0.8831E-03  0.7574E+02
   -1.162380    5.18382  0.0000E+00  0.3899E-05  0.1015E-07  0.4184E-03  0.7503E-03  0.3079E+03
   -1.199876    5.18489  0.0000E+00  0.3654E-05  0.9394E-08  0.4115E-03  0.6329E-03  0.4652E+02
   -1.237371    5.18593  0.0000E+00  0.3430E-05  0.8834E-08  0.3892E-03  0.5294E-03  0.2713E+03
   -1.274867    5.18700  0.0000E+00  0.3227E-05  0.8472E-08  0.3562E-03  0.4394E-03  0.9952E+02
   -1.312362    5.18814  0.0000E+00  0.3042E-05  0.8312E-08  0.3179E-03  0.3667E-03  0.1060E+04
   -1.349856    5.18940  0.0000E+00  0.2858E-05  0.8382E-08  0.2759E-03  0.3088E-03  0.2187E+02
   -1.387351    5.19087  0.0000E+00  0.2639E-05  0.8878E-08  0.1990E-03  0.2591E-03  0.1760E+03
   -1.424845    5.19290  0.0000E+00  0.2310E-05  0.1069E-07  0.8198E-04  0.2096E-03  0.5534E+04
   -1.462339    5.19728  0.0000E+00  0.1278E-05  0.2455E-07  0.8839E-05  0.1607E-03 -0.4536E+05
   -1.499832    5.23602  0.0000E+00  0.0000E+00  0.0000E+00  0.0000E+00  0.1604E-03  0.0000E+00
