 1 - depth, m
 2 - temperature, C
 3 - salinity, kg/kg
 4 - turbulent kinetic energy, m**2/s**2
 5 - dissipation rate, m**2/s**3
 6 - kinematic heat conductance, m**2/s
 7 - modulus of horizontal velocity, m/s
 8 - Richardson number, n/d
   -0.000000    0.00000  0.0000E+00  0.4096E-13  0.8590E-16  0.1000E-09  0.0000E+00  0.9867E+16
   -0.037500    0.15107  0.0000E+00  0.4096E-13  0.8590E-16  0.1000E-09  0.0000E+00  0.9317E+16
   -0.075000    0.29979  0.0000E+00  0.4096E-13  0.8590E-16  0.1000E-09  0.0000E+00  0.8752E+16
   -0.112500    0.44554  0.0000E+00  0.4096E-13  0.8590E-16  0.1000E-09  0.0000E+00  0.8177E+16
   -0.150001    0.58772  0.0000E+00  0.4096E-13  0.8590E-16  0.1000E-09  0.0000E+00  0.7599E+16
   -0.187502    0.72573  0.0000E+00  0.4096E-13  0.8590E-16  0.1000E-09  0.0000E+00  0.7026E+16
   -0.225003    0.85907  0.0000E+00  0.4096E-13  0.8590E-16  0.1000E-09  0.0000E+00  0.6464E+16
   -0.262505    0.98726  0.0000E+00  0.4096E-13  0.8590E-16  0.1000E-09  0.0000E+00  0.5910E+16
   -0.300007    1.10970  0.0000E+00  0.4096E-13  0.8590E-16  0.1000E-09  0.0000E+00  0.5376E+16
   -0.337509    1.22604  0.0000E+00  0.4096E-13  0.8590E-16  0.1000E-09  0.0000E+00  0.4871E+16
   -0.375011    1.33607  0.0000E+00  0.4096E-13  0.8590E-16  0.1000E-09  0.0000E+00  0.4479E+16
   -0.412513    1.44163  0.0000E+00  0.4096E-13  0.8590E-16  0.1000E-09  0.0000E+00  0.4161E+16
   -0.450016    1.54396  0.0000E+00  0.4096E-13  0.8590E-16  0.1000E-09  0.0000E+00  0.3865E+16
   -0.487519    1.64318  0.0000E+00  0.4096E-13  0.8590E-16  0.1000E-09  0.0000E+00  0.3592E+16
   -0.525021    1.73948  0.0000E+00  0.4096E-13  0.8590E-16  0.1000E-09  0.0000E+00  0.3342E+16
   -0.562524    1.83308  0.0000E+00  0.4096E-13  0.8590E-16  0.1000E-09  0.0000E+00  0.3111E+16
   -0.600028    1.92417  0.0000E+00  0.4096E-13  0.8590E-16  0.1000E-09  0.0000E+00  0.2897E+16
   -0.637531    2.01292  0.0000E+00  0.4096E-13  0.8590E-16  0.1000E-09  0.0000E+00  0.2698E+16
   -0.675034    2.09945  0.0000E+00  0.4096E-13  0.8590E-16  0.1000E-09  0.0000E+00  0.2511E+16
   -0.712537    2.18383  0.0000E+00  0.4096E-13  0.8590E-16  0.1000E-09  0.0000E+00  0.2334E+16
   -0.750040    2.26607  0.0000E+00  0.4096E-13  0.8590E-16  0.1000E-09  0.0000E+00  0.2216E+16
   -0.787544    2.34809  0.0000E+00  0.4096E-13  0.8590E-16  0.1000E-09  0.0000E+00  0.2115E+16
   -0.825047    2.43052  0.0000E+00  0.4096E-13  0.8590E-16  0.1000E-09  0.0000E+00  0.2011E+16
   -0.862550    2.51329  0.0000E+00  0.4096E-13  0.8590E-16  0.1000E-09  0.0000E+00  0.1903E+16
   -0.900053    2.59624  0.0000E+00  0.4096E-13  0.8590E-16  0.1000E-09  0.0000E+00  0.1790E+16
   -0.937556    2.67916  0.0000E+00  0.4096E-13  0.8590E-16  0.1000E-09  0.0000E+00  0.1672E+16
   -0.975059    2.76179  0.0000E+00  0.4096E-13  0.8590E-16  0.1000E-09  0.0000E+00  0.1550E+16
   -1.012562    2.84383  0.0000E+00  0.4096E-13  0.8590E-16  0.1000E-09  0.0000E+00  0.1443E+16
   -1.050065    2.92602  0.0000E+00  0.4096E-13  0.8590E-16  0.1000E-09  0.0000E+00  0.1336E+16
   -1.087568    3.00840  0.0000E+00  0.4096E-13  0.8590E-16  0.1000E-09  0.0000E+00  0.1228E+16
   -1.125070    3.09087  0.0000E+00  0.4096E-13  0.8590E-16  0.1000E-09  0.0000E+00  0.1112E+16
   -1.162572    3.17284  0.0000E+00  0.4096E-13  0.8590E-16  0.1000E-09  0.0000E+00  0.9973E+15
   -1.200074    3.25422  0.0000E+00  0.4096E-13  0.8590E-16  0.1000E-09  0.0000E+00  0.8867E+15
   -1.237576    3.33518  0.0000E+00  0.4096E-13  0.8590E-16  0.1000E-09  0.0000E+00  0.7846E+15
   -1.275078    3.41643  0.0000E+00  0.5125E-13  0.9315E-16  0.1000E-09  0.0000E+00  0.7058E+15
   -1.312579    3.50112  0.0000E+00  0.1632E-12  0.2278E-15  0.1000E-09  0.0000E+00  0.6242E+15
   -1.350080    3.59100  0.0000E+00  0.6806E-12  0.8777E-15  0.1000E-09  0.0000E+00  0.5326E+15
   -1.387581    3.68857  0.0000E+00  0.2933E-11  0.3717E-14  0.1000E-09  0.0000E+00  0.4170E+15
   -1.425081    3.79759  0.0000E+00  0.1275E-10  0.1616E-13  0.2128E-09  0.0000E+00  0.2491E+15
   -1.462581    3.92399  0.0000E+00  0.5545E-10  0.7202E-13  0.1682E-07  0.0000E+00 -0.1512E+14
   -1.500081    4.06366  0.0000E+00  0.0000E+00  0.0000E+00  0.0000E+00  0.0000E+00  0.0000E+00
