 1 - depth, m
 2 - temperature, C
 3 - salinity, kg/kg
 4 - turbulent kinetic energy, m**2/s**2
 5 - dissipation rate, m**2/s**3
 6 - kinematic heat conductance, m**2/s
 7 - modulus of horizontal velocity, m/s
 8 - Richardson number, n/d
   -0.000000    0.00000  0.0000E+00  0.4096E-13  0.8590E-16  0.1000E-09  0.0000E+00  0.9181E+16
   -0.037498    0.14036  0.0000E+00  0.4096E-13  0.8590E-16  0.1000E-09  0.0000E+00  0.8735E+16
   -0.074997    0.27918  0.0000E+00  0.4096E-13  0.8590E-16  0.1000E-09  0.0000E+00  0.8300E+16
   -0.112496    0.41640  0.0000E+00  0.4096E-13  0.8590E-16  0.1000E-09  0.0000E+00  0.7876E+16
   -0.149996    0.55200  0.0000E+00  0.4096E-13  0.8590E-16  0.1000E-09  0.0000E+00  0.7463E+16
   -0.187495    0.68593  0.0000E+00  0.4096E-13  0.8590E-16  0.1000E-09  0.0000E+00  0.7061E+16
   -0.224995    0.81817  0.0000E+00  0.4096E-13  0.8590E-16  0.1000E-09  0.0000E+00  0.6671E+16
   -0.262496    0.94867  0.0000E+00  0.4096E-13  0.8590E-16  0.1000E-09  0.0000E+00  0.6282E+16
   -0.299996    1.07719  0.0000E+00  0.4096E-13  0.8590E-16  0.1000E-09  0.0000E+00  0.5903E+16
   -0.337497    1.20364  0.0000E+00  0.4096E-13  0.8590E-16  0.1000E-09  0.0000E+00  0.5535E+16
   -0.374998    1.32792  0.0000E+00  0.4096E-13  0.8590E-16  0.1000E-09  0.0000E+00  0.5206E+16
   -0.412499    1.45062  0.0000E+00  0.4096E-13  0.8590E-16  0.1000E-09  0.0000E+00  0.4901E+16
   -0.450000    1.57208  0.0000E+00  0.4096E-13  0.8590E-16  0.1000E-09  0.0000E+00  0.4603E+16
   -0.487501    1.69226  0.0000E+00  0.4096E-13  0.8590E-16  0.1000E-09  0.0000E+00  0.4311E+16
   -0.525003    1.81108  0.0000E+00  0.4096E-13  0.8590E-16  0.1000E-09  0.0000E+00  0.4022E+16
   -0.562505    1.92832  0.0000E+00  0.4096E-13  0.8590E-16  0.1000E-09  0.0000E+00  0.3741E+16
   -0.600006    2.04394  0.0000E+00  0.4096E-13  0.8590E-16  0.1000E-09  0.0000E+00  0.3468E+16
   -0.637508    2.15786  0.0000E+00  0.4096E-13  0.8590E-16  0.1000E-09  0.0000E+00  0.3204E+16
   -0.675010    2.27001  0.0000E+00  0.4096E-13  0.8590E-16  0.1000E-09  0.0000E+00  0.2948E+16
   -0.712512    2.38034  0.0000E+00  0.4096E-13  0.8590E-16  0.1000E-09  0.0000E+00  0.2702E+16
   -0.750014    2.48876  0.0000E+00  0.4096E-13  0.8590E-16  0.1000E-09  0.0000E+00  0.2492E+16
   -0.787516    2.59643  0.0000E+00  0.4096E-13  0.8590E-16  0.1000E-09  0.0000E+00  0.2295E+16
   -0.825018    2.70374  0.0000E+00  0.4096E-13  0.8590E-16  0.1000E-09  0.0000E+00  0.2100E+16
   -0.862520    2.81072  0.0000E+00  0.8206E-13  0.8590E-16  0.1000E-09  0.0000E+00  0.1909E+16
   -0.900022    2.91737  0.0000E+00  0.2881E-12  0.1398E-15  0.1000E-09  0.0000E+00  0.1720E+16
   -0.937523    3.02372  0.0000E+00  0.7670E-12  0.3170E-15  0.1000E-09  0.0000E+00  0.1533E+16
   -0.975025    3.12977  0.0000E+00  0.1866E-11  0.7334E-15  0.1000E-09  0.0000E+00  0.1349E+16
   -1.012527    3.23553  0.0000E+00  0.4412E-11  0.1682E-14  0.1000E-09  0.0000E+00  0.1165E+16
   -1.050028    3.34092  0.0000E+00  0.1031E-10  0.3829E-14  0.1000E-09  0.0000E+00  0.9843E+15
   -1.087529    3.44591  0.0000E+00  0.2389E-10  0.8643E-14  0.1000E-09  0.0000E+00  0.8056E+15
   -1.125030    3.55045  0.0000E+00  0.5484E-10  0.1935E-13  0.1000E-09  0.0000E+00  0.6377E+15
   -1.162531    3.65609  0.0000E+00  0.1249E-09  0.4301E-13  0.2547E-09  0.0000E+00  0.4658E+15
   -1.200032    3.76308  0.0000E+00  0.2822E-09  0.9486E-13  0.9077E-09  0.0000E+00  0.2873E+15
   -1.237532    3.87122  0.0000E+00  0.6310E-09  0.2074E-12  0.5432E-08  0.0000E+00  0.1033E+15
   -1.275033    3.97793  0.0000E+00  0.1302E-08  0.4232E-12  0.6400E-06  0.0000E+00 -0.6117E+12
   -1.312533    3.99850  0.0000E+00  0.2047E-08  0.7572E-12  0.1915E-05  0.0000E+00 -0.2048E+13
   -1.350032    4.00655  0.0000E+00  0.2594E-08  0.1140E-11  0.2090E-05  0.0000E+00 -0.2922E+13
   -1.387532    4.01429  0.0000E+00  0.2950E-08  0.1684E-11  0.1777E-05  0.0000E+00 -0.4861E+13
   -1.425031    4.02377  0.0000E+00  0.3002E-08  0.2676E-11  0.1079E-05  0.0000E+00 -0.1138E+14
   -1.462530    4.03977  0.0000E+00  0.2530E-08  0.5418E-11  0.3118E-06  0.0000E+00 -0.5744E+14
   -1.500028    4.08730  0.0000E+00  0.0000E+00  0.0000E+00  0.0000E+00  0.0000E+00  0.0000E+00
