 1 - depth, m
 2 - temperature, C
 3 - salinity, kg/kg
 4 - turbulent kinetic energy, m**2/s**2
 5 - dissipation rate, m**2/s**3
 6 - kinematic heat conductance, m**2/s
 7 - modulus of horizontal velocity, m/s
 8 - Richardson number, n/d
   -0.000000    8.31232  0.0000E+00  0.9294E-04  0.3357E-04  0.4412E-04  0.8654E-01 -0.5813E-01
   -0.037500    8.36058  0.0000E+00  0.5542E-04  0.9245E-05  0.7315E-04  0.3450E-01 -0.1122E-01
   -0.075000    8.36940  0.0000E+00  0.4229E-04  0.4113E-05  0.8586E-04  0.2619E-01 -0.1294E-01
   -0.112500    8.37561  0.0000E+00  0.3476E-04  0.2143E-05  0.9768E-04  0.2192E-01 -0.1900E-01
   -0.150001    8.38058  0.0000E+00  0.2963E-04  0.1257E-05  0.1102E-03  0.1880E-01 -0.2065E-01
   -0.187502    8.38478  0.0000E+00  0.2588E-04  0.7962E-06  0.1224E-03  0.1630E-01 -0.2536E-01
   -0.225003    8.38845  0.0000E+00  0.2296E-04  0.5353E-06  0.1339E-03  0.1422E-01 -0.3101E-01
   -0.262504    8.39172  0.0000E+00  0.2059E-04  0.3782E-06  0.1455E-03  0.1245E-01 -0.3893E-01
   -0.300006    8.39466  0.0000E+00  0.1862E-04  0.2787E-06  0.1567E-03  0.1095E-01 -0.4867E-01
   -0.337508    8.39734  0.0000E+00  0.1695E-04  0.2126E-06  0.1677E-03  0.9671E-02 -0.6030E-01
   -0.375010    8.39979  0.0000E+00  0.1553E-04  0.1667E-06  0.1788E-03  0.8567E-02 -0.6730E-01
   -0.412512    8.40205  0.0000E+00  0.1429E-04  0.1336E-06  0.1917E-03  0.7609E-02  0.1947E+00
   -0.450015    8.40412  0.0000E+00  0.1320E-04  0.1089E-06  0.2182E-03  0.6772E-02  0.3490E+02
   -0.487518    8.40596  0.0000E+00  0.1225E-04  0.9012E-07  0.2718E-03  0.6038E-02  0.8220E+02
   -0.525020    8.40753  0.0000E+00  0.1139E-04  0.7545E-07  0.3030E-03  0.5395E-02  0.1853E+02
   -0.562523    8.40891  0.0000E+00  0.1063E-04  0.6380E-07  0.3460E-03  0.4828E-02  0.1929E+02
   -0.600026    8.41014  0.0000E+00  0.9950E-05  0.5446E-07  0.3774E-03  0.4328E-02  0.7316E+03
   -0.637529    8.41123  0.0000E+00  0.9336E-05  0.4687E-07  0.4106E-03  0.3881E-02  0.1525E+02
   -0.675033    8.41222  0.0000E+00  0.8783E-05  0.4064E-07  0.4423E-03  0.3480E-02  0.3214E+02
   -0.712536    8.41311  0.0000E+00  0.8280E-05  0.3547E-07  0.4692E-03  0.3119E-02  0.2509E+03
   -0.750039    8.41393  0.0000E+00  0.7820E-05  0.3115E-07  0.4891E-03  0.2790E-02  0.1893E+02
   -0.787542    8.41468  0.0000E+00  0.7396E-05  0.2750E-07  0.5097E-03  0.2489E-02  0.3805E+02
   -0.825045    8.41540  0.0000E+00  0.7003E-05  0.2440E-07  0.5251E-03  0.2214E-02  0.1156E+03
   -0.862549    8.41608  0.0000E+00  0.6634E-05  0.2174E-07  0.5322E-03  0.1960E-02  0.8972E+01
   -0.900052    8.41674  0.0000E+00  0.6285E-05  0.1947E-07  0.5335E-03  0.1726E-02  0.4419E+01
   -0.937555    8.41739  0.0000E+00  0.5954E-05  0.1752E-07  0.5321E-03  0.1510E-02  0.4902E+01
   -0.975058    8.41804  0.0000E+00  0.5639E-05  0.1585E-07  0.5287E-03  0.1311E-02  0.1917E+01
   -1.012560    8.41868  0.0000E+00  0.5336E-05  0.1444E-07  0.5303E-03  0.1127E-02  0.1716E+01
   -1.050063    8.41932  0.0000E+00  0.5045E-05  0.1326E-07  0.5336E-03  0.9625E-03  0.1531E+01
   -1.087566    8.41995  0.0000E+00  0.4768E-05  0.1230E-07  0.5344E-03  0.8180E-03  0.1375E+01
   -1.125068    8.42058  0.0000E+00  0.4507E-05  0.1155E-07  0.5241E-03  0.6920E-03  0.1230E+01
   -1.162570    8.42122  0.0000E+00  0.4262E-05  0.1102E-07  0.5002E-03  0.5828E-03  0.1095E+01
   -1.200072    8.42188  0.0000E+00  0.4036E-05  0.1068E-07  0.4667E-03  0.4891E-03  0.9678E+00
   -1.237574    8.42259  0.0000E+00  0.3831E-05  0.1055E-07  0.4289E-03  0.4092E-03  0.8578E+00
   -1.275075    8.42337  0.0000E+00  0.3644E-05  0.1063E-07  0.3888E-03  0.3427E-03  0.8348E+00
   -1.312576    8.42422  0.0000E+00  0.3468E-05  0.1096E-07  0.3471E-03  0.2905E-03  0.1189E+01
   -1.350077    8.42518  0.0000E+00  0.3286E-05  0.1165E-07  0.2997E-03  0.2483E-03  0.2345E+01
   -1.387578    8.42629  0.0000E+00  0.3077E-05  0.1300E-07  0.2435E-03  0.2127E-03  0.6669E+01
   -1.425078    8.42769  0.0000E+00  0.2789E-05  0.1610E-07  0.1735E-03  0.1818E-03  0.4281E+02
   -1.462578    8.42966  0.0000E+00  0.1697E-05  0.3882E-07  0.1176E-04  0.1543E-03 -0.6896E+04
   -1.500078    8.45846  0.0000E+00  0.0000E+00  0.0000E+00  0.0000E+00  0.1542E-03  0.0000E+00
