 1 - depth, m
 2 - temperature, C
 3 - salinity, kg/kg
 4 - turbulent kinetic energy, m**2/s**2
 5 - dissipation rate, m**2/s**3
 6 - kinematic heat conductance, m**2/s
 7 - modulus of horizontal velocity, m/s
 8 - Richardson number, n/d
   -0.000000    0.00000  0.0000E+00  0.9132E-04  0.3519E-04  0.4512E-04  0.9669E-01  0.2526E-01
   -0.037495    0.00716  0.0000E+00  0.5777E-04  0.1043E-04  0.7190E-04  0.4097E-01  0.1687E-01
   -0.074990    0.01077  0.0000E+00  0.4434E-04  0.4215E-05  0.8412E-04  0.3069E-01  0.3348E-02
   -0.112486    0.01332  0.0000E+00  0.3687E-04  0.2190E-05  0.9651E-04  0.2563E-01  0.4802E-02
   -0.149982    0.01537  0.0000E+00  0.3169E-04  0.1272E-05  0.1081E-03  0.2202E-01  0.6452E-02
   -0.187478    0.01715  0.0000E+00  0.2779E-04  0.8053E-06  0.1185E-03  0.1919E-01  0.8368E-02
   -0.224975    0.01875  0.0000E+00  0.2469E-04  0.5475E-06  0.1270E-03  0.1685E-01  0.1052E-01
   -0.262471    0.02024  0.0000E+00  0.2208E-04  0.3928E-06  0.1344E-03  0.1485E-01  0.1370E-01
   -0.299968    0.02162  0.0000E+00  0.1983E-04  0.2937E-06  0.1401E-03  0.1315E-01  0.1772E-01
   -0.337466    0.02292  0.0000E+00  0.1788E-04  0.2263E-06  0.1440E-03  0.1169E-01  0.2267E-01
   -0.374963    0.02417  0.0000E+00  0.1615E-04  0.1783E-06  0.1464E-03  0.1041E-01  0.2869E-01
   -0.412461    0.02538  0.0000E+00  0.1460E-04  0.1427E-06  0.1470E-03  0.9280E-02  0.3592E-01
   -0.449959    0.02658  0.0000E+00  0.1318E-04  0.1156E-06  0.1459E-03  0.8273E-02  0.4445E-01
   -0.487457    0.02776  0.0000E+00  0.1188E-04  0.9432E-07  0.1433E-03  0.7365E-02  0.5501E-01
   -0.524955    0.02895  0.0000E+00  0.1067E-04  0.7723E-07  0.1402E-03  0.6541E-02  0.7229E-01
   -0.562453    0.03015  0.0000E+00  0.9542E-05  0.6342E-07  0.1356E-03  0.5807E-02  0.9511E-01
   -0.599951    0.03138  0.0000E+00  0.8506E-05  0.5218E-07  0.1297E-03  0.5150E-02  0.1258E+00
   -0.637450    0.03264  0.0000E+00  0.7551E-05  0.4296E-07  0.1225E-03  0.4558E-02  0.1680E+00
   -0.674948    0.03396  0.0000E+00  0.6671E-05  0.3535E-07  0.1143E-03  0.4025E-02  0.2271E+00
   -0.712447    0.03535  0.0000E+00  0.5861E-05  0.2905E-07  0.1051E-03  0.3541E-02  0.3125E+00
   -0.749945    0.03684  0.0000E+00  0.5117E-05  0.2381E-07  0.9507E-04  0.3103E-02  0.4380E+00
   -0.787444    0.03846  0.0000E+00  0.4433E-05  0.1944E-07  0.8434E-04  0.2705E-02  0.6313E+00
   -0.824942    0.04026  0.0000E+00  0.3805E-05  0.1579E-07  0.7298E-04  0.2343E-02  0.9445E+00
   -0.862441    0.04229  0.0000E+00  0.3230E-05  0.1274E-07  0.6114E-04  0.2014E-02  0.1480E+01
   -0.899939    0.04467  0.0000E+00  0.2703E-05  0.1019E-07  0.4899E-04  0.1713E-02  0.2451E+01
   -0.937437    0.04759  0.0000E+00  0.2222E-05  0.8054E-08  0.3676E-04  0.1437E-02  0.4309E+01
   -0.974936    0.05142  0.0000E+00  0.1781E-05  0.6260E-08  0.2460E-04  0.1181E-02  0.7920E+01
   -1.012434    0.05728  0.0000E+00  0.1367E-05  0.4708E-08  0.1372E-04  0.9332E-03  0.4928E+02
   -1.049932    0.06982  0.0000E+00  0.9207E-06  0.3154E-08  0.3834E-05  0.7047E-03  0.1486E+04
   -1.087430    0.15715  0.0000E+00  0.3911E-06  0.1328E-08  0.2352E-06  0.3959E-03  0.5796E+05
   -1.124927    0.54416  0.0000E+00  0.7494E-07  0.2590E-09  0.2094E-07  0.1045E-03  0.1140E+07
   -1.162425    1.13792  0.0000E+00  0.9975E-08  0.3565E-10  0.3710E-08  0.1703E-04  0.2179E+08
   -1.199922    1.70472  0.0000E+00  0.1213E-08  0.4470E-11  0.6946E-09  0.2431E-05  0.4775E+09
   -1.237419    2.20435  0.0000E+00  0.2144E-09  0.6569E-12  0.1725E-09  0.3073E-06  0.1390E+11
   -1.274916    2.66100  0.0000E+00  0.3997E-09  0.5214E-12  0.1916E-09  0.2908E-07  0.8729E+12
   -1.312412    3.10676  0.0000E+00  0.1648E-08  0.1774E-11  0.1265E-08  0.2515E-08  0.5696E+14
   -1.349909    3.58005  0.0000E+00  0.5444E-08  0.5967E-11  0.9074E-06  0.1943E-09  0.4285E+15
   -1.387405    3.91294  0.0000E+00  0.1155E-07  0.1440E-10  0.3528E-05  0.1486E-10  0.3582E+15
   -1.424900    4.06083  0.0000E+00  0.1538E-07  0.2562E-10  0.3252E-05  0.2222E-11 -0.3195E+14
   -1.462395    4.11470  0.0000E+00  0.1476E-07  0.5207E-10  0.1153E-05  0.3068E-12 -0.1636E+15
   -1.499890    4.18096  0.0000E+00  0.0000E+00  0.0000E+00  0.0000E+00  0.3062E-12  0.0000E+00
