 1 - depth, m
 2 - temperature, C
 3 - salinity, kg/kg
 4 - turbulent kinetic energy, m**2/s**2
 5 - dissipation rate, m**2/s**3
 6 - kinematic heat conductance, m**2/s
 7 - modulus of horizontal velocity, m/s
 8 - Richardson number, n/d
   -0.000000   11.16415  0.0000E+00  0.1063E-03  0.4069E-04  0.5434E-04  0.9564E-01 -0.2744E-01
   -0.037499   11.21658  0.0000E+00  0.6280E-04  0.1064E-04  0.7982E-04  0.3676E-01 -0.6341E-01
   -0.074998   11.22559  0.0000E+00  0.4730E-04  0.4730E-05  0.9085E-04  0.2781E-01 -0.1675E+00
   -0.112498   11.23212  0.0000E+00  0.3879E-04  0.2536E-05  0.1028E-03  0.2335E-01 -0.2290E-01
   -0.149998   11.23721  0.0000E+00  0.3298E-04  0.1478E-05  0.1162E-03  0.2005E-01 -0.2929E-01
   -0.187498   11.24146  0.0000E+00  0.2876E-04  0.9237E-06  0.1297E-03  0.1741E-01 -0.3490E-01
   -0.224999   11.24514  0.0000E+00  0.2553E-04  0.6165E-06  0.1428E-03  0.1521E-01 -0.4214E-01
   -0.262500   11.24842  0.0000E+00  0.2294E-04  0.4352E-06  0.1563E-03  0.1334E-01 -0.5236E-01
   -0.300001   11.25134  0.0000E+00  0.2081E-04  0.3216E-06  0.1699E-03  0.1176E-01 -0.6497E-01
   -0.337502   11.25398  0.0000E+00  0.1904E-04  0.2464E-06  0.1838E-03  0.1042E-01 -0.7976E-01
   -0.375004   11.25637  0.0000E+00  0.1753E-04  0.1942E-06  0.1995E-03  0.9269E-02  0.1618E-01
   -0.412506   11.25854  0.0000E+00  0.1623E-04  0.1565E-06  0.2273E-03  0.8276E-02  0.2426E+01
   -0.450008   11.26045  0.0000E+00  0.1511E-04  0.1287E-06  0.2873E-03  0.7417E-02  0.9466E+02
   -0.487510   11.26207  0.0000E+00  0.1414E-04  0.1075E-06  0.3434E-03  0.6671E-02  0.9743E+02
   -0.525012   11.26343  0.0000E+00  0.1328E-04  0.9098E-07  0.4093E-03  0.6012E-02  0.1042E+03
   -0.562514   11.26456  0.0000E+00  0.1252E-04  0.7792E-07  0.4832E-03  0.5431E-02  0.1067E+03
   -0.600017   11.26549  0.0000E+00  0.1184E-04  0.6738E-07  0.5350E-03  0.4911E-02  0.3110E+02
   -0.637519   11.26627  0.0000E+00  0.1122E-04  0.5868E-07  0.5590E-03  0.4435E-02  0.1313E+02
   -0.675022   11.26698  0.0000E+00  0.1065E-04  0.5138E-07  0.5682E-03  0.3996E-02  0.7734E+01
   -0.712524   11.26766  0.0000E+00  0.1012E-04  0.4520E-07  0.5722E-03  0.3590E-02  0.1157E+02
   -0.750027   11.26832  0.0000E+00  0.9622E-05  0.3993E-07  0.5730E-03  0.3215E-02  0.3380E+01
   -0.787529   11.26897  0.0000E+00  0.9151E-05  0.3542E-07  0.5726E-03  0.2868E-02  0.3081E+01
   -0.825032   11.26962  0.0000E+00  0.8704E-05  0.3154E-07  0.5719E-03  0.2548E-02  0.2857E+01
   -0.862534   11.27026  0.0000E+00  0.8277E-05  0.2820E-07  0.5707E-03  0.2253E-02  0.2676E+01
   -0.900037   11.27089  0.0000E+00  0.7866E-05  0.2533E-07  0.5687E-03  0.1981E-02  0.2526E+01
   -0.937539   11.27152  0.0000E+00  0.7468E-05  0.2288E-07  0.5657E-03  0.1729E-02  0.2402E+01
   -0.975042   11.27215  0.0000E+00  0.7080E-05  0.2078E-07  0.5611E-03  0.1497E-02  0.2304E+01
   -1.012544   11.27277  0.0000E+00  0.6699E-05  0.1900E-07  0.5610E-03  0.1282E-02  0.2041E+01
   -1.050046   11.27339  0.0000E+00  0.6327E-05  0.1754E-07  0.5633E-03  0.1091E-02  0.1800E+01
   -1.087548   11.27401  0.0000E+00  0.5966E-05  0.1637E-07  0.5647E-03  0.9233E-03  0.1596E+01
   -1.125049   11.27461  0.0000E+00  0.5619E-05  0.1550E-07  0.5549E-03  0.7775E-03  0.1410E+01
   -1.162551   11.27523  0.0000E+00  0.5290E-05  0.1493E-07  0.5351E-03  0.6521E-03  0.1239E+01
   -1.200052   11.27585  0.0000E+00  0.4985E-05  0.1466E-07  0.5044E-03  0.5454E-03  0.1076E+01
   -1.237553   11.27652  0.0000E+00  0.4708E-05  0.1468E-07  0.4554E-03  0.4559E-03  0.9186E+00
   -1.275054   11.27724  0.0000E+00  0.4459E-05  0.1501E-07  0.4021E-03  0.3828E-03  0.8624E+00
   -1.312555   11.27806  0.0000E+00  0.4224E-05  0.1571E-07  0.3577E-03  0.3268E-03  0.1184E+01
   -1.350055   11.27898  0.0000E+00  0.3968E-05  0.1707E-07  0.2977E-03  0.2825E-03  0.2486E+01
   -1.387555   11.28009  0.0000E+00  0.3648E-05  0.1982E-07  0.2497E-03  0.2415E-03  0.7278E+02
   -1.425055   11.28144  0.0000E+00  0.3140E-05  0.2797E-07  0.1366E-03  0.2060E-03  0.1702E+03
   -1.462554   11.28589  0.0000E+00  0.1851E-05  0.6949E-07  0.2513E-04  0.1611E-03 -0.2352E+04
   -1.500053   11.30053  0.0000E+00  0.0000E+00  0.0000E+00  0.0000E+00  0.1716E-03  0.0000E+00
