 1 - depth, m
 2 - temperature, C
 3 - salinity, kg/kg
 4 - turbulent kinetic energy, m**2/s**2
 5 - dissipation rate, m**2/s**3
 6 - kinematic heat conductance, m**2/s
 7 - modulus of horizontal velocity, m/s
 8 - Richardson number, n/d
   -0.000000    0.00000  0.0000E+00  0.4096E-13  0.8590E-16  0.1000E-09  0.0000E+00  0.1040E+17
   -0.037498    0.15948  0.0000E+00  0.4096E-13  0.8590E-16  0.1000E-09  0.0000E+00  0.9799E+16
   -0.074996    0.31645  0.0000E+00  0.4096E-13  0.8590E-16  0.1000E-09  0.0000E+00  0.9197E+16
   -0.112494    0.47056  0.0000E+00  0.4096E-13  0.8590E-16  0.1000E-09  0.0000E+00  0.8604E+16
   -0.149993    0.62151  0.0000E+00  0.4096E-13  0.8590E-16  0.1000E-09  0.0000E+00  0.8024E+16
   -0.187491    0.76905  0.0000E+00  0.4096E-13  0.8590E-16  0.1000E-09  0.0000E+00  0.7461E+16
   -0.224991    0.91294  0.0000E+00  0.4096E-13  0.8590E-16  0.1000E-09  0.0000E+00  0.6917E+16
   -0.262490    1.05298  0.0000E+00  0.4096E-13  0.8590E-16  0.1000E-09  0.0000E+00  0.6381E+16
   -0.299990    1.18869  0.0000E+00  0.4096E-13  0.8590E-16  0.1000E-09  0.0000E+00  0.5865E+16
   -0.337490    1.31982  0.0000E+00  0.4096E-13  0.8590E-16  0.1000E-09  0.0000E+00  0.5375E+16
   -0.374990    1.44620  0.0000E+00  0.4096E-13  0.8590E-16  0.1000E-09  0.0000E+00  0.4970E+16
   -0.412490    1.56918  0.0000E+00  0.4096E-13  0.8590E-16  0.1000E-09  0.0000E+00  0.4618E+16
   -0.449991    1.68960  0.0000E+00  0.4096E-13  0.8590E-16  0.1000E-09  0.0000E+00  0.4281E+16
   -0.487491    1.80741  0.0000E+00  0.4096E-13  0.8590E-16  0.1000E-09  0.0000E+00  0.3958E+16
   -0.524992    1.92251  0.0000E+00  0.4096E-13  0.8590E-16  0.1000E-09  0.0000E+00  0.3644E+16
   -0.562493    2.03472  0.0000E+00  0.4096E-13  0.8590E-16  0.1000E-09  0.0000E+00  0.3346E+16
   -0.599994    2.14394  0.0000E+00  0.4096E-13  0.8590E-16  0.1000E-09  0.0000E+00  0.3062E+16
   -0.637495    2.25011  0.0000E+00  0.4096E-13  0.8590E-16  0.1000E-09  0.0000E+00  0.2793E+16
   -0.674996    2.35314  0.0000E+00  0.4096E-13  0.8590E-16  0.1000E-09  0.0000E+00  0.2538E+16
   -0.712498    2.45293  0.0000E+00  0.4096E-13  0.8590E-16  0.1000E-09  0.0000E+00  0.2298E+16
   -0.749999    2.54940  0.0000E+00  0.4096E-13  0.8590E-16  0.1000E-09  0.0000E+00  0.2106E+16
   -0.787500    2.64404  0.0000E+00  0.4096E-13  0.8590E-16  0.1000E-09  0.0000E+00  0.1934E+16
   -0.825001    2.73741  0.0000E+00  0.4096E-13  0.8590E-16  0.1000E-09  0.0000E+00  0.1769E+16
   -0.862502    2.82951  0.0000E+00  0.4096E-13  0.8590E-16  0.1000E-09  0.0000E+00  0.1611E+16
   -0.900003    2.92040  0.0000E+00  0.4096E-13  0.8590E-16  0.1000E-09  0.0000E+00  0.1458E+16
   -0.937504    3.01012  0.0000E+00  0.4096E-13  0.8590E-16  0.1000E-09  0.0000E+00  0.1313E+16
   -0.975005    3.09872  0.0000E+00  0.4096E-13  0.8590E-16  0.1000E-09  0.0000E+00  0.1173E+16
   -1.012506    3.18627  0.0000E+00  0.4243E-13  0.8590E-16  0.1000E-09  0.0000E+00  0.1039E+16
   -1.050007    3.27286  0.0000E+00  0.1929E-12  0.1486E-15  0.1000E-09  0.0000E+00  0.9099E+15
   -1.087507    3.35856  0.0000E+00  0.6360E-12  0.4236E-15  0.1000E-09  0.0000E+00  0.7857E+15
   -1.125007    3.44346  0.0000E+00  0.1917E-11  0.1224E-14  0.1000E-09  0.0000E+00  0.6756E+15
   -1.162508    3.52903  0.0000E+00  0.5626E-11  0.3485E-14  0.1000E-09  0.0000E+00  0.5660E+15
   -1.200007    3.61575  0.0000E+00  0.1627E-10  0.9805E-14  0.1000E-09  0.0000E+00  0.4536E+15
   -1.237507    3.70401  0.0000E+00  0.4651E-10  0.2729E-13  0.2193E-09  0.0000E+00  0.3368E+15
   -1.275007    3.79433  0.0000E+00  0.1329E-09  0.7607E-13  0.9545E-09  0.0000E+00  0.2131E+15
   -1.312506    3.88777  0.0000E+00  0.3770E-09  0.2112E-12  0.7025E-08  0.0000E+00  0.7596E+14
   -1.350005    3.98192  0.0000E+00  0.1001E-08  0.5596E-12  0.4270E-06  0.0000E+00 -0.3549E+13
   -1.387503    4.00815  0.0000E+00  0.1734E-08  0.1205E-11  0.8710E-06  0.0000E+00 -0.7271E+13
   -1.425002    4.02380  0.0000E+00  0.2160E-08  0.2183E-11  0.7170E-06  0.0000E+00 -0.1502E+14
   -1.462500    4.04397  0.0000E+00  0.2078E-08  0.4468E-11  0.2702E-06  0.0000E+00 -0.6054E+14
   -1.499997    4.09149  0.0000E+00  0.0000E+00  0.0000E+00  0.0000E+00  0.0000E+00  0.0000E+00
